##NAMES=Afwillite
##RRUFFID=R141097
##IDEAL CHEMISTRY=Ca_3_(SiO_4_)(SiO_2_(OH)_2_)&#183;2H_2_O
##LOCALITY=Caspar quarry, Bellerberg volcano, Mayen, Eifel, Germany
##OWNER=RRUFF
##SOURCE=Ch. and H. Sch√§fer
##DESCRIPTION=Spherical aggregate of radiating colorless crystals
##STATUS=The identification of this mineral has been confirmed by single-crystal X-ray diffraction.
##URL=rruff.info/R141097
104.5771, 0.0000000E+00
105.0592, 4.277222
105.5413, 1.252441
106.0234, 3.371948
106.5055, 25.63745
106.9877, 57.10254
107.4698, 78.91809
107.9519, 105.9154
108.4340, 105.5432
108.9161, 90.40820
109.3982, 68.02356
109.8804, 41.07739
110.3625, 18.76929
110.8446, 0.8562010
111.3267, 7.090332
111.8088, 6.403564
112.2909, 21.09363
112.7731, 25.17419
113.2552, 18.12659
113.7373, 9.482544
114.2194, 13.71741
114.7015, 45.81006
115.1836, 63.51050
115.6658, 56.35107
116.1479, 40.44519
116.6300, 30.19214
117.1121, 30.34375
117.5942, 39.29736
118.0763, 56.16248
118.5584, 90.04565
119.0406, 112.6228
119.5227, 106.6924
120.0048, 82.26733
120.4869, 65.89136
120.9690, 72.52063
121.4511, 92.61523
121.9333, 103.6494
122.4154, 102.1207
122.8975, 97.49976
123.3796, 96.46484
123.8617, 98.81787
124.3438, 106.7279
124.8260, 129.7191
125.3081, 154.5878
125.7902, 168.3893
126.2723, 166.2882
126.7544, 151.6833
127.2365, 129.6123
127.7187, 89.33545
128.2008, 59.40173
128.6829, 49.95300
129.1650, 54.27551
129.6471, 65.32080
130.1292, 80.56030
130.6114, 97.78784
131.0935, 102.9043
131.5756, 83.12036
132.0577, 63.29907
132.5398, 54.98035
133.0219, 57.07996
133.5041, 63.50720
133.9862, 56.09656
134.4683, 37.57605
134.9504, 25.82007
135.4325, 21.46655
135.9146, 21.68408
136.3968, 26.87463
136.8789, 39.05029
137.3610, 54.29834
137.8431, 71.58582
138.3252, 84.69727
138.8073, 91.69568
139.2895, 100.8796
139.7716, 109.0701
140.2537, 111.6268
140.7358, 106.9362
141.2179, 99.94336
141.7000, 97.85693
142.1821, 99.97241
142.6643, 98.40417
143.1464, 81.86938
143.6285, 57.22473
144.1106, 51.94958
144.5927, 86.18408
145.0748, 125.6669
145.5570, 139.9268
146.0391, 128.4126
146.5212, 107.4368
147.0033, 87.97522
147.4854, 69.71826
147.9675, 55.78650
148.4497, 48.97620
148.9318, 45.42004
149.4139, 43.04419
149.8960, 41.51221
150.3781, 42.61096
150.8602, 50.38989
151.3424, 70.62122
151.8245, 84.39600
152.3066, 90.51477
152.7887, 90.80261
153.2708, 85.60596
153.7529, 75.25977
154.2351, 61.49402
154.7172, 48.41406
155.1993, 29.44775
155.6814, 20.19458
156.1635, 31.95154
156.6456, 50.80762
157.1278, 57.12195
157.6099, 40.36145
158.0920, 8.761597
158.5741, 3.190674
159.0562, 25.19946
159.5383, 47.14636
160.0205, 48.27917
160.5026, 34.22961
160.9847, 16.41284
161.4668, 1.154297
161.9489, 15.48340
162.4310, 15.05054
162.9131, 10.91370
163.3953, 37.71533
163.8774, 51.50098
164.3595, 53.12878
164.8416, 49.80078
165.3237, 43.08728
165.8058, 34.96777
166.2880, 30.38000
166.7701, 33.91162
167.2522, 37.94263
167.7343, 32.23987
168.2164, 14.50916
168.6985, 2.715210
169.1807, 10.67798
169.6628, 13.11670
170.1449, 16.67566
170.6270, 26.74060
171.1091, 37.73022
171.5912, 35.05322
172.0734, 10.33667
172.5555, 13.53992
173.0376, 27.23633
173.5197, 34.60413
174.0018, 41.04712
174.4839, 49.70764
174.9661, 60.02686
175.4482, 68.52466
175.9303, 78.44043
176.4124, 81.99231
176.8945, 72.35693
177.3766, 55.32056
177.8588, 40.47620
178.3409, 34.51489
178.8230, 37.47900
179.3051, 45.48083
179.7872, 64.05481
180.2693, 82.19653
180.7515, 101.0546
181.2336, 117.3562
181.7157, 123.7311
182.1978, 112.5558
182.6799, 81.16321
183.1620, 58.31311
183.6441, 46.45996
184.1263, 38.71362
184.6084, 31.02393
185.0905, 23.81384
185.5726, 20.82788
186.0547, 25.71021
186.5368, 39.67554
187.0190, 56.38354
187.5011, 85.51038
187.9832, 110.4772
188.4653, 115.7412
188.9474, 100.2864
189.4296, 80.04333
189.9117, 70.19983
190.3938, 70.62195
190.8759, 69.83838
191.3580, 63.06946
191.8401, 56.16272
192.3223, 56.63855
192.8044, 66.28857
193.2865, 78.50024
193.7686, 86.88123
194.2507, 92.66138
194.7328, 99.37390
195.2150, 115.7559
195.6971, 132.5690
196.1792, 126.2937
196.6613, 82.33850
197.1434, 43.61902
197.6255, 51.29187
198.1077, 89.91882
198.5898, 120.5183
199.0719, 115.9478
199.5540, 85.09094
200.0361, 66.67505
200.5182, 67.65515
201.0004, 73.47876
201.4825, 78.07043
201.9646, 80.92505
202.4467, 80.86414
202.9288, 74.11938
203.4109, 61.50061
203.8930, 57.89404
204.3752, 76.02307
204.8573, 90.24316
205.3394, 87.04456
205.8215, 71.48730
206.3036, 57.18896
206.7857, 57.56531
207.2679, 74.03442
207.7500, 77.51855
208.2321, 42.98193
208.7142, 17.86401
209.1963, 27.18481
209.6784, 61.06506
210.1606, 90.66113
210.6427, 88.08838
211.1248, 47.68750
211.6069, 24.92712
212.0890, 34.11426
212.5711, 46.22131
213.0533, 48.15906
213.5354, 40.40039
214.0175, 34.91663
214.4996, 44.03162
214.9817, 70.78455
215.4638, 90.47571
215.9460, 102.2701
216.4281, 108.9471
216.9102, 111.1143
217.3923, 109.4664
217.8744, 107.3020
218.3565, 106.7069
218.8387, 107.2976
219.3208, 117.9330
219.8029, 154.9407
220.2850, 187.7704
220.7671, 195.0894
221.2492, 176.9216
221.7314, 152.3542
222.2135, 136.0867
222.6956, 129.2523
223.1777, 128.3856
223.6598, 143.3101
224.1419, 157.0245
224.6240, 151.4784
225.1062, 127.0266
225.5883, 107.1296
226.0704, 114.0547
226.5525, 144.1990
227.0346, 165.5795
227.5167, 174.0740
227.9989, 174.8445
228.4810, 169.8340
228.9631, 158.9248
229.4452, 148.8987
229.9273, 146.4050
230.4094, 149.0029
230.8916, 150.6315
231.3737, 150.2915
231.8558, 148.5634
232.3379, 146.2098
232.8200, 143.3291
233.3021, 139.1273
233.7843, 129.7821
234.2664, 119.3353
234.7485, 114.5370
235.2306, 119.1495
235.7127, 128.2920
236.1948, 136.0109
236.6770, 142.4323
237.1591, 147.2363
237.6412, 152.7146
238.1233, 155.7205
238.6054, 151.2102
239.0875, 135.0640
239.5697, 114.4751
240.0518, 101.4161
240.5339, 97.75012
241.0160, 94.93152
241.4981, 86.81726
241.9802, 79.02222
242.4624, 77.93896
242.9445, 86.68079
243.4266, 100.0663
243.9087, 109.5344
244.3908, 114.3142
244.8729, 117.1456
245.3550, 123.1421
245.8372, 125.6212
246.3193, 113.5159
246.8014, 80.55139
247.2835, 46.49487
247.7656, 49.39868
248.2477, 111.2607
248.7299, 157.6455
249.2120, 175.1947
249.6941, 175.6029
250.1762, 161.6377
250.6583, 134.0693
251.1404, 101.5330
251.6226, 77.76025
252.1047, 64.36353
252.5868, 58.01416
253.0689, 59.52234
253.5510, 65.92126
254.0331, 78.12817
254.5153, 95.09094
254.9974, 109.9135
255.4795, 111.0250
255.9616, 89.70654
256.4437, 73.13782
256.9258, 38.71912
257.4080, 23.91821
257.8901, 76.31348
258.3722, 192.9000
258.8543, 309.2534
259.3364, 332.6982
259.8185, 212.8662
260.3007, 124.5970
260.7828, 72.67993
261.2649, 40.33057
261.7470, 20.06604
262.2291, 9.517334
262.7112, 8.726929
263.1934, 18.94202
263.6755, 44.91907
264.1576, 64.66846
264.6397, 77.02637
265.1218, 85.57166
265.6039, 94.89160
266.0861, 103.2698
266.5682, 102.3109
267.0503, 81.53210
267.5324, 35.12915
268.0145, 8.157959
268.4966, 15.66895
268.9788, 24.68713
269.4609, 13.43909
269.9430, 12.81506
270.4251, 30.36755
270.9072, 17.31641
271.3893, 27.98315
271.8715, 50.95068
272.3536, 35.51978
272.8357, 19.16064
273.3178, 18.67444
273.7999, 30.29639
274.2820, 40.24756
274.7642, 38.78723
275.2463, 27.08093
275.7284, 19.57410
276.2105, 6.475586
276.6926, 6.504883
277.1747, 41.99792
277.6568, 95.81934
278.1389, 127.1326
278.6211, 110.2780
279.1032, 59.39050
279.5853, 35.65930
280.0674, 61.44202
280.5495, 82.11792
281.0316, 76.88440
281.5138, 58.24402
281.9959, 50.69775
282.4780, 66.48230
282.9601, 93.62341
283.4422, 99.86389
283.9243, 74.54541
284.4065, 52.36145
284.8886, 38.29382
285.3707, 32.05432
285.8528, 35.97534
286.3349, 51.96777
286.8170, 71.14832
287.2992, 77.12952
287.7813, 65.12524
288.2634, 57.46875
288.7455, 56.72498
289.2276, 62.55310
289.7097, 77.64453
290.1919, 103.1150
290.6740, 128.5841
291.1561, 141.1055
291.6382, 139.2544
292.1203, 134.3210
292.6024, 124.2117
293.0846, 113.2521
293.5667, 104.6405
294.0488, 98.84534
294.5309, 98.19446
295.0130, 110.3505
295.4951, 134.3214
295.9773, 134.0509
296.4594, 79.37573
296.9415, 20.98889
297.4236, 1.969849
297.9057, 21.41455
298.3878, 47.53333
298.8700, 60.49146
299.3521, 61.99377
299.8342, 66.61694
300.3163, 81.11816
300.7984, 92.54663
301.2805, 94.23071
301.7627, 86.55786
302.2448, 69.93579
302.7269, 39.66626
303.2090, 4.244385
303.6911, 11.41003
304.1732, 2.518555
304.6554, 17.76843
305.1375, 23.14856
305.6196, 20.37500
306.1017, 12.29285
306.5838, 2.184448
307.0659, 17.45605
307.5481, 20.69067
308.0302, 8.696045
308.5123, 1.932129
308.9944, 3.141602
309.4765, 13.78223
309.9586, 6.717407
310.4408, 26.55713
310.9229, 66.38953
311.4050, 87.64636
311.8871, 90.77393
312.3692, 89.56384
312.8513, 83.18396
313.3335, 75.42542
313.8156, 71.36646
314.2977, 71.87000
314.7798, 72.36975
315.2619, 65.06506
315.7440, 51.66052
316.2262, 53.90479
316.7083, 92.77051
317.1904, 134.4277
317.6725, 149.9525
318.1546, 139.4943
318.6367, 119.9697
319.1188, 98.89465
319.6010, 78.27869
320.0831, 65.14307
320.5652, 67.94714
321.0473, 69.67151
321.5294, 54.75623
322.0115, 29.34546
322.4937, 15.76538
322.9758, 25.99109
323.4579, 52.83765
323.9400, 79.47266
324.4221, 112.5366
324.9042, 132.5963
325.3864, 125.1504
325.8685, 101.1082
326.3506, 80.55200
326.8327, 69.50208
327.3148, 64.38110
327.7969, 61.42151
328.2791, 61.65027
328.7612, 56.37256
329.2433, 32.95557
329.7254, 7.123291
330.2075, 0.2465820
330.6896, 14.42090
331.1718, 37.88025
331.6539, 60.63123
332.1360, 82.42773
332.6181, 90.33337
333.1002, 72.88062
333.5823, 49.74414
334.0645, 31.67432
334.5466, 20.28125
335.0287, 18.23828
335.5108, 29.47156
335.9929, 51.88110
336.4750, 68.32776
336.9572, 81.54370
337.4393, 87.07483
337.9214, 78.27136
338.4035, 60.18298
338.8856, 43.88477
339.3677, 33.82983
339.8499, 30.19617
340.3320, 35.42627
340.8141, 58.98669
341.2962, 73.13501
341.7783, 66.10278
342.2604, 49.11047
342.7426, 36.23340
343.2247, 31.53137
343.7068, 31.06616
344.1889, 29.77161
344.6710, 27.66260
345.1531, 24.24438
345.6353, 16.35864
346.1174, 9.387695
346.5995, 7.350220
347.0816, 10.56360
347.5637, 17.44446
348.0458, 27.04944
348.5280, 39.60791
349.0101, 50.71399
349.4922, 62.34314
349.9743, 70.88721
350.4564, 74.29602
350.9385, 73.32556
351.4207, 69.63611
351.9028, 64.05029
352.3849, 56.81653
352.8670, 48.83557
353.3491, 40.20923
353.8312, 30.75183
354.3134, 15.18896
354.7955, 0.8382570
355.2776, 2.032349
355.7597, 10.05469
356.2418, 28.92041
356.7239, 40.63062
357.2061, 39.01086
357.6882, 42.76160
358.1703, 54.52136
358.6524, 69.11597
359.1345, 86.84729
359.6166, 105.3914
360.0987, 116.3944
360.5808, 109.5331
361.0630, 81.18140
361.5451, 69.08008
362.0272, 96.44617
362.5093, 116.6406
362.9914, 109.6461
363.4735, 84.33789
363.9557, 60.09314
364.4378, 49.10059
364.9199, 45.76685
365.4020, 29.15051
365.8841, 22.69653
366.3662, 54.98547
366.8484, 54.52795
367.3305, 37.58264
367.8126, 14.59937
368.2947, 9.939697
368.7768, 31.19043
369.2589, 41.03638
369.7411, 33.42664
370.2232, 30.81409
370.7053, 42.33484
371.1874, 51.73193
371.6695, 46.84753
372.1516, 30.18738
372.6338, 15.08545
373.1159, 13.55945
373.5980, 25.23230
374.0801, 38.80542
374.5622, 63.23486
375.0443, 77.70068
375.5265, 68.34900
376.0086, 46.83289
376.4907, 30.87390
376.9728, 29.19043
377.4549, 37.40955
377.9370, 46.42151
378.4192, 56.53418
378.9013, 66.56848
379.3834, 78.90527
379.8655, 89.39062
380.3476, 94.05542
380.8297, 92.26575
381.3119, 87.76294
381.7940, 82.16296
382.2761, 75.58032
382.7582, 75.57349
383.2403, 88.75854
383.7224, 102.1075
384.2046, 108.5524
384.6867, 108.2550
385.1688, 102.2766
385.6509, 86.86584
386.1330, 67.65112
386.6151, 56.53015
387.0973, 54.13953
387.5794, 55.70178
388.0615, 59.77637
388.5436, 66.70569
389.0257, 76.91577
389.5078, 93.26965
389.9900, 107.5121
390.4721, 106.8939
390.9542, 94.62134
391.4363, 95.47534
391.9184, 124.4575
392.4005, 162.2959
392.8827, 182.9247
393.3648, 186.2211
393.8469, 183.1198
394.3290, 174.1931
394.8111, 162.6223
395.2932, 153.1315
395.7754, 146.2737
396.2575, 142.0887
396.7396, 142.0586
397.2217, 145.7666
397.7038, 145.4197
398.1859, 133.8445
398.6681, 124.6643
399.1501, 126.1862
399.6323, 137.6021
400.1144, 157.7701
400.5965, 189.3103
401.0786, 224.0767
401.5607, 236.5823
402.0428, 218.3027
402.5250, 196.8962
403.0071, 169.3636
403.4892, 145.0605
403.9713, 137.1099
404.4534, 147.9034
404.9355, 164.9969
405.4177, 173.8359
405.8998, 173.0082
406.3819, 169.3734
406.8640, 157.6530
407.3461, 148.4009
407.8282, 150.3531
408.3104, 159.2429
408.7925, 156.3199
409.2746, 124.9832
409.7567, 84.52710
410.2388, 126.4756
410.7209, 412.2144
411.2031, 567.4916
411.6852, 448.9198
412.1673, 250.5209
412.6494, 171.1523
413.1315, 256.0099
413.6136, 387.9956
414.0958, 401.7576
414.5779, 256.7819
415.0600, 155.7550
415.5421, 130.2582
416.0242, 121.2371
416.5063, 111.6499
416.9885, 100.5529
417.4706, 89.67151
417.9527, 75.88818
418.4348, 66.87500
418.9169, 97.10706
419.3990, 197.3994
419.8812, 267.4249
420.3633, 261.8070
420.8454, 221.7209
421.3275, 176.2714
421.8096, 131.7040
422.2917, 99.81982
422.7739, 101.4044
423.2560, 134.2510
423.7381, 149.6606
424.2202, 133.4391
424.7023, 109.8694
425.1844, 98.77429
425.6666, 97.06750
426.1487, 91.84338
426.6308, 68.87061
427.1129, 41.43176
427.5950, 30.81506
428.0771, 37.79370
428.5593, 49.06653
429.0414, 61.18970
429.5235, 71.17615
430.0056, 73.00635
430.4877, 62.88843
430.9698, 53.08826
431.4520, 48.74109
431.9341, 49.15051
432.4162, 54.92200
432.8983, 67.08130
433.3804, 78.00085
433.8625, 76.86377
434.3447, 60.87939
434.8268, 54.60632
435.3089, 74.94897
435.7910, 91.52722
436.2731, 76.97998
436.7552, 39.47119
437.2374, 8.934326
437.7195, 2.999023
438.2016, 16.54077
438.6837, 30.37085
439.1658, 53.27063
439.6479, 65.00049
440.1301, 56.86304
440.6122, 41.09814
441.0943, 28.97986
441.5764, 22.84851
442.0585, 17.81885
442.5406, 7.788330
443.0227, 8.672241
443.5049, 19.73694
443.9870, 24.54761
444.4691, 24.67786
444.9512, 17.79248
445.4333, 7.000000
445.9154, 3.811279
446.3976, 12.93799
446.8797, 19.11536
447.3618, 17.06885
447.8439, 0.4591060
448.3260, 5.353882
448.8081, 11.52075
449.2903, 35.51746
449.7724, 64.79724
450.2545, 95.60730
450.7366, 111.3511
451.2187, 86.68774
451.7008, 33.90466
452.1830, 9.716675
452.6651, 26.36108
453.1472, 43.73035
453.6293, 31.06384
454.1114, 5.883667
454.5935, 6.006470
455.0757, 5.796265
455.5578, 22.22229
456.0399, 26.88879
456.5220, 22.43457
457.0041, 21.02539
457.4862, 27.18384
457.9684, 35.21851
458.4505, 38.52661
458.9326, 37.53308
459.4147, 31.48816
459.8968, 12.04395
460.3789, 6.589844
460.8611, 12.86243
461.3432, 6.633545
461.8253, 9.945190
462.3074, 38.78259
462.7895, 73.84399
463.2716, 90.10645
463.7538, 69.64929
464.2359, 55.24902
464.7180, 53.31018
465.2001, 58.73608
465.6822, 69.49036
466.1643, 83.62537
466.6465, 94.50696
467.1286, 94.23938
467.6107, 81.44507
468.0928, 70.57983
468.5749, 49.30408
469.0570, 43.54211
469.5392, 73.55396
470.0213, 120.1201
470.5034, 155.5315
470.9855, 167.6112
471.4676, 164.4288
471.9497, 158.5966
472.4319, 149.3254
472.9140, 140.8893
473.3961, 133.5409
473.8782, 127.6405
474.3603, 123.6055
474.8424, 121.3030
475.3246, 120.0614
475.8067, 120.0686
476.2888, 120.6947
476.7709, 121.8439
477.2530, 124.4200
477.7351, 121.1399
478.2173, 100.8489
478.6994, 77.05676
479.1815, 74.70056
479.6636, 103.5375
480.1457, 121.4723
480.6278, 95.03418
481.1100, 46.54626
481.5920, 15.18066
482.0742, 7.834106
482.5563, 16.65161
483.0384, 40.92346
483.5205, 79.37476
484.0026, 94.39526
484.4847, 40.45386
484.9669, 13.60339
485.4490, 94.48181
485.9311, 220.3063
486.4132, 272.4617
486.8953, 207.4542
487.3774, 89.32544
487.8596, 23.43286
488.3417, 29.09558
488.8238, 34.88745
489.3059, 48.14844
489.7880, 54.62756
490.2701, 36.99268
490.7523, 7.259644
491.2344, 5.367432
491.7165, 19.58118
492.1986, 64.94885
492.6807, 80.66248
493.1628, 52.95911
493.6450, 33.61072
494.1271, 41.42249
494.6092, 55.53125
495.0913, 61.85400
495.5734, 60.03687
496.0555, 59.88281
496.5377, 69.43652
497.0198, 85.30359
497.5019, 98.51331
497.9840, 108.5475
498.4661, 117.2054
498.9482, 125.8271
499.4304, 133.7678
499.9125, 139.8850
500.3946, 144.5789
500.8767, 148.4249
501.3588, 152.7062
501.8409, 155.2300
502.3231, 153.8333
502.8052, 149.0894
503.2873, 137.1561
503.7694, 106.2085
504.2515, 54.70398
504.7336, 57.21545
505.2158, 189.0302
505.6979, 284.7338
506.1800, 255.0671
506.6621, 161.5355
507.1442, 96.95630
507.6263, 94.88489
508.1085, 125.9268
508.5906, 147.0867
509.0727, 157.7644
509.5548, 160.7063
510.0369, 145.7783
510.5190, 133.2223
511.0012, 136.1653
511.4833, 146.3723
511.9654, 145.2025
512.4475, 120.1171
512.9296, 89.49536
513.4117, 89.69165
513.8939, 125.8890
514.3760, 153.0994
514.8581, 160.4036
515.3402, 156.2839
515.8223, 142.1414
516.3044, 120.9648
516.7866, 111.1604
517.2687, 125.5790
517.7508, 152.5808
518.2329, 183.6367
518.7150, 217.0084
519.1971, 234.1110
519.6793, 221.5051
520.1614, 191.9973
520.6435, 175.5146
521.1256, 175.7412
521.6077, 174.8129
522.0898, 168.2986
522.5720, 160.4755
523.0541, 155.6552
523.5362, 153.5642
524.0183, 150.8462
524.5004, 145.1863
524.9825, 136.8496
525.4647, 126.2721
525.9468, 99.69421
526.4289, 91.88464
526.9110, 127.3270
527.3931, 166.7877
527.8752, 174.4224
528.3574, 149.1339
528.8395, 119.4231
529.3216, 108.2734
529.8037, 112.2539
530.2858, 121.8884
530.7679, 145.7974
531.2501, 158.5095
531.7322, 135.5516
532.2143, 102.2927
532.6964, 85.06091
533.1785, 89.54395
533.6606, 100.4034
534.1428, 109.8737
534.6249, 118.1178
535.1070, 124.5262
535.5891, 128.7045
536.0712, 135.9014
536.5533, 153.0730
537.0355, 176.8131
537.5176, 186.5869
537.9997, 172.5013
538.4818, 157.9683
538.9639, 146.5858
539.4460, 139.7260
539.9282, 140.6276
540.4103, 149.1935
540.8924, 160.6566
541.3745, 171.4100
541.8566, 181.8099
542.3387, 178.8881
542.8209, 140.7062
543.3029, 115.4618
543.7850, 121.8026
544.2672, 141.6727
544.7493, 156.0314
545.2314, 159.5082
545.7135, 156.2695
546.1956, 146.0248
546.6777, 130.2798
547.1599, 131.5817
547.6420, 163.9969
548.1241, 186.0967
548.6062, 154.4897
549.0883, 98.98145
549.5704, 70.30261
550.0526, 89.36511
550.5347, 108.8843
551.0168, 95.42773
551.4989, 61.74902
551.9810, 32.99146
552.4631, 14.33044
552.9453, 2.375977
553.4274, 5.548950
553.9095, 9.431274
554.3916, 10.42517
554.8737, 7.877563
555.3558, 3.717163
555.8380, 6.145020
556.3201, 15.26050
556.8022, 13.38599
557.2843, 0.9488530
557.7664, 17.32764
558.2485, 24.93042
558.7307, 23.76123
559.2128, 12.13245
559.6949, 24.06213
560.1770, 49.96106
560.6591, 50.60852
561.1412, 37.35486
561.6234, 20.93225
562.1055, 3.154297
562.5876, 7.610718
563.0697, 0.1911620
563.5518, 20.38342
564.0339, 36.71631
564.5161, 46.00635
564.9982, 55.80164
565.4803, 73.84497
565.9624, 96.71655
566.4445, 110.0645
566.9266, 110.7261
567.4088, 106.5219
567.8909, 85.75183
568.3730, 68.37488
568.8551, 92.37598
569.3372, 157.4252
569.8193, 212.9453
570.3015, 208.7286
570.7836, 148.3621
571.2657, 101.7025
571.7478, 73.45630
572.2299, 53.68811
572.7120, 39.08630
573.1942, 32.51453
573.6763, 40.64575
574.1584, 62.45300
574.6405, 83.85889
575.1226, 94.67273
575.6047, 95.18030
576.0869, 83.22998
576.5690, 54.57922
577.0511, 31.18237
577.5332, 22.90735
578.0153, 27.04016
578.4974, 41.12744
578.9796, 69.55054
579.4617, 87.90356
579.9438, 79.99414
580.4259, 61.36646
580.9080, 47.45142
581.3901, 40.12708
581.8723, 39.08215
582.3544, 45.32300
582.8365, 55.46472
583.3186, 57.84131
583.8007, 44.81458
584.2828, 34.41626
584.7650, 31.69482
585.2471, 27.66077
585.7292, 11.21094
586.2113, 12.49133
586.6934, 26.06201
587.1755, 16.16724
587.6577, 6.052612
588.1398, 13.04712
588.6219, 1.361450
589.1040, 5.215698
589.5861, 4.932861
590.0682, 7.471069
590.5504, 49.68848
591.0325, 113.8617
591.5146, 146.4675
591.9967, 106.0156
592.4788, 48.81274
592.9609, 19.92712
593.4431, 13.97058
593.9252, 12.47827
594.4073, 8.753052
594.8894, 8.768677
595.3715, 23.25952
595.8536, 59.90137
596.3358, 75.54114
596.8179, 52.99292
597.3000, 31.77759
597.7821, 25.37134
598.2642, 29.11499
598.7463, 36.75452
599.2285, 45.87000
599.7106, 53.50122
600.1927, 55.66846
600.6748, 52.53174
601.1569, 46.89880
601.6390, 33.73535
602.1212, 29.12256
602.6033, 50.30225
603.0854, 83.61389
603.5675, 110.1595
604.0496, 130.3441
604.5317, 136.2062
605.0139, 109.0355
605.4960, 71.71753
605.9781, 56.40942
606.4602, 66.85889
606.9423, 96.83826
607.4244, 147.2485
607.9066, 207.7670
608.3887, 231.2759
608.8708, 183.9194
609.3529, 146.3643
609.8350, 123.7915
610.3171, 109.9092
610.7993, 103.3024
611.2814, 101.3044
611.7635, 98.85254
612.2456, 92.40247
612.7277, 84.63696
613.2098, 81.67749
613.6920, 84.04822
614.1741, 84.52063
614.6562, 81.49597
615.1383, 75.01794
615.6204, 64.74438
616.1025, 51.80554
616.5847, 39.85657
617.0668, 29.90466
617.5489, 21.94385
618.0310, 11.55359
618.5131, 3.297852
618.9952, 10.12476
619.4774, 35.16504
619.9595, 61.24438
620.4416, 66.80164
620.9237, 50.95239
621.4058, 40.05969
621.8879, 35.25610
622.3701, 34.40466
622.8522, 42.94202
623.3343, 51.85620
623.8164, 50.09753
624.2985, 36.33447
624.7806, 21.82532
625.2628, 14.96985
625.7448, 14.44849
626.2269, 18.25562
626.7090, 26.85071
627.1912, 33.96948
627.6733, 37.78479
628.1554, 37.53088
628.6375, 29.11682
629.1196, 9.470825
629.6017, 0.2808840
630.0839, 5.147705
630.5660, 15.95813
631.0481, 27.25586
631.5302, 37.73718
632.0123, 47.10278
632.4944, 55.19177
632.9766, 59.56006
633.4587, 54.59668
633.9408, 37.74854
634.4229, 24.22083
634.9050, 11.81946
635.3871, 6.432983
635.8693, 13.86255
636.3514, 28.09521
636.8335, 40.69006
637.3156, 49.93286
637.7977, 55.56274
638.2798, 58.69275
638.7620, 57.66968
639.2441, 45.79285
639.7262, 23.03577
640.2083, 4.070557
640.6904, 1.729980
641.1725, 3.521362
641.6547, 12.97717
642.1368, 36.16467
642.6189, 49.09497
643.1010, 47.10107
643.5831, 39.07703
644.0652, 25.99414
644.5474, 10.96985
645.0295, 0.5804440
645.5116, 2.658813
645.9937, 0.5742190
646.4758, 14.83875
646.9579, 39.68872
647.4401, 56.75854
647.9222, 61.85571
648.4043, 62.39673
648.8864, 65.37488
649.3685, 68.33899
649.8506, 63.21533
650.3328, 41.31238
650.8149, 23.85779
651.2970, 21.27612
651.7791, 26.44336
652.2612, 32.91101
652.7433, 38.73950
653.2255, 41.37549
653.7076, 38.31519
654.1897, 31.92749
654.6718, 31.68127
655.1539, 41.22156
655.6360, 48.04736
656.1182, 46.66077
656.6003, 45.38074
657.0824, 51.97217
657.5645, 62.72498
658.0466, 65.76343
658.5287, 55.03967
659.0109, 42.47241
659.4930, 36.38623
659.9751, 32.63135
660.4572, 26.17615
660.9393, 17.17627
661.4214, 12.06763
661.9036, 16.79724
662.3857, 30.25464
662.8678, 40.58936
663.3499, 46.76062
663.8320, 52.89233
664.3141, 56.79553
664.7963, 60.11169
665.2784, 67.66992
665.7605, 77.90857
666.2426, 80.71094
666.7247, 66.40344
667.2068, 46.73865
667.6890, 43.71191
668.1711, 56.91797
668.6532, 74.88367
669.1353, 100.4006
669.6174, 116.9397
670.0995, 104.2386
670.5817, 65.20129
671.0638, 34.91565
671.5459, 10.19470
672.0280, 1.156372
672.5101, 12.96045
672.9922, 36.21790
673.4744, 52.27478
673.9565, 58.55359
674.4386, 58.84070
674.9207, 54.09644
675.4028, 48.79480
675.8849, 61.53613
676.3671, 99.27942
676.8492, 121.4050
677.3313, 108.3879
677.8134, 91.25745
678.2955, 102.1615
678.7776, 130.8132
679.2598, 139.2595
679.7419, 103.6693
680.2240, 65.39185
680.7061, 45.17883
681.1882, 39.38391
681.6703, 47.75305
682.1525, 66.54932
682.6346, 81.27222
683.1167, 79.03259
683.5988, 64.01941
684.0809, 57.81384
684.5630, 67.85559
685.0452, 70.44690
685.5273, 55.26941
686.0094, 38.09058
686.4915, 12.05408
686.9736, 9.149902
687.4557, 18.18555
687.9379, 147.5802
688.4200, 264.9880
688.9021, 242.6523
689.3842, 135.1571
689.8663, 71.33813
690.3484, 73.79773
690.8306, 90.51062
691.3127, 80.51099
691.7948, 50.75684
692.2769, 36.65698
692.7590, 54.40759
693.2411, 62.01355
693.7233, 45.25891
694.2054, 29.71985
694.6875, 35.90588
695.1696, 55.94006
695.6517, 66.74475
696.1339, 56.18237
696.6160, 39.79468
697.0981, 33.92981
697.5802, 36.93506
698.0623, 42.74756
698.5444, 50.23706
699.0266, 62.68616
699.5087, 85.27869
699.9908, 112.1223
700.4729, 120.5764
700.9550, 99.04919
701.4371, 76.14038
701.9193, 41.66284
702.4014, 15.67737
702.8835, 13.96460
703.3656, 29.67981
703.8477, 50.04224
704.3298, 70.43787
704.8120, 82.88281
705.2941, 70.32092
705.7762, 39.49744
706.2583, 25.56873
706.7404, 34.02124
707.2225, 43.27124
707.7046, 38.26294
708.1867, 27.57544
708.6688, 35.59033
709.1509, 77.14783
709.6331, 98.52686
710.1152, 78.17676
710.5973, 54.34741
711.0794, 45.90491
711.5615, 51.24500
712.0436, 69.01685
712.5258, 98.14746
713.0079, 121.6338
713.4900, 116.4812
713.9721, 87.55920
714.4542, 61.85303
714.9363, 41.02380
715.4185, 16.90930
715.9006, 20.88037
716.3827, 56.82483
716.8648, 59.70093
717.3469, 22.72070
717.8290, 2.439941
718.3112, 3.602905
718.7933, 0.3845210
719.2754, 3.808105
719.7575, 8.608032
720.2396, 3.314209
720.7217, 13.50342
721.2039, 27.86707
721.6860, 25.90503
722.1681, 10.47278
722.6502, 10.39868
723.1323, 38.76428
723.6144, 55.23206
724.0966, 47.70203
724.5787, 34.70923
725.0608, 39.53113
725.5429, 61.77612
726.0250, 78.00146
726.5071, 91.38232
726.9893, 93.38367
727.4714, 70.77942
727.9535, 41.19873
728.4356, 25.15234
728.9177, 24.14880
729.3998, 25.64392
729.8820, 20.07593
730.3641, 12.77747
730.8462, 15.56982
731.3283, 28.81116
731.8104, 33.15430
732.2925, 21.50012
732.7747, 7.798828
733.2568, 0.2587890
733.7389, 0.2424320
734.2210, 12.70410
734.7031, 56.28955
735.1852, 83.35083
735.6674, 69.58740
736.1495, 47.46777
736.6316, 48.02637
737.1137, 64.17297
737.5958, 66.93579
738.0779, 40.81580
738.5601, 6.549927
739.0422, 6.580811
739.5243, 0.1551510
740.0064, 18.89941
740.4885, 53.85815
740.9706, 75.66516
741.4528, 52.46680
741.9349, 16.73767
742.4170, 53.75525
742.8991, 203.7662
743.3812, 282.3641
743.8633, 218.8423
744.3455, 138.4368
744.8276, 101.1082
745.3097, 94.13196
745.7918, 87.29346
746.2739, 72.08374
746.7560, 58.75598
747.2382, 61.68640
747.7203, 73.50586
748.2024, 69.22070
748.6845, 48.37195
749.1666, 29.16821
749.6487, 16.37817
750.1309, 10.90906
750.6130, 16.39270
751.0951, 33.82202
751.5772, 41.79382
752.0593, 35.72107
752.5414, 26.93738
753.0236, 8.982300
753.5057, 4.277100
753.9878, 1.205200
754.4699, 18.74475
754.9520, 54.26294
755.4341, 115.3839
755.9163, 169.2102
756.3984, 157.9380
756.8805, 96.91907
757.3626, 54.10034
757.8447, 41.03369
758.3268, 35.05933
758.8090, 18.93408
759.2911, 0.8728030
759.7732, 2.000854
760.2553, 34.07715
760.7374, 54.76868
761.2195, 48.64294
761.7017, 40.59033
762.1838, 39.13232
762.6659, 44.71277
763.1480, 60.50671
763.6301, 88.09033
764.1122, 108.1349
764.5944, 99.55115
765.0765, 78.06177
765.5586, 65.92322
766.0407, 63.94482
766.5228, 71.05701
767.0049, 87.05188
767.4871, 108.9750
767.9692, 134.5327
768.4513, 164.5366
768.9334, 180.7115
769.4155, 173.2457
769.8976, 167.9139
770.3798, 175.3163
770.8619, 182.9460
771.3440, 176.7280
771.8261, 160.2871
772.3082, 154.4618
772.7903, 176.8589
773.2725, 197.9601
773.7546, 195.7335
774.2367, 176.7924
774.7188, 149.1554
775.2009, 118.7960
775.6830, 95.55896
776.1652, 84.73169
776.6473, 83.47498
777.1294, 89.11646
777.6115, 104.7522
778.0936, 103.5345
778.5757, 67.93726
779.0579, 42.94482
779.5400, 66.46472
780.0221, 112.3057
780.5042, 135.0492
780.9863, 129.1825
781.4684, 116.4951
781.9506, 85.98926
782.4327, 66.56299
782.9148, 93.03137
783.3969, 137.5731
783.8790, 149.2139
784.3611, 117.6481
784.8433, 79.46802
785.3254, 67.55579
785.8075, 75.20740
786.2896, 84.75989
786.7717, 96.24719
787.2538, 105.7130
787.7360, 113.7369
788.2181, 113.8728
788.7002, 94.88135
789.1823, 61.10095
789.6644, 50.16785
790.1465, 89.30981
790.6286, 110.9500
791.1107, 94.45190
791.5928, 73.37390
792.0750, 71.87744
792.5571, 82.33374
793.0392, 83.10754
793.5213, 64.76062
794.0034, 50.92102
794.4855, 72.67322
794.9677, 108.7917
795.4498, 114.0149
795.9319, 91.24536
796.4140, 77.96973
796.8961, 89.65625
797.3782, 111.2960
797.8604, 118.8013
798.3425, 110.6902
798.8246, 124.5631
799.3067, 186.4259
799.7888, 223.2727
800.2709, 194.6694
800.7531, 151.9171
801.2352, 130.4867
801.7173, 128.5394
802.1994, 130.3955
802.6815, 134.0947
803.1636, 137.6450
803.6458, 137.0774
804.1279, 137.6239
804.6100, 151.2253
805.0921, 172.7590
805.5742, 182.2111
806.0563, 168.3818
806.5385, 141.2396
807.0206, 113.3320
807.5027, 85.19067
807.9848, 65.85486
808.4669, 56.70752
808.9490, 49.82056
809.4312, 38.18738
809.9133, 32.20508
810.3954, 54.03589
810.8775, 113.0342
811.3596, 135.0657
811.8417, 83.93054
812.3239, 42.95752
812.8060, 36.48547
813.2881, 48.96533
813.7702, 69.91089
814.2523, 95.53625
814.7344, 121.9581
815.2166, 150.6350
815.6987, 172.0874
816.1808, 170.8585
816.6629, 156.0403
817.1450, 148.3414
817.6271, 149.4679
818.1093, 149.1847
818.5914, 141.3574
819.0735, 129.9021
819.5556, 122.3245
820.0377, 119.0876
820.5198, 117.6887
821.0020, 123.7147
821.4841, 120.6704
821.9662, 91.44482
822.4483, 57.83215
822.9304, 44.51245
823.4125, 51.16772
823.8947, 60.70190
824.3768, 81.44714
824.8589, 90.42749
825.3410, 64.30859
825.8231, 29.93469
826.3052, 19.89978
826.7874, 32.30896
827.2695, 43.35803
827.7516, 39.72400
828.2337, 29.09131
828.7158, 19.49243
829.1979, 12.00867
829.6801, 14.68774
830.1622, 28.30420
830.6443, 32.58350
831.1264, 14.82544
831.6085, 9.672852
832.0906, 14.75134
832.5728, 3.288940
833.0549, 13.74438
833.5370, 11.31506
834.0191, 8.674927
834.5012, 10.65857
834.9833, 11.97620
835.4655, 4.860107
835.9476, 7.838135
836.4297, 11.60681
836.9118, 2.813354
837.3939, 19.20105
837.8760, 31.80396
838.3582, 39.63660
838.8403, 38.71240
839.3224, 31.85352
839.8045, 27.51123
840.2866, 29.66638
840.7687, 35.80713
841.2509, 43.67871
841.7330, 52.75830
842.2151, 62.27075
842.6972, 72.89331
843.1793, 68.59375
843.6614, 37.42322
844.1436, 7.091431
844.6257, 12.76257
845.1078, 53.30969
845.5899, 79.68176
846.0720, 88.02356
846.5541, 87.03650
847.0363, 64.66223
847.5184, 45.58862
848.0005, 49.81702
848.4826, 68.42615
848.9647, 79.48584
849.4468, 75.90271
849.9290, 71.48755
850.4111, 69.35681
850.8932, 73.51904
851.3753, 95.04675
851.8574, 124.9692
852.3395, 140.8268
852.8217, 136.8840
853.3038, 129.5400
853.7859, 131.7874
854.2680, 143.1154
854.7501, 167.3315
855.2322, 204.4656
855.7144, 234.6797
856.1965, 256.4073
856.6786, 257.7377
857.1607, 221.4113
857.6428, 163.9553
858.1249, 139.5294
858.6071, 168.4080
859.0892, 186.6027
859.5713, 184.6387
860.0534, 183.3441
860.5355, 190.6874
861.0176, 202.3213
861.4998, 215.4492
861.9819, 230.7070
862.4640, 238.8636
862.9461, 228.5109
863.4282, 215.1351
863.9103, 217.8683
864.3925, 223.3112
864.8746, 207.2566
865.3567, 172.0767
865.8388, 141.7642
866.3209, 130.3274
866.8030, 130.5358
867.2852, 130.8259
867.7673, 131.4801
868.2494, 139.0565
868.7315, 155.9521
869.2136, 165.7954
869.6957, 161.6013
870.1779, 147.7045
870.6600, 127.8491
871.1421, 101.3009
871.6242, 89.16895
872.1063, 103.5294
872.5884, 111.0292
873.0705, 97.78979
873.5526, 84.03357
874.0347, 82.20581
874.5168, 89.15210
874.9990, 97.33020
875.4811, 107.5685
875.9632, 112.6290
876.4453, 105.9613
876.9274, 97.06030
877.4095, 95.76697
877.8917, 96.13721
878.3738, 85.37000
878.8559, 62.23108
879.3380, 39.59680
879.8201, 22.46008
880.3022, 15.79980
880.7844, 35.03271
881.2665, 71.37744
881.7486, 91.62573
882.2307, 90.96313
882.7128, 83.16187
883.1949, 76.21289
883.6771, 70.34302
884.1592, 66.75732
884.6413, 66.27588
885.1234, 60.10925
885.6055, 41.34302
886.0876, 34.91956
886.5698, 59.02930
887.0519, 89.29395
887.5340, 96.49280
888.0161, 82.30847
888.4982, 74.10022
888.9803, 79.07959
889.4625, 83.31030
889.9446, 87.64014
890.4267, 86.22339
890.9088, 70.02600
891.3909, 46.53381
891.8730, 29.58691
892.3552, 22.81128
892.8373, 23.68872
893.3194, 38.87927
893.8015, 53.90857
894.2836, 49.22961
894.7657, 33.78015
895.2479, 28.04980
895.7300, 34.88403
896.2121, 39.45129
896.6942, 30.18335
897.1763, 15.16919
897.6584, 8.658691
898.1406, 10.57788
898.6227, 23.36841
899.1048, 48.72046
899.5869, 67.24707
900.0690, 69.67236
900.5511, 60.74194
901.0333, 45.54504
901.5154, 23.34656
901.9975, 11.56226
902.4796, 12.25549
902.9617, 19.46594
903.4438, 30.58667
903.9260, 49.65271
904.4081, 96.05408
904.8902, 150.6074
905.3723, 158.2760
905.8544, 90.70483
906.3365, 40.92468
906.8187, 45.22058
907.3008, 59.16541
907.7829, 59.78027
908.2650, 51.82825
908.7471, 44.10510
909.2292, 37.89771
909.7114, 28.32849
910.1935, 7.958252
910.6756, 10.00488
911.1577, 7.548584
911.6398, 5.539307
912.1219, 11.55078
912.6041, 9.541992
913.0862, 5.898682
913.5683, 3.636963
914.0504, 3.450806
914.5325, 6.537354
915.0146, 12.68909
915.4968, 21.09375
915.9789, 32.08728
916.4610, 43.95007
916.9431, 58.20129
917.4252, 64.08081
917.9073, 51.17444
918.3895, 24.23523
918.8716, 0.8697510
919.3537, 31.40735
919.8358, 42.33972
920.3179, 35.69873
920.8000, 6.248779
921.2822, 89.21643
921.7643, 181.9318
922.2464, 182.9191
922.7285, 95.60828
923.2106, 28.56836
923.6927, 4.147339
924.1749, 8.398193
924.6570, 20.33105
925.1391, 20.94897
925.6212, 14.09814
926.1033, 63.04480
926.5854, 77.31531
927.0676, 41.82861
927.5497, 4.902466
928.0318, 0.6323240
928.5139, 6.902954
928.9960, 6.621704
929.4781, 6.219971
929.9603, 30.45361
930.4424, 75.77185
930.9245, 100.8198
931.4066, 76.83032
931.8887, 33.72314
932.3708, 17.58264
932.8530, 23.10974
933.3351, 29.10950
933.8172, 34.32739
934.2993, 44.49377
934.7814, 62.88647
935.2635, 72.18457
935.7457, 48.79797
936.2278, 2.607910
936.7099, 3.748047
937.1920, 41.89014
937.6741, 73.68457
938.1563, 79.90527
938.6384, 81.93652
939.1205, 93.21497
939.6026, 105.0284
940.0847, 100.6772
940.5668, 76.25415
941.0490, 58.88098
941.5311, 49.79602
942.0132, 45.67114
942.4953, 51.71936
942.9774, 57.27661
943.4595, 52.07581
943.9417, 40.44666
944.4238, 36.09741
944.9059, 46.19727
945.3880, 46.08606
945.8701, 11.22473
946.3522, 19.95447
946.8344, 21.42163
947.3165, 3.647705
947.7986, 25.09119
948.2807, 57.97693
948.7628, 78.56860
949.2449, 76.46912
949.7271, 63.19055
950.2092, 39.86255
950.6913, 18.14355
951.1734, 22.36157
951.6555, 45.01965
952.1376, 57.98120
952.6198, 51.80164
953.1019, 36.68579
953.5840, 19.55273
954.0661, 3.949585
954.5482, 1.181274
955.0303, 3.320190
955.5124, 9.984863
955.9945, 17.88660
956.4766, 42.98962
956.9587, 97.77319
957.4409, 153.1782
957.9230, 160.1051
958.4051, 119.4921
958.8872, 78.78162
959.3693, 31.23071
959.8514, 15.96570
960.3336, 55.39917
960.8157, 96.37988
961.2978, 96.00818
961.7799, 69.58691
962.2620, 61.09644
962.7441, 80.32556
963.2263, 87.11853
963.7084, 69.58484
964.1905, 55.65283
964.6726, 58.65833
965.1547, 63.38538
965.6368, 54.97119
966.1190, 36.30664
966.6011, 21.65173
967.0832, 11.18652
967.5653, 8.684082
968.0474, 17.58020
968.5295, 30.11743
969.0117, 47.42847
969.4938, 63.92896
969.9759, 73.37927
970.4580, 74.41187
970.9401, 64.86401
971.4222, 34.15857
971.9044, 8.296753
972.3865, 4.322998
972.8686, 12.93982
973.3507, 32.26428
973.8328, 53.94836
974.3149, 60.56592
974.7971, 48.15906
975.2792, 33.64673
975.7613, 28.65991
976.2434, 30.82568
976.7255, 42.50586
977.2076, 55.14502
977.6898, 52.20801
978.1719, 36.09277
978.6540, 25.75549
979.1361, 28.14661
979.6182, 34.80359
980.1003, 34.81848
980.5825, 31.49280
981.0646, 39.51270
981.5467, 56.37341
982.0288, 58.60071
982.5109, 41.66345
982.9930, 24.84338
983.4752, 21.38354
983.9573, 27.37317
984.4394, 41.36377
984.9215, 63.49463
985.4036, 70.21948
985.8857, 58.97729
986.3679, 44.29675
986.8500, 25.88562
987.3321, 17.52515
987.8142, 35.50720
988.2963, 67.46240
988.7784, 72.91211
989.2606, 40.77551
989.7427, 18.36377
990.2248, 6.101074
990.7069, 3.013428
991.1890, 10.04443
991.6711, 24.75964
992.1533, 44.51794
992.6354, 69.81067
993.1175, 104.8676
993.5996, 183.4526
994.0817, 210.7393
994.5638, 145.8279
995.0460, 77.39038
995.5281, 27.47705
996.0102, 1.970215
996.4923, 0.6986080
996.9744, 25.83606
997.4565, 39.58093
997.9387, 18.39832
998.4208, 9.017090
998.9029, 37.40210
999.3850, 66.17065
999.8671, 70.90125
1000.349, 61.53345
1000.831, 50.22961
1001.313, 41.64417
1001.796, 42.12109
1002.278, 52.53955
1002.760, 71.55530
1003.242, 114.1163
1003.724, 152.1635
1004.206, 157.5491
1004.688, 137.8916
1005.170, 104.3158
1005.653, 61.93567
1006.135, 29.65076
1006.617, 21.65466
1007.099, 26.17639
1007.581, 38.63538
1008.063, 52.60498
1008.545, 46.36597
1009.027, 34.23645
1009.509, 73.03955
1009.992, 176.2272
1010.474, 257.2454
1010.956, 224.4281
1011.438, 142.2915
1011.920, 102.3417
1012.402, 90.87439
1012.884, 77.72534
1013.366, 59.30933
1013.849, 39.00415
1014.331, 18.21948
1014.813, 5.820923
1015.295, 14.94360
1015.777, 36.33606
1016.259, 47.93811
1016.741, 50.85254
1017.223, 47.94580
1017.705, 40.50061
1018.188, 38.32227
1018.670, 44.26636
1019.152, 49.57874
1019.634, 37.70581
1020.116, 14.43958
1020.598, 9.816040
1021.080, 23.14001
1021.562, 36.61047
1022.044, 47.43115
1022.527, 53.49634
1023.009, 53.82532
1023.491, 47.22375
1023.973, 28.08301
1024.455, 1.686646
1024.937, 6.097900
1025.419, 18.33899
1025.901, 39.21753
1026.384, 50.22351
1026.866, 58.11633
1027.348, 67.41101
1027.830, 75.58154
1028.312, 78.04089
1028.794, 74.74414
1029.276, 66.26709
1029.758, 50.02673
1030.240, 36.29272
1030.723, 25.65796
1031.205, 22.45654
1031.687, 31.69116
1032.169, 48.14380
1032.651, 62.41345
1033.133, 75.44995
1033.615, 77.51648
1034.097, 62.69800
1034.579, 48.83032
1035.062, 31.32397
1035.544, 28.57446
1036.026, 66.83276
1036.508, 119.6477
1036.990, 127.5547
1037.472, 79.18896
1037.954, 49.86548
1038.436, 53.18799
1038.919, 53.89075
1039.401, 37.90100
1039.883, 26.48450
1040.365, 39.64966
1040.847, 65.04260
1041.329, 68.92468
1041.811, 37.60620
1042.293, 57.43652
1042.776, 222.2654
1043.258, 308.8239
1043.740, 214.1277
1044.222, 90.94397
1044.704, 29.43848
1045.186, 12.03760
1045.668, 1.654907
1046.150, 4.708008
1046.632, 1.173218
1047.115, 35.39648
1047.597, 61.08215
1048.079, 68.12537
1048.561, 64.10474
1049.043, 45.98999
1049.525, 25.00391
1050.007, 23.67615
1050.489, 46.65356
1050.971, 62.89832
1051.454, 68.63342
1051.936, 63.85376
1052.418, 35.74072
1052.900, 9.389771
1053.382, 5.145508
1053.864, 14.54846
1054.346, 21.30859
1054.828, 23.08618
1055.311, 28.69531
1055.793, 45.72791
1056.275, 59.90186
1056.757, 73.13232
1057.239, 75.20801
1057.721, 47.74622
1058.203, 8.277100
1058.685, 18.96631
1059.167, 29.38574
1059.650, 10.00110
1060.132, 94.34607
1060.614, 160.5526
1061.096, 107.5715
1061.578, 32.69519
1062.060, 2.914429
1062.542, 6.636719
1063.024, 21.05347
1063.506, 40.52966
1063.989, 52.76025
1064.471, 43.72961
1064.953, 42.03833
1065.435, 75.55347
1065.917, 103.5380
1066.399, 83.18298
1066.881, 40.87732
1067.363, 21.52905
1067.846, 29.43127
1068.328, 33.23486
1068.810, 17.61011
1069.292, 2.321777
1069.774, 4.895264
1070.256, 7.333130
1070.738, 9.515869
1071.220, 7.416870
1071.703, 10.90771
1072.185, 41.86865
1072.667, 57.97375
1073.149, 42.06470
1073.631, 26.49500
1074.113, 32.09009
1074.595, 37.38159
1075.077, 11.23962
1075.559, 15.02295
1076.042, 17.02307
1076.524, 94.38660
1077.006, 129.3639
1077.488, 76.84277
1077.970, 29.01416
1078.452, 36.60986
1078.934, 54.65771
1079.416, 57.92090
1079.898, 50.52991
1080.380, 31.16919
1080.863, 7.986206
1081.345, 6.021729
1081.827, 38.17822
1082.309, 65.07007
1082.791, 66.55811
1083.273, 61.39685
1083.755, 56.22009
1084.237, 52.46814
1084.720, 50.68286
1085.202, 51.24805
1085.684, 55.04297
1086.166, 62.45837
1086.648, 71.39465
1087.130, 82.94934
1087.612, 93.31555
1088.094, 101.5739
1088.577, 106.9381
1089.059, 107.4652
1089.541, 104.9628
1090.023, 105.4091
1090.505, 110.0680
1090.987, 103.7345
1091.469, 66.69580
1091.951, 36.17358
1092.433, 28.15027
1092.916, 32.74670
1093.398, 53.38135
1093.880, 75.69470
1094.362, 73.63513
1094.844, 45.92468
1095.326, 27.75403
1095.808, 39.71826
1096.290, 48.74609
1096.772, 37.87842
1097.255, 27.34119
1097.737, 32.61133
1098.219, 44.43811
1098.701, 48.95239
1099.183, 46.23291
1099.665, 46.76892
1100.147, 51.08936
1100.629, 62.76123
1101.112, 96.34143
1101.594, 121.2224
1102.076, 116.7367
1102.558, 100.3073
1103.040, 92.46729
1103.522, 89.77112
1104.004, 71.92712
1104.486, 27.11963
1104.969, 2.162598
1105.451, 6.861206
1105.933, 3.246582
1106.415, 42.41968
1106.897, 78.89148
1107.379, 86.01160
1107.861, 71.00024
1108.343, 51.13733
1108.825, 25.09692
1109.307, 9.404053
1109.790, 7.806641
1110.272, 13.20422
1110.754, 27.37793
1111.236, 45.00037
1111.718, 67.61523
1112.200, 89.56177
1112.682, 102.0269
1113.164, 104.7722
1113.647, 100.3989
1114.129, 82.96326
1114.611, 68.25671
1115.093, 55.77393
1115.575, 48.64905
1116.057, 54.17615
1116.539, 58.60864
1117.021, 44.78870
1117.504, 18.31165
1117.986, 6.136597
1118.468, 10.25391
1118.950, 22.67200
1119.432, 51.13745
1119.914, 72.87781
1120.396, 85.06934
1120.878, 79.66675
1121.360, 38.49731
1121.843, 17.47742
1122.325, 21.70862
1122.807, 39.32446
1123.289, 68.03088
1123.771, 54.82104
1124.253, 41.07812
1124.735, 33.01343
1125.217, 35.19531
1125.699, 54.62756
1126.182, 76.96045
1126.664, 75.57983
1127.146, 52.20215
1127.628, 39.54553
1128.110, 39.10034
1128.592, 37.78723
1129.074, 33.49573
1129.556, 35.18542
1130.039, 47.09766
1130.521, 60.89502
1131.003, 67.49927
1131.485, 67.78784
1131.967, 62.35132
1132.449, 51.95618
1132.931, 52.33923
1133.413, 63.02173
1133.896, 72.12244
1134.378, 74.41382
1134.860, 69.19556
1135.342, 54.91370
1135.824, 36.05566
1136.306, 19.08545
1136.788, 6.655762
1137.270, 9.256226
1137.752, 22.73694
1138.234, 23.84814
1138.717, 10.85889
1139.199, 6.665894
1139.681, 23.08655
1140.163, 41.24280
1140.645, 35.82068
1141.127, 22.18494
1141.609, 31.79053
1142.091, 53.86340
1142.574, 67.47949
1143.056, 70.20325
1143.538, 61.38892
1144.020, 42.55115
1144.502, 25.63257
1144.984, 18.71924
1145.466, 17.91528
1145.948, 21.30652
1146.431, 26.65210
1146.913, 32.42383
1147.395, 37.37390
1147.877, 39.95813
1148.359, 39.81763
1148.841, 36.81152
1149.323, 30.63232
1149.805, 23.15332
1150.287, 3.210571
1150.770, 1.006836
1151.252, 51.79846
1151.734, 110.4750
1152.216, 111.6475
1152.698, 75.29529
1153.180, 58.73267
1153.662, 74.73535
1154.144, 91.55591
1154.626, 102.2375
1155.109, 106.8561
1155.591, 103.2555
1156.073, 96.03406
1156.555, 82.58325
1157.037, 70.71753
1157.519, 71.92786
1158.001, 84.80481
1158.483, 95.97681
1158.966, 110.4089
1159.448, 110.1683
1159.930, 82.55286
1160.412, 55.29175
1160.894, 29.86938
1161.376, 13.91931
1161.858, 15.01404
1162.340, 28.65051
1162.822, 46.70532
1163.305, 70.49768
1163.787, 83.43738
1164.269, 80.62134
1164.751, 81.38342
1165.233, 94.10950
1165.715, 90.89954
1166.197, 51.67847
1166.679, 8.696289
1167.161, 0.9346920
1167.644, 20.29626
1168.126, 34.58386
1168.608, 43.70312
1169.090, 50.04297
1169.572, 53.67725
1170.054, 54.19348
1170.536, 51.40930
1171.018, 49.04565
1171.500, 50.19861
1171.983, 49.14343
1172.465, 31.76294
1172.947, 6.511963
1173.429, 4.513062
1173.911, 19.77966
1174.393, 25.62793
1174.875, 23.39111
1175.357, 43.94165
1175.840, 96.38220
1176.322, 140.6953
1176.804, 143.5441
1177.286, 123.2104
1177.768, 88.86255
1178.250, 56.00830
1178.732, 52.21423
1179.214, 64.99414
1179.697, 63.66357
1180.179, 49.51794
1180.661, 51.31079
1181.143, 80.92957
1181.625, 109.6727
1182.107, 128.9896
1182.589, 130.8073
1183.071, 94.02234
1183.553, 51.21899
1184.036, 34.01038
1184.518, 34.15222
1185.000, 32.01111
1185.482, 24.87305
1185.964, 20.24902
1186.446, 20.75354
1186.928, 22.37622
1187.410, 20.00232
1187.892, 24.25525
1188.375, 52.36768
1188.857, 77.51147
1189.339, 70.02222
1189.821, 41.61694
1190.303, 26.79846
1190.785, 29.09937
1191.267, 23.70410
1191.749, 6.334717
1192.232, 7.854126
1192.714, 20.09680
1193.196, 15.83606
1193.678, 17.78162
1194.160, 54.51465
1194.642, 60.76978
1195.124, 45.10144
1195.606, 38.26025
1196.089, 40.35120
1196.571, 62.83545
1197.053, 104.0833
1197.535, 121.8978
1198.017, 106.4133
1198.499, 79.16089
1198.981, 52.58496
1199.463, 33.58215
1199.945, 35.68311
1200.427, 48.50366
1200.910, 50.67126
1201.392, 47.48047
1201.874, 50.71851
1202.356, 59.79895
1202.838, 71.00391
1203.320, 81.87939
1203.802, 84.76941
1204.284, 73.18152
1204.767, 58.57678
1205.249, 46.10559
1205.731, 38.03101
1206.213, 45.83459
1206.695, 52.00208
1207.177, 25.86169
1207.659, 18.02185
1208.141, 34.68848
1208.624, 13.54553
1209.106, 2.148438
1209.588, 7.010986
1210.070, 9.435669
1210.552, 8.110352
1211.034, 26.00659
1211.516, 33.59570
1211.998, 37.54187
1212.480, 43.33032
1212.963, 51.31995
1213.445, 63.93945
1213.927, 84.39624
1214.409, 93.46924
1214.891, 90.97949
1215.373, 75.29785
1215.855, 42.32971
1216.337, 13.58313
1216.819, 0.3472900
1217.302, 0.5482180
1217.784, 19.16772
1218.266, 47.95227
1218.748, 62.45264
1219.230, 65.73254
1219.712, 76.89209
1220.194, 91.93103
1220.676, 83.01770
1221.159, 48.79968
1221.641, 23.43091
1222.123, 25.37292
1222.605, 38.92371
1223.087, 55.88562
1223.569, 68.37366
1224.051, 64.58447
1224.533, 52.84607
1225.016, 39.58337
1225.498, 29.59045
1225.980, 29.12683
1226.462, 38.43591
1226.944, 50.93994
1227.426, 68.30908
1227.908, 77.36267
1228.390, 65.88062
1228.872, 53.98206
1229.354, 51.14185
1229.837, 50.10522
1230.319, 42.03638
1230.801, 32.86731
1231.283, 34.89648
1231.765, 47.63245
1232.247, 52.57361
1232.729, 43.64795
1233.211, 48.36475
1233.694, 76.38647
1234.176, 85.47498
1234.658, 58.87817
1235.140, 25.33838
1235.622, 1.162964
1236.104, 2.083374
1236.586, 74.39734
1237.068, 185.0378
1237.551, 177.0659
1238.033, 80.93933
1238.515, 27.46143
1238.997, 22.82983
1239.479, 42.52148
1239.961, 73.14575
1240.443, 85.84448
1240.925, 59.87622
1241.407, 28.16711
1241.890, 18.74475
1242.372, 22.65857
1242.854, 39.67798
1243.336, 57.93530
1243.818, 63.97388
1244.300, 59.62854
1244.782, 41.28931
1245.264, 12.90051
1245.746, 26.87109
1246.229, 155.4783
1246.711, 212.8582
1247.193, 119.5762
1247.675, 34.64368
1248.157, 21.66626
1248.639, 28.24463
1249.121, 21.69470
1249.603, 8.903931
1250.085, 1.581909
1250.568, 0.2506100
1251.050, 4.499878
1251.532, 17.54089
1252.014, 22.13831
1252.496, 15.97583
1252.978, 27.24438
1253.460, 64.22375
1253.942, 90.83167
1254.425, 80.85449
1254.907, 61.78784
1255.389, 75.36902
1255.871, 103.4340
1256.353, 115.1997
1256.835, 114.0806
1257.317, 102.3572
1257.799, 84.43176
1258.281, 67.59961
1258.764, 53.85303
1259.246, 41.55579
1259.728, 27.95801
1260.210, 23.89832
1260.692, 41.04529
1261.174, 60.07397
1261.656, 74.52942
1262.138, 81.66895
1262.620, 79.01355
1263.103, 68.31177
1263.585, 48.23035
1264.067, 21.63684
1264.549, 12.79895
1265.031, 28.96484
1265.513, 36.88879
1265.995, 34.31152
1266.477, 36.98206
1266.960, 49.86755
1267.442, 54.69861
1267.924, 39.42883
1268.406, 28.21484
1268.888, 54.30554
1269.370, 93.03784
1269.852, 79.01941
1270.334, 36.07288
1270.817, 25.43298
1271.299, 38.91052
1271.781, 45.22278
1272.263, 41.00964
1272.745, 40.58350
1273.227, 49.46118
1273.709, 54.68140
1274.191, 42.63574
1274.673, 33.26367
1275.156, 45.27527
1275.638, 53.30872
1276.120, 30.16602
1276.602, 1.214722
1277.084, 4.630737
1277.566, 8.913452
1278.048, 27.66772
1278.530, 53.97644
1279.012, 61.50745
1279.495, 42.13843
1279.977, 34.15820
1280.459, 43.76660
1280.941, 52.84680
1281.423, 52.09729
1281.905, 47.70886
1282.387, 23.50500
1282.869, 0.3145750
1283.352, 24.31738
1283.834, 69.56592
1284.316, 53.51294
1284.798, 0.0000000E+00
##END=



