##NAMES=Agardite-(Y)
##RRUFFID=R070649
##IDEAL CHEMISTRY=Cu^2+^_6_Y^3+^(As^5+^O_4_)_3_(OH)_6_&#183;3H_2_O
##LOCALITY=Jote West mine, Pampa Larga Mining District, Copiapo, Chile
##OWNER=RRUFF
##SOURCE=Bob Jenkins
##DESCRIPTION=Sprays of bright green acicular crystals. Sample used in Morrison <em>et al.</em> (2013) study.
##STATUS=The identification of this mineral is confirmed by single-crystal X-ray diffraction and chemical analysis.
##URL=rruff.info/R070649
##MEASURED CHEMISTRY=(Cu_5.33_Al_0.12_Ca_0.03_Mn_0.01_)_Σ=5.49_(Y_0.52_Er_0.02_Dy_0.01_Yb_0.01_Ho_0.01_Ca_0.43_)_Σ=1.00_[(AsO_4_)_0.88_(PO_4_)_0.14_)]_3_(OH)_6_·2.99H_2_O
134.6032, 0.0000000E+00
135.0853, 2.708893
135.5674, 2.697144
136.0496, 2.948914
136.5317, 5.281128
137.0138, 3.856842
137.4959, 1.197601
137.9780, 4.8064999E-02
138.4601, 7.5103998E-02
138.9423, 10.72507
139.4244, 31.19086
139.9065, 40.57324
140.3886, 25.42075
140.8707, 4.263031
141.3528, 0.2380370
141.8350, 17.69568
142.3171, 39.84579
142.7992, 47.66418
143.2813, 47.24167
143.7634, 40.79648
144.2455, 35.01614
144.7277, 30.24893
145.2098, 27.90292
145.6919, 30.29520
146.1740, 32.68375
146.6561, 30.26819
147.1382, 23.34506
147.6204, 17.31982
148.1025, 18.40076
148.5846, 27.62808
149.0667, 33.04456
149.5488, 30.68460
150.0309, 26.93332
150.5130, 18.25143
150.9952, 7.066345
151.4773, 2.137421
151.9594, 1.755096
152.4415, 13.92877
152.9236, 27.21136
153.4057, 38.45874
153.8879, 45.76450
154.3700, 45.39948
154.8521, 35.64841
155.3342, 21.32639
155.8163, 17.22165
156.2984, 41.02148
156.7806, 55.26605
157.2627, 48.43808
157.7448, 31.37778
158.2269, 19.47495
158.7090, 22.38071
159.1911, 38.33221
159.6733, 47.58212
160.1554, 48.58426
160.6375, 45.69949
161.1196, 37.11545
161.6017, 25.05801
162.0838, 15.34552
162.5660, 13.11566
163.0481, 18.65961
163.5302, 19.17914
164.0123, 9.351593
164.4944, 0.8844600
164.9765, 4.917084
165.4587, 2.357330
165.9408, 3.014496
166.4229, 7.948730
166.9050, 12.52859
167.3871, 18.59369
167.8692, 29.97824
168.3514, 41.53592
168.8335, 46.40414
169.3156, 42.83838
169.7977, 35.66528
170.2798, 27.29889
170.7619, 18.26028
171.2441, 14.27722
171.7262, 20.65698
172.2083, 33.57724
172.6904, 39.61588
173.1725, 33.49643
173.6546, 25.06693
174.1368, 23.61868
174.6189, 28.92166
175.1010, 34.33786
175.5831, 30.92429
176.0652, 8.470703
176.5473, 22.71945
177.0295, 30.99979
177.5116, 33.70901
177.9937, 14.16119
178.4758, 23.36221
178.9579, 21.03815
179.4400, 18.23981
179.9222, 31.47723
180.4043, 15.16905
180.8864, 28.17055
181.3685, 29.48857
181.8506, 36.15817
182.3327, 31.23822
182.8149, 29.89783
183.2970, 40.14972
183.7791, 43.98206
184.2612, 37.72620
184.7433, 23.66232
185.2254, 17.07584
185.7076, 14.79512
186.1897, 17.91443
186.6718, 24.58051
187.1539, 30.16574
187.6360, 36.08405
188.1181, 38.62978
188.6003, 34.53075
189.0824, 27.99854
189.5645, 24.04761
190.0466, 24.91507
190.5287, 29.74226
191.0108, 33.99725
191.4930, 38.67474
191.9751, 41.67207
192.4572, 42.83510
192.9393, 41.99895
193.4214, 28.03333
193.9035, 41.29514
194.3857, 48.64647
194.8678, 50.41429
195.3499, 29.90286
195.8320, 38.08994
196.3141, 34.75905
196.7962, 31.01237
197.2784, 43.29764
197.7605, 26.03154
198.2426, 38.05737
198.7247, 38.36050
199.2068, 43.93750
199.6889, 38.02679
200.1711, 35.69353
200.6532, 44.94992
201.1353, 47.76894
201.6174, 40.49959
202.0995, 46.49310
202.5816, 28.78857
203.0638, 31.87839
203.5459, 43.93987
204.0280, 37.25087
204.5101, 33.48752
204.9922, 37.58224
205.4743, 33.07527
205.9565, 22.12991
206.4386, 12.43962
206.9207, 3.014481
207.4028, 3.400345
207.8849, 0.9248200
208.3671, 13.17409
208.8492, 26.86250
209.3313, 29.48633
209.8134, 24.45688
210.2955, 17.85495
210.7776, 9.317581
211.2598, 0.5918120
211.7419, 4.190689
212.2240, 3.782104
212.7061, 1.379150
213.1882, 0.5375980
213.6703, 2.172638
214.1525, 5.478592
214.6346, 12.92500
215.1167, 23.22899
215.5988, 31.33960
216.0809, 38.88979
216.5630, 41.08571
217.0452, 31.66356
217.5273, 14.73991
218.0094, 2.125473
218.4915, 5.076233
218.9736, 22.02272
219.4557, 33.08612
219.9379, 35.79245
220.4200, 34.29500
220.9021, 28.36165
221.3842, 19.59779
221.8663, 12.23085
222.3484, 9.679337
222.8306, 11.24622
223.3127, 15.74260
223.7948, 30.55231
224.2769, 42.04047
224.7590, 43.53842
225.2411, 36.41815
225.7233, 26.73048
226.2054, 19.61273
226.6875, 15.04271
227.1696, 13.43188
227.6517, 16.17354
228.1338, 19.57225
228.6160, 23.52563
229.0981, 27.58101
229.5802, 31.09296
230.0623, 33.46390
230.5444, 34.66998
231.0265, 34.56999
231.5087, 32.04599
231.9908, 29.30687
232.4729, 27.35641
232.9550, 26.22217
233.4371, 25.32935
233.9192, 23.88795
234.4014, 21.39734
234.8835, 20.43709
235.3656, 21.69643
235.8477, 23.62944
236.3298, 25.86472
236.8119, 28.12624
237.2941, 29.95224
237.7762, 30.89197
238.2583, 31.15913
238.7404, 29.68082
239.2225, 22.39413
239.7046, 16.52208
240.1868, 18.71965
240.6689, 28.49377
241.1510, 38.87056
241.6331, 41.74301
242.1152, 34.59970
242.5973, 26.66730
243.0795, 14.57564
243.5616, 4.272125
244.0437, 0.4627690
244.5258, 0.8355560
245.0079, 6.179230
245.4900, 13.73476
245.9722, 24.98024
246.4543, 33.42783
246.9364, 38.82820
247.4185, 41.98099
247.9006, 42.60141
248.3827, 41.01288
248.8649, 39.10750
249.3470, 39.39688
249.8291, 43.54813
250.3112, 43.33409
250.7933, 33.22536
251.2754, 22.73863
251.7576, 20.06544
252.2397, 25.86276
252.7218, 33.79388
253.2039, 35.91754
253.6860, 30.17596
254.1681, 27.87117
254.6503, 30.57133
255.1324, 35.56841
255.6145, 42.84390
256.0966, 51.80220
256.5787, 57.55121
257.0608, 53.78554
257.5429, 37.35468
258.0251, 27.64594
258.5072, 31.10680
258.9893, 37.15915
259.4714, 35.90370
259.9535, 26.57458
260.4356, 17.52312
260.9178, 17.94916
261.3999, 29.89633
261.8820, 35.42847
262.3641, 26.37328
262.8462, 16.01418
263.3283, 17.19186
263.8105, 30.64293
264.2926, 44.93417
264.7747, 49.83975
265.2568, 44.15361
265.7389, 37.38704
266.2210, 25.75354
266.7032, 15.50696
267.1853, 13.83585
267.6674, 20.79483
268.1495, 27.74786
268.6316, 27.33551
269.1137, 19.30678
269.5959, 12.06674
270.0780, 2.926254
270.5601, 2.771927
271.0422, 2.442932
271.5243, 18.07283
272.0064, 30.83105
272.4886, 28.83150
272.9707, 13.45328
273.4528, 5.540878
273.9349, 10.12312
274.4170, 18.72188
274.8991, 26.88589
275.3813, 34.13004
275.8634, 38.13673
276.3455, 36.49004
276.8276, 29.81435
277.3097, 24.56157
277.7918, 23.02333
278.2740, 21.04433
278.7561, 13.49171
279.2382, 1.394608
279.7203, 6.412476
280.2024, 2.671509
280.6845, 9.651871
281.1667, 16.59183
281.6488, 15.72739
282.1309, 11.87973
282.6130, 6.650681
283.0951, 0.4200440
283.5772, 5.118515
284.0594, 10.78558
284.5415, 13.85515
285.0236, 7.230682
285.5057, 20.49014
285.9878, 43.28383
286.4699, 41.21277
286.9521, 20.11450
287.4342, 3.850815
287.9163, 4.391068
288.3984, 15.75340
288.8805, 22.25273
289.3626, 22.68327
289.8448, 21.07800
290.3269, 17.07933
290.8090, 12.15799
291.2911, 11.74510
291.7732, 19.58112
292.2553, 30.57364
292.7375, 33.43872
293.2196, 24.96632
293.7017, 18.46291
294.1838, 23.53648
294.6659, 34.47238
295.1480, 36.02289
295.6302, 20.25522
296.1123, 0.4371030
296.5944, 1.251816
297.0765, 22.56650
297.5586, 39.62515
298.0407, 34.49377
298.5229, 17.91228
299.0050, 9.242401
299.4871, 14.60580
299.9692, 25.71448
300.4513, 29.30905
300.9334, 25.19243
301.4156, 22.97987
301.8977, 26.44780
302.3798, 32.54541
302.8619, 37.86874
303.3440, 41.99548
303.8261, 43.05293
304.3083, 36.37410
304.7904, 21.18057
305.2725, 13.21385
305.7546, 21.64349
306.2367, 34.47237
306.7188, 38.97374
307.2010, 33.55052
307.6831, 25.03569
308.1652, 19.38539
308.6473, 16.75769
309.1294, 13.42578
309.6115, 3.972214
310.0937, 2.512085
310.5758, 4.279968
311.0579, 23.52919
311.5400, 42.04582
312.0221, 49.07220
312.5042, 45.25406
312.9864, 47.07271
313.4685, 65.42703
313.9506, 79.49698
314.4327, 73.54446
314.9148, 51.75061
315.3969, 32.92923
315.8791, 29.69435
316.3612, 38.82655
316.8433, 40.76146
317.3254, 27.77452
317.8075, 17.01100
318.2896, 16.77084
318.7718, 23.98010
319.2539, 29.60625
319.7360, 29.24400
320.2181, 25.90323
320.7002, 30.16010
321.1823, 54.25423
321.6645, 68.39612
322.1466, 56.85368
322.6287, 33.80005
323.1108, 20.99069
323.5929, 26.94121
324.0750, 43.65427
324.5572, 55.77286
325.0393, 63.45244
325.5214, 65.80894
326.0035, 57.93661
326.4856, 47.40010
326.9677, 42.31645
327.4499, 44.66176
327.9320, 50.01488
328.4141, 52.45999
328.8962, 51.99263
329.3783, 48.92525
329.8604, 39.93707
330.3426, 30.78552
330.8247, 25.75729
331.3068, 25.17154
331.7889, 26.61102
332.2710, 27.80032
332.7531, 28.94664
333.2353, 28.42218
333.7174, 23.79826
334.1995, 20.01260
334.6816, 19.44365
335.1637, 21.87770
335.6458, 26.16371
336.1280, 31.73132
336.6101, 38.52985
337.0922, 43.05225
337.5743, 47.00247
338.0564, 46.83057
338.5385, 37.31050
339.0207, 23.14766
339.5028, 12.95747
339.9849, 11.89421
340.4670, 17.58482
340.9491, 19.69923
341.4312, 11.11945
341.9134, 7.346649
342.3955, 14.84254
342.8776, 26.71924
343.3597, 35.36879
343.8418, 36.71283
344.3239, 33.04155
344.8061, 28.97331
345.2882, 22.18565
345.7703, 19.82314
346.2524, 28.46935
346.7345, 36.85942
347.2166, 34.75537
347.6988, 21.08179
348.1809, 5.222595
348.6630, 0.1197970
349.1451, 8.287415
349.6272, 14.27011
350.1093, 17.48169
350.5915, 18.17763
351.0736, 14.19107
351.5557, 7.020599
352.0378, 1.745117
352.5199, 4.643829
353.0020, 15.28795
353.4842, 18.33167
353.9663, 4.085770
354.4484, 5.641983
354.9305, 2.549438
355.4126, 19.62407
355.8947, 29.80449
356.3769, 20.34215
356.8590, 0.2664950
357.3411, 6.206055
357.8232, 9.797119
358.3053, 24.10313
358.7874, 24.22691
359.2696, 18.69557
359.7517, 17.68083
360.2338, 25.81657
360.7159, 35.99181
361.1980, 37.95181
361.6801, 30.77429
362.1623, 23.70882
362.6444, 19.22504
363.1265, 16.78484
363.6086, 16.11443
364.0907, 15.23984
364.5728, 16.13670
365.0550, 21.72783
365.5371, 30.78432
366.0192, 36.56677
366.5013, 36.97676
366.9834, 34.52065
367.4655, 30.92445
367.9477, 26.12250
368.4298, 23.05988
368.9119, 25.39980
369.3940, 29.13153
369.8761, 24.35150
370.3582, 7.727554
370.8404, 3.927948
371.3225, 10.82515
371.8046, 45.76640
372.2867, 64.43591
372.7688, 49.15379
373.2509, 25.76465
373.7331, 15.79387
374.2152, 18.35777
374.6973, 20.62013
375.1794, 13.95689
375.6615, 1.485062
376.1436, 3.368149
376.6258, 5.036926
377.1079, 13.58925
377.5900, 17.02489
378.0721, 17.34851
378.5542, 18.63536
379.0363, 22.64983
379.5185, 27.62630
380.0006, 29.97099
380.4827, 30.22888
380.9648, 26.67151
381.4469, 13.49878
381.9290, 0.4305270
382.4112, 5.518661
382.8933, 0.4679720
383.3754, 8.167877
383.8575, 12.92270
384.3396, 13.07248
384.8217, 12.15254
385.3039, 5.117020
385.7860, 1.790527
386.2681, 11.29102
386.7502, 29.20030
387.2323, 43.10625
387.7144, 43.50647
388.1966, 32.24660
388.6787, 23.22923
389.1608, 18.42465
389.6429, 14.30244
390.1250, 8.565231
390.6071, 3.730774
391.0893, 3.046341
391.5714, 7.948792
392.0535, 17.04854
392.5356, 29.44609
393.0177, 50.70982
393.4998, 60.85889
393.9820, 47.99724
394.4641, 30.33060
394.9462, 19.66869
395.4283, 17.83406
395.9104, 19.30086
396.3925, 18.14369
396.8747, 14.32309
397.3568, 14.45311
397.8389, 23.98297
398.3210, 31.39058
398.8031, 29.03181
399.2852, 19.33902
399.7674, 9.417587
400.2495, 1.219986
400.7316, 4.169662
401.2137, 2.893219
401.6958, 7.004990
402.1779, 15.85808
402.6601, 17.27158
403.1422, 14.58984
403.6243, 12.65488
404.1064, 12.68285
404.5885, 12.92616
405.0706, 11.07994
405.5528, 7.793991
406.0349, 7.085373
406.5170, 11.46211
406.9991, 17.65417
407.4812, 19.95261
407.9633, 17.97025
408.4455, 15.23389
408.9276, 11.87759
409.4097, 8.755829
409.8918, 7.849014
410.3739, 9.544189
410.8560, 10.26974
411.3382, 5.022537
411.8203, 7.580719
412.3024, 11.12231
412.7845, 1.757217
413.2666, 17.66936
413.7487, 33.06589
414.2309, 45.75031
414.7130, 50.55617
415.1951, 43.23988
415.6772, 27.61136
416.1593, 17.05496
416.6414, 15.89510
417.1236, 14.72929
417.6057, 10.74132
418.0878, 7.211700
418.5699, 9.929565
419.0520, 19.95605
419.5341, 29.78856
420.0163, 25.55280
420.4984, 3.217392
420.9805, 16.90836
421.4626, 2.663284
421.9447, 14.50092
422.4268, 23.39040
422.9090, 24.16359
423.3911, 22.24721
423.8732, 20.99623
424.3553, 20.54158
424.8374, 22.30704
425.3195, 29.28484
425.8017, 33.19943
426.2838, 28.82146
426.7659, 20.69473
427.2480, 14.65877
427.7301, 13.12654
428.2122, 13.19247
428.6944, 9.579559
429.1765, 2.824173
429.6586, 1.170273
430.1407, 10.23849
430.6228, 22.55850
431.1049, 30.29893
431.5871, 33.42146
432.0692, 33.12462
432.5513, 28.02049
433.0334, 20.36671
433.5155, 13.84718
433.9977, 8.635193
434.4798, 5.450058
434.9619, 4.088257
435.4440, 4.705963
435.9261, 7.212784
436.4082, 15.72209
436.8904, 22.33754
437.3725, 19.55688
437.8546, 10.72835
438.3367, 6.249344
438.8188, 11.77368
439.3009, 23.26486
439.7831, 29.63837
440.2652, 25.33510
440.7473, 23.88144
441.2294, 31.17218
441.7115, 38.01910
442.1936, 32.97784
442.6758, 15.79428
443.1579, 1.008148
443.6400, 1.877701
444.1221, 17.02829
444.6042, 24.65488
445.0863, 5.054199
445.5685, 9.827805
446.0506, 4.818680
446.5327, 11.71481
447.0148, 23.30148
447.4969, 20.44614
447.9790, 8.771393
448.4612, 1.892838
448.9433, 0.7349400
449.4254, 1.962906
449.9075, 6.184860
450.3896, 11.54716
450.8717, 17.46326
451.3539, 23.76025
451.8360, 28.48830
452.3181, 28.46646
452.8002, 25.09145
453.2823, 25.21289
453.7644, 30.66914
454.2466, 37.37456
454.7287, 44.19310
455.2108, 50.02403
455.6929, 50.13437
456.1750, 35.97623
456.6571, 21.35518
457.1393, 22.10452
457.6214, 35.17104
458.1035, 41.65331
458.5856, 29.95422
459.0677, 8.968887
459.5498, 2.477539
460.0319, 17.11462
460.5140, 30.22153
460.9962, 41.05789
461.4783, 46.83748
461.9604, 40.62437
462.4425, 22.84824
462.9246, 6.268906
463.4067, 5.188736
463.8889, 22.19917
464.3710, 32.01517
464.8531, 28.85313
465.3352, 25.07025
465.8173, 23.49272
466.2994, 24.17465
466.7816, 26.96005
467.2637, 31.90480
467.7458, 37.94092
468.2279, 42.98169
468.7100, 47.62076
469.1921, 49.57652
469.6743, 42.42159
470.1564, 36.26299
470.6385, 41.11327
471.1206, 55.61180
471.6027, 67.58694
472.0848, 63.87334
472.5670, 49.84503
473.0491, 46.73138
473.5312, 59.30058
474.0133, 71.15576
474.4954, 68.69766
474.9775, 58.24121
475.4597, 52.90002
475.9418, 57.42194
476.4239, 63.89188
476.9060, 68.78308
477.3881, 71.44025
477.8702, 68.45607
478.3524, 57.25131
478.8345, 43.55107
479.3166, 39.78255
479.7987, 49.18730
480.2808, 55.04022
480.7629, 54.35260
481.2451, 51.56561
481.7272, 50.73486
482.2093, 51.10690
482.6914, 47.74388
483.1735, 36.03412
483.6556, 18.45123
484.1378, 11.69057
484.6199, 28.33365
485.1020, 39.38528
485.5841, 35.79999
486.0662, 28.00102
486.5483, 26.86880
487.0305, 34.84631
487.5126, 44.87991
487.9947, 49.13867
488.4768, 47.42720
488.9589, 44.14070
489.4410, 36.45711
489.9232, 30.10236
490.4053, 28.64424
490.8874, 30.56396
491.3695, 32.19035
491.8516, 31.25729
492.3337, 30.30516
492.8159, 34.05411
493.2980, 41.93427
493.7801, 45.65625
494.2622, 41.22647
494.7443, 32.04320
495.2264, 22.90520
495.7086, 12.52971
496.1907, 6.850739
496.6728, 10.38939
497.1549, 17.64941
497.6370, 22.80176
498.1191, 25.73872
498.6013, 28.68614
499.0834, 33.72525
499.5655, 40.46457
500.0476, 43.80972
500.5297, 43.78690
501.0118, 40.25401
501.4940, 27.80382
501.9761, 14.36311
502.4582, 9.784592
502.9403, 16.95728
503.4224, 27.59662
503.9045, 32.14735
504.3867, 30.09497
504.8688, 25.14082
505.3509, 12.69728
505.8330, 2.895401
506.3151, 1.451859
506.7972, 6.045212
507.2794, 11.36737
507.7615, 15.22276
508.2436, 18.68918
508.7257, 24.61441
509.2078, 32.75587
509.6899, 36.15155
510.1721, 30.87946
510.6542, 21.47928
511.1363, 13.83734
511.6184, 7.371002
512.1005, 5.120911
512.5826, 12.69315
513.0648, 21.74773
513.5469, 22.99652
514.0290, 16.72020
514.5111, 9.974426
514.9932, 7.508713
515.4753, 9.088028
515.9575, 12.53496
516.4396, 21.97429
516.9217, 26.30258
517.4038, 19.63733
517.8859, 10.90601
518.3680, 9.761734
518.8502, 17.36981
519.3323, 25.58484
519.8144, 24.38147
520.2965, 13.43376
520.7786, 6.316666
521.2607, 3.383392
521.7429, 4.114059
522.2250, 10.49464
522.7071, 19.36795
523.1892, 25.64455
523.6713, 27.31720
524.1534, 27.16110
524.6356, 28.22215
525.1177, 29.99419
525.5998, 29.84059
526.0819, 26.77789
526.5640, 21.78661
527.0461, 15.97144
527.5283, 9.158325
528.0104, 5.866150
528.4925, 8.014511
528.9746, 12.45862
529.4567, 18.74330
529.9388, 25.67856
530.4210, 30.52255
530.9031, 31.80193
531.3852, 30.69402
531.8673, 30.09586
532.3494, 30.76883
532.8315, 30.53404
533.3137, 25.79218
533.7958, 23.19215
534.2779, 30.97385
534.7600, 45.67384
535.2421, 54.03339
535.7242, 43.49423
536.2064, 21.44833
536.6885, 12.30113
537.1706, 19.53384
537.6527, 26.33261
538.1348, 26.31343
538.6169, 22.67889
539.0991, 18.89529
539.5812, 15.17586
540.0633, 11.34018
540.5454, 5.150024
541.0275, 0.3773350
541.5096, 1.440231
541.9918, 11.02908
542.4739, 18.94202
542.9560, 17.09554
543.4381, 7.250916
543.9202, 4.645691
544.4023, 19.90013
544.8845, 28.15295
545.3666, 17.12711
545.8487, 0.5543060
546.3308, 5.836838
546.8129, 0.8599240
547.2950, 11.25252
547.7772, 14.61815
548.2593, 10.78035
548.7414, 11.48257
549.2235, 21.42638
549.7056, 29.53915
550.1877, 29.58997
550.6699, 26.31126
551.1520, 27.35199
551.6341, 36.48978
552.1162, 43.72141
552.5983, 37.22607
553.0804, 20.50687
553.5626, 6.559387
554.0447, 3.093552
554.5268, 5.833221
555.0089, 4.394394
555.4910, 27.15121
555.9731, 39.38683
556.4553, 32.70303
556.9374, 23.83984
557.4195, 20.22862
557.9016, 19.85399
558.3837, 19.39146
558.8658, 17.58192
559.3480, 14.02307
559.8301, 7.094864
560.3122, 5.798782
560.7943, 11.64014
561.2764, 4.659531
561.7585, 4.071228
562.2407, 13.38602
562.7228, 21.31807
563.2049, 24.42676
563.6870, 20.22624
564.1691, 13.59128
564.6512, 10.37614
565.1334, 10.51883
565.6155, 13.62152
566.0976, 21.22002
566.5797, 28.94101
567.0618, 30.52214
567.5439, 26.80748
568.0261, 26.81349
568.5082, 36.83461
568.9903, 46.38733
569.4724, 47.91222
569.9545, 43.58350
570.4366, 39.66177
570.9188, 38.80684
571.4009, 37.76270
571.8830, 30.08878
572.3651, 11.38602
572.8472, 2.117477
573.3293, 12.48476
573.8115, 16.00360
574.2936, 6.248871
574.7757, 11.23027
575.2578, 25.42422
575.7399, 30.91263
576.2220, 30.88435
576.7042, 29.92700
577.1863, 28.04509
577.6684, 23.31187
578.1505, 11.77689
578.6326, 2.526520
579.1147, 9.389740
579.5969, 30.06519
580.0790, 42.98550
580.5611, 40.23869
581.0432, 31.98003
581.5253, 22.78972
582.0074, 13.80415
582.4896, 5.660904
582.9717, 1.520660
583.4538, 4.338303
583.9359, 4.642517
584.4180, 33.03311
584.9001, 51.32951
585.3823, 58.42436
585.8644, 57.24907
586.3465, 42.16682
586.8286, 20.59731
587.3107, 6.258041
587.7928, 6.018051
588.2750, 13.65393
588.7571, 23.12794
589.2392, 34.18793
589.7213, 37.76407
590.2034, 18.70396
590.6855, 31.70258
591.1677, 38.81325
591.6498, 40.35277
592.1319, 19.63452
592.6140, 27.65683
593.0961, 24.16074
593.5782, 20.19228
594.0604, 32.25877
594.5425, 14.77643
595.0246, 26.58823
595.5067, 26.70580
595.9888, 32.17520
596.4709, 26.06604
596.9531, 17.58769
597.4352, 16.49510
597.9173, 15.60167
598.3994, 13.42194
598.8815, 10.63271
599.3636, 8.190582
599.8458, 6.296432
600.3279, 5.524292
600.8100, 7.683426
601.2921, 11.84662
601.7742, 12.21150
602.2563, 6.308853
602.7385, 2.889267
603.2206, 12.82751
603.7027, 33.52544
604.1848, 39.85559
604.6669, 18.15027
605.1490, 0.6346590
605.6312, 5.660492
606.1133, 1.628052
606.5954, 7.145477
607.0775, 18.77795
607.5596, 30.66113
608.0417, 41.13637
608.5239, 50.04057
609.0060, 48.02527
609.4881, 24.13454
609.9702, 7.635132
610.4523, 14.74881
610.9344, 29.98555
611.4166, 36.19298
611.8987, 29.65184
612.3808, 22.29721
612.8629, 22.80086
613.3450, 27.82018
613.8271, 32.71945
614.3093, 37.01624
614.7914, 39.78290
615.2735, 40.74080
615.7556, 39.59131
616.2377, 34.82491
616.7198, 18.50124
617.2020, 9.837311
617.6841, 16.66644
618.1662, 25.64023
618.6483, 26.93703
619.1304, 21.64066
619.6125, 14.76393
620.0947, 8.347214
620.5768, 4.177673
621.0589, 9.533020
621.5410, 27.20839
622.0231, 37.24579
622.5052, 28.26059
622.9874, 15.98825
623.4695, 19.48711
623.9516, 38.03566
624.4337, 48.31335
624.9158, 40.04062
625.3979, 26.36963
625.8801, 14.56639
626.3622, 5.797852
626.8443, 2.728851
627.3264, 6.525711
627.8085, 2.241318
628.2906, 15.95190
628.7728, 23.77454
629.2549, 26.04561
629.7370, 6.095718
630.2191, 14.82956
630.7012, 11.85570
631.1833, 7.757507
631.6655, 19.47273
632.1476, 2.250458
632.6297, 14.77356
633.1118, 15.60272
633.5939, 21.78345
634.0760, 16.37494
634.5582, 14.54567
635.0403, 24.30896
635.5224, 27.65303
636.0045, 20.90933
636.4866, 27.42697
636.9688, 10.49333
637.4509, 14.32491
637.9330, 26.95152
638.4151, 20.96898
638.8972, 28.31961
639.3793, 30.75439
639.8615, 10.25934
640.3436, 28.57103
640.8257, 29.93462
641.3078, 13.88779
641.7899, 30.86856
642.2720, 17.53880
642.7542, 15.02768
643.2363, 20.65799
643.7184, 25.21596
644.2005, 32.63977
644.6826, 34.50511
645.1647, 20.36923
645.6469, 6.918274
646.1290, 10.47275
646.6111, 25.40907
647.0932, 36.70482
647.5753, 38.51892
648.0574, 35.58878
648.5396, 35.58688
649.0217, 39.96941
649.5038, 39.73605
649.9859, 30.91481
650.4680, 22.05820
650.9501, 14.77916
651.4323, 9.586426
651.9144, 7.740921
652.3965, 10.06493
652.8786, 12.12401
653.3607, 8.307053
653.8428, 2.494507
654.3250, 3.922241
654.8071, 13.08653
655.2892, 21.46382
655.7713, 23.77725
656.2534, 21.56161
656.7355, 19.77715
657.2177, 17.38266
657.6998, 16.96158
658.1819, 20.11345
658.6640, 23.91309
659.1461, 26.72421
659.6282, 28.40840
660.1104, 29.37926
660.5925, 29.97952
661.0746, 29.78568
661.5567, 27.25027
662.0388, 22.49591
662.5209, 19.63353
663.0031, 19.51935
663.4852, 21.08951
663.9673, 25.66573
664.4494, 32.72054
664.9315, 34.52495
665.4136, 24.55064
665.8958, 16.71114
666.3779, 19.37791
666.8600, 25.44287
667.3421, 24.44923
667.8242, 15.34218
668.3063, 7.124298
668.7885, 9.060577
669.2706, 19.18137
669.7527, 24.89775
670.2348, 24.29594
670.7169, 26.06033
671.1990, 39.07649
671.6812, 50.90590
672.1633, 44.23460
672.6454, 18.13727
673.1275, 0.2548680
673.6096, 5.435913
674.0917, 15.73456
674.5739, 16.99428
675.0560, 11.95264
675.5381, 8.444870
676.0202, 9.530579
676.5023, 13.41597
676.9844, 18.15775
677.4666, 24.28835
677.9487, 26.65326
678.4308, 21.23634
678.9129, 17.90219
679.3950, 25.86888
679.8771, 35.50569
680.3593, 31.29372
680.8414, 7.842194
681.3235, 8.850632
681.8056, 4.802383
682.2877, 28.71803
682.7698, 34.05130
683.2520, 21.71713
683.7341, 10.47433
684.2162, 10.31534
684.6983, 16.56892
685.1804, 18.34898
685.6625, 13.37984
686.1447, 9.301346
686.6268, 3.116959
687.1089, 0.8806920
687.5910, 8.542068
688.0731, 21.27905
688.5552, 30.13313
689.0374, 32.02649
689.5195, 30.73528
690.0016, 27.15883
690.4837, 23.21626
690.9658, 24.04160
691.4479, 30.11891
691.9301, 37.16931
692.4122, 43.25220
692.8943, 46.80885
693.3764, 41.12350
693.8585, 14.57823
694.3406, 2.207367
694.8228, 1.728256
695.3049, 2.047882
695.7870, 1.140762
696.2691, 8.154991
696.7512, 8.064285
697.2333, 7.221481
697.7155, 24.37541
698.1976, 25.58942
698.6797, 15.45728
699.1618, 10.84511
699.6439, 15.11171
700.1260, 22.88628
700.6082, 31.07613
701.0903, 38.92493
701.5724, 40.35669
702.0545, 26.29016
702.5366, 18.87340
703.0187, 26.31544
703.5009, 34.35823
703.9830, 28.73480
704.4651, 12.65744
704.9472, 2.098801
705.4293, 8.512558
705.9114, 21.14180
706.3936, 23.03441
706.8757, 16.51152
707.3578, 17.29294
707.8399, 30.30315
708.3220, 43.23343
708.8041, 44.25221
709.2863, 33.87469
709.7684, 24.12817
710.2505, 14.32845
710.7326, 6.012527
711.2147, 2.052719
711.6968, 7.504753
712.1790, 7.124634
712.6611, 1.740677
713.1432, 4.228546
713.6253, 7.830368
714.1074, 10.35110
714.5895, 14.40672
715.0717, 20.10336
715.5538, 24.92134
716.0359, 28.40097
716.5180, 29.92784
717.0001, 28.50186
717.4822, 24.20709
717.9644, 20.92772
718.4465, 16.87822
718.9286, 15.09339
719.4107, 20.12398
719.8928, 25.77578
720.3749, 25.24460
720.8571, 19.12469
721.3392, 14.48243
721.8213, 17.01012
722.3034, 22.41583
722.7855, 24.35574
723.2676, 12.22398
723.7498, 25.28935
724.2319, 32.46661
724.7140, 34.07193
725.1961, 13.41916
725.6782, 21.50633
726.1603, 18.07474
726.6425, 14.16999
727.1246, 26.30010
727.6067, 8.880753
728.0888, 20.75502
728.5709, 20.93465
729.0530, 26.46561
729.5352, 20.40652
730.0173, 17.92639
730.4994, 27.03821
730.9815, 29.67026
731.4636, 22.27016
731.9457, 28.13686
732.4279, 10.30516
732.9100, 13.26772
733.3921, 25.20164
733.8742, 18.38466
734.3563, 24.45953
734.8384, 25.62357
735.3206, 4.471771
735.8027, 22.12695
736.2848, 22.99826
736.7669, 6.636200
737.2490, 22.95938
737.7311, 4.209427
738.2133, 8.582687
738.6954, 17.04465
739.1775, 22.42691
739.6596, 25.47043
740.1417, 21.66661
740.6238, 10.07915
741.1060, 0.5238490
741.5881, 2.392990
742.0702, 14.29138
742.5523, 24.72260
743.0344, 36.98703
743.5165, 42.13808
743.9987, 32.74258
744.4808, 21.78259
744.9629, 18.02368
745.4450, 20.46748
745.9271, 22.92690
746.4092, 22.85062
746.8914, 22.36716
747.3735, 23.76575
747.8556, 25.85153
748.3377, 26.22000
748.8198, 24.53175
749.3019, 21.81790
749.7841, 18.63403
750.2662, 15.42886
750.7483, 14.20601
751.2304, 15.86037
751.7125, 16.89864
752.1946, 14.87527
752.6768, 14.11128
753.1589, 18.13547
753.6410, 25.10233
754.1231, 30.62329
754.6052, 34.89929
755.0873, 37.62289
755.5695, 36.32729
756.0516, 33.42697
756.5337, 32.43181
757.0158, 33.01414
757.4979, 32.15007
757.9800, 28.03227
758.4622, 21.11908
758.9443, 10.14990
759.4264, 6.211998
759.9085, 11.74906
760.3906, 0.1762390
760.8727, 12.97745
761.3549, 15.70270
761.8370, 11.83928
762.3191, 10.70082
762.8012, 14.38855
763.2833, 16.21815
763.7654, 12.70917
764.2476, 8.354462
764.7297, 6.125244
765.2118, 5.906815
765.6939, 6.059189
766.1760, 5.802353
766.6581, 7.952515
767.1403, 19.56628
767.6224, 37.72899
768.1045, 45.17583
768.5866, 40.11992
769.0687, 30.31316
769.5508, 18.03419
770.0330, 5.690582
770.5151, 2.677368
770.9972, 7.694504
771.4793, 7.041382
771.9614, 6.518295
772.4435, 17.43233
772.9257, 18.21976
773.4078, 13.13919
773.8899, 7.452042
774.3720, 2.524994
774.8541, 1.236237
775.3362, 5.828476
775.8184, 7.860733
776.3005, 2.873306
776.7826, 22.75665
777.2647, 31.02498
777.7468, 19.52608
778.2289, 3.160233
778.7111, 1.264877
779.1932, 14.34619
779.6753, 20.13528
780.1574, 12.03497
780.6395, 7.521759
781.1216, 16.30362
781.6038, 26.06912
782.0859, 25.03123
782.5680, 14.22768
783.0501, 6.683182
783.5322, 9.369888
784.0143, 13.96046
784.4965, 14.10216
784.9786, 13.03764
785.4607, 17.66946
785.9428, 27.90326
786.4249, 35.36276
786.9070, 33.04985
787.3892, 24.06683
787.8713, 16.43602
788.3534, 9.971390
788.8355, 7.222931
789.3176, 10.28011
789.7997, 13.59735
790.2819, 12.64902
790.7640, 8.369171
791.2461, 5.188263
791.7282, 1.877563
792.2103, 1.563828
792.6924, 7.166000
793.1746, 13.72768
793.6567, 19.46457
794.1388, 23.09073
794.6209, 21.84779
795.1030, 13.93768
795.5851, 6.008057
796.0673, 6.893478
796.5494, 12.84274
797.0315, 14.14648
797.5136, 10.28636
797.9957, 5.226059
798.4778, 0.5976410
798.9600, 3.031067
799.4421, 3.923950
799.9242, 1.363815
800.4063, 0.3377840
800.8884, 0.3624730
801.3705, 0.2043760
801.8527, 3.752075
802.3348, 8.722839
802.8169, 14.44656
803.2990, 20.82306
803.7811, 23.64696
804.2632, 17.15102
804.7454, 10.62628
805.2275, 12.57002
805.7096, 18.89200
806.1917, 22.47714
806.6738, 21.63640
807.1559, 18.27930
807.6381, 13.15242
808.1202, 7.766068
808.6023, 8.317337
809.0844, 15.34686
809.5665, 18.33763
810.0486, 13.77808
810.5308, 7.655914
811.0129, 4.199219
811.4950, 3.523712
811.9771, 6.607254
812.4592, 19.45111
812.9413, 27.29686
813.4235, 27.08167
813.9056, 23.27719
814.3877, 14.29672
814.8698, 4.714844
815.3519, 5.621155
815.8340, 23.71172
816.3162, 40.30330
816.7983, 37.54219
817.2804, 24.31131
817.7625, 14.51048
818.2446, 10.39172
818.7267, 10.83429
819.2089, 15.80656
819.6910, 21.02550
820.1731, 18.69583
820.6552, 8.110031
821.1373, 1.893082
821.6194, 0.3548890
822.1016, 2.584717
822.5837, 11.25012
823.0658, 21.09149
823.5479, 25.10704
824.0300, 23.28714
824.5121, 20.77422
824.9943, 14.78458
825.4764, 12.18681
825.9585, 19.23296
826.4406, 28.71463
826.9227, 32.38554
827.4048, 30.12466
827.8870, 27.72310
828.3691, 28.50859
828.8512, 30.63629
829.3333, 33.36037
829.8154, 36.28072
830.2975, 35.24364
830.7796, 29.88254
831.2617, 25.54994
831.7438, 26.04100
832.2260, 29.70494
832.7081, 32.31767
833.1902, 34.32452
833.6723, 32.54805
834.1544, 23.40559
834.6365, 16.49991
835.1187, 21.26158
835.6008, 29.52341
836.0829, 27.44119
836.5650, 11.09125
837.0471, 1.985855
837.5292, 9.514328
838.0114, 21.55101
838.4935, 36.28050
838.9756, 48.30942
839.4577, 47.59157
839.9398, 33.84239
840.4219, 21.47191
840.9041, 23.91284
841.3862, 33.22304
841.8683, 34.13019
842.3504, 28.25790
842.8325, 23.03697
843.3146, 20.11519
843.7968, 21.43213
844.2789, 29.83347
844.7610, 42.72437
845.2431, 47.77380
845.7252, 41.13979
846.2073, 37.06100
846.6895, 38.22157
847.1716, 40.44026
847.6537, 39.93011
848.1358, 39.10507
848.6179, 43.90034
849.1000, 58.58032
849.5822, 66.93607
850.0643, 59.84705
850.5464, 49.71002
851.0285, 42.51730
851.5106, 38.76216
851.9927, 39.43991
852.4749, 44.57317
852.9570, 52.19247
853.4391, 62.68242
853.9212, 73.43745
854.4033, 79.85692
854.8854, 82.22090
855.3676, 82.05836
855.8497, 79.85364
856.3318, 77.03651
856.8139, 74.47951
857.2960, 72.14651
857.7781, 69.15213
858.2603, 63.87798
858.7424, 63.05103
859.2245, 70.48048
859.7066, 78.44987
860.1887, 80.49536
860.6708, 79.39436
861.1530, 83.42441
861.6351, 96.03545
862.1172, 105.8256
862.5993, 108.4274
863.0814, 109.8981
863.5635, 114.4750
864.0457, 120.1443
864.5278, 124.1245
865.0099, 125.5120
865.4920, 122.7321
865.9741, 110.4185
866.4562, 96.15967
866.9384, 90.33223
867.4205, 91.43155
867.9026, 95.68973
868.3847, 101.8340
868.8668, 106.9081
869.3489, 108.0485
869.8311, 106.9608
870.3132, 109.0459
870.7953, 114.9165
871.2774, 116.3380
871.7595, 111.1848
872.2416, 103.8632
872.7238, 96.83499
873.2059, 89.82851
873.6880, 81.91438
874.1701, 70.76848
874.6522, 63.86824
875.1343, 65.08539
875.6165, 66.32062
876.0986, 64.26575
876.5807, 60.14047
877.0628, 55.19066
877.5449, 49.82446
878.0270, 46.14388
878.5092, 45.39532
878.9913, 46.42995
879.4734, 49.08688
879.9555, 52.56030
880.4376, 56.35374
880.9197, 59.86066
881.4019, 61.18619
881.8840, 59.01059
882.3661, 54.04715
882.8482, 45.77031
883.3303, 35.27184
883.8124, 30.25577
884.2946, 31.80331
884.7767, 34.77325
885.2588, 36.84143
885.7409, 37.53723
886.2230, 35.60188
886.7051, 30.24777
887.1873, 26.70773
887.6694, 24.64359
888.1515, 24.95964
888.6336, 29.09460
889.1157, 34.91345
889.5978, 42.43858
890.0800, 51.06094
890.5621, 52.48386
891.0442, 36.52455
891.5263, 25.26492
892.0084, 30.45441
892.4905, 39.25296
892.9727, 40.65367
893.4548, 35.65263
893.9369, 29.85049
894.4190, 25.07631
894.9011, 22.42274
895.3832, 26.64890
895.8654, 31.36188
896.3475, 23.75777
896.8296, 7.273575
897.3117, 4.424240
897.7938, 6.461792
898.2759, 2.302963
898.7581, 5.599304
899.2402, 15.92836
899.7223, 22.82057
900.2044, 26.20367
900.6865, 27.78246
901.1686, 28.09702
901.6508, 25.63708
902.1329, 17.74121
902.6150, 6.828125
903.0971, 3.413635
903.5792, 13.92723
904.0613, 18.88550
904.5435, 12.54561
905.0256, 6.328903
905.5077, 6.854202
905.9898, 10.13992
906.4719, 10.66547
906.9540, 7.302765
907.4362, 3.845337
907.9183, 2.482544
908.4004, 4.532791
908.8825, 6.891449
909.3646, 21.14238
909.8467, 28.28976
910.3289, 27.13037
910.8110, 20.17966
911.2931, 5.804886
911.7752, 7.087708
912.2573, 10.18961
912.7394, 5.488937
913.2216, 8.159210
913.7037, 27.16325
914.1858, 36.47957
914.6679, 29.00523
915.1500, 16.52065
915.6321, 17.37959
916.1143, 28.58580
916.5964, 25.38358
917.0785, 6.954239
917.5606, 3.011688
918.0427, 4.091125
918.5248, 14.28595
919.0070, 13.14650
919.4891, 3.269669
919.9712, 2.661621
920.4533, 16.74870
920.9354, 27.19298
921.4175, 33.49896
921.8997, 34.54124
922.3818, 25.29008
922.8639, 11.86314
923.3460, 4.766159
923.8281, 5.049683
924.3102, 8.424240
924.7924, 20.55769
925.2745, 28.30690
925.7566, 23.03658
926.2387, 12.41650
926.7208, 2.442688
927.2029, 4.741577
927.6851, 4.634079
928.1672, 10.50729
928.6493, 23.98471
929.1314, 20.36726
929.6135, 10.12656
930.0956, 6.719345
930.5778, 9.778976
931.0599, 11.68468
931.5420, 9.739639
932.0241, 6.182739
932.5062, 2.516098
932.9883, 0.5630490
933.4705, 1.452026
933.9526, 8.4624998E-02
934.4347, 4.993286
934.9168, 14.18863
935.3989, 21.55942
935.8810, 21.23265
936.3632, 15.83473
936.8453, 15.26103
937.3274, 20.40552
937.8095, 22.40143
938.2916, 19.14905
938.7737, 16.67142
939.2559, 18.83368
939.7380, 22.97217
940.2201, 24.33087
940.7022, 22.65778
941.1843, 19.44070
941.6664, 12.76082
942.1486, 7.303253
942.6307, 3.163971
943.1128, 1.287186
943.5949, 3.810455
944.0770, 9.527710
944.5591, 13.18327
945.0413, 13.74106
945.5234, 12.64752
946.0055, 8.805237
946.4876, 4.883194
946.9697, 1.214996
947.4518, 0.6750180
947.9340, 1.930573
948.4161, 9.577667
948.8982, 18.51050
949.3803, 31.65044
949.8624, 40.20580
950.3445, 31.63824
950.8267, 15.26443
951.3088, 5.076416
951.7909, 3.145325
952.2730, 6.438614
952.7551, 13.69052
953.2372, 22.47133
953.7194, 32.32936
954.2015, 40.52267
954.6836, 36.47058
955.1657, 21.89862
955.6478, 12.89372
956.1299, 15.71968
956.6121, 23.59312
957.0942, 29.76408
957.5763, 34.17345
958.0584, 36.59512
958.5405, 37.03505
959.0226, 35.34767
959.5048, 31.56239
959.9869, 24.63855
960.4690, 12.12920
960.9511, 1.193665
961.4332, 3.221848
961.9153, 3.988503
962.3975, 9.237045
962.8796, 16.57512
963.3617, 18.34195
963.8438, 2.148941
964.3259, 6.098907
964.8080, 2.828644
965.2902, 0.9142460
965.7723, 11.25803
966.2544, 6.234367
966.7365, 5.799744
967.2186, 6.139755
967.7007, 11.04469
968.1829, 8.392899
968.6650, 2.745834
969.1471, 0.9147340
969.6292, 3.752121
970.1113, 6.850754
970.5934, 9.487198
971.0756, 12.17206
971.5577, 17.08429
972.0398, 20.30019
972.5219, 15.05002
973.0040, 3.755432
973.4861, 3.362389
973.9683, 1.333939
974.4504, 3.215759
974.9325, 5.956314
975.4146, 7.718033
975.8967, 9.407883
976.3788, 11.46103
976.8610, 15.15221
977.3431, 20.73978
977.8252, 27.48859
978.3073, 36.96945
978.7894, 44.22037
979.2715, 36.77184
979.7537, 21.09956
980.2358, 18.65776
980.7179, 29.69609
981.2000, 34.86879
981.6821, 24.01535
982.1642, 8.899139
982.6464, 7.687592
983.1285, 17.65080
983.6106, 23.37706
984.0927, 24.91287
984.5748, 21.79233
985.0569, 12.95078
985.5391, 5.977554
986.0212, 7.861343
986.5033, 14.65251
986.9854, 13.77438
987.4675, 3.798454
987.9496, 4.207001
988.4318, 11.24571
988.9139, 20.81003
989.3960, 24.80311
989.8781, 6.538704
990.3602, 17.01491
990.8423, 15.89445
991.3245, 14.24931
991.8066, 28.71779
992.2887, 13.68977
992.7708, 27.95609
993.2529, 15.13686
993.7350, 14.86175
994.2172, 18.74649
994.6993, 19.17126
995.1814, 15.15031
995.6635, 11.98686
996.1456, 7.112671
996.6277, 6.723618
997.1099, 18.80472
997.5920, 30.78745
998.0741, 29.40681
998.5562, 18.46303
999.0383, 13.78168
999.5204, 21.37658
1000.003, 27.81773
1000.485, 31.67873
1000.967, 30.91295
1001.449, 18.07725
1001.931, 3.355270
1002.413, 2.078644
1002.895, 14.63957
1003.377, 25.88734
1003.859, 30.14996
1004.342, 30.07533
1004.824, 24.98286
1005.306, 17.96498
1005.788, 9.833687
1006.270, 3.214676
1006.752, 5.008133
1007.234, 16.94786
1007.716, 26.90337
1008.199, 23.51748
1008.681, 16.12988
1009.163, 12.09248
1009.645, 11.85490
1010.127, 18.24542
1010.609, 29.38420
1011.091, 37.49017
1011.573, 38.54968
1012.055, 36.57217
1012.538, 35.84283
1013.020, 35.13891
1013.502, 31.47066
1013.984, 25.87316
1014.466, 21.14713
1014.948, 18.24998
1015.430, 19.16127
1015.912, 26.55390
1016.395, 34.01936
1016.877, 30.66055
1017.359, 20.20311
1017.841, 15.10114
1018.323, 15.51716
1018.805, 14.23953
1019.287, 8.672913
1019.769, 3.197372
1020.251, 2.633423
1020.734, 5.701889
1021.216, 9.154488
1021.698, 12.89726
1022.180, 21.00912
1022.662, 34.04665
1023.144, 39.57758
1023.626, 30.82111
1024.108, 17.10815
1024.591, 16.40648
1025.073, 26.76877
1025.555, 27.44090
1026.037, 16.70021
1026.519, 13.52379
1027.001, 23.16724
1027.483, 33.94775
1027.965, 38.62680
1028.448, 37.84921
1028.930, 31.39510
1029.412, 17.25404
1029.894, 16.21716
1030.376, 34.75234
1030.858, 42.71690
1031.340, 26.62964
1031.822, 8.932396
1032.304, 9.778389
1032.786, 23.94257
1033.269, 32.21791
1033.751, 33.83449
1034.233, 31.16366
1034.715, 20.70644
1035.197, 13.08115
1035.679, 12.76956
1036.161, 16.17590
1036.643, 20.37845
1037.126, 25.07491
1037.608, 27.09600
1038.090, 24.69672
1038.572, 22.91647
1039.054, 20.56493
1039.536, 20.85358
1040.018, 27.94416
1040.500, 36.68007
1040.983, 39.82819
1041.465, 37.12768
1041.947, 34.51354
1042.429, 32.83928
1042.911, 30.01193
1043.393, 27.64336
1043.875, 22.15932
1044.357, 4.262085
1044.839, 15.10104
1045.322, 14.18462
1045.804, 11.27478
1046.286, 28.07196
1046.768, 27.81801
1047.250, 25.73727
1047.732, 25.32030
1048.214, 24.15076
1048.696, 18.09830
1049.178, 10.47646
1049.661, 10.11495
1050.143, 20.94238
1050.625, 25.54037
1051.107, 13.95652
1051.589, 4.266914
1052.071, 1.101959
1052.553, 3.900681
1053.035, 17.76766
1053.518, 36.70330
1054.000, 41.94460
1054.482, 24.33453
1054.964, 11.64033
1055.446, 15.39777
1055.928, 19.91357
1056.410, 16.49413
1056.892, 11.05234
1057.375, 10.65862
1057.857, 14.54685
1058.339, 16.50014
1058.821, 12.79193
1059.303, 12.36537
1059.785, 22.49639
1060.267, 31.78825
1060.749, 33.30907
1061.231, 30.28175
1061.714, 25.67017
1062.196, 20.62906
1062.678, 18.16726
1063.160, 20.82996
1063.642, 23.21672
1064.124, 21.92942
1064.606, 21.06530
1065.088, 24.76804
1065.570, 30.01410
1066.053, 33.04157
1066.535, 32.57554
1067.017, 29.25314
1067.499, 19.18250
1067.981, 12.45727
1068.463, 16.69507
1068.945, 22.85432
1069.427, 22.96439
1069.910, 20.49250
1070.392, 23.75493
1070.874, 33.29321
1071.356, 36.86301
1071.838, 25.82813
1072.320, 12.35657
1072.802, 4.231773
1073.284, 14.98240
1073.766, 6.638748
1074.249, 11.18696
1074.731, 19.68758
1075.213, 15.29993
1075.695, 12.53289
1076.177, 23.62188
1076.659, 30.36417
1077.141, 16.40724
1077.623, 0.3649520
1078.105, 0.9613950
1078.588, 12.22387
1079.070, 20.59968
1079.552, 22.92271
1080.034, 20.25030
1080.516, 5.710274
1080.998, 4.676910
1081.480, 2.444206
1081.962, 14.27462
1082.444, 20.37981
1082.927, 20.77092
1083.409, 16.51791
1083.891, 7.607620
1084.373, 3.252914
1084.855, 12.79417
1085.337, 21.38743
1085.819, 16.75434
1086.301, 11.08344
1086.784, 20.66371
1087.266, 37.93634
1087.748, 40.58504
1088.230, 21.74754
1088.712, 10.32388
1089.194, 27.53554
1089.676, 43.45525
1090.158, 39.97314
1090.641, 30.24713
1091.123, 26.19253
1091.605, 26.91135
1092.087, 27.41426
1092.569, 26.55663
1093.051, 25.28574
1093.533, 23.13574
1094.015, 21.65999
1094.497, 22.04852
1094.979, 23.08207
1095.462, 24.23130
1095.944, 24.93379
1096.426, 24.06706
1096.908, 21.27011
1097.390, 17.82762
1097.872, 12.31428
1098.354, 8.583107
1098.836, 9.139694
1099.319, 11.81065
1099.801, 15.43746
1100.283, 18.73412
1100.765, 17.57940
1101.247, 9.885422
1101.729, 5.902458
1102.211, 10.05931
1102.693, 14.91348
1103.176, 22.86865
1103.658, 29.12676
1104.140, 24.27985
1104.622, 14.33382
1105.104, 13.92415
1105.586, 27.89149
1106.068, 37.66481
1106.550, 41.68109
1107.032, 38.39145
1107.515, 16.87373
1107.997, 1.865433
1108.479, 3.927956
1108.961, 23.59149
1109.443, 29.97449
1109.925, 17.32257
1110.407, 10.11914
1110.889, 14.76544
1111.371, 19.16658
1111.854, 18.55312
1112.336, 18.77090
1112.818, 26.13552
1113.300, 36.75836
1113.782, 41.30511
1114.264, 37.97290
1114.746, 36.38800
1115.228, 39.89285
1115.711, 39.90762
1116.193, 30.57491
1116.675, 22.80973
1117.157, 26.61149
1117.639, 34.84897
1118.121, 31.95528
1118.603, 15.16629
1119.085, 7.738342
1119.568, 13.26942
1120.050, 21.06524
1120.532, 32.75256
1121.014, 40.66180
1121.496, 40.02620
1121.978, 32.70709
1122.460, 20.03412
1122.942, 1.219772
1123.424, 3.986938
1123.906, 10.63792
1124.389, 18.31176
1124.871, 11.69619
1125.353, 7.438087
1125.835, 15.97089
1126.317, 29.49638
1126.799, 36.40054
1127.281, 36.86438
1127.763, 33.66443
1128.246, 25.65824
1128.728, 21.98793
1129.210, 24.59892
1129.692, 27.36734
1130.174, 27.42198
1130.656, 25.08755
1131.138, 20.14316
1131.620, 14.74747
1132.103, 15.32895
1132.585, 21.37283
1133.067, 23.80991
1133.549, 21.56115
1134.031, 21.41421
1134.513, 26.55009
1134.995, 30.77498
1135.477, 26.77890
1135.959, 17.40962
1136.442, 9.967155
1136.924, 4.440117
1137.406, 0.4081190
1137.888, 4.007454
1138.370, 0.9631500
1138.852, 16.18867
1139.334, 29.34538
1139.816, 27.80061
1140.298, 18.36204
1140.781, 10.97589
1141.263, 6.205040
1141.745, 7.489922
1142.227, 12.81432
1142.709, 13.34901
1143.191, 7.750618
1143.673, 5.643829
1144.155, 15.07304
1144.638, 26.62426
1145.120, 26.71559
1145.602, 23.40582
1146.084, 32.51198
1146.566, 46.85644
1147.048, 48.72980
1147.530, 37.03574
1148.012, 23.35698
1148.495, 10.35891
1148.977, 5.096169
1149.459, 21.42371
1149.941, 39.57994
1150.423, 41.06426
1150.905, 32.36241
1151.387, 19.29897
1151.869, 6.244247
1152.351, 3.129868
1152.833, 15.11076
1153.316, 26.89812
1153.798, 32.59362
1154.280, 34.38995
1154.762, 33.59129
1155.244, 29.44463
1155.726, 17.00890
1156.208, 1.409889
1156.690, 4.386314
1157.173, 3.061546
1157.655, 11.64776
1158.137, 22.95316
1158.619, 29.36227
1159.101, 25.23788
1159.583, 18.99084
1160.065, 17.07833
1160.547, 16.59972
1161.030, 10.47043
1161.512, 2.469795
1161.994, 8.562210
1162.476, 2.716774
1162.958, 0.6433180
1163.440, 2.004280
1163.922, 3.690041
1164.404, 9.9205002E-02
1164.886, 4.895844
1165.369, 4.188171
1165.851, 1.158615
1166.333, 1.230911
1166.815, 5.627800
1167.297, 12.84564
1167.779, 20.04996
1168.261, 24.41783
1168.743, 24.13158
1169.225, 23.15643
1169.708, 25.78900
1170.190, 29.87267
1170.672, 28.59983
1171.154, 22.30000
1171.636, 14.78639
1172.118, 6.598091
1172.600, 6.392097
1173.082, 16.18011
1173.565, 27.46233
1174.047, 34.62439
1174.529, 37.79124
1175.011, 35.69644
1175.493, 30.37376
1175.975, 25.97913
1176.457, 23.19356
1176.939, 25.69524
1177.422, 32.27257
1177.904, 34.44910
1178.386, 28.14188
1178.868, 20.41824
1179.350, 16.06788
1179.832, 15.52802
1180.314, 22.90723
1180.796, 31.95691
1181.278, 31.80814
1181.760, 26.13979
1182.243, 25.86401
1182.725, 33.48503
1183.207, 37.58174
1183.689, 27.40512
1184.171, 18.59216
1184.653, 22.90517
1185.135, 27.84155
1185.617, 18.87683
1186.100, 6.959099
1186.582, 11.46881
1187.064, 31.93277
1187.546, 46.29555
1188.028, 50.96175
1188.510, 48.68184
1188.992, 30.67484
1189.474, 17.30087
1189.957, 19.21687
1190.439, 26.33257
1190.921, 30.18444
1191.403, 32.31490
1191.885, 38.87431
1192.367, 53.94505
1192.849, 53.34492
1193.331, 28.61794
1193.813, 14.30621
1194.296, 20.18877
1194.778, 30.40988
1195.260, 36.13255
1195.742, 37.15936
1196.224, 32.86166
1196.706, 24.21156
1197.188, 21.70677
1197.670, 24.94160
1198.152, 22.10146
1198.635, 12.32992
1199.117, 9.461464
1199.599, 19.17929
1200.081, 33.34322
1200.563, 45.76750
1201.045, 53.64453
1201.527, 48.75922
1202.009, 36.71527
1202.492, 29.71360
1202.974, 26.80554
1203.456, 23.21036
1203.938, 17.60305
1204.420, 9.415703
1204.902, 3.450195
1205.384, 11.29198
1205.866, 1.246429
1206.349, 11.76850
1206.831, 13.95662
1207.313, 11.58649
1207.795, 13.19643
1208.277, 18.11151
1208.759, 21.09016
1209.241, 20.56612
1209.723, 21.07458
1210.205, 27.02029
1210.688, 29.84767
1211.170, 23.66946
1211.652, 17.01610
1212.134, 15.16854
1212.616, 16.68999
1213.098, 20.03487
1213.580, 25.16994
1214.062, 26.68208
1214.544, 22.69661
1215.027, 22.81136
1215.509, 30.24838
1215.991, 32.99586
1216.473, 24.27974
1216.955, 16.03613
1217.437, 17.62816
1217.919, 24.92722
1218.401, 24.56025
1218.884, 17.39931
1219.366, 16.18822
1219.848, 20.26508
1220.330, 22.42397
1220.812, 21.36467
1221.294, 19.12132
1221.776, 16.73471
1222.258, 15.10136
1222.740, 17.53543
1223.223, 19.03813
1223.705, 6.466362
1224.187, 9.640579
1224.669, 9.576607
1225.151, 2.876785
1225.633, 14.85200
1226.115, 22.64563
1226.597, 27.10922
1227.079, 28.32092
1227.562, 27.00093
1228.044, 19.36317
1228.526, 13.98962
1229.008, 19.72969
1229.490, 28.47184
1229.972, 31.24749
1230.454, 28.48058
1230.936, 23.68508
1231.419, 15.20349
1231.901, 12.15852
1232.383, 19.81122
1232.865, 23.69177
1233.347, 18.33942
1233.829, 14.55240
1234.311, 19.31105
1234.793, 27.22047
1235.276, 30.55814
1235.758, 30.00775
1236.240, 30.90671
1236.722, 33.38933
1237.204, 29.93774
1237.686, 20.14854
1238.168, 10.62709
1238.650, 7.395462
1239.132, 8.594009
1239.615, 14.22038
1240.097, 20.33452
1240.579, 20.46638
1241.061, 17.41039
1241.543, 15.44376
1242.025, 14.78365
1242.507, 17.38808
1242.989, 21.30662
1243.471, 18.83652
1243.954, 7.482986
1244.436, 0.4363100
1244.918, 3.759605
1245.400, 11.08854
1245.882, 20.17278
1246.364, 27.27901
1246.846, 28.43768
1247.328, 26.62486
1247.811, 22.75945
1248.293, 23.12293
1248.775, 22.84925
1249.257, 22.44273
1249.739, 19.59391
1250.221, 12.15924
1250.703, 6.798973
1251.185, 4.766640
1251.667, 6.610558
1252.150, 14.25652
1252.632, 21.97620
1253.114, 18.37227
1253.596, 6.686630
1254.078, 9.683418
1254.560, 25.34199
1255.042, 34.46819
1255.524, 35.70047
1256.006, 34.76665
1256.489, 33.71213
1256.971, 32.19312
1257.453, 30.12212
1257.935, 26.56205
1258.417, 18.34171
1258.899, 11.10215
1259.381, 16.22926
1259.863, 24.68896
1260.346, 7.888542
1260.828, 21.44542
1261.310, 29.12350
1261.792, 31.24139
1262.274, 11.11600
1262.756, 19.74854
1263.238, 16.87856
1263.720, 13.55438
1264.203, 26.28883
1264.685, 9.529449
1265.167, 22.10858
1265.649, 23.03172
1266.131, 29.34946
1266.613, 24.13023
1267.095, 21.98083
1267.577, 17.00433
1268.059, 4.610619
1268.542, 0.4851610
1269.024, 5.140358
1269.506, 13.33110
1269.988, 8.824654
1270.470, 0.0000000E+00
##END=



