##NAMES=Allanite-(Ce)
##RRUFFID=R080092
##IDEAL CHEMISTRY=CaCeAl_2_Fe^2+^(Si_2_O_7_)(SiO_4_)O(OH)
##LOCALITY=Arendal, Norway
##OWNER=RRUFF
##SOURCE=University of Arizona Mineral Museum
##DESCRIPTION=Dark brown fragment from metamict sample R050043, after heating at T = 1000 C for 18 hours
##STATUS=The identification of this mineral is not yet confirmed.
##URL=rruff.info/R080092
150.3774, 0.0000000E+00
150.8595, 0.4418950
151.3417, 1.3428000E-02
151.8238, 0.3464360
152.3059, 0.3344730
152.7880, 2.235596
153.2701, 4.299805
153.7522, 4.999756
154.2344, 0.9809570
154.7165, 0.9206540
155.1986, 1.031006
155.6807, 4.776611
156.1628, 7.843262
156.6449, 8.934570
157.1271, 8.425293
157.6092, 7.718506
158.0913, 5.404541
158.5734, 4.569824
159.0555, 6.708984
159.5376, 11.06714
160.0198, 15.86182
160.5019, 20.44629
160.9840, 24.44580
161.4661, 26.75366
161.9482, 25.25952
162.4303, 24.33447
162.9125, 27.65552
163.3946, 35.03979
163.8767, 42.08496
164.3588, 46.72314
164.8409, 48.93066
165.3230, 48.53711
165.8052, 43.16455
166.2873, 37.21680
166.7694, 36.84912
167.2515, 43.52490
167.7336, 50.97510
168.2157, 57.70898
168.6979, 63.06641
169.1800, 65.76025
169.6621, 64.15576
170.1442, 60.32910
170.6263, 60.47070
171.1084, 67.20752
171.5906, 73.94775
172.0727, 78.94824
172.5548, 82.60840
173.0369, 85.45996
173.5190, 87.69385
174.0011, 89.45459
174.4833, 91.74219
174.9654, 95.96338
175.4475, 99.39404
175.9296, 100.3667
176.4117, 100.0894
176.8938, 101.0571
177.3760, 105.2998
177.8581, 112.9370
178.3402, 118.7471
178.8223, 121.4990
179.3044, 123.7910
179.7865, 126.2451
180.2687, 128.9292
180.7508, 131.6284
181.2329, 134.0605
181.7150, 136.2393
182.1971, 138.7383
182.6792, 141.7378
183.1614, 144.8599
183.6435, 147.8462
184.1256, 150.6772
184.6077, 153.6509
185.0898, 157.2163
185.5719, 161.3564
186.0541, 164.4575
186.5362, 165.1636
187.0183, 165.5283
187.5004, 167.7222
187.9825, 172.0908
188.4646, 176.4395
188.9468, 178.5396
189.4289, 178.8325
189.9110, 179.3662
190.3931, 180.9785
190.8752, 182.9668
191.3573, 184.3945
191.8395, 185.1724
192.3216, 185.4722
192.8037, 184.2983
193.2858, 182.6792
193.7679, 183.1885
194.2500, 189.5991
194.7322, 199.4351
195.2143, 203.7017
195.6964, 198.7061
196.1785, 193.9224
196.6606, 194.5864
197.1427, 198.6475
197.6249, 203.7319
198.1070, 210.2617
198.5891, 218.7095
199.0712, 224.0864
199.5533, 222.9424
200.0354, 222.6836
200.5176, 226.6152
200.9997, 233.7725
201.4818, 240.6309
201.9639, 243.4546
202.4460, 242.0122
202.9281, 244.2607
203.4103, 251.4917
203.8924, 258.1050
204.3745, 262.5933
204.8566, 265.3975
205.3387, 268.6206
205.8208, 272.7046
206.3030, 277.1514
206.7851, 281.9355
207.2672, 286.0249
207.7493, 289.3667
208.2314, 291.8179
208.7135, 294.3906
209.1957, 296.0122
209.6778, 295.3687
210.1599, 291.8374
210.6420, 289.9141
211.1241, 290.3730
211.6062, 291.4810
212.0884, 292.6094
212.5705, 293.2402
213.0526, 293.0068
213.5347, 291.8130
214.0168, 289.7441
214.4989, 288.3193
214.9811, 288.3838
215.4632, 288.1489
215.9453, 285.9053
216.4274, 281.7476
216.9095, 277.8813
217.3916, 276.6465
217.8737, 278.1973
218.3559, 277.9927
218.8380, 275.4014
219.3201, 271.5166
219.8022, 266.9214
220.2843, 261.6797
220.7664, 256.7710
221.2486, 253.1514
221.7307, 250.6475
222.2128, 248.0571
222.6949, 246.1450
223.1770, 243.6001
223.6591, 238.1738
224.1413, 229.3516
224.6234, 220.8340
225.1055, 216.4824
225.5876, 214.2041
226.0697, 210.1260
226.5518, 201.6836
227.0340, 191.6235
227.5161, 184.1812
227.9982, 179.9824
228.4803, 176.1709
228.9624, 171.2056
229.4445, 165.5068
229.9267, 159.5869
230.4088, 153.2769
230.8909, 147.0605
231.3730, 141.9468
231.8551, 138.3872
232.3372, 134.8125
232.8194, 130.5576
233.3015, 126.0254
233.7836, 121.8511
234.2657, 118.5420
234.7478, 115.3936
235.2299, 110.6338
235.7121, 103.4863
236.1942, 96.35303
236.6763, 90.03467
237.1584, 84.08398
237.6405, 77.83398
238.1227, 70.88135
238.6048, 64.03564
239.0869, 59.52148
239.5690, 59.10400
240.0511, 58.06592
240.5332, 56.12793
241.0154, 52.97217
241.4975, 47.44385
241.9796, 38.99072
242.4617, 29.52393
242.9438, 23.87744
243.4259, 24.48242
243.9081, 25.48047
244.3902, 27.64795
244.8723, 29.14355
245.3544, 27.66846
245.8365, 22.45410
246.3186, 15.32520
246.8008, 10.61963
247.2829, 10.52393
247.7650, 9.776855
248.2471, 7.417969
248.7292, 4.665039
249.2113, 2.753906
249.6935, 2.067383
250.1756, 1.908691
250.6577, 0.9355470
251.1398, 1.867676
251.6219, 4.217773
252.1040, 6.457031
252.5862, 8.210449
253.0683, 8.397461
253.5504, 6.956543
254.0325, 5.823730
254.5146, 8.421387
254.9967, 18.67480
255.4789, 25.35986
255.9610, 26.08936
256.4431, 24.67529
256.9252, 24.16504
257.4073, 25.27197
257.8894, 27.12549
258.3716, 28.50000
258.8537, 28.91553
259.3358, 30.09521
259.8179, 34.05566
260.3000, 37.50049
260.7821, 36.29785
261.2643, 29.99902
261.7464, 23.69043
262.2285, 23.33105
262.7106, 30.71143
263.1927, 35.45801
263.6748, 36.28857
264.1570, 35.22119
264.6391, 33.50586
265.1212, 31.40918
265.6033, 29.63477
266.0854, 29.23096
266.5675, 30.29932
267.0497, 30.37744
267.5318, 28.63818
268.0139, 26.51465
268.4960, 25.76953
268.9781, 26.36719
269.4602, 25.44092
269.9424, 19.45508
270.4245, 9.684570
270.9066, 4.863770
271.3887, 9.204102
271.8708, 15.41650
272.3529, 18.49316
272.8351, 18.42578
273.3172, 16.57422
273.7993, 12.76855
274.2814, 7.864258
274.7635, 4.593262
275.2456, 4.431152
275.7278, 4.365723
276.2099, 1.803711
276.6920, 2.916992
277.1741, 6.854004
277.6562, 7.987305
278.1383, 7.823730
278.6205, 9.185059
279.1026, 12.35303
279.5847, 16.69385
280.0668, 21.81299
280.5489, 27.79199
281.0310, 34.77393
281.5132, 42.94434
281.9953, 52.06348
282.4774, 62.03809
282.9595, 73.25439
283.4416, 82.97705
283.9237, 88.58496
284.4059, 90.99121
284.8880, 94.38428
285.3701, 100.1973
285.8522, 106.5737
286.3343, 111.5430
286.8164, 115.1724
287.2986, 118.6060
287.7807, 121.4858
288.2628, 124.5659
288.7449, 130.6445
289.2270, 141.7139
289.7091, 153.0293
290.1913, 160.3145
290.6734, 164.5195
291.1555, 169.5435
291.6376, 178.2827
292.1197, 188.8823
292.6018, 196.8647
293.0840, 200.7739
293.5661, 204.7554
294.0482, 211.6250
294.5303, 220.4087
295.0124, 229.8652
295.4945, 239.4580
295.9767, 249.2803
296.4588, 259.8892
296.9409, 271.8472
297.4230, 282.8691
297.9051, 289.0791
298.3872, 294.6299
298.8694, 305.2388
299.3515, 324.1465
299.8336, 345.7305
300.3157, 362.8530
300.7978, 375.2617
301.2799, 386.6074
301.7621, 396.5962
302.2442, 407.0986
302.7263, 419.9834
303.2084, 435.6689
303.6905, 452.6270
304.1726, 469.8213
304.6548, 487.2769
305.1369, 504.8003
305.6190, 521.9224
306.1011, 539.4985
306.5832, 558.5732
307.0653, 579.1792
307.5475, 599.3730
308.0296, 616.1289
308.5117, 629.9307
308.9938, 648.0298
309.4759, 673.7534
309.9580, 701.4292
310.4402, 727.8687
310.9223, 752.9917
311.4044, 776.6313
311.8865, 797.0156
312.3686, 814.9775
312.8507, 835.2568
313.3329, 858.4302
313.8150, 884.0352
314.2971, 913.4204
314.7792, 944.7402
315.2613, 974.8066
315.7434, 1001.779
316.2256, 1027.057
316.7077, 1053.811
317.1898, 1082.866
317.6719, 1111.715
318.1540, 1139.673
318.6361, 1167.121
319.1183, 1194.188
319.6004, 1220.812
320.0825, 1247.342
320.5646, 1274.701
321.0467, 1303.373
321.5288, 1331.082
322.0110, 1356.782
322.4931, 1381.512
322.9752, 1405.423
323.4573, 1428.342
323.9394, 1451.624
324.4215, 1476.470
324.9037, 1502.713
325.3858, 1530.011
325.8679, 1558.802
326.3500, 1588.030
326.8321, 1617.169
327.3142, 1646.267
327.7964, 1675.074
328.2785, 1704.007
328.7606, 1732.380
329.2427, 1757.755
329.7248, 1778.126
330.2069, 1798.596
330.6891, 1823.213
331.1712, 1850.327
331.6533, 1876.418
332.1354, 1899.095
332.6175, 1920.120
333.0996, 1943.574
333.5818, 1970.779
334.0639, 1996.683
334.5460, 2017.005
335.0281, 2035.065
335.5102, 2054.159
335.9923, 2075.062
336.4745, 2097.719
336.9566, 2123.376
337.4387, 2152.154
337.9208, 2179.463
338.4029, 2204.414
338.8850, 2226.516
339.3671, 2244.221
339.8492, 2257.189
340.3314, 2270.305
340.8135, 2289.104
341.2956, 2312.293
341.7777, 2329.666
342.2598, 2336.337
342.7419, 2341.163
343.2241, 2352.796
343.7062, 2369.910
344.1883, 2385.500
344.6704, 2395.483
345.1525, 2401.764
345.6346, 2408.350
346.1168, 2415.527
346.5989, 2422.672
347.0810, 2428.949
347.5631, 2434.850
348.0452, 2441.536
348.5273, 2450.698
349.0095, 2459.535
349.4916, 2465.384
349.9737, 2468.229
350.4558, 2467.463
350.9379, 2459.885
351.4200, 2450.125
351.9022, 2446.115
352.3843, 2450.184
352.8664, 2454.481
353.3485, 2453.498
353.8306, 2448.306
354.3127, 2443.032
354.7949, 2438.558
355.2770, 2434.751
355.7591, 2431.732
356.2412, 2429.521
356.7233, 2426.609
357.2054, 2423.346
357.6876, 2418.750
358.1697, 2410.807
358.6518, 2398.975
359.1339, 2385.774
359.6160, 2373.195
360.0981, 2361.068
360.5803, 2348.603
361.0624, 2335.357
361.5445, 2322.096
362.0266, 2309.888
362.5087, 2298.567
362.9908, 2286.833
363.4730, 2274.346
363.9551, 2260.654
364.4372, 2244.429
364.9193, 2224.441
365.4014, 2204.321
365.8835, 2185.527
366.3657, 2167.699
366.8478, 2150.018
367.3299, 2132.243
367.8120, 2114.536
368.2941, 2096.895
368.7762, 2079.121
369.2584, 2062.302
369.7405, 2047.588
370.2226, 2033.368
370.7047, 2018.784
371.1868, 2003.449
371.6689, 1986.323
372.1511, 1966.687
372.6332, 1944.336
373.1153, 1917.405
373.5974, 1882.284
374.0795, 1846.500
374.5616, 1812.425
375.0438, 1780.528
375.5259, 1750.880
376.0080, 1723.671
376.4901, 1698.890
376.9722, 1676.846
377.4543, 1662.926
377.9365, 1644.742
378.4186, 1618.285
378.9007, 1588.074
379.3828, 1558.226
379.8649, 1530.137
380.3470, 1504.575
380.8292, 1483.165
381.3113, 1468.545
381.7934, 1449.510
382.2755, 1425.234
382.7576, 1397.948
383.2397, 1366.835
383.7219, 1333.558
384.2040, 1302.767
384.6861, 1278.515
385.1682, 1260.295
385.6503, 1240.669
386.1324, 1219.650
386.6146, 1197.334
387.0967, 1172.616
387.5788, 1147.261
388.0609, 1123.160
388.5430, 1101.265
389.0251, 1081.270
389.5073, 1062.670
389.9894, 1046.522
390.4715, 1029.641
390.9536, 1012.735
391.4357, 994.5791
391.9178, 973.3369
392.4000, 949.4277
392.8821, 925.3613
393.3642, 903.3604
393.8463, 883.3506
394.3284, 864.7607
394.8105, 848.8115
395.2927, 832.5576
395.7748, 815.4736
396.2569, 797.5430
396.7390, 778.2627
397.2211, 756.8887
397.7032, 735.1592
398.1854, 717.7920
398.6675, 706.4590
399.1496, 693.9355
399.6317, 678.4590
400.1138, 660.6055
400.5959, 639.3301
401.0781, 614.7520
401.5602, 591.6836
402.0423, 575.8359
402.5244, 566.4463
403.0065, 555.6064
403.4886, 542.9219
403.9708, 527.8203
404.4529, 508.1943
404.9350, 486.0410
405.4171, 466.7393
405.8992, 454.2988
406.3813, 445.2900
406.8635, 433.8047
407.3456, 419.3213
407.8277, 405.8643
408.3098, 397.0195
408.7919, 389.4277
409.2740, 376.8076
409.7562, 356.1396
410.2383, 337.3047
410.7204, 328.6650
411.2025, 326.6455
411.6846, 320.4092
412.1667, 306.6162
412.6489, 289.1436
413.1310, 271.9512
413.6131, 255.0635
414.0952, 240.0664
414.5773, 226.5479
415.0594, 215.2354
415.5416, 208.5537
416.0237, 206.0010
416.5058, 202.5049
416.9879, 194.4912
417.4700, 182.6494
417.9521, 171.4482
418.4343, 159.0088
418.9164, 149.6904
419.3985, 146.2686
419.8806, 145.9551
420.3627, 145.0811
420.8448, 142.4209
421.3270, 138.5498
421.8091, 134.2979
422.2912, 129.8496
422.7733, 124.2979
423.2554, 116.7852
423.7375, 108.9424
424.2197, 101.5957
424.7018, 94.96973
425.1839, 89.18066
425.6660, 84.30566
426.1481, 80.20605
426.6302, 76.01562
427.1124, 72.49023
427.5945, 68.18945
428.0766, 62.36719
428.5587, 56.12695
429.0408, 50.12598
429.5229, 44.74219
430.0051, 40.50488
430.4872, 38.82617
430.9693, 41.07324
431.4514, 39.99512
431.9335, 31.24609
432.4156, 22.82129
432.8978, 17.89941
433.3799, 15.90430
433.8620, 14.76758
434.3441, 13.70703
434.8262, 12.42773
435.3083, 9.754883
435.7905, 5.137695
436.2726, 0.3525390
436.7547, 4.702148
437.2368, 9.247070
437.7189, 12.56934
438.2010, 14.56152
438.6832, 15.36523
439.1653, 14.05664
439.6474, 11.28027
440.1295, 11.00293
440.6116, 15.03564
441.0938, 19.25488
441.5759, 20.22998
442.0580, 18.64404
442.5401, 15.96973
443.0222, 11.14551
443.5043, 6.342773
443.9865, 3.337402
444.4686, 2.132324
444.9507, 3.664063
445.4328, 9.778320
445.9149, 17.64160
446.3970, 20.08154
446.8792, 14.99512
447.3613, 11.36865
447.8434, 12.21582
448.3255, 15.54639
448.8076, 19.57324
449.2897, 23.84521
449.7719, 27.22754
450.2540, 28.59961
450.7361, 27.89697
451.2182, 26.69189
451.7003, 24.72949
452.1824, 22.56348
452.6646, 18.91309
453.1467, 15.52393
453.6288, 15.77588
454.1109, 21.19336
454.5930, 29.04590
455.0751, 34.08398
455.5573, 35.62842
456.0394, 35.49902
456.5215, 33.66553
457.0036, 30.54492
457.4857, 25.26709
457.9678, 18.75977
458.4500, 13.71289
458.9321, 12.58301
459.4142, 14.51367
459.8963, 14.37598
460.3784, 11.01758
460.8605, 7.555176
461.3427, 3.724609
461.8248, 0.8056640
462.3069, 0.3754880
462.7890, 2.809082
463.2711, 6.402832
463.7532, 9.956543
464.2354, 13.41650
464.7175, 14.99023
465.1996, 13.70752
465.6817, 11.65869
466.1638, 10.33350
466.6459, 9.460938
467.1281, 8.383789
467.6102, 6.953125
468.0923, 5.193359
468.5744, 3.401855
469.0565, 1.540527
469.5386, 1.948242
470.0208, 8.650879
470.5029, 15.97412
470.9850, 18.74609
471.4671, 16.10449
471.9492, 14.67773
472.4313, 17.90332
472.9135, 22.08936
473.3956, 22.66992
473.8777, 19.60596
474.3598, 16.79932
474.8419, 17.68506
475.3240, 21.61572
475.8062, 21.98877
476.2883, 15.21045
476.7704, 9.892090
477.2525, 8.355469
477.7346, 9.022461
478.2167, 10.25049
478.6989, 11.47656
479.1810, 12.86768
479.6631, 14.47168
480.1452, 16.25488
480.6273, 18.59961
481.1094, 22.35352
481.5916, 25.75684
482.0737, 27.38184
482.5558, 28.36523
483.0379, 30.88672
483.5200, 36.12256
484.0021, 42.46729
484.4843, 46.99658
484.9664, 49.52734
485.4485, 50.89893
485.9306, 50.85107
486.4127, 49.95557
486.8948, 47.84375
487.3770, 44.92383
487.8591, 43.32861
488.3412, 45.10254
488.8233, 48.81641
489.3054, 51.73779
489.7875, 53.82520
490.2697, 55.91846
490.7518, 58.84521
491.2339, 61.85352
491.7160, 63.08350
492.1981, 61.49805
492.6802, 61.33350
493.1624, 65.88672
493.6445, 72.47754
494.1266, 76.91504
494.6087, 78.47070
495.0908, 79.33691
495.5729, 81.35010
496.0551, 84.53418
496.5372, 87.72754
497.0193, 93.10352
497.5014, 96.13379
497.9835, 92.61768
498.4656, 86.71631
498.9478, 85.01953
499.4299, 89.54053
499.9120, 95.96533
500.3941, 97.98730
500.8762, 94.46387
501.3583, 90.92090
501.8405, 84.93701
502.3226, 81.30762
502.8047, 82.55859
503.2868, 87.20410
503.7689, 93.27686
504.2510, 100.3633
504.7331, 106.9624
505.2152, 109.4800
505.6974, 107.1899
506.1795, 104.2212
506.6616, 99.48291
507.1437, 96.27148
507.6258, 97.33740
508.1079, 102.2515
508.5901, 108.4263
509.0722, 115.9668
509.5543, 123.4092
510.0364, 129.0718
510.5185, 132.9966
511.0006, 133.4365
511.4828, 127.6353
511.9649, 119.1338
512.4470, 116.4565
512.9291, 121.6694
513.4113, 124.9233
513.8934, 121.0488
514.3755, 115.7969
514.8576, 116.0420
515.3397, 121.8262
515.8218, 127.8984
516.3040, 130.2427
516.7861, 129.1167
517.2682, 127.7456
517.7503, 125.4395
518.2324, 124.1299
518.7145, 124.2632
519.1967, 125.2158
519.6788, 126.1743
520.1609, 126.9731
520.6430, 128.2764
521.1251, 131.6304
521.6072, 136.7900
522.0894, 136.8213
522.5715, 127.3350
523.0536, 120.0610
523.5357, 120.7803
524.0178, 124.7388
524.4999, 126.3281
524.9821, 123.9771
525.4642, 120.9507
525.9463, 119.7651
526.4284, 120.3789
526.9105, 122.8472
527.3926, 128.2754
527.8748, 132.9541
528.3569, 133.2690
528.8390, 130.1069
529.3211, 126.7676
529.8032, 121.9780
530.2853, 119.2314
530.7675, 122.5913
531.2496, 128.8730
531.7317, 131.7979
532.2138, 129.5005
532.6959, 124.5688
533.1780, 119.7812
533.6602, 114.5791
534.1423, 111.8574
534.6244, 112.9097
535.1065, 114.5879
535.5886, 116.9893
536.0707, 118.9893
536.5529, 118.6450
537.0350, 115.3174
537.5171, 110.7900
537.9992, 108.2002
538.4813, 108.0566
538.9634, 107.4644
539.4456, 104.4912
539.9277, 103.1606
540.4098, 106.7075
540.8919, 113.1284
541.3740, 118.5620
541.8561, 121.6855
542.3383, 122.7769
542.8204, 121.8467
543.3025, 118.9966
543.7846, 115.0229
544.2667, 109.1548
544.7488, 104.0664
545.2310, 104.1230
545.7131, 108.6006
546.1952, 110.0039
546.6773, 104.5322
547.1594, 98.35205
547.6415, 94.89160
548.1237, 93.83789
548.6058, 94.59473
549.0879, 97.13672
549.5700, 99.65039
550.0521, 98.76758
550.5342, 92.35498
551.0164, 89.51807
551.4985, 92.52783
551.9806, 96.29932
552.4627, 98.98145
552.9448, 100.6372
553.4269, 101.7139
553.9091, 102.4092
554.3912, 102.7344
554.8733, 102.6055
555.3554, 101.8237
555.8375, 101.2397
556.3196, 101.3110
556.8018, 101.1362
557.2839, 100.3579
557.7660, 98.89941
558.2481, 96.58301
558.7302, 92.39697
559.2123, 88.34668
559.6945, 87.06885
560.1766, 88.03662
560.6587, 88.64160
561.1408, 88.01953
561.6229, 87.13574
562.1050, 87.21680
562.5872, 88.56104
563.0693, 88.66602
563.5514, 86.82422
564.0335, 84.55029
564.5156, 81.90283
564.9977, 79.61963
565.4799, 78.91406
565.9620, 80.26367
566.4441, 82.60059
566.9262, 84.23340
567.4083, 84.86572
567.8904, 85.94482
568.3726, 88.89307
568.8547, 90.93408
569.3368, 90.52734
569.8189, 88.57080
570.3010, 86.65869
570.7831, 85.21680
571.2653, 84.14258
571.7474, 83.34375
572.2295, 82.83008
572.7116, 82.00635
573.1937, 80.69629
573.6758, 79.35889
574.1580, 78.53320
574.6401, 78.16455
575.1222, 77.64160
575.6043, 76.17285
576.0864, 75.08447
576.5685, 75.84424
577.0507, 77.36133
577.5328, 78.03760
578.0149, 77.43848
578.4970, 75.30664
578.9791, 70.98438
579.4612, 64.32031
579.9434, 61.16309
580.4255, 65.96191
580.9076, 68.70850
581.3897, 65.47363
581.8718, 60.31250
582.3539, 57.84766
582.8361, 59.00977
583.3182, 61.43750
583.8003, 62.79102
584.2824, 63.19873
584.7645, 63.73438
585.2466, 63.80908
585.7288, 65.50635
586.2108, 72.32861
586.6929, 80.15283
587.1750, 82.70020
587.6572, 78.25049
588.1393, 73.79102
588.6214, 72.33105
589.1035, 72.72266
589.5856, 74.01514
590.0677, 75.89307
590.5499, 77.04053
591.0320, 76.36768
591.5141, 74.45020
591.9962, 73.74219
592.4783, 76.85352
592.9604, 77.31982
593.4426, 73.03516
593.9247, 67.90381
594.4068, 64.15967
594.8889, 62.13135
595.3710, 61.38770
595.8531, 62.07764
596.3353, 63.27148
596.8174, 61.83838
597.2995, 56.94873
597.7816, 54.54395
598.2637, 57.13086
598.7458, 61.51709
599.2280, 65.15137
599.7101, 67.95605
600.1922, 70.01367
600.6743, 71.63623
601.1564, 72.67871
601.6385, 72.60107
602.1207, 71.63379
602.6028, 70.63428
603.0849, 70.05469
603.5670, 68.27100
604.0491, 62.56592
604.5313, 51.54053
605.0134, 45.34131
605.4955, 48.32324
605.9776, 50.37646
606.4597, 47.52148
606.9418, 42.20996
607.4240, 37.61670
607.9061, 34.79443
608.3882, 33.29492
608.8703, 33.17725
609.3524, 34.33301
609.8345, 34.77051
610.3167, 34.47168
610.7988, 33.60352
611.2809, 31.83691
611.7630, 29.75586
612.2451, 28.25391
612.7272, 27.71045
613.2094, 26.66748
613.6915, 24.03076
614.1736, 20.71875
614.6557, 17.47119
615.1378, 14.51221
615.6199, 13.19678
616.1021, 14.65332
616.5842, 17.55469
617.0663, 18.27588
617.5484, 14.72656
618.0305, 12.29395
618.5126, 10.96045
618.9948, 10.57568
619.4769, 11.81445
619.9590, 13.90967
620.4411, 15.40283
620.9232, 15.50488
621.4053, 14.61963
621.8875, 12.93164
622.3696, 10.47900
622.8517, 8.974121
623.3338, 8.823730
623.8159, 9.630859
624.2980, 12.29053
624.7802, 15.82129
625.2623, 16.74316
625.7444, 12.48291
626.2265, 8.450195
626.7086, 7.140137
627.1907, 7.528320
627.6729, 8.544434
628.1550, 9.812012
628.6371, 10.67627
629.1192, 10.46924
629.6013, 9.310059
630.0834, 8.781738
630.5656, 10.11230
631.0477, 9.888184
631.5298, 5.869629
632.0119, 1.734375
632.4940, 0.2670900
632.9761, 1.385742
633.4583, 3.098145
633.9404, 4.627441
634.4225, 5.700439
634.9046, 6.059814
635.3867, 5.662109
635.8688, 3.854248
636.3510, 0.1794430
636.8331, 4.233398
637.3152, 5.540283
637.7973, 3.818604
638.2794, 2.483643
638.7615, 1.464111
639.2437, 0.9543460
639.7258, 1.379883
640.2079, 2.290283
640.6900, 3.130127
641.1721, 3.756836
641.6542, 4.084717
642.1364, 3.977051
642.6185, 3.494629
643.1006, 3.016357
643.5827, 2.329346
644.0648, 2.119873
644.5469, 3.809082
645.0291, 5.340820
645.5112, 4.224854
645.9933, 0.3256840
646.4754, 2.411621
646.9575, 1.655762
647.4396, 0.6584470
647.9218, 3.016357
648.4039, 5.174805
648.8860, 6.597412
649.3681, 7.129150
649.8502, 6.617676
650.3323, 4.584473
650.8145, 0.1708980
651.2966, 1.762695
651.7787, 0.7133790
652.2608, 3.331055
652.7429, 4.736816
653.2250, 5.584473
653.7072, 6.819580
654.1893, 8.692627
654.6714, 10.34741
655.1535, 10.49170
655.6356, 9.789795
656.1177, 11.43237
656.5999, 16.07300
657.0820, 17.60107
657.5641, 11.53174
658.0462, 2.227051
658.5283, 1.658203
659.0104, 0.8308110
659.4926, 2.399170
659.9747, 1.102051
660.4568, 0.5500490
660.9389, 0.9606930
661.4210, 0.4880370
661.9031, 7.2754003E-02
662.3853, 7.5679999E-03
662.8674, 9.6190996E-02
663.3495, 3.3447001E-02
663.8316, 0.4775390
664.3137, 0.2067870
664.7958, 1.115234
665.2780, 2.458984
665.7601, 3.305176
666.2422, 3.946777
666.7243, 4.751221
667.2064, 5.789307
667.6885, 6.875977
668.1707, 7.599121
668.6528, 8.564209
669.1349, 11.62646
669.6170, 15.88184
670.0991, 16.96387
670.5812, 12.66650
671.0634, 6.231689
671.5455, 3.305908
672.0276, 4.983398
672.5097, 6.245361
672.9918, 6.590332
673.4739, 7.129150
673.9561, 8.635498
674.4382, 10.47729
674.9203, 11.53125
675.4024, 11.48267
675.8845, 11.61890
676.3666, 13.59033
676.8488, 16.38525
677.3309, 17.50439
677.8130, 16.88062
678.2951, 16.32446
678.7772, 16.39722
679.2593, 17.42432
679.7415, 20.16040
680.2236, 25.56494
680.7057, 29.56665
681.1878, 31.09863
681.6699, 32.47607
682.1520, 35.16260
682.6342, 38.22632
683.1163, 40.01782
683.5984, 39.98364
684.0805, 39.35083
684.5626, 39.62964
685.0447, 40.59033
685.5269, 40.22705
686.0090, 37.98901
686.4911, 37.40161
686.9732, 40.65649
687.4553, 45.79053
687.9374, 50.09473
688.4196, 53.81665
688.9017, 55.72632
689.3838, 54.16211
689.8659, 52.01953
690.3480, 50.11426
690.8301, 49.41553
691.3123, 51.82007
691.7944, 57.63159
692.2765, 63.75366
692.7586, 66.46265
693.2407, 65.98755
693.7228, 65.87061
694.2050, 65.88428
694.6871, 66.16553
695.1692, 67.44800
695.6513, 68.98682
696.1334, 69.05469
696.6155, 67.65747
697.0977, 68.56543
697.5798, 76.02417
698.0619, 83.07031
698.5440, 83.33057
699.0261, 79.62842
699.5082, 77.80615
699.9904, 79.58594
700.4725, 83.28442
700.9546, 87.52026
701.4367, 92.11279
701.9188, 93.48486
702.4009, 89.17065
702.8831, 86.23877
703.3652, 87.05811
703.8473, 89.91992
704.3294, 94.30762
704.8115, 99.61279
705.2936, 103.2732
705.7758, 102.3118
706.2579, 101.1331
706.7400, 104.4507
707.2221, 110.2104
707.7042, 113.4136
708.1863, 113.0786
708.6685, 112.3818
709.1506, 113.9595
709.6327, 117.4138
710.1148, 120.4512
710.5969, 123.4946
711.0790, 125.4749
711.5612, 125.3779
712.0433, 124.9038
712.5254, 125.1851
713.0075, 126.1665
713.4896, 127.1741
713.9717, 127.5249
714.4539, 127.9612
714.9360, 129.8159
715.4181, 133.0017
715.9002, 136.4529
716.3823, 139.5771
716.8644, 142.1345
717.3466, 143.9299
717.8287, 145.3328
718.3108, 147.3613
718.7929, 150.2820
719.2750, 153.2368
719.7571, 157.3552
720.2393, 160.3442
720.7214, 160.2720
721.2035, 158.4067
721.6856, 157.0728
722.1677, 157.0161
722.6498, 157.8462
723.1320, 159.7979
723.6141, 162.2048
724.0962, 163.6431
724.5783, 164.0376
725.0604, 164.3230
725.5425, 165.0264
726.0247, 165.8032
726.5068, 165.8401
726.9889, 164.6484
727.4710, 164.3193
727.9531, 165.3027
728.4352, 166.5581
728.9174, 168.0984
729.3995, 169.5874
729.8816, 170.1787
730.3637, 169.7678
730.8458, 170.5857
731.3279, 175.7717
731.8101, 182.3687
732.2922, 185.3191
732.7743, 184.9641
733.2564, 184.0898
733.7385, 183.6436
734.2206, 183.5286
734.7028, 183.4893
735.1849, 183.4182
735.6670, 184.8240
736.1491, 190.5188
736.6312, 194.0378
737.1133, 193.0098
737.5955, 190.3914
738.0776, 188.4670
738.5597, 187.4424
739.0418, 186.8369
739.5239, 186.6628
740.0060, 186.4004
740.4882, 184.7744
740.9703, 182.5261
741.4524, 182.4700
741.9345, 185.1768
742.4166, 187.8835
742.8987, 188.3054
743.3809, 186.8208
743.8630, 185.2573
744.3451, 182.5303
744.8272, 181.7661
745.3093, 185.8672
745.7914, 189.1790
746.2736, 187.4097
746.7557, 182.8308
747.2378, 180.1973
747.7199, 181.1387
748.2020, 183.7190
748.6841, 187.8953
749.1663, 192.1160
749.6484, 193.4180
750.1305, 191.8875
750.6126, 189.7263
751.0947, 188.0681
751.5768, 186.4180
752.0590, 183.5803
752.5411, 178.8164
753.0232, 176.4922
753.5053, 178.9575
753.9874, 180.7527
754.4695, 179.7283
754.9517, 177.5510
755.4338, 175.9646
755.9159, 175.1570
756.3980, 174.3354
756.8801, 172.9736
757.3622, 171.4890
757.8444, 170.4973
758.3265, 169.6699
758.8086, 167.9138
759.2907, 165.0889
759.7728, 162.7371
760.2549, 162.5889
760.7371, 164.1765
761.2192, 164.6758
761.7013, 163.6992
762.1834, 162.6924
762.6655, 162.2847
763.1476, 161.5610
763.6298, 159.5186
764.1119, 156.7246
764.5940, 154.7266
765.0761, 154.3555
765.5582, 153.8357
766.0403, 151.9507
766.5225, 149.7192
767.0046, 148.3220
767.4867, 147.6624
767.9688, 146.9231
768.4509, 145.6558
768.9330, 144.1992
769.4152, 143.1777
769.8973, 142.5601
770.3794, 142.0608
770.8615, 141.8184
771.3436, 141.2622
771.8257, 140.0669
772.3079, 138.5400
772.7900, 137.0198
773.2721, 135.4822
773.7542, 134.3132
774.2363, 134.3032
774.7184, 133.8596
775.2006, 131.9197
775.6827, 129.2297
776.1648, 126.6826
776.6469, 124.5276
777.1290, 122.5322
777.6111, 120.2305
778.0933, 118.4495
778.5754, 120.1799
779.0575, 125.1963
779.5396, 126.9045
780.0217, 123.3291
780.5038, 118.8083
780.9860, 116.6743
781.4681, 116.2554
781.9502, 114.3975
782.4323, 109.2893
782.9144, 105.7759
783.3965, 105.5945
783.8787, 105.5569
784.3608, 103.4453
784.8429, 100.2854
785.3250, 98.33911
785.8071, 98.32886
786.2892, 98.17114
786.7714, 95.41162
787.2535, 91.65430
787.7356, 90.05371
788.2177, 90.36157
788.6998, 90.49048
789.1819, 89.76660
789.6641, 88.32422
790.1462, 86.14990
790.6283, 83.22681
791.1104, 81.24341
791.5925, 80.30200
792.0746, 80.38330
792.5568, 82.89404
793.0389, 85.22900
793.5210, 85.15405
794.0031, 83.21167
794.4852, 81.61060
794.9673, 81.22559
795.4495, 81.01782
795.9316, 80.59473
796.4137, 79.84448
796.8958, 78.35791
797.3779, 76.24756
797.8600, 74.03076
798.3422, 71.99561
798.8243, 70.23926
799.3064, 68.84229
799.7885, 67.69727
800.2706, 66.39404
800.7527, 64.77319
801.2349, 63.48315
801.7170, 63.10889
802.1991, 62.88843
802.6812, 61.65942
803.1633, 59.47729
803.6454, 57.36060
804.1276, 54.67969
804.6097, 53.08862
805.0918, 53.85938
805.5739, 55.63159
806.0560, 57.54565
806.5381, 59.19873
807.0203, 59.77661
807.5024, 58.60645
807.9845, 56.74854
808.4666, 55.59521
808.9487, 54.97437
809.4308, 54.65039
809.9130, 54.64038
810.3951, 54.46851
810.8772, 53.95630
811.3593, 52.77759
811.8414, 50.03784
812.3235, 44.82275
812.8057, 41.29175
813.2878, 40.79980
813.7699, 40.32446
814.2520, 39.07251
814.7341, 37.34497
815.2162, 35.19165
815.6984, 32.80029
816.1805, 31.17700
816.6626, 31.40625
817.1447, 31.80103
817.6268, 30.86719
818.1089, 29.41138
818.5911, 29.18945
819.0732, 30.04834
819.5553, 29.64038
820.0374, 26.20996
820.5195, 21.56836
821.0016, 19.68311
821.4838, 20.64868
821.9659, 21.04785
822.4480, 20.55957
822.9301, 19.70654
823.4122, 18.49121
823.8943, 17.29419
824.3765, 16.80151
824.8586, 17.14160
825.3407, 17.40381
825.8228, 18.27417
826.3049, 18.22571
826.7870, 15.03760
827.2692, 11.77893
827.7513, 12.86633
828.2334, 17.54688
828.7155, 20.04993
829.1976, 16.30164
829.6797, 10.88354
830.1619, 8.911865
830.6440, 9.253052
831.1261, 9.328125
831.6082, 8.806152
832.0903, 8.513672
832.5724, 8.988159
833.0546, 9.488647
833.5367, 8.365479
834.0188, 5.212036
834.5009, 3.333984
834.9830, 3.200195
835.4651, 3.368408
835.9473, 3.843506
836.4294, 3.994995
836.9115, 2.666748
837.3936, 1.5381000E-02
837.8757, 1.397949
838.3578, 7.1167000E-02
838.8400, 1.267212
839.3221, 0.7047120
839.8042, 0.4770510
840.2863, 1.228027
840.7684, 1.501587
841.2505, 1.691895
841.7327, 2.032104
842.2148, 2.273926
842.6969, 1.649170
843.1790, 0.7327880
843.6611, 1.824097
844.1432, 4.840698
844.6254, 6.554932
845.1075, 5.475098
845.5896, 3.471191
846.0717, 3.078003
846.5538, 4.276001
847.0359, 5.082764
847.5181, 5.524048
848.0002, 5.482300
848.4823, 4.067505
848.9644, 3.006714
849.4465, 4.048462
849.9286, 6.416870
850.4108, 7.745972
850.8929, 7.378418
851.3750, 6.548462
851.8571, 4.906250
852.3392, 3.699341
852.8214, 4.462036
853.3035, 6.328613
853.7856, 7.632202
854.2677, 7.816650
854.7498, 7.123535
855.2319, 4.925537
855.7141, 2.409912
856.1962, 3.008423
856.6783, 6.159546
857.1604, 7.957642
857.6425, 7.361816
858.1246, 6.197266
858.6068, 5.984985
859.0889, 6.338623
859.5710, 5.803955
860.0531, 3.950195
860.5352, 2.376465
861.0173, 1.154053
861.4995, 0.1446530
861.9816, 0.3624270
862.4637, 0.8397220
862.9458, 2.371338
863.4279, 5.194580
863.9100, 6.239502
864.3922, 2.826660
864.8743, 0.4188230
865.3564, 1.243164
865.8385, 0.4135740
866.3206, 1.795410
866.8027, 4.754272
867.2849, 6.747803
867.7670, 6.646484
868.2491, 5.771484
868.7312, 5.760254
869.2133, 6.394897
869.6954, 7.205078
870.1776, 8.094604
870.6597, 8.318604
871.1418, 7.421265
871.6239, 6.759277
872.1060, 8.522461
872.5881, 12.68530
873.0703, 14.44250
873.5524, 12.73853
874.0345, 11.34778
874.5166, 11.01880
874.9987, 11.30017
875.4808, 12.16541
875.9630, 13.34058
876.4451, 13.90906
876.9272, 13.26807
877.4093, 13.19226
877.8914, 14.71436
878.3735, 16.19299
878.8557, 16.32031
879.3378, 15.82764
879.8199, 16.08203
880.3020, 17.27466
880.7841, 18.14478
881.2662, 17.29395
881.7484, 16.15784
882.2305, 16.66028
882.7126, 18.23206
883.1947, 19.63477
883.6768, 20.63721
884.1589, 21.31433
884.6411, 21.67664
885.1232, 21.97742
885.6053, 22.92896
886.0874, 24.57800
886.5695, 25.44788
887.0516, 25.33728
887.5338, 24.97241
888.0159, 24.19629
888.4980, 24.09204
888.9801, 26.30200
889.4622, 30.81714
889.9443, 34.20435
890.4265, 37.06909
890.9086, 37.97278
891.3907, 34.88538
891.8728, 31.61084
892.3549, 30.33142
892.8370, 30.64563
893.3192, 31.75842
893.8013, 33.64758
894.2834, 34.92444
894.7655, 34.43787
895.2476, 33.48340
895.7297, 32.99121
896.2119, 32.91101
896.6940, 33.03589
897.1761, 33.26318
897.6582, 33.36755
898.1403, 33.02991
898.6224, 32.93469
899.1046, 34.95862
899.5867, 38.25317
900.0688, 38.58948
900.5509, 35.68042
901.0330, 33.10840
901.5151, 32.41956
901.9973, 33.02502
902.4794, 34.59265
902.9615, 37.27087
903.4436, 37.98267
903.9257, 35.65527
904.4078, 33.80920
904.8900, 33.40027
905.3721, 33.45276
905.8542, 33.21631
906.3363, 32.95947
906.8184, 33.40198
907.3005, 35.11365
907.7827, 35.76013
908.2648, 34.08936
908.7469, 32.57617
909.2290, 32.75537
909.7111, 33.61707
910.1932, 33.30737
910.6754, 31.83020
911.1575, 31.57556
911.6396, 34.99805
912.1217, 38.30566
912.6038, 38.41577
913.0859, 36.63000
913.5681, 33.94861
914.0502, 30.82166
914.5323, 28.37756
915.0144, 27.24829
915.4965, 26.84180
915.9786, 25.94971
916.4607, 25.11096
916.9428, 27.39807
917.4249, 32.47156
917.9070, 34.49023
918.3892, 31.79199
918.8713, 28.24463
919.3534, 26.91089
919.8355, 27.07239
920.3176, 26.61670
920.7997, 25.29504
921.2819, 24.39819
921.7640, 23.95374
922.2461, 23.66589
922.7282, 23.57568
923.2103, 23.47363
923.6924, 22.77490
924.1746, 21.62891
924.6567, 21.84021
925.1388, 24.61841
925.6209, 26.90540
926.1030, 28.24744
926.5851, 28.82776
927.0673, 28.57153
927.5494, 27.73096
928.0315, 26.37097
928.5136, 24.47156
928.9957, 23.60144
929.4778, 25.75610
929.9600, 28.16626
930.4421, 28.08423
930.9242, 26.92676
931.4063, 27.16882
931.8884, 28.84192
932.3705, 30.18054
932.8527, 30.15674
933.3348, 29.67065
933.8169, 30.04846
934.2990, 30.84973
934.7811, 30.70935
935.2632, 29.74707
935.7454, 29.10632
936.2275, 29.15149
936.7096, 29.57971
937.1917, 30.18030
937.6738, 30.82861
938.1559, 30.84424
938.6381, 30.07251
939.1202, 30.08752
939.6023, 31.23706
940.0844, 32.56885
940.5665, 33.66052
941.0486, 34.58350
941.5308, 35.56226
942.0129, 36.67371
942.4950, 36.82117
942.9771, 34.92163
943.4592, 33.67651
943.9413, 34.00134
944.4235, 34.54468
944.9056, 34.19373
945.3877, 33.49280
945.8698, 33.83838
946.3519, 35.78992
946.8340, 37.10693
947.3162, 37.12573
947.7983, 36.49219
948.2804, 35.25415
948.7625, 33.75085
949.2446, 32.07336
949.7267, 30.43921
950.2089, 29.44629
950.6910, 29.45007
951.1731, 29.88110
951.6552, 30.41113
952.1373, 31.01123
952.6194, 31.91406
953.1016, 32.80725
953.5837, 32.67896
954.0658, 31.42725
954.5479, 30.49170
955.0300, 31.18567
955.5121, 32.59387
955.9943, 33.08362
956.4764, 32.80811
956.9585, 32.26819
957.4406, 31.54944
957.9227, 31.03809
958.4048, 30.89551
958.8870, 30.93921
959.3691, 30.87000
959.8512, 30.77490
960.3333, 31.65430
960.8154, 33.84668
961.2975, 34.41931
961.7797, 32.44849
962.2618, 30.10291
962.7439, 28.65613
963.2260, 27.98389
963.7081, 28.00195
964.1902, 29.13184
964.6724, 28.62085
965.1545, 24.87549
965.6366, 22.20166
966.1187, 22.16248
966.6008, 22.92993
967.0829, 23.13611
967.5651, 23.04602
968.0472, 23.46057
968.5293, 24.57520
969.0114, 25.78979
969.4935, 28.15356
969.9756, 29.31030
970.4578, 27.41052
970.9399, 24.29578
971.4220, 21.49341
971.9041, 19.36206
972.3862, 18.42065
972.8683, 19.42224
973.3505, 20.37720
973.8326, 20.10022
974.3147, 19.46655
974.7968, 19.20105
975.2789, 19.21643
975.7610, 19.40222
976.2432, 19.59790
976.7253, 19.13513
977.2074, 17.11890
977.6895, 15.14404
978.1716, 15.78699
978.6537, 17.24011
979.1359, 15.55994
979.6180, 11.60388
980.1001, 9.907349
980.5822, 12.01733
981.0643, 14.67175
981.5464, 14.37573
982.0286, 12.52380
982.5107, 12.60120
982.9928, 14.14502
983.4749, 14.87183
983.9570, 14.51978
984.4391, 13.80396
984.9213, 13.08728
985.4034, 12.27588
985.8855, 11.08691
986.3676, 9.658081
986.8497, 9.525513
987.3318, 10.84778
987.8140, 11.73572
988.2961, 11.81042
988.7782, 11.37903
989.2603, 10.57031
989.7424, 9.714966
990.2245, 9.629395
990.7067, 10.48474
991.1888, 11.15308
991.6709, 11.89319
992.1530, 11.65234
992.6351, 9.356323
993.1172, 7.240723
993.5994, 7.228882
994.0815, 8.674561
994.5636, 9.619385
995.0457, 10.04211
995.5278, 10.12817
996.0099, 9.525391
996.4921, 8.722534
996.9742, 7.750244
997.4563, 6.920044
997.9384, 6.396484
998.4205, 6.195068
998.9026, 6.407959
999.3848, 7.264526
999.8669, 8.003052
1000.349, 8.607788
1000.831, 8.805908
1001.313, 8.457520
1001.795, 7.809204
1002.277, 7.123535
1002.760, 6.406494
1003.242, 5.458496
1003.724, 3.936523
1004.206, 2.768555
1004.688, 2.699219
1005.170, 3.012573
1005.652, 3.230225
1006.134, 3.307251
1006.617, 3.389282
1007.099, 3.491821
1007.581, 3.333496
1008.063, 2.459473
1008.545, 1.996826
1009.027, 3.307617
1009.509, 5.237061
1009.991, 6.735840
1010.473, 7.604370
1010.956, 7.414307
1011.438, 6.209473
1011.920, 4.991089
1012.402, 4.440308
1012.884, 4.262573
1013.366, 4.316895
1013.848, 4.364746
1014.330, 3.892700
1014.813, 2.985229
1015.295, 1.870972
1015.777, 0.7142330
1016.259, 0.2567140
1016.741, 1.329224
1017.223, 2.997070
1017.705, 3.774292
1018.187, 3.761108
1018.669, 3.033203
1019.152, 1.723999
1019.634, 0.6235350
1020.116, 4.3945000E-02
1020.598, 4.4434000E-02
1021.080, 0.8039550
1021.562, 1.810791
1022.044, 1.604980
1022.526, 0.3815920
1023.008, 0.3604740
1023.491, 0.5551760
1023.973, 6.1767999E-02
1024.455, 1.238403
1024.937, 2.720947
1025.419, 3.711548
1025.901, 4.226440
1026.383, 4.314819
1026.865, 3.950317
1027.348, 3.217163
1027.830, 1.952515
1028.312, 1.417847
1028.794, 2.346802
1029.276, 3.757446
1029.758, 4.483032
1030.240, 4.618164
1030.722, 4.428589
1031.204, 3.702637
1031.687, 2.765503
1032.169, 1.493652
1032.651, 0.7824710
1033.133, 1.209229
1033.615, 2.141113
1034.097, 2.851196
1034.579, 3.321899
1035.061, 3.049194
1035.544, 1.276855
1036.026, 0.8197020
1036.508, 2.810181
1036.990, 4.453857
1037.472, 4.317139
1037.954, 3.269409
1038.436, 2.360229
1038.918, 1.591553
1039.401, 0.8983150
1039.883, 7.7393003E-02
1040.365, 0.3105470
1040.847, 0.9605710
1041.329, 2.024414
1041.811, 1.919189
1042.293, 1.391357
1042.775, 1.395508
1043.257, 1.903931
1043.740, 2.291138
1044.222, 2.624756
1044.704, 2.763062
1045.186, 3.132568
1045.668, 2.812012
1046.150, 0.3804930
1046.632, 2.328857
1047.114, 2.773438
1047.596, 1.077881
1048.079, 7.2021000E-02
1048.561, 0.6649170
1049.043, 0.9515380
1049.525, 0.5611570
1050.007, 7.4951001E-02
1050.489, 0.3437500
1050.971, 0.6401370
1051.453, 0.8815920
1051.936, 1.010986
1052.418, 0.4721680
1052.900, 2.046631
1053.382, 3.117432
1053.864, 0.7064210
1054.346, 1.754028
1054.828, 2.533936
1055.310, 2.364014
1055.792, 2.081421
1056.275, 1.761230
1056.757, 1.147827
1057.239, 0.3372800
1057.721, 1.006348
1058.203, 0.5009770
1058.685, 1.912842
1059.167, 1.897583
1059.649, 1.116333
1060.131, 0.1038820
1060.614, 0.8931880
1061.096, 1.112427
1061.578, 0.1739500
1062.060, 0.7691650
1062.542, 1.010986
1063.024, 2.638794
1063.506, 2.367065
1063.988, 1.390137
1064.471, 1.135010
1064.953, 1.550781
1065.435, 1.777832
1065.917, 1.444702
1066.399, 1.295898
1066.881, 1.776367
1067.363, 2.307983
1067.845, 2.803345
1068.328, 2.995239
1068.810, 2.503540
1069.292, 1.501099
1069.774, 0.4798580
1070.256, 0.4569090
1070.738, 1.218506
1071.220, 1.739990
1071.702, 2.061157
1072.184, 2.306152
1072.667, 2.266357
1073.149, 1.257446
1073.631, 0.1956790
1074.113, 0.6837160
1074.595, 0.2309570
1075.077, 1.163940
1075.559, 1.364502
1076.041, 1.480835
1076.523, 2.409180
1077.006, 2.941650
1077.488, 1.305298
1077.970, 1.498779
1078.452, 3.049805
1078.934, 2.778198
1079.416, 2.347900
1079.898, 2.911865
1080.380, 2.956787
1080.862, 0.7945560
1081.345, 1.467773
1081.827, 1.747559
1082.309, 0.7634280
1082.791, 8.0077998E-02
1083.273, 0.4605710
1083.755, 0.6479490
1084.237, 0.5865480
1084.719, 0.5507810
1085.202, 0.6029050
1085.684, 0.8165280
1086.166, 1.213989
1086.648, 1.799927
1087.130, 3.037964
1087.612, 4.738159
1088.094, 5.064575
1088.576, 2.559326
1089.058, 0.1597900
1089.541, 0.8507080
1090.023, 1.359619
1090.505, 2.011597
1090.987, 2.548096
1091.469, 2.326050
1091.951, 1.580811
1092.433, 1.677979
1092.915, 3.445923
1093.397, 4.755615
1093.880, 4.327759
1094.362, 3.723999
1094.844, 3.953003
1095.326, 4.267456
1095.808, 3.695190
1096.290, 2.452515
1096.772, 1.379272
1097.254, 0.4598390
1097.737, 0.5682370
1098.219, 3.553101
1098.701, 5.702148
1099.183, 4.265747
1099.665, 2.138062
1100.147, 2.156982
1100.629, 3.527222
1101.111, 3.930298
1101.594, 2.901367
1102.076, 2.716187
1102.558, 3.898193
1103.040, 6.190186
1103.522, 11.95850
1104.004, 16.39294
1104.486, 15.06311
1104.968, 10.56763
1105.450, 6.490845
1105.932, 3.254517
1106.415, 2.179565
1106.897, 5.645630
1107.379, 8.153076
1107.861, 7.570801
1108.343, 6.970947
1108.825, 8.168579
1109.307, 10.07715
1109.789, 11.34558
1110.272, 11.96790
1110.754, 12.77881
1111.236, 14.44653
1111.718, 15.45557
1112.200, 14.83679
1112.682, 14.44128
1113.164, 15.19507
1113.646, 16.32239
1114.129, 17.21399
1114.611, 17.94019
1115.093, 18.52710
1115.575, 18.70520
1116.057, 19.84045
1116.539, 22.56836
1117.021, 25.17676
1117.503, 27.60413
1117.985, 29.46643
1118.468, 30.18542
1118.950, 30.27686
1119.432, 30.64661
1119.914, 31.21533
1120.396, 32.23840
1120.878, 33.82678
1121.360, 35.59485
1121.842, 37.06873
1122.324, 39.58179
1122.807, 44.71606
1123.289, 49.93750
1123.771, 51.97510
1124.253, 51.16821
1124.735, 50.40503
1125.217, 49.46875
1125.699, 49.67627
1126.181, 51.43750
1126.664, 53.31421
1127.146, 54.66260
1127.628, 56.46826
1128.110, 59.77881
1128.592, 63.87231
1129.074, 66.70068
1129.556, 68.11963
1130.038, 68.91772
1130.521, 68.86816
1131.003, 69.96143
1131.485, 72.88843
1131.967, 75.39526
1132.449, 75.90430
1132.931, 75.88477
1133.413, 77.94019
1133.895, 81.77368
1134.377, 85.76294
1134.859, 89.95264
1135.342, 92.65186
1135.824, 93.60913
1136.306, 94.43213
1136.788, 95.88574
1137.270, 97.82373
1137.752, 100.1047
1138.234, 102.4319
1138.716, 103.6777
1139.199, 104.2939
1139.681, 106.8933
1140.163, 111.2168
1140.645, 114.7361
1141.127, 116.7532
1141.609, 118.3906
1142.091, 120.4011
1142.573, 122.5752
1143.056, 125.1313
1143.538, 127.2632
1144.020, 125.7891
1144.502, 122.8579
1144.984, 124.8252
1145.466, 131.3960
1145.948, 137.0161
1146.430, 139.4990
1146.912, 141.1121
1147.395, 143.6399
1147.877, 146.4509
1148.359, 148.9602
1148.841, 151.2859
1149.323, 153.4739
1149.805, 155.7832
1150.287, 159.1995
1150.769, 163.5803
1151.251, 166.4307
1151.734, 165.2314
1152.216, 165.0974
1152.698, 171.0569
1153.180, 177.6787
1153.662, 180.1428
1154.144, 180.5559
1154.626, 181.7681
1155.108, 183.8723
1155.591, 185.3940
1156.073, 185.5857
1156.555, 187.6199
1157.037, 194.9070
1157.519, 201.1948
1158.001, 203.8186
1158.483, 204.7083
1158.965, 204.6370
1159.448, 204.3018
1159.930, 204.5474
1160.412, 205.4922
1160.894, 207.4312
1161.376, 211.7180
1161.858, 214.8608
1162.340, 215.0837
1162.822, 215.8782
1163.304, 219.4089
1163.786, 223.0710
1164.269, 224.2837
1164.751, 223.8022
1165.233, 224.1333
1165.715, 225.3164
1166.197, 227.2529
1166.679, 230.3977
1167.161, 233.1914
1167.643, 234.7471
1168.126, 237.1973
1168.608, 242.3958
1169.090, 248.3989
1169.572, 252.0876
1170.054, 253.6001
1170.536, 254.5110
1171.018, 254.9805
1171.500, 257.0759
1171.983, 260.7976
1172.465, 263.4839
1172.947, 264.1487
1173.429, 264.6465
1173.911, 266.7549
1174.393, 269.8262
1174.875, 272.6541
1175.357, 274.8157
1175.839, 275.8467
1176.322, 275.9875
1176.804, 275.3171
1177.286, 274.2241
1177.768, 274.6255
1178.250, 277.2964
1178.732, 279.8369
1179.214, 279.7935
1179.696, 279.0078
1180.178, 280.8550
1180.661, 283.2146
1181.143, 282.2900
1181.625, 279.0510
1182.107, 275.4790
1182.589, 272.4719
1183.071, 271.7500
1183.553, 275.0388
1184.035, 277.0051
1184.518, 273.3938
1185.000, 268.1318
1185.482, 262.3416
1185.964, 257.7729
1186.446, 257.2922
1186.928, 259.0808
1187.410, 258.8540
1187.892, 255.7871
1188.375, 251.8452
1188.857, 246.3906
1189.339, 241.7449
1189.821, 238.1875
1190.303, 235.8022
1190.785, 235.8999
1191.267, 236.2883
1191.749, 234.4343
1192.231, 230.9224
1192.714, 228.3452
1193.196, 227.2778
1193.678, 225.0352
1194.160, 221.2117
1194.642, 217.1335
1195.124, 212.6348
1195.606, 209.4661
1196.088, 209.1790
1196.570, 209.0291
1197.053, 204.7405
1197.535, 197.5305
1198.017, 194.3035
1198.499, 194.8914
1198.981, 192.2334
1199.463, 186.0066
1199.945, 178.8567
1200.427, 171.6960
1200.910, 166.1934
1201.392, 163.5862
1201.874, 163.1255
1202.356, 166.1992
1202.838, 169.3057
1203.320, 162.9224
1203.802, 151.2747
1204.284, 143.5925
1204.766, 140.2217
1205.249, 138.1956
1205.731, 136.3613
1206.213, 133.8213
1206.695, 130.0447
1207.177, 125.4089
1207.659, 119.7668
1208.141, 113.8447
1208.623, 107.5000
1209.105, 101.7314
1209.588, 98.12549
1210.070, 96.13184
1210.552, 94.26294
1211.034, 92.33105
1211.516, 88.83984
1211.998, 81.26758
1212.480, 75.46045
1212.962, 74.53369
1213.445, 73.73584
1213.927, 70.88770
1214.409, 66.65430
1214.891, 60.92529
1215.373, 54.34961
1215.855, 50.06494
1216.337, 48.39355
1216.819, 47.62354
1217.302, 48.65137
1217.784, 46.43115
1218.266, 39.16260
1218.748, 32.26025
1219.230, 28.89746
1219.712, 26.99316
1220.194, 24.03809
1220.676, 20.37354
1221.158, 17.44629
1221.641, 15.02002
1222.123, 11.39355
1222.605, 6.751953
1223.087, 2.648926
1223.569, 0.5834960
1224.051, 4.124023
1224.533, 8.708984
1225.015, 12.17090
1225.497, 11.04346
1225.980, 8.812500
1226.462, 10.00830
1226.944, 12.25830
1227.426, 11.58887
1227.908, 9.578613
1228.390, 10.62305
1228.872, 14.97070
1229.354, 15.03906
1229.837, 13.46582
1230.319, 10.91992
1230.801, 6.249023
1231.283, 2.438477
1231.765, 2.300293
1232.247, 1.973145
1232.729, 2.891602
1233.211, 9.404785
1233.693, 12.09424
1234.176, 11.13525
1234.658, 10.82080
1235.140, 10.34424
1235.622, 13.64697
1236.104, 22.26172
1236.586, 30.07520
1237.068, 35.59570
1237.550, 38.30859
1238.032, 37.09912
1238.515, 35.04053
1238.997, 37.49023
1239.479, 43.44824
1239.961, 50.22656
1240.443, 57.22119
1240.925, 60.66602
1241.407, 61.23438
1241.889, 63.92236
1242.372, 69.75586
1242.854, 75.50195
1243.336, 79.19434
1243.818, 81.13867
1244.300, 79.31396
1244.782, 78.83740
1245.264, 86.09229
1245.746, 96.08691
1246.229, 103.8345
1246.711, 109.1421
1247.193, 112.2983
1247.675, 113.4717
1248.157, 114.2490
1248.639, 113.6606
1249.121, 115.6792
1249.603, 123.5190
1250.085, 130.1499
1250.568, 131.7007
1251.050, 132.9819
1251.532, 138.4541
1252.014, 145.0249
1252.496, 147.0107
1252.978, 144.4863
1253.460, 141.9111
1253.942, 138.9170
1254.424, 139.0674
1254.907, 142.2671
1255.389, 144.4902
1255.871, 143.9609
1256.353, 142.6538
1256.835, 140.0562
1257.317, 136.8652
1257.799, 133.5537
1258.281, 128.6655
1258.764, 119.5981
1259.246, 110.0640
1259.728, 106.0420
1260.210, 107.0503
1260.692, 107.3164
1261.174, 105.9224
1261.656, 104.6318
1262.138, 103.0449
1262.620, 101.2690
1263.103, 98.93896
1263.585, 98.41748
1264.067, 102.3418
1264.549, 105.7920
1265.031, 104.9424
1265.513, 102.0811
1265.995, 101.6543
1266.477, 103.0181
1266.959, 100.5459
1267.442, 92.61035
1267.924, 86.86914
1268.406, 84.12842
1268.888, 81.46680
1269.370, 78.28613
1269.852, 77.12207
1270.334, 79.34570
1270.816, 79.39648
1271.299, 70.60254
1271.781, 58.31201
1272.263, 53.49756
1272.745, 53.59521
1273.227, 52.59766
1273.709, 50.97461
1274.191, 50.09814
1274.673, 49.59033
1275.156, 48.05957
1275.638, 45.35938
1276.120, 42.40576
1276.602, 38.54150
1277.084, 36.47217
1277.566, 39.57617
1278.048, 42.29297
1278.530, 41.91553
1279.012, 38.89893
1279.495, 31.44922
1279.977, 22.20508
1280.459, 15.32471
1280.941, 10.16309
1281.423, 7.752441
1281.905, 9.777832
1282.387, 12.42139
1282.869, 16.01221
1283.351, 16.62695
1283.834, 12.87939
1284.316, 7.576172
1284.798, 2.700195
1285.280, 0.4833980
1285.762, 0.6489260
1286.244, 0.0000000E+00
##END=



