##NAMES=Allanite-(Ce)
##RRUFFID=R050043
##IDEAL CHEMISTRY=CaCeAl_2_Fe^2+^(Si_2_O_7_)(SiO_4_)O(OH)
##LOCALITY=Arendal, Norway
##OWNER=RRUFF
##SOURCE=University of Arizona Mineral Museum
##DESCRIPTION=Black patially metamict fragment, note that a fragment of this sample was heated and is posted at R080092
##STATUS=The identification of this mineral has been confirmed by X-ray diffraction and chemical analysis
##URL=rruff.info/R050043
##MEASURED CHEMISTRY=Ca_1.00_(Ce^3+^_0.22_Ca_0.21_La_0.11_Nd_0.11_Mn_0.08_Gd_0.07_Th_0.06_Y_0.06_Ti_0.05_Mg_0.03_)_Σ=1_(Al_1.82_Fe^3+^_0.40_Fe^2+^_0.78_)_Σ=3_[Si_2.00_O_7_][Si_1.00_O_4_]O(OH)
184.1767, 0.0000000E+00
184.6588, 9.683594
185.1409, 0.2429200
185.6230, 7.650391
186.1051, 22.35938
186.5873, 30.98779
187.0694, 26.93726
187.5515, 14.91943
188.0336, 6.749023
188.5157, 0.4086910
188.9978, 2.416748
189.4800, 21.62476
189.9621, 45.27124
190.4442, 60.07422
190.9263, 59.73975
191.4084, 49.14478
191.8905, 39.12085
192.3727, 26.41919
192.8548, 20.70654
193.3369, 27.89746
193.8190, 39.53589
194.3011, 47.31543
194.7832, 47.85693
195.2654, 44.54419
195.7475, 44.43896
196.2296, 47.29370
196.7117, 54.44458
197.1938, 70.84082
197.6759, 88.27271
198.1581, 99.53491
198.6402, 102.2612
199.1223, 99.24902
199.6044, 94.80103
200.0865, 84.41553
200.5686, 81.44360
201.0508, 98.05737
201.5329, 114.4373
202.0150, 110.6643
202.4971, 82.68311
202.9792, 48.28784
203.4613, 38.72998
203.9435, 72.62280
204.4256, 91.98218
204.9077, 80.51758
205.3898, 60.80981
205.8719, 45.63623
206.3540, 38.19385
206.8362, 35.96387
207.3183, 36.14990
207.8004, 40.31104
208.2825, 42.90820
208.7646, 44.33032
209.2467, 44.12231
209.7289, 38.88501
210.2110, 29.97900
210.6931, 24.77417
211.1752, 35.26367
211.6573, 70.99536
212.1395, 87.38208
212.6216, 67.13599
213.1037, 41.20190
213.5858, 19.34375
214.0679, 4.508301
214.5500, 1.616699
215.0322, 4.876953
215.5143, 27.13721
215.9964, 40.77026
216.4785, 38.60669
216.9606, 35.52612
217.4427, 37.21460
217.9249, 43.19238
218.4070, 48.00610
218.8891, 45.99951
219.3712, 36.95703
219.8533, 30.20166
220.3354, 27.43335
220.8176, 25.47290
221.2997, 25.20386
221.7818, 24.70605
222.2639, 21.98022
222.7460, 14.98169
223.2281, 4.262207
223.7103, 3.857666
224.1924, 11.46484
224.6745, 13.54614
225.1566, 5.156250
225.6387, 8.609375
226.1208, 20.94580
226.6030, 28.15845
227.0851, 30.37476
227.5672, 27.64648
228.0493, 13.40527
228.5314, 3.059570
229.0135, 3.0273000E-02
229.4957, 1.616455
229.9778, 5.259521
230.4599, 9.689453
230.9420, 15.13159
231.4241, 22.75732
231.9062, 36.42163
232.3884, 45.23828
232.8705, 47.37598
233.3526, 45.15063
233.8347, 39.28857
234.3168, 30.25830
234.7989, 20.78540
235.2811, 15.59229
235.7632, 15.70361
236.2453, 17.92944
236.7274, 25.73169
237.2095, 32.75537
237.6916, 34.73730
238.1738, 30.88843
238.6559, 23.40430
239.1380, 12.34937
239.6201, 6.622803
240.1022, 12.60840
240.5843, 9.484863
241.0665, 32.94580
241.5486, 46.18481
242.0307, 47.99121
242.5128, 43.32617
242.9949, 34.56592
243.4770, 21.08081
243.9592, 13.48828
244.4413, 17.37183
244.9234, 22.24170
245.4055, 23.92358
245.8876, 23.32568
246.3697, 23.93188
246.8519, 30.55322
247.3340, 41.42261
247.8161, 38.94604
248.2982, 7.365967
248.7803, 16.43970
249.2624, 17.39844
249.7446, 3.373535
250.2267, 14.07544
250.7088, 31.47949
251.1909, 45.43799
251.6730, 43.43091
252.1551, 13.42456
252.6373, 7.878662
253.1194, 4.437012
253.6015, 10.92114
254.0836, 26.12695
254.5657, 37.66309
255.0478, 44.34888
255.5300, 43.09790
256.0121, 31.87451
256.4942, 20.39355
256.9763, 8.287598
257.4584, 1.166748
257.9406, 6.215820
258.4227, 6.542969
258.9048, 0.3078610
259.3869, 19.77637
259.8690, 54.86182
260.3511, 77.14648
260.8333, 75.40845
261.3154, 63.70068
261.7975, 49.25952
262.2796, 33.15210
262.7617, 20.79077
263.2438, 16.87329
263.7260, 20.38135
264.2081, 26.20898
264.6902, 36.86108
265.1723, 44.93359
265.6544, 43.33472
266.1365, 34.63281
266.6187, 27.25122
267.1008, 23.22290
267.5829, 23.53809
268.0650, 32.65820
268.5471, 53.97949
269.0292, 73.26880
269.5114, 81.26123
269.9935, 80.37720
270.4756, 72.44849
270.9577, 49.89551
271.4398, 27.07080
271.9219, 22.79419
272.4041, 37.57715
272.8862, 52.23340
273.3683, 56.82446
273.8504, 55.31323
274.3325, 56.07080
274.8146, 61.14014
275.2968, 65.45483
275.7789, 65.48657
276.2610, 61.86426
276.7431, 56.39819
277.2252, 47.97900
277.7073, 40.45923
278.1895, 40.06787
278.6716, 46.84595
279.1537, 57.70020
279.6358, 77.11011
280.1179, 98.64380
280.6000, 109.9624
281.0822, 107.5796
281.5643, 99.69043
282.0464, 94.28613
282.5285, 91.33398
283.0106, 94.42725
283.4927, 113.7954
283.9749, 132.7444
284.4570, 132.1321
284.9391, 112.0232
285.4212, 92.82568
285.9033, 92.16357
286.3854, 109.8335
286.8676, 120.1077
287.3497, 119.3306
287.8318, 115.5032
288.3139, 111.6833
288.7960, 107.8892
289.2781, 103.0171
289.7603, 95.94653
290.2424, 88.17017
290.7245, 86.32373
291.2066, 97.35132
291.6887, 105.3218
292.1708, 107.3005
292.6530, 105.1248
293.1351, 99.84375
293.6172, 91.95654
294.0993, 84.14526
294.5814, 81.40723
295.0635, 87.81934
295.5457, 91.78149
296.0278, 91.65967
296.5099, 90.44312
296.9920, 89.59766
297.4741, 89.49146
297.9562, 90.78467
298.4384, 95.60522
298.9205, 105.0906
299.4026, 107.2710
299.8847, 96.42871
300.3668, 84.25171
300.8489, 69.61060
301.3311, 56.81470
301.8131, 54.40283
302.2953, 69.37671
302.7774, 97.73950
303.2595, 119.3167
303.7416, 133.5781
304.2237, 140.7886
304.7058, 137.6335
305.1880, 129.8218
305.6701, 123.6482
306.1522, 121.5071
306.6343, 119.9204
307.1164, 112.4089
307.5985, 95.63110
308.0807, 87.35449
308.5628, 99.22119
309.0449, 114.8020
309.5270, 125.8828
310.0091, 131.2766
310.4912, 132.1172
310.9734, 126.3220
311.4555, 115.0708
311.9376, 113.3975
312.4197, 131.7300
312.9018, 145.9026
313.3839, 135.4380
313.8661, 109.0835
314.3482, 89.95044
314.8303, 95.16504
315.3124, 111.8445
315.7945, 112.9348
316.2766, 96.67700
316.7588, 82.58252
317.2409, 80.81421
317.7230, 88.09033
318.2051, 100.1704
318.6872, 121.3538
319.1693, 138.7759
319.6515, 141.8599
320.1336, 132.5461
320.6157, 118.4270
321.0978, 99.79688
321.5799, 81.09912
322.0620, 67.69116
322.5442, 57.79150
323.0263, 59.00220
323.5084, 87.35229
323.9905, 122.1575
324.4726, 132.6697
324.9547, 113.8894
325.4369, 90.63452
325.9190, 88.06909
326.4011, 108.8870
326.8832, 117.1572
327.3653, 99.63403
327.8474, 82.24121
328.3296, 81.03369
328.8117, 92.51929
329.2938, 104.5015
329.7759, 110.0723
330.2580, 110.2961
330.7401, 109.7979
331.2223, 113.8079
331.7044, 110.5220
332.1865, 89.36133
332.6686, 64.90454
333.1507, 55.20630
333.6328, 64.45410
334.1150, 78.85620
334.5971, 78.06958
335.0792, 53.11401
335.5613, 39.44653
336.0434, 41.74561
336.5255, 50.37964
337.0077, 63.06201
337.4898, 77.06689
337.9719, 87.80884
338.4540, 91.49390
338.9361, 88.87915
339.4182, 86.67163
339.9004, 84.73975
340.3825, 83.51660
340.8646, 84.43433
341.3467, 85.58008
341.8288, 84.54370
342.3109, 80.35669
342.7931, 74.00708
343.2752, 65.34619
343.7573, 53.30542
344.2394, 47.31665
344.7215, 54.89990
345.2036, 64.23315
345.6858, 64.95776
346.1679, 57.11743
346.6500, 50.33032
347.1321, 53.43042
347.6142, 62.17847
348.0963, 64.02539
348.5785, 55.92603
349.0606, 47.00098
349.5427, 46.14771
350.0248, 51.54858
350.5069, 55.53857
350.9890, 58.27417
351.4712, 57.94629
351.9533, 49.37793
352.4354, 34.87939
352.9175, 27.95947
353.3996, 37.99072
353.8817, 56.05078
354.3639, 56.60693
354.8460, 29.29639
355.3281, 10.16113
355.8102, 9.316406
356.2923, 19.87524
356.7744, 38.30469
357.2566, 62.73462
357.7387, 82.31689
358.2208, 83.11963
358.7029, 59.42432
359.1850, 49.09692
359.6671, 64.04150
360.1493, 78.46997
360.6314, 79.06567
361.1135, 70.13721
361.5956, 63.11475
362.0777, 65.03076
362.5598, 72.69092
363.0420, 74.43872
363.5241, 68.16602
364.0062, 58.79980
364.4883, 43.03687
364.9704, 27.22363
365.4525, 15.78394
365.9347, 10.01025
366.4168, 9.708252
366.8989, 18.37939
367.3810, 37.26758
367.8631, 44.36353
368.3452, 28.68628
368.8274, 13.00024
369.3095, 9.527100
369.7916, 14.92065
370.2737, 21.19238
370.7558, 27.16260
371.2379, 29.79028
371.7201, 18.49902
372.2022, 9.479248
372.6843, 23.71216
373.1664, 1.273926
373.6485, 36.35645
374.1306, 57.73413
374.6128, 59.33936
375.0949, 54.10010
375.5770, 46.03882
376.0591, 36.26611
376.5412, 26.01123
377.0233, 15.09790
377.5055, 7.055420
377.9876, 6.039307
378.4697, 12.94141
378.9518, 20.04932
379.4339, 30.30518
379.9160, 38.01685
380.3982, 38.47583
380.8803, 33.44678
381.3624, 28.06812
381.8445, 23.97021
382.3266, 20.64526
382.8087, 19.86328
383.2909, 27.72510
383.7730, 29.91895
384.2551, 16.28467
384.7372, 3.340088
385.2193, 7.893311
385.7014, 30.49609
386.1836, 55.90698
386.6657, 68.33618
387.1478, 67.22388
387.6299, 64.08008
388.1120, 60.42041
388.5941, 52.33813
389.0763, 34.49756
389.5584, 12.59937
390.0405, 5.448486
390.5226, 17.39307
391.0047, 21.31274
391.4868, 8.479492
391.9690, 24.83887
392.4511, 43.79028
392.9332, 27.77832
393.4153, 1.912598
393.8974, 10.63550
394.3795, 9.592773
394.8617, 3.358643
395.3438, 8.515381
395.8259, 21.40674
396.3080, 26.44678
396.7901, 22.49390
397.2722, 17.04736
397.7544, 13.66235
398.2365, 13.34180
398.7186, 19.70923
399.2007, 44.66577
399.6828, 60.71582
400.1649, 50.80103
400.6471, 26.69653
401.1292, 6.517822
401.6113, 3.884766
402.0934, 6.020264
402.5755, 1.342285
403.0576, 13.89990
403.5398, 24.48438
404.0219, 33.82397
404.5040, 36.21143
404.9861, 21.37524
405.4682, 3.087891
405.9503, 18.29004
406.4325, 11.05615
406.9146, 11.69580
407.3967, 24.65405
407.8788, 21.16724
408.3609, 21.99341
408.8430, 37.16064
409.3252, 52.87207
409.8073, 55.97900
410.2894, 45.16455
410.7715, 33.01074
411.2536, 30.96899
411.7357, 37.10620
412.2179, 41.68750
412.7000, 43.77612
413.1821, 45.03198
413.6642, 45.47266
414.1463, 45.96411
414.6284, 48.76489
415.1106, 57.96045
415.5927, 65.14038
416.0748, 60.43604
416.5569, 48.17456
417.0390, 43.33716
417.5211, 52.59229
418.0033, 65.27637
418.4854, 64.68042
418.9675, 45.63428
419.4496, 30.39185
419.9317, 20.52124
420.4138, 14.53198
420.8960, 11.38599
421.3781, 11.25171
421.8602, 13.65283
422.3423, 18.47461
422.8244, 25.20410
423.3065, 31.86304
423.7887, 41.25879
424.2708, 45.88818
424.7529, 40.62988
425.2350, 33.74829
425.7171, 32.26538
426.1992, 36.96191
426.6814, 43.39062
427.1635, 48.02808
427.6456, 50.89819
428.1277, 52.48730
428.6098, 54.63110
429.0919, 51.82739
429.5741, 33.54858
430.0562, 10.67725
430.5383, 0.3435060
431.0204, 10.92920
431.5025, 27.09937
431.9846, 35.04102
432.4668, 36.62915
432.9489, 38.78760
433.4310, 43.62231
433.9131, 48.29565
434.3952, 49.15894
434.8773, 45.93262
435.3595, 42.99683
435.8416, 41.85840
436.3237, 40.23804
436.8058, 37.41626
437.2879, 32.96558
437.7701, 24.28491
438.2522, 9.390625
438.7343, 6.137695
439.2164, 7.261475
439.6985, 18.09448
440.1806, 36.56372
440.6628, 47.00757
441.1449, 51.80615
441.6270, 51.63281
442.1091, 47.46167
442.5912, 40.15405
443.0733, 31.45190
443.5555, 22.15820
444.0376, 15.32544
444.5197, 11.08594
445.0018, 8.944824
445.4839, 9.153809
445.9660, 11.22510
446.4482, 15.96606
446.9303, 24.12524
447.4124, 29.66797
447.8945, 27.75659
448.3766, 20.12500
448.8587, 8.585205
449.3409, 6.564697
449.8230, 13.93555
450.3051, 1.278076
450.7872, 28.34863
451.2693, 43.20898
451.7514, 31.50562
452.2336, 19.47314
452.7157, 14.04199
453.1978, 14.18994
453.6799, 21.13232
454.1620, 34.33472
454.6441, 44.52026
455.1263, 37.56055
455.6084, 8.198730
456.0905, 8.428711
456.5726, 0.3149410
457.0547, 8.950928
457.5368, 12.08472
458.0190, 11.77930
458.5011, 13.18262
458.9832, 18.65747
459.4653, 25.18774
459.9474, 30.74731
460.4295, 35.75513
460.9117, 34.66040
461.3938, 21.95532
461.8759, 8.168701
462.3580, 1.991943
462.8401, 2.626465
463.3222, 6.472168
463.8044, 19.31274
464.2865, 30.27246
464.7686, 23.81177
465.2507, 4.299561
465.7328, 6.089600
466.2149, 3.481689
466.6971, 22.82422
467.1792, 31.81055
467.6613, 22.69458
468.1434, 19.31567
468.6255, 28.85449
469.1076, 37.80200
469.5898, 34.51465
470.0719, 22.93311
470.5540, 16.88599
471.0361, 26.39136
471.5182, 43.74121
472.0003, 44.24609
472.4825, 19.03809
472.9646, 1.215820
473.4467, 5.600342
473.9288, 14.17676
474.4109, 14.99780
474.8930, 8.063965
475.3752, 1.842285
475.8573, 3.138428
476.3394, 7.459961
476.8215, 4.409180
477.3036, 6.318115
477.7857, 8.879395
478.2679, 9.157227
478.7500, 36.64282
479.2321, 45.15918
479.7142, 27.48535
480.1963, 12.37354
480.6784, 3.469238
481.1606, 0.6545410
481.6427, 7.671143
482.1248, 22.07617
482.6069, 33.05884
483.0890, 31.82861
483.5711, 21.25000
484.0533, 17.64575
484.5354, 27.76294
485.0175, 33.76782
485.4996, 32.69824
485.9817, 27.39648
486.4638, 15.51245
486.9460, 0.8579100
487.4281, 8.823486
487.9102, 10.59668
488.3923, 45.42041
488.8744, 58.05493
489.3565, 44.18726
489.8387, 29.24902
490.3208, 27.14941
490.8029, 31.34839
491.2850, 26.78149
491.7671, 8.062988
492.2492, 3.848877
492.7314, 3.287598
493.2135, 18.10278
493.6956, 28.26758
494.1777, 32.49609
494.6598, 35.61426
495.1419, 41.66357
495.6241, 49.48706
496.1062, 51.53589
496.5883, 43.22437
497.0704, 34.39648
497.5525, 27.28711
498.0346, 19.75415
498.5168, 6.262451
498.9989, 11.10718
499.4810, 18.75464
499.9631, 0.9753420
500.4452, 39.17920
500.9273, 61.42285
501.4095, 65.36719
501.8916, 62.86743
502.3737, 55.49219
502.8558, 46.50635
503.3379, 41.13208
503.8200, 40.10620
504.3022, 40.25806
504.7843, 41.73096
505.2664, 42.93945
505.7485, 41.48389
506.2306, 37.56299
506.7127, 33.76562
507.1949, 31.27271
507.6770, 29.91431
508.1591, 29.19214
508.6412, 26.64429
509.1233, 27.31396
509.6054, 34.43701
510.0876, 42.44092
510.5697, 47.42212
511.0518, 49.21948
511.5339, 49.80273
512.0161, 50.72192
512.4982, 51.36353
512.9803, 48.19482
513.4624, 39.52100
513.9445, 37.41797
514.4266, 53.08887
514.9088, 73.61816
515.3909, 81.69897
515.8730, 76.49512
516.3551, 70.60938
516.8372, 69.63940
517.3193, 68.34692
517.8015, 57.50171
518.2836, 40.75366
518.7657, 34.19531
519.2478, 47.40869
519.7299, 71.31372
520.2120, 84.13721
520.6942, 80.61792
521.1763, 76.13208
521.6584, 67.35498
522.1405, 60.72290
522.6226, 60.72925
523.1047, 65.72949
523.5869, 70.91553
524.0690, 75.08813
524.5511, 78.18506
525.0332, 81.57324
525.5153, 85.22266
525.9974, 83.72607
526.4796, 72.45312
526.9617, 61.09717
527.4438, 62.68042
527.9259, 75.33716
528.4080, 82.78418
528.8901, 77.42725
529.3723, 71.53125
529.8544, 72.94360
530.3365, 78.94458
530.8186, 84.04639
531.3007, 86.47192
531.7828, 87.65186
532.2650, 90.01587
532.7471, 94.38989
533.2292, 94.70557
533.7113, 87.77856
534.1934, 80.34570
534.6755, 73.95020
535.1577, 68.05737
535.6398, 60.88599
536.1219, 51.74756
536.6040, 48.68164
537.0861, 65.72559
537.5682, 95.46631
538.0504, 112.8396
538.5325, 113.8743
539.0146, 110.2598
539.4967, 110.1492
539.9788, 112.1377
540.4609, 109.5247
540.9431, 98.29272
541.4252, 88.45239
541.9073, 80.03662
542.3894, 75.17383
542.8715, 78.10913
543.3536, 87.59814
543.8358, 96.07324
544.3179, 96.62231
544.8000, 92.10815
545.2821, 97.90356
545.7642, 124.5486
546.2463, 135.2214
546.7285, 102.7378
547.2106, 64.07983
547.6927, 48.70215
548.1748, 56.13647
548.6569, 65.34277
549.1390, 65.59692
549.6211, 64.24512
550.1032, 71.64990
550.5853, 85.52954
551.0674, 93.33887
551.5496, 89.68066
552.0317, 80.24634
552.5138, 74.18970
552.9959, 72.34595
553.4780, 70.58643
553.9601, 65.92896
554.4423, 64.54736
554.9244, 73.37598
555.4065, 85.72290
555.8886, 89.87500
556.3707, 81.36426
556.8528, 70.13647
557.3350, 69.06055
557.8171, 78.26953
558.2992, 87.20605
558.7813, 96.01782
559.2634, 101.1567
559.7455, 98.30884
560.2277, 90.20386
560.7098, 85.49878
561.1919, 85.17041
561.6740, 86.68457
562.1561, 92.14136
562.6382, 97.27808
563.1204, 95.42627
563.6025, 87.64404
564.0846, 83.60547
564.5667, 91.09106
565.0488, 104.9941
565.5309, 108.3250
566.0131, 97.83203
566.4952, 86.98169
566.9773, 72.07227
567.4594, 62.39526
567.9415, 68.69043
568.4236, 87.09863
568.9058, 99.46191
569.3879, 93.87842
569.8700, 82.78198
570.3521, 79.24976
570.8342, 80.90942
571.3163, 79.43213
571.7985, 72.11450
572.2806, 62.23389
572.7627, 52.36230
573.2448, 41.18164
573.7269, 42.56201
574.2090, 75.18750
574.6912, 97.43115
575.1733, 91.68262
575.6554, 73.94653
576.1375, 62.63452
576.6196, 61.56470
577.1017, 61.13428
577.5839, 48.97729
578.0660, 30.50342
578.5481, 25.09473
579.0302, 34.14453
579.5123, 47.42163
579.9944, 64.02612
580.4766, 79.14819
580.9587, 80.63330
581.4408, 63.72974
581.9229, 53.16431
582.4050, 58.87036
582.8871, 66.04980
583.3693, 66.16187
583.8514, 59.77588
584.3335, 47.78857
584.8156, 29.91992
585.2977, 14.09131
585.7798, 18.14331
586.2620, 44.77319
586.7441, 59.49219
587.2262, 55.49683
587.7083, 48.67627
588.1904, 47.20972
588.6725, 48.38086
589.1547, 48.60815
589.6368, 47.19946
590.1189, 45.86621
590.6010, 46.71973
591.0831, 47.39575
591.5652, 43.39478
592.0474, 35.46143
592.5295, 29.62183
593.0116, 29.99316
593.4937, 35.02759
593.9758, 40.64624
594.4579, 49.55615
594.9401, 53.08032
595.4222, 43.68262
595.9043, 33.43896
596.3864, 27.62939
596.8685, 25.73682
597.3506, 26.07935
597.8328, 29.54858
598.3149, 32.12842
598.7970, 28.76123
599.2791, 21.78223
599.7612, 15.19507
600.2433, 9.716064
600.7255, 13.16187
601.2076, 35.59546
601.6897, 72.64758
602.1718, 88.50281
602.6539, 66.94714
603.1360, 45.37842
603.6182, 18.60107
604.1003, 0.9362790
604.5824, 0.8775630
605.0645, 19.81885
605.5466, 37.05310
606.0287, 42.48291
606.5109, 39.47644
606.9930, 30.18896
607.4751, 15.73694
607.9572, 5.566528
608.4393, 2.470947
608.9214, 2.187866
609.4036, 0.4307860
609.8857, 2.808105
610.3678, 3.779053
610.8499, 2.077515
611.3320, 1.139038
611.8141, 9.064087
612.2963, 16.21338
612.7784, 15.50317
613.2605, 7.399414
613.7426, 0.4892580
614.2247, 2.628906
614.7068, 0.3120120
615.1890, 4.948486
615.6711, 13.47546
616.1532, 16.88965
616.6353, 10.70312
617.1174, 2.210815
617.5995, 1.458374
618.0817, 0.1887210
618.5638, 6.417603
619.0459, 28.62427
619.5280, 44.33301
620.0101, 43.60583
620.4922, 32.24878
620.9744, 13.05505
621.4565, 10.60083
621.9386, 27.32434
622.4207, 25.38184
622.9028, 8.962891
623.3849, 7.169434
623.8671, 23.91370
624.3492, 34.64380
624.8313, 34.42493
625.3134, 30.67371
625.7955, 34.19666
626.2776, 44.46643
626.7598, 47.07214
627.2419, 31.54651
627.7240, 17.09387
628.2061, 14.92505
628.6882, 19.39661
629.1703, 21.89148
629.6525, 20.50378
630.1346, 19.16382
630.6167, 21.86780
631.0988, 27.91077
631.5809, 34.59753
632.0630, 43.91162
632.5452, 45.25696
633.0273, 27.01599
633.5094, 7.571533
633.9915, 12.40271
634.4736, 39.78650
634.9557, 53.93799
635.4379, 37.38892
635.9200, 16.75854
636.4021, 5.140869
636.8842, 9.4971001E-02
637.3663, 4.502075
637.8484, 9.036987
638.3306, 8.952271
638.8127, 2.460083
639.2948, 22.28064
639.7769, 32.21338
640.2590, 30.80090
640.7411, 24.19385
641.2233, 8.516235
641.7054, 6.203735
642.1875, 7.543091
642.6696, 3.208008
643.1517, 10.11084
643.6339, 7.655029
644.1160, 2.930542
644.5981, 2.669067
645.0802, 7.040039
645.5623, 6.564575
646.0444, 0.8366700
646.5266, 7.125244
647.0087, 15.14197
647.4908, 22.66406
647.9729, 27.00488
648.4550, 27.92554
648.9371, 26.26562
649.4193, 19.48633
649.9014, 13.24451
650.3835, 15.67212
650.8656, 24.87903
651.3477, 26.87756
651.8298, 8.193726
652.3120, 5.535156
652.7941, 1.813965
653.2762, 19.26855
653.7583, 33.03162
654.2404, 40.50415
654.7225, 46.05981
655.2047, 53.77368
655.6868, 61.52832
656.1689, 60.02124
656.6510, 46.59607
657.1331, 41.48328
657.6152, 54.22461
658.0974, 68.68884
658.5795, 69.36768
659.0616, 59.04468
659.5437, 49.61194
660.0258, 40.96094
660.5079, 34.78906
660.9901, 34.26587
661.4722, 34.89893
661.9543, 28.34106
662.4364, 17.14856
662.9185, 15.41077
663.4006, 34.90906
663.8828, 62.66443
664.3649, 67.37451
664.8470, 48.07092
665.3291, 38.99939
665.8112, 48.07971
666.2933, 61.90662
666.7755, 73.52515
667.2576, 81.63843
667.7397, 81.45044
668.2218, 63.81714
668.7039, 53.21179
669.1860, 62.31494
669.6682, 73.51196
670.1503, 70.86047
670.6324, 58.02075
671.1145, 48.50952
671.5966, 49.01831
672.0787, 54.70398
672.5609, 59.51685
673.0430, 63.67688
673.5251, 69.73010
674.0072, 78.43518
674.4893, 86.05579
674.9714, 91.30347
675.4536, 93.10974
675.9357, 88.44263
676.4178, 71.44641
676.8999, 60.44263
677.3820, 59.16077
677.8641, 60.69897
678.3463, 62.47644
678.8284, 64.39587
679.3105, 66.90076
679.7926, 69.75281
680.2747, 71.38672
680.7568, 68.98364
681.2390, 64.45801
681.7211, 63.63892
682.2032, 66.32251
682.6853, 62.75781
683.1674, 47.21741
683.6495, 28.22559
684.1317, 18.30322
684.6138, 17.60620
685.0959, 25.47974
685.5780, 56.07361
686.0601, 78.32520
686.5422, 82.39722
687.0244, 75.93164
687.5065, 62.08301
687.9886, 43.34180
688.4707, 34.22473
688.9528, 51.68433
689.4349, 76.24207
689.9171, 88.17383
690.3992, 88.52185
690.8813, 77.43762
691.3634, 55.41699
691.8455, 36.60059
692.3276, 36.71179
692.8098, 52.80225
693.2919, 57.92712
693.7740, 44.95349
694.2561, 37.00464
694.7382, 41.53674
695.2203, 49.06128
695.7025, 56.89172
696.1846, 63.16748
696.6667, 60.69641
697.1488, 38.05225
697.6309, 19.11267
698.1130, 19.27881
698.5952, 28.92603
699.0773, 37.84558
699.5594, 43.57129
700.0415, 46.57703
700.5236, 47.30359
701.0057, 46.64905
701.4879, 46.76135
701.9700, 47.46228
702.4521, 52.64832
702.9342, 65.84131
703.4163, 75.74084
703.8984, 76.25830
704.3806, 68.72925
704.8627, 55.15234
705.3448, 29.79272
705.8269, 14.76477
706.3090, 19.13965
706.7911, 28.55652
707.2733, 39.38586
707.7554, 47.63513
708.2375, 45.38757
708.7196, 30.98755
709.2017, 17.82605
709.6838, 22.53967
710.1660, 36.62964
710.6481, 38.49731
711.1302, 28.49341
711.6123, 24.25659
712.0944, 33.44653
712.5765, 44.31702
713.0587, 41.31189
713.5408, 24.90881
714.0229, 15.91882
714.5050, 13.91736
714.9871, 17.47925
715.4692, 35.41345
715.9514, 51.63464
716.4335, 49.35815
716.9156, 32.10327
717.3977, 20.03784
717.8798, 23.90686
718.3619, 31.83167
718.8441, 36.80640
719.3262, 38.41492
719.8083, 33.85364
720.2904, 24.15930
720.7725, 16.87610
721.2546, 17.41528
721.7368, 22.36792
722.2189, 23.17188
722.7010, 19.06274
723.1831, 16.77454
723.6652, 15.45862
724.1473, 17.00378
724.6295, 25.03540
725.1116, 35.75708
725.5937, 40.97388
726.0758, 38.89868
726.5579, 37.69580
727.0400, 39.54797
727.5222, 41.76172
728.0043, 43.53711
728.4864, 44.30603
728.9685, 43.10461
729.4506, 39.80811
729.9327, 35.76221
730.4149, 29.99524
730.8970, 25.29321
731.3791, 31.92688
731.8612, 47.94397
732.3433, 51.97900
732.8254, 35.92029
733.3076, 19.36353
733.7897, 24.57275
734.2718, 48.85083
734.7539, 56.58521
735.2360, 36.49695
735.7181, 18.62634
736.2003, 4.174194
736.6824, 5.168701
737.1645, 9.178101
737.6466, 7.199341
738.1287, 4.149170
738.6108, 32.13635
739.0930, 53.77844
739.5751, 50.10364
740.0572, 37.65283
740.5393, 35.96326
741.0214, 43.49414
741.5035, 48.54309
741.9857, 45.62842
742.4678, 39.84045
742.9499, 38.96033
743.4320, 42.60303
743.9141, 45.26807
744.3962, 47.46936
744.8784, 45.75281
745.3605, 37.16028
745.8426, 26.37305
746.3247, 17.58081
746.8068, 9.759399
747.2889, 14.61963
747.7711, 51.19812
748.2532, 75.38257
748.7353, 68.13452
749.2174, 51.31335
749.6995, 43.26282
750.1816, 43.90356
750.6638, 41.91431
751.1459, 27.64807
751.6280, 15.18335
752.1101, 23.34668
752.5922, 41.99927
753.0743, 51.93640
753.5565, 51.55396
754.0386, 48.90063
754.5207, 48.70715
755.0028, 48.98511
755.4849, 44.68652
755.9670, 34.64551
756.4492, 32.54077
756.9313, 42.55286
757.4134, 50.57800
757.8955, 49.31982
758.3776, 43.55054
758.8597, 40.74744
759.3419, 41.34583
759.8240, 40.19324
760.3061, 37.47498
760.7882, 32.34009
761.2703, 22.02112
761.7524, 11.16260
762.2346, 3.939819
762.7167, 1.526978
763.1988, 4.108765
763.6809, 13.69739
764.1630, 24.64990
764.6451, 31.35046
765.1273, 34.11267
765.6094, 31.81409
766.0915, 25.14734
766.5736, 21.91248
767.0557, 27.60400
767.5378, 36.84631
768.0200, 36.24280
768.5021, 22.81567
768.9842, 18.63525
769.4663, 32.09766
769.9484, 37.17297
770.4305, 11.80579
770.9127, 20.81714
771.3948, 23.57080
771.8769, 6.330078
772.3590, 26.25134
772.8411, 25.19653
773.3232, 20.81287
773.8054, 18.47510
774.2875, 16.98059
774.7696, 13.43628
775.2517, 8.911987
775.7338, 9.153076
776.2159, 19.13770
776.6981, 31.16614
777.1802, 36.78186
777.6623, 37.71252
778.1444, 39.05579
778.6265, 40.77319
779.1086, 36.42334
779.5908, 21.68457
780.0729, 4.134155
780.5550, 2.347412
781.0371, 2.900146
781.5192, 15.57922
782.0013, 42.84033
782.4835, 57.84375
782.9656, 42.03784
783.4477, 16.85461
783.9298, 10.97900
784.4119, 25.07092
784.8940, 33.84473
785.3762, 33.71045
785.8583, 31.58887
786.3404, 25.45850
786.8225, 21.08960
787.3046, 26.68823
787.7867, 38.68835
788.2689, 44.23962
788.7510, 36.37573
789.2331, 25.97034
789.7152, 22.44946
790.1973, 22.07605
790.6794, 16.97522
791.1616, 8.698486
791.6437, 6.905518
792.1258, 15.75720
792.6079, 28.83386
793.0900, 39.19751
793.5721, 46.21423
794.0543, 42.68237
794.5364, 26.36414
795.0185, 11.29797
795.5006, 0.6612550
795.9827, 4.260132
796.4648, 1.336914
796.9470, 8.324097
797.4291, 14.07629
797.9112, 14.33093
798.3933, 12.80786
798.8754, 6.575195
799.3575, 1.662842
799.8397, 4.011475
800.3218, 9.455933
800.8039, 8.903809
801.2860, 0.8941650
801.7681, 8.156006
802.2502, 5.503784
802.7324, 0.9753420
803.2145, 4.908691
803.6966, 8.684692
804.1787, 21.92053
804.6608, 44.27527
805.1429, 56.69031
805.6251, 38.81921
806.1072, 6.176880
806.5893, 6.619263
807.0714, 2.190918
807.5535, 0.9730220
808.0356, 6.837524
808.5178, 8.263550
808.9999, 3.676514
809.4820, 22.37292
809.9641, 30.92651
810.4462, 27.11426
810.9283, 21.03918
811.4105, 9.039307
811.8926, 0.7071530
812.3747, 1.088989
812.8568, 6.192749
813.3389, 13.16418
813.8210, 21.83240
814.3032, 25.82458
814.7853, 18.58179
815.2674, 13.74133
815.7495, 18.78699
816.2316, 26.03479
816.7137, 30.57996
817.1959, 30.78711
817.6780, 23.23267
818.1601, 4.250122
818.6422, 12.08545
819.1243, 12.78418
819.6064, 3.924194
820.0886, 8.598755
820.5707, 22.14331
821.0528, 29.88037
821.5349, 29.52856
822.0170, 25.19202
822.4991, 20.22498
822.9813, 15.72510
823.4634, 18.33203
823.9455, 28.67139
824.4276, 31.30811
824.9097, 20.44482
825.3918, 12.68982
825.8740, 22.91675
826.3561, 43.90137
826.8382, 50.67517
827.3203, 33.45081
827.8024, 24.84094
828.2845, 29.66699
828.7667, 35.53625
829.2488, 45.96399
829.7309, 55.07422
830.2130, 47.83765
830.6951, 23.69287
831.1772, 9.618530
831.6594, 21.63171
832.1415, 33.27246
832.6236, 32.34937
833.1057, 25.99609
833.5878, 17.85449
834.0699, 11.46765
834.5521, 15.24146
835.0342, 34.96375
835.5163, 54.01941
835.9984, 54.88452
836.4805, 46.28345
836.9626, 42.99744
837.4448, 43.66077
837.9269, 39.25940
838.4090, 26.83923
838.8911, 12.84253
839.3732, 2.688477
839.8553, 3.743042
840.3375, 7.520142
840.8196, 8.760864
841.3017, 2.185059
841.7838, 15.38525
842.2659, 30.08374
842.7480, 31.39319
843.2302, 24.62817
843.7123, 23.61877
844.1944, 31.11975
844.6765, 34.98584
845.1586, 32.65918
845.6407, 30.63635
846.1229, 30.30469
846.6050, 31.72192
847.0871, 36.88135
847.5692, 45.10291
848.0513, 48.08923
848.5334, 42.01562
849.0156, 34.17065
849.4977, 22.23523
849.9798, 13.25330
850.4619, 16.66064
850.9440, 26.30225
851.4261, 27.19470
851.9083, 14.02795
852.3904, 2.631592
852.8725, 4.805054
853.3546, 12.60046
853.8367, 19.62378
854.3188, 25.58398
854.8010, 29.43457
855.2831, 30.96802
855.7652, 31.81616
856.2473, 33.26746
856.7294, 34.43140
857.2115, 33.46594
857.6937, 30.97131
858.1758, 28.18237
858.6579, 25.29236
859.1400, 24.38464
859.6221, 26.25024
860.1042, 31.98108
860.5864, 44.47339
861.0685, 62.69165
861.5506, 66.29382
862.0327, 50.41260
862.5148, 39.01697
862.9969, 37.45276
863.4791, 41.06995
863.9612, 47.82678
864.4433, 55.92346
864.9254, 61.13745
865.4075, 62.69275
865.8896, 61.90625
866.3718, 57.09021
866.8539, 53.36792
867.3360, 51.32751
867.8181, 50.81152
868.3002, 54.04297
868.7823, 60.19727
869.2645, 58.73083
869.7466, 32.04175
870.2287, 16.52283
870.7108, 39.23816
871.1929, 68.12244
871.6750, 74.17590
872.1572, 62.48499
872.6393, 49.54370
873.1214, 40.56799
873.6035, 35.81750
874.0856, 38.87866
874.5677, 43.33875
875.0499, 40.28772
875.5320, 33.46997
876.0141, 30.74341
876.4962, 32.82349
876.9783, 38.85205
877.4604, 49.66992
877.9426, 58.70752
878.4247, 51.70984
878.9068, 33.84778
879.3889, 25.03821
879.8710, 26.08557
880.3531, 29.03699
880.8353, 30.83557
881.3174, 31.17346
881.7995, 28.94397
882.2816, 25.16980
882.7637, 27.86243
883.2458, 38.55957
883.7280, 44.25232
884.2101, 42.44849
884.6922, 36.08777
885.1743, 24.83423
885.6564, 12.81445
886.1385, 9.276611
886.6207, 15.60693
887.1028, 24.55164
887.5849, 39.51624
888.0670, 51.48425
888.5491, 56.13110
889.0313, 58.46008
889.5134, 67.25049
889.9955, 78.51709
890.4776, 73.05591
890.9597, 31.27991
891.4418, 5.965820
891.9240, 16.78821
892.4061, 32.08545
892.8882, 34.69836
893.3703, 31.79578
893.8524, 36.50586
894.3345, 49.50806
894.8167, 55.25647
895.2988, 41.61780
895.7809, 26.68958
896.2630, 16.01001
896.7451, 11.30103
897.2272, 18.13000
897.7094, 31.70300
898.1915, 41.19604
898.6736, 42.87805
899.1557, 39.48474
899.6378, 28.90833
900.1199, 17.10779
900.6021, 9.797485
901.0842, 7.479858
901.5663, 13.90295
902.0484, 27.37390
902.5305, 36.68848
903.0126, 34.55237
903.4948, 26.72070
903.9769, 18.79675
904.4590, 12.44165
904.9411, 15.30322
905.4232, 26.16003
905.9053, 34.48132
906.3875, 36.55176
906.8696, 33.62683
907.3517, 26.16919
907.8338, 16.51221
908.3159, 10.33252
908.7980, 7.594604
909.2802, 18.92676
909.7623, 48.23035
910.2444, 68.87683
910.7265, 66.43970
911.2086, 53.90662
911.6907, 49.99915
912.1729, 54.57397
912.6550, 54.65515
913.1371, 49.88879
913.6192, 40.94312
914.1013, 23.65344
914.5834, 10.30518
915.0656, 9.430298
915.5477, 17.93140
916.0298, 28.89136
916.5119, 44.91785
916.9940, 54.54065
917.4761, 58.90503
917.9583, 55.27502
918.4404, 31.06787
918.9225, 8.912109
919.4046, 11.60938
919.8867, 31.74536
920.3688, 40.76929
920.8510, 31.26050
921.3331, 22.36279
921.8152, 14.43347
922.2973, 10.50842
922.7794, 11.75891
923.2615, 17.95166
923.7437, 33.45312
924.2258, 55.46191
924.7079, 65.47681
925.1900, 52.23279
925.6721, 35.63635
926.1542, 15.95105
926.6364, 3.430420
927.1185, 13.39258
927.6006, 33.67175
928.0827, 43.24536
928.5648, 37.78894
929.0469, 28.16284
929.5291, 14.29871
930.0112, 5.648926
930.4933, 12.76746
930.9754, 26.75244
931.4575, 39.69336
931.9396, 48.89941
932.4218, 50.52966
932.9039, 43.34717
933.3860, 33.42480
933.8681, 24.14917
934.3502, 16.54675
934.8323, 11.07800
935.3145, 8.647461
935.7966, 12.09534
936.2787, 20.89026
936.7608, 31.97095
937.2429, 43.94202
937.7250, 53.64905
938.2072, 57.65417
938.6893, 56.34656
939.1714, 47.60974
939.6535, 34.16553
940.1356, 26.07703
940.6177, 25.68335
941.0999, 31.66113
941.5820, 44.24341
942.0641, 58.57214
942.5462, 68.13611
943.0283, 73.01038
943.5104, 70.10596
943.9926, 60.21899
944.4747, 56.70215
944.9568, 63.91235
945.4389, 69.16028
945.9210, 59.87256
946.4031, 43.02063
946.8853, 38.99390
947.3674, 47.08936
947.8495, 48.34253
948.3316, 40.84656
948.8137, 40.47803
949.2958, 55.30481
949.7780, 69.73669
950.2601, 65.53503
950.7422, 46.22656
951.2243, 30.13757
951.7064, 17.47681
952.1885, 5.598877
952.6707, 7.843750
953.1528, 11.26282
953.6349, 4.263916
954.1170, 25.19666
954.5991, 32.91150
955.0812, 28.10571
955.5634, 26.22437
956.0455, 27.35120
956.5276, 31.54089
957.0097, 41.98962
957.4918, 48.81653
957.9739, 45.79407
958.4561, 37.13196
958.9382, 28.80005
959.4203, 20.50598
959.9024, 15.48389
960.3845, 14.74719
960.8666, 15.75281
961.3488, 21.76941
961.8309, 24.30005
962.3130, 15.01001
962.7951, 0.2897950
963.2772, 7.740601
963.7593, 8.760132
964.2415, 4.298828
964.7236, 15.48669
965.2057, 26.36194
965.6878, 13.49902
966.1699, 1.128662
966.6520, 9.534058
967.1342, 28.49927
967.6163, 33.52576
968.0984, 18.42017
968.5805, 13.08484
969.0626, 26.39917
969.5447, 38.11157
970.0269, 44.94604
970.5090, 46.80334
970.9911, 42.75549
971.4732, 33.98914
971.9553, 22.27002
972.4374, 3.262939
972.9196, 5.673096
973.4017, 5.165039
973.8838, 17.24353
974.3659, 26.99866
974.8480, 32.86377
975.3301, 30.05603
975.8123, 22.36096
976.2944, 22.52698
976.7765, 37.48499
977.2586, 44.20813
977.7407, 25.64417
978.2228, 12.59753
978.7050, 27.70959
979.1871, 47.00708
979.6692, 42.03015
980.1513, 19.82849
980.6334, 11.86804
981.1155, 30.92761
981.5977, 44.01697
982.0798, 35.97327
982.5619, 26.24036
983.0440, 24.74585
983.5261, 27.30933
984.0082, 29.61133
984.4904, 30.07397
984.9725, 27.49963
985.4546, 19.27441
985.9367, 14.68005
986.4188, 22.76538
986.9009, 30.79663
987.3831, 26.59277
987.8652, 18.82922
988.3473, 16.79150
988.8294, 20.43762
989.3115, 24.80005
989.7936, 29.05676
990.2758, 31.48523
990.7579, 29.94434
991.2400, 27.92920
991.7221, 27.53186
992.2042, 28.12183
992.6863, 29.24353
993.1685, 30.29297
993.6506, 30.42981
994.1327, 29.86243
994.6148, 26.88391
995.0969, 17.65796
995.5790, 9.120239
996.0612, 5.463867
996.5433, 5.563843
997.0254, 10.80530
997.5075, 18.59399
997.9896, 18.29346
998.4717, 2.197754
998.9539, 9.893677
999.4360, 8.053345
999.9181, 4.7363002E-02
1000.400, 13.27856
1000.882, 26.85754
1001.364, 36.84094
1001.847, 41.88525
1002.329, 39.16992
1002.811, 25.15405
1003.293, 11.40222
1003.775, 0.1739500
1004.257, 5.587891
1004.739, 1.574219
1005.221, 7.744019
1005.703, 19.66907
1006.186, 31.56873
1006.668, 36.75024
1007.150, 31.32788
1007.632, 24.33142
1008.114, 17.59912
1008.596, 13.12329
1009.078, 11.42639
1009.560, 13.34070
1010.043, 22.81421
1010.525, 36.73596
1011.007, 44.75391
1011.489, 43.52136
1011.971, 38.59570
1012.453, 25.79871
1012.935, 16.64685
1013.417, 21.11536
1013.899, 32.10938
1014.382, 47.20117
1014.864, 61.47510
1015.346, 58.78137
1015.828, 29.78650
1016.310, 6.441772
1016.792, 3.854004
1017.274, 6.608398
1017.756, 7.669312
1018.239, 8.814331
1018.721, 11.96497
1019.203, 17.20081
1019.685, 25.13904
1020.167, 37.63281
1020.649, 43.85291
1021.131, 35.04810
1021.613, 25.50354
1022.095, 23.01270
1022.578, 22.07373
1023.060, 15.55798
1023.542, 6.345459
1024.024, 3.924683
1024.506, 11.80103
1024.988, 15.54126
1025.470, 4.415527
1025.952, 2.571167
1026.435, 5.111938
1026.917, 16.67175
1027.399, 27.13623
1027.881, 33.41125
1028.363, 28.33337
1028.845, 8.926514
1029.327, 3.698486
1029.809, 2.038330
1030.292, 1.527832
1030.774, 5.230591
1031.256, 8.356689
1031.738, 6.761108
1032.220, 5.339111
1032.702, 16.10803
1033.184, 41.63867
1033.666, 53.10901
1034.148, 38.02527
1034.630, 22.81934
1035.113, 8.891602
1035.595, 1.238037
1036.077, 4.297485
1036.559, 3.556396
1037.041, 4.310913
1037.523, 6.819336
1038.005, 6.416138
1038.487, 0.8885500
1038.970, 4.948853
1039.452, 4.308960
1039.934, 1.214600
1040.416, 7.078369
1040.898, 14.10803
1041.380, 10.59351
1041.862, 2.241821
1042.344, 11.24622
1042.826, 18.83655
1043.309, 15.71582
1043.791, 10.96704
1044.273, 23.81091
1044.755, 0.5404050
1045.237, 30.39844
1045.719, 31.66479
1046.201, 11.60071
1046.683, 4.477905
1047.166, 15.45605
1047.648, 21.93335
1048.130, 23.47949
1048.612, 20.63196
1049.094, 11.58508
1049.576, 3.094849
1050.058, 0.6417240
1050.540, 3.307007
1051.022, 10.03381
1051.505, 22.09607
1051.987, 23.17786
1052.469, 10.15356
1052.951, 7.102417
1053.433, 21.64941
1053.915, 36.40454
1054.397, 40.18787
1054.879, 35.89844
1055.361, 27.25562
1055.844, 15.04736
1056.326, 9.425293
1056.808, 9.765137
1057.290, 10.36597
1057.772, 10.51184
1058.254, 10.34753
1058.736, 9.876831
1059.218, 8.711792
1059.701, 5.530029
1060.183, 1.862427
1060.665, 3.588257
1061.147, 9.811279
1061.629, 17.00781
1062.111, 23.83630
1062.593, 24.15479
1063.075, 15.73291
1063.557, 5.749268
1064.040, 0.7639160
1064.522, 6.2259999E-03
1065.004, 1.740356
1065.486, 6.668213
1065.968, 22.09192
1066.450, 42.16724
1066.932, 43.73877
1067.414, 23.23682
1067.896, 2.524536
1068.379, 3.622192
1068.861, 3.393433
1069.343, 6.857178
1069.825, 9.119019
1070.307, 1.991821
1070.789, 17.52295
1071.271, 16.30090
1071.753, 0.3641360
1072.236, 11.38037
1072.718, 6.912476
1073.200, 1.689209
1073.682, 8.969482
1074.164, 13.75049
1074.646, 12.94775
1075.128, 10.94678
1075.610, 12.62195
1076.093, 17.65002
1076.575, 24.21228
1077.057, 31.94885
1077.539, 37.76807
1078.021, 40.45398
1078.503, 40.72424
1078.985, 35.41321
1079.467, 31.14209
1079.949, 36.20129
1080.432, 44.33386
1080.914, 43.44751
1081.396, 32.78772
1081.878, 26.40283
1082.360, 26.43677
1082.842, 31.86707
1083.324, 52.47852
1083.806, 66.00134
1084.288, 59.08997
1084.771, 43.67407
1085.253, 31.31384
1085.735, 21.89001
1086.217, 14.32715
1086.699, 7.941162
1087.181, 4.499268
1087.663, 4.097046
1088.145, 8.986816
1088.628, 22.71716
1089.110, 36.28113
1089.592, 44.16602
1090.074, 45.96729
1090.556, 38.71899
1091.038, 21.55273
1091.520, 23.20874
1092.002, 47.76624
1092.484, 64.58545
1092.967, 68.99011
1093.449, 60.76733
1093.931, 37.29700
1094.413, 17.76001
1094.895, 29.07434
1095.377, 60.30713
1095.859, 68.93494
1096.341, 59.30798
1096.823, 62.93420
1097.306, 80.72021
1097.788, 98.05212
1098.270, 109.1761
1098.752, 108.2430
1099.234, 89.39722
1099.716, 64.65564
1100.198, 48.70166
1100.680, 40.10095
1101.163, 37.25427
1101.645, 38.14636
1102.127, 41.99475
1102.609, 49.77942
1103.091, 57.18945
1103.573, 62.56067
1104.055, 64.31372
1104.537, 58.72290
1105.020, 51.74561
1105.502, 50.50464
1105.984, 49.54663
1106.466, 35.45264
1106.948, 18.09985
1107.430, 25.40186
1107.912, 60.99146
1108.394, 83.11450
1108.876, 60.30273
1109.359, 42.74854
1109.841, 54.43066
1110.323, 70.84155
1110.805, 81.42627
1111.287, 85.37329
1111.769, 79.55054
1112.251, 66.37134
1112.733, 57.69897
1113.215, 54.91602
1113.698, 55.92651
1114.180, 67.30347
1114.662, 71.47119
1115.144, 56.59790
1115.626, 45.11182
1116.108, 55.07520
1116.590, 75.13379
1117.072, 83.79834
1117.555, 81.00464
1118.037, 82.27686
1118.519, 89.17188
1119.001, 91.24561
1119.483, 86.74390
1119.965, 80.43408
1120.447, 73.83618
1120.929, 68.89331
1121.411, 67.17700
1121.894, 69.69165
1122.376, 82.16675
1122.858, 101.4734
1123.340, 112.4868
1123.822, 114.6687
1124.304, 106.9404
1124.786, 90.55054
1125.268, 75.85132
1125.750, 68.80908
1126.233, 64.86353
1126.715, 56.05225
1127.197, 49.98315
1127.679, 61.73926
1128.161, 81.83545
1128.643, 94.45776
1129.125, 100.1475
1129.607, 106.1409
1130.090, 113.5767
1130.572, 117.8613
1131.054, 115.1016
1131.536, 110.4360
1132.018, 105.2805
1132.500, 100.6887
1132.982, 95.93994
1133.464, 93.23096
1133.947, 96.10278
1134.429, 103.3970
1134.911, 111.0137
1135.393, 121.6755
1135.875, 121.4507
1136.357, 96.25195
1136.839, 79.42334
1137.321, 80.14404
1137.803, 85.33276
1138.286, 88.40625
1138.768, 90.72925
1139.250, 94.16870
1139.732, 98.70728
1140.214, 105.7197
1140.696, 116.5454
1141.178, 117.6055
1141.660, 106.5178
1142.142, 104.9426
1142.625, 120.5220
1143.107, 133.7065
1143.589, 128.4231
1144.071, 116.3562
1144.553, 119.3691
1145.035, 131.6946
1145.517, 137.5632
1145.999, 137.0967
1146.482, 126.7737
1146.964, 110.6829
1147.446, 108.1738
1147.928, 125.2043
1148.410, 137.6401
1148.892, 122.8809
1149.374, 104.4829
1149.856, 103.0967
1150.339, 108.4189
1150.821, 113.1736
1151.303, 115.8330
1151.785, 113.5486
1152.267, 108.0610
1152.749, 109.0898
1153.231, 124.3081
1153.713, 124.4934
1154.195, 79.21411
1154.677, 51.11450
1155.160, 76.42212
1155.642, 105.2249
1156.124, 104.3250
1156.606, 92.16919
1157.088, 89.88086
1157.570, 97.82495
1158.052, 100.8923
1158.534, 97.83813
1159.017, 95.60059
1159.499, 94.66113
1159.981, 93.99829
1160.463, 93.63672
1160.945, 90.09131
1161.427, 79.74902
1161.909, 69.99487
1162.391, 75.03271
1162.874, 90.06494
1163.356, 102.6377
1163.838, 110.6516
1164.320, 100.7397
1164.802, 78.59888
1165.284, 71.45654
1165.766, 86.33789
1166.248, 100.8286
1166.730, 98.91577
1167.213, 94.35840
1167.695, 102.9417
1168.177, 109.5544
1168.659, 93.33350
1169.141, 71.33301
1169.623, 64.47266
1170.105, 71.15137
1170.587, 82.08228
1171.069, 97.21436
1171.552, 103.0505
1172.034, 85.85938
1172.516, 77.02515
1172.998, 85.80566
1173.480, 97.23877
1173.962, 106.5667
1174.444, 113.7952
1174.926, 118.9983
1175.409, 122.0764
1175.891, 123.8501
1176.373, 124.9802
1176.855, 110.7759
1177.337, 80.62744
1177.819, 62.76123
1178.301, 62.15015
1178.783, 60.81665
1179.266, 49.92505
1179.748, 46.90430
1180.230, 76.96289
1180.712, 113.0740
1181.194, 106.3738
1181.676, 78.24927
1182.158, 59.77856
1182.640, 51.93555
1183.122, 51.70703
1183.604, 57.84082
1184.087, 71.08130
1184.569, 93.68677
1185.051, 107.5264
1185.533, 101.7341
1186.015, 88.96191
1186.497, 70.29199
1186.979, 50.99292
1187.461, 29.16602
1187.944, 12.45605
1188.426, 12.30566
1188.908, 26.69775
1189.390, 44.57544
1189.872, 71.00879
1190.354, 82.21875
1190.836, 75.34473
1191.318, 64.60254
1191.801, 51.76855
1192.283, 44.83545
1192.765, 48.67261
1193.247, 58.43408
1193.729, 69.76929
1194.211, 79.94458
1194.693, 81.00293
1195.175, 76.05127
1195.657, 72.59131
1196.140, 70.95874
1196.622, 73.48096
1197.104, 77.45239
1197.586, 67.15625
1198.068, 33.32153
1198.550, 9.530273
1199.032, 28.06299
1199.514, 48.06421
1199.996, 42.99170
1200.479, 33.58057
1200.961, 35.38794
1201.443, 44.12915
1201.925, 57.64355
1202.407, 72.29590
1202.889, 64.48999
1203.371, 18.28491
1203.853, 2.872314
1204.336, 29.87744
1204.818, 49.99365
1205.300, 52.76099
1205.782, 50.37573
1206.264, 48.74805
1206.746, 48.86230
1207.228, 53.17188
1207.710, 57.56738
1208.193, 47.10571
1208.675, 29.85205
1209.157, 33.28296
1209.639, 50.10669
1210.121, 55.64941
1210.603, 47.66650
1211.085, 37.39722
1211.567, 29.16895
1212.049, 25.40771
1212.531, 37.61523
1213.014, 41.03809
1213.496, 2.166260
1213.978, 27.47632
1214.460, 3.300049
1214.942, 52.81836
1215.424, 68.99829
1215.906, 57.44385
1216.388, 46.23267
1216.871, 35.53833
1217.353, 22.75415
1217.835, 4.201660
1218.317, 1.900391
1218.799, 22.16187
1219.281, 34.95410
1219.763, 27.43726
1220.245, 13.18774
1220.728, 2.497070
1221.210, 1.029541
1221.692, 32.17188
1222.174, 71.57349
1222.656, 58.08862
1223.138, 18.51221
1223.620, 2.057861
1224.102, 22.81836
1224.584, 28.30273
1225.067, 8.940674
1225.549, 2.254639
1226.031, 16.38306
1226.513, 31.44751
1226.995, 24.34033
1227.477, 16.15601
1227.959, 22.29517
1228.441, 27.42163
1228.923, 23.19751
1229.406, 8.213135
1229.888, 2.084229
1230.370, 0.1130370
1230.852, 3.310791
1231.334, 12.26758
1231.816, 13.38086
1232.298, 9.538086
1232.780, 0.0000000E+00
##END=



