##NAMES=Allanite-(Ce)
##RRUFFID=R080044
##IDEAL CHEMISTRY=CaCeAl_2_Fe^2+^(Si_2_O_7_)(SiO_4_)O(OH)
##LOCALITY=Aquarius Range, Mohave County, Arizona, USA
##OWNER=RRUFF
##SOURCE=John Weber
##DESCRIPTION=Dark brown fragment from metamict sample R060418, after heating at T = 850 C for 18 hours
##STATUS=The identification of this mineral has been confirmed only by X-ray diffraction
##URL=rruff.info/R080044
198.1513, 1167.995
198.6334, 1172.105
199.1155, 1176.192
199.5977, 1179.371
200.0798, 1181.621
200.5619, 1183.554
201.0440, 1185.604
201.5261, 1187.723
202.0082, 1190.426
202.4904, 1194.887
202.9725, 1199.187
203.4546, 1202.106
203.9367, 1203.620
204.4188, 1204.840
204.9009, 1207.041
205.3831, 1210.307
205.8652, 1214.365
206.3473, 1220.722
206.8294, 1226.668
207.3115, 1230.290
207.7936, 1231.443
208.2758, 1231.593
208.7579, 1232.713
209.2400, 1235.087
209.7221, 1237.926
210.2042, 1241.035
210.6863, 1244.620
211.1685, 1249.245
211.6506, 1254.837
212.1327, 1260.403
212.6148, 1264.516
213.0969, 1266.377
213.5790, 1268.189
214.0612, 1269.503
214.5433, 1271.029
215.0254, 1273.450
215.5075, 1276.880
215.9896, 1280.848
216.4717, 1284.730
216.9539, 1288.732
217.4360, 1292.050
217.9181, 1293.498
218.4002, 1294.844
218.8823, 1298.389
219.3644, 1304.699
219.8466, 1311.404
220.3287, 1314.946
220.8108, 1314.648
221.2929, 1315.287
221.7750, 1317.901
222.2571, 1321.636
222.7393, 1325.621
223.2214, 1329.741
223.7035, 1333.712
224.1856, 1337.201
224.6677, 1340.257
225.1498, 1342.732
225.6320, 1344.099
226.1141, 1344.979
226.5962, 1346.371
227.0783, 1348.479
227.5604, 1350.998
228.0425, 1353.855
228.5247, 1356.938
229.0068, 1359.834
229.4889, 1362.598
229.9710, 1365.023
230.4531, 1366.450
230.9352, 1366.307
231.4174, 1366.216
231.8995, 1367.400
232.3816, 1369.583
232.8637, 1372.123
233.3458, 1375.087
233.8279, 1378.207
234.3101, 1380.557
234.7922, 1381.628
235.2743, 1382.707
235.7564, 1384.441
236.2385, 1386.702
236.7206, 1389.285
237.2028, 1392.226
237.6849, 1395.396
238.1670, 1398.335
238.6491, 1401.222
239.1312, 1403.530
239.6133, 1404.598
240.0955, 1405.097
240.5776, 1406.229
241.0597, 1408.898
241.5418, 1412.707
242.0239, 1415.629
242.5060, 1417.034
242.9882, 1418.366
243.4703, 1419.496
243.9524, 1420.942
244.4345, 1423.662
244.9166, 1428.481
245.3987, 1434.678
245.8809, 1438.676
246.3630, 1438.353
246.8451, 1438.426
247.3272, 1439.827
247.8093, 1442.172
248.2914, 1445.062
248.7736, 1448.340
249.2557, 1451.780
249.7378, 1454.376
250.2199, 1454.689
250.7020, 1455.979
251.1841, 1459.326
251.6663, 1463.628
252.1484, 1467.452
252.6305, 1470.112
253.1126, 1472.122
253.5947, 1475.212
254.0768, 1481.795
254.5590, 1486.464
255.0411, 1486.879
255.5232, 1486.024
256.0053, 1487.532
256.4874, 1492.919
256.9695, 1500.451
257.4517, 1505.925
257.9338, 1506.964
258.4159, 1508.643
258.8980, 1511.727
259.3801, 1515.150
259.8622, 1517.703
260.3444, 1518.978
260.8265, 1519.625
261.3086, 1520.836
261.7907, 1522.508
262.2728, 1525.074
262.7549, 1529.615
263.2371, 1534.534
263.7192, 1537.948
264.2013, 1539.409
264.6834, 1540.309
265.1655, 1542.781
265.6476, 1547.782
266.1298, 1552.100
266.6119, 1555.248
267.0940, 1557.950
267.5761, 1560.715
268.0582, 1563.685
268.5403, 1567.021
269.0225, 1571.092
269.5046, 1576.237
269.9867, 1580.384
270.4688, 1583.293
270.9509, 1585.306
271.4330, 1586.136
271.9152, 1585.880
272.3973, 1586.115
272.8794, 1588.409
273.3615, 1593.000
273.8436, 1597.754
274.3257, 1603.450
274.8079, 1608.747
275.2900, 1612.298
275.7721, 1614.132
276.2542, 1615.454
276.7363, 1616.850
277.2184, 1618.506
277.7006, 1621.237
278.1827, 1625.529
278.6648, 1630.488
279.1469, 1635.944
279.6290, 1641.733
280.1111, 1646.751
280.5933, 1650.005
281.0754, 1652.053
281.5575, 1655.065
282.0396, 1660.182
282.5217, 1664.883
283.0038, 1667.226
283.4860, 1667.625
283.9681, 1668.147
284.4502, 1669.421
284.9323, 1671.721
285.4144, 1675.545
285.8965, 1681.635
286.3787, 1687.387
286.8608, 1690.865
287.3429, 1692.699
287.8250, 1695.324
288.3071, 1699.822
288.7892, 1705.053
289.2714, 1709.140
289.7535, 1711.857
290.2356, 1715.180
290.7177, 1720.481
291.1998, 1727.097
291.6819, 1733.644
292.1641, 1740.386
292.6462, 1745.814
293.1283, 1747.225
293.6104, 1745.168
294.0925, 1744.402
294.5746, 1747.459
295.0568, 1752.971
295.5389, 1758.524
296.0210, 1764.127
296.5031, 1768.909
296.9852, 1771.117
297.4673, 1771.738
297.9495, 1773.601
298.4316, 1778.823
298.9137, 1785.337
299.3958, 1789.921
299.8779, 1792.193
300.3600, 1794.029
300.8422, 1796.466
301.3243, 1799.328
301.8064, 1802.312
302.2885, 1805.265
302.7706, 1808.433
303.2527, 1812.247
303.7349, 1816.774
304.2170, 1821.197
304.6991, 1824.890
305.1812, 1828.385
305.6633, 1832.513
306.1454, 1837.677
306.6276, 1842.708
307.1097, 1846.422
307.5918, 1848.888
308.0739, 1851.357
308.5560, 1853.842
309.0381, 1856.876
309.5203, 1861.088
310.0024, 1866.608
310.4845, 1872.267
310.9666, 1877.076
311.4487, 1881.266
311.9308, 1885.991
312.4130, 1891.605
312.8951, 1897.587
313.3772, 1903.625
313.8593, 1909.665
314.3414, 1915.102
314.8235, 1919.176
315.3057, 1922.448
315.7878, 1926.571
316.2699, 1932.032
316.7520, 1937.446
317.2341, 1941.042
317.7162, 1943.767
318.1984, 1947.868
318.6805, 1955.236
319.1626, 1963.938
319.6447, 1970.886
320.1268, 1975.849
320.6089, 1980.254
321.0911, 1984.422
321.5732, 1988.699
322.0553, 1993.640
322.5374, 1999.649
323.0195, 2005.924
323.5016, 2011.468
323.9838, 2016.306
324.4659, 2021.458
324.9480, 2027.224
325.4301, 2033.598
325.9122, 2040.670
326.3943, 2048.708
326.8765, 2056.354
327.3586, 2061.989
327.8407, 2066.137
328.3228, 2071.791
328.8049, 2080.437
329.2870, 2089.678
329.7692, 2096.970
330.2513, 2102.454
330.7334, 2107.689
331.2155, 2113.184
331.6976, 2118.963
332.1797, 2125.244
332.6619, 2132.291
333.1440, 2139.147
333.6261, 2144.682
334.1082, 2149.381
334.5903, 2154.445
335.0724, 2159.618
335.5546, 2165.606
336.0367, 2174.329
336.5188, 2186.168
337.0009, 2196.275
337.4830, 2200.477
337.9651, 2201.467
338.4473, 2204.268
338.9294, 2209.724
339.4115, 2216.595
339.8936, 2224.972
340.3757, 2234.481
340.8578, 2241.739
341.3400, 2244.437
341.8221, 2245.363
342.3042, 2248.865
342.7863, 2255.267
343.2684, 2262.193
343.7505, 2268.478
344.2327, 2274.428
344.7148, 2280.899
345.1969, 2288.246
345.6790, 2295.661
346.1611, 2301.600
346.6432, 2306.361
347.1254, 2312.631
347.6075, 2322.319
348.0896, 2333.290
348.5717, 2342.923
349.0538, 2351.031
349.5359, 2358.211
350.0181, 2364.799
350.5002, 2370.787
350.9823, 2376.352
351.4644, 2380.193
351.9465, 2384.706
352.4286, 2392.201
352.9108, 2402.053
353.3929, 2411.437
353.8750, 2418.952
354.3571, 2425.113
354.8392, 2431.235
355.3214, 2437.302
355.8035, 2443.357
356.2856, 2449.344
356.7677, 2455.326
357.2498, 2461.225
357.7319, 2466.928
358.2141, 2473.130
358.6962, 2481.344
359.1783, 2492.141
359.6604, 2501.340
360.1425, 2507.477
360.6246, 2512.483
361.1068, 2517.542
361.5889, 2522.989
362.0710, 2529.771
362.5531, 2539.081
363.0352, 2550.890
363.5173, 2560.988
363.9995, 2568.832
364.4816, 2575.748
364.9637, 2581.888
365.4458, 2587.550
365.9279, 2593.270
366.4100, 2599.232
366.8922, 2605.629
367.3743, 2613.080
367.8564, 2622.263
368.3385, 2631.445
368.8206, 2640.748
369.3027, 2649.789
369.7849, 2658.132
370.2670, 2665.612
370.7491, 2672.220
371.2312, 2677.671
371.7133, 2680.761
372.1954, 2686.535
372.6776, 2697.584
373.1597, 2708.907
373.6418, 2717.758
374.1239, 2724.028
374.6060, 2728.639
375.0881, 2732.051
375.5703, 2734.362
376.0524, 2739.233
376.5345, 2750.242
377.0166, 2759.718
377.4987, 2764.822
377.9808, 2767.643
378.4630, 2771.324
378.9451, 2777.317
379.4272, 2784.727
379.9093, 2791.372
380.3914, 2796.347
380.8735, 2802.141
381.3557, 2810.060
381.8378, 2817.874
382.3199, 2823.334
382.8020, 2826.514
383.2841, 2829.813
383.7662, 2836.245
384.2484, 2846.546
384.7305, 2854.905
385.2126, 2859.781
385.6947, 2864.099
386.1768, 2868.517
386.6589, 2873.066
387.1411, 2877.556
387.6232, 2881.803
388.1053, 2886.052
388.5874, 2891.238
389.0695, 2897.926
389.5516, 2904.486
390.0338, 2911.816
390.5159, 2918.244
390.9980, 2921.519
391.4801, 2921.088
391.9622, 2919.900
392.4443, 2921.602
392.9265, 2926.437
393.4086, 2931.918
393.8907, 2938.894
394.3728, 2945.360
394.8549, 2949.871
395.3370, 2952.782
395.8192, 2955.542
396.3013, 2959.181
396.7834, 2963.386
397.2655, 2967.103
397.7476, 2970.294
398.2297, 2973.075
398.7119, 2975.756
399.1940, 2977.990
399.6761, 2978.843
400.1582, 2977.181
400.6403, 2976.070
401.1224, 2979.389
401.6046, 2986.865
402.0867, 2993.581
402.5688, 2998.249
403.0509, 3001.243
403.5330, 3002.659
404.0151, 3002.437
404.4973, 3003.043
404.9794, 3006.573
405.4615, 3011.346
405.9436, 3014.304
406.4257, 3014.948
406.9078, 3014.928
407.3900, 3015.557
407.8721, 3016.656
408.3542, 3017.256
408.8363, 3016.337
409.3184, 3015.782
409.8005, 3017.107
410.2827, 3019.895
410.7648, 3022.941
411.2469, 3026.044
411.7290, 3028.454
412.2111, 3027.903
412.6932, 3022.662
413.1754, 3019.211
413.6575, 3019.805
414.1396, 3022.089
414.6217, 3023.986
415.1038, 3025.012
415.5859, 3025.050
416.0681, 3023.812
416.5502, 3021.111
417.0323, 3019.103
417.5144, 3017.860
417.9965, 3017.087
418.4786, 3017.064
418.9608, 3017.382
419.4429, 3017.202
419.9250, 3016.060
420.4071, 3014.449
420.8892, 3013.793
421.3713, 3015.695
421.8535, 3016.104
422.3356, 3014.413
422.8177, 3011.671
423.2998, 3008.347
423.7819, 3004.698
424.2640, 3001.194
424.7462, 2998.365
425.2283, 2996.254
425.7104, 2993.999
426.1925, 2991.172
426.6746, 2988.675
427.1567, 2987.201
427.6389, 2986.117
428.1210, 2984.401
428.6031, 2981.493
429.0852, 2977.977
429.5673, 2975.024
430.0494, 2972.737
430.5316, 2970.644
431.0137, 2970.372
431.4958, 2969.051
431.9779, 2963.566
432.4600, 2954.199
432.9421, 2945.797
433.4243, 2942.921
433.9064, 2944.266
434.3885, 2944.144
434.8706, 2942.081
435.3527, 2939.031
435.8348, 2934.846
436.3170, 2930.204
436.7991, 2926.289
437.2812, 2923.844
437.7633, 2921.574
438.2454, 2918.251
438.7275, 2913.969
439.2097, 2909.329
439.6918, 2904.166
440.1739, 2899.317
440.6560, 2896.443
441.1381, 2895.684
441.6202, 2894.322
442.1024, 2891.295
442.5845, 2887.452
443.0666, 2883.501
443.5487, 2879.578
444.0308, 2876.215
444.5129, 2874.016
444.9951, 2872.794
445.4772, 2870.618
445.9593, 2867.493
446.4414, 2863.607
446.9235, 2858.593
447.4056, 2852.977
447.8878, 2847.442
448.3699, 2842.230
448.8520, 2837.315
449.3341, 2832.577
449.8162, 2827.798
450.2983, 2823.950
450.7805, 2821.636
451.2626, 2819.556
451.7447, 2817.579
452.2268, 2815.277
452.7089, 2811.621
453.1910, 2805.725
453.6732, 2798.381
454.1553, 2793.111
454.6374, 2791.575
455.1195, 2789.298
455.6016, 2784.524
456.0837, 2779.471
456.5659, 2776.636
457.0480, 2776.193
457.5301, 2775.396
458.0122, 2770.606
458.4943, 2761.920
458.9764, 2755.670
459.4586, 2753.808
459.9407, 2751.769
460.4228, 2746.906
460.9049, 2740.319
461.3870, 2734.031
461.8691, 2729.135
462.3513, 2724.192
462.8334, 2716.652
463.3155, 2706.688
463.7976, 2698.943
464.2797, 2695.839
464.7618, 2694.441
465.2440, 2691.115
465.7261, 2685.881
466.2082, 2680.097
466.6903, 2673.407
467.1724, 2666.826
467.6545, 2661.751
468.1367, 2658.248
468.6188, 2655.255
469.1009, 2652.329
469.5830, 2649.303
470.0651, 2645.247
470.5472, 2638.720
471.0294, 2633.149
471.5115, 2630.362
471.9936, 2628.608
472.4757, 2625.395
472.9578, 2620.179
473.4399, 2614.664
473.9221, 2611.045
474.4042, 2609.906
474.8863, 2607.223
475.3684, 2602.474
475.8505, 2596.913
476.3326, 2589.390
476.8148, 2581.701
477.2969, 2577.414
477.7790, 2578.423
478.2611, 2581.435
478.7432, 2578.930
479.2253, 2568.321
479.7075, 2559.590
480.1896, 2555.629
480.6717, 2552.388
481.1538, 2546.969
481.6359, 2540.020
482.1180, 2534.850
482.6002, 2534.853
483.0823, 2537.908
483.5644, 2537.779
484.0465, 2533.756
484.5286, 2529.136
485.0107, 2525.390
485.4929, 2521.781
485.9750, 2517.109
486.4571, 2510.951
486.9392, 2505.492
487.4213, 2502.326
487.9034, 2500.771
488.3856, 2499.635
488.8677, 2498.839
489.3498, 2497.429
489.8319, 2494.145
490.3140, 2489.230
490.7961, 2485.988
491.2783, 2487.565
491.7604, 2487.454
492.2425, 2480.530
492.7246, 2470.224
493.2067, 2463.208
493.6888, 2461.844
494.1710, 2463.076
494.6531, 2462.248
495.1352, 2458.460
495.6173, 2455.414
496.0994, 2453.956
496.5815, 2452.311
497.0637, 2449.043
497.5458, 2444.958
498.0279, 2442.140
498.5100, 2441.925
498.9921, 2442.802
499.4742, 2440.664
499.9564, 2434.084
500.4385, 2428.056
500.9206, 2422.702
501.4027, 2418.504
501.8848, 2416.338
502.3669, 2415.888
502.8491, 2415.624
503.3312, 2414.438
503.8133, 2412.694
504.2954, 2411.684
504.7775, 2411.813
505.2596, 2410.754
505.7418, 2406.414
506.2239, 2400.827
506.7060, 2397.000
507.1881, 2395.477
507.6702, 2394.114
508.1523, 2392.525
508.6345, 2390.186
509.1166, 2385.294
509.5987, 2377.556
510.0808, 2371.011
510.5629, 2369.368
511.0450, 2372.141
511.5272, 2373.152
512.0093, 2372.142
512.4914, 2369.936
512.9735, 2365.937
513.4556, 2361.214
513.9377, 2356.966
514.4199, 2353.594
514.9020, 2351.001
515.3841, 2349.340
515.8662, 2348.968
516.3483, 2347.132
516.8304, 2341.628
517.3126, 2337.005
517.7947, 2335.471
518.2768, 2335.352
518.7589, 2333.990
519.2410, 2330.279
519.7231, 2325.853
520.2053, 2323.526
520.6874, 2323.574
521.1695, 2321.475
521.6516, 2314.918
522.1337, 2308.272
522.6158, 2304.631
523.0980, 2303.248
523.5801, 2302.010
524.0622, 2300.202
524.5443, 2298.217
525.0264, 2296.375
525.5085, 2294.695
525.9907, 2293.652
526.4728, 2293.895
526.9549, 2293.767
527.4370, 2290.298
527.9191, 2282.765
528.4012, 2276.638
528.8834, 2271.938
529.3655, 2269.260
529.8476, 2270.608
530.3297, 2274.442
530.8118, 2276.428
531.2939, 2274.120
531.7761, 2269.242
532.2582, 2266.299
532.7403, 2267.237
533.2224, 2266.448
533.7045, 2262.320
534.1866, 2257.961
534.6688, 2255.331
535.1509, 2254.127
535.6330, 2252.894
536.1151, 2250.658
536.5972, 2247.780
537.0793, 2245.206
537.5615, 2243.048
538.0436, 2240.833
538.5257, 2238.548
539.0078, 2236.099
539.4899, 2233.609
539.9720, 2231.044
540.4542, 2227.758
540.9363, 2221.832
541.4184, 2215.825
541.9005, 2214.279
542.3826, 2217.085
542.8647, 2219.342
543.3469, 2218.488
543.8290, 2215.458
544.3111, 2212.492
544.7932, 2209.437
545.2753, 2206.771
545.7574, 2205.278
546.2396, 2203.651
546.7217, 2200.213
547.2038, 2195.353
547.6859, 2191.189
548.1680, 2189.249
548.6501, 2189.063
549.1323, 2188.623
549.6144, 2188.204
550.0965, 2187.005
550.5786, 2184.232
551.0607, 2181.305
551.5428, 2179.306
552.0250, 2178.242
552.5071, 2177.423
552.9892, 2176.648
553.4713, 2175.648
553.9534, 2173.379
554.4355, 2169.541
554.9177, 2165.921
555.3998, 2163.040
555.8819, 2160.905
556.3640, 2159.638
556.8461, 2159.397
557.3282, 2158.745
557.8104, 2156.765
558.2925, 2154.282
558.7746, 2152.579
559.2567, 2151.533
559.7388, 2149.475
560.2209, 2145.023
560.7031, 2139.413
561.1852, 2136.586
561.6673, 2139.800
562.1494, 2141.236
562.6315, 2140.176
563.1136, 2137.801
563.5958, 2134.485
564.0779, 2130.585
564.5600, 2126.744
565.0421, 2123.310
565.5242, 2120.418
566.0063, 2118.770
566.4885, 2119.055
566.9706, 2118.578
567.4527, 2116.052
567.9348, 2113.017
568.4169, 2110.457
568.8990, 2108.397
569.3812, 2106.360
569.8633, 2103.634
570.3454, 2101.060
570.8275, 2100.446
571.3096, 2101.608
571.7917, 2101.741
572.2739, 2099.518
572.7560, 2095.863
573.2381, 2092.099
573.7202, 2087.746
574.2023, 2085.102
574.6844, 2086.471
575.1666, 2087.802
575.6487, 2085.804
576.1308, 2081.418
576.6129, 2077.460
577.0950, 2075.375
577.5771, 2074.607
578.0593, 2073.992
578.5414, 2073.635
579.0235, 2073.125
579.5056, 2073.034
579.9877, 2072.191
580.4698, 2069.543
580.9520, 2065.730
581.4341, 2062.184
581.9162, 2059.520
582.3983, 2057.438
582.8804, 2055.695
583.3625, 2054.249
583.8447, 2052.799
584.3268, 2051.374
584.8089, 2049.714
585.2910, 2047.318
585.7731, 2044.312
586.2552, 2041.994
586.7374, 2040.895
587.2195, 2040.091
587.7016, 2039.561
588.1837, 2038.899
588.6658, 2037.138
589.1479, 2034.065
589.6301, 2030.958
590.1122, 2029.516
590.5943, 2030.010
591.0764, 2029.547
591.5585, 2027.308
592.0406, 2025.004
592.5228, 2023.002
593.0049, 2021.156
593.4870, 2019.271
593.9691, 2017.290
594.4512, 2015.357
594.9333, 2013.841
595.4155, 2012.518
595.8976, 2010.182
596.3797, 2006.447
596.8618, 2003.237
597.3439, 2002.346
597.8260, 2002.501
598.3082, 2000.468
598.7903, 1995.087
599.2724, 1990.486
599.7545, 1988.986
600.2366, 1988.317
600.7188, 1985.533
601.2009, 1980.855
601.6830, 1977.237
602.1651, 1976.853
602.6472, 1978.556
603.1293, 1977.961
603.6115, 1973.115
604.0936, 1969.544
604.5757, 1968.871
605.0578, 1968.344
605.5399, 1965.881
606.0220, 1962.016
606.5042, 1958.929
606.9863, 1958.328
607.4684, 1958.419
607.9505, 1955.813
608.4326, 1950.596
608.9147, 1946.443
609.3969, 1944.503
609.8790, 1943.579
610.3611, 1942.777
610.8432, 1942.041
611.3253, 1940.450
611.8074, 1937.117
612.2896, 1933.737
612.7717, 1931.533
613.2538, 1929.789
613.7359, 1926.847
614.2180, 1922.343
614.7001, 1918.197
615.1823, 1916.999
615.6644, 1918.991
616.1465, 1918.684
616.6286, 1914.170
617.1107, 1909.922
617.5928, 1907.400
618.0750, 1905.516
618.5571, 1903.148
619.0392, 1900.094
619.5213, 1896.908
620.0034, 1894.041
620.4855, 1891.348
620.9677, 1888.410
621.4498, 1885.209
621.9319, 1882.152
622.4140, 1879.350
622.8961, 1876.926
623.3782, 1875.387
623.8604, 1875.490
624.3425, 1874.044
624.8246, 1868.661
625.3067, 1863.431
625.7888, 1861.524
626.2709, 1862.038
626.7531, 1862.360
627.2352, 1861.212
627.7173, 1859.157
628.1994, 1857.292
628.6815, 1855.768
629.1636, 1853.476
629.6458, 1849.873
630.1279, 1846.094
630.6100, 1842.539
631.0921, 1839.231
631.5742, 1836.329
632.0563, 1834.064
632.5385, 1831.621
633.0206, 1828.114
633.5027, 1824.103
633.9848, 1820.688
634.4669, 1818.033
634.9490, 1815.713
635.4312, 1813.450
635.9133, 1811.242
636.3954, 1809.013
636.8775, 1806.038
637.3596, 1804.092
637.8417, 1804.651
638.3239, 1805.108
638.8060, 1803.492
639.2881, 1800.041
639.7702, 1796.074
640.2523, 1792.243
640.7344, 1788.679
641.2166, 1785.777
641.6987, 1783.551
642.1808, 1781.355
642.6629, 1779.250
643.1450, 1776.800
643.6271, 1772.980
644.1093, 1768.330
644.5914, 1765.044
645.0735, 1764.363
645.5556, 1764.042
646.0377, 1763.568
646.5198, 1762.605
647.0020, 1760.239
647.4841, 1756.540
647.9662, 1753.228
648.4483, 1752.115
648.9304, 1752.618
649.4125, 1750.171
649.8947, 1741.978
650.3768, 1736.150
650.8589, 1736.072
651.3410, 1737.138
651.8231, 1736.281
652.3052, 1733.535
652.7874, 1730.554
653.2695, 1728.332
653.7516, 1726.111
654.2337, 1722.765
654.7158, 1718.547
655.1979, 1714.593
655.6801, 1711.199
656.1622, 1708.317
656.6443, 1705.940
657.1264, 1704.099
657.6085, 1702.311
658.0906, 1701.380
658.5728, 1699.515
659.0549, 1695.117
659.5370, 1690.273
660.0191, 1687.484
660.5012, 1686.838
660.9833, 1686.111
661.4655, 1683.434
661.9476, 1679.321
662.4297, 1675.342
662.9118, 1671.502
663.3939, 1667.821
663.8760, 1664.294
664.3582, 1660.976
664.8403, 1657.687
665.3224, 1654.463
665.8045, 1652.479
666.2866, 1653.207
666.7687, 1653.879
667.2509, 1653.098
667.7330, 1651.189
668.2151, 1648.768
668.6972, 1645.985
669.1793, 1642.468
669.6614, 1637.430
670.1436, 1631.127
670.6257, 1627.434
671.1078, 1628.053
671.5899, 1627.737
672.0720, 1624.102
672.5541, 1619.590
673.0363, 1615.703
673.5184, 1612.620
674.0005, 1610.607
674.4826, 1610.599
674.9647, 1611.021
675.4468, 1610.516
675.9290, 1609.130
676.4111, 1606.965
676.8932, 1604.050
677.3753, 1600.672
677.8574, 1597.066
678.3395, 1593.192
678.8217, 1590.188
679.3038, 1589.259
679.7859, 1587.676
680.2680, 1584.654
680.7501, 1581.045
681.2322, 1577.459
681.7144, 1574.066
682.1965, 1570.917
682.6786, 1567.825
683.1607, 1565.199
683.6428, 1564.448
684.1249, 1565.210
684.6071, 1564.152
685.0892, 1559.930
685.5713, 1554.776
686.0534, 1551.213
686.5355, 1549.368
687.0176, 1547.021
687.4998, 1543.845
687.9819, 1540.619
688.4640, 1537.452
688.9461, 1534.381
689.4282, 1531.170
689.9103, 1527.977
690.3925, 1525.595
690.8746, 1524.972
691.3567, 1525.258
691.8388, 1524.488
692.3209, 1522.655
692.8030, 1520.093
693.2852, 1516.574
693.7673, 1512.957
694.2494, 1510.114
694.7315, 1508.014
695.2136, 1506.011
695.6957, 1504.834
696.1779, 1502.837
696.6600, 1498.314
697.1421, 1493.351
697.6242, 1490.679
698.1063, 1490.286
698.5884, 1489.782
699.0706, 1487.281
699.5527, 1483.488
700.0348, 1480.194
700.5169, 1477.300
700.9990, 1475.773
701.4811, 1476.957
701.9633, 1477.920
702.4454, 1475.750
702.9275, 1471.260
703.4096, 1466.965
703.8917, 1462.900
704.3738, 1459.481
704.8560, 1457.193
705.3381, 1455.430
705.8202, 1453.390
706.3023, 1451.053
706.7844, 1448.995
707.2665, 1447.673
707.7487, 1446.684
708.2308, 1444.729
708.7129, 1441.348
709.1950, 1439.341
709.6771, 1440.752
710.1592, 1441.305
710.6414, 1437.064
711.1235, 1430.227
711.6056, 1425.587
712.0877, 1424.753
712.5698, 1424.236
713.0519, 1422.765
713.5341, 1420.473
714.0162, 1417.050
714.4983, 1412.858
714.9804, 1409.217
715.4625, 1406.888
715.9446, 1405.363
716.4268, 1403.520
716.9089, 1401.212
717.3910, 1399.241
717.8731, 1397.912
718.3552, 1396.501
718.8373, 1395.017
719.3195, 1393.108
719.8016, 1390.026
720.2837, 1385.397
720.7658, 1381.096
721.2479, 1377.918
721.7300, 1375.582
722.2122, 1374.175
722.6943, 1373.361
723.1764, 1372.120
723.6585, 1370.008
724.1406, 1367.406
724.6227, 1364.848
725.1049, 1362.283
725.5870, 1360.121
726.0691, 1358.759
726.5512, 1357.162
727.0333, 1354.723
727.5154, 1352.047
727.9976, 1349.776
728.4797, 1347.963
728.9618, 1346.155
729.4439, 1343.872
729.9260, 1341.769
730.4081, 1340.878
730.8903, 1340.596
731.3724, 1339.465
731.8545, 1337.074
732.3366, 1334.019
732.8187, 1330.854
733.3008, 1327.599
733.7830, 1324.401
734.2651, 1321.213
734.7472, 1318.194
735.2293, 1315.040
735.7114, 1312.373
736.1935, 1311.038
736.6757, 1310.702
737.1578, 1309.818
737.6399, 1307.686
738.1220, 1305.174
738.6041, 1302.983
739.0862, 1300.741
739.5684, 1297.496
740.0505, 1293.358
740.5326, 1289.898
741.0147, 1288.369
741.4968, 1288.015
741.9789, 1286.345
742.4611, 1282.700
742.9432, 1280.231
743.4253, 1280.276
743.9074, 1280.231
744.3895, 1278.798
744.8716, 1276.224
745.3538, 1272.622
745.8359, 1267.342
746.3180, 1263.249
746.8001, 1262.659
747.2822, 1263.164
747.7643, 1262.333
748.2465, 1260.316
748.7286, 1258.273
749.2107, 1256.738
749.6928, 1255.402
750.1749, 1253.977
750.6570, 1252.503
751.1392, 1249.680
751.6213, 1244.480
752.1034, 1240.312
752.5855, 1239.745
753.0676, 1240.043
753.5497, 1237.344
754.0319, 1231.484
754.5140, 1227.276
754.9961, 1227.398
755.4782, 1227.885
755.9603, 1226.368
756.4424, 1223.650
756.9246, 1220.905
757.4067, 1218.467
757.8888, 1216.314
758.3709, 1214.446
758.8530, 1212.783
759.3351, 1211.078
759.8173, 1209.347
760.2994, 1207.583
760.7815, 1206.040
761.2636, 1204.026
761.7457, 1200.545
762.2278, 1196.031
762.7100, 1192.574
763.1921, 1191.270
763.6742, 1189.423
764.1563, 1185.724
764.6384, 1181.836
765.1205, 1178.911
765.6027, 1177.004
766.0848, 1176.186
766.5669, 1176.582
767.0490, 1176.537
767.5311, 1172.957
768.0132, 1166.748
768.4954, 1163.344
768.9775, 1163.379
769.4596, 1163.459
769.9417, 1161.948
770.4238, 1159.560
770.9059, 1157.523
771.3881, 1155.967
771.8702, 1154.241
772.3523, 1152.676
772.8344, 1150.541
773.3165, 1146.416
773.7986, 1142.286
774.2808, 1141.083
774.7629, 1142.699
775.2450, 1143.372
775.7271, 1140.000
776.2092, 1134.840
776.6913, 1131.082
777.1735, 1128.469
777.6556, 1125.901
778.1377, 1123.101
778.6198, 1120.832
779.1019, 1119.937
779.5840, 1119.991
780.0662, 1118.777
780.5483, 1115.476
781.0304, 1112.449
781.5125, 1109.383
781.9946, 1107.083
782.4767, 1107.028
782.9589, 1107.744
783.4410, 1106.297
783.9231, 1101.615
784.4052, 1096.562
784.8873, 1092.597
785.3694, 1089.371
785.8516, 1086.792
786.3337, 1084.610
786.8158, 1081.984
787.2979, 1078.592
787.7800, 1075.307
788.2621, 1073.350
788.7443, 1072.685
789.2264, 1071.742
789.7085, 1070.425
790.1906, 1069.127
790.6727, 1068.295
791.1548, 1067.176
791.6370, 1064.658
792.1191, 1061.002
792.6012, 1058.151
793.0833, 1057.078
793.5654, 1055.968
794.0475, 1053.839
794.5297, 1051.549
795.0118, 1050.424
795.4939, 1050.044
795.9760, 1048.486
796.4581, 1044.540
796.9402, 1039.890
797.4224, 1037.172
797.9045, 1036.091
798.3866, 1035.110
798.8687, 1034.286
799.3508, 1031.720
799.8329, 1025.834
800.3151, 1018.571
800.7972, 1013.548
801.2793, 1011.122
801.7614, 1009.536
802.2435, 1010.200
802.7256, 1009.896
803.2078, 1006.670
803.6899, 1002.690
804.1720, 1000.157
804.6541, 999.2636
805.1362, 998.9102
805.6183, 999.1395
806.1005, 998.9356
806.5826, 996.7963
807.0647, 993.5170
807.5468, 991.0416
808.0289, 989.6023
808.5110, 987.8788
808.9932, 984.8558
809.4753, 981.1562
809.9574, 978.5642
810.4395, 977.5118
810.9216, 975.4744
811.4037, 971.6232
811.8859, 967.9688
812.3680, 965.8661
812.8501, 964.4018
813.3322, 962.2070
813.8143, 959.1059
814.2964, 956.1953
814.7786, 953.0804
815.2607, 950.8917
815.7428, 951.4149
816.2249, 952.7475
816.7070, 952.0023
817.1891, 948.8674
817.6713, 945.3474
818.1534, 942.9209
818.6355, 941.1364
819.1176, 939.1142
819.5997, 936.9062
820.0818, 935.0778
820.5640, 933.7976
821.0461, 932.1555
821.5282, 929.3195
822.0103, 925.8564
822.4924, 923.5950
822.9745, 923.5032
823.4567, 922.4070
823.9388, 919.2110
824.4209, 916.2724
824.9030, 915.0027
825.3851, 914.1630
825.8672, 912.0550
826.3494, 908.4531
826.8315, 904.7767
827.3136, 901.2520
827.7957, 898.3474
828.2778, 896.9912
828.7599, 896.3906
829.2421, 894.8775
829.7242, 892.3054
830.2063, 890.1993
830.6884, 889.8907
831.1705, 890.3315
831.6526, 888.4539
832.1348, 884.1378
832.6169, 881.6782
833.0990, 882.2750
833.5811, 882.3478
834.0632, 879.2494
834.5453, 874.6263
835.0275, 872.2270
835.5096, 873.2512
835.9917, 872.9220
836.4738, 870.5948
836.9559, 867.6289
837.4380, 863.5115
837.9202, 859.6342
838.4023, 857.9391
838.8844, 858.3119
839.3665, 858.2739
839.8486, 856.4918
840.3307, 853.7253
840.8129, 850.2997
841.2950, 846.6127
841.7771, 843.4130
842.2592, 840.8285
842.7413, 838.7514
843.2234, 837.1601
843.7056, 835.8890
844.1877, 834.5684
844.6698, 833.1703
845.1519, 832.2602
845.6340, 832.2278
846.1161, 831.6116
846.5983, 829.6762
847.0804, 826.9408
847.5625, 823.8904
848.0446, 820.4560
848.5267, 817.6785
849.0089, 815.8236
849.4910, 814.3375
849.9731, 813.0490
850.4552, 812.0681
850.9373, 812.2374
851.4194, 812.8292
851.9016, 811.4328
852.3837, 806.4252
852.8658, 801.2504
853.3479, 799.4047
853.8300, 799.3389
854.3121, 798.3386
854.7943, 796.4119
855.2764, 794.8813
855.7585, 794.3301
856.2406, 793.8079
856.7227, 791.9501
857.2048, 788.8982
857.6870, 786.3195
858.1691, 784.1531
858.6512, 782.8909
859.1333, 783.3708
859.6154, 783.6418
860.0975, 781.7355
860.5797, 778.0599
861.0618, 774.9846
861.5439, 772.6125
862.0260, 770.6584
862.5081, 769.3827
862.9902, 768.2197
863.4724, 767.0145
863.9545, 765.6277
864.4366, 763.8000
864.9187, 761.4745
865.4008, 759.1455
865.8829, 756.8832
866.3651, 754.9850
866.8472, 754.1226
867.3293, 753.8212
867.8114, 752.7979
868.2935, 750.8640
868.7756, 749.0065
869.2578, 748.0374
869.7399, 747.4628
870.2220, 745.8502
870.7041, 743.1122
871.1862, 741.2745
871.6683, 740.6769
872.1505, 740.3835
872.6326, 740.0978
873.1147, 739.6376
873.5968, 738.6603
874.0789, 737.0732
874.5610, 735.4561
875.0432, 733.8888
875.5253, 732.2040
876.0074, 729.9415
876.4895, 727.8887
876.9716, 726.9416
877.4537, 726.8214
877.9359, 726.3633
878.4180, 725.1775
878.9001, 723.5908
879.3822, 721.4977
879.8643, 719.3304
880.3464, 717.6240
880.8286, 716.2686
881.3107, 714.6868
881.7928, 712.7256
882.2749, 711.2559
882.7570, 711.9402
883.2391, 713.5294
883.7213, 711.1062
884.2034, 705.0272
884.6855, 701.7461
885.1676, 703.0579
885.6497, 705.2341
886.1318, 705.4495
886.6140, 704.1835
887.0961, 703.1019
887.5782, 702.5929
888.0603, 701.1903
888.5424, 697.7119
889.0245, 694.9626
889.5067, 694.8023
889.9888, 695.5023
890.4709, 695.0410
890.9530, 693.3391
891.4351, 691.7242
891.9172, 690.2731
892.3994, 689.1893
892.8815, 688.6511
893.3636, 688.4450
893.8457, 688.6296
894.3278, 688.9429
894.8099, 688.7380
895.2921, 687.7031
895.7742, 686.4300
896.2563, 685.3859
896.7384, 684.5305
897.2205, 683.7883
897.7026, 683.1833
898.1848, 683.0099
898.6669, 683.3162
899.1490, 683.1929
899.6311, 681.5326
900.1132, 679.0234
900.5953, 678.5618
901.0775, 680.3865
901.5596, 681.5554
902.0417, 681.6858
902.5238, 680.9685
903.0059, 679.0997
903.4880, 676.8768
903.9702, 676.0699
904.4523, 677.2700
904.9344, 677.4844
905.4165, 675.6943
905.8986, 674.2296
906.3807, 673.5808
906.8629, 673.4680
907.3450, 673.9373
907.8271, 674.7552
908.3092, 675.1008
908.7913, 674.5980
909.2734, 673.9518
909.7556, 673.0625
910.2377, 672.5264
910.7198, 673.6014
911.2019, 675.2397
911.6840, 675.1443
912.1661, 672.7694
912.6483, 670.0352
913.1304, 668.2647
913.6125, 667.3510
914.0946, 667.6496
914.5767, 668.6536
915.0588, 668.6472
915.5410, 667.3995
916.0231, 665.7490
916.5052, 664.1503
916.9873, 662.8477
917.4694, 662.3474
917.9515, 662.6697
918.4337, 663.2944
918.9158, 664.3410
919.3979, 665.1095
919.8800, 665.3029
920.3621, 665.2540
920.8442, 665.4042
921.3264, 665.6736
921.8085, 665.1940
922.2906, 663.0950
922.7727, 661.6741
923.2548, 661.8873
923.7369, 661.8423
924.2191, 660.0532
924.7012, 657.7213
925.1833, 656.7716
925.6654, 657.4675
926.1475, 658.2701
926.6296, 659.1174
927.1118, 659.4979
927.5939, 658.7579
928.0760, 657.6965
928.5581, 657.1856
929.0402, 657.1926
929.5223, 657.1810
930.0045, 656.8829
930.4866, 656.7169
930.9687, 657.2781
931.4508, 658.0816
931.9329, 658.3033
932.4150, 658.0886
932.8972, 657.9949
933.3793, 658.1779
933.8614, 658.4730
934.3435, 658.7584
934.8256, 659.0123
935.3077, 659.3582
935.7899, 659.7379
936.2720, 659.0850
936.7541, 657.1982
937.2362, 655.2828
937.7183, 653.8007
938.2004, 653.0544
938.6826, 653.7363
939.1647, 655.9083
939.6468, 656.5334
940.1289, 654.7877
940.6110, 653.4814
941.0931, 653.0217
941.5753, 653.3107
942.0574, 655.1691
942.5395, 657.5681
943.0216, 657.5499
943.5037, 653.9883
943.9858, 651.4606
944.4680, 650.1591
944.9501, 650.1575
945.4322, 652.7234
945.9143, 655.7173
946.3964, 657.0413
946.8785, 656.6998
947.3607, 655.7047
947.8428, 653.7625
948.3249, 652.5777
948.8070, 653.3978
949.2891, 655.1073
949.7712, 657.4777
950.2534, 659.6503
950.7355, 659.7469
951.2176, 657.5427
951.6997, 655.4494
952.1818, 655.4424
952.6639, 656.3278
953.1461, 656.4250
953.6282, 656.1638
954.1103, 656.6783
954.5924, 657.9650
955.0745, 659.1803
955.5566, 659.9166
956.0388, 660.2719
956.5209, 660.1811
957.0030, 659.8459
957.4851, 660.5117
957.9672, 662.1746
958.4493, 663.1915
958.9315, 663.1407
959.4136, 662.8525
959.8957, 662.9336
960.3778, 663.2136
960.8599, 663.2198
961.3420, 662.8465
961.8242, 662.7694
962.3063, 663.1801
962.7884, 663.4141
963.2705, 663.2680
963.7526, 662.8209
964.2347, 661.8417
964.7169, 660.5331
965.1990, 660.3904
965.6811, 661.9193
966.1632, 663.8666
966.6453, 667.3730
967.1274, 669.9859
967.6096, 670.2422
968.0917, 669.2928
968.5738, 668.3214
969.0559, 667.4813
969.5380, 667.2574
970.0201, 668.3607
970.5023, 669.3010
970.9844, 669.4474
971.4665, 669.3205
971.9486, 669.2023
972.4307, 669.1894
972.9128, 669.4691
973.3950, 670.0771
973.8771, 670.4725
974.3592, 670.0048
974.8413, 669.5251
975.3234, 669.9652
975.8055, 670.7736
976.2877, 670.9481
976.7698, 670.6393
977.2519, 670.9596
977.7340, 672.4551
978.2161, 673.9445
978.6982, 673.9447
979.1804, 673.1683
979.6625, 672.7861
980.1446, 672.8326
980.6267, 673.3117
981.1088, 674.2252
981.5909, 675.6962
982.0731, 677.8835
982.5552, 680.2408
983.0373, 681.6478
983.5194, 682.2748
984.0015, 683.7354
984.4836, 686.0673
984.9658, 686.7338
985.4479, 684.7653
985.9300, 682.5054
986.4121, 682.1063
986.8942, 683.1422
987.3763, 684.1246
987.8585, 685.0251
988.3406, 686.1144
988.8227, 687.5209
989.3048, 688.6747
989.7869, 689.1555
990.2690, 689.6309
990.7512, 691.0816
991.2333, 693.3488
991.7154, 694.3300
992.1975, 692.9475
992.6796, 692.6025
993.1617, 694.4531
993.6439, 696.0680
994.1260, 695.8024
994.6081, 694.9414
995.0902, 695.4897
995.5723, 697.5134
996.0544, 698.9629
996.5366, 699.3194
997.0187, 699.7465
997.5008, 700.4373
997.9829, 701.2465
998.4650, 701.9719
998.9471, 702.8044
999.4293, 704.1722
999.9114, 706.1672
1000.393, 707.8934
1000.876, 708.8954
1001.358, 709.8351
1001.840, 710.9556
1002.322, 712.1440
1002.804, 713.1137
1003.286, 714.1085
1003.768, 715.8931
1004.250, 718.7388
1004.733, 721.0704
1005.215, 721.6418
1005.697, 721.8116
1006.179, 722.3450
1006.661, 723.2391
1007.143, 724.4538
1007.625, 725.9802
1008.107, 727.9093
1008.589, 730.2991
1009.072, 732.7299
1009.554, 735.0176
1010.036, 736.9923
1010.518, 738.2970
1011.000, 739.1842
1011.482, 739.9235
1011.964, 740.7516
1012.446, 742.4434
1012.929, 745.5292
1013.411, 748.7344
1013.893, 750.3373
1014.375, 751.0646
1014.857, 752.1324
1015.339, 753.6718
1015.821, 756.3873
1016.303, 760.1844
1016.785, 763.0573
1017.268, 763.5061
1017.750, 763.1654
1018.232, 764.8712
1018.714, 768.1132
1019.196, 770.9221
1019.678, 773.2216
1020.160, 774.9958
1020.642, 776.2529
1021.125, 777.3111
1021.607, 778.3468
1022.089, 779.6794
1022.571, 782.3367
1023.053, 786.2247
1023.535, 788.9637
1024.017, 790.4091
1024.499, 792.3877
1024.981, 795.5559
1025.464, 798.8776
1025.946, 801.4421
1026.428, 803.3673
1026.910, 804.7999
1027.392, 805.5752
1027.874, 807.6595
1028.356, 811.4772
1028.838, 814.7813
1029.321, 816.6223
1029.803, 818.1878
1030.285, 820.6456
1030.767, 823.8333
1031.249, 827.1723
1031.731, 831.0701
1032.213, 833.4133
1032.695, 833.4149
1033.177, 833.7040
1033.660, 835.0813
1034.142, 837.3898
1034.624, 840.6239
1035.106, 844.6557
1035.588, 848.5937
1036.070, 852.7444
1036.552, 856.0131
1037.034, 857.7335
1037.516, 859.7361
1037.999, 863.3179
1038.481, 866.7943
1038.963, 867.8218
1039.445, 866.9080
1039.927, 868.0076
1040.409, 872.5784
1040.891, 876.5997
1041.373, 879.6067
1041.855, 882.6194
1042.338, 886.3751
1042.820, 890.0221
1043.302, 892.2335
1043.784, 893.3325
1044.266, 895.8956
1044.748, 901.6555
1045.230, 906.0765
1045.712, 908.2673
1046.195, 909.8635
1046.677, 911.1186
1047.159, 912.3948
1047.641, 913.7169
1048.123, 915.2836
1048.605, 918.3303
1049.087, 924.2531
1049.569, 929.3752
1050.052, 932.5983
1050.534, 935.5637
1051.016, 938.6837
1051.498, 942.1584
1051.980, 946.3735
1052.462, 951.1725
1052.944, 955.7142
1053.426, 960.2275
1053.908, 963.7341
1054.391, 964.9538
1054.873, 966.3157
1055.355, 968.9849
1055.837, 972.5089
1056.319, 976.8127
1056.801, 981.5203
1057.283, 985.0743
1057.765, 986.1055
1058.248, 988.3328
1058.730, 994.2725
1059.212, 1000.089
1059.694, 1003.109
1060.176, 1005.226
1060.658, 1008.816
1061.140, 1013.742
1061.622, 1018.293
1062.104, 1021.742
1062.587, 1025.508
1063.069, 1030.530
1063.551, 1035.494
1064.033, 1039.398
1064.515, 1042.990
1064.997, 1047.315
1065.479, 1052.186
1065.961, 1056.508
1066.443, 1059.710
1066.926, 1063.226
1067.408, 1067.917
1067.890, 1072.759
1068.372, 1077.480
1068.854, 1081.787
1069.336, 1084.936
1069.818, 1087.415
1070.300, 1090.915
1070.782, 1096.126
1071.265, 1101.440
1071.747, 1106.211
1072.229, 1110.837
1072.711, 1115.527
1073.193, 1120.234
1073.675, 1125.100
1074.157, 1129.843
1074.639, 1133.412
1075.122, 1135.191
1075.604, 1138.437
1076.086, 1146.213
1076.568, 1154.026
1077.050, 1159.388
1077.532, 1163.354
1078.014, 1166.269
1078.496, 1168.949
1078.979, 1173.138
1079.461, 1179.374
1079.943, 1185.282
1080.425, 1189.016
1080.907, 1193.010
1081.389, 1198.715
1081.871, 1205.181
1082.353, 1212.054
1082.835, 1218.761
1083.318, 1224.048
1083.800, 1227.658
1084.282, 1231.763
1084.764, 1237.991
1085.246, 1244.066
1085.728, 1247.961
1086.210, 1252.050
1086.692, 1259.342
1087.175, 1267.975
1087.657, 1273.917
1088.139, 1276.685
1088.621, 1280.505
1089.103, 1288.157
1089.585, 1295.639
1090.067, 1301.440
1090.549, 1306.202
1091.031, 1309.066
1091.514, 1311.899
1091.996, 1317.978
1092.478, 1327.225
1092.960, 1335.401
1093.442, 1340.405
1093.924, 1345.402
1094.406, 1352.193
1094.888, 1358.757
1095.370, 1363.765
1095.853, 1367.795
1096.335, 1370.953
1096.817, 1373.817
1097.299, 1378.744
1097.781, 1387.733
1098.263, 1395.302
1098.745, 1397.598
1099.227, 1400.571
1099.709, 1408.371
1100.192, 1417.678
1100.674, 1425.087
1101.156, 1430.704
1101.638, 1435.985
1102.120, 1441.278
1102.602, 1445.936
1103.084, 1448.434
1103.566, 1452.008
1104.049, 1458.843
1104.531, 1466.453
1105.013, 1472.884
1105.495, 1478.361
1105.977, 1483.563
1106.459, 1488.399
1106.941, 1494.249
1107.423, 1502.189
1107.906, 1510.003
1108.388, 1517.541
1108.870, 1524.307
1109.352, 1529.542
1109.834, 1533.966
1110.316, 1538.769
1110.798, 1544.094
1111.280, 1549.222
1111.762, 1553.578
1112.245, 1558.588
1112.727, 1565.017
1113.209, 1571.507
1113.691, 1577.640
1114.173, 1583.290
1114.655, 1587.802
1115.137, 1591.354
1115.619, 1596.727
1116.102, 1605.435
1116.584, 1613.231
1117.066, 1619.568
1117.548, 1625.696
1118.030, 1632.449
1118.512, 1638.710
1118.994, 1642.829
1119.476, 1645.681
1119.958, 1650.911
1120.441, 1659.334
1120.923, 1667.646
1121.405, 1676.331
1121.887, 1683.662
1122.369, 1688.354
1122.851, 1693.122
1123.333, 1700.225
1123.815, 1708.532
1124.297, 1715.431
1124.780, 1720.708
1125.262, 1727.396
1125.744, 1736.320
1126.226, 1743.223
1126.708, 1746.678
1127.190, 1750.416
1127.672, 1756.582
1128.154, 1763.867
1128.636, 1770.318
1129.119, 1776.124
1129.601, 1782.978
1130.083, 1791.073
1130.565, 1798.025
1131.047, 1803.300
1131.529, 1810.230
1132.011, 1820.379
1132.493, 1830.720
1132.976, 1838.169
1133.458, 1843.505
1133.940, 1848.699
1134.422, 1853.824
1134.904, 1860.105
1135.386, 1867.471
1135.868, 1873.005
1136.350, 1875.984
1136.833, 1879.841
1137.315, 1887.085
1137.797, 1896.275
1138.279, 1905.424
1138.761, 1914.397
1139.243, 1922.694
1139.725, 1930.326
1140.207, 1937.243
1140.689, 1943.513
1141.172, 1949.185
1141.654, 1954.325
1142.136, 1960.188
1142.618, 1968.651
1143.100, 1978.017
1143.582, 1985.389
1144.064, 1991.464
1144.546, 1997.624
1145.029, 2003.914
1145.511, 2009.649
1145.993, 2014.814
1146.475, 2020.770
1146.957, 2028.693
1147.439, 2037.118
1147.921, 2044.228
1148.403, 2051.344
1148.885, 2060.727
1149.368, 2070.886
1149.850, 2079.262
1150.332, 2085.515
1150.814, 2090.243
1151.296, 2093.164
1151.778, 2097.571
1152.260, 2106.598
1152.742, 2116.403
1153.224, 2125.249
1153.707, 2132.906
1154.189, 2138.503
1154.671, 2143.063
1155.153, 2148.785
1155.635, 2156.146
1156.117, 2163.774
1156.599, 2172.032
1157.081, 2179.377
1157.563, 2183.601
1158.046, 2188.654
1158.528, 2198.278
1159.010, 2209.332
1159.492, 2217.500
1159.974, 2222.870
1160.456, 2228.752
1160.938, 2236.249
1161.420, 2242.555
1161.903, 2245.241
1162.385, 2250.046
1162.867, 2260.659
1163.349, 2271.398
1163.831, 2277.132
1164.313, 2280.190
1164.795, 2286.343
1165.277, 2296.102
1165.760, 2304.733
1166.242, 2311.714
1166.724, 2319.456
1167.206, 2328.866
1167.688, 2337.048
1168.170, 2342.038
1168.652, 2346.367
1169.134, 2353.307
1169.616, 2362.319
1170.099, 2371.013
1170.581, 2379.416
1171.063, 2386.540
1171.545, 2392.337
1172.027, 2398.349
1172.509, 2405.084
1172.991, 2413.039
1173.473, 2422.978
1173.956, 2432.177
1174.438, 2433.742
1174.920, 2431.292
1175.402, 2438.183
1175.884, 2451.524
1176.366, 2460.380
1176.848, 2463.862
1177.330, 2466.973
1177.813, 2471.921
1178.295, 2477.729
1178.777, 2482.917
1179.259, 2489.548
1179.741, 2502.920
1180.223, 2517.414
1180.705, 2523.946
1181.187, 2525.255
1181.669, 2528.417
1182.151, 2534.258
1182.634, 2537.851
1183.116, 2535.516
1183.598, 2536.094
1184.080, 2547.826
1184.562, 2560.631
1185.044, 2567.306
1185.526, 2571.964
1186.008, 2579.710
1186.490, 2589.062
1186.973, 2595.101
1187.455, 2596.724
1187.937, 2600.288
1188.419, 2609.412
1188.901, 2617.051
1189.383, 2619.184
1189.865, 2622.683
1190.347, 2633.967
1190.830, 2645.969
1191.312, 2649.795
1191.794, 2647.620
1192.276, 2650.477
1192.758, 2660.356
1193.240, 2668.543
1193.722, 2674.630
1194.204, 2680.217
1194.687, 2685.743
1195.169, 2690.521
1195.651, 2693.940
1196.133, 2696.897
1196.615, 2700.690
1197.097, 2705.374
1197.579, 2711.539
1198.061, 2719.146
1198.543, 2727.155
1199.026, 2735.324
1199.508, 2740.597
1199.990, 2742.161
1200.472, 2746.128
1200.954, 2757.979
1201.436, 2771.472
1201.918, 2776.093
1202.400, 2776.212
1202.883, 2780.724
1203.365, 2787.920
1203.847, 2792.843
1204.329, 2795.747
1204.811, 2801.228
1205.293, 2810.762
1205.775, 2817.983
1206.257, 2815.622
1206.740, 2813.473
1207.222, 2819.472
1207.704, 2828.081
1208.186, 2835.304
1208.668, 2841.138
1209.150, 2845.524
1209.632, 2849.073
1210.114, 2854.370
1210.596, 2862.998
1211.078, 2869.954
1211.561, 2871.504
1212.043, 2875.116
1212.525, 2885.866
1213.007, 2896.278
1213.489, 2900.924
1213.971, 2902.752
1214.453, 2906.204
1214.935, 2911.154
1215.417, 2915.600
1215.900, 2919.232
1216.382, 2923.451
1216.864, 2928.378
1217.346, 2933.687
1217.828, 2939.468
1218.310, 2944.559
1218.792, 2948.039
1219.274, 2950.681
1219.757, 2953.932
1220.239, 2957.658
1220.721, 2960.727
1221.203, 2963.629
1221.685, 2969.097
1222.167, 2976.993
1222.649, 2984.869
1223.131, 2991.785
1223.614, 2997.431
1224.096, 3001.207
1224.578, 3004.757
1225.060, 3009.083
1225.542, 3014.907
1226.024, 3025.092
1226.506, 3036.119
1226.988, 3042.464
1227.470, 3044.517
1227.953, 3044.744
1228.435, 3043.625
1228.917, 3045.949
1229.399, 3057.126
1229.881, 3066.825
1230.363, 3070.465
1230.845, 3073.102
1231.327, 3077.981
1231.810, 3083.278
1232.292, 3085.760
1232.774, 3086.688
1233.256, 3091.395
1233.738, 3101.124
1234.220, 3109.315
1234.702, 3115.751
1235.184, 3121.079
1235.667, 3125.083
1236.149, 3129.374
1236.631, 3134.940
1237.113, 3140.334
1237.595, 3143.617
1238.077, 3145.806
1238.559, 3150.469
1239.041, 3156.877
1239.523, 3161.138
1240.005, 3163.465
1240.488, 3165.146
1240.970, 3166.820
1241.452, 3170.117
1241.934, 3175.883
1242.416, 3182.301
1242.898, 3187.791
1243.380, 3193.017
1243.862, 3198.616
1244.344, 3204.349
1244.827, 3209.185
1245.309, 3214.392
1245.791, 3223.206
1246.273, 3234.797
1246.755, 3243.407
1247.237, 3246.972
1247.719, 3249.625
1248.201, 3250.693
1248.684, 3253.257
1249.166, 3259.877
1249.648, 3266.255
1250.130, 3268.352
1250.612, 3270.624
1251.094, 3280.435
1251.576, 3295.764
1252.058, 3302.362
1252.541, 3298.347
1253.023, 3299.619
1253.505, 3306.979
1253.987, 3315.437
1254.469, 3323.860
1254.951, 3332.313
1255.433, 3340.848
1255.915, 3349.178
1256.397, 3357.374
1256.880, 3364.567
1257.362, 3367.464
1257.844, 3368.933
1258.326, 3375.397
1258.808, 3385.131
1259.290, 3392.586
1259.772, 3397.595
1260.254, 3405.309
1260.737, 3418.332
1261.219, 3429.770
1261.701, 3434.835
1262.183, 3438.984
1262.665, 3443.144
1263.147, 3449.207
1263.629, 3459.519
1264.111, 3471.891
1264.594, 3484.216
1265.076, 3495.882
1265.558, 3504.070
1266.040, 3507.552
1266.522, 3511.768
1267.004, 3516.385
1267.486, 3523.085
1267.968, 3532.566
1268.450, 3542.558
1268.932, 3552.067
1269.415, 3560.481
1269.897, 3566.966
1270.379, 3572.411
1270.861, 3578.592
1271.343, 3585.702
1271.825, 3594.424
1272.307, 3604.586
1272.789, 3615.976
1273.271, 3628.126
1273.754, 3640.079
1274.236, 3651.444
1274.718, 3659.913
1275.200, 3660.450
1275.682, 3663.079
1276.164, 3675.201
1276.646, 3689.896
1277.128, 3703.806
1277.611, 3716.262
1278.093, 3726.314
1278.575, 3734.599
1279.057, 3742.596
1279.539, 3750.291
1280.021, 3759.879
1280.503, 3770.652
1280.985, 3783.393
1281.468, 3799.870
1281.950, 3816.641
1282.432, 3832.748
1282.914, 3845.902
1283.396, 3853.758
1283.878, 3860.142
1284.360, 3872.973
1284.842, 3888.008
1285.324, 3893.861
##END=



