##NAMES=Allabogdanite
##RRUFFID=R070012
##IDEAL CHEMISTRY=(Fe,Ni)_2_P
##LOCALITY=Onello meteorite, Bol'shoy Dolguchan River, Onello River Basin, Aldan, Yakutia, Russia
##OWNER=Michael Scott
##SOURCE=Michael Scott
##DESCRIPTION=Black lath embedded in epoxy, co-type sample
##STATUS=The identification of this mineral has been confirmed only by single crystal X-ray diffraction.
##URL=rruff.info/R070012
148.4504, 0.0000000E+00
148.9326, 1.208008
149.4147, 20.94385
149.8968, 42.58301
150.3789, 71.80664
150.8610, 101.3252
151.3431, 91.65967
151.8252, 54.51465
152.3074, 10.76709
152.7895, 4.487305
153.2716, 24.96436
153.7537, 49.63379
154.2358, 65.72021
154.7179, 71.45459
155.2001, 76.18408
155.6822, 83.17725
156.1643, 90.34082
156.6464, 91.46729
157.1285, 83.07764
157.6106, 71.52783
158.0928, 53.06543
158.5749, 32.73730
159.0570, 15.49365
159.5391, 3.774902
160.0212, 1.574219
160.5033, 11.95459
160.9855, 74.34082
161.4676, 122.6807
161.9497, 128.7134
162.4318, 102.5674
162.9139, 73.80908
163.3960, 65.83936
163.8782, 79.90234
164.3603, 87.75391
164.8424, 87.82715
165.3245, 83.69189
165.8066, 74.99219
166.2887, 62.24805
166.7709, 52.16504
167.2530, 52.65527
167.7351, 63.45898
168.2172, 71.54639
168.6993, 75.65771
169.1814, 75.62646
169.6636, 74.23828
170.1457, 72.02686
170.6278, 80.86328
171.1099, 97.67725
171.5920, 126.9668
172.0741, 145.2173
172.5563, 137.9771
173.0384, 112.1772
173.5205, 88.52051
174.0026, 71.77783
174.4847, 59.61230
174.9668, 47.90820
175.4490, 36.85693
175.9311, 29.78320
176.4132, 29.95557
176.8953, 36.85498
177.3774, 44.96729
177.8595, 57.59033
178.3417, 67.90625
178.8238, 69.95117
179.3059, 63.40576
179.7880, 55.15088
180.2701, 49.90332
180.7522, 41.88330
181.2344, 47.59570
181.7165, 92.17139
182.1986, 137.2534
182.6807, 155.3848
183.1628, 140.1235
183.6449, 107.1348
184.1271, 81.28174
184.6092, 63.97021
185.0913, 51.60889
185.5734, 43.14014
186.0555, 39.75586
186.5376, 43.44580
187.0198, 57.37842
187.5019, 74.33594
187.9840, 74.59570
188.4661, 27.71436
188.9482, 2.939453
189.4303, 26.38525
189.9125, 68.11279
190.3946, 91.27490
190.8767, 76.84131
191.3588, 33.49707
191.8409, 3.722656
192.3230, 16.49316
192.8052, 18.71729
193.2873, 17.95605
193.7694, 72.86328
194.2515, 109.6934
194.7336, 106.4517
195.2157, 71.75635
195.6979, 45.61523
196.1800, 23.42041
196.6621, 9.633301
197.1442, 7.068848
197.6263, 13.62402
198.1084, 24.01855
198.5906, 36.09668
199.0727, 48.86182
199.5548, 56.38232
200.0369, 52.26855
200.5190, 48.83105
201.0011, 57.77832
201.4833, 77.48242
201.9654, 90.87158
202.4475, 82.10449
202.9296, 53.52344
203.4117, 34.46631
203.8938, 30.34131
204.3760, 33.21924
204.8581, 38.19287
205.3402, 45.21143
205.8223, 50.24316
206.3044, 49.53516
206.7865, 43.88525
207.2687, 38.60449
207.7508, 33.33008
208.2329, 29.49951
208.7150, 30.64990
209.1971, 38.79639
209.6792, 45.15186
210.1614, 39.22266
210.6435, 25.21826
211.1256, 14.75195
211.6077, 6.152832
212.0898, 3.609863
212.5719, 22.43262
213.0541, 78.71680
213.5362, 124.2627
214.0183, 117.6973
214.5004, 75.08203
214.9825, 34.70850
215.4646, 16.21484
215.9468, 16.37549
216.4289, 24.13623
216.9110, 48.21338
217.3931, 66.65381
217.8752, 63.68896
218.3573, 45.60986
218.8395, 29.24023
219.3216, 25.56055
219.8037, 33.95020
220.2858, 48.21875
220.7679, 85.56104
221.2500, 109.1167
221.7322, 92.66602
222.2143, 46.68066
222.6964, 4.280273
223.1785, 3.508789
223.6606, 25.28467
224.1427, 44.42090
224.6249, 39.30957
225.1070, 34.64941
225.5891, 45.89551
226.0712, 69.19482
226.5533, 89.09668
227.0354, 88.87158
227.5176, 64.65088
227.9997, 47.13623
228.4818, 42.80176
228.9639, 39.87988
229.4460, 33.01367
229.9281, 22.80762
230.4103, 13.65771
230.8924, 10.67236
231.3745, 15.61182
231.8566, 18.74072
232.3387, 12.02734
232.8208, 10.28076
233.3030, 26.29346
233.7851, 56.93066
234.2672, 85.98584
234.7493, 94.62158
235.2314, 75.91943
235.7135, 61.37305
236.1957, 48.66406
236.6778, 41.05273
237.1599, 44.18848
237.6420, 56.27148
238.1241, 68.71680
238.6062, 72.03369
239.0884, 61.75635
239.5705, 48.89258
240.0526, 33.23242
240.5347, 17.14209
241.0168, 1.759766
241.4989, 21.84814
241.9811, 35.36914
242.4632, 32.51562
242.9453, 6.462891
243.4274, 16.20020
243.9095, 39.18311
244.3916, 56.64551
244.8738, 61.88428
245.3559, 55.45898
245.8380, 46.81787
246.3201, 47.85400
246.8022, 65.05957
247.2843, 69.19385
247.7665, 46.05518
248.2486, 20.52588
248.7307, 12.63623
249.2128, 23.80615
249.6949, 38.77783
250.1770, 38.84717
250.6592, 17.63330
251.1413, 11.22119
251.6234, 30.94824
252.1055, 54.39648
252.5876, 62.91943
253.0697, 54.87793
253.5519, 44.13916
254.0340, 46.38623
254.5161, 66.36035
254.9982, 81.01562
255.4803, 89.27734
255.9624, 93.49219
256.4445, 96.07471
256.9267, 97.07227
257.4088, 93.14209
257.8909, 78.89600
258.3730, 50.51758
258.8551, 33.51953
259.3372, 35.36914
259.8194, 43.81104
260.3015, 50.80811
260.7836, 55.03076
261.2657, 55.62598
261.7478, 49.64014
262.2299, 35.43555
262.7121, 33.02539
263.1942, 55.95898
263.6763, 82.08350
264.1584, 93.52246
264.6405, 88.63135
265.1227, 75.84180
265.6048, 61.01709
266.0869, 43.97607
266.5690, 30.54492
267.0511, 15.97607
267.5332, 8.228027
268.0154, 21.48633
268.4975, 55.01123
268.9796, 81.27002
269.4617, 72.49121
269.9438, 29.11621
270.4259, 5.583984
270.9081, 14.19531
271.3902, 34.63281
271.8723, 55.91016
272.3544, 76.68750
272.8365, 89.90771
273.3186, 88.70020
273.8008, 73.49316
274.2829, 58.70801
274.7650, 39.10254
275.2471, 23.89648
275.7292, 25.17822
276.2113, 41.48682
276.6935, 52.38672
277.1756, 39.70068
277.6577, 8.674316
278.1398, 4.406250
278.6219, 18.13574
279.1040, 44.34082
279.5862, 52.48438
280.0683, 43.75049
280.5504, 28.16162
281.0325, 7.604004
281.5146, 12.08594
281.9967, 17.26123
282.4789, 2.839844
282.9610, 27.09521
283.4431, 42.93262
283.9252, 51.42383
284.4073, 59.23438
284.8894, 71.79492
285.3716, 84.76416
285.8537, 86.37061
286.3358, 70.74707
286.8179, 51.74854
287.3000, 32.39600
287.7821, 14.60547
288.2643, 8.677734
288.7464, 24.99072
289.2285, 51.67578
289.7106, 57.65381
290.1927, 31.07275
290.6748, 7.450195
291.1570, 5.937988
291.6391, 21.20508
292.1212, 36.66455
292.6033, 46.71484
293.0854, 52.43506
293.5675, 57.53369
294.0497, 66.24170
294.5318, 64.81689
295.0139, 36.12842
295.4960, 6.631836
295.9781, 32.11914
296.4602, 28.03516
296.9424, 7.248047
297.4245, 10.52295
297.9066, 26.74658
298.3887, 36.50732
298.8708, 33.89453
299.3529, 23.36914
299.8351, 13.56787
300.3172, 7.525879
300.7993, 5.489258
301.2814, 5.494141
301.7635, 6.436523
302.2456, 8.369629
302.7278, 10.69189
303.2099, 14.22900
303.6920, 21.73291
304.1741, 34.31982
304.6562, 45.51025
305.1383, 46.54639
305.6205, 36.80420
306.1026, 29.13379
306.5847, 25.68945
307.0668, 24.90723
307.5489, 24.74512
308.0310, 24.97070
308.5132, 26.66992
308.9953, 30.93896
309.4774, 38.14014
309.9595, 46.25293
310.4416, 63.19971
310.9237, 75.43018
311.4059, 66.16211
311.8880, 37.06250
312.3701, 12.01953
312.8522, 10.79053
313.3343, 32.30957
313.8164, 45.22510
314.2986, 37.97607
314.7807, 32.66406
315.2628, 48.07471
315.7449, 78.85938
316.2270, 100.4292
316.7091, 94.35010
317.1913, 67.31885
317.6734, 59.19287
318.1555, 90.48926
318.6376, 115.6846
319.1197, 114.4468
319.6018, 94.03369
320.0840, 69.29492
320.5661, 45.41699
321.0482, 25.90625
321.5303, 24.95410
322.0124, 65.42090
322.4945, 90.67627
322.9767, 76.88037
323.4588, 43.52881
323.9409, 19.71680
324.4230, 16.58643
324.9051, 25.45703
325.3872, 28.83154
325.8694, 19.34863
326.3515, 17.56543
326.8336, 31.43555
327.3157, 50.60303
327.7978, 65.94727
328.2799, 74.80811
328.7621, 77.33154
329.2442, 72.52881
329.7263, 53.98193
330.2084, 44.89941
330.6905, 55.11963
331.1726, 67.32324
331.6548, 65.58447
332.1369, 50.11572
332.6190, 36.90771
333.1011, 44.79346
333.5832, 81.58057
334.0653, 93.75977
334.5475, 60.90527
335.0296, 27.09277
335.5117, 14.15088
335.9938, 19.22314
336.4759, 29.34082
336.9580, 34.06152
337.4402, 33.44531
337.9223, 30.78369
338.4044, 20.82373
338.8865, 14.57227
339.3686, 15.78809
339.8507, 22.21387
340.3329, 31.40527
340.8150, 40.80322
341.2971, 48.75781
341.7792, 48.02295
342.2613, 27.35596
342.7434, 11.86475
343.2256, 0.3242190
343.7077, 3.187988
344.1898, 10.53125
344.6719, 44.66748
345.1540, 84.58594
345.6361, 100.1567
346.1183, 79.95605
346.6004, 55.74658
347.0825, 15.82471
347.5646, 17.15332
348.0467, 21.26562
348.5288, 5.415527
349.0110, 40.54102
349.4931, 53.77344
349.9752, 37.14160
350.4573, 30.30908
350.9394, 48.28906
351.4215, 64.41895
351.9037, 60.40088
352.3858, 40.88965
352.8679, 27.40430
353.3500, 44.23438
353.8321, 88.90088
354.3142, 110.7808
354.7964, 91.10156
355.2785, 71.23633
355.7606, 68.68457
356.2427, 77.83838
356.7248, 87.00830
357.2069, 90.35010
357.6891, 88.72412
358.1712, 81.97119
358.6533, 62.97412
359.1354, 55.32861
359.6175, 83.85498
360.0996, 122.4854
360.5818, 139.1968
361.0639, 119.1406
361.5460, 85.59912
362.0281, 71.49121
362.5102, 79.44531
362.9923, 82.07715
363.4745, 62.77344
363.9566, 39.37891
364.4387, 29.43604
364.9208, 35.51221
365.4029, 48.70850
365.8850, 70.23242
366.3672, 96.01807
366.8493, 98.96631
367.3314, 58.76270
367.8135, 15.83203
368.2956, 17.99170
368.7777, 61.41992
369.2599, 98.25781
369.7420, 104.2319
370.2241, 92.45850
370.7062, 83.75537
371.1883, 80.28369
371.6704, 80.73291
372.1526, 88.89990
372.6347, 101.7510
373.1168, 101.6592
373.5989, 68.49072
374.0810, 34.80469
374.5631, 33.03418
375.0453, 59.87207
375.5274, 83.22168
376.0095, 84.22559
376.4916, 66.57422
376.9737, 48.65674
377.4558, 18.85205
377.9380, 1.607422
378.4201, 14.18359
378.9022, 44.67090
379.3843, 71.97607
379.8664, 88.47852
380.3485, 94.22559
380.8307, 87.50439
381.3128, 53.49268
381.7949, 34.71826
382.2770, 50.31982
382.7591, 73.25977
383.2412, 72.91895
383.7234, 45.63574
384.2055, 16.47852
384.6876, 16.60010
385.1697, 56.81299
385.6518, 80.02148
386.1339, 72.76904
386.6161, 64.11523
387.0982, 72.35547
387.5803, 92.25146
388.0624, 105.0288
388.5445, 95.32715
389.0266, 66.32568
389.5088, 53.08203
389.9909, 76.55908
390.4730, 92.44336
390.9551, 87.73096
391.4372, 73.08350
391.9193, 62.32031
392.4015, 61.48730
392.8836, 65.91943
393.3657, 65.55420
393.8478, 56.96826
394.3299, 52.05566
394.8120, 54.93750
395.2942, 59.98389
395.7763, 64.57520
396.2584, 67.90186
396.7405, 68.75195
397.2226, 65.60596
397.7047, 58.47314
398.1869, 49.33496
398.6690, 34.51953
399.1511, 22.45996
399.6332, 17.31348
400.1153, 18.44385
400.5974, 23.86572
401.0796, 35.79980
401.5617, 50.44824
402.0438, 59.63184
402.5259, 62.17285
403.0080, 61.36523
403.4901, 58.28369
403.9723, 53.07715
404.4544, 45.55615
404.9365, 34.73975
405.4186, 23.39844
405.9007, 10.53223
406.3828, 1.378906
406.8650, 3.694336
407.3471, 10.93018
407.8292, 31.25098
408.3113, 37.03271
408.7934, 25.00781
409.2755, 17.45020
409.7577, 26.71240
410.2398, 42.26025
410.7219, 47.50293
411.2040, 39.45459
411.6861, 31.87842
412.1682, 40.63477
412.6504, 68.89502
413.1325, 83.02441
413.6146, 74.58154
414.0967, 60.47607
414.5788, 43.60352
415.0609, 28.24561
415.5431, 27.67920
416.0252, 53.48535
416.5073, 95.78516
416.9894, 107.8877
417.4715, 50.82568
417.9536, 9.996582
418.4358, 1.619141
418.9179, 9.804688
419.4000, 19.11865
419.8821, 24.32275
420.3642, 26.99414
420.8463, 30.37500
421.3285, 37.80127
421.8106, 36.44824
422.2927, 8.805664
422.7748, 11.83105
423.2569, 2.721680
423.7390, 30.00049
424.2212, 61.60010
424.7033, 72.54980
425.1854, 66.21484
425.6675, 62.82080
426.1496, 59.27637
426.6317, 62.04834
427.1139, 81.95068
427.5960, 106.6753
428.0781, 117.8433
428.5602, 106.7495
429.0423, 86.92871
429.5244, 74.19971
430.0066, 68.67285
430.4887, 65.20020
430.9708, 61.88477
431.4529, 60.80713
431.9350, 65.35645
432.4171, 75.99170
432.8993, 83.87109
433.3814, 83.65137
433.8635, 78.17383
434.3456, 71.22070
434.8277, 62.91943
435.3098, 57.58447
435.7920, 62.18945
436.2741, 75.16064
436.7562, 77.23779
437.2383, 54.60010
437.7204, 33.02783
438.2025, 29.03760
438.6847, 38.73975
439.1668, 49.72168
439.6489, 55.88428
440.1310, 59.50928
440.6131, 66.93799
441.0952, 92.55713
441.5774, 101.4053
442.0595, 78.03906
442.5416, 45.35254
443.0237, 20.37158
443.5058, 7.831055
443.9879, 9.053711
444.4701, 29.13184
444.9522, 73.38672
445.4343, 99.18066
445.9164, 86.60742
446.3985, 71.58350
446.8806, 71.54443
447.3628, 78.80322
447.8449, 76.14600
448.3270, 52.00244
448.8091, 17.81104
449.2912, 2.916992
449.7733, 13.57080
450.2555, 26.17578
450.7376, 38.64429
451.2197, 48.24121
451.7018, 51.91235
452.1839, 49.45679
452.6660, 44.90503
453.1482, 40.62134
453.6303, 37.09473
454.1124, 36.57153
454.5945, 40.41968
455.0766, 44.87793
455.5587, 45.29126
456.0409, 43.42480
456.5230, 45.08398
457.0051, 61.68604
457.4872, 74.68311
457.9693, 61.41528
458.4514, 26.78027
458.9336, 1.431152
459.4156, 9.995117
459.8978, 3.230225
460.3799, 8.321777
460.8620, 32.91382
461.3441, 44.29272
461.8262, 23.35986
462.3083, 5.445557
462.7905, 13.30273
463.2726, 2.999268
463.7547, 24.97925
464.2368, 36.41699
464.7189, 35.48169
465.2010, 41.43042
465.6832, 68.83838
466.1653, 87.00024
466.6474, 79.84644
467.1295, 57.96167
467.6116, 38.46191
468.0938, 29.14893
468.5759, 27.72583
469.0580, 34.20776
469.5401, 55.82300
470.0222, 66.21997
470.5043, 48.42480
470.9865, 24.91797
471.4686, 6.307617
471.9507, 4.889893
472.4328, 4.337402
472.9149, 22.49194
473.3970, 64.97778
473.8792, 81.60498
474.3613, 63.66895
474.8434, 40.78857
475.3255, 29.42505
475.8076, 26.86987
476.2897, 28.74414
476.7719, 37.92676
477.2540, 47.17529
477.7361, 52.78857
478.2182, 54.21997
478.7003, 49.05151
479.1824, 35.20288
479.6646, 19.56201
480.1467, 13.80957
480.6288, 22.45142
481.1109, 26.21460
481.5930, 22.44385
482.0751, 14.52905
482.5573, 0.3830570
483.0394, 18.56128
483.5215, 27.68701
484.0036, 17.95483
484.4857, 7.611084
484.9678, 29.30078
485.4500, 53.21436
485.9321, 63.82104
486.4142, 46.26196
486.8963, 21.92480
487.3784, 13.06616
487.8605, 24.62939
488.3427, 41.69556
488.8248, 44.97729
489.3069, 34.04199
489.7890, 35.18408
490.2711, 63.21289
490.7532, 82.89795
491.2354, 66.40430
491.7175, 28.51196
492.1996, 3.208252
492.6817, 6.694580
493.1638, 23.71094
493.6459, 41.62109
494.1281, 59.60742
494.6102, 65.51709
495.0923, 50.48560
495.5744, 26.65210
496.0565, 14.04932
496.5386, 12.22632
497.0208, 18.48853
497.5029, 44.22876
497.9850, 70.44775
498.4671, 73.90332
498.9492, 55.10254
499.4313, 34.86841
499.9135, 29.88086
500.3956, 38.91382
500.8777, 45.57983
501.3598, 57.45288
501.8419, 57.71802
502.3240, 26.01392
502.8062, 10.54541
503.2883, 17.05103
503.7704, 15.15894
504.2525, 57.90771
504.7346, 73.98901
505.2167, 59.58374
505.6989, 46.11719
506.1810, 29.70557
506.6631, 21.22363
507.1452, 34.29272
507.6273, 58.48535
508.1094, 69.62720
508.5916, 49.55859
509.0737, 19.13574
509.5558, 6.539307
510.0379, 11.35840
510.5200, 20.36670
511.0021, 31.79761
511.4843, 42.16626
511.9664, 42.66797
512.4485, 30.11377
512.9306, 30.31567
513.4127, 70.15039
513.8948, 112.7146
514.3770, 115.8987
514.8591, 81.39941
515.3412, 43.70190
515.8233, 26.75830
516.3054, 27.31274
516.7875, 24.99146
517.2697, 5.853027
517.7518, 1.459961
518.2339, 35.61523
518.7160, 73.71484
519.1981, 75.61377
519.6802, 36.90625
520.1624, 6.995605
520.6445, 13.86011
521.1266, 18.38599
521.6087, 37.30420
522.0908, 33.21948
522.5729, 29.78906
523.0551, 45.10693
523.5372, 65.89893
524.0193, 68.57251
524.5014, 38.99902
524.9835, 5.896484
525.4656, 2.298828
525.9478, 22.11255
526.4299, 31.15796
526.9120, 16.95410
527.3941, 0.6909180
527.8762, 3.594482
528.3583, 30.77808
528.8405, 53.13184
529.3226, 72.48242
529.8047, 82.24316
530.2868, 72.98608
530.7689, 50.87476
531.2510, 30.50684
531.7332, 19.13647
532.2153, 16.04590
532.6974, 20.83521
533.1795, 45.73584
533.6616, 55.71411
534.1437, 38.04224
534.6259, 17.56421
535.1080, 9.572266
535.5901, 13.23218
536.0722, 20.10107
536.5543, 26.93164
537.0364, 33.36646
537.5186, 36.30127
538.0007, 33.62549
538.4828, 35.90356
538.9649, 55.25684
539.4470, 76.51221
539.9291, 80.64917
540.4113, 64.17065
540.8934, 45.06763
541.3755, 32.01099
541.8576, 24.25342
542.3397, 19.79102
542.8218, 17.10938
543.3040, 16.30542
543.7861, 17.56714
544.2682, 20.77246
544.7503, 25.04712
545.2324, 38.20435
545.7145, 42.62109
546.1967, 23.93140
546.6788, 0.4997560
547.1609, 4.680664
547.6430, 11.65601
548.1251, 30.57617
548.6072, 29.63672
549.0894, 7.937744
549.5715, 5.667725
550.0536, 7.771973
550.5357, 6.332764
551.0178, 5.538330
551.4999, 3.251953
551.9821, 4.726074
552.4642, 21.14331
552.9463, 37.07837
553.4284, 42.43530
553.9105, 39.40698
554.3926, 42.69287
554.8748, 57.05859
555.3569, 70.02051
555.8390, 68.45728
556.3211, 52.41431
556.8032, 40.85913
557.2853, 34.53833
557.7675, 32.23779
558.2496, 36.44482
558.7317, 43.56689
559.2138, 47.15552
559.6959, 44.97778
560.1780, 40.81104
560.6602, 40.11938
561.1423, 47.04370
561.6244, 47.23462
562.1065, 20.34058
562.5886, 3.850098
563.0707, 24.74463
563.5529, 62.97583
564.0350, 79.62280
564.5171, 53.30054
564.9992, 13.08740
565.4813, 2.548584
565.9634, 4.851318
566.4456, 14.24365
566.9277, 20.43262
567.4098, 27.85181
567.8919, 47.08252
568.3740, 76.17163
568.8561, 91.56641
569.3383, 81.02002
569.8204, 63.93726
570.3025, 49.77930
570.7846, 39.12866
571.2667, 32.31665
571.7488, 29.47607
572.2310, 29.21118
572.7131, 29.08081
573.1952, 28.46753
573.6773, 29.65869
574.1594, 37.03809
574.6415, 41.88843
575.1237, 34.90088
575.6058, 22.79028
576.0879, 21.44507
576.5700, 40.23804
577.0521, 64.85474
577.5342, 71.22876
578.0164, 57.97559
578.4985, 48.07715
578.9806, 51.29810
579.4627, 55.98462
579.9448, 49.20093
580.4269, 32.48975
580.9091, 19.32153
581.3912, 11.08691
581.8733, 8.076172
582.3554, 12.84033
582.8375, 22.35815
583.3196, 32.01465
583.8018, 40.60889
584.2839, 45.94165
584.7660, 43.76294
585.2481, 28.62695
585.7302, 20.64014
586.2123, 27.55688
586.6945, 33.62866
587.1766, 27.12988
587.6587, 15.73682
588.1408, 16.75195
588.6229, 40.98755
589.1050, 71.41357
589.5872, 84.63892
590.0693, 81.11963
590.5514, 68.93823
591.0335, 46.01880
591.5156, 21.59912
591.9977, 2.816650
592.4799, 10.48315
592.9620, 14.37134
593.4441, 9.7900003E-02
593.9262, 16.57227
594.4083, 25.71924
594.8904, 29.72656
595.3726, 33.00537
595.8547, 37.13818
596.3368, 41.68506
596.8189, 46.41357
597.3010, 52.05737
597.7831, 53.91870
598.2653, 46.88647
598.7474, 41.30664
599.2295, 42.80762
599.7116, 47.13599
600.1937, 47.37598
600.6758, 40.69263
601.1580, 31.71973
601.6401, 25.64819
602.1222, 22.83032
602.6043, 18.54932
603.0864, 10.62646
603.5685, 3.805420
604.0507, 1.310547
604.5328, 2.672119
605.0149, 6.005859
605.4970, 17.50537
605.9791, 25.62720
606.4612, 20.51489
606.9434, 11.70142
607.4255, 14.21777
607.9076, 30.67285
608.3897, 47.72485
608.8718, 50.70776
609.3539, 39.97217
609.8361, 26.92651
610.3182, 3.919434
610.8003, 8.796387
611.2824, 1.273926
611.7645, 20.91284
612.2466, 37.03149
612.7288, 47.29688
613.2109, 54.87842
613.6930, 65.65088
614.1751, 73.85132
614.6572, 62.92725
615.1393, 32.31885
615.6215, 10.81592
616.1036, 18.49316
616.5857, 46.99731
617.0678, 66.08594
617.5499, 76.43433
618.0320, 76.08765
618.5142, 51.45581
618.9963, 26.48999
619.4784, 23.11621
619.9605, 37.55444
620.4426, 49.37695
620.9247, 45.00879
621.4069, 29.61816
621.8890, 14.96216
622.3711, 0.7963870
622.8532, 4.094238
623.3353, 18.32178
623.8174, 45.09229
624.2996, 52.78638
624.7817, 42.40234
625.2638, 29.81299
625.7459, 15.73486
626.2280, 3.989746
626.7101, 2.816406
627.1923, 4.704102
627.6744, 1.930908
628.1565, 5.584229
628.6386, 16.19971
629.1207, 28.43335
629.6028, 45.28735
630.0850, 51.70972
630.5671, 34.47095
631.0492, 20.18506
631.5313, 19.57031
632.0134, 26.66187
632.4955, 32.48486
632.9777, 34.43555
633.4598, 32.73291
633.9419, 21.48975
634.4240, 6.502441
634.9061, 11.52905
635.3882, 42.54150
635.8704, 70.80566
636.3525, 73.23486
636.8346, 54.39331
637.3167, 43.73853
637.7988, 47.13135
638.2809, 49.81030
638.7631, 50.35181
639.2452, 48.39600
639.7273, 40.97681
640.2094, 29.94019
640.6915, 23.50391
641.1736, 30.10693
641.6558, 44.29590
642.1379, 44.61914
642.6200, 26.41846
643.1021, 15.21704
643.5842, 23.73877
644.0663, 37.16382
644.5485, 38.49487
645.0306, 28.12695
645.5127, 20.05908
645.9948, 19.70117
646.4769, 21.90161
646.9590, 20.94678
647.4412, 19.23096
647.9233, 24.30908
648.4054, 39.12158
648.8875, 57.31519
649.3696, 70.33179
649.8517, 78.70068
650.3339, 76.98657
650.8160, 56.52051
651.2981, 38.38965
651.7802, 26.69678
652.2623, 20.93066
652.7444, 22.20679
653.2266, 32.11890
653.7087, 39.80957
654.1908, 34.04883
654.6729, 20.62085
655.1550, 10.66968
655.6371, 5.485352
656.1193, 7.575928
656.6014, 21.10669
657.0835, 41.11353
657.5656, 48.59106
658.0477, 36.60181
658.5298, 20.81274
659.0120, 11.70020
659.4941, 37.16699
659.9762, 34.67651
660.4583, 10.23706
660.9404, 14.26611
661.4225, 26.68970
661.9047, 32.28882
662.3868, 41.35840
662.8689, 53.59790
663.3510, 59.18286
663.8331, 54.10938
664.3152, 46.01611
664.7974, 41.00024
665.2795, 39.28174
665.7616, 41.35962
666.2437, 53.86841
666.7258, 62.47192
667.2079, 58.64941
667.6901, 49.55713
668.1722, 45.30811
668.6543, 46.66553
669.1364, 46.00732
669.6185, 30.66846
670.1006, 6.138184
670.5828, 9.481445
671.0649, 51.18091
671.5470, 86.45386
672.0291, 102.2139
672.5112, 103.2212
672.9933, 92.01733
673.4755, 68.07324
673.9576, 51.10791
674.4397, 52.80688
674.9218, 58.31396
675.4039, 53.36304
675.8860, 42.97656
676.3682, 42.12012
676.8503, 56.45044
677.3324, 74.28027
677.8145, 76.29077
678.2966, 58.89966
678.7787, 55.81104
679.2609, 80.65479
679.7430, 99.66064
680.2251, 99.98291
680.7072, 87.46484
681.1893, 64.34888
681.6714, 27.31885
682.1536, 5.271484
682.6357, 34.70825
683.1178, 77.54858
683.5999, 73.84546
684.0820, 28.38989
684.5641, 5.735352
685.0463, 1.275879
685.5284, 32.54272
686.0105, 48.34424
686.4926, 41.61133
686.9747, 35.96167
687.4568, 32.13818
687.9390, 28.60107
688.4211, 22.25562
688.9032, 16.28052
689.3853, 17.19360
689.8674, 28.34888
690.3495, 41.81860
690.8317, 50.04492
691.3138, 55.85132
691.7959, 68.86084
692.2780, 89.65161
692.7601, 101.9951
693.2422, 92.81958
693.7244, 68.14819
694.2065, 51.14868
694.6886, 43.15649
695.1707, 41.34082
695.6528, 52.70605
696.1349, 63.33594
696.6171, 61.13867
697.0992, 51.18872
697.5813, 49.01636
698.0634, 65.00488
698.5455, 83.91211
699.0276, 86.06836
699.5098, 76.11914
699.9919, 72.61816
700.4740, 79.78467
700.9561, 83.79077
701.4382, 70.82617
701.9203, 44.41895
702.4025, 32.65649
702.8846, 52.49170
703.3667, 64.62134
703.8488, 61.24292
704.3309, 53.25317
704.8130, 46.13330
705.2952, 41.78589
705.7773, 42.83179
706.2594, 52.83398
706.7415, 66.18408
707.2236, 71.48730
707.7057, 70.65649
708.1879, 76.35791
708.6700, 92.37500
709.1521, 109.8362
709.6342, 121.3711
710.1163, 126.9795
710.5984, 125.8750
711.0806, 119.0889
711.5627, 104.6096
712.0448, 64.77197
712.5269, 29.64233
713.0090, 32.38696
713.4911, 67.98291
713.9733, 99.77783
714.4554, 103.5732
714.9375, 91.95215
715.4196, 83.15991
715.9017, 77.34546
716.3839, 72.06934
716.8660, 65.82520
717.3481, 61.83521
717.8302, 66.91748
718.3123, 81.97290
718.7944, 91.24683
719.2766, 96.79053
719.7587, 93.93237
720.2408, 69.45679
720.7229, 44.82715
721.2050, 42.87134
721.6871, 61.97876
722.1693, 80.46460
722.6514, 85.85669
723.1335, 81.13062
723.6156, 63.63086
724.0977, 37.07153
724.5798, 32.91797
725.0620, 63.58228
725.5441, 97.79858
726.0262, 102.3577
726.5083, 77.27148
726.9904, 59.95752
727.4725, 51.74146
727.9547, 50.21631
728.4368, 61.87134
728.9189, 76.69727
729.4010, 85.48120
729.8831, 87.92847
730.3652, 89.47974
730.8474, 93.95508
731.3295, 98.75073
731.8116, 102.7915
732.2937, 104.5664
732.7758, 92.00317
733.2579, 59.65332
733.7401, 32.25854
734.2222, 37.94922
734.7043, 74.69263
735.1864, 90.49194
735.6685, 66.20410
736.1506, 45.50952
736.6328, 25.56030
737.1149, 16.99609
737.5970, 38.32617
738.0791, 81.88916
738.5612, 112.0752
739.0433, 106.8816
739.5255, 84.58081
740.0076, 58.36060
740.4897, 32.04712
740.9718, 20.57690
741.4539, 27.39526
741.9360, 36.76050
742.4182, 32.66895
742.9003, 18.53857
743.3824, 24.50977
743.8645, 74.05859
744.3466, 103.3684
744.8287, 89.19946
745.3109, 66.32544
745.7930, 59.00757
746.2751, 65.70532
746.7572, 73.99097
747.2393, 84.10913
747.7214, 86.93652
748.2036, 67.06958
748.6857, 36.71558
749.1678, 19.94604
749.6499, 20.34692
750.1320, 28.45068
750.6141, 38.17798
751.0963, 47.87622
751.5784, 50.38306
752.0605, 41.23389
752.5426, 37.87256
753.0247, 51.28760
753.5068, 61.39478
753.9890, 52.08032
754.4711, 30.10107
754.9532, 13.88037
755.4353, 6.861328
755.9174, 6.641602
756.3995, 18.67505
756.8817, 32.91333
757.3638, 36.50928
757.8459, 29.33228
758.3280, 19.45532
758.8101, 12.38232
759.2922, 11.09448
759.7744, 26.86694
760.2565, 63.06885
760.7386, 82.03125
761.2207, 71.61499
761.7028, 55.75024
762.1849, 50.84009
762.6671, 50.95264
763.1492, 39.46729
763.6313, 5.267334
764.1134, 15.42822
764.5955, 8.415039
765.0776, 9.894043
765.5598, 37.81714
766.0419, 65.19873
766.5240, 72.96948
767.0061, 53.30933
767.4882, 24.69849
767.9703, 8.084229
768.4525, 2.691650
768.9346, 8.429443
769.4167, 27.34448
769.8988, 38.96387
770.3809, 30.97754
770.8630, 12.19653
771.3452, 1.053711
771.8273, 9.112061
772.3094, 9.957520
772.7915, 5.093262
773.2736, 17.42188
773.7557, 15.06665
774.2379, 7.537842
774.7200, 7.393555
775.2021, 17.56860
775.6842, 33.14771
776.1663, 59.14600
776.6484, 83.62451
777.1306, 83.52563
777.6127, 62.73828
778.0948, 40.32007
778.5769, 22.36621
779.0590, 15.14087
779.5411, 29.13452
780.0233, 64.81104
780.5054, 88.85889
780.9875, 99.13477
781.4696, 100.9724
781.9517, 90.86011
782.4338, 76.60840
782.9160, 65.78589
783.3981, 57.59253
783.8802, 43.20264
784.3623, 3.369873
784.8444, 26.35083
785.3265, 12.22119
785.8087, 22.41528
786.2908, 41.85034
786.7729, 40.30615
787.2550, 32.25854
787.7371, 28.27930
788.2192, 27.51489
788.7014, 27.29590
789.1835, 27.27124
789.6656, 32.66260
790.1477, 49.19897
790.6298, 60.21021
791.1119, 45.88354
791.5941, 14.76978
792.0762, 6.767578
792.5583, 45.85400
793.0404, 69.30737
793.5225, 57.62012
794.0046, 36.48193
794.4868, 17.03418
794.9689, 3.865967
795.4510, 4.353760
795.9331, 23.20532
796.4152, 44.39917
796.8973, 51.70898
797.3795, 50.33813
797.8616, 45.71362
798.3437, 37.93457
798.8258, 29.39209
799.3079, 19.93701
799.7900, 12.43628
800.2722, 13.50562
800.7543, 27.53833
801.2364, 28.59985
801.7185, 2.117920
802.2006, 19.89111
802.6827, 1.860596
803.1649, 30.18481
803.6470, 55.79175
804.1291, 72.82788
804.6112, 78.54761
805.0933, 63.76880
805.5754, 45.29028
806.0576, 35.79395
806.5397, 31.52441
807.0218, 23.87988
807.5039, 11.73755
807.9860, 3.052490
808.4681, 5.526611
808.9503, 16.21216
809.4324, 27.57397
809.9145, 40.01025
810.3966, 44.72949
810.8787, 36.74609
811.3608, 28.65015
811.8430, 32.47925
812.3251, 46.10815
812.8072, 53.98877
813.2893, 60.07959
813.7714, 55.00488
814.2535, 21.30542
814.7357, 8.413330
815.2178, 8.390625
815.6999, 12.21655
816.1820, 30.57495
816.6641, 39.66187
817.1462, 39.29761
817.6284, 15.77295
818.1105, 10.83057
818.5926, 1.316895
819.0747, 46.14795
819.5568, 78.98193
820.0389, 78.75391
820.5211, 60.85571
821.0032, 49.31763
821.4853, 44.82764
821.9674, 32.16089
822.4495, 5.946533
822.9316, 11.68628
823.4138, 8.936035
823.8959, 3.160889
824.3780, 11.67578
824.8601, 16.68628
825.3422, 19.18774
825.8243, 16.98389
826.3065, 15.02710
826.7886, 12.22705
827.2707, 12.59595
827.7528, 25.52002
828.2349, 47.66333
828.7170, 59.88013
829.1992, 46.44727
829.6813, 24.39478
830.1633, 16.02100
830.6454, 19.04858
831.1276, 25.84570
831.6097, 35.10645
832.0918, 44.78687
832.5739, 53.99414
833.0560, 61.70703
833.5381, 64.42822
834.0203, 59.56104
834.5024, 60.01392
834.9845, 75.96118
835.4666, 83.19312
835.9487, 56.63818
836.4308, 19.34814
836.9130, 7.761230
837.3951, 29.79419
837.8772, 44.40234
838.3593, 36.02661
838.8414, 23.29321
839.3235, 14.79346
839.8057, 10.47241
840.2878, 8.379150
840.7699, 8.458008
841.2520, 14.22705
841.7341, 32.54980
842.2162, 55.35327
842.6984, 66.14429
843.1805, 68.56787
843.6626, 68.96582
844.1447, 68.34888
844.6268, 63.83960
845.1089, 52.09912
845.5911, 35.31616
846.0732, 22.73584
846.5553, 14.30249
847.0374, 10.35254
847.5195, 13.83618
848.0016, 18.50366
848.4838, 19.13501
848.9659, 18.75415
849.4480, 25.12817
849.9301, 44.42920
850.4122, 53.10474
850.8943, 31.90210
851.3765, 10.44849
851.8586, 12.41650
852.3407, 27.27393
852.8228, 37.65356
853.3049, 38.07739
853.7870, 29.63843
854.2692, 0.1440430
854.7513, 31.16382
855.2334, 17.36206
855.7155, 30.68262
856.1976, 57.16772
856.6797, 46.90503
857.1619, 27.30444
857.6440, 23.00293
858.1261, 31.15039
858.6082, 35.77808
859.0903, 33.87109
859.5724, 38.37500
860.0546, 56.82959
860.5367, 74.56494
861.0188, 79.12109
861.5009, 73.95337
861.9830, 67.23169
862.4651, 56.62402
862.9473, 47.74854
863.4294, 41.11694
863.9115, 38.79346
864.3936, 44.27759
864.8757, 54.17529
865.3578, 64.94458
865.8400, 75.00781
866.3221, 79.10718
866.8042, 69.85278
867.2863, 54.90063
867.7684, 42.60376
868.2505, 33.55884
868.7327, 29.89307
869.2148, 31.80273
869.6969, 35.44873
870.1790, 37.39429
870.6611, 39.09204
871.1432, 46.90552
871.6254, 60.80444
872.1075, 64.46387
872.5896, 50.79590
873.0717, 37.63403
873.5538, 36.34229
874.0359, 42.31934
874.5181, 46.02295
875.0002, 46.16748
875.4823, 47.19604
875.9644, 49.75562
876.4465, 52.14038
876.9286, 52.14185
877.4108, 50.61279
877.8929, 48.15942
878.3750, 45.04004
878.8571, 44.22046
879.3392, 46.92383
879.8214, 52.73267
880.3035, 66.12354
880.7856, 79.21289
881.2677, 79.69360
881.7498, 68.07690
882.2319, 56.64990
882.7141, 54.39185
883.1962, 56.14990
883.6783, 50.37354
884.1604, 39.22583
884.6425, 40.09644
885.1246, 55.75391
885.6068, 64.64722
886.0889, 53.53247
886.5710, 34.31079
887.0531, 26.10864
887.5352, 30.24780
888.0173, 40.69043
888.4995, 69.50952
888.9816, 84.33154
889.4637, 58.89819
889.9458, 26.98022
890.4279, 26.53857
890.9100, 54.62012
891.3922, 69.52881
891.8743, 52.24072
892.3564, 38.21875
892.8385, 44.28540
893.3206, 53.53931
893.8027, 47.05518
894.2849, 30.82910
894.7670, 26.22632
895.2491, 44.10107
895.7312, 63.90601
896.2133, 70.86230
896.6954, 67.46289
897.1776, 49.72632
897.6597, 24.61450
898.1418, 17.27954
898.6239, 35.92773
899.1060, 59.30908
899.5881, 63.19287
900.0703, 52.12231
900.5524, 47.59399
901.0345, 49.96167
901.5166, 52.64355
901.9987, 55.36743
902.4808, 53.11108
902.9630, 39.34277
903.4451, 18.48169
903.9272, 9.264160
904.4093, 19.18604
904.8914, 25.21875
905.3735, 22.67627
905.8557, 21.21094
906.3378, 27.66821
906.8199, 36.31055
907.3020, 38.20239
907.7841, 32.05811
908.2662, 27.38623
908.7484, 21.58496
909.2305, 22.98047
909.7126, 47.96533
910.1947, 75.02441
910.6768, 72.96875
911.1589, 45.48682
911.6411, 26.88477
912.1232, 38.42456
912.6053, 56.06396
913.0874, 63.98047
913.5695, 64.29321
914.0516, 54.66626
914.5338, 38.35278
915.0159, 24.30298
915.4980, 15.91064
915.9801, 11.86011
916.4622, 12.82642
916.9443, 17.32520
917.4265, 13.69604
917.9086, 1.604492
918.3907, 9.830322
918.8728, 19.13232
919.3549, 21.26636
919.8370, 9.322510
920.3192, 15.16089
920.8013, 31.69189
921.2834, 42.99512
921.7655, 44.13965
922.2476, 25.68286
922.7297, 8.722412
923.2119, 6.910400
923.6940, 13.58911
924.1761, 17.43604
924.6582, 17.09595
925.1403, 18.39990
925.6224, 23.38208
926.1046, 28.63843
926.5867, 37.79297
927.0688, 43.19727
927.5509, 29.27441
928.0330, 0.7009280
928.5151, 11.02368
928.9973, 22.46509
929.4794, 53.30835
929.9615, 33.31860
930.4436, 1.005859
930.9257, 0.9587400
931.4078, 33.05933
931.8900, 60.84106
932.3721, 69.48608
932.8542, 67.13721
933.3363, 59.79224
933.8184, 49.34692
934.3005, 38.02490
934.7827, 27.32861
935.2648, 30.02808
935.7469, 49.78931
936.2290, 66.32104
936.7111, 60.53491
937.1932, 38.87793
937.6754, 23.00952
938.1575, 12.66553
938.6396, 13.07031
939.1217, 29.22827
939.6038, 41.70068
940.0859, 38.38843
940.5681, 27.26489
941.0502, 22.64087
941.5323, 25.34521
942.0144, 30.40356
942.4965, 48.61597
942.9786, 53.94922
943.4608, 21.78467
943.9429, 9.488037
944.4250, 0.6257320
944.9071, 38.31641
945.3892, 58.42871
945.8713, 37.40674
946.3535, 23.78760
946.8356, 36.16284
947.3177, 53.85278
947.7998, 65.52832
948.2819, 71.53125
948.7640, 73.59302
949.2462, 72.16357
949.7283, 70.08594
950.2104, 70.69336
950.6925, 69.63232
951.1746, 60.08984
951.6567, 47.50977
952.1389, 39.79883
952.6210, 38.33423
953.1031, 43.90381
953.5852, 58.69507
954.0673, 70.46704
954.5494, 55.50684
955.0316, 26.54175
955.5137, 19.72119
955.9958, 33.99121
956.4779, 48.44482
956.9600, 55.17017
957.4421, 52.50024
957.9243, 33.52612
958.4064, 7.343262
958.8885, 24.93970
959.3706, 89.94824
959.8527, 127.9377
960.3348, 123.8591
960.8170, 101.9966
961.2991, 72.94263
961.7812, 44.87646
962.2633, 39.06421
962.7454, 61.92651
963.2275, 78.30737
963.7097, 92.49780
964.1918, 90.97290
964.6739, 56.58838
965.1560, 17.35791
965.6381, 4.334473
966.1202, 15.34033
966.6024, 20.32422
967.0845, 8.815674
967.5666, 6.952881
968.0487, 24.48291
968.5308, 44.48877
969.0129, 61.44897
969.4951, 72.95386
969.9772, 77.12793
970.4593, 73.79321
970.9414, 60.44092
971.4235, 21.16724
971.9056, 10.62378
972.3878, 16.59009
972.8699, 6.613770
973.3520, 15.79492
973.8341, 43.45630
974.3162, 57.30103
974.7983, 45.07300
975.2805, 33.61768
975.7626, 57.18726
976.2447, 81.65796
976.7268, 53.42041
977.2089, 3.633545
977.6910, 26.66577
978.1732, 1.341064
978.6553, 31.75269
979.1374, 41.46704
979.6195, 38.83984
980.1016, 40.01367
980.5837, 43.33472
981.0659, 43.53003
981.5480, 40.90894
982.0301, 42.43433
982.5122, 51.84082
982.9943, 62.23047
983.4764, 62.73804
983.9586, 55.16260
984.4407, 49.59839
984.9228, 46.00488
985.4049, 45.69043
985.8870, 49.33276
986.3691, 49.34839
986.8513, 40.81567
987.3334, 26.59912
987.8155, 17.16016
988.2976, 11.85889
988.7797, 14.41724
989.2618, 27.85791
989.7440, 41.05127
990.2261, 51.77051
990.7082, 55.77563
991.1903, 44.36719
991.6724, 18.25952
992.1545, 11.40234
992.6367, 40.72437
993.1188, 54.81055
993.6009, 31.96411
994.0830, 11.46094
994.5651, 23.13867
995.0472, 50.27441
995.5294, 56.55518
996.0115, 34.68701
996.4936, 24.22363
996.9757, 40.22900
997.4578, 50.27344
997.9399, 39.35938
998.4221, 24.16528
998.9042, 20.28442
999.3863, 24.76196
999.8684, 23.13306
1000.351, 7.461670
1000.833, 1.501465
1001.315, 6.718750
1001.797, 17.09546
1002.279, 25.16040
1002.761, 29.91797
1003.243, 27.96729
1003.725, 20.52563
1004.207, 19.20752
1004.690, 36.35913
1005.172, 50.57129
1005.654, 46.99927
1006.136, 36.40088
1006.618, 25.87646
1007.100, 17.99780
1007.582, 17.06055
1008.064, 24.20190
1008.547, 31.03369
1009.029, 28.09717
1009.511, 24.92065
1009.993, 36.36987
1010.475, 52.08740
1010.957, 51.47729
1011.439, 36.51245
1011.921, 28.71533
1012.403, 39.89771
1012.886, 50.59790
1013.368, 31.37402
1013.850, 1.748535
1014.332, 0.3044430
1014.814, 18.48901
1015.296, 34.48560
1015.778, 41.73193
1016.260, 44.61377
1016.742, 45.67236
1017.225, 47.64111
1017.707, 58.12866
1018.189, 73.64502
1018.671, 78.14722
1019.153, 72.50073
1019.635, 70.95459
1020.117, 78.79443
1020.599, 85.11963
1021.082, 77.90283
1021.564, 61.50415
1022.046, 46.62573
1022.528, 34.20312
1023.010, 43.88867
1023.492, 79.27734
1023.974, 103.3000
1024.456, 95.59082
1024.938, 75.28271
1025.421, 71.59180
1025.903, 82.78564
1026.385, 83.98706
1026.867, 73.64404
1027.349, 67.90454
1027.831, 71.41357
1028.313, 72.41821
1028.795, 61.01758
1029.278, 45.45215
1029.760, 44.31396
1030.242, 59.70630
1030.724, 80.44971
1031.206, 114.6108
1031.688, 122.2891
1032.170, 82.75195
1032.652, 34.82690
1033.135, 10.20801
1033.617, 4.878662
1034.099, 9.530029
1034.581, 30.28467
1035.063, 43.64746
1035.545, 49.18506
1036.027, 46.08472
1036.509, 23.24951
1036.991, 0.4709470
1037.474, 2.747314
1037.956, 26.80029
1038.438, 36.78760
1038.920, 21.93872
1039.402, 13.50342
1039.884, 15.96973
1040.366, 20.99463
1040.848, 22.50244
1041.330, 26.85986
1041.813, 46.40308
1042.295, 81.14429
1042.777, 93.28857
1043.259, 56.57935
1043.741, 36.32642
1044.223, 50.31128
1044.705, 69.86743
1045.187, 79.76636
1045.670, 84.78687
1046.152, 96.06323
1046.634, 115.5085
1047.116, 121.5356
1047.598, 103.5374
1048.080, 84.33398
1048.562, 70.90430
1049.044, 56.37671
1049.526, 28.12256
1050.009, 4.476807
1050.491, 11.15283
1050.973, 19.14185
1051.455, 38.97485
1051.937, 34.25757
1052.419, 26.15259
1052.901, 19.06860
1053.383, 14.24878
1053.865, 11.82812
1054.348, 12.36060
1054.830, 18.48633
1055.312, 33.03198
1055.794, 45.36572
1056.276, 52.81152
1056.758, 57.50903
1057.240, 62.12744
1057.722, 63.29761
1058.205, 53.37524
1058.687, 36.21338
1059.169, 29.60913
1059.651, 44.66040
1060.133, 54.63867
1060.615, 45.68262
1061.097, 35.38281
1061.579, 37.68555
1062.062, 42.35352
1062.544, 32.73975
1063.026, 10.47046
1063.508, 3.635498
1063.990, 3.196777
1064.472, 7.285645
1064.954, 39.42041
1065.436, 66.19043
1065.918, 65.09937
1066.401, 49.36304
1066.883, 35.76221
1067.365, 27.72998
1067.847, 26.25586
1068.329, 34.52368
1068.811, 44.98828
1069.293, 59.36963
1069.775, 69.90308
1070.257, 69.59644
1070.740, 61.53296
1071.222, 47.30859
1071.704, 28.75366
1072.186, 22.07227
1072.668, 44.44507
1073.150, 66.63062
1073.632, 83.36548
1074.114, 86.22266
1074.597, 51.24390
1075.079, 3.594971
1075.561, 6.263184
1076.043, 30.13354
1076.525, 56.47607
1077.007, 30.34399
1077.489, 10.98779
1077.971, 44.33301
1078.453, 83.52441
1078.936, 78.83325
1079.418, 48.61670
1079.900, 38.64600
1080.382, 59.36890
1080.864, 75.70850
1081.346, 69.77271
1081.828, 58.18726
1082.310, 46.02563
1082.792, 35.41333
1083.275, 27.04736
1083.757, 22.20093
1084.239, 25.69775
1084.721, 39.23828
1085.203, 44.83813
1085.685, 25.29126
1086.167, 7.333008
1086.649, 7.513672
1087.131, 13.98926
1087.614, 16.50439
1088.096, 15.36304
1088.578, 14.58667
1089.060, 15.37158
1089.542, 13.36694
1090.024, 2.494385
1090.506, 10.12134
1090.988, 14.36157
1091.471, 41.87280
1091.953, 35.58911
1092.435, 10.78394
1092.917, 14.07007
1093.399, 60.92529
1093.881, 91.34814
1094.363, 72.50732
1094.845, 45.17432
1095.328, 18.83740
1095.810, 1.954102
1096.292, 9.561035
1096.774, 30.58203
1097.256, 37.17358
1097.738, 21.68262
1098.220, 5.592529
1098.702, 12.88086
1099.184, 19.62695
1099.667, 2.462646
1100.149, 29.54590
1100.631, 40.08130
1101.113, 38.22852
1101.595, 39.36475
1102.077, 48.41724
1102.559, 47.11890
1103.041, 15.23853
1103.523, 7.385498
1104.006, 1.150879
1104.488, 15.88281
1104.970, 37.79663
1105.452, 56.21509
1105.934, 49.50220
1106.416, 6.165771
1106.898, 15.97754
1107.380, 9.241699
1107.863, 35.40698
1108.345, 50.56738
1108.827, 60.42749
1109.309, 71.07031
1109.791, 78.20508
1110.273, 69.01050
1110.755, 36.99707
1111.237, 17.16748
1111.719, 19.01343
1112.202, 27.60815
1112.684, 65.17456
1113.166, 73.84253
1113.648, 74.06519
1114.130, 66.49316
1114.612, 16.44067
1115.094, 29.92993
1115.576, 23.26440
1116.058, 19.40576
1116.541, 52.69946
1117.023, 28.34448
1117.505, 68.67627
1117.987, 54.86987
1118.469, 79.29688
1118.951, 74.29761
1119.433, 32.72729
1119.915, 15.83545
1120.398, 43.38721
1120.880, 53.21094
1121.362, 24.17407
1121.844, 5.895508
1122.326, 16.33252
1122.808, 11.79395
1123.290, 0.2871090
1123.772, 20.00806
1124.255, 47.26733
1124.737, 93.02441
1125.219, 108.0786
1125.701, 75.33081
1126.183, 37.48560
1126.665, 14.75830
1127.147, 6.437500
1127.629, 13.98291
1128.111, 36.10425
1128.594, 48.19800
1129.076, 48.74976
1129.558, 49.56396
1130.040, 52.77222
1130.522, 53.86157
1131.004, 51.11230
1131.486, 41.21729
1131.968, 23.30713
1132.450, 1.498047
1132.933, 1.247314
1133.415, 22.17041
1133.897, 42.93774
1134.379, 60.80981
1134.861, 66.39722
1135.343, 54.83569
1135.825, 40.22217
1136.307, 37.26514
1136.790, 43.66919
1137.272, 57.29932
1137.754, 75.05225
1138.236, 76.74219
1138.718, 62.86694
1139.200, 52.21191
1139.682, 51.22607
1140.164, 50.67041
1140.646, 40.69800
1141.129, 29.94238
1141.611, 39.50000
1142.093, 58.95020
1142.575, 57.27783
1143.057, 39.60669
1143.539, 32.62354
1144.021, 42.37329
1144.503, 54.32129
1144.985, 58.62939
1145.468, 59.00806
1145.950, 60.50000
1146.432, 60.51807
1146.914, 54.40234
1147.396, 43.86279
1147.878, 30.95752
1148.360, 17.25073
1148.842, 7.764648
1149.325, 2.714600
1149.807, 6.943604
1150.289, 31.64111
1150.771, 60.17749
1151.253, 85.53662
1151.735, 99.24146
1152.217, 81.66943
1152.699, 41.76416
1153.182, 14.87744
1153.664, 13.94702
1154.146, 20.50000
1154.628, 32.34131
1155.110, 41.31128
1155.592, 39.55444
1156.074, 35.22266
1156.556, 34.94263
1157.038, 38.63354
1157.521, 45.01440
1158.003, 52.50488
1158.485, 60.66797
1158.967, 71.44727
1159.449, 79.95703
1159.931, 82.80957
1160.413, 84.85327
1160.895, 93.59985
1161.377, 101.5166
1161.860, 95.38452
1162.342, 73.69727
1162.824, 50.99756
1163.306, 17.04810
1163.788, 1.149658
1164.270, 15.79663
1164.752, 31.91846
1165.234, 38.93237
1165.717, 41.85254
1166.199, 50.89819
1166.681, 63.45996
1167.163, 50.59961
1167.645, 0.4521480
1168.127, 16.55908
1168.609, 15.13696
1169.091, 45.41504
1169.573, 56.31714
1170.056, 59.54297
1170.538, 66.91357
1171.020, 74.41187
1171.502, 66.98633
1171.984, 46.10596
1172.466, 39.78735
1172.948, 48.34473
1173.430, 50.17944
1173.912, 39.99585
1174.395, 34.59155
1174.877, 46.34009
1175.359, 64.25854
1175.841, 74.13403
1176.323, 75.97046
1176.805, 60.36450
1177.287, 35.82422
1177.769, 24.88208
1178.252, 30.54272
1178.734, 47.45508
1179.216, 73.37231
1179.698, 92.60400
1180.180, 92.00464
1180.662, 77.28955
1181.144, 42.57520
1181.626, 6.882568
1182.109, 0.5375980
1182.591, 16.91309
1183.073, 32.99927
1183.555, 42.56909
1184.037, 54.32617
1184.519, 80.68237
1185.001, 99.69263
1185.483, 95.66138
1185.965, 84.66675
1186.448, 82.96631
1186.930, 80.03638
1187.412, 49.16016
1187.894, 5.283691
1188.376, 26.93872
1188.858, 16.05322
1189.340, 52.47266
1189.822, 80.26245
1190.304, 90.71216
1190.787, 65.10254
1191.269, 35.35962
1191.751, 30.47192
1192.233, 42.71191
1192.715, 47.40820
1193.197, 42.92554
1193.679, 37.77344
1194.161, 30.02002
1194.644, 28.27808
1195.126, 36.20679
1195.608, 44.51953
1196.090, 47.39771
1196.572, 47.40503
1197.054, 48.66724
1197.536, 51.28540
1198.018, 58.92188
1198.500, 70.77954
1198.983, 65.58911
1199.465, 42.06396
1199.947, 28.45972
1200.429, 36.32617
1200.911, 46.90625
1201.393, 40.58862
1201.875, 27.70239
1202.357, 27.78613
1202.839, 35.24805
1203.322, 37.34521
1203.804, 34.66455
1204.286, 35.51807
1204.768, 41.89795
1205.250, 54.66699
1205.732, 78.01270
1206.214, 91.74609
1206.696, 70.62109
1207.179, 42.06934
1207.661, 22.87793
1208.143, 16.88721
1208.625, 37.04492
1209.107, 71.88623
1209.589, 87.16650
1210.071, 71.95801
1210.553, 63.11816
1211.036, 83.05713
1211.518, 94.03906
1212.000, 76.97656
1212.482, 55.59473
1212.964, 39.49414
1213.446, 31.99756
1213.928, 41.67871
1214.410, 67.20947
1214.892, 76.01025
1215.375, 60.42725
1215.857, 48.22217
1216.339, 39.83057
1216.821, 38.85742
1217.303, 48.55420
1217.785, 58.82031
1218.267, 61.22852
1218.749, 56.28418
1219.231, 39.61572
1219.714, 14.20605
1220.196, 20.13818
1220.678, 54.22949
1221.160, 77.98389
1221.642, 87.52881
1222.124, 82.77783
1222.606, 64.02246
1223.088, 46.31592
1223.571, 49.83789
1224.053, 61.68652
1224.535, 61.33398
1225.017, 54.70117
1225.499, 48.61670
1225.981, 46.06396
1226.463, 56.48926
1226.945, 78.86963
1227.427, 87.36963
1227.910, 57.49219
1228.392, 35.03320
1228.874, 55.21191
1229.356, 80.07129
1229.838, 85.72021
1230.320, 81.53662
1230.802, 79.49268
1231.284, 75.13037
1231.766, 68.03467
1232.249, 53.46973
1232.731, 35.27002
1233.213, 1.584961
1233.695, 13.38477
1234.177, 25.62646
1234.659, 56.45996
1235.141, 41.35840
1235.623, 9.159180
1236.106, 2.084961
1236.588, 15.34131
1237.070, 12.87793
1237.552, 6.043945
1238.034, 5.3222999E-02
1238.516, 33.56787
1238.998, 54.10938
1239.480, 49.42871
1239.963, 39.41016
1240.445, 38.73926
1240.927, 42.39160
1241.409, 44.30762
1241.891, 44.79053
1242.373, 42.44043
1242.855, 39.44678
1243.337, 42.03223
1243.819, 48.30029
1244.302, 50.10156
1244.784, 44.66016
1245.266, 35.74609
1245.748, 13.82275
1246.230, 4.715820
1246.712, 38.26855
1247.194, 72.12744
1247.676, 70.58594
1248.158, 52.66211
1248.641, 48.14648
1249.123, 56.15332
1249.605, 52.87744
1250.087, 26.16406
1250.569, 15.65088
1251.051, 30.51758
1251.533, 41.98145
1252.015, 43.50928
1252.498, 38.00781
1252.980, 24.38965
1253.462, 12.59033
1253.944, 18.37354
1254.426, 44.09717
1254.908, 52.13281
1255.390, 44.24219
1255.872, 36.40234
1256.354, 32.94531
1256.837, 29.85693
1257.319, 25.42773
1257.801, 20.89990
1258.283, 17.03467
1258.765, 14.04541
1259.247, 13.79834
1259.729, 13.10693
1260.211, 0.6557620
1260.693, 10.00098
1261.176, 8.024414
1261.658, 43.84814
1262.140, 56.64746
1262.622, 34.10303
1263.104, 13.91650
1263.586, 1.283691
1264.068, 1.464355
1264.550, 36.07227
1265.033, 60.88916
1265.515, 41.55371
1265.997, 10.97363
1266.479, 4.313477
1266.961, 17.48389
1267.443, 27.76953
1267.925, 55.11279
1268.407, 54.89697
1268.890, 20.60596
1269.372, 7.431152
1269.854, 29.22168
1270.336, 48.09619
1270.818, 47.70020
1271.300, 37.38379
1271.782, 28.30518
1272.264, 19.93408
1272.746, 9.276855
1273.229, 0.1083980
1273.711, 0.0000000E+00
##END=



