##NAMES=Alloclasite
##RRUFFID=R110002
##IDEAL CHEMISTRY=Co^3+^(AsS)^3-^
##LOCALITY=Bou Azzer, Morocco
##OWNER=RRUFF
##SOURCE=Marcus Origlieri
##DESCRIPTION=Aggregate of steel-gray prismatic to platy crystals associated with spherocobaltite
##STATUS=The identification of this mineral has been confirmed by single-crystal X-ray diffraction.
##URL=rruff.info/R110002
167.7441, 0.0000000E+00
168.2262, 0.7544820
168.7083, 0.4460110
169.1904, 1.2640000E-02
169.6725, 0.6094300
170.1547, 1.196800
170.6368, 1.479521
171.1189, 2.369932
171.6010, 2.656250
172.0831, 3.166985
172.5652, 3.560497
173.0474, 3.160032
173.5295, 1.655607
174.0116, 0.1591720
174.4937, 0.3937170
174.9758, 2.3184000E-02
175.4579, 0.4543900
175.9401, 0.4314210
176.4222, 0.3277780
176.9043, 0.5980470
177.3864, 1.431890
177.8685, 2.400213
178.3506, 2.975248
178.8328, 3.053280
179.3149, 2.982492
179.7970, 2.855049
180.2791, 2.655445
180.7612, 2.264927
181.2433, 1.594423
181.7255, 0.9192700
182.2076, 0.8989370
182.6897, 2.015554
183.1718, 2.915480
183.6539, 3.381430
184.1360, 3.508556
184.6181, 3.289719
185.1003, 2.694351
185.5824, 1.915241
186.0645, 1.668358
186.5466, 2.817781
187.0287, 3.442955
187.5108, 2.822657
187.9930, 1.669893
188.4751, 0.8457030
188.9572, 0.8306520
189.4393, 1.543692
189.9214, 2.578371
190.4035, 5.205862
190.8857, 6.736700
191.3678, 5.885363
191.8499, 3.643158
192.3320, 1.631943
192.8141, 0.7811680
193.2962, 1.025879
193.7784, 1.953428
194.2605, 4.478239
194.7426, 6.555328
195.2247, 7.341038
195.7068, 7.087818
196.1889, 6.538412
196.6711, 5.986336
197.1532, 5.512295
197.6353, 5.332136
198.1174, 5.467304
198.5995, 5.834892
199.0816, 6.602621
199.5638, 7.683229
200.0459, 8.484968
200.5280, 8.613407
201.0101, 8.187027
201.4922, 7.703745
201.9743, 7.100782
202.4565, 6.521986
202.9386, 6.105093
203.4207, 5.852715
203.9028, 5.617596
204.3849, 5.102030
204.8670, 4.649519
205.3492, 4.852884
205.8313, 6.202829
206.3134, 7.747391
206.7955, 8.115656
207.2776, 7.004921
207.7597, 6.135372
208.2419, 6.489628
208.7240, 7.400976
209.2061, 8.337746
209.6882, 9.203012
210.1703, 9.871468
210.6524, 10.05467
211.1346, 9.547850
211.6167, 9.244547
212.0988, 9.053301
212.5809, 8.991943
213.0630, 8.947210
213.5451, 8.886015
214.0273, 8.770472
214.5094, 8.520639
214.9915, 8.144575
215.4736, 7.591129
215.9557, 6.781427
216.4378, 5.856945
216.9200, 4.876934
217.4021, 3.861765
217.8842, 3.068474
218.3663, 2.707495
218.8484, 2.909586
219.3305, 3.447912
219.8127, 4.819498
220.2948, 6.242781
220.7769, 6.933102
221.2590, 6.525074
221.7411, 5.372406
222.2232, 4.583719
222.7054, 4.951242
223.1875, 4.717314
223.6696, 2.661612
224.1517, 0.3412800
224.6338, 8.3384998E-02
225.1159, 2.363512
225.5980, 6.439127
226.0802, 8.421389
226.5623, 5.925201
227.0444, 4.103043
227.5265, 3.711708
228.0086, 4.096212
228.4907, 4.431347
228.9729, 4.361183
229.4550, 4.099655
229.9371, 4.207233
230.4192, 4.882164
230.9013, 5.587040
231.3834, 6.326878
231.8656, 7.017260
232.3477, 7.589073
232.8298, 8.110079
233.3119, 8.415205
233.7940, 8.070261
234.2761, 6.881699
234.7583, 5.702362
235.2404, 4.658955
235.7225, 3.775510
236.2046, 3.022947
236.6867, 2.316229
237.1688, 1.908201
237.6510, 2.515526
238.1331, 4.372076
238.6152, 5.679353
239.0973, 5.374018
239.5794, 4.118059
240.0615, 3.391038
240.5437, 3.724562
241.0258, 4.406086
241.5079, 4.392959
241.9900, 3.689030
242.4721, 3.192941
242.9542, 3.349867
243.4364, 3.996547
243.9185, 4.858063
244.4006, 6.164732
244.8827, 7.121938
245.3648, 6.802952
245.8469, 5.366266
246.3290, 3.787487
246.8112, 1.995071
247.2933, 0.3787890
247.7754, 0.4041770
248.2575, 3.266257
248.7396, 6.086479
249.2217, 6.136410
249.7039, 4.211235
250.1860, 2.855787
250.6681, 4.245718
251.1502, 7.441341
251.6323, 8.529808
252.1144, 6.175550
252.5966, 3.566113
253.0787, 2.836790
253.5608, 3.322291
254.0429, 3.486070
254.5250, 1.936446
255.0071, 0.6375860
255.4893, 1.406280
255.9714, 0.6833270
256.4535, 2.978557
256.9356, 4.456435
257.4177, 5.283637
257.8998, 5.706491
258.3820, 5.770241
258.8641, 5.561704
259.3462, 5.405973
259.8283, 5.448570
260.3104, 5.284892
260.7925, 4.560650
261.2747, 3.646683
261.7568, 3.093359
262.2389, 3.252262
262.7210, 3.788718
263.2031, 3.641009
263.6852, 2.129231
264.1674, 1.102113
264.6495, 1.276261
265.1316, 1.964232
265.6137, 2.512217
266.0958, 2.652695
266.5779, 2.398854
267.0601, 1.655970
267.5422, 0.2666660
268.0243, 1.377818
268.5064, 0.9575870
268.9885, 2.5495000E-02
269.4706, 0.7709840
269.9528, 0.9936490
270.4349, 0.8849080
270.9170, 0.6522340
271.3991, 0.1396270
271.8812, 0.1973700
272.3633, 1.444494
272.8455, 3.180817
273.3276, 3.506464
273.8097, 2.178791
274.2918, 0.3919210
274.7739, 6.6772997E-02
275.2560, 2.272783
275.7382, 3.682184
276.2202, 3.643062
276.7024, 3.468140
277.1845, 4.304558
277.6666, 6.125718
278.1487, 7.756563
278.6308, 7.641760
279.1129, 5.029410
279.5951, 3.279299
280.0772, 2.735653
280.5593, 2.629686
281.0414, 2.505899
281.5235, 2.365857
282.0056, 2.551512
282.4878, 3.563470
282.9699, 5.666540
283.4520, 6.773692
283.9341, 6.229886
284.4162, 5.553413
284.8983, 5.384566
285.3805, 5.537374
285.8626, 5.468340
286.3447, 4.682495
286.8268, 3.204502
287.3089, 2.397197
287.7910, 2.873798
288.2732, 3.304335
288.7553, 3.186693
289.2374, 2.755110
289.7195, 2.522454
290.2016, 2.818198
290.6837, 3.519003
291.1659, 3.942173
291.6480, 4.259316
292.1301, 4.099443
292.6122, 2.652520
293.0943, 0.8753190
293.5764, 0.3252680
294.0586, 1.757872
294.5407, 4.260321
295.0228, 5.361906
295.5049, 3.256107
295.9870, 1.904761
296.4691, 1.707361
296.9513, 2.218022
297.4334, 3.281597
297.9155, 4.793379
298.3976, 6.089005
298.8797, 5.977680
299.3618, 3.151929
299.8440, 1.334305
300.3261, 0.9997230
300.8082, 1.358810
301.2903, 1.941072
301.7724, 2.595325
302.2545, 3.179570
302.7367, 3.511784
303.2188, 3.490996
303.7009, 3.590487
304.1830, 4.108543
304.6651, 4.496805
305.1472, 4.401983
305.6294, 3.829639
306.1115, 2.898930
306.5936, 1.542581
307.0757, 0.3202390
307.5578, 0.5976740
308.0399, 2.274497
308.5221, 4.886442
309.0042, 5.658877
309.4863, 4.935432
309.9684, 3.679705
310.4505, 2.380087
310.9326, 1.169066
311.4148, 1.085761
311.8969, 3.176866
312.3790, 4.999710
312.8611, 6.063234
313.3432, 6.407444
313.8253, 6.166652
314.3075, 5.212385
314.7896, 3.843760
315.2717, 2.818481
315.7538, 2.141936
316.2359, 1.807664
316.7180, 2.085486
317.2001, 2.589323
317.6823, 2.936749
318.1644, 3.012446
318.6465, 2.861070
319.1286, 2.525667
319.6107, 1.864595
320.0928, 1.367855
320.5750, 0.7485270
321.0571, 0.4773780
321.5392, 1.156429
322.0213, 2.726775
322.5034, 4.423564
322.9855, 5.530575
323.4677, 6.029931
323.9498, 5.847519
324.4319, 4.320310
324.9140, 2.834665
325.3961, 2.174326
325.8782, 2.113420
326.3604, 2.025652
326.8425, 1.399771
327.3246, 0.2683850
327.8067, 0.3305770
328.2888, 0.3753190
328.7709, 9.4280001E-03
329.2531, 0.8904940
329.7352, 2.148938
330.2173, 3.724784
330.6994, 5.625465
331.1815, 7.366404
331.6636, 7.620188
332.1458, 4.431329
332.6279, 2.117231
333.1100, 1.296892
333.5921, 1.178503
334.0742, 1.017049
334.5563, 0.5984690
335.0385, 0.1635470
335.5206, 9.7856998E-02
336.0027, 0.7084880
336.4848, 0.8751840
336.9669, 0.1940900
337.4490, 0.5631270
337.9312, 0.9706910
338.4133, 0.9702120
338.8954, 0.6128790
339.3775, 0.1439790
339.8596, 1.397159
340.3417, 1.828081
340.8239, 0.6474270
341.3060, 0.4189110
341.7881, 0.9422660
342.2702, 0.8781420
342.7523, 0.1199730
343.2344, 1.466399
343.7166, 3.607265
344.1987, 4.950304
344.6808, 4.783886
345.1629, 4.559504
345.6450, 4.181746
346.1271, 3.897725
346.6093, 4.066730
347.0914, 4.798100
347.5735, 5.754456
348.0556, 6.274395
348.5377, 6.065514
349.0198, 5.929066
349.5020, 6.074444
349.9841, 6.132921
350.4662, 5.768163
350.9483, 4.998320
351.4304, 4.159704
351.9125, 3.650352
352.3947, 3.543747
352.8768, 3.242373
353.3589, 2.470267
353.8410, 1.779778
354.3231, 1.258654
354.8052, 0.9743370
355.2874, 1.064000
355.7695, 1.683406
356.2516, 2.692173
356.7337, 3.303790
357.2158, 3.386040
357.6979, 3.198404
358.1800, 2.615107
358.6621, 1.883135
359.1443, 1.215977
359.6264, 0.6943720
360.1085, 0.3684120
360.5906, 0.2756150
361.0727, 0.2816300
361.5548, 0.9113060
362.0370, 3.300550
362.5191, 5.471296
363.0012, 5.927107
363.4833, 4.697795
363.9654, 3.131050
364.4475, 2.632701
364.9297, 3.245892
365.4118, 3.547844
365.8939, 3.147251
366.3760, 2.964643
366.8581, 3.588007
367.3402, 4.703246
367.8224, 5.675097
368.3045, 6.164143
368.7866, 6.224881
369.2687, 5.961243
369.7508, 5.224760
370.2329, 4.490376
370.7151, 3.741410
371.1972, 3.154240
371.6793, 2.947445
372.1614, 3.209117
372.6435, 3.692806
373.1256, 4.240870
373.6078, 4.888905
374.0899, 5.057696
374.5720, 4.179294
375.0541, 3.190714
375.5362, 2.784495
376.0183, 2.974141
376.5005, 3.380794
376.9826, 3.963151
377.4647, 4.698768
377.9468, 4.922478
378.4289, 4.539673
378.9110, 3.895914
379.3932, 2.628286
379.8753, 1.282768
380.3574, 1.096521
380.8395, 3.316733
381.3216, 6.070110
381.8037, 7.021091
382.2859, 6.147024
382.7680, 4.706094
383.2501, 2.704360
383.7322, 0.8188050
384.2143, 0.1271980
384.6964, 0.9650470
385.1786, 1.887177
385.6607, 1.879786
386.1428, 1.321865
386.6249, 1.264586
387.1070, 2.049068
387.5891, 3.019479
388.0713, 3.414741
388.5534, 3.291756
389.0355, 3.062623
389.5176, 2.828774
389.9997, 2.514502
390.4818, 1.760092
390.9640, 0.6240560
391.4461, 0.1723450
391.9282, 1.428769
392.4103, 3.953564
392.8924, 5.309492
393.3745, 4.688046
393.8567, 3.896861
394.3388, 3.576032
394.8209, 3.581780
395.3030, 3.707467
395.7851, 4.003284
396.2672, 4.132473
396.7494, 3.555383
397.2315, 1.637772
397.7136, 0.6845920
398.1957, 1.528128
398.6778, 2.889294
399.1599, 3.817308
399.6420, 4.150401
400.1241, 3.892321
400.6063, 2.910074
401.0884, 1.112606
401.5705, 0.4292350
402.0526, 1.837596
402.5347, 3.109633
403.0168, 3.450133
403.4990, 3.252210
403.9811, 3.268271
404.4632, 3.865847
404.9453, 4.690006
405.4274, 4.838063
405.9095, 3.679635
406.3917, 2.896471
406.8738, 2.623101
407.3559, 2.639616
407.8380, 3.030006
408.3201, 3.652774
408.8022, 3.953126
409.2844, 3.165134
409.7665, 1.157681
410.2486, 0.2640940
410.7307, 1.685365
411.2128, 2.970081
411.6949, 3.291145
412.1771, 3.020375
412.6592, 2.802695
413.1413, 2.956205
413.6234, 3.332078
414.1055, 3.721443
414.5876, 4.327372
415.0698, 4.379397
415.5519, 2.709217
416.0340, 0.9240970
416.5161, 0.4757230
416.9982, 1.484191
417.4803, 2.591601
417.9625, 2.476000
418.4446, 1.356590
418.9267, 0.7689990
419.4088, 0.9969510
419.8909, 1.451797
420.3730, 1.879016
420.8552, 2.237659
421.3373, 2.396575
421.8194, 2.090994
422.3015, 1.795297
422.7836, 2.313166
423.2657, 3.627564
423.7479, 4.411596
424.2300, 3.768275
424.7121, 2.642685
425.1942, 2.665600
425.6763, 4.123549
426.1584, 5.226981
426.6406, 4.894370
427.1227, 3.799418
427.6048, 2.964210
428.0869, 2.534715
428.5690, 2.646743
429.0511, 3.786033
429.5333, 5.884185
430.0154, 6.531359
430.4975, 4.514313
430.9796, 2.178160
431.4617, 0.4504780
431.9438, 0.5560400
432.4260, 0.4146380
432.9081, 1.256139
433.3902, 3.477314
433.8723, 3.844370
434.3544, 0.2564560
434.8365, 1.707118
435.3187, 0.6628170
435.8008, 1.271339
436.2829, 2.404273
436.7650, 2.540202
437.2471, 2.420135
437.7292, 2.736578
438.2114, 3.505961
438.6935, 4.113259
439.1756, 4.664732
439.6577, 4.928388
440.1398, 4.553416
440.6219, 3.951227
441.1040, 3.781025
441.5862, 4.317213
442.0683, 5.016210
442.5504, 4.756837
443.0325, 3.038109
443.5146, 1.894438
443.9967, 2.145156
444.4789, 2.483893
444.9610, 2.051562
445.4431, 1.030231
445.9252, 0.2467320
446.4073, 0.3609030
446.8894, 1.176244
447.3716, 2.075071
447.8537, 3.344101
448.3358, 3.968768
448.8179, 2.814141
449.3000, 1.077415
449.7821, 3.0234000E-02
450.2643, 1.7681999E-02
450.7464, 0.3878950
451.2285, 1.109296
451.7106, 1.988067
452.1927, 2.007707
452.6748, 0.5306400
453.1570, 0.9424690
453.6391, 0.3558150
454.1212, 1.775751
454.6033, 3.002117
455.0854, 1.934699
455.5675, 0.3312010
456.0497, 0.3052740
456.5318, 2.6485000E-02
457.0139, 0.6710610
457.4960, 1.731311
457.9781, 2.810184
458.4602, 2.804947
458.9424, 0.8407950
459.4245, 0.2118290
459.9066, 1.074971
460.3887, 2.995687
460.8708, 3.627959
461.3529, 2.791126
461.8351, 1.812357
462.3172, 1.996202
462.7993, 3.397351
463.2814, 4.212964
463.7635, 3.696891
464.2456, 3.546569
464.7278, 4.603597
465.2099, 6.033806
465.6920, 6.519063
466.1741, 5.569455
466.6562, 4.035083
467.1383, 3.402572
467.6205, 4.052617
468.1026, 4.405240
468.5847, 4.060201
469.0668, 3.721508
469.5489, 3.922205
470.0310, 4.413856
470.5132, 4.479925
470.9953, 3.579351
471.4774, 2.057134
471.9595, 0.6284870
472.4416, 0.8974800
472.9237, 1.606910
473.4059, 0.4322740
473.8880, 1.288015
474.3701, 2.424056
474.8522, 2.844793
475.3343, 2.866246
475.8164, 2.308991
476.2986, 1.534658
476.7807, 1.626860
477.2628, 2.881327
477.7449, 4.031468
478.2270, 3.924726
478.7091, 2.894649
479.1913, 2.416768
479.6734, 2.950293
480.1555, 3.619791
480.6376, 4.007284
481.1197, 4.201640
481.6018, 4.460069
482.0839, 4.884520
482.5660, 5.155204
483.0482, 4.752311
483.5303, 3.369186
484.0124, 2.492577
484.4945, 2.539935
484.9766, 2.701574
485.4587, 2.439333
485.9409, 1.935184
486.4230, 1.760015
486.9051, 2.262035
487.3872, 3.124556
487.8693, 3.386497
488.3514, 2.546606
488.8336, 2.048827
489.3157, 2.061236
489.7978, 2.306936
490.2799, 2.888251
490.7620, 3.671282
491.2441, 4.148714
491.7263, 3.803341
492.2084, 2.838239
492.6905, 2.113936
493.1726, 1.832606
493.6547, 1.869862
494.1368, 2.555825
494.6190, 3.300428
495.1011, 3.360830
495.5832, 2.559601
496.0653, 1.883177
496.5474, 2.206203
497.0295, 3.186918
497.5117, 3.276618
497.9938, 2.075882
498.4759, 0.9115080
498.9580, 1.346282
499.4401, 2.982151
499.9222, 3.625090
500.4044, 2.257732
500.8865, 0.7866870
501.3686, 4.7336999E-02
501.8507, 7.0106000E-02
502.3328, 0.2661860
502.8149, 1.012001
503.2971, 1.958153
503.7792, 2.800625
504.2613, 3.475620
504.7434, 4.315629
505.2255, 5.958271
505.7076, 7.124257
506.1898, 7.031027
506.6719, 6.012851
507.1540, 4.656680
507.6361, 3.232332
508.1182, 2.028002
508.6003, 1.861110
509.0825, 3.297962
509.5646, 4.244407
510.0467, 4.058815
510.5288, 3.704737
511.0109, 3.673967
511.4930, 4.022135
511.9752, 4.388781
512.4573, 4.486627
512.9394, 4.468660
513.4215, 4.850835
513.9036, 5.765869
514.3857, 6.090768
514.8679, 4.804790
515.3500, 3.099545
515.8321, 2.678247
516.3142, 3.745046
516.7963, 4.508234
517.2784, 3.726995
517.7606, 2.416566
518.2427, 2.032566
518.7248, 2.668863
519.2069, 3.467548
519.6890, 3.994921
520.1711, 4.175101
520.6533, 3.569758
521.1354, 0.8571250
521.6175, 0.7712280
522.0996, 0.1401020
522.5817, 1.444901
523.0638, 2.956486
523.5460, 4.075055
524.0281, 4.579361
524.5102, 4.104565
524.9923, 2.700953
525.4744, 2.202797
525.9565, 3.647778
526.4387, 4.661775
526.9208, 4.552397
527.4029, 3.952882
527.8850, 3.486461
528.3671, 3.169061
528.8492, 2.881659
529.3314, 2.776625
529.8135, 2.819552
530.2956, 2.529100
530.7777, 1.659051
531.2598, 1.087818
531.7419, 1.504872
532.2241, 2.405093
532.7062, 3.085431
533.1883, 3.502168
533.6704, 3.507274
534.1525, 2.527182
534.6346, 1.104931
535.1168, 0.6045250
535.5989, 1.377119
536.0810, 2.667236
536.5631, 3.894033
537.0452, 5.061508
537.5273, 5.321673
538.0095, 3.844028
538.4916, 2.473612
538.9737, 2.037334
539.4558, 2.085488
539.9379, 1.699132
540.4200, 0.6450110
540.9022, 0.1291670
541.3843, 0.9835610
541.8664, 4.604609
542.3485, 6.584425
542.8306, 5.352386
543.3127, 4.099989
543.7948, 4.094391
544.2769, 4.627125
544.7590, 4.454454
545.2411, 3.039906
545.7233, 1.399258
546.2054, 0.8967920
546.6875, 1.449730
547.1696, 1.865186
547.6517, 1.953193
548.1339, 1.892800
548.6160, 1.699534
549.0981, 1.460428
549.5802, 1.450474
550.0623, 1.624836
550.5444, 2.143743
551.0266, 3.973885
551.5087, 6.108244
551.9908, 6.084581
552.4729, 3.057189
552.9550, 0.5315970
553.4371, 1.514822
553.9193, 0.7367410
554.4014, 1.778725
554.8835, 0.2739260
555.3656, 0.7810850
555.8477, 0.2171460
556.3298, 2.185256
556.8120, 3.395966
557.2941, 3.239835
557.7762, 2.553282
558.2583, 2.589768
558.7404, 3.482183
559.2225, 3.966759
559.7047, 3.781660
560.1868, 3.475629
560.6689, 3.403385
561.1510, 3.358086
561.6331, 2.863829
562.1152, 1.525750
562.5974, 0.4307280
563.0795, 0.9261140
563.5616, 2.550197
564.0437, 3.643957
564.5258, 3.873601
565.0079, 3.565364
565.4901, 2.878859
565.9722, 1.837274
566.4543, 1.003676
566.9364, 0.2059520
567.4185, 0.1927860
567.9006, 8.7559000E-02
568.3828, 0.7970370
568.8649, 1.669566
569.3470, 2.598065
569.8291, 3.491795
570.3112, 4.283315
570.7933, 4.999579
571.2755, 5.156165
571.7576, 4.156986
572.2397, 3.334439
572.7218, 3.051333
573.2039, 3.080712
573.6860, 3.235123
574.1682, 3.457529
574.6503, 3.570686
575.1324, 3.295046
575.6145, 2.745679
576.0966, 2.429957
576.5787, 2.388747
577.0609, 2.555833
577.5430, 3.053563
578.0251, 3.682637
578.5072, 4.006365
578.9893, 4.058570
579.4714, 3.655359
579.9536, 2.347348
580.4357, 0.8823110
580.9178, 0.2821850
581.3999, 0.6035520
581.8820, 1.148194
582.3641, 1.410296
582.8463, 1.424413
583.3284, 1.408460
583.8105, 1.694880
584.2926, 1.435452
584.7747, 0.5171560
585.2568, 2.196062
585.7390, 1.634433
586.2211, 0.8531840
586.7032, 3.093894
587.1853, 3.347866
587.6674, 2.478865
588.1495, 2.492684
588.6317, 3.610068
589.1138, 4.616079
589.5959, 5.278543
590.0780, 5.482425
590.5601, 4.832243
591.0422, 3.346385
591.5244, 2.564413
592.0065, 3.596797
592.4886, 5.038161
592.9707, 5.602266
593.4528, 5.441129
593.9349, 5.239610
594.4171, 5.301588
594.8992, 5.438900
595.3813, 5.318873
595.8634, 4.864283
596.3455, 4.367970
596.8276, 3.596892
597.3098, 3.032166
597.7919, 2.873228
598.2740, 3.058699
598.7561, 3.538931
599.2382, 4.353767
599.7203, 5.137129
600.2025, 5.380399
600.6846, 5.082816
601.1667, 4.849014
601.6488, 4.894994
602.1309, 4.750399
602.6130, 3.812225
603.0952, 2.487966
603.5773, 1.620202
604.0594, 1.368013
604.5415, 1.476439
605.0236, 1.929224
605.5057, 2.614897
605.9879, 3.681668
606.4700, 5.026701
606.9521, 5.519681
607.4342, 3.998857
607.9163, 0.8746830
608.3984, 0.7297240
608.8806, 0.4952800
609.3627, 1.514314
609.8448, 1.958562
610.3269, 2.195318
610.8090, 2.473752
611.2911, 2.780176
611.7733, 3.087910
612.2554, 3.061018
612.7375, 2.923021
613.2196, 3.348540
613.7017, 4.510783
614.1838, 5.119649
614.6660, 4.603496
615.1481, 3.764064
615.6302, 3.638264
616.1123, 4.165647
616.5944, 4.393272
617.0765, 3.721164
617.5587, 3.073716
618.0408, 3.165676
618.5229, 3.757040
619.0050, 4.359716
619.4871, 4.804395
619.9692, 4.903197
620.4514, 4.336037
620.9335, 2.982576
621.4156, 1.868077
621.8977, 0.8312780
622.3798, 0.2587430
622.8619, 0.4415400
623.3441, 1.039523
623.8262, 1.771535
624.3083, 2.553640
624.7904, 3.156787
625.2725, 3.306647
625.7546, 3.153193
626.2367, 2.979653
626.7188, 2.795001
627.2009, 2.539906
627.6830, 2.030159
628.1652, 1.549625
628.6473, 1.896946
629.1294, 3.437378
629.6115, 4.477184
630.0936, 4.766569
630.5757, 4.476868
631.0579, 3.380167
631.5400, 1.900410
632.0221, 1.064594
632.5042, 1.411699
632.9863, 2.332686
633.4684, 2.666180
633.9506, 2.263882
634.4327, 1.990568
634.9148, 1.669095
635.3969, 1.786875
635.8790, 3.240229
636.3611, 5.084283
636.8433, 5.544357
637.3254, 3.831914
637.8075, 1.805315
638.2896, 0.6028490
638.7717, 8.5992999E-02
639.2538, 0.1681230
639.7360, 0.8072680
640.2181, 1.364316
640.7002, 1.345621
641.1823, 0.9294460
641.6644, 0.8404050
642.1465, 1.144338
642.6287, 1.676932
643.1108, 3.335360
643.5929, 4.472674
644.0750, 3.154352
644.5571, 0.2090440
645.0392, 1.565220
645.5214, 0.4750860
646.0035, 2.090094
646.4856, 3.970529
646.9677, 5.167538
647.4498, 6.053873
647.9319, 6.901671
648.4141, 6.991696
648.8962, 5.017336
649.3783, 1.691395
649.8604, 0.2008810
650.3425, 0.3887920
650.8246, 1.305301
651.3068, 1.721136
651.7889, 1.992919
652.2710, 2.773942
652.7531, 3.998090
653.2352, 4.774613
653.7173, 4.355406
654.1995, 3.020972
654.6816, 1.900327
655.1637, 0.9670310
655.6458, 0.3207540
656.1279, 0.2067550
656.6100, 0.2021030
657.0922, 3.4959000E-02
657.5743, 0.3820310
658.0564, 0.3746100
658.5385, 0.3797100
659.0206, 1.256132
659.5027, 1.709689
659.9849, 1.804827
660.4670, 1.609940
660.9491, 1.125372
661.4312, 0.7999440
661.9133, 1.047104
662.3954, 1.840508
662.8776, 2.786348
663.3597, 4.574070
663.8418, 5.594548
664.3239, 4.934755
664.8060, 4.099006
665.2881, 4.283338
665.7703, 5.334566
666.2524, 6.222572
666.7345, 6.470615
667.2166, 6.139863
667.6987, 5.278433
668.1808, 3.905148
668.6630, 2.740821
669.1451, 2.001832
669.6272, 1.393658
670.1093, 0.4122620
670.5914, 0.8066640
671.0735, 0.8861240
671.5557, 1.812366
672.0378, 3.670919
672.5199, 2.570486
673.0020, 0.5859160
673.4841, 0.2722650
673.9662, 1.702075
674.4484, 2.872346
674.9305, 2.079419
675.4126, 0.1187630
675.8947, 0.1853650
676.3768, 1.634677
676.8589, 3.024347
677.3411, 3.200903
677.8232, 3.109466
678.3053, 3.656490
678.7874, 4.606692
679.2695, 5.088233
679.7516, 4.882932
680.2338, 4.187590
680.7159, 2.412853
681.1980, 0.4928670
681.6801, 0.1748410
682.1622, 1.595326
682.6443, 3.231325
683.1265, 3.874706
683.6086, 3.654505
684.0907, 3.099702
684.5728, 1.684806
685.0549, 1.089996
685.5370, 2.861403
686.0192, 4.341703
686.5013, 3.385462
686.9834, 0.8429590
687.4655, 0.6145250
687.9476, 0.5207060
688.4297, 2.119934
688.9119, 1.896050
689.3940, 0.7630710
689.8761, 1.197965
690.3582, 3.589115
690.8403, 5.709341
691.3224, 5.778046
691.8046, 4.224298
692.2867, 3.072599
692.7688, 2.467248
693.2509, 2.054296
693.7330, 1.853184
694.2151, 1.794578
694.6973, 1.838573
695.1794, 1.990710
695.6615, 2.340929
696.1436, 3.029014
696.6257, 3.573010
697.1078, 3.299823
697.5900, 2.445639
698.0721, 1.826382
698.5542, 1.512496
699.0363, 1.419191
699.5184, 1.553925
700.0005, 1.975259
700.4827, 2.367976
700.9648, 2.588511
701.4469, 3.021193
701.9290, 4.408847
702.4111, 5.314884
702.8932, 4.303528
703.3754, 2.305665
703.8575, 0.8416860
704.3396, 0.5349710
704.8217, 0.9608210
705.3038, 1.927001
705.7859, 3.252502
706.2681, 4.064974
706.7502, 4.269386
707.2323, 4.081233
707.7144, 3.423851
708.1965, 2.611907
708.6786, 2.370478
709.1607, 2.914098
709.6428, 3.362830
710.1249, 3.421183
710.6071, 3.610186
711.0892, 4.527236
711.5713, 5.686176
712.0534, 6.282272
712.5355, 6.044240
713.0176, 5.296077
713.4998, 4.034279
713.9819, 2.394069
714.4640, 1.764122
714.9461, 2.336412
715.4282, 3.210087
715.9103, 4.377178
716.3925, 5.303391
716.8746, 4.859303
717.3567, 2.839415
717.8388, 1.448875
718.3209, 0.8097300
718.8030, 0.9091230
719.2852, 2.572116
719.7673, 4.591793
720.2494, 5.298160
720.7315, 4.369329
721.2136, 2.725144
721.6957, 0.7739990
722.1779, 1.025043
722.6600, 0.6912690
723.1421, 2.053126
723.6242, 4.602383
724.1063, 6.475483
724.5884, 7.474044
725.0706, 6.908537
725.5527, 4.945772
726.0348, 3.924706
726.5169, 4.724148
726.9990, 5.547182
727.4811, 6.004657
727.9633, 6.051420
728.4454, 5.313386
728.9275, 4.039613
729.4096, 3.151736
729.8917, 3.241634
730.3738, 3.886863
730.8560, 4.179914
731.3381, 4.107046
731.8202, 4.201782
732.3023, 4.689799
732.7844, 5.003681
733.2665, 4.560403
733.7487, 3.605149
734.2308, 3.144418
734.7129, 3.522460
735.1950, 3.721276
735.6771, 3.191064
736.1592, 2.697090
736.6414, 2.774919
737.1235, 3.406515
737.6056, 4.584815
738.0877, 6.340005
738.5698, 7.870370
739.0519, 7.942447
739.5341, 6.700226
740.0162, 5.264877
740.4983, 3.520161
740.9804, 2.474908
741.4625, 2.994811
741.9446, 4.187729
742.4268, 4.271058
742.9089, 2.922757
743.3910, 2.234186
743.8731, 3.019629
744.3552, 3.801291
744.8373, 3.714594
745.3195, 3.213578
745.8016, 3.067925
746.2837, 3.412714
746.7658, 4.016396
747.2479, 4.906692
747.7300, 5.781869
748.2122, 5.561388
748.6943, 4.221913
749.1764, 3.424240
749.6585, 3.804213
750.1406, 4.421798
750.6227, 4.276709
751.1049, 3.396524
751.5870, 2.835833
752.0691, 2.893066
752.5512, 2.840445
753.0333, 2.549206
753.5154, 2.097187
753.9976, 1.582658
754.4797, 0.9722470
754.9618, 2.5268000E-02
755.4439, 1.790014
755.9260, 3.182527
756.4081, 2.169404
756.8903, 0.5818030
757.3724, 2.224704
757.8545, 2.377002
758.3366, 2.100368
758.8187, 1.933304
759.3008, 1.928778
759.7830, 2.241632
760.2651, 3.104169
760.7472, 3.737752
761.2293, 4.126355
761.7114, 4.319341
762.1935, 4.017355
762.6757, 3.679172
763.1578, 4.013038
763.6399, 5.151255
764.1220, 6.308504
764.6041, 7.093821
765.0862, 7.459571
765.5684, 7.074162
766.0505, 6.130775
766.5326, 5.667545
767.0147, 6.044788
767.4968, 6.460952
767.9789, 6.007828
768.4611, 4.719785
768.9432, 3.503575
769.4253, 2.354967
769.9074, 1.278899
770.3895, 0.2934960
770.8716, 1.303856
771.3538, 0.6092310
771.8359, 1.290095
772.3180, 2.729817
772.8001, 2.996909
773.2822, 3.065587
773.7643, 3.710323
774.2465, 4.507044
774.7286, 4.902987
775.2107, 4.826197
775.6928, 4.224211
776.1749, 3.017960
776.6570, 1.704399
777.1392, 1.251728
777.6213, 1.735668
778.1034, 2.600397
778.5855, 4.223841
779.0676, 5.480814
779.5497, 5.686178
780.0319, 5.279988
780.5140, 5.035783
780.9961, 5.024947
781.4782, 4.808033
781.9603, 4.044962
782.4424, 3.315415
782.9246, 2.731301
783.4067, 2.492578
783.8888, 3.245722
784.3709, 4.868261
784.8530, 6.031980
785.3351, 5.556609
785.8173, 4.112462
786.2994, 3.064606
786.7815, 2.416375
787.2636, 2.501386
787.7457, 3.694275
788.2278, 4.560518
788.7100, 3.749539
789.1921, 1.801846
789.6742, 0.8965290
790.1563, 1.732392
790.6384, 2.288548
791.1205, 2.509683
791.6026, 2.425631
792.0847, 1.710143
792.5668, 0.8218780
793.0490, 0.5789610
793.5311, 1.209794
794.0132, 1.909445
794.4953, 1.836387
794.9774, 1.484768
795.4595, 1.672652
795.9417, 2.396812
796.4238, 3.674005
796.9059, 5.562054
797.3880, 7.226801
797.8701, 7.672554
798.3522, 6.992513
798.8344, 6.757498
799.3165, 7.662021
799.7986, 7.671191
800.2807, 5.369828
800.7628, 3.062814
801.2449, 2.264971
801.7271, 2.554119
802.2092, 2.671499
802.6913, 2.178183
803.1734, 1.854045
803.6555, 2.401884
804.1376, 3.104337
804.6198, 3.046774
805.1019, 2.439136
805.5840, 2.008203
806.0661, 2.076517
806.5482, 2.591650
807.0303, 3.732233
807.5125, 5.361503
807.9946, 6.028721
808.4767, 5.562862
808.9588, 5.128862
809.4409, 5.202915
809.9230, 5.314296
810.4052, 4.864050
810.8873, 3.851632
811.3694, 3.116047
811.8515, 2.497964
812.3336, 2.367572
812.8157, 3.277816
813.2979, 4.185345
813.7800, 4.220324
814.2621, 3.770639
814.7442, 3.822262
815.2263, 4.802652
815.7084, 5.686944
816.1906, 5.436730
816.6727, 4.558468
817.1548, 3.836415
817.6369, 3.362973
818.1190, 3.267783
818.6011, 3.616092
819.0833, 4.318201
819.5654, 5.368377
820.0475, 6.809303
820.5296, 7.360158
821.0117, 6.802281
821.4938, 5.780286
821.9760, 3.542230
822.4581, 1.716358
822.9402, 2.168512
823.4223, 4.336386
823.9044, 5.542733
824.3865, 4.719584
824.8687, 3.719374
825.3508, 2.982585
825.8329, 2.604076
826.3150, 2.901396
826.7971, 3.629248
827.2792, 4.136579
827.7614, 4.153538
828.2435, 3.959595
828.7256, 3.989146
829.2077, 4.232434
829.6898, 4.109410
830.1719, 3.559906
830.6541, 3.236473
831.1362, 3.420089
831.6183, 3.786463
832.1004, 4.001546
832.5825, 4.063097
833.0646, 3.761794
833.5468, 2.370021
834.0289, 1.768958
834.5110, 3.309968
834.9931, 4.607100
835.4752, 3.517300
835.9573, 1.057038
836.4395, 1.2820000E-03
836.9216, 1.233737
837.4037, 2.899199
837.8858, 4.639606
838.3679, 5.824968
838.8500, 5.531878
839.3322, 4.153771
839.8143, 2.634991
840.2964, 1.341769
840.7785, 0.2774680
841.2606, 0.6283020
841.7427, 1.259717
842.2249, 1.068100
842.7070, 3.1909999E-02
843.1891, 1.382501
843.6712, 3.268338
844.1533, 4.800244
844.6354, 5.176298
845.1176, 4.618348
845.5997, 4.216858
846.0818, 4.561562
846.5639, 4.108956
847.0460, 1.447952
847.5281, 0.4540840
848.0103, 0.1226620
848.4924, 2.161191
848.9745, 4.394409
849.4566, 6.566668
849.9387, 8.132972
850.4208, 9.128861
850.9030, 9.112536
851.3851, 6.832090
851.8672, 3.522764
852.3493, 1.480256
852.8314, 1.130836
853.3135, 1.662467
853.7957, 2.629618
854.2778, 3.568524
854.7599, 3.093946
855.2420, 1.252056
855.7241, 0.4946610
856.2062, 1.219679
856.6884, 2.408179
857.1705, 3.772505
857.6526, 4.920286
858.1347, 5.036382
858.6168, 3.805697
859.0989, 2.963088
859.5811, 2.575536
860.0632, 2.476471
860.5453, 2.899932
861.0274, 3.389891
861.5095, 3.505014
861.9916, 3.296975
862.4738, 3.126171
862.9559, 3.031183
863.4380, 3.249883
863.9201, 3.928073
864.4022, 4.752961
864.8843, 5.569174
865.3665, 6.150086
865.8486, 5.759115
866.3307, 4.124763
866.8128, 2.430858
867.2949, 2.031111
867.7770, 2.718872
868.2592, 3.434375
868.7413, 4.176594
869.2234, 5.027916
869.7055, 6.122203
870.1876, 6.890099
870.6697, 6.847546
871.1519, 6.008170
871.6340, 4.331448
872.1161, 0.5395090
872.5981, 1.633231
873.0803, 0.9961240
873.5624, 0.2090430
874.0445, 1.524901
874.5266, 2.636975
875.0087, 3.083492
875.4908, 2.775163
875.9730, 2.332223
876.4551, 1.584798
876.9372, 1.181430
877.4193, 1.592217
877.9014, 2.554357
878.3835, 4.204350
878.8657, 6.128780
879.3478, 6.866455
879.8299, 5.370884
880.3120, 3.003149
880.7941, 1.164463
881.2762, 4.1012000E-02
881.7584, 0.7826040
882.2405, 3.260794
882.7226, 4.896841
883.2047, 4.509521
883.6868, 3.043704
884.1689, 1.659620
884.6511, 0.3691190
885.1332, 0.2954970
885.6153, 0.1586860
886.0974, 0.1342170
886.5795, 0.5622920
887.0616, 0.9773420
887.5438, 1.276583
888.0259, 1.523066
888.5080, 1.687354
888.9901, 1.909897
889.4722, 1.879209
889.9543, 1.001221
890.4365, 0.4565230
890.9186, 1.193385
891.4007, 2.472166
891.8828, 3.500484
892.3649, 4.044226
892.8470, 3.729778
893.3292, 1.347349
893.8113, 0.7187930
894.2934, 0.4391700
894.7755, 3.242258
895.2576, 5.249355
895.7397, 6.071139
896.2219, 5.808319
896.7040, 4.487906
897.1861, 2.775249
897.6682, 1.518341
898.1503, 0.7283070
898.6324, 0.6406000
899.1146, 1.287994
899.5967, 1.510338
900.0788, 0.8364150
900.5609, 0.1352040
901.0430, 0.1350480
901.5251, 0.7836290
902.0073, 1.843863
902.4894, 4.101719
902.9715, 5.156124
903.4536, 4.188230
903.9357, 2.801030
904.4178, 1.157906
904.9000, 0.2025590
905.3821, 0.3552390
905.8642, 0.8879990
906.3463, 1.894771
906.8284, 2.232560
907.3105, 2.307031
907.7927, 1.970346
908.2748, 1.697187
908.7569, 2.122095
909.2390, 3.071826
909.7211, 3.861014
910.2032, 4.193214
910.6854, 4.239146
911.1675, 4.276510
911.6496, 4.062034
912.1317, 2.703168
912.6138, 0.7109510
913.0959, 0.1021670
913.5781, 1.386243
914.0602, 2.778129
914.5423, 2.529491
915.0244, 1.270313
915.5065, 0.8189010
915.9886, 1.178172
916.4708, 2.395926
916.9529, 4.814371
917.4350, 6.146145
917.9171, 4.736559
918.3992, 2.284628
918.8813, 1.990157
919.3635, 4.381540
919.8456, 4.745852
920.3277, 1.092886
920.8098, 1.314686
921.2919, 0.3593510
921.7740, 1.302663
922.2562, 2.088966
922.7383, 2.087366
923.2204, 1.571381
923.7025, 7.4979998E-03
924.1846, 0.7701890
924.6667, 0.6246850
925.1489, 1.990291
925.6310, 1.811615
926.1131, 0.8755580
926.5952, 0.2190340
927.0773, 5.4634999E-02
927.5594, 0.2325860
928.0416, 0.9121050
928.5237, 1.520048
929.0058, 1.250486
929.4879, 0.8231600
929.9700, 1.847214
930.4521, 3.778484
930.9343, 4.500761
931.4164, 3.128404
931.8985, 1.416169
932.3806, 1.650078
932.8627, 3.173350
933.3448, 3.904719
933.8270, 3.887141
934.3091, 3.482438
934.7912, 2.738218
935.2733, 2.157224
935.7554, 2.117114
936.2375, 2.430744
936.7197, 2.728956
937.2018, 3.115953
937.6839, 2.750163
938.1660, 1.047334
938.6481, 9.7381003E-02
939.1302, 0.9170280
939.6124, 2.361417
940.0945, 3.516690
940.5766, 4.327882
941.0587, 4.259985
941.5408, 2.043112
942.0229, 0.9227680
942.5051, 2.066012
942.9872, 3.200737
943.4693, 3.364702
943.9514, 2.827095
944.4335, 1.679577
944.9156, 9.8890001E-03
945.3978, 0.8387610
945.8799, 3.8430002E-02
946.3620, 1.294993
946.8441, 2.718979
947.3262, 3.816037
947.8083, 3.890777
948.2905, 3.220267
948.7726, 2.510725
949.2547, 2.016457
949.7368, 1.908553
950.2189, 2.707567
950.7010, 3.693077
951.1832, 3.618035
951.6653, 2.951844
952.1474, 3.231126
952.6295, 4.527933
953.1116, 5.717983
953.5938, 6.091982
954.0759, 5.910882
954.5580, 5.676356
955.0400, 5.314862
955.5222, 4.107192
956.0043, 2.034039
956.4864, 0.3757370
956.9685, 0.4466390
957.4506, 0.3240800
957.9327, 1.071831
958.4149, 3.232608
958.8970, 3.716052
959.3791, 1.959293
959.8612, 1.533062
960.3433, 3.310620
960.8254, 4.730229
961.3076, 4.492404
961.7897, 3.440320
962.2718, 2.651564
962.7539, 2.120087
963.2360, 1.600384
963.7181, 0.8770090
964.2003, 0.5574920
964.6824, 1.215347
965.1645, 1.733060
965.6466, 1.266490
966.1287, 0.3665160
966.6108, 5.3760000E-03
967.0930, 0.2752160
967.5751, 0.6438980
968.0572, 0.9637440
968.5393, 1.374862
969.0214, 2.230808
969.5035, 2.957777
969.9857, 2.699956
970.4678, 1.904052
970.9499, 1.970247
971.4320, 3.503591
971.9141, 4.569445
972.3962, 3.356875
972.8784, 1.849490
973.3605, 1.819474
973.8426, 2.674490
974.3247, 3.676860
974.8068, 4.506120
975.2889, 4.680811
975.7711, 3.865255
976.2532, 2.684252
976.7353, 1.475326
977.2174, 0.5662510
977.6995, 0.7974530
978.1816, 1.880613
978.6638, 2.850696
979.1459, 3.741082
979.6280, 3.707916
980.1101, 1.880196
980.5922, 0.3725600
981.0743, 0.1855020
981.5565, 1.935534
982.0386, 2.628987
982.5207, 1.799108
983.0028, 1.632434
983.4849, 3.096178
983.9670, 4.385359
984.4492, 3.309517
984.9313, 0.5824170
985.4134, 0.3507110
985.8955, 0.7283060
986.3776, 2.130022
986.8597, 3.901962
987.3419, 5.188858
987.8240, 5.541854
988.3061, 5.236639
988.7882, 4.505625
989.2703, 3.357156
989.7524, 3.039187
990.2346, 3.935295
990.7167, 4.834435
991.1988, 5.798330
991.6809, 6.453119
992.1630, 6.636336
992.6451, 6.355093
993.1273, 5.498610
993.6094, 3.953820
994.0915, 2.684327
994.5736, 1.706205
995.0557, 0.9789120
995.5378, 0.3573600
996.0200, 0.1669360
996.5021, 0.9000990
996.9842, 2.140857
997.4663, 3.090664
997.9484, 3.631091
998.4305, 3.962845
998.9127, 4.006422
999.3948, 4.008896
999.8769, 4.211957
1000.359, 4.308716
1000.841, 3.746769
1001.323, 2.869605
1001.805, 2.678170
1002.287, 3.559216
1002.770, 4.352936
1003.252, 4.568991
1003.734, 4.371700
1004.216, 3.315356
1004.698, 2.102804
1005.180, 1.466998
1005.662, 1.567733
1006.144, 2.618917
1006.627, 4.881065
1007.109, 6.852653
1007.591, 7.217268
1008.073, 6.682766
1008.555, 5.680442
1009.037, 4.571362
1009.519, 4.199358
1010.001, 4.476766
1010.483, 4.229931
1010.966, 2.722019
1011.448, 0.9312620
1011.930, 0.1273140
1012.412, 0.5732920
1012.894, 0.6919500
1013.376, 0.4150520
1013.858, 0.8190080
1014.340, 2.959404
1014.823, 4.605329
1015.305, 4.778714
1015.787, 4.278272
1016.269, 4.358482
1016.751, 4.857330
1017.233, 5.287206
1017.715, 5.577594
1018.197, 5.245694
1018.679, 4.175402
1019.162, 3.243608
1019.644, 3.214600
1020.126, 2.518789
1020.608, 2.237767
1021.090, 2.249931
1021.572, 1.958648
1022.054, 2.471186
1022.536, 2.906736
1023.018, 2.993556
1023.501, 2.788732
1023.983, 2.220538
1024.465, 1.634036
1024.947, 2.368265
1025.429, 4.618231
1025.911, 5.775071
1026.393, 5.627120
1026.875, 4.951585
1027.358, 3.823891
1027.840, 2.863528
1028.322, 2.702871
1028.804, 3.182415
1029.286, 3.735753
1029.768, 4.538538
1030.250, 4.616074
1030.732, 3.647236
1031.214, 2.783119
1031.697, 2.458163
1032.179, 2.335844
1032.661, 2.066084
1033.143, 1.708352
1033.625, 1.529939
1034.107, 1.324548
1034.589, 1.979223
1035.071, 4.993405
1035.553, 6.003021
1036.036, 1.528790
1036.518, 3.282029
1037.000, 2.855611
1037.482, 1.833189
1037.964, 5.156092
1038.446, 7.133676
1038.928, 7.573163
1039.410, 4.846706
1039.893, 2.790040
1040.375, 3.305759
1040.857, 4.563983
1041.339, 4.704061
1041.821, 3.982824
1042.303, 3.818302
1042.785, 4.783041
1043.267, 5.204893
1043.750, 4.880906
1044.232, 4.273546
1044.714, 2.925158
1045.196, 1.857962
1045.678, 2.658169
1046.160, 4.732226
1046.642, 5.139474
1047.124, 2.305483
1047.606, 0.7559890
1048.089, 2.222881
1048.571, 3.677031
1049.053, 4.012388
1049.535, 3.675778
1050.017, 2.946902
1050.499, 1.971632
1050.981, 1.078523
1051.463, 5.9826002E-02
1051.945, 0.1617770
1052.428, 1.617560
1052.910, 3.012681
1053.392, 2.433093
1053.874, 1.355682
1054.356, 1.185900
1054.838, 1.869864
1055.320, 2.841924
1055.802, 4.128426
1056.285, 5.206440
1056.767, 6.406655
1057.249, 6.963323
1057.731, 5.187561
1058.213, 3.318202
1058.695, 3.867648
1059.177, 6.115896
1059.659, 7.465455
1060.141, 7.249572
1060.624, 6.448686
1061.106, 4.728480
1061.588, 3.323853
1062.070, 3.055697
1062.552, 3.247812
1063.034, 3.462516
1063.516, 3.544623
1063.998, 2.856896
1064.480, 1.073980
1064.963, 0.3719190
1065.445, 3.030838
1065.927, 5.247963
1066.409, 4.564495
1066.891, 2.881775
1067.373, 1.542807
1067.855, 0.9218850
1068.337, 1.623928
1068.820, 3.883717
1069.302, 5.582987
1069.784, 5.352643
1070.266, 4.871008
1070.748, 5.448312
1071.230, 5.876986
1071.712, 4.393854
1072.194, 2.024095
1072.677, 1.293609
1073.159, 2.717944
1073.641, 3.907432
1074.123, 3.507657
1074.605, 3.023905
1075.087, 3.251681
1075.569, 3.699936
1076.051, 3.819351
1076.533, 3.880370
1077.016, 4.512700
1077.498, 5.785847
1077.980, 7.015661
1078.462, 8.496027
1078.944, 9.031169
1079.426, 7.064866
1079.908, 4.880847
1080.390, 4.595729
1080.872, 5.233724
1081.354, 4.913865
1081.837, 3.531919
1082.319, 2.743034
1082.801, 3.379673
1083.283, 4.305175
1083.765, 5.745314
1084.247, 6.497250
1084.729, 4.985785
1085.211, 2.662737
1085.694, 1.400442
1086.176, 1.349030
1086.658, 1.772902
1087.140, 2.638386
1087.622, 3.364331
1088.104, 3.699712
1088.586, 3.833045
1089.068, 3.829402
1089.551, 3.728752
1090.033, 3.457554
1090.515, 3.124060
1090.997, 3.175107
1091.479, 3.949722
1091.961, 4.099080
1092.443, 2.573326
1092.925, 0.9557230
1093.407, 0.3924010
1093.890, 1.046783
1094.372, 0.5070650
1094.854, 0.9883540
1095.336, 2.535711
1095.818, 3.763807
1096.300, 4.427036
1096.782, 3.888707
1097.264, 3.560254
1097.746, 4.298844
1098.229, 5.098584
1098.711, 5.357065
1099.193, 5.076614
1099.675, 4.240101
1100.157, 2.724027
1100.639, 1.635960
1101.121, 1.134580
1101.603, 1.246871
1102.086, 2.717896
1102.568, 4.014607
1103.050, 4.052876
1103.532, 3.404359
1104.014, 2.893810
1104.496, 2.561276
1104.978, 2.023326
1105.460, 0.7414850
1105.943, 5.4866999E-02
1106.425, 0.2169330
1106.907, 0.9543500
1107.389, 2.658316
1107.871, 4.496729
1108.353, 5.887755
1108.835, 6.674369
1109.317, 6.218740
1109.799, 3.716707
1110.281, 1.855818
1110.764, 0.9524980
1111.246, 0.5045380
1111.728, 0.4209690
1112.210, 0.6880730
1112.692, 1.959868
1113.174, 3.449065
1113.656, 2.754723
1114.138, 1.131484
1114.621, 2.572261
1115.103, 0.5725350
1115.585, 2.640793
1116.067, 1.814103
1116.549, 0.9483030
1117.031, 1.905742
1117.513, 3.659077
1117.995, 4.510147
1118.478, 4.441211
1118.960, 4.847927
1119.442, 6.720963
1119.924, 6.490316
1120.406, 2.286839
1120.888, 0.7751400
1121.370, 0.1230620
1121.852, 2.121945
1122.334, 3.850557
1122.817, 4.954421
1123.299, 4.612146
1123.781, 2.106046
1124.263, 1.257613
1124.745, 2.625285
1125.227, 3.990696
1125.709, 4.740111
1126.191, 5.071109
1126.673, 5.053584
1127.156, 4.896631
1127.638, 5.238533
1128.120, 4.937236
1128.602, 4.463520
1129.084, 4.524959
1129.566, 3.472327
1130.048, 3.085926
1130.530, 3.268047
1131.013, 4.088775
1131.495, 4.740172
1131.977, 3.840706
1132.459, 1.835209
1132.941, 0.9214570
1133.423, 1.035844
1133.905, 1.468757
1134.387, 2.122565
1134.870, 2.808586
1135.352, 3.452437
1135.834, 3.995454
1136.316, 4.421269
1136.798, 4.599025
1137.280, 4.084150
1137.762, 3.147809
1138.244, 2.401361
1138.726, 1.944891
1139.208, 2.213631
1139.691, 3.186501
1140.173, 3.907293
1140.655, 3.743262
1141.137, 3.435648
1141.619, 4.189390
1142.101, 3.934678
1142.583, 5.118807
1143.065, 4.328657
1143.548, 4.269319
1144.030, 4.911562
1144.512, 5.357175
1144.994, 5.260376
1145.476, 4.959872
1145.958, 4.522940
1146.440, 4.271911
1146.922, 4.750443
1147.405, 5.439342
1147.887, 5.505395
1148.369, 5.312347
1148.851, 6.063097
1149.333, 7.675350
1149.815, 8.154894
1150.297, 6.183619
1150.779, 3.947615
1151.261, 2.219659
1151.744, 1.177641
1152.226, 1.744236
1152.708, 2.647510
1153.190, 2.145688
1153.672, 0.5997860
1154.154, 0.4915610
1154.636, 0.8023550
1155.118, 0.6396070
1155.600, 0.6389690
1156.083, 1.373670
1156.565, 1.5227000E-02
1157.047, 1.076616
1157.529, 0.3330390
1158.011, 2.804231
1158.493, 3.926510
1158.975, 3.599761
1159.457, 3.227600
1159.940, 1.967104
1160.422, 2.231184
1160.904, 6.228966
1161.386, 8.590321
1161.868, 6.142718
1162.350, 2.946373
1162.832, 2.878955
1163.314, 4.859996
1163.796, 5.396581
1164.279, 4.028433
1164.761, 4.013351
1165.243, 5.985741
1165.725, 7.035688
1166.207, 6.459919
1166.689, 5.319386
1167.171, 4.063172
1167.653, 3.057788
1168.135, 2.913975
1168.618, 3.425446
1169.100, 3.414416
1169.582, 2.887439
1170.064, 2.246927
1170.546, 1.533857
1171.028, 1.278214
1171.510, 1.660007
1171.992, 1.819367
1172.474, 1.024148
1172.957, 1.748123
1173.439, 0.8963260
1173.921, 2.359776
1174.403, 2.878373
1174.885, 2.783805
1175.367, 3.142164
1175.849, 3.975311
1176.331, 4.682649
1176.814, 4.992357
1177.296, 5.111966
1177.778, 5.176441
1178.260, 5.210914
1178.742, 5.385347
1179.224, 5.446657
1179.706, 4.492739
1180.188, 3.174966
1180.671, 3.046809
1181.153, 4.150928
1181.635, 5.069041
1182.117, 5.271055
1182.599, 4.914401
1183.081, 2.976937
1183.563, 1.864024
1184.045, 4.210717
1184.527, 7.070252
1185.010, 7.095137
1185.492, 5.359134
1185.974, 5.035237
1186.456, 6.681852
1186.938, 7.282398
1187.420, 5.460783
1187.902, 3.913471
1188.384, 3.022695
1188.866, 2.541799
1189.349, 2.309354
1189.831, 2.506474
1190.313, 3.645177
1190.795, 5.217582
1191.277, 5.686880
1191.759, 4.612844
1192.241, 4.526157
1192.723, 5.909863
1193.206, 6.595250
1193.688, 6.153825
1194.170, 4.669704
1194.652, 1.833010
1195.134, 0.6736430
1195.616, 0.3271110
1196.098, 2.228179
1196.580, 4.856122
1197.063, 7.330735
1197.545, 6.916259
1198.027, 3.778684
1198.509, 1.139420
1198.991, 4.8560002E-03
1199.473, 0.4176240
1199.955, 2.662476
1200.437, 4.812203
1200.919, 3.529728
1201.401, 4.862075
1201.884, 4.972987
1202.366, 4.472582
1202.848, 5.254895
1203.330, 4.582386
1203.812, 4.746865
1204.294, 6.338535
1204.776, 7.740675
1205.258, 8.056826
1205.741, 7.838530
1206.223, 7.021993
1206.705, 6.239674
1207.187, 6.206320
1207.669, 6.321168
1208.151, 5.866790
1208.633, 4.873687
1209.115, 3.448320
1209.598, 1.283235
1210.080, 0.6080640
1210.562, 3.377057
1211.044, 5.254106
1211.526, 4.674629
1212.008, 3.911623
1212.490, 4.327932
1212.972, 4.742341
1213.454, 3.402591
1213.937, 0.8883470
1214.419, 0.3136730
1214.901, 2.103050
1215.383, 3.545565
1215.865, 4.574514
1216.347, 5.109223
1216.829, 5.085289
1217.311, 5.036044
1217.793, 5.150234
1218.276, 5.526789
1218.758, 6.549049
1219.240, 7.461264
1219.722, 5.208034
1220.204, 1.103982
1220.686, 0.2392130
1221.168, 2.157139
1221.650, 3.538367
1222.133, 3.635818
1222.615, 3.702637
1223.097, 4.466083
1223.579, 5.214375
1224.061, 5.460422
1224.543, 5.206244
1225.025, 4.004250
1225.507, 2.676407
1225.990, 2.296278
1226.472, 2.485079
1226.954, 2.136344
1227.436, 1.205711
1227.918, 1.201566
1228.400, 3.258186
1228.882, 4.601046
1229.364, 4.051858
1229.846, 3.375599
1230.328, 3.576162
1230.811, 3.559553
1231.293, 2.127791
1231.775, 0.1489530
1232.257, 0.8422580
1232.739, 0.8464170
1233.221, 0.2520460
1233.703, 2.945585
1234.185, 4.467643
1234.668, 4.412990
1235.150, 4.264206
1235.632, 4.466130
1236.114, 5.187785
1236.596, 6.716197
1237.078, 8.031200
1237.560, 6.859091
1238.042, 7.155327
1238.525, 6.341146
1239.007, 4.882813
1239.489, 4.012695
1239.971, 1.535638
1240.453, 0.3017050
1240.935, 0.5921630
1241.417, 0.2688810
1241.899, 2.512953
1242.381, 4.329446
1242.864, 3.805365
1243.346, 2.846774
1243.828, 3.021017
1244.310, 3.678576
1244.792, 4.260913
1245.274, 4.582338
1245.756, 4.450024
1246.238, 3.834732
1246.720, 2.810979
1247.203, 0.1312470
1247.685, 0.8660110
1248.167, 1.490192
1248.649, 3.331761
1249.131, 3.093090
1249.613, 2.669935
1250.095, 3.703116
1250.577, 3.339105
1251.059, 3.382658
1251.542, 3.695935
1252.024, 3.150343
1252.506, 3.509887
1252.988, 3.422112
1253.470, 2.853047
1253.952, 3.118958
1254.434, 4.543344
1254.916, 5.509544
1255.399, 4.863767
1255.881, 3.440347
1256.363, 1.847275
1256.845, 0.4939230
1257.327, 3.9478999E-02
1257.809, 0.1012240
1258.291, 0.9234370
1258.773, 1.979997
1259.255, 3.030937
1259.738, 4.089947
1260.220, 4.721922
1260.702, 4.749899
1261.184, 4.568030
1261.666, 4.216982
1262.148, 3.794143
1262.630, 2.965683
1263.112, 2.250915
1263.594, 2.706968
1264.077, 3.746174
1264.559, 4.927686
1265.041, 6.129155
1265.523, 6.133433
1266.005, 4.624671
1266.487, 3.566100
1266.969, 3.637624
1267.451, 3.699222
1267.934, 3.534070
1268.416, 2.898083
1268.898, 1.598475
1269.380, 0.7923000
1269.862, 2.212648
1270.344, 4.374937
1270.826, 4.547944
1271.308, 3.314281
1271.791, 1.671499
1272.273, 0.3662670
1272.755, 0.9130600
1273.237, 2.821889
1273.719, 3.137609
1274.201, 0.6844560
1274.683, 0.4204950
1275.165, 3.346449
1275.647, 6.335941
1276.130, 5.747826
1276.612, 4.609949
1277.094, 4.883453
1277.576, 5.247087
1278.058, 4.025735
1278.540, 4.336640
1279.022, 3.980238
1279.504, 3.334089
1279.986, 3.152076
1280.469, 2.036442
1280.951, 1.549759
1281.433, 2.009109
1281.915, 1.944254
1282.397, 0.8278170
1282.879, 1.7301001E-02
1283.361, 0.2068670
1283.843, 1.132704
1284.326, 0.6727090
1284.808, 0.0000000E+00
##END=



