##NAMES=Altaite
##RRUFFID=R060939
##IDEAL CHEMISTRY=Pb^2+^Te^2-^
##LOCALITY=870 Level, Mattagami mine, Matagami, Quebec, Canada
##OWNER=Michael Scott
##SOURCE=Michael Scott
##DESCRIPTION=Gray metallic crystals with excellent cleavage
##STATUS=The identification of this mineral is confirmed by single-crystal X-ray diffraction and chemical analysis.
##URL=rruff.info/R060939
##MEASURED CHEMISTRY=Pb_1.00_Te_1.00_
8.936163e+001, 0.000000e+000
8.984375e+001, 1.091653e-001
9.032587e+001, 2.900083e-001
9.080798e+001, 3.197872e-001
9.129010e+001, 1.247579e-001
9.177222e+001, -1.352430e-001
9.225433e+001, -2.805315e-001
9.273645e+001, -3.156453e-001
9.321857e+001, -2.770620e-001
9.370068e+001, -9.789831e-002
9.418280e+001, 1.530599e-001
9.466492e+001, 2.373232e-001
9.514703e+001, -5.265784e-002
9.562915e+001, -5.404537e-001
9.611127e+001, -6.913246e-001
9.659338e+001, -4.597640e-001
9.707550e+001, -1.127186e-001
9.755762e+001, 2.841770e-002
9.803973e+001, -3.976384e-002
9.852185e+001, -1.226469e-001
9.900397e+001, -1.419454e-001
9.948608e+001, -9.618092e-002
9.996820e+001, -4.691011e-002
1.004503e+002, 1.314652e-002
1.009324e+002, 6.859446e-002
1.014146e+002, 7.330958e-002
1.018967e+002, 2.479574e-004
1.023788e+002, -4.626191e-002
1.028609e+002, 1.230619e-002
1.033430e+002, 2.374744e-001
1.038251e+002, 3.612213e-001
1.043073e+002, 3.246610e-001
1.047894e+002, 1.658049e-001
1.052715e+002, 8.849735e-002
1.057536e+002, 1.484955e-001
1.062357e+002, 2.278616e-001
1.067178e+002, 2.467771e-001
1.072000e+002, 1.892888e-001
1.076821e+002, 9.192331e-002
1.081642e+002, -8.319604e-002
1.086463e+002, -3.513939e-001
1.091284e+002, -4.836670e-001
1.096105e+002, -3.894886e-001
1.100927e+002, -1.981467e-001
1.105748e+002, -3.102909e-002
1.110569e+002, 5.935564e-002
1.115390e+002, 1.729201e-001
1.120211e+002, 3.788798e-001
1.125032e+002, 7.571846e-001
1.129854e+002, 9.349968e-001
1.134675e+002, 6.949388e-001
1.139496e+002, 2.561673e-001
1.144317e+002, -6.763895e-002
1.149138e+002, -1.421744e-001
1.153959e+002, -1.290288e-001
1.158781e+002, -8.600697e-002
1.163602e+002, 1.613256e-002
1.168423e+002, 6.855459e-002
1.173244e+002, -1.538524e-002
1.178065e+002, -1.839371e-001
1.182886e+002, -3.054026e-001
1.187708e+002, -2.727650e-001
1.192529e+002, -1.971006e-001
1.197350e+002, -1.734212e-001
1.202171e+002, -3.077977e-001
1.206992e+002, -4.012733e-001
1.211813e+002, -2.783259e-001
1.216635e+002, 2.434209e-002
1.221456e+002, 3.022336e-001
1.226277e+002, 4.947466e-001
1.231098e+002, 5.712118e-001
1.235919e+002, 4.853431e-001
1.240740e+002, -1.207600e-002
1.245562e+002, -5.391495e-001
1.250383e+002, -6.308756e-001
1.255204e+002, -2.908916e-001
1.260025e+002, 1.278972e-001
1.264846e+002, 3.856221e-001
1.269667e+002, 4.931196e-001
1.274489e+002, 4.775113e-001
1.279310e+002, 2.654682e-001
1.284131e+002, -4.813500e-002
1.288952e+002, -2.898322e-001
1.293773e+002, -4.568130e-001
1.298594e+002, -5.449436e-001
1.303416e+002, -5.374562e-001
1.308237e+002, -4.402608e-001
1.313058e+002, -2.959119e-001
1.317879e+002, -8.994101e-002
1.322700e+002, 1.568193e-001
1.327521e+002, 3.504978e-001
1.332343e+002, 4.940131e-001
1.337164e+002, 5.641660e-001
1.341985e+002, 4.714566e-001
1.346806e+002, 2.007194e-001
1.351627e+002, -3.290643e-002
1.356448e+002, -3.802029e-002
1.361270e+002, 1.900439e-001
1.366091e+002, 2.994261e-001
1.370912e+002, 2.078973e-001
1.375733e+002, -1.206129e-002
1.380554e+002, -9.790767e-002
1.385375e+002, -1.635012e-003
1.390197e+002, 8.817812e-002
1.395018e+002, -2.166948e-002
1.399839e+002, -4.098144e-001
1.404660e+002, -6.366470e-001
1.409481e+002, -5.617068e-001
1.414302e+002, -2.198859e-001
1.419124e+002, -9.796795e-002
1.423945e+002, -3.166409e-001
1.428766e+002, -5.887507e-001
1.433587e+002, -5.910249e-001
1.438408e+002, -1.116657e-001
1.443229e+002, 1.971661e-001
1.448051e+002, 1.256648e-001
1.452872e+002, -4.088358e-001
1.457693e+002, -6.997651e-001
1.462514e+002, -6.514993e-001
1.467335e+002, -4.248962e-001
1.472156e+002, -2.164991e-001
1.476978e+002, 1.220565e-003
1.481799e+002, 1.637119e-001
1.486620e+002, 2.494003e-001
1.491441e+002, 2.324319e-001
1.496262e+002, 2.058457e-001
1.501083e+002, 1.343939e-001
1.505905e+002, 5.916121e-002
1.510726e+002, 5.318132e-002
1.515547e+002, 2.463781e-001
1.520368e+002, 3.967358e-001
1.525189e+002, 4.175477e-001
1.530010e+002, 1.746400e-001
1.534832e+002, 3.311256e-002
1.539653e+002, 8.135869e-002
1.544474e+002, 2.503956e-001
1.549295e+002, 3.746121e-001
1.554116e+002, 4.341622e-001
1.558937e+002, 4.442128e-001
1.563759e+002, 4.063829e-001
1.568580e+002, 2.610589e-001
1.573401e+002, 1.487553e-001
1.578222e+002, 1.150946e-001
1.583043e+002, 1.409974e-001
1.587864e+002, 1.561112e-001
1.592686e+002, 1.296109e-001
1.597507e+002, 9.321897e-002
1.602328e+002, 6.697585e-002
1.607149e+002, 4.485422e-002
1.611970e+002, 4.432469e-002
1.616791e+002, 9.295452e-002
1.621613e+002, 1.797417e-001
1.626434e+002, 2.363660e-001
1.631255e+002, 1.896342e-001
1.636076e+002, 1.192076e-001
1.640897e+002, 9.604900e-002
1.645718e+002, 2.095727e-001
1.650540e+002, 3.206674e-001
1.655361e+002, 3.629691e-001
1.660182e+002, 3.369482e-001
1.665003e+002, 2.738023e-001
1.669824e+002, 1.228624e-001
1.674645e+002, -3.854836e-002
1.679467e+002, -1.135119e-001
1.684288e+002, 6.329703e-002
1.689109e+002, 2.505521e-001
1.693930e+002, 2.296384e-001
1.698751e+002, -1.662269e-002
1.703572e+002, -2.210816e-001
1.708394e+002, -1.230567e-001
1.713215e+002, 1.332105e-001
1.718036e+002, 3.026184e-001
1.722857e+002, 2.070927e-001
1.727678e+002, 1.190174e-002
1.732499e+002, -1.274276e-001
1.737321e+002, -1.996462e-001
1.742142e+002, -2.342532e-001
1.746963e+002, -2.721247e-001
1.751784e+002, -2.949357e-001
1.756605e+002, -2.590240e-001
1.761426e+002, -7.491836e-002
1.766248e+002, 1.581445e-001
1.771069e+002, 3.121345e-001
1.775890e+002, 3.768429e-001
1.780711e+002, 3.577283e-001
1.785532e+002, 2.158370e-001
1.790353e+002, -1.950983e-002
1.795175e+002, -2.375951e-001
1.799996e+002, -3.813204e-001
1.804817e+002, -4.656452e-001
1.809638e+002, -5.183545e-001
1.814459e+002, -5.382892e-001
1.819280e+002, -5.388872e-001
1.824102e+002, -5.338526e-001
1.828923e+002, -5.238100e-001
1.833744e+002, -5.120922e-001
1.838565e+002, -4.955730e-001
1.843386e+002, -4.785278e-001
1.848207e+002, -4.844660e-001
1.853029e+002, -5.350344e-001
1.857850e+002, -5.755236e-001
1.862671e+002, -4.690487e-001
1.867492e+002, -2.250777e-001
1.872313e+002, -3.172832e-002
1.877134e+002, -9.219265e-002
1.881956e+002, -3.414782e-001
1.886777e+002, -4.527731e-001
1.891598e+002, -3.357902e-001
1.896419e+002, -1.004956e-001
1.901240e+002, 1.497677e-002
1.906061e+002, 7.404754e-003
1.910883e+002, -2.580674e-002
1.915704e+002, -6.039044e-003
1.920525e+002, 6.031156e-002
1.925346e+002, 1.075776e-001
1.930167e+002, 1.219918e-001
1.934988e+002, 1.115415e-001
1.939810e+002, 9.223066e-002
1.944631e+002, 6.231160e-002
1.949452e+002, 3.877170e-002
1.954273e+002, 2.717417e-002
1.959094e+002, 2.731111e-002
1.963915e+002, 7.084976e-002
1.968737e+002, 1.938240e-001
1.973558e+002, 3.524394e-001
1.978379e+002, 3.700929e-001
1.983200e+002, 2.243581e-001
1.988021e+002, 4.745374e-002
1.992842e+002, -3.460426e-002
1.997664e+002, -1.750118e-002
2.002485e+002, -2.061575e-002
2.007306e+002, -8.064814e-002
2.012127e+002, -1.811148e-001
2.016948e+002, -2.184618e-001
2.021769e+002, -1.737207e-001
2.026591e+002, -1.263832e-001
2.031412e+002, -1.909264e-001
2.036233e+002, -4.000394e-001
2.041054e+002, -4.700627e-001
2.045875e+002, -2.698312e-001
2.050696e+002, 1.511303e-001
2.055518e+002, 3.082002e-001
2.060339e+002, 1.319537e-001
2.065160e+002, -1.433410e-001
2.069981e+002, -2.737116e-001
2.074802e+002, -2.303009e-001
2.079623e+002, -1.787646e-001
2.084445e+002, -1.635441e-001
2.089266e+002, -1.816078e-001
2.094087e+002, -1.449367e-001
2.098908e+002, -1.879335e-002
2.103729e+002, 1.000886e-001
2.108550e+002, 7.698347e-002
2.113372e+002, -1.498789e-001
2.118193e+002, -2.942842e-001
2.123014e+002, -2.466727e-001
2.127835e+002, -7.007332e-003
2.132656e+002, 7.807536e-002
2.137477e+002, -5.888668e-002
2.142299e+002, -2.540243e-001
2.147120e+002, -3.029512e-001
2.151941e+002, -1.526117e-001
2.156762e+002, -6.206328e-003
2.161583e+002, 9.765534e-002
2.166404e+002, 1.600668e-001
2.171226e+002, 1.401035e-001
2.176047e+002, -1.646331e-002
2.180868e+002, -1.910219e-001
2.185689e+002, -2.208934e-001
2.190510e+002, -1.932594e-002
2.195331e+002, 1.190938e-001
2.200153e+002, 9.375581e-002
2.204974e+002, -1.197041e-001
2.209795e+002, -2.236846e-001
2.214616e+002, -1.899128e-001
2.219437e+002, -7.923796e-002
2.224258e+002, 5.004262e-002
2.229080e+002, 2.390933e-001
2.233901e+002, 3.553560e-001
2.238722e+002, 3.433641e-001
2.243543e+002, 1.842599e-001
2.248364e+002, 6.725541e-002
2.253185e+002, 9.694937e-003
2.258007e+002, -2.096262e-002
2.262828e+002, -7.108994e-002
2.267649e+002, -1.670711e-001
2.272470e+002, -2.297322e-001
2.277291e+002, -2.337770e-001
2.282112e+002, -1.734789e-001
2.286934e+002, -9.832944e-002
2.291755e+002, 2.897358e-003
2.296576e+002, 1.091858e-001
2.301397e+002, 1.982495e-001
2.306218e+002, 2.963399e-001
2.311039e+002, 3.273499e-001
2.315861e+002, 2.370523e-001
2.320682e+002, -1.441984e-002
2.325503e+002, -1.015934e-001
2.330324e+002, 8.455733e-002
2.335145e+002, 3.424525e-001
2.339966e+002, 4.072490e-001
2.344788e+002, 1.635119e-001
2.349609e+002, -6.939737e-002
2.354430e+002, -2.202027e-001
2.359251e+002, -2.881804e-001
2.364072e+002, -2.778976e-001
2.368893e+002, -1.644834e-001
2.373715e+002, 6.285267e-003
2.378536e+002, 1.990989e-001
2.383357e+002, 5.192572e-001
2.388178e+002, 6.740208e-001
2.392999e+002, 5.151049e-001
2.397820e+002, -3.155559e-002
2.402642e+002, -3.027998e-001
2.407463e+002, -1.636637e-001
2.412284e+002, 1.367964e-001
2.417105e+002, 3.016194e-001
2.421926e+002, 2.961284e-001
2.426747e+002, 2.153990e-001
2.431569e+002, 4.780745e-002
2.436390e+002, -2.324437e-001
2.441211e+002, -3.860518e-001
2.446032e+002, -3.784293e-001
2.450853e+002, -2.775488e-001
2.455674e+002, -1.452937e-001
2.460496e+002, 8.487552e-002
2.465317e+002, 2.216640e-001
2.470138e+002, 1.992543e-001
2.474959e+002, -1.205953e-004
2.479780e+002, -1.594495e-001
2.484601e+002, -2.819172e-001
2.489423e+002, -3.634726e-001
2.494244e+002, -3.995701e-001
2.499065e+002, -3.890422e-001
2.503886e+002, -3.324529e-001
2.508707e+002, -2.006692e-001
2.513528e+002, 1.321199e-002
2.518350e+002, 1.102630e-001
2.523171e+002, 1.960159e-002
2.527992e+002, -1.116569e-001
2.532813e+002, -1.223137e-001
2.537634e+002, 5.971511e-002
2.542455e+002, 2.064116e-001
2.547277e+002, 2.712396e-001
2.552098e+002, 2.532969e-001
2.556919e+002, 2.050530e-001
2.561740e+002, 1.130089e-001
2.566561e+002, 7.699973e-003
2.571382e+002, -8.266418e-002
2.576204e+002, -1.597498e-001
2.581025e+002, -2.209449e-001
2.585846e+002, -2.722932e-001
2.590667e+002, -3.124209e-001
2.595488e+002, -2.977353e-001
2.600309e+002, -2.147784e-001
2.605131e+002, -9.750377e-002
2.609952e+002, 4.058649e-002
2.614773e+002, 2.405737e-001
2.619594e+002, 3.448476e-001
2.624415e+002, 2.982652e-001
2.629236e+002, 1.186709e-001
2.634058e+002, -1.033372e-002
2.638879e+002, -9.087812e-002
2.643700e+002, -1.197155e-001
2.648521e+002, -7.857185e-002
2.653342e+002, 6.588430e-002
2.658163e+002, 1.621958e-001
2.662985e+002, 1.656423e-001
2.667806e+002, 1.001058e-001
2.672627e+002, 1.266597e-001
2.677448e+002, 3.069426e-001
2.682269e+002, 4.493227e-001
2.687090e+002, 3.746732e-001
2.691912e+002, 5.005112e-003
2.696733e+002, -2.439439e-001
2.701554e+002, -2.921226e-001
2.706375e+002, -1.905946e-001
2.711196e+002, -1.375101e-001
2.716017e+002, -1.401180e-001
2.720839e+002, -1.708765e-001
2.725660e+002, -2.327392e-001
2.730481e+002, -3.432105e-001
2.735302e+002, -3.612701e-001
2.740123e+002, -2.363625e-001
2.744944e+002, -3.431351e-002
2.749766e+002, 3.934275e-002
2.754587e+002, -4.458934e-002
2.759408e+002, -1.429122e-001
2.764229e+002, -1.518059e-001
2.769050e+002, -5.966661e-002
2.773871e+002, -3.917998e-002
2.778693e+002, -1.349960e-001
2.783514e+002, -2.717670e-001
2.788335e+002, -2.488594e-001
2.793156e+002, -3.288205e-002
2.797977e+002, 1.462519e-001
2.802798e+002, 1.182357e-001
2.807620e+002, -1.183563e-001
2.812441e+002, -2.373652e-001
2.817262e+002, -2.056993e-001
2.822083e+002, -8.292503e-002
2.826904e+002, 5.296081e-002
2.831725e+002, 2.064706e-001
2.836547e+002, 3.091061e-001
2.841368e+002, 2.981863e-001
2.846189e+002, 1.861925e-001
2.851010e+002, 1.265520e-001
2.855831e+002, 1.312418e-001
2.860652e+002, 1.639963e-001
2.865474e+002, 2.077682e-001
2.870295e+002, 2.605036e-001
2.875116e+002, 2.162853e-001
2.879937e+002, -6.953497e-002
2.884758e+002, -5.291328e-001
2.889579e+002, -7.215465e-001
2.894401e+002, -6.181597e-001
2.899222e+002, -4.140972e-001
2.904043e+002, -3.491986e-001
2.908864e+002, -4.055804e-001
2.913685e+002, -4.384317e-001
2.918506e+002, -3.742700e-001
2.923328e+002, -2.478821e-001
2.928149e+002, -1.521709e-001
2.932970e+002, -8.521688e-002
2.937791e+002, -6.272361e-002
2.942612e+002, -1.487346e-001
2.947433e+002, -3.077691e-001
2.952255e+002, -3.925371e-001
2.957076e+002, -3.141941e-001
2.961897e+002, -1.535537e-001
2.966718e+002, -7.024921e-002
2.971539e+002, -6.296106e-002
2.976360e+002, -7.676709e-002
2.981182e+002, -4.505369e-002
2.986003e+002, 2.311733e-003
2.990824e+002, -2.397011e-002
2.995645e+002, -2.194727e-001
3.000466e+002, -4.213546e-001
3.005287e+002, -3.239547e-001
3.010109e+002, 2.802476e-002
3.014930e+002, 3.204617e-001
3.019751e+002, 2.415987e-001
3.024572e+002, -3.604905e-002
3.029393e+002, -2.174544e-001
3.034214e+002, -2.233090e-001
3.039036e+002, -1.480617e-001
3.043857e+002, -5.342948e-002
3.048678e+002, 4.717377e-002
3.053499e+002, 1.058287e-001
3.058320e+002, 6.901097e-002
3.063141e+002, -1.767048e-002
3.067963e+002, -1.106219e-001
3.072784e+002, -2.189788e-001
3.077605e+002, -2.873915e-001
3.082426e+002, -2.552886e-001
3.087247e+002, -1.466862e-001
3.092068e+002, -1.917407e-002
3.096890e+002, 1.490736e-001
3.101711e+002, 2.942321e-001
3.106532e+002, 3.394434e-001
3.111353e+002, 2.566780e-001
3.116174e+002, 1.794604e-001
3.120995e+002, 2.481145e-001
3.125817e+002, 3.712518e-001
3.130638e+002, 4.026464e-001
3.135459e+002, 1.483818e-001
3.140280e+002, -1.155912e-001
3.145101e+002, -1.935612e-001
3.149922e+002, -6.108598e-002
3.154744e+002, 5.858737e-002
3.159565e+002, 1.795381e-002
3.164386e+002, -7.951159e-002
3.169207e+002, -1.156072e-001
3.174028e+002, 5.096571e-002
3.178849e+002, 1.901181e-001
3.183671e+002, 1.941403e-001
3.188492e+002, 6.702159e-002
3.193313e+002, -7.038662e-002
3.198134e+002, -2.209239e-001
3.202955e+002, -3.435941e-001
3.207776e+002, -4.043890e-001
3.212598e+002, -3.697363e-001
3.217419e+002, -3.018886e-001
3.222240e+002, -1.931616e-001
3.227061e+002, -5.431334e-002
3.231882e+002, 5.942760e-002
3.236703e+002, 1.661763e-001
3.241525e+002, 2.254224e-001
3.246346e+002, 2.104782e-001
3.251167e+002, 2.479251e-002
3.255988e+002, -1.062242e-001
3.260809e+002, -1.209214e-001
3.265630e+002, -6.302865e-002
3.270452e+002, -5.247016e-002
3.275273e+002, -1.531918e-001
3.280094e+002, -2.531079e-001
3.284915e+002, -3.145936e-001
3.289736e+002, -3.287207e-001
3.294557e+002, -3.233175e-001
3.299379e+002, -3.044505e-001
3.304200e+002, -2.638410e-001
3.309021e+002, -1.844694e-001
3.313842e+002, -6.357224e-003
3.318663e+002, 1.317966e-001
3.323484e+002, 1.877544e-001
3.328306e+002, 1.498617e-001
3.333127e+002, 9.831379e-002
3.337948e+002, 1.852833e-002
3.342769e+002, -6.206068e-002
3.347590e+002, -1.097120e-001
3.352411e+002, -1.086007e-001
3.357233e+002, -1.114819e-001
3.362054e+002, -1.334364e-001
3.366875e+002, -1.723413e-001
3.371696e+002, -1.963492e-001
3.376517e+002, -2.179995e-001
3.381339e+002, -2.011029e-001
3.386160e+002, -9.026875e-002
3.390981e+002, 1.498725e-001
3.395802e+002, 3.058401e-001
3.400623e+002, 3.267747e-001
3.405444e+002, 2.513043e-001
3.410266e+002, 2.089988e-001
3.415087e+002, 2.056033e-001
3.419908e+002, 2.047054e-001
3.424729e+002, 1.782111e-001
3.429550e+002, 1.265555e-001
3.434371e+002, 8.648439e-002
3.439193e+002, 5.616691e-002
3.444014e+002, 4.815895e-002
3.448835e+002, 1.131358e-001
3.453656e+002, 2.502252e-001
3.458477e+002, 3.443101e-001
3.463298e+002, 2.975525e-001
3.468120e+002, 1.505941e-001
3.472941e+002, 9.389853e-002
3.477762e+002, 1.429512e-001
3.482583e+002, 2.190862e-001
3.487404e+002, 2.260672e-001
3.492225e+002, 1.777830e-001
3.497047e+002, 1.339382e-001
3.501868e+002, 1.356280e-001
3.506689e+002, 1.480189e-001
3.511510e+002, 9.112520e-002
3.516331e+002, -3.321614e-002
3.521152e+002, -1.447059e-001
3.525974e+002, -1.464320e-001
3.530795e+002, -9.161915e-002
3.535616e+002, -8.254805e-002
3.540437e+002, -1.715181e-001
3.545258e+002, -2.858582e-001
3.550079e+002, -3.853079e-001
3.554901e+002, -4.581195e-001
3.559722e+002, -4.551119e-001
3.564543e+002, -2.755594e-001
3.569364e+002, -3.820099e-002
3.574185e+002, 1.427962e-001
3.579006e+002, 2.487832e-001
3.583828e+002, 2.905205e-001
3.588649e+002, 2.465058e-001
3.593470e+002, 1.440518e-001
3.598291e+002, 3.846461e-002
3.603112e+002, -8.872507e-002
3.607933e+002, -1.797947e-001
3.612755e+002, -1.847113e-001
3.617576e+002, -8.596791e-002
3.622397e+002, 1.762087e-003
3.627218e+002, 8.417350e-003
3.632039e+002, -9.502360e-003
3.636860e+002, 1.106384e-002
3.641682e+002, 1.668879e-001
3.646503e+002, 2.858003e-001
3.651324e+002, 3.074573e-001
3.656145e+002, 2.340748e-001
3.660966e+002, 1.294184e-001
3.665787e+002, -7.089972e-002
3.670609e+002, -2.523997e-001
3.675430e+002, -3.417363e-001
3.680251e+002, -2.409866e-001
3.685072e+002, -1.560766e-001
3.689893e+002, -1.049527e-001
3.694714e+002, -8.043884e-002
3.699536e+002, -6.094147e-002
3.704357e+002, -3.517687e-002
3.709178e+002, -2.664033e-002
3.713999e+002, -5.226796e-002
3.718820e+002, -1.465767e-001
3.723641e+002, -1.834900e-001
3.728463e+002, -1.360842e-001
3.733284e+002, -4.874677e-002
3.738105e+002, 1.024403e-002
3.742926e+002, 3.061715e-002
3.747747e+002, 4.537173e-002
3.752568e+002, 6.099898e-002
3.757390e+002, 7.750985e-002
3.762211e+002, 1.148828e-001
3.767032e+002, 1.933991e-001
3.771853e+002, 2.511311e-001
3.776674e+002, 2.067772e-001
3.781495e+002, 4.327572e-002
3.786317e+002, -7.259280e-002
3.791138e+002, -1.113162e-001
3.795959e+002, -8.105825e-002
3.800780e+002, 2.683186e-002
3.805601e+002, 2.229273e-001
3.810422e+002, 3.722380e-001
3.815244e+002, 3.402137e-001
3.820065e+002, 1.645608e-001
3.824886e+002, 5.899488e-002
3.829707e+002, 5.227815e-002
3.834528e+002, 9.649681e-002
3.839349e+002, 1.514088e-001
3.844171e+002, 2.080255e-001
3.848992e+002, 2.193599e-001
3.853813e+002, 8.609568e-002
3.858634e+002, -8.353820e-002
3.863455e+002, -6.177562e-002
3.868276e+002, 1.663945e-001
3.873098e+002, 3.790357e-001
3.877919e+002, 3.656915e-001
3.882740e+002, 2.070768e-001
3.887561e+002, 4.721444e-002
3.892382e+002, -7.579449e-002
3.897203e+002, -1.730200e-001
3.902025e+002, -2.463899e-001
3.906846e+002, -2.981148e-001
3.911667e+002, -3.403338e-001
3.916488e+002, -4.284348e-001
3.921309e+002, -4.824314e-001
3.926130e+002, -4.177980e-001
3.930952e+002, -1.565416e-001
3.935773e+002, 8.421870e-002
3.940594e+002, 2.160920e-001
3.945415e+002, 2.627503e-001
3.950236e+002, 2.681095e-001
3.955057e+002, 1.860814e-001
3.959879e+002, 1.173676e-001
3.964700e+002, 1.185934e-001
3.969521e+002, 2.107358e-001
3.974342e+002, 2.596915e-001
3.979163e+002, 1.899163e-001
3.983984e+002, 9.414646e-002
3.988806e+002, 5.700072e-002
3.993627e+002, 1.775867e-001
3.998448e+002, 2.492634e-001
4.003269e+002, 2.257549e-001
4.008090e+002, 1.221813e-001
4.012911e+002, 5.550588e-002
4.017733e+002, 5.169862e-002
4.022554e+002, 5.334354e-002
4.027375e+002, 2.307217e-002
4.032196e+002, -7.875510e-002
4.037017e+002, -1.051776e-001
4.041838e+002, -1.722954e-002
4.046660e+002, 1.181989e-001
4.051481e+002, 1.740342e-001
4.056302e+002, 1.411961e-001
4.061123e+002, 6.027079e-002
4.065944e+002, -9.628932e-002
4.070765e+002, -3.182796e-001
4.075587e+002, -3.393388e-001
4.080408e+002, -1.144705e-001
4.085229e+002, 1.385742e-001
4.090050e+002, 1.617806e-001
4.094871e+002, -2.667275e-002
4.099692e+002, -1.551566e-001
4.104514e+002, -1.474520e-001
4.109335e+002, -6.617380e-002
4.114156e+002, -2.873079e-002
4.118977e+002, -3.409928e-002
4.123798e+002, -6.683382e-002
4.128619e+002, -1.576574e-001
4.133441e+002, -2.608896e-001
4.138262e+002, -2.733701e-001
4.143083e+002, -1.689975e-001
4.147904e+002, -4.648454e-002
4.152725e+002, -2.324217e-003
4.157546e+002, -1.098170e-002
4.162368e+002, -1.845944e-002
4.167189e+002, 2.032495e-002
4.172010e+002, 5.489741e-002
4.176831e+002, 3.636044e-002
4.181652e+002, -3.267533e-002
4.186473e+002, -1.003393e-001
4.191295e+002, -1.689674e-001
4.196116e+002, -2.077750e-001
4.200937e+002, -1.814909e-001
4.205758e+002, -2.605997e-003
4.210579e+002, 1.273512e-001
4.215400e+002, 1.189522e-001
4.220222e+002, 1.393419e-002
4.225043e+002, -8.487614e-002
4.229864e+002, -1.676922e-001
4.234685e+002, -2.275410e-001
4.239506e+002, -2.649656e-001
4.244327e+002, -2.842464e-001
4.249149e+002, -2.634593e-001
4.253970e+002, -1.512108e-001
4.258791e+002, -2.704065e-002
4.263612e+002, 2.768063e-002
4.268433e+002, -4.564093e-002
4.273254e+002, -9.623855e-002
4.278076e+002, -1.017716e-001
4.282897e+002, -6.578811e-002
4.287718e+002, -5.099113e-003
4.292539e+002, 1.015843e-001
4.297360e+002, 1.885181e-001
4.302181e+002, 2.217757e-001
4.307003e+002, 2.033464e-001
4.311824e+002, 9.643420e-002
4.316645e+002, -1.410365e-001
4.321466e+002, -3.978057e-001
4.326287e+002, -4.585816e-001
4.331108e+002, -3.193026e-001
4.335930e+002, -1.762854e-001
4.340751e+002, -1.125538e-001
4.345572e+002, -1.012181e-001
4.350393e+002, -3.751206e-002
4.355214e+002, 8.037850e-002
4.360035e+002, 1.745436e-001
4.364857e+002, 1.618945e-001
4.369678e+002, 7.180361e-002
4.374499e+002, -3.858326e-002
4.379320e+002, -1.874996e-001
4.384141e+002, -2.900758e-001
4.388962e+002, -2.133615e-001
4.393784e+002, -6.402181e-003
4.398605e+002, 1.868570e-001
4.403426e+002, 3.123455e-001
4.408247e+002, 3.759574e-001
4.413068e+002, 3.699470e-001
4.417889e+002, 2.890476e-001
4.422711e+002, 1.978929e-001
4.427532e+002, 1.072930e-001
4.432353e+002, 3.212969e-002
4.437174e+002, -1.214240e-002
4.441995e+002, -1.931160e-002
4.446816e+002, 3.077887e-003
4.451638e+002, 8.322015e-002
4.456459e+002, 2.008366e-001
4.461280e+002, 2.672996e-001
4.466101e+002, 2.379033e-001
4.470922e+002, 1.809740e-001
4.475743e+002, 1.249557e-001
4.480565e+002, 7.705466e-002
4.485386e+002, 1.294705e-002
4.490207e+002, -8.968254e-002
4.495028e+002, -1.940972e-001
4.499849e+002, -2.550609e-001
4.504670e+002, -2.787247e-001
4.509492e+002, -2.425968e-001
4.514313e+002, -1.204709e-001
4.519134e+002, 7.110295e-002
4.523955e+002, 2.162239e-001
4.528776e+002, 3.164336e-001
4.533597e+002, 3.570203e-001
4.538419e+002, 3.027917e-001
4.543240e+002, 1.571190e-001
4.548061e+002, 3.717249e-002
4.552882e+002, -4.751322e-002
4.557703e+002, -1.007694e-001
4.562524e+002, -1.223565e-001
4.567346e+002, -1.142531e-001
4.572167e+002, -8.784057e-002
4.576988e+002, -2.096719e-002
4.581809e+002, 4.946333e-002
4.586630e+002, 3.560852e-002
4.591451e+002, -5.588663e-002
4.596273e+002, -1.204223e-001
4.601094e+002, -8.935072e-003
4.605915e+002, 1.529558e-001
4.610736e+002, 1.823916e-001
4.615557e+002, -3.091614e-002
4.620378e+002, -2.262911e-001
4.625200e+002, -1.930662e-001
4.630021e+002, -2.393738e-002
4.634842e+002, 1.001766e-001
4.639663e+002, 6.306279e-002
4.644484e+002, 5.330673e-003
4.649305e+002, -2.661064e-003
4.654127e+002, 4.628970e-002
4.658948e+002, 8.177332e-002
4.663769e+002, 5.950545e-002
4.668590e+002, 3.654107e-002
4.673411e+002, 5.425069e-002
4.678232e+002, 1.574358e-001
4.683054e+002, 2.472441e-001
4.687875e+002, 3.311465e-001
4.692696e+002, 3.973170e-001
4.697517e+002, 4.133553e-001
4.702338e+002, 3.634536e-001
4.707159e+002, 2.908297e-001
4.711981e+002, 1.982470e-001
4.716802e+002, 8.307613e-002
4.721623e+002, 2.035365e-002
4.726444e+002, 1.899577e-002
4.731265e+002, 4.724722e-002
4.736086e+002, 8.493679e-002
4.740908e+002, 1.315658e-001
4.745729e+002, 1.548441e-001
4.750550e+002, 1.442387e-001
4.755371e+002, 1.148314e-001
4.760192e+002, 9.383868e-002
4.765013e+002, 8.000712e-002
4.769835e+002, 6.437970e-002
4.774656e+002, 1.111461e-002
4.779477e+002, -3.672792e-002
4.784298e+002, 3.115143e-002
4.789119e+002, 2.236225e-001
4.793940e+002, 3.600359e-001
4.798762e+002, 1.938287e-001
4.803583e+002, -8.112045e-002
4.808404e+002, -2.000618e-001
4.813225e+002, 3.347807e-002
4.818046e+002, 2.736509e-001
4.822867e+002, 3.341492e-001
4.827689e+002, 2.633763e-001
4.832510e+002, 1.857654e-001
4.837331e+002, 1.210894e-001
4.842152e+002, 7.608448e-002
4.846973e+002, 7.809737e-002
4.851794e+002, 1.573113e-001
4.856616e+002, 1.356819e-001
4.861437e+002, -1.666138e-001
4.866258e+002, -4.752307e-001
4.871079e+002, -5.679683e-001
4.875900e+002, -2.535962e-001
4.880721e+002, -6.723733e-002
4.885543e+002, -1.161457e-001
4.890364e+002, -3.044195e-001
4.895185e+002, -3.471424e-001
4.900006e+002, -2.052811e-001
4.904827e+002, -3.950877e-002
4.909648e+002, 9.304325e-002
4.914470e+002, 1.923528e-001
4.919291e+002, 2.372350e-001
4.924112e+002, 2.233880e-001
4.928933e+002, 1.738440e-001
4.933754e+002, 7.972337e-002
4.938575e+002, -3.932487e-002
4.943397e+002, -7.930596e-002
4.948218e+002, 1.854499e-002
4.953039e+002, 1.366475e-001
4.957860e+002, 7.762972e-002
4.962681e+002, -1.080748e-001
4.967502e+002, -2.477573e-001
4.972324e+002, -2.263962e-001
4.977145e+002, -1.315775e-001
4.981966e+002, -2.624578e-002
4.986787e+002, 8.650336e-002
4.991608e+002, 1.677573e-001
4.996429e+002, 1.780991e-001
5.001251e+002, 1.584191e-001
5.006072e+002, 1.468456e-001
5.010893e+002, 1.844809e-001
5.015714e+002, 1.856130e-001
5.020535e+002, 7.218315e-002
5.025356e+002, -8.863569e-002
5.030178e+002, -1.434254e-001
5.034999e+002, 8.533447e-002
5.039820e+002, 2.383988e-001
5.044641e+002, 1.935701e-001
5.049462e+002, -5.965706e-002
5.054283e+002, -2.194435e-001
5.059105e+002, -2.487545e-001
5.063926e+002, -2.400530e-001
5.068747e+002, -2.765035e-001
5.073568e+002, -3.765969e-001
5.078389e+002, -3.829651e-001
5.083210e+002, -2.537323e-001
5.088032e+002, -7.302266e-002
5.092853e+002, 1.481304e-002
5.097674e+002, 1.341960e-002
5.102495e+002, -1.902327e-002
5.107316e+002, -8.487243e-002
5.112137e+002, -1.547154e-001
5.116959e+002, -1.386736e-001
5.121780e+002, -4.534298e-002
5.126601e+002, 1.468109e-002
5.131422e+002, -1.086691e-001
5.136243e+002, -2.856974e-001
5.141064e+002, -3.395873e-001
5.145886e+002, -2.148791e-001
5.150707e+002, -5.692233e-002
5.155528e+002, 9.218875e-002
5.160349e+002, 2.052865e-001
5.165170e+002, 2.457798e-001
5.169991e+002, 1.356418e-001
5.174813e+002, 1.827249e-002
5.179634e+002, -5.665157e-002
5.184455e+002, -9.397492e-002
5.189276e+002, -1.420642e-001
5.194097e+002, -2.916740e-001
5.198918e+002, -3.754787e-001
5.203740e+002, -2.971326e-001
5.208561e+002, 4.243923e-002
5.213382e+002, 2.068200e-001
5.218203e+002, 1.092182e-001
5.223024e+002, -6.323867e-002
5.227845e+002, -7.246480e-002
5.232667e+002, 1.238472e-001
5.237488e+002, 2.407859e-001
5.242309e+002, 2.029387e-001
5.247130e+002, 6.885999e-002
5.251951e+002, -2.658764e-002
5.256772e+002, -8.385781e-002
5.261594e+002, -1.139990e-001
5.266415e+002, -1.018810e-001
5.271236e+002, -7.155459e-002
5.276057e+002, -7.767379e-002
5.280878e+002, -1.220286e-001
5.285699e+002, -1.858466e-001
5.290521e+002, -2.910572e-001
5.295342e+002, -3.932044e-001
5.300163e+002, -4.245815e-001
5.304984e+002, -3.245251e-001
5.309805e+002, -2.294946e-001
5.314626e+002, -2.378649e-001
5.319448e+002, -3.027949e-001
5.324269e+002, -3.334333e-001
5.329090e+002, -2.953048e-001
5.333911e+002, -2.270279e-001
5.338732e+002, -1.198362e-001
5.343553e+002, 2.746412e-002
5.348375e+002, 1.202004e-001
5.353196e+002, 1.387470e-001
5.358017e+002, 1.194442e-001
5.362838e+002, 7.510326e-002
5.367659e+002, -1.657867e-002
5.372480e+002, -6.854805e-002
5.377302e+002, -6.780718e-002
5.382123e+002, -4.414420e-002
5.386944e+002, -5.141727e-002
5.391765e+002, -9.465086e-002
5.396586e+002, -9.058965e-002
5.401407e+002, 9.551611e-003
5.406229e+002, 1.480659e-001
5.411050e+002, 1.681723e-001
5.415871e+002, 8.079973e-002
5.420692e+002, -4.506955e-003
5.425513e+002, 1.208765e-002
5.430334e+002, 6.167405e-002
5.435156e+002, 1.580037e-002
5.439977e+002, -1.387871e-001
5.444798e+002, -2.622527e-001
5.449619e+002, -2.067834e-001
5.454440e+002, -8.695820e-002
5.459261e+002, -2.772189e-002
5.464083e+002, -7.871688e-002
5.468904e+002, -1.707888e-001
5.473725e+002, -3.581503e-001
5.478546e+002, -5.651165e-001
5.483367e+002, -6.345207e-001
5.488188e+002, -4.167823e-001
5.493010e+002, -1.901307e-001
5.497831e+002, -5.339416e-003
5.502652e+002, 1.372622e-001
5.507473e+002, 2.062124e-001
5.512294e+002, 1.688281e-001
5.517115e+002, 1.130419e-001
5.521937e+002, 9.989695e-002
5.526758e+002, 1.375136e-001
5.531579e+002, 1.292476e-001
5.536400e+002, 5.455801e-002
5.541221e+002, -2.060609e-002
5.546042e+002, 2.604423e-002
5.550864e+002, 1.683832e-001
5.555685e+002, 2.344755e-001
5.560506e+002, 1.314255e-001
5.565327e+002, -1.985906e-002
5.570148e+002, -2.922359e-002
5.574969e+002, 6.831365e-002
5.579791e+002, 1.411828e-001
5.584612e+002, 7.367363e-002
5.589433e+002, -2.204577e-002
5.594254e+002, -3.269389e-002
5.599075e+002, 5.121168e-002
5.603896e+002, 8.231778e-002
5.608718e+002, -8.199576e-002
5.613539e+002, -2.716343e-001
5.618360e+002, -3.598584e-001
5.623181e+002, -2.734708e-001
5.628002e+002, -1.645131e-001
5.632823e+002, 1.630693e-002
5.637645e+002, 1.894680e-001
5.642466e+002, 2.166302e-001
5.647287e+002, 1.223874e-002
5.652108e+002, -1.434017e-001
5.656929e+002, -1.717804e-001
5.661750e+002, -1.040222e-001
5.666572e+002, -8.980335e-002
5.671393e+002, -1.386185e-001
5.676214e+002, -1.726656e-001
5.681035e+002, -1.187248e-001
5.685856e+002, -8.754150e-003
5.690677e+002, 3.052763e-002
5.695499e+002, -7.947560e-003
5.700320e+002, -7.653736e-002
5.705141e+002, -1.680403e-001
5.709962e+002, -2.505110e-001
5.714783e+002, -2.672752e-001
5.719604e+002, -1.852075e-001
5.724426e+002, -7.561428e-002
5.729247e+002, 6.626289e-002
5.734068e+002, 1.969100e-001
5.738889e+002, 2.415019e-001
5.743710e+002, 3.586757e-002
5.748531e+002, -1.205062e-001
5.753353e+002, -6.675007e-002
5.758174e+002, 1.754841e-001
5.762995e+002, 2.620600e-001
5.767816e+002, 3.479809e-002
5.772637e+002, -1.717415e-001
5.777458e+002, -1.953946e-001
5.782280e+002, 1.177050e-002
5.787101e+002, 1.511328e-001
5.791922e+002, 2.180056e-001
5.796743e+002, 2.275099e-001
5.801564e+002, 1.588570e-001
5.806385e+002, 2.032515e-002
5.811207e+002, -2.215577e-002
5.816028e+002, 8.967734e-002
5.820849e+002, 2.434315e-001
5.825670e+002, 2.679022e-001
5.830491e+002, 1.905232e-001
5.835313e+002, 1.006011e-001
5.840134e+002, -2.382043e-003
5.844955e+002, -6.782734e-002
5.849776e+002, 4.180835e-003
5.854597e+002, 1.798521e-001
5.859418e+002, 2.700686e-001
5.864240e+002, 1.142701e-001
5.869061e+002, -9.798560e-002
5.873882e+002, -2.813167e-001
5.878703e+002, -4.488264e-001
5.883524e+002, -4.899483e-001
5.888345e+002, -2.644643e-001
5.893167e+002, 9.702677e-003
5.897988e+002, 1.659596e-001
5.902809e+002, 1.724548e-001
5.907630e+002, 1.209707e-001
5.912451e+002, -2.405107e-002
5.917272e+002, -1.812499e-001
5.922094e+002, -1.635180e-001
5.926915e+002, 4.294191e-002
5.931736e+002, 1.991874e-001
5.936557e+002, 2.056148e-001
5.941378e+002, 1.216259e-001
5.946199e+002, 8.835252e-002
5.951021e+002, 1.000257e-001
5.955842e+002, 1.070796e-001
5.960663e+002, 6.488656e-002
5.965484e+002, 7.066841e-003
5.970305e+002, -3.119078e-002
5.975126e+002, -4.705249e-002
5.979948e+002, -4.295698e-002
5.984769e+002, 3.287106e-002
5.989590e+002, 9.817281e-002
5.994411e+002, 7.242402e-002
5.999232e+002, -1.826806e-001
6.004053e+002, -3.267916e-001
6.008875e+002, -2.190376e-001
6.013696e+002, -3.301200e-003
6.018517e+002, 1.177560e-001
6.023338e+002, 7.886509e-002
6.028159e+002, 7.522118e-002
6.032980e+002, 1.605392e-001
6.037802e+002, 3.011364e-001
6.042623e+002, 3.877428e-001
6.047444e+002, 4.213028e-001
6.052265e+002, 3.871679e-001
6.057086e+002, 2.161577e-001
6.061907e+002, -2.966491e-002
6.066729e+002, -1.257920e-001
6.071550e+002, -7.421357e-002
6.076371e+002, 2.770849e-002
6.081192e+002, 1.513946e-001
6.086013e+002, 2.586797e-001
6.090834e+002, 2.846757e-001
6.095656e+002, 1.998407e-001
6.100477e+002, 1.170093e-001
6.105298e+002, 1.214038e-001
6.110119e+002, 1.518205e-001
6.114940e+002, 1.394298e-001
6.119761e+002, -2.130409e-003
6.124583e+002, -1.029786e-001
6.129404e+002, -1.349863e-001
6.134225e+002, -1.112547e-001
6.139046e+002, -4.621698e-002
6.143867e+002, 1.083295e-001
6.148688e+002, 1.968637e-001
6.153510e+002, 1.488682e-001
6.158331e+002, -5.971829e-003
6.163152e+002, -7.121188e-002
6.167973e+002, -3.877139e-002
6.172794e+002, 4.200970e-003
6.177615e+002, -8.685036e-003
6.182437e+002, -5.593328e-002
6.187258e+002, -7.050446e-002
6.192079e+002, -4.762888e-002
6.196900e+002, -3.127388e-002
6.201721e+002, -9.064216e-002
6.206542e+002, -1.658166e-001
6.211364e+002, -1.771893e-001
6.216185e+002, -8.452445e-002
6.221006e+002, 2.368288e-002
6.225827e+002, 1.518195e-001
6.230648e+002, 2.596477e-001
6.235469e+002, 2.909555e-001
6.240291e+002, 1.352737e-001
6.245112e+002, 2.409870e-002
6.249933e+002, 5.490818e-003
6.254754e+002, 5.319967e-002
6.259575e+002, 8.484363e-002
6.264396e+002, 1.082055e-001
6.269218e+002, 9.132666e-002
6.274039e+002, -1.603381e-003
6.278860e+002, -1.488515e-001
6.283681e+002, -2.077684e-001
6.288502e+002, -1.757994e-001
6.293323e+002, -1.246537e-001
6.298145e+002, -1.032566e-001
6.302966e+002, -1.016499e-001
6.307787e+002, -1.060625e-001
6.312608e+002, -1.166681e-001
6.317429e+002, -1.131435e-001
6.322250e+002, -4.229888e-002
6.327072e+002, 3.325588e-002
6.331893e+002, 4.468340e-002
6.336714e+002, -5.240010e-002
6.341535e+002, -1.680940e-001
6.346356e+002, -3.301782e-001
6.351177e+002, -4.818498e-001
6.355999e+002, -5.356874e-001
6.360820e+002, -4.573694e-001
6.365641e+002, -3.298182e-001
6.370462e+002, -1.251135e-001
6.375283e+002, 1.084987e-001
6.380104e+002, 1.920023e-001
6.384926e+002, 1.022337e-001
6.389747e+002, 1.547193e-002
6.394568e+002, 3.372218e-002
6.399389e+002, 1.119197e-001
6.404210e+002, 7.647656e-002
6.409031e+002, -6.578857e-002
6.413853e+002, -1.922045e-001
6.418674e+002, -1.793367e-001
6.423495e+002, -1.177726e-001
6.428316e+002, -1.381629e-001
6.433137e+002, -2.679854e-001
6.437958e+002, -3.384317e-001
6.442780e+002, -2.193313e-001
6.447601e+002, -2.846132e-002
6.452422e+002, 1.337363e-001
6.457243e+002, 2.862038e-001
6.462064e+002, 3.483171e-001
6.466885e+002, 2.658370e-001
6.471707e+002, 1.252909e-001
6.476528e+002, 5.131678e-002
6.481349e+002, 7.909521e-002
6.486170e+002, 4.847593e-002
6.490991e+002, -1.015262e-001
6.495812e+002, -2.951025e-001
6.500634e+002, -3.463612e-001
6.505455e+002, -2.635999e-001
6.510276e+002, -1.610042e-001
6.515097e+002, -8.246552e-002
6.519918e+002, -2.027569e-002
6.524739e+002, 5.892418e-002
6.529561e+002, 1.416833e-001
6.534382e+002, 1.621042e-001
6.539203e+002, -9.240491e-003
6.544024e+002, -1.884714e-001
6.548845e+002, -2.375417e-001
6.553666e+002, -1.317918e-001
6.558488e+002, -3.198181e-002
6.563309e+002, 5.399508e-002
6.568130e+002, 1.006445e-001
6.572951e+002, 8.264646e-002
6.577772e+002, -5.541190e-002
6.582593e+002, -9.468227e-002
6.587415e+002, 1.613327e-002
6.592236e+002, 1.430140e-001
6.597057e+002, 1.034566e-001
6.601878e+002, -9.763041e-002
6.606699e+002, -2.444366e-001
6.611520e+002, -2.995365e-001
6.616342e+002, -2.768854e-001
6.621163e+002, -1.131070e-001
6.625984e+002, 1.177317e-001
6.630805e+002, 2.160082e-001
6.635626e+002, -2.629978e-002
6.640447e+002, -2.976197e-001
6.645269e+002, -3.868293e-001
6.650090e+002, -3.290770e-001
6.654911e+002, -2.305907e-001
6.659732e+002, -1.068198e-001
6.664553e+002, 3.532848e-002
6.669374e+002, 2.564392e-001
6.674196e+002, 5.403332e-001
6.679017e+002, 5.734841e-001
6.683838e+002, 2.094869e-001
6.688659e+002, -1.300448e-001
6.693480e+002, -2.088543e-001
6.698301e+002, -3.139060e-002
6.703123e+002, 6.465966e-002
6.707944e+002, 7.109848e-002
6.712765e+002, 6.031453e-002
6.717586e+002, 1.276328e-001
6.722407e+002, 2.211588e-001
6.727228e+002, 2.033489e-001
6.732050e+002, 3.764563e-002
6.736871e+002, -1.220390e-001
6.741692e+002, -1.432648e-001
6.746513e+002, -1.022759e-001
6.751334e+002, -9.114180e-002
6.756155e+002, -1.972048e-001
6.760977e+002, -2.377159e-001
6.765798e+002, -9.984329e-002
6.770619e+002, 1.041086e-001
6.775440e+002, 2.003554e-001
6.780261e+002, 1.202768e-001
6.785082e+002, 8.253065e-002
6.789904e+002, 1.537252e-001
6.794725e+002, 2.689395e-001
6.799546e+002, 2.441247e-001
6.804367e+002, 7.857170e-002
6.809188e+002, -9.764352e-002
6.814009e+002, -2.634058e-001
6.818831e+002, -3.814126e-001
6.823652e+002, -3.266059e-001
6.828473e+002, -1.362681e-001
6.833294e+002, 1.282945e-003
6.838115e+002, -1.069524e-001
6.842936e+002, -2.444853e-001
6.847758e+002, -2.210836e-001
6.852579e+002, -2.716120e-002
6.857400e+002, 8.733857e-002
6.862221e+002, -7.716452e-002
6.867042e+002, -2.235726e-001
6.871863e+002, -1.849669e-001
6.876685e+002, 9.832983e-002
6.881506e+002, 3.201262e-001
6.886327e+002, 5.004871e-001
6.891148e+002, 5.861195e-001
6.895969e+002, 4.654461e-001
6.900790e+002, 1.589689e-001
6.905612e+002, 2.103274e-002
6.910433e+002, 1.103232e-001
6.915254e+002, 2.530188e-001
6.920075e+002, 2.620721e-001
6.924896e+002, 1.775732e-001
6.929717e+002, 5.968999e-002
6.934539e+002, -1.234899e-001
6.939360e+002, -2.383039e-001
6.944181e+002, -1.259844e-001
6.949002e+002, 8.517466e-002
6.953823e+002, 1.963672e-001
6.958644e+002, 5.554289e-002
6.963466e+002, -5.717700e-002
6.968287e+002, -9.976247e-002
6.973108e+002, -8.944726e-002
6.977929e+002, -6.590144e-002
6.982750e+002, -2.528769e-002
6.987571e+002, 1.381410e-002
6.992393e+002, 4.356306e-002
6.997214e+002, 6.883530e-002
7.002035e+002, 1.233106e-001
7.006856e+002, 1.992055e-001
7.011677e+002, 2.248742e-001
7.016498e+002, 9.585896e-002
7.021320e+002, -6.729376e-002
7.026141e+002, -1.241336e-001
7.030962e+002, -7.944595e-002
7.035783e+002, -1.033491e-002
7.040604e+002, 9.412254e-002
7.045425e+002, 1.751471e-001
7.050247e+002, 1.830978e-001
7.055068e+002, 9.261563e-002
7.059889e+002, 6.183011e-002
7.064710e+002, 1.512105e-001
7.069531e+002, 2.225523e-001
7.074352e+002, 1.729098e-001
7.079174e+002, -1.066232e-002
7.083995e+002, -1.780688e-001
7.088816e+002, -3.373893e-001
7.093637e+002, -4.294603e-001
7.098458e+002, -3.195314e-001
7.103279e+002, -9.969684e-002
7.108101e+002, -1.911582e-002
7.112922e+002, -1.523645e-001
7.117743e+002, -2.923671e-001
7.122564e+002, -2.836901e-001
7.127385e+002, -1.914684e-001
7.132206e+002, -9.000372e-002
7.137028e+002, 6.532060e-002
7.141849e+002, 1.380439e-001
7.146670e+002, 3.385194e-002
7.151491e+002, -1.399488e-001
7.156312e+002, -2.477129e-001
7.161133e+002, -2.886962e-001
7.165955e+002, -2.505477e-001
7.170776e+002, -9.503772e-002
7.175597e+002, 9.774639e-002
7.180418e+002, 1.410857e-001
7.185239e+002, 4.772092e-002
7.190060e+002, -6.620768e-002
7.194882e+002, -1.999427e-001
7.199703e+002, -2.824736e-001
7.204524e+002, -1.666102e-001
7.209345e+002, 8.054108e-002
7.214166e+002, 2.639371e-001
7.218987e+002, 2.415753e-001
7.223809e+002, 1.812613e-001
7.228630e+002, 1.784229e-001
7.233451e+002, 2.207828e-001
7.238272e+002, 1.744838e-001
7.243093e+002, -6.442876e-002
7.247914e+002, -2.425793e-001
7.252736e+002, -2.506409e-001
7.257557e+002, -1.036817e-001
7.262378e+002, 2.046781e-002
7.267199e+002, 1.245392e-001
7.272020e+002, 1.934135e-001
7.276841e+002, 1.987729e-001
7.281663e+002, 1.675090e-001
7.286484e+002, 1.578145e-001
7.291305e+002, 1.713009e-001
7.296126e+002, 1.918806e-001
7.300947e+002, 2.220281e-001
7.305768e+002, 2.457084e-001
7.310590e+002, 2.592174e-001
7.315411e+002, 2.713619e-001
7.320232e+002, 2.224009e-001
7.325053e+002, 2.574391e-002
7.329874e+002, -1.734420e-001
7.334695e+002, -2.916242e-001
7.339517e+002, -3.180347e-001
7.344338e+002, -2.839890e-001
7.349159e+002, -1.690338e-001
7.353980e+002, -5.150259e-002
7.358801e+002, -2.208612e-002
7.363622e+002, -6.381802e-002
7.368444e+002, -1.108623e-001
7.373265e+002, -1.561851e-001
7.378086e+002, -1.891930e-001
7.382907e+002, -1.876087e-001
7.387728e+002, -1.720328e-001
7.392549e+002, -1.684309e-001
7.397371e+002, -1.801193e-001
7.402192e+002, -2.106475e-001
7.407013e+002, -3.053253e-001
7.411834e+002, -4.000543e-001
7.416655e+002, -4.099860e-001
7.421476e+002, -3.029305e-001
7.426298e+002, -1.866465e-001
7.431119e+002, -7.193986e-002
7.435940e+002, 4.399163e-002
7.440761e+002, 2.020971e-001
7.445582e+002, 3.873286e-001
7.450403e+002, 4.450255e-001
7.455225e+002, 2.778554e-001
7.460046e+002, 5.083350e-002
7.464867e+002, -3.706286e-002
7.469688e+002, -2.925901e-002
7.474509e+002, -1.801329e-002
7.479330e+002, -6.694232e-002
7.484152e+002, -9.267297e-002
7.488973e+002, -5.826202e-002
7.493794e+002, 2.638458e-002
7.498615e+002, 1.296260e-001
7.503436e+002, 3.070249e-001
7.508257e+002, 3.986921e-001
7.513079e+002, 3.414621e-001
7.517900e+002, 1.786663e-001
7.522721e+002, 5.014214e-002
7.527542e+002, -4.493744e-002
7.532363e+002, -7.963114e-002
7.537184e+002, 1.030442e-002
7.542006e+002, 1.356809e-001
7.546827e+002, 1.519747e-001
7.551648e+002, 7.662498e-002
7.556469e+002, -1.839390e-002
7.561290e+002, -1.733656e-001
7.566111e+002, -2.685012e-001
7.570933e+002, -2.023246e-001
7.575754e+002, 1.570210e-002
7.580575e+002, 1.695125e-001
7.585396e+002, 2.127538e-001
7.590217e+002, 2.456922e-001
7.595038e+002, 3.376456e-001
7.599860e+002, 4.693273e-001
7.604681e+002, 3.652249e-001
7.609502e+002, 1.172523e-003
7.614323e+002, -3.044518e-001
7.619144e+002, -2.875820e-001
7.623965e+002, -8.827893e-002
7.628787e+002, 6.896833e-002
7.633608e+002, 1.731413e-001
7.638429e+002, 2.060870e-001
7.643250e+002, 1.100455e-001
7.648071e+002, -2.683241e-002
7.652892e+002, -1.766874e-001
7.657714e+002, -3.566278e-001
7.662535e+002, -3.728434e-001
7.667356e+002, -7.673999e-002
7.672177e+002, 1.988183e-001
7.676998e+002, 2.572513e-001
7.681819e+002, 8.515226e-002
7.686641e+002, -9.288403e-002
7.691462e+002, -2.863506e-001
7.696283e+002, -4.023875e-001
7.701104e+002, -3.084541e-001
7.705925e+002, -9.642902e-002
7.710746e+002, 7.252540e-002
7.715568e+002, 1.834784e-001
7.720389e+002, 2.314208e-001
7.725210e+002, 1.760587e-001
7.730031e+002, 8.126029e-002
7.734852e+002, -1.056356e-002
7.739673e+002, -1.054228e-001
7.744495e+002, -1.549606e-001
7.749316e+002, -1.311954e-001
7.754137e+002, -9.508861e-002
7.758958e+002, -8.621264e-002
7.763779e+002, -1.042193e-001
7.768600e+002, -1.840570e-001
7.773422e+002, -3.460968e-001
7.778243e+002, -4.533253e-001
7.783064e+002, -2.913629e-001
7.787885e+002, 4.360047e-003
7.792706e+002, 1.731871e-001
7.797527e+002, 1.599967e-001
7.802349e+002, 9.817927e-002
7.807170e+002, 4.356210e-002
7.811991e+002, -1.057803e-002
7.816812e+002, -6.956438e-002
7.821633e+002, -1.292191e-001
7.826454e+002, -2.109716e-001
7.831276e+002, -3.660372e-001
7.836097e+002, -4.817787e-001
7.840918e+002, -4.119729e-001
7.845739e+002, -1.526815e-001
7.850560e+002, 2.978528e-002
7.855381e+002, 1.038186e-001
7.860203e+002, 1.241471e-001
7.865024e+002, 1.339896e-001
7.869845e+002, 1.358922e-001
7.874666e+002, 1.365891e-001
7.879487e+002, 1.419208e-001
7.884308e+002, 1.313527e-001
7.889130e+002, 6.587377e-002
7.893951e+002, -5.494892e-003
7.898772e+002, -3.216860e-002
7.903593e+002, 1.152352e-003
7.908414e+002, 6.468012e-002
7.913235e+002, 1.864417e-001
7.918057e+002, 2.982847e-001
7.922878e+002, 3.152106e-001
7.927699e+002, 2.410950e-001
7.932520e+002, 1.105739e-001
7.937341e+002, -9.121053e-002
7.942162e+002, -2.595912e-001
7.946984e+002, -2.477662e-001
7.951805e+002, -1.387994e-001
7.956626e+002, -6.035832e-002
7.961447e+002, -3.941498e-002
7.966268e+002, -5.954099e-002
7.971089e+002, -1.756366e-001
7.975911e+002, -2.978338e-001
7.980732e+002, -3.259156e-001
7.985553e+002, -2.232121e-001
7.990374e+002, -1.017449e-001
7.995195e+002, 5.715054e-002
8.000016e+002, 1.885256e-001
8.004838e+002, 1.819218e-001
8.009659e+002, 6.403656e-002
8.014480e+002, -9.429277e-004
8.019301e+002, 3.154330e-002
8.024122e+002, 6.195145e-002
8.028943e+002, -4.291136e-002
8.033765e+002, -1.937934e-001
8.038586e+002, -2.747738e-001
8.043407e+002, -2.389934e-001
8.048228e+002, -1.644398e-001
8.053049e+002, 1.178134e-002
8.057870e+002, 1.723405e-001
8.062692e+002, 1.844649e-001
8.067513e+002, -1.648434e-003
8.072334e+002, -1.480863e-001
8.077155e+002, -2.427903e-001
8.081976e+002, -2.667918e-001
8.086797e+002, -1.354869e-001
8.091619e+002, 8.793796e-002
8.096440e+002, 2.073949e-001
8.101261e+002, 1.590619e-001
8.106082e+002, 8.814606e-002
8.110903e+002, 1.193711e-001
8.115724e+002, 1.780608e-001
8.120546e+002, 1.807581e-001
8.125367e+002, 5.954477e-002
8.130188e+002, -3.411995e-002
8.135009e+002, -8.965038e-002
8.139830e+002, -1.192040e-001
8.144651e+002, -1.424285e-001
8.149473e+002, -1.623185e-001
8.154294e+002, -1.143207e-001
8.159115e+002, 2.079919e-002
8.163936e+002, 1.647592e-001
8.168757e+002, 2.385254e-001
8.173578e+002, 2.547593e-001
8.178400e+002, 2.305380e-001
8.183221e+002, 1.586926e-001
8.188042e+002, 8.411261e-002
8.192863e+002, 1.438305e-002
8.197684e+002, -3.993479e-002
8.202505e+002, -6.854721e-002
8.207327e+002, -7.932667e-002
8.212148e+002, -3.581046e-002
8.216969e+002, 1.045851e-001
8.221790e+002, 2.217051e-001
8.226611e+002, 1.344761e-001
8.231432e+002, -1.128809e-001
8.236254e+002, -2.145339e-001
8.241075e+002, -1.264213e-001
8.245896e+002, -4.313855e-004
8.250717e+002, 4.124692e-002
8.255538e+002, 3.441481e-002
8.260359e+002, 1.301366e-002
8.265181e+002, -2.501576e-002
8.270002e+002, -4.729652e-002
8.274823e+002, -4.838362e-002
8.279644e+002, -2.935211e-002
8.284465e+002, 1.922832e-002
8.289286e+002, 1.134041e-001
8.294108e+002, 1.500436e-001
8.298929e+002, 1.194893e-001
8.303750e+002, 7.214475e-002
8.308571e+002, 7.455003e-002
8.313392e+002, 9.053122e-002
8.318214e+002, 7.808450e-003
8.323035e+002, -1.895270e-001
8.327856e+002, -3.162906e-001
8.332677e+002, -1.811936e-001
8.337498e+002, 1.788384e-002
8.342319e+002, 1.409859e-001
8.347141e+002, 1.641693e-001
8.351962e+002, 1.226086e-001
8.356783e+002, -3.334659e-002
8.361604e+002, -1.699452e-001
8.366425e+002, -1.848312e-001
8.371246e+002, -8.704098e-002
8.376068e+002, -1.312286e-002
8.380889e+002, 3.608992e-002
8.385710e+002, 7.846598e-002
8.390531e+002, 1.539765e-001
8.395352e+002, 2.136202e-001
8.400173e+002, 1.937553e-001
8.404995e+002, 9.143513e-002
8.409816e+002, -1.718732e-002
8.414637e+002, -1.728482e-001
8.419458e+002, -2.607404e-001
8.424279e+002, -2.063896e-001
8.429100e+002, -1.372910e-002
8.433922e+002, 8.595920e-002
8.438743e+002, 7.865904e-002
8.443564e+002, 5.514929e-002
8.448385e+002, 8.726402e-002
8.453206e+002, 1.371202e-001
8.458027e+002, 9.933344e-002
8.462849e+002, -1.088685e-002
8.467670e+002, -1.078177e-001
8.472491e+002, -1.377753e-001
8.477312e+002, -1.459010e-001
8.482133e+002, -1.536609e-001
8.486954e+002, -1.618244e-001
8.491776e+002, -1.630134e-001
8.496597e+002, -1.333001e-001
8.501418e+002, -1.502150e-001
8.506239e+002, -2.720213e-001
8.511060e+002, -4.424410e-001
8.515881e+002, -4.588979e-001
8.520703e+002, -3.341490e-001
8.525524e+002, -1.724068e-001
8.530345e+002, 5.927650e-002
8.535166e+002, 2.241973e-001
8.539987e+002, 1.103790e-001
8.544808e+002, -1.684537e-001
8.549630e+002, -3.238491e-001
8.554451e+002, -1.590776e-001
8.559272e+002, 7.758223e-003
8.564093e+002, 1.320777e-001
8.568914e+002, 2.084105e-001
8.573735e+002, 2.185314e-001
8.578557e+002, 1.571705e-001
8.583378e+002, 8.525055e-002
8.588199e+002, 3.232760e-003
8.593020e+002, -5.069308e-002
8.597841e+002, 5.365682e-002
8.602662e+002, 2.199351e-001
8.607484e+002, 2.360338e-001
8.612305e+002, -1.443916e-001
8.617126e+002, -4.258149e-001
8.621947e+002, -3.384777e-001
8.626768e+002, -7.777929e-002
8.631589e+002, 7.345210e-002
8.636411e+002, 7.644318e-002
8.641232e+002, 8.721352e-002
8.646053e+002, 1.292388e-001
8.650874e+002, 1.596647e-001
8.655695e+002, 1.038765e-001
8.660516e+002, -1.089884e-002
8.665338e+002, -1.013383e-001
8.670159e+002, -1.529423e-001
8.674980e+002, -1.779380e-001
8.679801e+002, -1.586003e-001
8.684622e+002, -1.327136e-001
8.689443e+002, -1.431949e-001
8.694265e+002, -2.375730e-001
8.699086e+002, -2.618779e-001
8.703907e+002, -1.849201e-001
8.708728e+002, -8.636514e-002
8.713549e+002, -3.936125e-002
8.718370e+002, -3.691920e-002
8.723192e+002, 1.884813e-002
8.728013e+002, 1.340657e-001
8.732834e+002, 2.168595e-001
8.737655e+002, 1.360142e-001
8.742476e+002, 2.177108e-002
8.747297e+002, 3.025640e-002
8.752119e+002, 1.797016e-001
8.756940e+002, 2.624959e-001
8.761761e+002, 1.657076e-001
8.766582e+002, 5.556383e-002
8.771403e+002, -7.389711e-003
8.776224e+002, -2.567058e-002
8.781046e+002, -2.345708e-002
8.785867e+002, 1.131242e-003
8.790688e+002, 6.399745e-003
8.795509e+002, -6.327458e-002
8.800330e+002, -1.491573e-001
8.805151e+002, -1.615354e-001
8.809973e+002, -1.143493e-001
8.814794e+002, -6.219437e-002
8.819615e+002, 1.645862e-002
8.824436e+002, 4.740119e-002
8.829257e+002, -4.876300e-002
8.834078e+002, -2.075621e-001
8.838900e+002, -2.368041e-001
8.843721e+002, -1.097062e-001
8.848542e+002, 7.877041e-003
8.853363e+002, 7.225866e-002
8.858184e+002, 9.578040e-002
8.863005e+002, 1.023828e-001
8.867827e+002, 8.540867e-002
8.872648e+002, 2.147789e-002
8.877469e+002, -1.775646e-001
8.882290e+002, -3.039451e-001
8.887111e+002, -1.762322e-001
8.891932e+002, 4.360156e-002
8.896754e+002, 1.114776e-001
8.901575e+002, -5.629788e-002
8.906396e+002, -1.654720e-001
8.911217e+002, -1.865806e-001
8.916038e+002, -1.587878e-001
8.920859e+002, -1.134036e-001
8.925681e+002, -5.925300e-002
8.930502e+002, -3.381958e-002
8.935323e+002, -5.067841e-002
8.940144e+002, -4.040318e-002
8.944965e+002, 1.144191e-001
8.949786e+002, 2.711610e-001
8.954608e+002, 2.978796e-001
8.959429e+002, 1.378566e-001
8.964250e+002, -3.322143e-003
8.969071e+002, -1.390857e-001
8.973892e+002, -2.266431e-001
8.978713e+002, -2.075628e-001
8.983535e+002, -1.061346e-001
8.988356e+002, -7.800584e-002
8.993177e+002, -1.187618e-001
8.997998e+002, -1.482607e-001
9.002819e+002, -4.468135e-002
9.007640e+002, 3.500060e-002
9.012462e+002, -1.023003e-001
9.017283e+002, -4.228397e-001
9.022104e+002, -5.339025e-001
9.026925e+002, -2.585137e-001
9.031746e+002, -3.110701e-003
9.036567e+002, 1.337155e-001
9.041389e+002, 1.567599e-001
9.046210e+002, 6.772471e-003
9.051031e+002, -2.831702e-001
9.055852e+002, -4.115693e-001
9.060673e+002, -1.330670e-001
9.065494e+002, 1.876895e-001
9.070316e+002, 1.630668e-001
9.075137e+002, -4.104829e-002
9.079958e+002, -1.322066e-001
9.084779e+002, 1.670059e-001
9.089600e+002, 2.909942e-001
9.094421e+002, 1.044411e-001
9.099243e+002, -1.815520e-001
9.104064e+002, -2.818520e-001
9.108885e+002, -2.045353e-001
9.113706e+002, -8.488815e-002
9.118527e+002, 7.354008e-002
9.123348e+002, 1.654049e-001
9.128170e+002, 3.027090e-002
9.132991e+002, -1.963024e-001
9.137812e+002, -3.877572e-001
9.142633e+002, -5.547826e-001
9.147454e+002, -5.351087e-001
9.152275e+002, -1.456439e-001
9.157097e+002, 2.406771e-001
9.161918e+002, 3.991828e-001
9.166739e+002, 3.335008e-001
9.171560e+002, 2.783841e-001
9.176381e+002, 2.344327e-001
9.181202e+002, 1.803692e-001
9.186024e+002, 5.571961e-002
9.190845e+002, -5.462237e-002
9.195666e+002, -3.322151e-002
9.200487e+002, 9.826203e-002
9.205308e+002, 2.025042e-001
9.210129e+002, 2.939001e-001
9.214951e+002, 2.750784e-001
9.219772e+002, 5.344564e-002
9.224593e+002, -2.646812e-001
9.229414e+002, -3.241113e-001
9.234235e+002, -1.297892e-001
9.239056e+002, 3.211208e-002
9.243878e+002, 6.191444e-002
9.248699e+002, 3.350236e-002
9.253520e+002, 3.146425e-003
9.258341e+002, -1.887942e-002
9.263162e+002, -1.639326e-002
9.267983e+002, 3.171152e-002
9.272805e+002, 8.174963e-002
9.277626e+002, 1.478907e-001
9.282447e+002, 1.954058e-001
9.287268e+002, 1.692388e-001
9.292089e+002, 6.859739e-002
9.296910e+002, 4.543327e-002
9.301732e+002, 1.175383e-001
9.306553e+002, 1.859732e-001
9.311374e+002, 1.322308e-001
9.316195e+002, 4.232673e-002
9.321016e+002, 2.543655e-002
9.325837e+002, 9.795129e-002
9.330659e+002, 1.325550e-001
9.335480e+002, 3.963526e-002
9.340301e+002, -2.276793e-002
9.345122e+002, 2.645038e-002
9.349943e+002, 1.628587e-001
9.354764e+002, 2.094766e-001
9.359586e+002, 1.687286e-001
9.364407e+002, 1.179533e-001
9.369228e+002, 9.745074e-002
9.374049e+002, 8.410270e-002
9.378870e+002, 5.480501e-002
9.383691e+002, 1.370515e-002
9.388513e+002, -2.885250e-002
9.393334e+002, -4.664499e-002
9.398155e+002, -1.056250e-001
9.402976e+002, -2.523962e-001
9.407797e+002, -4.036751e-001
9.412618e+002, -3.955515e-001
9.417440e+002, -2.436476e-001
9.422261e+002, -1.721533e-001
9.427082e+002, -2.309556e-001
9.431903e+002, -3.027125e-001
9.436724e+002, -2.357226e-001
9.441545e+002, -1.446140e-001
9.446367e+002, -1.814810e-001
9.451188e+002, -4.439527e-001
9.456009e+002, -5.072425e-001
9.460830e+002, -2.031928e-001
9.465651e+002, 8.314312e-002
9.470472e+002, 8.322773e-002
9.475294e+002, -1.532742e-001
9.480115e+002, -1.920570e-001
9.484936e+002, -4.787451e-002
9.489757e+002, 1.150820e-001
9.494578e+002, 2.470762e-001
9.499399e+002, 3.102589e-001
9.504221e+002, 2.308584e-001
9.509042e+002, 4.988051e-002
9.513863e+002, -7.038630e-002
9.518684e+002, -8.642321e-002
9.523505e+002, -9.708527e-002
9.528326e+002, -1.236931e-001
9.533148e+002, -1.487470e-001
9.537969e+002, -1.415782e-001
9.542790e+002, -1.041259e-001
9.547611e+002, -3.497745e-002
9.552432e+002, 8.087398e-002
9.557253e+002, 1.722302e-001
9.562075e+002, 1.974281e-001
9.566896e+002, 1.668387e-001
9.571717e+002, 7.504783e-002
9.576538e+002, -1.258709e-001
9.581359e+002, -2.203023e-001
9.586180e+002, -1.798577e-001
9.591002e+002, -1.037391e-001
9.595823e+002, -6.712966e-002
9.600644e+002, -5.259432e-002
9.605465e+002, 1.901014e-002
9.610286e+002, 1.344716e-001
9.615107e+002, 1.837803e-001
9.619929e+002, 3.619233e-003
9.624750e+002, -1.584115e-001
9.629571e+002, -1.318268e-001
9.634392e+002, 2.436738e-002
9.639213e+002, 8.158036e-002
9.644034e+002, 1.589437e-002
9.648856e+002, -5.726741e-002
9.653677e+002, -1.140117e-001
9.658498e+002, -1.574237e-001
9.663319e+002, -2.046166e-001
9.668140e+002, -2.405971e-001
9.672961e+002, -2.226721e-001
9.677783e+002, -1.046126e-001
9.682604e+002, -2.749709e-002
9.687425e+002, -6.277311e-002
9.692246e+002, -1.481492e-001
9.697067e+002, -2.558326e-001
9.701888e+002, -4.051273e-001
9.706710e+002, -3.836811e-001
9.711531e+002, -1.689567e-001
9.716352e+002, -5.746249e-004
9.721173e+002, -1.349171e-001
9.725994e+002, -3.810394e-001
9.730815e+002, -5.150591e-001
9.735637e+002, -5.327457e-001
9.740458e+002, -4.731465e-001
9.745279e+002, -2.811683e-001
9.750100e+002, -9.075294e-002
9.754921e+002, 9.469251e-002
9.759742e+002, 2.406389e-001
9.764564e+002, 2.333562e-001
9.769385e+002, 8.230072e-002
9.774206e+002, -3.214173e-002
9.779027e+002, -5.558203e-002
9.783848e+002, -4.917870e-002
9.788669e+002, -5.980746e-002
9.793491e+002, -8.006335e-002
9.798312e+002, -1.076925e-001
9.803133e+002, -1.708070e-001
9.807954e+002, -1.509042e-001
9.812775e+002, 1.529975e-002
9.817596e+002, 1.595620e-001
9.822418e+002, 1.156425e-001
9.827239e+002, -6.170888e-002
9.832060e+002, -3.024097e-002
9.836881e+002, 1.821786e-001
9.841702e+002, 3.162413e-001
9.846523e+002, 9.713813e-002
9.851345e+002, -1.365458e-001
9.856166e+002, -1.736336e-001
9.860987e+002, -5.332090e-002
9.865808e+002, 4.887195e-002
9.870629e+002, 1.394288e-001
9.875450e+002, 1.862035e-001
9.880272e+002, 1.779404e-001
9.885093e+002, 1.353571e-001
9.889914e+002, 8.989857e-002
9.894735e+002, 3.410938e-002
9.899556e+002, -7.010622e-002
9.904377e+002, -2.660858e-001
9.909199e+002, -3.569953e-001
9.914020e+002, -1.288978e-001
9.918841e+002, 1.196400e-001
9.923662e+002, 1.836100e-001
9.928483e+002, 5.648928e-002
9.933304e+002, -4.891596e-002
9.938126e+002, -1.308409e-001
9.942947e+002, -2.219447e-001
9.947768e+002, -3.988082e-001
9.952589e+002, -5.553152e-001
9.957410e+002, -5.428982e-001
9.962231e+002, -4.044676e-001
9.967053e+002, -2.655087e-001
9.971874e+002, -1.324554e-001
9.976695e+002, -4.594040e-002
9.981516e+002, -1.820022e-002
9.986337e+002, -3.072654e-002
9.991158e+002, -7.312905e-002
9.995980e+002, -1.367891e-001
1.000080e+003, -1.489617e-001
1.000562e+003, -9.293120e-002
1.001044e+003, -4.390831e-002
1.001526e+003, -8.041975e-002
1.002009e+003, -1.331582e-001
1.002491e+003, -1.477326e-001
1.002973e+003, -1.173561e-001
1.003455e+003, -4.807252e-002
1.003937e+003, 8.706753e-002
1.004419e+003, 1.737452e-001
1.004901e+003, 1.410771e-001
1.005383e+003, 4.311217e-002
1.005865e+003, -2.997506e-002
1.006348e+003, -6.990702e-002
1.006830e+003, -5.481248e-002
1.007312e+003, 9.347685e-002
1.007794e+003, 2.137326e-001
1.008276e+003, 2.317856e-001
1.008758e+003, 2.135772e-001
1.009240e+003, 2.458027e-001
1.009722e+003, 3.438255e-001
1.010205e+003, 3.023905e-001
1.010687e+003, 9.309447e-002
1.011169e+003, -1.119657e-001
1.011651e+003, -1.357054e-001
1.012133e+003, -9.260021e-002
1.012615e+003, -1.166862e-001
1.013097e+003, -2.112388e-001
1.013579e+003, -2.449808e-001
1.014061e+003, -1.354145e-001
1.014544e+003, -7.112069e-002
1.015026e+003, -1.316989e-001
1.015508e+003, -2.477817e-001
1.015990e+003, -2.415693e-001
1.016472e+003, -1.378727e-001
1.016954e+003, -3.241921e-002
1.017436e+003, 6.174028e-002
1.017918e+003, 1.116944e-001
1.018401e+003, 1.639502e-002
1.018883e+003, -8.073762e-002
1.019365e+003, -7.395255e-003
1.019847e+003, 3.140796e-001
1.020329e+003, 4.035546e-001
1.020811e+003, 2.204005e-001
1.021293e+003, 2.744291e-002
1.021775e+003, 3.573210e-002
1.022257e+003, 1.411051e-001
1.022740e+003, 1.978103e-001
1.023222e+003, 2.075229e-001
1.023704e+003, 1.888222e-001
1.024186e+003, 1.526321e-001
1.024668e+003, 7.368220e-002
1.025150e+003, -1.035167e-001
1.025632e+003, -2.766452e-001
1.026114e+003, -2.152148e-001
1.026596e+003, 4.163497e-002
1.027079e+003, 1.174849e-001
1.027561e+003, -6.843168e-002
1.028043e+003, -2.619396e-001
1.028525e+003, -2.396419e-001
1.029007e+003, -1.468469e-001
1.029489e+003, -1.213640e-001
1.029971e+003, -1.807840e-001
1.030453e+003, -1.307826e-001
1.030936e+003, 8.180854e-002
1.031418e+003, 2.229806e-001
1.031900e+003, 1.680897e-001
1.032382e+003, 1.059196e-002
1.032864e+003, -1.106752e-001
1.033346e+003, -1.822164e-001
1.033828e+003, -1.625490e-001
1.034310e+003, 1.048382e-001
1.034792e+003, 2.420680e-001
1.035275e+003, 2.963820e-002
1.035757e+003, -2.351136e-001
1.036239e+003, -2.636906e-001
1.036721e+003, -5.598460e-002
1.037203e+003, 7.864817e-003
1.037685e+003, -8.407094e-002
1.038167e+003, -2.155402e-001
1.038649e+003, -3.851115e-001
1.039132e+003, -4.880153e-001
1.039614e+003, -3.887348e-001
1.040096e+003, -1.327915e-001
1.040578e+003, 3.068671e-002
1.041060e+003, 6.173125e-002
1.041542e+003, 7.944341e-002
1.042024e+003, 1.085176e-001
1.042506e+003, 1.311914e-001
1.042989e+003, 1.253383e-001
1.043471e+003, 9.200779e-002
1.043953e+003, 1.750572e-002
1.044435e+003, -1.176578e-001
1.044917e+003, -1.940969e-001
1.045399e+003, -1.168567e-001
1.045881e+003, -1.707122e-002
1.046363e+003, 4.613495e-002
1.046845e+003, 7.450731e-002
1.047328e+003, 7.184298e-002
1.047810e+003, 4.049247e-002
1.048292e+003, 2.307965e-002
1.048774e+003, 6.501874e-002
1.049256e+003, 9.277325e-002
1.049738e+003, 2.613428e-002
1.050220e+003, -8.668200e-002
1.050702e+003, -1.703010e-001
1.051184e+003, -2.290955e-001
1.051667e+003, -2.236697e-001
1.052149e+003, -1.325827e-001
1.052631e+003, -4.497381e-002
1.053113e+003, -2.580065e-002
1.053595e+003, -6.965523e-002
1.054077e+003, -2.104573e-001
1.054559e+003, -4.237546e-001
1.055041e+003, -5.524167e-001
1.055523e+003, -5.132747e-001
1.056006e+003, -3.918790e-001
1.056488e+003, -1.717074e-001
1.056970e+003, 7.603201e-002
1.057452e+003, 2.121759e-001
1.057934e+003, 2.414727e-001
1.058416e+003, 1.930490e-001
1.058898e+003, 6.189002e-002
1.059380e+003, -7.723112e-002
1.059863e+003, -1.741489e-001
1.060345e+003, -2.426381e-001
1.060827e+003, -3.121752e-001
1.061309e+003, -3.872461e-001
1.061791e+003, -2.952333e-001
1.062273e+003, 1.948246e-002
1.062755e+003, 2.334913e-001
1.063237e+003, 1.705037e-001
1.063719e+003, -2.697125e-002
1.064202e+003, -1.875795e-001
1.064684e+003, -3.074726e-001
1.065166e+003, -3.796838e-001
1.065648e+003, -4.017875e-001
1.066130e+003, -3.664174e-001
1.066612e+003, -2.406549e-001
1.067094e+003, -1.109279e-001
1.067576e+003, -5.115123e-002
1.068059e+003, -5.003344e-002
1.068541e+003, -6.115365e-002
1.069023e+003, -7.843152e-002
1.069505e+003, -6.125886e-002
1.069987e+003, 5.699631e-002
1.070469e+003, 1.711643e-001
1.070951e+003, 2.264705e-001
1.071433e+003, 2.379128e-001
1.071916e+003, 2.189310e-001
1.072398e+003, 1.604259e-001
1.072880e+003, 1.704001e-001
1.073362e+003, 2.760982e-001
1.073844e+003, 3.663402e-001
1.074326e+003, 3.220202e-001
1.074808e+003, 2.064183e-001
1.075290e+003, 7.243570e-002
1.075772e+003, -7.343790e-002
1.076255e+003, -2.018697e-001
1.076737e+003, -3.264942e-001
1.077219e+003, -3.947359e-001
1.077701e+003, -3.767473e-001
1.078183e+003, -3.103951e-001
1.078665e+003, -2.710172e-001
1.079147e+003, -2.419531e-001
1.079629e+003, -1.786601e-001
1.080111e+003, -4.922198e-002
1.080594e+003, 5.605026e-002
1.081076e+003, 1.017884e-001
1.081558e+003, 1.149201e-001
1.082040e+003, 8.570777e-002
1.082522e+003, 2.663663e-002
1.083004e+003, 1.331570e-001
1.083486e+003, 3.768711e-001
1.083968e+003, 4.778480e-001
1.084450e+003, 1.348023e-001
1.084933e+003, -2.369710e-001
1.085415e+003, -3.935879e-001
1.085897e+003, -3.972274e-001
1.086379e+003, -3.574317e-001
1.086861e+003, -2.694637e-001
1.087343e+003, -1.620106e-001
1.087825e+003, -2.974052e-002
1.088307e+003, 7.814057e-002
1.088790e+003, 1.248563e-001
1.089272e+003, 1.184087e-001
1.089754e+003, 4.428278e-002
1.090236e+003, -8.136819e-002
1.090718e+003, -1.759567e-001
1.091200e+003, -2.446841e-001
1.091682e+003, -2.365432e-001
1.092164e+003, -1.136135e-001
1.092646e+003, 3.600134e-002
1.093129e+003, 8.702808e-002
1.093611e+003, 5.593391e-002
1.094093e+003, -4.523529e-002
1.094575e+003, -2.233812e-001
1.095057e+003, -3.251866e-001
1.095539e+003, -1.911480e-001
1.096021e+003, -6.309550e-002
1.096503e+003, -5.529036e-002
1.096986e+003, -1.312364e-001
1.097468e+003, -1.550913e-001
1.097950e+003, -1.308530e-001
1.098432e+003, -8.737680e-002
1.098914e+003, -1.908529e-002
1.099396e+003, 2.622315e-002
1.099878e+003, -3.660040e-002
1.100360e+003, -1.049163e-001
1.100843e+003, -6.067051e-002
1.101325e+003, 1.159677e-001
1.101807e+003, 2.123596e-001
1.102289e+003, 2.254317e-001
1.102771e+003, 1.975411e-001
1.103253e+003, 1.346168e-001
1.103735e+003, 6.107360e-002
1.104217e+003, -6.475554e-003
1.104699e+003, -5.969147e-002
1.105182e+003, -8.140521e-002
1.105664e+003, -3.128206e-002
1.106146e+003, -2.465595e-002
1.106628e+003, -8.169952e-002
1.107110e+003, -1.359263e-001
1.107592e+003, -1.308493e-001
1.108074e+003, -7.932348e-002
1.108556e+003, 1.253689e-002
1.109038e+003, 1.321781e-001
1.109521e+003, 2.210911e-001
1.110003e+003, 3.118426e-001
1.110485e+003, 2.821389e-001
1.110967e+003, 5.251328e-002
1.111449e+003, -2.353963e-001
1.111931e+003, -3.879434e-001
1.112413e+003, -4.133634e-001
1.112895e+003, -3.077854e-001
1.113377e+003, -6.745113e-002
1.113860e+003, 1.128977e-001
1.114342e+003, 4.959524e-002
1.114824e+003, -4.098772e-002
1.115306e+003, -4.366866e-002
1.115788e+003, 2.084160e-002
1.116270e+003, 1.056503e-001
1.116752e+003, 2.097098e-001
1.117234e+003, 2.297343e-001
1.117717e+003, 1.221666e-001
1.118199e+003, -2.674212e-003
1.118681e+003, -5.585500e-002
1.119163e+003, -7.340935e-002
1.119645e+003, -9.050048e-002
1.120127e+003, -1.107910e-001
1.120609e+003, -8.946162e-002
1.121091e+003, -1.654212e-002
1.121573e+003, 3.330750e-002
1.122056e+003, 1.782060e-002
1.122538e+003, -1.906651e-002
1.123020e+003, -6.181320e-002
1.123502e+003, -7.231171e-002
1.123984e+003, 2.219795e-002
1.124466e+003, 3.444423e-001
1.124948e+003, 5.019874e-001
1.125430e+003, 4.445427e-001
1.125913e+003, 3.417467e-001
1.126395e+003, 3.203464e-001
1.126877e+003, 3.265539e-001
1.127359e+003, 2.208807e-001
1.127841e+003, 3.919990e-002
1.128323e+003, -1.179049e-001
1.128805e+003, -2.175433e-001
1.129287e+003, -2.810416e-001
1.129770e+003, -3.130566e-001
1.130252e+003, -3.134620e-001
1.130734e+003, -2.604044e-001
1.131216e+003, -1.754261e-001
1.131698e+003, -1.545221e-001
1.132180e+003, -1.929689e-001
1.132662e+003, -2.271870e-001
1.133144e+003, -2.361663e-001
1.133626e+003, -2.164164e-001
1.134109e+003, -1.292827e-001
1.134591e+003, -4.272619e-002
1.135073e+003, -1.010969e-001
1.135555e+003, -2.834496e-001
1.136037e+003, -3.120216e-001
1.136519e+003, -1.515394e-001
1.137001e+003, -2.029828e-003
1.137483e+003, -2.324372e-002
1.137965e+003, -8.682188e-002
1.138448e+003, -1.272920e-001
1.138930e+003, -1.422637e-001
1.139412e+003, -1.166477e-001
1.139894e+003, -4.659212e-002
1.140376e+003, -1.728285e-002
1.140858e+003, -5.442070e-002
1.141340e+003, -9.271875e-002
1.141822e+003, -9.570899e-002
1.142304e+003, -5.361120e-002
1.142787e+003, 8.746192e-002
1.143269e+003, 3.221211e-001
1.143751e+003, 3.727259e-001
1.144233e+003, 2.021131e-001
1.144715e+003, 4.772444e-002
1.145197e+003, -1.102963e-002
1.145679e+003, -1.086416e-002
1.146161e+003, 5.998125e-002
1.146644e+003, 1.337848e-001
1.147126e+003, 1.062399e-001
1.147608e+003, -8.636462e-002
1.148090e+003, -1.890708e-001
1.148572e+003, -1.744864e-001
1.149054e+003, -1.428671e-001
1.149536e+003, -1.372654e-001
1.150018e+003, -1.508016e-001
1.150500e+003, -2.074516e-001
1.150983e+003, -2.660798e-001
1.151465e+003, -2.361712e-001
1.151947e+003, 5.706728e-003
1.152429e+003, 1.179002e-001
1.152911e+003, 3.487681e-002
1.153393e+003, -8.420301e-002
1.153875e+003, -1.538864e-001
1.154357e+003, -1.680909e-001
1.154840e+003, -6.476740e-002
1.155322e+003, 1.128500e-001
1.155804e+003, 2.224036e-001
1.156286e+003, 1.691778e-001
1.156768e+003, 9.397590e-002
1.157250e+003, 3.030336e-003
1.157732e+003, -7.711881e-002
1.158214e+003, -1.198429e-001
1.158697e+003, -1.307380e-001
1.159179e+003, -1.411609e-001
1.159661e+003, -1.460275e-001
1.160143e+003, -1.107730e-001
1.160625e+003, 7.840557e-002
1.161107e+003, 1.824652e-001
1.161589e+003, 8.013533e-002
1.162071e+003, -8.847823e-002
1.162553e+003, -1.456904e-001
1.163036e+003, -1.058681e-001
1.163518e+003, -6.736734e-002
1.164000e+003, -3.788036e-002
1.164482e+003, -2.006860e-002
1.164964e+003, -4.650396e-003
1.165446e+003, -1.520025e-002
1.165928e+003, -9.553587e-002
1.166410e+003, -1.900688e-001
1.166892e+003, -1.661074e-001
1.167375e+003, -3.710483e-002
1.167857e+003, -2.655970e-002
1.168339e+003, -1.693659e-001
1.168821e+003, -2.901413e-001
1.169303e+003, -2.290107e-001
1.169785e+003, -1.358600e-001
1.170267e+003, -1.237742e-001
1.170749e+003, -1.544409e-001
1.171231e+003, -1.020498e-001
1.171714e+003, 3.274559e-002
1.172196e+003, 1.439824e-001
1.172678e+003, 2.102084e-001
1.173160e+003, 2.421188e-001
1.173642e+003, 2.376374e-001
1.174124e+003, 2.104520e-001
1.174606e+003, 1.658424e-001
1.175088e+003, 1.072422e-001
1.175571e+003, 4.781539e-002
1.176053e+003, -1.319350e-002
1.176535e+003, -6.790934e-002
1.177017e+003, -1.128045e-001
1.177499e+003, -1.574698e-001
1.177981e+003, -2.677718e-001
1.178463e+003, -3.430546e-001
1.178945e+003, -2.400104e-001
1.179427e+003, 4.301381e-002
1.179910e+003, 1.762967e-001
1.180392e+003, 1.463316e-001
1.180874e+003, 1.114061e-001
1.181356e+003, 1.321029e-001
1.181838e+003, 1.680138e-001
1.182320e+003, 2.102761e-001
1.182802e+003, 2.237236e-001
1.183284e+003, 1.414009e-001
1.183767e+003, -6.495904e-002
1.184249e+003, -1.505185e-001
1.184731e+003, -9.991381e-002
1.185213e+003, -3.513584e-002
1.185695e+003, -1.552402e-003
1.186177e+003, -1.170094e-003
1.186659e+003, -5.295546e-002
1.187141e+003, -1.324994e-001
1.187624e+003, -2.176168e-001
1.188106e+003, -3.419992e-001
1.188588e+003, -2.856794e-001
1.189070e+003, -1.482139e-003
1.189552e+003, 1.848879e-001
1.190034e+003, -2.041658e-002
1.190516e+003, -3.097428e-001
1.190998e+003, -2.574605e-001
1.191480e+003, -2.823376e-002
1.191963e+003, 9.312976e-002
1.192445e+003, 1.160608e-002
1.192927e+003, -5.433763e-002
1.193409e+003, -1.053203e-001
1.193891e+003, -1.383065e-001
1.194373e+003, -1.619147e-001
1.194855e+003, -1.589119e-001
1.195337e+003, -6.018461e-002
1.195819e+003, 7.474588e-002
1.196302e+003, 1.024149e-001
1.196784e+003, -1.160791e-001
1.197266e+003, -1.393453e-001
1.197748e+003, 8.935153e-002
1.198230e+003, 3.055722e-001
1.198712e+003, 2.818137e-001
1.199194e+003, 1.303095e-001
1.199676e+003, -7.082397e-002
1.200158e+003, -2.694411e-001
1.200641e+003, -3.169246e-001
1.201123e+003, -9.295175e-002
1.201605e+003, 3.236346e-002
1.202087e+003, 1.548381e-002
1.202569e+003, -1.839663e-003
1.203051e+003, 1.792262e-001
1.203533e+003, 3.871348e-001
1.204015e+003, 3.806509e-001
1.204498e+003, 1.993006e-001
1.204980e+003, -5.770484e-003
1.205462e+003, -2.983418e-001
1.205944e+003, -3.817251e-001
1.206426e+003, -1.888916e-001
1.206908e+003, 4.797110e-002
1.207390e+003, 1.414241e-001
1.207872e+003, 1.145292e-001
1.208354e+003, -9.302510e-002
1.208837e+003, -4.130082e-001
1.209319e+003, -5.218333e-001
1.209801e+003, -2.844042e-001
1.210283e+003, -1.213510e-001
1.210765e+003, -9.173354e-002
1.211247e+003, -1.033889e-001
1.211729e+003, -2.927128e-002
1.212211e+003, 4.168353e-002
1.212694e+003, -6.601421e-002
1.213176e+003, -3.072394e-001
1.213658e+003, -3.506171e-001
1.214140e+003, -7.285471e-002
1.214622e+003, 8.661991e-002
1.215104e+003, 4.508469e-002
1.215586e+003, -4.326763e-002
1.216068e+003, 1.312214e-003
1.216551e+003, 8.577532e-002
1.217033e+003, 1.028480e-001
1.217515e+003, 4.924450e-002
1.217997e+003, -4.173872e-002
1.218479e+003, -2.014495e-001
1.218961e+003, -2.684345e-001
1.219443e+003, -2.022609e-001
1.219925e+003, -9.523959e-002
1.220407e+003, -3.022038e-002
1.220890e+003, 3.738838e-003
1.221372e+003, 1.247006e-002
1.221854e+003, -1.420539e-003
1.222336e+003, -1.743165e-002
1.222818e+003, -3.784376e-002
1.223300e+003, -5.665511e-002
1.223782e+003, -8.336163e-002
1.224264e+003, -5.947675e-002
1.224746e+003, 1.576401e-001
1.225229e+003, 4.024296e-001
1.225711e+003, 5.018234e-001
1.226193e+003, 4.458315e-001
1.226675e+003, 3.531030e-001
1.227157e+003, 2.102540e-001
1.227639e+003, 1.105936e-001
1.228121e+003, 7.654229e-002
1.228603e+003, 7.796999e-002
1.229085e+003, 1.521257e-001
1.229568e+003, 1.939247e-001
1.230050e+003, 3.590803e-002
1.230532e+003, -2.869236e-001
1.231014e+003, -3.728430e-001
1.231496e+003, -1.898964e-001
1.231978e+003, -6.352466e-002
1.232460e+003, -7.817533e-002
1.232942e+003, -1.145833e-001
1.233425e+003, -9.518972e-003
1.233907e+003, 8.735377e-002
1.234389e+003, -1.484319e-002
1.234871e+003, -2.658108e-001
1.235353e+003, -2.925984e-001
1.235835e+003, -8.039276e-002
1.236317e+003, -9.288857e-003
1.236799e+003, -2.016875e-001
1.237281e+003, -3.790793e-001
1.237764e+003, -2.663489e-001
1.238246e+003, -7.590597e-002
1.238728e+003, 4.873384e-002
1.239210e+003, 1.025118e-001
1.239692e+003, 2.251139e-002
1.240174e+003, -1.810488e-001
1.240656e+003, -2.520538e-001
1.241138e+003, -1.089048e-001
1.241621e+003, 5.276385e-002
1.242103e+003, 1.135968e-001
1.242585e+003, 1.136627e-001
1.243067e+003, 5.595604e-002
1.243549e+003, -3.166496e-002
1.244031e+003, -3.729272e-002
1.244513e+003, 2.613514e-002
1.244995e+003, 5.363039e-002
1.245478e+003, 1.705678e-002
1.245960e+003, -3.288400e-002
1.246442e+003, -7.984740e-002
1.246924e+003, -1.164502e-001
1.247406e+003, -1.438483e-001
1.247888e+003, -1.568961e-001
1.248370e+003, -1.381741e-001
1.248852e+003, -8.997076e-002
1.249334e+003, 1.558702e-003
1.249817e+003, 1.582623e-001
1.250299e+003, 2.220513e-001
1.250781e+003, -3.296514e-002
1.251263e+003, -2.126617e-001
1.251745e+003, -1.235369e-001
1.252227e+003, 1.073821e-001
1.252709e+003, 1.629805e-001
1.253191e+003, 9.939504e-002
1.253673e+003, 9.285732e-002
1.254156e+003, 1.931898e-001
1.254638e+003, 2.319023e-001
1.255120e+003, 1.112603e-001
1.255602e+003, -1.677656e-002
1.256084e+003, -1.174912e-001
1.256566e+003, -1.751879e-001
1.257048e+003, -1.144868e-001
1.257530e+003, -1.157043e-005
1.258012e+003, 1.710661e-002
1.258495e+003, -1.034815e-001
1.258977e+003, -1.538165e-001
1.259459e+003, -7.121704e-002
1.259941e+003, 3.765781e-003
1.260423e+003, 2.143387e-002
1.260905e+003, 2.077084e-002
1.261387e+003, 6.033172e-002
1.261869e+003, 1.240054e-001
1.262352e+003, 2.031512e-001
1.262834e+003, 2.988080e-001
1.263316e+003, 3.161958e-001
1.263798e+003, 2.259355e-001
1.264280e+003, 1.558636e-001
1.264762e+003, 1.476288e-001
1.265244e+003, 1.616793e-001
1.265726e+003, 1.520755e-001
1.266208e+003, 1.364071e-001
1.266691e+003, 1.556069e-001
1.267173e+003, 2.061648e-001
1.267655e+003, 1.321277e-001
1.268137e+003, -8.880998e-002
1.268619e+003, -2.527735e-001
1.269101e+003, -3.031028e-001
1.269583e+003, -2.922960e-001
1.270065e+003, -2.288124e-001
1.270548e+003, -1.602897e-001
1.271030e+003, -1.372020e-001
1.271512e+003, -1.482321e-001
1.271994e+003, -1.576255e-001
1.272476e+003, -1.638275e-001
1.272958e+003, -7.611751e-002
1.273440e+003, 1.465739e-001
1.273922e+003, 3.039626e-001
1.274405e+003, 1.973443e-001
1.274887e+003, 3.038005e-002
1.275369e+003, -1.124011e-001
1.275851e+003, -2.023592e-001
1.276333e+003, -1.065281e-001
1.276815e+003, 1.243903e-001
1.277297e+003, 2.074819e-001
1.277779e+003, 7.892339e-002
1.278261e+003, -2.220106e-002
1.278744e+003, 7.486843e-002
1.279226e+003, 1.662099e-001
1.279708e+003, 1.785159e-001
1.280190e+003, 1.416847e-001
1.280672e+003, 1.066590e-001
1.281154e+003, 7.123880e-002
1.281636e+003, 2.450843e-002
1.282118e+003, -3.531434e-002
1.282600e+003, -7.867979e-002
1.283083e+003, -1.329337e-001
1.283565e+003, -8.990636e-002
1.284047e+003, 1.180508e-001
1.284529e+003, 3.318532e-001
1.285011e+003, 2.959875e-001
1.285493e+003, 1.311380e-001
1.285975e+003, 5.233064e-003
1.286457e+003, -6.412218e-002
1.286939e+003, -8.863202e-002
1.287422e+003, -4.604653e-002
1.287904e+003, -7.559385e-002
1.288386e+003, -2.359146e-001
1.288868e+003, -3.207639e-001
1.289350e+003, 5.814679e-002
1.289832e+003, 4.946786e-001
1.290314e+003, 5.321752e-001
1.290796e+003, 2.300176e-001
1.291279e+003, 4.621023e-002
1.291761e+003, -7.698445e-003
1.292243e+003, -6.677112e-002
1.292725e+003, -1.514297e-001
1.293207e+003, -2.150450e-001
1.293689e+003, -2.181162e-001
1.294171e+003, -1.892312e-001
1.294653e+003, -1.152689e-001
1.295135e+003, -3.849282e-002
1.295618e+003, -5.872987e-002
1.296100e+003, -1.579508e-001
1.296582e+003, -1.236798e-001
1.297064e+003, 5.307059e-002
1.297546e+003, 1.564482e-001
1.298028e+003, -4.553116e-002
1.298510e+003, -2.027033e-001
1.298992e+003, -2.073655e-001
1.299475e+003, -1.198607e-001
1.299957e+003, 2.272726e-002
1.300439e+003, 1.859055e-001
1.300921e+003, 2.627760e-001
1.301403e+003, 2.565388e-001
1.301885e+003, 2.331034e-001
##END=



