##NAMES=Altaite
##RRUFFID=R060939
##IDEAL CHEMISTRY=Pb^2+^Te^2-^
##LOCALITY=870 Level, Mattagami mine, Matagami, Quebec, Canada
##OWNER=Michael Scott
##SOURCE=Michael Scott
##DESCRIPTION=Gray metallic crystals with excellent cleavage
##STATUS=The identification of this mineral is confirmed by single-crystal X-ray diffraction and chemical analysis.
##URL=rruff.info/R060939
##MEASURED CHEMISTRY=Pb_1.00_Te_1.00_
179.8635, 850.3472
180.3457, 859.3776
180.8278, 861.6484
181.3099, 856.7626
181.7920, 847.0503
182.2741, 823.1993
182.7562, 798.4603
183.2384, 789.4135
183.7205, 806.1859
184.2026, 831.6249
184.6847, 842.2937
185.1668, 835.2654
185.6489, 826.5251
186.1311, 820.7759
186.6132, 817.9199
187.0953, 818.9252
187.5774, 825.3915
188.0595, 833.5654
188.5416, 837.4900
189.0238, 835.8930
189.5059, 835.7147
189.9880, 849.6918
190.4701, 862.8352
190.9522, 856.3895
191.4343, 818.1368
191.9165, 772.4907
192.3986, 755.2290
192.8807, 772.0336
193.3628, 792.0067
193.8449, 809.4072
194.3270, 821.4695
194.8092, 823.2969
195.2913, 811.4979
195.7734, 794.3196
196.2555, 781.9751
196.7376, 774.4503
197.2197, 771.6317
197.7019, 777.4255
198.1840, 786.3459
198.6661, 794.7548
199.1482, 802.4783
199.6303, 807.1508
200.1124, 803.7502
200.5946, 790.2397
201.0767, 779.5104
201.5588, 780.9442
202.0409, 784.8403
202.5230, 782.6995
203.0051, 771.5663
203.4873, 758.4579
203.9694, 752.5004
204.4515, 754.9756
204.9336, 756.3887
205.4157, 749.9440
205.8978, 743.4123
206.3800, 743.6213
206.8621, 752.4432
207.3442, 764.5141
207.8263, 776.9458
208.3084, 790.8153
208.7905, 794.1876
209.2727, 772.4052
209.7548, 745.4604
210.2369, 728.7337
210.7190, 725.0543
211.2011, 726.8210
211.6832, 726.9597
212.1654, 725.3064
212.6475, 725.3903
213.1296, 727.2521
213.6117, 732.0541
214.0938, 744.1597
214.5760, 764.4305
215.0581, 779.1388
215.5402, 770.4340
216.0223, 738.8766
216.5044, 718.5067
216.9865, 720.8475
217.4687, 733.1312
217.9508, 748.1641
218.4329, 765.2936
218.9150, 777.5706
219.3971, 777.6503
219.8792, 766.6375
220.3614, 755.5920
220.8435, 742.8328
221.3256, 734.8325
221.8077, 739.4644
222.2898, 755.5288
222.7719, 767.9191
223.2541, 761.4915
223.7362, 740.9927
224.2183, 731.9484
224.7004, 743.9962
225.1825, 759.2498
225.6646, 764.5518
226.1468, 760.7930
226.6289, 752.1757
227.1110, 735.4912
227.5931, 715.1902
228.0752, 707.0212
228.5573, 717.9142
229.0395, 730.7650
229.5216, 730.6428
230.0037, 721.0569
230.4858, 713.3749
230.9679, 715.1105
231.4500, 721.6983
231.9322, 722.5718
232.4143, 715.0636
232.8964, 707.9111
233.3785, 709.5109
233.8606, 716.6011
234.3427, 721.7276
234.8249, 719.5467
235.3070, 715.2240
235.7891, 716.8548
236.2712, 725.3996
236.7533, 735.6655
237.2354, 747.7100
237.7176, 758.7447
238.1997, 761.7333
238.6818, 748.9455
239.1639, 731.6938
239.6460, 720.6657
240.1281, 715.8382
240.6103, 717.2382
241.0924, 730.2223
241.5745, 748.2958
242.0566, 755.5172
242.5387, 743.5817
243.0208, 728.0476
243.5030, 719.8088
243.9851, 718.3822
244.4672, 720.5562
244.9493, 727.4108
245.4314, 735.2685
245.9135, 735.3239
246.3957, 722.1440
246.8778, 710.1096
247.3599, 709.6747
247.8420, 717.3894
248.3241, 721.6678
248.8062, 717.6088
249.2884, 708.1221
249.7705, 698.4108
250.2526, 686.0795
250.7347, 678.8427
251.2168, 682.6865
251.6989, 693.0635
252.1811, 701.4453
252.6632, 704.9828
253.1453, 706.1445
253.6274, 709.8557
254.1095, 718.5034
254.5916, 721.2864
255.0738, 709.8566
255.5559, 693.9904
256.0380, 685.8063
256.5201, 688.1146
257.0022, 695.9290
257.4843, 703.9214
257.9665, 712.5444
258.4486, 718.9692
258.9307, 723.2232
259.4128, 725.1923
259.8949, 723.7700
260.3770, 719.2337
260.8592, 714.2983
261.3413, 711.3221
261.8234, 710.4594
262.3055, 711.5435
262.7876, 718.4573
263.2697, 723.7229
263.7519, 720.0931
264.2340, 710.2396
264.7161, 704.6077
265.1982, 712.2608
265.6803, 732.6783
266.1624, 741.5462
266.6446, 727.9180
267.1267, 716.2454
267.6088, 715.3965
268.0909, 721.7058
268.5730, 728.2189
269.0551, 731.1676
269.5373, 730.6763
270.0194, 727.2946
270.5015, 718.0490
270.9836, 709.0166
271.4657, 700.4515
271.9478, 692.4713
272.4300, 684.1137
272.9121, 674.9924
273.3942, 667.8500
273.8763, 670.0373
274.3584, 695.2513
274.8405, 705.4531
275.3227, 682.1560
275.8048, 655.4337
276.2869, 650.4928
276.7690, 672.2626
277.2511, 704.2897
277.7332, 725.8157
278.2154, 735.7996
278.6975, 738.2013
279.1796, 728.3062
279.6617, 714.9329
280.1438, 699.6411
280.6259, 684.0748
281.1081, 672.2048
281.5902, 669.8241
282.0723, 677.2576
282.5544, 677.4545
283.0365, 659.4507
283.5186, 646.5465
284.0008, 650.3539
284.4829, 666.3668
284.9650, 684.5401
285.4471, 702.2618
285.9292, 716.6898
286.4113, 716.3561
286.8935, 694.2723
287.3756, 671.8817
287.8577, 656.5537
288.3398, 647.0863
288.8219, 642.2941
289.3040, 641.8586
289.7862, 645.7530
290.2683, 656.2422
290.7504, 674.6616
291.2325, 689.5062
291.7146, 696.3365
292.1967, 696.9265
292.6789, 692.2634
293.1610, 680.9277
293.6431, 669.6055
294.1252, 662.3031
294.6073, 659.0679
295.0894, 661.1243
295.5716, 671.6786
296.0537, 683.8525
296.5358, 688.9627
297.0179, 687.0242
297.5000, 682.1166
297.9821, 672.3256
298.4643, 661.4610
298.9464, 657.1348
299.4285, 661.4569
299.9106, 667.4581
300.3927, 666.9496
300.8748, 659.8596
301.3570, 657.6496
301.8391, 669.2650
302.3212, 680.7612
302.8033, 677.0936
303.2854, 659.3987
303.7675, 644.2220
304.2497, 643.6910
304.7318, 657.0277
305.2139, 669.6946
305.6960, 688.2855
306.1781, 699.6153
306.6602, 690.6545
307.1424, 671.1364
307.6245, 662.9434
308.1066, 678.2354
308.5887, 706.5837
309.0708, 716.2188
309.5529, 683.3499
310.0351, 660.1628
310.5172, 653.1569
310.9993, 654.8366
311.4814, 659.5797
311.9635, 665.2236
312.4456, 670.0355
312.9278, 670.9510
313.4099, 664.8980
313.8920, 662.8109
314.3741, 667.8688
314.8562, 673.5991
315.3383, 675.9445
315.8205, 675.3146
316.3026, 675.1362
316.7847, 679.0969
317.2668, 687.1870
317.7489, 691.6257
318.2310, 692.3267
318.7132, 688.9678
319.1953, 678.9999
319.6774, 665.5060
320.1595, 653.0834
320.6416, 643.7199
321.1237, 637.5468
321.6059, 635.9793
322.0880, 641.1924
322.5701, 644.7383
323.0522, 638.7282
323.5343, 632.1227
324.0164, 635.2173
324.4986, 651.8150
324.9807, 668.9758
325.4628, 673.4684
325.9449, 665.9936
326.4270, 655.6694
326.9091, 639.5225
327.3913, 627.6226
327.8734, 632.7480
328.3555, 654.5652
328.8376, 673.8081
329.3197, 683.4979
329.8018, 684.7706
330.2840, 675.7002
330.7661, 654.0154
331.2482, 636.7677
331.7303, 642.4683
332.2124, 668.3337
332.6945, 683.3981
333.1767, 677.7621
333.6588, 667.3242
334.1409, 662.3320
334.6230, 662.0525
335.1051, 661.4335
335.5872, 657.1334
336.0694, 650.9479
336.5515, 650.3116
337.0336, 663.7956
337.5157, 671.4167
337.9979, 664.3210
338.4800, 651.5952
338.9621, 645.0889
339.4442, 648.4373
339.9263, 656.2991
340.4084, 660.4681
340.8906, 659.6757
341.3727, 657.9633
341.8548, 651.2878
342.3369, 647.1272
342.8190, 652.0834
343.3011, 664.4810
343.7833, 676.8148
344.2654, 683.2150
344.7475, 683.7341
345.2296, 679.7999
345.7117, 664.4637
346.1938, 653.2999
346.6760, 653.3980
347.1581, 640.1970
347.6402, 663.4049
348.1223, 676.1468
348.6044, 678.9850
349.0865, 642.2570
349.5687, 656.6205
350.0508, 650.5089
350.5329, 643.5577
351.0150, 665.1121
351.4971, 634.1390
351.9792, 655.2415
352.4614, 655.5562
352.9435, 665.3849
353.4256, 654.6122
353.9077, 650.2025
354.3898, 662.9521
354.8719, 677.4758
355.3541, 681.1115
355.8362, 676.2568
356.3183, 671.2974
356.8004, 667.5051
357.2825, 664.8638
357.7646, 662.8588
358.2468, 661.6906
358.7289, 663.8046
359.2110, 672.4634
359.6931, 684.6266
360.1752, 687.3266
360.6573, 672.7211
361.1395, 660.0306
361.6216, 653.4836
362.1037, 651.8688
362.5858, 655.3892
363.0679, 663.9142
363.5500, 672.3320
364.0322, 672.4068
364.5143, 658.9312
364.9964, 650.2661
365.4785, 648.9384
365.9606, 649.4730
366.4427, 648.3124
366.9249, 646.0454
367.4070, 646.1434
367.8891, 652.3401
368.3712, 663.2594
368.8533, 665.9412
369.3354, 650.5693
369.8176, 641.2111
370.2997, 648.5606
370.7818, 662.6819
371.2639, 671.9608
371.7460, 672.1696
372.2281, 668.0736
372.7103, 665.2285
373.1924, 663.6402
373.6745, 663.7854
374.1566, 668.5480
374.6387, 672.2320
375.1208, 668.5895
375.6030, 658.1766
376.0851, 650.2544
376.5672, 648.3998
377.0493, 652.3190
377.5314, 664.8931
378.0135, 687.7758
378.4957, 705.7943
378.9778, 707.2419
379.4599, 693.9479
379.9420, 680.5569
380.4241, 663.9027
380.9063, 650.4943
381.3884, 644.8205
381.8705, 644.7577
382.3526, 645.5681
382.8347, 645.3254
383.3168, 645.7358
383.7990, 650.2914
384.2811, 664.2479
384.7632, 672.3967
385.2453, 672.2397
385.7274, 668.3195
386.2095, 661.3297
386.6917, 653.0052
387.1738, 648.1348
387.6559, 651.8964
388.1380, 663.7276
388.6201, 668.9091
389.1022, 659.5496
389.5844, 653.2079
390.0665, 657.8729
390.5486, 666.3314
391.0307, 668.2211
391.5128, 659.0469
391.9949, 647.2125
392.4771, 646.5427
392.9592, 658.5591
393.4413, 665.5487
393.9234, 660.3958
394.4055, 652.6029
394.8876, 650.6447
395.3698, 653.9409
395.8519, 655.6603
396.3340, 647.9156
396.8161, 638.1018
397.2982, 641.1235
397.7803, 658.6173
398.2625, 675.1879
398.7446, 682.3683
399.2267, 680.0852
399.7088, 671.4924
400.1909, 643.4994
400.6730, 624.7909
401.1552, 635.1886
401.6373, 660.0280
402.1194, 673.7284
402.6015, 667.9518
403.0836, 654.2740
403.5657, 650.1005
404.0479, 660.9050
404.5300, 665.3951
405.0121, 660.1946
405.4942, 652.7118
405.9763, 643.7919
406.4584, 635.7531
406.9406, 634.5010
407.4227, 645.9353
407.9048, 664.3765
408.3869, 664.6316
408.8690, 632.1251
409.3511, 610.7006
409.8333, 619.1296
410.3154, 637.2223
410.7975, 647.2183
411.2796, 645.4646
411.7617, 642.4170
412.2438, 651.4175
412.7260, 668.7431
413.2081, 671.1416
413.6902, 649.5170
414.1723, 626.8312
414.6544, 627.1212
415.1365, 642.8717
415.6187, 650.4672
416.1008, 635.7523
416.5829, 619.4578
417.0650, 620.2665
417.5471, 633.6452
418.0292, 641.7200
418.5114, 635.7230
418.9935, 622.8818
419.4756, 618.6534
419.9577, 629.6273
420.4398, 637.3484
420.9219, 637.3711
421.4041, 636.7230
421.8862, 641.8250
422.3683, 652.2147
422.8504, 662.6732
423.3325, 669.3124
423.8146, 672.0208
424.2968, 669.0533
424.7789, 653.0626
425.2610, 641.8450
425.7431, 642.7604
426.2252, 648.5913
426.7073, 650.8833
427.1895, 647.0329
427.6716, 642.4125
428.1537, 645.7147
428.6358, 656.0340
429.1179, 655.9673
429.6000, 635.8469
430.0822, 616.6716
430.5643, 621.4668
431.0464, 643.3948
431.5285, 655.5163
432.0106, 640.0746
432.4927, 619.9274
432.9749, 616.9803
433.4570, 628.3979
433.9391, 639.6801
434.4212, 644.3879
434.9033, 644.6412
435.3854, 644.9765
435.8676, 643.1500
436.3497, 645.6253
436.8318, 657.5788
437.3139, 670.5134
437.7960, 679.9526
438.2781, 684.2128
438.7603, 680.3969
439.2424, 663.6704
439.7245, 636.5636
440.2066, 625.3152
440.6887, 641.3501
441.1708, 656.8054
441.6530, 665.6287
442.1351, 670.3448
442.6172, 674.7402
443.0993, 679.9448
443.5814, 679.9543
444.0635, 662.9587
444.5457, 632.6550
445.0278, 617.5381
445.5099, 627.3643
445.9920, 639.2531
446.4741, 628.6093
446.9562, 603.2173
447.4384, 590.4199
447.9205, 607.1476
448.4026, 626.4902
448.8847, 630.0467
449.3668, 621.5177
449.8489, 608.3379
450.3311, 592.0338
450.8132, 580.9382
451.2953, 591.2327
451.7774, 640.4686
452.2595, 670.6295
452.7416, 674.6198
453.2238, 667.4163
453.7059, 649.5368
454.1880, 627.4804
454.6701, 615.3999
455.1522, 624.3095
455.6343, 646.4318
456.1165, 656.4128
456.5986, 650.2435
457.0807, 642.3511
457.5628, 631.7309
458.0449, 623.7570
458.5270, 624.6348
459.0092, 634.6176
459.4913, 643.6851
459.9734, 644.0463
460.4555, 639.4748
460.9376, 637.8754
461.4197, 639.9839
461.9019, 642.5587
462.3840, 643.4874
462.8661, 643.2214
463.3482, 643.8315
463.8303, 649.7382
464.3124, 650.7141
464.7946, 637.1863
465.2767, 620.2109
465.7588, 614.5068
466.2409, 622.6218
466.7230, 635.4789
467.2051, 643.5229
467.6873, 646.5049
468.1694, 648.0270
468.6515, 642.4147
469.1336, 641.9869
469.6157, 656.1364
470.0978, 675.0033
470.5800, 684.9044
471.0621, 680.6292
471.5442, 670.5747
472.0263, 664.2494
472.5084, 661.3635
472.9905, 657.8898
473.4727, 653.5870
473.9548, 647.9246
474.4369, 636.0078
474.9190, 620.8767
475.4011, 616.8424
475.8832, 637.8580
476.3654, 660.3088
476.8475, 666.6104
477.3296, 661.6129
477.8117, 658.4719
478.2938, 662.3377
478.7759, 669.6169
479.2581, 674.8573
479.7402, 679.7419
480.2223, 677.6080
480.7044, 660.5643
481.1865, 645.0978
481.6686, 640.2506
482.1508, 643.3533
482.6329, 647.6440
483.1150, 649.8480
483.5971, 649.8923
484.0792, 645.7349
484.5613, 635.6782
485.0435, 632.7979
485.5256, 645.4727
486.0077, 661.2654
486.4898, 669.5665
486.9719, 670.6852
487.4540, 668.6276
487.9362, 660.6751
488.4183, 653.0541
488.9004, 654.7487
489.3825, 664.0278
489.8646, 670.8680
490.3467, 670.8417
490.8289, 664.1041
491.3110, 650.2701
491.7931, 612.4110
492.2752, 596.6165
492.7573, 622.3384
493.2394, 653.7106
493.7216, 666.2971
494.2037, 661.7896
494.6858, 654.5345
495.1679, 653.5755
495.6500, 657.7889
496.1321, 664.7388
496.6143, 676.0732
497.0964, 684.5528
497.5785, 690.6332
498.0606, 690.8605
498.5427, 678.0924
499.0248, 652.5689
499.5070, 633.8040
499.9891, 633.7965
500.4712, 644.0428
500.9533, 655.7512
501.4355, 667.9481
501.9176, 678.9481
502.3997, 689.2236
502.8818, 695.5192
503.3639, 688.0302
503.8460, 648.3562
504.3282, 622.0639
504.8103, 617.0761
505.2924, 620.5938
505.7745, 625.1257
506.2566, 629.4377
506.7387, 634.9184
507.2209, 643.5523
507.7030, 653.0778
508.1851, 654.7624
508.6672, 645.6072
509.1493, 638.3890
509.6314, 636.6905
510.1136, 638.6711
510.5957, 644.6948
511.0778, 654.7298
511.5599, 660.3857
512.0420, 653.3149
512.5241, 642.5037
513.0062, 640.1002
513.4883, 645.5295
513.9705, 649.1160
514.4526, 644.3245
514.9347, 636.5425
515.4168, 640.7455
515.8989, 673.3998
516.3810, 692.7305
516.8632, 690.8818
517.3453, 682.3218
517.8274, 674.6245
518.3095, 669.0283
518.7916, 664.8171
519.2737, 661.7476
519.7559, 659.5281
520.2380, 656.8038
520.7201, 652.9131
521.2022, 652.7221
521.6843, 662.1583
522.1664, 671.4708
522.6486, 669.3559
523.1307, 656.0682
523.6128, 643.9147
524.0949, 635.1019
524.5770, 630.4053
525.0591, 631.5781
525.5413, 637.7101
526.0234, 647.1697
526.5055, 660.0759
526.9876, 671.3253
527.4697, 669.1295
527.9518, 641.2413
528.4340, 627.2548
528.9161, 638.1938
529.3982, 650.6299
529.8803, 653.7864
530.3624, 649.0500
530.8445, 641.2633
531.3267, 631.8633
531.8088, 622.7794
532.2909, 616.8133
532.7730, 613.9311
533.2551, 613.0577
533.7372, 613.7635
534.2194, 616.7958
534.7015, 624.3704
535.1836, 636.0153
535.6657, 645.0807
536.1478, 651.0470
536.6299, 654.1016
537.1121, 651.7430
537.5942, 647.0824
538.0763, 646.0964
538.5584, 650.6822
539.0405, 657.1839
539.5226, 660.2097
540.0048, 658.8276
540.4869, 660.6945
540.9690, 672.4053
541.4511, 678.8293
541.9332, 667.8578
542.4153, 650.9801
542.8975, 646.7983
543.3796, 663.0366
543.8617, 679.4262
544.3438, 679.4860
544.8259, 667.2429
545.3080, 649.4939
545.7902, 626.5283
546.2723, 611.9664
546.7544, 619.2487
547.2365, 644.7784
547.7186, 657.6757
548.2007, 648.8450
548.6829, 640.6937
549.1650, 636.7306
549.6471, 634.7634
550.1292, 631.1717
550.6113, 626.6005
551.0934, 626.8293
551.5756, 638.9455
552.0577, 658.7774
552.5398, 670.5751
553.0219, 673.6536
553.5040, 670.4633
553.9861, 655.4727
554.4683, 639.5231
554.9504, 638.6716
555.4325, 654.8379
555.9146, 663.7534
556.3967, 651.3641
556.8788, 633.8054
557.3610, 622.3922
557.8431, 618.2415
558.3252, 623.9602
558.8073, 641.7330
559.2894, 661.8383
559.7715, 662.1653
560.2537, 630.0013
560.7358, 611.7686
561.2179, 620.2223
561.7000, 631.1213
562.1821, 631.7020
562.6642, 627.9491
563.1464, 635.3021
563.6285, 665.9349
564.1106, 693.0964
564.5927, 682.5207
565.0748, 645.0042
565.5569, 617.6768
566.0391, 607.8265
566.5212, 608.5820
567.0033, 617.0036
567.4854, 632.4387
567.9675, 634.9324
568.4496, 609.1714
568.9318, 591.6121
569.4139, 594.2646
569.8960, 605.8486
570.3781, 616.6936
570.8602, 624.3073
571.3423, 629.3970
571.8245, 632.8678
572.3066, 634.2278
572.7887, 629.2883
573.2708, 615.3846
573.7529, 609.2965
574.2350, 620.6333
574.7172, 640.1852
575.1993, 656.9539
575.6814, 671.9856
576.1635, 677.4548
576.6456, 663.0389
577.1277, 645.9264
577.6099, 636.5287
578.0920, 635.0718
578.5741, 641.6925
579.0562, 656.6179
579.5383, 672.4747
580.0204, 675.1344
580.5026, 661.0120
580.9847, 651.2678
581.4668, 648.8997
581.9489, 647.8055
582.4310, 643.8947
582.9132, 639.4290
583.3953, 638.5596
583.8774, 642.8734
584.3596, 649.1033
584.8417, 658.2852
585.3238, 666.9011
585.8059, 666.6931
586.2880, 657.3453
586.7701, 648.9774
587.2523, 649.3555
587.7344, 656.9095
588.2165, 664.1440
588.6986, 676.1880
589.1807, 679.2096
589.6628, 661.5934
590.1450, 644.1844
590.6271, 643.4841
591.1092, 656.7047
591.5913, 668.0546
592.0734, 667.1567
592.5555, 662.1306
593.0377, 668.8913
593.5198, 683.6863
594.0019, 679.5464
594.4840, 645.1232
594.9661, 606.6948
595.4482, 594.3767
595.9304, 610.6867
596.4125, 623.4543
596.8946, 632.6359
597.3767, 638.8742
597.8588, 640.8232
598.3409, 640.7498
598.8231, 640.4590
599.3052, 640.6271
599.7873, 642.1407
600.2694, 646.6069
600.7515, 653.0209
601.2336, 658.3026
601.7158, 662.5431
602.1979, 664.8301
602.6800, 665.0469
603.1621, 662.8384
603.6442, 656.1465
604.1263, 643.0339
604.6085, 635.3013
605.0906, 638.0860
605.5727, 642.7543
606.0548, 646.9637
606.5369, 648.7753
607.0190, 642.7129
607.5012, 626.9584
607.9833, 613.0705
608.4654, 620.6624
608.9475, 648.9102
609.4296, 666.5853
609.9117, 671.1713
610.3939, 668.1637
610.8760, 654.8981
611.3581, 637.8874
611.8402, 631.6073
612.3223, 642.1918
612.8044, 647.0969
613.2866, 633.0170
613.7687, 615.6951
614.2508, 610.3232
614.7329, 614.9525
615.2150, 618.8207
615.6971, 615.8937
616.1793, 610.0394
616.6614, 609.2410
617.1435, 614.2159
617.6256, 619.7928
618.1077, 627.4172
618.5898, 632.7532
619.0720, 629.0225
619.5541, 621.4584
620.0362, 622.0320
620.5183, 637.2464
621.0004, 651.6149
621.4825, 657.7337
621.9647, 659.0735
622.4468, 658.7995
622.9289, 657.8620
623.4110, 657.8038
623.8931, 660.0332
624.3752, 662.9501
624.8574, 661.4989
625.3395, 654.8782
625.8216, 646.2875
626.3037, 631.0573
626.7858, 619.6254
627.2679, 620.1853
627.7501, 629.8918
628.2322, 640.1076
628.7143, 652.3052
629.1964, 659.5365
629.6785, 651.4048
630.1606, 638.1406
630.6428, 638.6979
631.1249, 654.2384
631.6070, 667.0599
632.0891, 660.9821
632.5712, 642.3483
633.0533, 643.0115
633.5355, 675.2175
634.0176, 695.1698
634.4997, 690.6292
634.9818, 675.0164
635.4639, 648.9480
635.9460, 617.9926
636.4282, 603.0866
636.9103, 622.1996
637.3924, 646.5385
637.8745, 658.2081
638.3566, 660.9465
638.8387, 661.1620
639.3209, 660.2233
639.8030, 655.6354
640.2851, 643.7131
640.7672, 627.0319
641.2493, 623.3749
641.7314, 639.4280
642.2136, 653.0007
642.6957, 663.2173
643.1778, 666.2264
643.6599, 653.6096
644.1420, 629.2525
644.6241, 613.9666
645.1063, 622.2321
645.5884, 634.0000
646.0705, 631.8326
646.5526, 624.5198
647.0347, 632.4235
647.5168, 657.8820
647.9990, 678.5304
648.4811, 671.7463
648.9632, 642.7664
649.4453, 629.7391
649.9274, 642.4240
650.4095, 645.9535
650.8917, 620.0303
651.3738, 593.3748
651.8559, 590.1030
652.3380, 607.4776
652.8201, 625.8790
653.3022, 644.2762
653.7844, 657.2155
654.2665, 657.8181
654.7486, 651.7333
655.2307, 648.6095
655.7128, 650.1423
656.1949, 650.6724
656.6771, 643.9759
657.1592, 632.8025
657.6413, 633.6413
658.1234, 652.9254
658.6055, 662.7228
659.0876, 648.5150
659.5698, 631.2582
660.0519, 631.0289
660.5340, 644.7021
661.0161, 654.6493
661.4982, 655.5432
661.9803, 653.8621
662.4625, 650.9130
662.9446, 648.2795
663.4267, 649.6729
663.9088, 654.5920
664.3909, 656.5160
664.8730, 648.7201
665.3552, 635.7621
665.8373, 633.5209
666.3194, 643.4662
666.8015, 655.9237
667.2836, 673.4520
667.7657, 686.3206
668.2479, 680.3850
668.7300, 660.2763
669.2121, 650.5984
669.6942, 660.0203
670.1763, 671.9367
670.6584, 686.9951
671.1406, 697.8389
671.6227, 693.5080
672.1048, 676.0611
672.5869, 658.4286
673.0690, 648.8553
673.5511, 645.8942
674.0333, 650.2531
674.5154, 661.8131
674.9975, 660.5922
675.4796, 637.7240
675.9617, 616.8973
676.4438, 620.5888
676.9260, 643.6746
677.4081, 651.9743
677.8902, 626.2577
678.3723, 613.7645
678.8544, 632.4871
679.3365, 657.0080
679.8187, 669.0986
680.3008, 669.4180
680.7829, 666.3553
681.2650, 663.9059
681.7471, 660.6906
682.2292, 654.1554
682.7114, 645.2147
683.1935, 636.9650
683.6756, 629.7160
684.1577, 625.7214
684.6398, 627.2133
685.1219, 632.4382
685.6041, 635.3171
686.0862, 630.9475
686.5683, 632.7380
687.0504, 650.2557
687.5325, 663.8456
688.0146, 660.4485
688.4968, 646.7109
688.9789, 635.8668
689.4610, 632.3857
689.9431, 630.0085
690.4252, 621.5875
690.9073, 612.0569
691.3895, 610.7246
691.8716, 617.2627
692.3537, 625.9193
692.8358, 634.3080
693.3179, 639.7833
693.8000, 635.6693
694.2822, 617.4958
694.7643, 610.1194
695.2464, 621.3748
695.7285, 632.3234
696.2106, 636.5098
696.6927, 635.5994
697.1749, 629.0026
697.6570, 615.2976
698.1391, 609.0350
698.6212, 625.2897
699.1033, 642.8158
699.5854, 640.3896
700.0676, 625.8508
700.5497, 618.9224
701.0318, 625.6511
701.5139, 634.1439
701.9960, 628.6750
702.4781, 612.1141
702.9603, 610.4097
703.4424, 629.5240
703.9245, 632.6939
704.4066, 596.3652
704.8887, 553.3772
705.3708, 544.9526
705.8530, 572.3500
706.3351, 599.6827
706.8172, 634.8295
707.2993, 658.6431
707.7814, 657.1569
708.2635, 645.7544
708.7457, 639.4515
709.2278, 640.3832
709.7099, 644.1435
710.1920, 649.7403
710.6741, 653.8679
711.1563, 649.7313
711.6384, 639.0123
712.1205, 629.4849
712.6026, 622.6501
713.0847, 619.0820
713.5668, 619.6948
714.0490, 623.7507
714.5311, 627.4465
715.0132, 630.5655
715.4953, 633.6519
715.9774, 639.2568
716.4595, 642.4109
716.9417, 637.7621
717.4238, 628.9576
717.9059, 624.7469
718.3880, 629.0273
718.8701, 633.6832
719.3522, 633.1260
719.8344, 630.5950
720.3165, 631.2775
720.7986, 634.1950
721.2807, 632.6827
721.7628, 623.1589
722.2449, 613.2802
722.7271, 618.9714
723.2092, 641.1899
723.6913, 650.3165
724.1734, 642.3340
724.6555, 631.6104
725.1376, 623.7279
725.6198, 617.3677
726.1019, 608.4790
726.5840, 595.0009
727.0661, 592.1638
727.5482, 611.6639
728.0303, 630.5779
728.5125, 639.5287
728.9946, 641.6122
729.4767, 639.6528
729.9588, 635.1117
730.4409, 631.7765
730.9230, 633.6945
731.4052, 637.5562
731.8873, 638.7452
732.3694, 637.1572
732.8515, 631.5421
733.3336, 621.4418
733.8157, 609.8369
734.2979, 598.1451
734.7800, 587.8195
735.2621, 589.1796
735.7442, 610.0526
736.2263, 626.0649
736.7084, 636.5276
737.1906, 639.0790
737.6727, 626.5327
738.1548, 605.4577
738.6369, 592.4191
739.1190, 592.0404
739.6011, 596.8163
740.0833, 611.4466
740.5654, 623.7075
741.0475, 616.8801
741.5296, 596.8560
742.0117, 581.3239
742.4938, 578.2202
742.9760, 584.8395
743.4581, 603.1846
743.9402, 629.5533
744.4223, 641.0912
744.9044, 636.0615
745.3865, 625.0845
745.8687, 609.6788
746.3508, 596.7008
746.8329, 597.4320
747.3150, 614.6292
747.7971, 627.4646
748.2792, 632.7138
748.7614, 637.6373
749.2435, 647.5726
749.7256, 655.1245
750.2077, 652.7032
750.6898, 640.6518
751.1719, 625.5519
751.6541, 602.8513
752.1362, 586.7733
752.6183, 594.4725
753.1004, 614.0156
753.5825, 625.0817
754.0646, 625.8486
754.5468, 628.0369
755.0289, 640.3915
755.5110, 655.7829
755.9931, 656.2635
756.4752, 641.1976
756.9573, 634.2708
757.4395, 641.6583
757.9216, 643.3102
758.4037, 622.6470
758.8858, 592.2074
759.3679, 581.0389
759.8500, 597.8619
760.3322, 612.2730
760.8143, 624.7974
761.2964, 634.1002
761.7785, 641.2676
762.2606, 644.1345
762.7427, 638.0509
763.2249, 622.9670
763.7070, 608.7988
764.1891, 601.8945
764.6712, 598.1884
765.1533, 594.6312
765.6354, 590.6154
766.1176, 584.1569
766.5997, 575.2245
767.0818, 566.9716
767.5639, 562.1444
768.0460, 559.9869
768.5281, 556.9969
769.0103, 552.3674
769.4924, 555.3919
769.9745, 570.1063
770.4566, 586.1570
770.9387, 597.8094
771.4208, 605.0925
771.9030, 607.6531
772.3851, 603.0737
772.8672, 598.8726
773.3493, 591.5624
773.8314, 588.7157
774.3135, 596.7058
774.7957, 610.3123
775.2778, 625.5418
775.7599, 641.1298
776.2420, 643.3828
776.7241, 609.0892
777.2062, 569.0321
777.6884, 558.9578
778.1705, 569.8538
778.6526, 578.1022
779.1347, 578.1154
779.6168, 580.9042
780.0989, 598.0869
780.5811, 623.1398
781.0632, 634.1536
781.5453, 630.4914
782.0274, 620.7758
782.5095, 602.7642
782.9916, 590.3091
783.4738, 595.3839
783.9559, 612.7737
784.4380, 624.5209
784.9201, 628.1603
785.4022, 630.4987
785.8843, 629.0865
786.3665, 629.0589
786.8486, 636.6118
787.3307, 645.1665
787.8128, 642.8828
788.2949, 627.3981
788.7770, 616.9208
789.2592, 629.2585
789.7413, 642.4027
790.2234, 635.0463
790.7055, 615.3748
791.1876, 595.7369
791.6697, 580.6034
792.1519, 575.7670
792.6340, 588.7835
793.1161, 609.8158
793.5982, 613.3804
794.0803, 601.4844
794.5624, 602.2704
795.0446, 622.2618
795.5267, 637.4250
796.0088, 630.7863
796.4909, 609.7827
796.9730, 594.2028
797.4551, 585.9898
797.9373, 577.7557
798.4194, 568.6365
798.9015, 560.6815
799.3836, 549.7415
799.8657, 543.0805
800.3478, 553.6025
800.8300, 582.5884
801.3121, 602.0781
801.7942, 599.7966
802.2763, 591.4990
802.7584, 577.1650
803.2405, 566.3320
803.7227, 576.2584
804.2048, 602.6411
804.6869, 618.4973
805.1690, 605.0014
805.6511, 582.8353
806.1332, 576.2087
806.6154, 581.6195
807.0975, 593.8245
807.5796, 610.6093
808.0617, 618.8605
808.5438, 610.9297
809.0259, 597.9681
809.5081, 600.8162
809.9902, 620.8035
810.4723, 625.8884
810.9544, 610.1176
811.4365, 598.8532
811.9186, 601.9269
812.4008, 611.3269
812.8829, 619.4049
813.3650, 626.0961
813.8471, 630.5038
814.3292, 635.7743
814.8113, 634.4777
815.2935, 617.9171
815.7756, 601.3489
816.2577, 595.0419
816.7398, 597.3202
817.2219, 603.1918
817.7040, 612.6039
818.1862, 619.3789
818.6683, 617.4445
819.1504, 613.0870
819.6325, 614.0314
820.1146, 617.6155
820.5967, 614.7361
821.0789, 603.7193
821.5610, 597.0690
822.0431, 611.5638
822.5252, 635.2292
823.0073, 635.4211
823.4894, 615.5414
823.9716, 603.7483
824.4537, 606.3759
824.9358, 607.9661
825.4179, 595.0387
825.9000, 575.4960
826.3821, 576.3795
826.8643, 605.9692
827.3464, 623.9801
827.8285, 622.9025
828.3106, 621.4874
828.7927, 633.3770
829.2748, 646.8136
829.7570, 639.1392
830.2391, 606.3668
830.7212, 589.9598
831.2033, 608.5660
831.6854, 624.3319
832.1675, 620.6507
832.6497, 612.4983
833.1318, 615.7751
833.6139, 628.2696
834.0960, 635.8387
834.5781, 632.2805
835.0602, 624.2453
835.5424, 613.5739
836.0245, 602.7600
836.5066, 595.8892
836.9887, 591.5531
837.4708, 582.6690
837.9529, 567.0291
838.4351, 557.1555
838.9172, 572.5511
839.3993, 602.6321
839.8814, 617.4542
840.3635, 618.2346
840.8456, 613.6106
841.3278, 605.4332
841.8099, 598.4418
842.2920, 596.1907
842.7741, 598.9266
843.2562, 610.7590
843.7383, 637.7512
844.2205, 643.7703
844.7026, 614.8317
845.1847, 588.9787
845.6668, 586.4055
846.1489, 597.9727
846.6310, 609.5488
847.1132, 622.9412
847.5953, 627.1683
848.0774, 613.1537
848.5595, 601.7192
849.0416, 599.0629
849.5237, 600.5471
850.0059, 603.4934
850.4880, 606.8920
850.9701, 608.3340
851.4522, 605.5215
851.9343, 603.8630
852.4164, 608.4207
852.8986, 613.3763
853.3807, 614.8690
853.8628, 611.8632
854.3449, 599.8646
854.8270, 578.5197
855.3091, 563.4616
855.7913, 573.7635
856.2734, 595.8585
856.7555, 611.0334
857.2376, 619.3594
857.7197, 618.6337
858.2018, 609.5501
858.6840, 602.0233
859.1661, 603.5914
859.6482, 610.1122
860.1303, 612.8620
860.6124, 611.9097
861.0945, 609.9092
861.5767, 606.7693
862.0588, 604.6063
862.5409, 604.5358
863.0230, 605.3411
863.5051, 605.1368
863.9872, 603.8540
864.4694, 604.2749
864.9515, 604.8914
865.4336, 610.8056
865.9157, 630.9709
866.3978, 647.7640
866.8799, 645.0771
867.3621, 629.2652
867.8442, 617.5804
868.3263, 611.0613
868.8084, 607.5996
869.2905, 611.2123
869.7726, 613.0409
870.2548, 606.5759
870.7369, 597.2155
871.2190, 590.0487
871.7011, 586.4575
872.1832, 589.6961
872.6653, 608.3657
873.1475, 625.7224
873.6296, 632.1011
874.1117, 631.1182
874.5938, 622.5443
875.0759, 610.6176
875.5580, 607.0423
876.0402, 617.2211
876.5223, 626.6453
877.0044, 618.1529
877.4865, 601.2393
877.9686, 590.8192
878.4507, 586.7634
878.9329, 589.3860
879.4150, 597.6317
879.8971, 600.7140
880.3792, 587.5290
880.8613, 568.7879
881.3434, 575.6713
881.8256, 604.7726
882.3077, 610.8362
882.7898, 587.6559
883.2719, 569.4242
883.7540, 572.9856
884.2361, 588.2054
884.7183, 600.8170
885.2004, 610.7467
885.6825, 621.2405
886.1646, 635.1647
886.6467, 640.1494
887.1288, 629.9648
887.6110, 616.1933
888.0931, 606.8487
888.5752, 601.1940
889.0573, 596.5939
889.5394, 591.7679
890.0215, 590.7203
890.5037, 595.7377
890.9858, 601.6234
891.4679, 607.3041
891.9500, 612.4852
892.4321, 619.4249
892.9142, 627.1494
893.3964, 624.5729
893.8785, 591.7794
894.3606, 572.2408
894.8427, 593.1105
895.3248, 619.7159
895.8069, 624.6565
896.2891, 614.2366
896.7712, 605.5910
897.2533, 603.4161
897.7354, 600.7380
898.2175, 589.3093
898.6996, 579.9414
899.1818, 585.0358
899.6639, 596.5230
900.1460, 601.9778
900.6281, 600.3472
901.1102, 597.6092
901.5923, 597.0937
902.0745, 596.5960
902.5566, 592.6638
903.0387, 587.4751
903.5208, 583.7136
904.0029, 582.4496
904.4850, 589.2115
904.9672, 604.7354
905.4493, 615.6218
905.9314, 607.1725
906.4135, 587.9896
906.8956, 579.2686
907.3777, 579.7835
907.8599, 580.8448
908.3420, 581.3018
908.8241, 581.9722
909.3062, 583.1746
909.7883, 585.7047
910.2704, 592.5057
910.7526, 602.9941
911.2347, 598.5876
911.7168, 574.5909
912.1990, 568.2780
912.6811, 594.9629
913.1632, 620.0828
913.6453, 615.5009
914.1274, 590.1772
914.6096, 571.6224
915.0917, 557.4483
915.5738, 558.7867
916.0559, 586.8536
916.5380, 609.4249
917.0201, 613.3361
917.5023, 608.6697
917.9844, 606.3644
918.4665, 606.0350
918.9486, 600.7217
919.4307, 583.1742
919.9128, 571.6195
920.3950, 570.0333
920.8771, 571.2936
921.3592, 572.3509
921.8413, 573.8687
922.3234, 576.8655
922.8055, 581.4142
923.2877, 587.7369
923.7698, 601.9289
924.2519, 610.0162
924.7340, 601.0969
925.2161, 589.5970
925.6982, 588.2690
926.1804, 594.3220
926.6625, 598.0660
927.1446, 596.3309
927.6267, 596.2314
928.1088, 604.8086
928.5909, 612.0034
929.0731, 609.4012
929.5552, 602.0099
930.0373, 596.2146
930.5194, 592.7144
931.0015, 588.8552
931.4836, 582.2623
931.9658, 578.5800
932.4479, 585.5668
932.9300, 595.2482
933.4121, 598.5576
933.8942, 596.8845
934.3763, 593.8799
934.8585, 590.8779
935.3406, 589.0810
935.8227, 590.2704
936.3048, 591.4963
936.7869, 587.9254
937.2690, 582.0970
937.7512, 579.8831
938.2333, 580.5022
938.7154, 577.6319
939.1975, 569.0023
939.6796, 561.1637
940.1617, 560.4877
940.6439, 565.8581
941.1260, 577.9194
941.6081, 593.9947
942.0902, 604.2786
942.5723, 607.0811
943.0544, 600.6978
943.5366, 583.3958
944.0187, 566.2918
944.5008, 569.4078
944.9829, 588.2862
945.4650, 597.5172
945.9471, 597.4479
946.4293, 593.9585
946.9114, 588.2084
947.3935, 585.4630
947.8756, 590.3191
948.3577, 598.4739
948.8398, 599.0995
949.3220, 592.0649
949.8041, 589.6102
950.2862, 592.7673
950.7683, 593.1141
951.2504, 587.4807
951.7325, 580.2773
952.2147, 574.9661
952.6968, 572.1702
953.1789, 575.5408
953.6610, 587.1279
954.1431, 592.6925
954.6252, 589.6741
955.1074, 587.3260
955.5895, 590.8596
956.0716, 593.4097
956.5537, 584.9377
957.0358, 567.2797
957.5179, 562.5870
958.0001, 576.0628
958.4822, 587.7484
958.9643, 596.4674
959.4464, 601.7773
959.9285, 601.4988
960.4106, 599.8113
960.8928, 604.5699
961.3749, 616.5344
961.8570, 616.7422
962.3391, 594.3378
962.8212, 580.9125
963.3033, 588.8268
963.7855, 595.6115
964.2676, 583.9261
964.7497, 564.4601
965.2318, 557.8471
965.7139, 566.6315
966.1960, 574.7761
966.6782, 581.2955
967.1603, 588.5939
967.6424, 600.0989
968.1245, 609.5219
968.6066, 611.5322
969.0887, 608.6419
969.5709, 606.4581
970.0530, 604.8080
970.5351, 605.3400
971.0172, 613.9673
971.4993, 617.1753
971.9814, 607.0516
972.4636, 593.6549
972.9457, 584.9568
973.4278, 579.9215
973.9099, 573.5652
974.3920, 563.0770
974.8741, 558.0460
975.3563, 564.0143
975.8384, 570.6360
976.3205, 572.8506
976.8026, 574.5978
977.2847, 580.4631
977.7668, 589.5460
978.2490, 597.6011
978.7311, 605.6913
979.2132, 608.4064
979.6953, 599.8903
980.1774, 591.0052
980.6595, 589.3036
981.1417, 588.6786
981.6238, 581.7713
982.1059, 568.9141
982.5880, 554.7336
983.0701, 533.5240
983.5522, 525.3646
984.0344, 547.3875
984.5165, 572.2930
984.9986, 585.0447
985.4807, 590.0062
985.9628, 592.2042
986.4449, 592.9554
986.9271, 594.7600
987.4092, 581.2679
987.8913, 604.1564
988.3734, 616.5789
988.8555, 619.0977
989.3376, 582.0504
989.8198, 596.0943
990.3019, 589.6634
990.7840, 582.3928
991.2661, 603.6278
991.7482, 572.3352
992.2303, 593.1183
992.7125, 593.1135
993.1946, 602.6230
993.6767, 591.5307
994.1588, 586.8016
994.6409, 602.6808
995.1230, 607.1491
995.6052, 593.6850
996.0873, 603.7993
996.5694, 571.7870
997.0515, 576.7413
997.5336, 597.6449
998.0157, 585.2170
998.4979, 595.7076
998.9800, 597.4698
999.4621, 559.5634
999.9442, 590.6444
1000.426, 591.8913
1000.908, 562.5040
1001.391, 565.1638
1001.873, 565.2895
1002.355, 570.3503
1002.837, 576.8528
1003.319, 578.7182
1003.801, 575.4032
1004.283, 576.1134
1004.765, 589.8516
1005.247, 602.0028
1005.730, 606.3127
1006.212, 605.3693
1006.694, 599.8023
1007.176, 591.3242
1007.658, 579.8877
1008.140, 566.3160
1008.622, 561.4518
1009.104, 557.6208
1009.587, 581.7492
1010.069, 595.4111
1010.551, 599.1693
1011.033, 563.3613
1011.515, 578.6448
1011.997, 573.4532
1012.479, 567.4220
1012.961, 589.8965
1013.443, 559.8433
1013.926, 581.8661
1014.408, 583.1010
1014.890, 593.8497
1015.372, 583.9968
1015.854, 580.5071
1016.336, 597.6257
1016.818, 603.3333
1017.300, 591.1088
1017.783, 602.4628
1018.265, 571.6900
1018.747, 577.8837
1019.229, 600.0266
1019.711, 588.8381
1020.193, 600.5682
1020.675, 603.5697
1021.157, 566.9026
1021.639, 599.2231
1022.122, 601.7092
1022.604, 573.5610
1023.086, 603.5176
1023.568, 579.5926
1024.050, 574.9001
1024.532, 584.6812
1025.014, 579.3740
1025.496, 597.8552
1025.979, 593.4199
1026.461, 586.9365
1026.943, 589.3886
1027.425, 566.5203
1027.907, 590.6266
1028.389, 582.6452
1028.871, 590.6139
1029.353, 602.1979
1029.835, 586.0997
1030.318, 599.3086
1030.800, 567.0693
1031.282, 572.8577
1031.764, 574.5513
1032.246, 600.5514
1032.728, 570.4023
1033.210, 550.5803
1033.692, 555.0540
1034.174, 582.1485
1034.657, 595.6273
1035.139, 579.4489
1035.621, 569.1093
1036.103, 571.7397
1036.585, 575.7455
1037.067, 575.9970
1037.549, 555.5278
1038.031, 579.9119
1038.514, 593.8309
1038.996, 597.8452
1039.478, 562.2933
1039.960, 577.8329
1040.442, 572.8975
1040.924, 567.1224
1041.406, 589.8530
1041.888, 560.0559
1042.370, 582.3345
1042.853, 583.8264
1043.335, 594.8312
1043.817, 585.2346
1044.299, 582.0009
1044.781, 599.3757
1045.263, 605.3393
1045.745, 593.3710
1046.227, 604.9807
1046.709, 574.4639
1047.192, 580.9147
1047.674, 603.3138
1048.156, 592.3813
1048.638, 604.3676
1049.120, 607.6252
1049.602, 571.2144
1050.084, 603.7908
1050.566, 606.5327
1051.049, 578.6414
1051.531, 608.8542
1052.013, 585.1852
1052.495, 580.7488
1052.977, 590.7861
1053.459, 585.7350
1053.941, 604.4724
1054.423, 600.2926
1054.906, 594.0663
1055.388, 596.7745
1055.870, 574.1623
1056.352, 598.5248
1056.834, 590.7994
1057.316, 599.0243
1057.798, 581.6274
1058.280, 576.8384
1058.762, 585.4365
1059.245, 593.4304
1059.727, 593.5000
1060.209, 590.2558
1060.691, 589.7617
1061.173, 590.9225
1061.655, 592.7809
1062.137, 593.3759
1062.619, 575.2615
1063.101, 540.6603
1063.584, 525.5926
1064.066, 544.0598
1064.548, 568.1617
1065.030, 568.7217
1065.512, 559.7127
1065.994, 571.6902
1066.476, 593.7511
1066.958, 596.5113
1067.441, 582.9225
1067.923, 571.6619
1068.405, 568.7708
1068.887, 573.3319
1069.369, 588.0966
1069.851, 600.5159
1070.333, 591.3867
1070.815, 573.7848
1071.297, 563.2567
1071.780, 561.1547
1072.262, 570.5711
1072.744, 589.0464
1073.226, 604.9240
1073.708, 613.0656
1074.190, 613.8009
1074.672, 599.5521
1075.154, 585.9844
1075.636, 593.4348
1076.119, 606.1437
1076.601, 597.2615
1077.083, 572.3752
1077.565, 561.2310
1078.047, 575.2027
1078.529, 588.7930
1079.011, 591.7608
1079.494, 590.2466
1079.976, 579.5925
1080.458, 572.7726
1080.940, 588.2582
1081.422, 614.6530
1081.904, 624.6592
1082.386, 612.8244
1082.868, 603.6386
1083.350, 597.4725
1083.833, 600.3168
1084.315, 630.6034
1084.797, 651.5724
1085.279, 628.6702
1085.761, 591.2486
1086.243, 588.0551
1086.725, 617.7983
1087.207, 624.4974
1087.689, 589.2000
1088.172, 570.0692
1088.654, 578.0442
1089.136, 587.0115
1089.618, 588.3773
1090.100, 584.1761
1090.582, 573.3067
1091.064, 560.3461
1091.546, 566.5652
1092.029, 598.1497
1092.511, 611.0959
1092.993, 600.9677
1093.475, 595.9446
1093.957, 605.2189
1094.439, 610.6227
1094.921, 598.1064
1095.403, 576.2732
1095.885, 559.3733
1096.368, 548.1141
1096.850, 550.5739
1097.332, 565.5232
1097.814, 585.0842
1098.296, 606.2809
1098.778, 607.6555
1099.260, 578.4369
1099.742, 547.3896
1100.224, 549.9091
1100.707, 570.1094
1101.189, 578.8232
1101.671, 579.3484
1102.153, 577.4211
1102.635, 574.6399
1103.117, 574.0463
1103.599, 575.9948
1104.081, 575.6814
1104.564, 568.9956
1105.046, 560.8519
1105.528, 558.0223
1106.010, 554.3160
1106.492, 534.7353
1106.974, 513.7850
1107.456, 518.7171
1107.938, 547.3055
1108.421, 574.2416
1108.903, 591.9720
1109.385, 601.7793
1109.867, 602.4503
1110.349, 597.5396
1110.831, 583.2578
1111.313, 569.1860
1111.795, 563.8933
1112.277, 565.6207
1112.760, 569.8503
1113.242, 576.5754
1113.724, 581.7345
1114.206, 592.4973
1114.688, 589.5793
1115.170, 553.4901
1115.652, 526.9093
1116.134, 534.9507
1116.616, 557.6750
1117.099, 572.5271
1117.581, 579.6810
1118.063, 579.0269
1118.545, 566.9054
1119.027, 561.9378
1119.509, 564.3723
1119.991, 579.1835
1120.473, 612.1237
1120.956, 635.4105
1121.438, 625.1860
1121.920, 596.9682
1122.402, 581.9120
1122.884, 578.3885
1123.366, 575.5433
1123.848, 573.3818
1124.330, 571.5220
1124.813, 570.1240
1125.295, 571.0835
1125.777, 575.2859
1126.259, 580.8147
1126.741, 586.9203
1127.223, 591.5360
1127.705, 589.1490
1128.187, 584.4260
1128.669, 588.9841
1129.151, 597.3311
1129.634, 591.2787
1130.116, 570.0294
1130.598, 556.7123
1131.080, 566.3863
1131.562, 576.8531
1132.044, 573.4982
1132.526, 566.9655
1133.008, 563.5009
1133.491, 562.1523
1133.973, 560.9560
1134.455, 560.5516
1134.937, 564.9596
1135.419, 577.2980
1135.901, 579.4302
1136.383, 553.4997
1136.865, 539.1921
1137.348, 556.4483
1137.830, 572.6959
1138.312, 566.5309
1138.794, 555.8913
1139.276, 568.2218
1139.758, 598.7599
1140.240, 603.6172
1140.722, 573.9300
1141.204, 563.6425
1141.687, 579.8483
1142.169, 588.0883
1142.651, 577.1927
1143.133, 561.8438
1143.615, 552.3550
1144.097, 548.2722
1144.579, 551.4109
1145.061, 558.8574
1145.543, 555.7109
1146.026, 545.2256
1146.508, 541.2698
1146.990, 544.8210
1147.472, 549.3881
1147.954, 552.4092
1148.436, 555.7728
1148.918, 560.7959
1149.400, 567.3163
1149.883, 579.2822
1150.365, 589.1406
1150.847, 585.1591
1151.329, 573.9269
1151.811, 567.3131
1152.293, 565.9943
1152.775, 563.8197
1153.257, 559.3834
1153.740, 551.9490
1154.222, 531.1443
1154.704, 520.7359
1155.186, 540.2360
1155.668, 563.4756
1156.150, 570.9146
1156.632, 568.1082
1157.114, 565.6262
1157.596, 563.4524
1158.078, 560.6947
1158.561, 555.4587
1159.043, 555.9884
1159.525, 565.1337
1160.007, 572.6659
1160.489, 576.0529
1160.971, 570.6904
1161.453, 549.4090
1161.935, 526.2907
1162.418, 541.1642
1162.900, 583.0656
1163.382, 573.4821
1163.864, 525.6016
1164.346, 512.9445
1164.828, 540.7614
1165.310, 568.0369
1165.792, 577.3634
1166.275, 577.5082
1166.757, 573.2811
1167.239, 567.8442
1167.721, 565.9105
1168.203, 563.5253
1168.685, 553.5071
1169.167, 541.1265
1169.649, 534.6887
1170.131, 535.0389
1170.614, 539.5307
1171.096, 548.1492
1171.578, 557.7816
1172.060, 573.8180
1172.542, 582.0746
1173.024, 570.9348
1173.506, 558.2401
1173.988, 554.3208
1174.470, 556.6234
1174.953, 563.7078
1175.435, 574.2941
1175.917, 573.6525
1176.399, 556.8052
1176.881, 556.5451
1177.363, 578.1325
1177.845, 586.5538
1178.327, 570.8581
1178.810, 553.7139
1179.292, 550.9595
1179.774, 555.9449
1180.256, 559.2313
1180.738, 561.9654
1181.220, 569.8670
1181.702, 578.7677
1182.184, 575.6802
1182.667, 563.7236
1183.149, 556.2911
1183.631, 557.0471
1184.113, 561.5906
1184.595, 571.2137
1185.077, 573.8007
1185.559, 552.2009
1186.041, 531.5553
1186.523, 533.0040
1187.005, 541.2130
1187.488, 537.2617
1187.970, 526.8019
1188.452, 528.7789
1188.934, 547.0229
1189.416, 557.6260
1189.898, 554.0192
1190.380, 556.7451
1190.862, 572.1715
1191.345, 582.2359
1191.827, 579.5304
1192.309, 570.8267
1192.791, 561.3415
1193.273, 552.5084
1193.755, 547.6932
1194.237, 546.6710
1194.719, 547.6881
1195.202, 551.0176
1195.684, 560.3745
1196.166, 574.1318
1196.648, 581.4785
1197.130, 578.7191
1197.612, 574.6910
1198.094, 577.5130
1198.576, 578.2852
1199.058, 562.0351
1199.541, 546.9487
1200.023, 554.6329
1200.505, 570.9378
1200.987, 579.8437
1201.469, 579.3857
1201.951, 567.4976
1202.433, 539.9337
1202.915, 528.4164
1203.397, 561.1895
1203.880, 547.7969
1204.362, 572.8531
1204.844, 587.4432
1205.326, 592.1298
1205.808, 557.2499
1206.290, 573.4619
1206.772, 569.1984
1207.254, 564.0956
1207.737, 587.5008
1208.219, 558.3758
1208.701, 581.3267
1209.183, 583.4896
1209.665, 586.6805
1210.147, 578.8301
1210.629, 564.4635
1211.111, 554.3391
1211.594, 560.0078
1212.076, 565.5643
1212.558, 549.2142
1213.040, 532.7659
1213.522, 539.2372
1214.004, 556.5497
1214.486, 569.1333
1214.968, 577.5931
1215.450, 592.3926
1215.932, 617.9411
1216.415, 622.6265
1216.897, 585.8624
1217.379, 560.0958
1217.861, 547.8441
1218.343, 552.0800
1218.825, 581.2734
1219.307, 606.8319
1219.789, 603.0005
1220.272, 581.7382
1220.754, 566.6911
1221.236, 557.3788
1221.718, 550.1572
1222.200, 546.0188
1222.682, 552.5887
1223.164, 567.1512
1223.646, 574.5263
1224.129, 570.9216
1224.611, 567.4382
1225.093, 570.7866
1225.575, 576.4219
1226.057, 585.8053
1226.539, 590.7505
1227.021, 578.2961
1227.503, 564.9156
1227.985, 574.0724
1228.468, 591.8436
1228.950, 582.6306
1229.432, 545.3034
1229.914, 531.2924
1230.396, 553.7424
1230.878, 558.2709
1231.360, 535.5589
1231.842, 528.7368
1232.324, 552.0097
1232.807, 556.8251
1233.289, 579.9860
1233.771, 592.6805
1234.253, 595.4715
1234.735, 558.6964
1235.217, 573.0126
1235.699, 566.8539
1236.181, 559.8554
1236.664, 581.3613
1237.146, 550.3408
1237.628, 571.3959
1238.110, 571.6636
1238.592, 581.4451
1239.074, 570.6251
1239.556, 566.1682
1240.038, 582.3196
1240.521, 587.0584
1241.003, 573.8667
1241.485, 584.2531
1241.967, 552.5129
1242.449, 557.7395
1242.931, 578.9152
1243.413, 558.0741
1243.895, 557.6890
1244.377, 564.1685
1244.859, 576.5963
1245.342, 578.6254
1245.824, 569.2096
1246.306, 558.9373
1246.788, 552.4354
1247.270, 554.0242
1247.752, 570.3520
1248.234, 585.0237
1248.716, 580.9459
1249.199, 570.1075
1249.681, 552.9771
1250.163, 543.4619
1250.645, 568.4659
1251.127, 607.7614
1251.609, 612.7508
1252.091, 579.3541
1252.573, 564.8201
1253.056, 582.8326
1253.538, 584.9105
1254.020, 564.3161
1254.502, 550.2479
1254.984, 550.6444
1255.466, 552.9974
1255.948, 549.7093
1256.430, 549.0803
1256.912, 564.4729
1257.395, 583.3788
1257.877, 579.4832
1258.359, 563.7111
1258.841, 552.5764
1259.323, 546.7556
1259.805, 545.0728
1260.287, 547.0284
1260.769, 553.8017
##END=



