##NAMES=Ammonioalunite
##RRUFFID=R060873
##IDEAL CHEMISTRY=N^3-^H_4_Al_3_(S^6+^O_4_)_2_(OH)_6_
##LOCALITY=Sch√∂ller mine, Kladno, Central Bohemia Region, Bohemia, Czech Republic
##OWNER=RRUFF
##SOURCE=Michael Scott
##DESCRIPTION=Tan colored fine-grained consolidated fragments
##STATUS=The identification of this mineral has been made only by X-ray diffraction.
##URL=rruff.info/R060873
161.5380, 0.0000000E+00
162.0200, 18.42188
162.5030, 78.27344
162.9850, 142.7266
163.4670, 192.7891
163.9490, 220.8203
164.4310, 250.6094
164.9130, 321.1172
165.3950, 390.6172
165.8780, 411.8438
166.3600, 331.6250
166.8420, 219.6016
167.3240, 173.2031
167.8060, 194.7109
168.2880, 197.6016
168.7700, 196.3906
169.2520, 187.2188
169.7340, 161.6406
170.2170, 90.95312
170.6990, 14.07031
171.1810, 24.86719
171.6630, 1.273438
172.1450, 31.75781
172.6270, 0.5859380
173.1090, 73.49219
173.5910, 101.5547
174.0730, 21.51562
174.5560, 218.8828
175.0380, 370.4531
175.5200, 434.9531
176.0020, 449.7031
176.4840, 444.4922
176.9660, 420.7656
177.4480, 402.3828
177.9300, 408.9297
178.4130, 435.0391
178.8950, 471.0625
179.3770, 515.3828
179.8590, 565.6328
180.3410, 629.1172
180.8230, 705.9453
181.3050, 778.1484
181.7870, 819.4766
182.2690, 835.9219
182.7510, 857.9453
183.2340, 899.5312
183.7160, 955.9609
184.1980, 1013.727
184.6800, 1072.383
185.1620, 1128.117
185.6440, 1185.164
186.1260, 1239.445
186.6090, 1272.242
187.0910, 1257.891
187.5730, 1207.586
188.0550, 1168.969
188.5370, 1147.406
189.0190, 1137.219
189.5010, 1127.359
189.9830, 1118.898
190.4650, 1112.570
190.9470, 1118.531
191.4300, 1134.469
191.9120, 1122.906
192.3940, 1069.484
192.8760, 992.0469
193.3580, 936.0859
193.8400, 904.2969
194.3220, 880.1719
194.8040, 851.4922
195.2870, 818.7578
195.7690, 789.2969
196.2510, 770.8672
196.7330, 758.7734
197.2150, 718.2422
197.6970, 641.0547
198.1790, 568.7656
198.6610, 556.6250
199.1430, 611.0469
199.6260, 653.4062
200.1080, 643.3516
200.5900, 586.4062
201.0720, 600.3750
201.5540, 701.7188
202.0360, 836.8281
202.5180, 931.4219
203.0000, 976.6797
203.4820, 1012.953
203.9650, 1050.234
204.4470, 1086.422
204.9290, 1123.438
205.4110, 1156.141
205.8930, 1191.484
206.3750, 1260.250
206.8570, 1386.688
207.3390, 1460.711
207.8220, 1404.547
208.3040, 1176.906
208.7860, 1047.836
209.2680, 1056.484
209.7500, 1148.898
210.2320, 1189.734
210.7140, 1177.594
211.1960, 1132.078
211.6780, 1048.805
212.1610, 902.7266
212.6430, 827.7578
213.1250, 852.4219
213.6070, 952.0547
214.0890, 1034.961
214.5710, 1103.992
215.0530, 1148.648
215.5360, 1153.320
216.0180, 1092.617
216.5000, 1054.203
216.9820, 1035.672
217.4640, 1039.875
217.9460, 1113.453
218.4280, 1299.406
218.9100, 1481.141
219.3920, 1551.711
219.8740, 1471.109
220.3570, 1392.688
220.8390, 1334.141
221.3210, 1297.086
221.8030, 1307.383
222.2850, 1409.148
222.7670, 1510.320
223.2490, 1505.773
223.7310, 1325.781
224.2140, 1197.922
224.6960, 1182.188
225.1780, 1285.328
225.6600, 1378.195
226.1420, 1468.430
226.6240, 1539.406
227.1060, 1559.750
227.5880, 1485.547
228.0700, 1440.375
228.5530, 1461.961
229.0350, 1561.727
229.5170, 1640.281
229.9990, 1705.086
230.4810, 1740.836
230.9630, 1716.039
231.4450, 1581.945
231.9270, 1479.531
232.4100, 1463.578
232.8920, 1576.602
233.3740, 1598.602
233.8560, 1479.305
234.3380, 1299.547
234.8200, 1200.180
235.3020, 1232.547
235.7840, 1267.758
236.2660, 1259.047
236.7490, 1185.180
237.2310, 1136.266
237.7130, 1129.953
238.1950, 1143.000
238.6770, 1126.359
239.1590, 1042.094
239.6410, 974.5391
240.1230, 965.7031
240.6050, 1060.414
241.0880, 1133.109
241.5700, 1178.023
242.0520, 1201.305
242.5340, 1215.578
243.0160, 1193.305
243.4980, 1189.773
243.9800, 1236.078
244.4620, 1368.367
244.9450, 1462.836
245.4270, 1498.195
245.9090, 1490.539
246.3910, 1495.430
246.8730, 1520.922
247.3550, 1541.055
247.8370, 1543.555
248.3190, 1528.562
248.8010, 1490.172
249.2840, 1420.734
249.7660, 1329.625
250.2480, 1250.484
250.7300, 1192.070
251.2120, 1142.188
251.6940, 1102.320
252.1760, 1102.797
252.6580, 1054.031
253.1410, 928.7422
253.6230, 751.7500
254.1050, 632.9219
254.5870, 590.4141
255.0690, 583.6094
255.5510, 592.7734
256.0330, 630.9766
256.5150, 649.2656
256.9970, 628.7578
257.4800, 579.1250
257.9620, 565.8672
258.4440, 591.4219
258.9260, 642.9375
259.4080, 718.1406
259.8900, 832.4922
260.3720, 918.0859
260.8540, 948.9844
261.3360, 939.3828
261.8190, 1016.906
262.3010, 1229.250
262.7830, 1429.312
263.2650, 1486.570
263.7470, 1337.938
264.2290, 1240.062
264.7110, 1247.914
265.1940, 1342.094
265.6760, 1382.836
266.1580, 1362.492
266.6400, 1305.758
267.1220, 1229.375
267.6040, 1132.219
268.0860, 1022.891
268.5680, 889.9766
269.0500, 744.2188
269.5330, 672.5156
270.0150, 702.6719
270.4970, 752.1172
270.9790, 739.6328
271.4610, 643.8047
271.9430, 598.9297
272.4250, 654.9297
272.9070, 786.1484
273.3890, 812.2734
273.8720, 692.4375
274.3540, 567.3828
274.8360, 583.1016
275.3180, 770.3672
275.8000, 893.2891
276.2820, 878.8125
276.7640, 760.7578
277.2460, 740.3359
277.7280, 839.2344
278.2110, 961.5312
278.6930, 1013.516
279.1750, 986.9297
279.6570, 973.0469
280.1390, 991.8359
280.6210, 1035.672
281.1030, 1082.930
281.5850, 1137.789
282.0680, 1168.211
282.5500, 1125.844
283.0320, 1010.422
283.5140, 927.0234
283.9960, 907.6797
284.4780, 935.2422
284.9600, 955.4766
285.4420, 971.9141
285.9240, 967.0625
286.4070, 914.3672
286.8890, 818.7500
287.3710, 734.6016
287.8530, 668.3672
288.3350, 625.9375
288.8170, 640.6562
289.2990, 719.0547
289.7810, 789.0234
290.2630, 777.7500
290.7460, 697.1250
291.2280, 608.9609
291.7100, 519.0938
292.1920, 435.5312
292.6740, 379.9922
293.1560, 352.5859
293.6380, 337.7578
294.1210, 358.0312
294.6030, 389.0781
295.0850, 330.5781
295.5670, 108.2422
296.0490, 159.0312
296.5310, 241.3984
297.0130, 145.7344
297.4950, 32.59375
297.9770, 37.07812
298.4600, 116.0156
298.9420, 174.9062
299.4240, 205.3984
299.9060, 189.5859
300.3880, 72.50000
300.8700, 132.3906
301.3520, 324.6562
301.8340, 403.5234
302.3160, 415.1094
302.7980, 435.1484
303.2810, 468.3750
303.7630, 523.1719
304.2450, 593.0312
304.7270, 683.7344
305.2090, 825.5938
305.6910, 1131.445
306.1730, 1464.867
306.6550, 1639.922
307.1380, 1582.141
307.6200, 1427.789
308.1020, 1258.219
308.5840, 1083.602
309.0660, 932.0547
309.5480, 841.0312
310.0300, 775.6016
310.5120, 699.3047
310.9950, 584.0078
311.4770, 495.7812
311.9590, 509.8125
312.4410, 584.5156
312.9230, 619.7422
313.4050, 520.3750
313.8870, 390.2656
314.3690, 308.7422
314.8510, 303.8906
315.3340, 313.4688
315.8160, 334.7031
316.2980, 349.7656
316.7800, 320.7266
317.2620, 185.7109
317.7440, 39.05469
318.2260, 72.64844
318.7080, 149.2969
319.1900, 168.0859
319.6730, 67.42969
320.1550, 90.46094
320.6370, 198.7344
321.1190, 176.5703
321.6010, 140.1484
322.0830, 139.8984
322.5650, 196.9375
323.0470, 238.1406
323.5300, 213.2734
324.0120, 169.5312
324.4940, 174.8516
324.9760, 281.2109
325.4580, 395.7969
325.9400, 493.8594
326.4220, 579.6250
326.9040, 632.1328
327.3870, 620.1641
327.8690, 583.7422
328.3510, 570.2578
328.8330, 631.7109
329.3150, 659.8984
329.7970, 619.4297
330.2790, 497.3984
330.7610, 418.0078
331.2430, 409.8594
331.7250, 426.4453
332.2080, 421.8672
332.6900, 380.6328
333.1720, 345.9297
333.6540, 325.0703
334.1360, 318.6484
334.6180, 331.4609
335.1000, 377.5156
335.5820, 426.1094
336.0650, 450.0391
336.5470, 440.5000
337.0290, 424.6953
337.5110, 402.4375
337.9930, 373.5391
338.4750, 346.5547
338.9570, 316.8984
339.4390, 291.8828
339.9220, 277.6172
340.4040, 278.4297
340.8860, 277.0469
341.3680, 278.6562
341.8500, 279.3984
342.3320, 258.8906
342.8140, 217.0078
343.2960, 172.7578
343.7780, 133.6484
344.2610, 103.1562
344.7430, 113.3125
345.2250, 190.4766
345.7070, 281.1016
346.1890, 251.1484
346.6710, 106.9297
347.1530, 3.156250
347.6350, 59.71094
348.1170, 230.3750
348.6000, 359.0859
349.0820, 417.9375
349.5640, 462.7969
350.0460, 598.2812
350.5280, 793.1016
351.0100, 916.0234
351.4920, 817.9766
351.9740, 621.2422
352.4570, 549.9922
352.9390, 628.2578
353.4210, 735.0469
353.9030, 775.2812
354.3850, 758.7266
354.8670, 704.4531
355.3490, 581.5625
355.8310, 446.5625
356.3140, 367.2656
356.7960, 347.8281
357.2780, 318.5859
357.7600, 195.8672
358.2420, 54.86719
358.7240, 20.52344
359.2060, 60.68750
359.6880, 160.0312
360.1700, 208.4922
360.6520, 207.4922
361.1350, 181.6094
361.6170, 97.46094
362.0990, 13.44531
362.5810, 24.36719
363.0630, 31.53125
363.5450, 90.35156
364.0270, 123.7109
364.5090, 137.3906
364.9910, 155.9062
365.4740, 225.6562
365.9560, 274.1094
366.4380, 260.7031
366.9200, 134.4297
367.4020, 25.17188
367.8840, 68.07031
368.3660, 135.1250
368.8490, 151.1484
369.3310, 87.21875
369.8130, 0.4687500
370.2950, 102.5703
370.7770, 249.5000
371.2590, 326.7344
371.7410, 294.7266
372.2230, 211.5078
372.7050, 160.8281
373.1880, 144.8672
373.6700, 150.0312
374.1520, 169.2266
374.6340, 200.5391
375.1160, 261.1641
375.5980, 374.5312
376.0800, 474.0938
376.5620, 488.3672
377.0440, 406.0000
377.5270, 319.9062
378.0090, 249.3828
378.4910, 188.1953
378.9730, 110.8516
379.4550, 13.46875
379.9370, 65.48438
380.4190, 73.85938
380.9010, 16.86719
381.3840, 6.734375
381.8660, 32.96094
382.3480, 93.45312
382.8300, 92.64062
383.3120, 32.84375
383.7940, 55.75781
384.2760, 165.3984
384.7580, 285.6719
385.2400, 386.9141
385.7230, 458.5469
386.2050, 514.5703
386.6870, 552.8828
387.1690, 579.9688
387.6510, 618.7812
388.1330, 710.7422
388.6150, 799.9297
389.0970, 814.8438
389.5790, 742.0703
390.0620, 665.9219
390.5440, 657.5938
391.0260, 682.4922
391.5080, 691.6250
391.9900, 667.7734
392.4720, 628.7500
392.9540, 595.8281
393.4360, 569.9219
393.9180, 509.8516
394.4010, 333.8828
394.8830, 156.2344
395.3650, 67.01562
395.8470, 215.5000
396.3290, 314.2031
396.8110, 244.8203
397.2930, 55.26562
397.7760, 43.18750
398.2580, 48.03125
398.7400, 175.8672
399.2220, 273.9141
399.7040, 345.4922
400.1860, 373.2812
400.6680, 327.0781
401.1500, 244.3984
401.6320, 198.7188
402.1150, 214.7656
402.5970, 232.7344
403.0790, 235.7188
403.5610, 224.3203
404.0430, 207.3516
404.5250, 180.5781
405.0070, 152.8438
405.4890, 144.0703
405.9710, 158.1406
406.4540, 161.3125
406.9360, 141.6953
407.4180, 103.6875
407.9000, 62.50000
408.3820, 10.71875
408.8640, 9.171875
409.3460, 59.92969
409.8280, 207.7422
410.3100, 325.3594
410.7930, 392.6953
411.2750, 433.7422
411.7570, 498.5234
412.2390, 580.4609
412.7210, 636.6406
413.2030, 607.9297
413.6850, 541.6406
414.1670, 524.6719
414.6500, 569.4609
415.1320, 639.1875
415.6140, 711.0625
416.0960, 781.4531
416.5780, 845.4688
417.0600, 923.1797
417.5420, 979.9062
418.0240, 975.2344
418.5070, 908.3828
418.9890, 858.2344
419.4710, 921.8906
419.9530, 996.4688
420.4350, 984.4609
420.9170, 783.7344
421.3990, 586.0469
421.8810, 433.5078
422.3630, 327.9141
422.8460, 278.7578
423.3280, 347.6328
423.8100, 430.8281
424.2920, 479.8203
424.7740, 482.9375
425.2560, 471.1953
425.7380, 430.1953
426.2200, 375.2734
426.7030, 332.0781
427.1850, 298.6172
427.6670, 289.6250
428.1490, 309.7891
428.6310, 358.5781
429.1130, 394.1719
429.5950, 416.6719
430.0770, 419.5781
430.5590, 377.3984
431.0420, 273.0234
431.5240, 243.0703
432.0060, 345.6016
432.4880, 525.3516
432.9700, 597.9062
433.4520, 557.9688
433.9340, 485.5156
434.4160, 408.1562
434.8980, 339.3359
435.3810, 349.2422
435.8630, 467.5625
436.3450, 613.8750
436.8270, 678.8047
437.3090, 672.7031
437.7910, 640.4062
438.2730, 584.6250
438.7550, 536.5469
439.2370, 536.3750
439.7200, 584.8359
440.2020, 628.3516
440.6840, 613.7266
441.1660, 574.8125
441.6480, 551.0781
442.1300, 553.5859
442.6120, 572.3281
443.0940, 614.4375
443.5770, 671.0703
444.0590, 708.1406
444.5410, 713.7578
445.0230, 694.6406
445.5050, 650.0469
445.9870, 557.1484
446.4690, 497.1484
446.9510, 516.4922
447.4340, 569.0312
447.9160, 574.9766
448.3980, 480.2109
448.8800, 409.1016
449.3620, 399.1953
449.8440, 455.5000
450.3260, 507.8125
450.8080, 561.7109
451.2900, 601.6250
451.7720, 605.6250
452.2550, 563.5078
452.7370, 528.2109
453.2190, 501.6719
453.7010, 488.9609
454.1830, 521.5469
454.6650, 604.6328
455.1470, 656.0938
455.6290, 590.3047
456.1120, 448.1562
456.5940, 374.9297
457.0760, 387.4141
457.5580, 434.1875
458.0400, 482.1562
458.5220, 519.9219
459.0040, 516.3906
459.4860, 429.6562
459.9690, 313.4141
460.4510, 214.0703
460.9330, 133.2266
461.4150, 80.48438
461.8970, 57.12500
462.3790, 67.03906
462.8610, 118.6484
463.3430, 241.6484
463.8250, 356.8438
464.3080, 435.0391
464.7900, 481.5234
465.2720, 507.3203
465.7540, 502.2188
466.2360, 485.8594
466.7180, 451.6953
467.2000, 381.3750
467.6820, 384.7969
468.1640, 542.6016
468.6470, 717.6172
469.1290, 780.8203
469.6110, 646.6328
470.0930, 556.8281
470.5750, 547.1328
471.0570, 602.9219
471.5390, 686.0078
472.0210, 821.1953
472.5040, 901.6875
472.9860, 815.2656
473.4680, 561.9375
473.9500, 480.3047
474.4320, 625.7812
474.9140, 826.8516
475.3960, 841.9219
475.8780, 697.0859
476.3610, 539.3516
476.8430, 425.8984
477.3250, 340.2578
477.8070, 241.1172
478.2890, 135.1797
478.7710, 72.03125
479.2530, 122.8828
479.7350, 224.2656
480.2170, 293.1562
480.6990, 292.9609
481.1820, 292.9297
481.6640, 305.9297
482.1460, 348.8125
482.6280, 455.8984
483.1100, 725.3828
483.5920, 975.3906
484.0740, 1104.812
484.5560, 1086.688
485.0390, 1098.375
485.5210, 1229.469
486.0030, 1356.875
486.4850, 1385.766
486.9670, 1260.062
487.4490, 1123.148
487.9310, 976.8359
488.4130, 833.6172
488.8960, 735.4922
489.3780, 717.5547
489.8600, 675.4141
490.3420, 541.1719
490.8240, 310.2188
491.3060, 185.3594
491.7880, 190.1953
492.2700, 231.3203
492.7520, 175.9453
493.2340, 41.44531
493.7170, 40.67188
494.1990, 25.75781
494.6810, 46.19531
495.1630, 143.6250
495.6450, 252.3594
496.1270, 305.7109
496.6090, 195.5781
497.0910, 32.13281
497.5740, 45.72656
498.0560, 3.820313
498.5380, 41.15625
499.0200, 20.92969
499.5020, 37.13281
499.9840, 96.17188
500.4660, 172.4922
500.9480, 216.0391
501.4310, 194.7422
501.9130, 114.2812
502.3950, 38.92188
502.8770, 30.57812
503.3590, 87.44531
503.8410, 128.0078
504.3230, 148.2500
504.8050, 145.9844
505.2870, 83.32031
505.7700, 19.64062
506.2520, 69.62500
506.7340, 286.0938
507.2160, 422.5625
507.6980, 368.8203
508.1800, 177.4844
508.6620, 155.5469
509.1440, 319.7031
509.6260, 501.1562
510.1090, 575.7031
510.5910, 559.2656
511.0730, 489.1094
511.5550, 353.1562
512.0370, 231.0000
512.5190, 232.8438
513.0010, 322.2969
513.4840, 410.8594
513.9660, 450.7188
514.4480, 478.2891
514.9300, 508.7578
515.4120, 543.2188
515.8940, 606.0859
516.3760, 727.6484
516.8580, 865.6172
517.3400, 997.7734
517.8220, 1171.344
518.3050, 1248.578
518.7870, 1106.078
519.2690, 867.2188
519.7510, 773.6719
520.2330, 940.7266
520.7150, 1096.805
521.1970, 1178.281
521.6790, 1186.852
522.1610, 1193.328
522.6440, 1198.727
523.1260, 1206.367
523.6080, 1222.297
524.0900, 1246.148
524.5720, 1252.992
525.0540, 1239.812
525.5360, 1210.547
526.0180, 1162.172
526.5000, 1096.914
526.9830, 1030.953
527.4650, 959.0000
527.9470, 894.9375
528.4290, 884.8906
528.9110, 920.3594
529.3930, 907.6172
529.8750, 720.8984
530.3570, 488.6719
530.8400, 337.2422
531.3220, 314.1328
531.8040, 323.9375
532.2860, 356.4297
532.7680, 393.7344
533.2500, 407.9531
533.7320, 399.4766
534.2140, 364.8047
534.6960, 297.1250
535.1790, 199.7734
535.6610, 102.7344
536.1430, 11.36719
536.6250, 100.7266
537.1070, 135.1562
537.5890, 103.7344
538.0710, 62.56250
538.5540, 11.63281
539.0360, 46.68750
539.5180, 111.0078
540.0000, 181.4609
540.4820, 244.2109
540.9640, 284.2812
541.4460, 317.2656
541.9280, 383.8438
542.4100, 478.5469
542.8930, 569.6406
543.3750, 639.9062
543.8570, 693.0156
544.3390, 727.7656
544.8210, 743.8125
545.3030, 753.2969
545.7850, 768.4688
546.2670, 780.0781
546.7500, 776.9062
547.2320, 750.6094
547.7140, 717.9531
548.1960, 689.2188
548.6780, 662.9062
549.1600, 618.5156
549.6420, 541.3125
550.1240, 465.9375
550.6060, 400.1562
551.0890, 334.4844
551.5710, 320.9688
552.0530, 388.9375
552.5350, 472.6250
553.0170, 484.4375
553.4990, 420.5781
553.9810, 369.8281
554.4630, 359.4375
554.9450, 357.4219
555.4280, 286.1719
555.9100, 166.6094
556.3920, 80.79688
556.8740, 110.1094
557.3560, 178.9062
557.8380, 183.7656
558.3200, 118.6094
558.8020, 70.45312
559.2840, 130.7031
559.7670, 225.2188
560.2490, 277.1094
560.7310, 215.6875
561.2130, 182.2344
561.6950, 234.0156
562.1770, 333.4688
562.6590, 400.5781
563.1410, 394.8125
563.6230, 390.5156
564.1060, 404.6562
564.5880, 436.0469
565.0700, 479.9531
565.5520, 546.3125
566.0340, 601.2344
566.5160, 617.3281
566.9980, 594.5938
567.4810, 566.2812
567.9630, 529.3125
568.4450, 507.5781
568.9270, 551.4844
569.4090, 644.1094
569.8910, 718.0625
570.3730, 756.2812
570.8550, 759.0312
571.3370, 707.5781
571.8200, 614.8125
572.3020, 536.7344
572.7840, 509.2344
573.2660, 501.6562
573.7480, 511.9219
574.2300, 557.7031
574.7120, 529.1562
575.1940, 271.1250
575.6770, 3.359375
576.1590, 81.81250
576.6410, 251.8594
577.1230, 432.0781
577.6050, 354.7500
578.0870, 123.7500
578.5690, 7.234375
579.0510, 37.53125
579.5330, 66.37500
580.0160, 22.67188
580.4980, 73.01562
580.9800, 118.0625
581.4620, 113.2969
581.9440, 53.70312
582.4260, 120.4062
582.9080, 344.0156
583.3900, 475.6094
583.8720, 480.1406
584.3550, 432.9375
584.8370, 343.9531
585.3190, 251.4062
585.8010, 216.1250
586.2830, 335.1562
586.7650, 439.5469
587.2470, 432.5000
587.7290, 340.7969
588.2110, 314.3281
588.6940, 471.6250
589.1760, 602.1562
589.6580, 609.6406
590.1400, 452.9688
590.6220, 423.8281
591.1040, 601.4688
591.5860, 772.7656
592.0680, 681.2969
592.5500, 318.3750
593.0330, 92.90625
593.5150, 93.89062
593.9970, 204.5469
594.4790, 257.6562
594.9610, 263.6406
595.4430, 259.0938
595.9250, 270.1719
596.4070, 273.8438
596.8900, 217.3281
597.3720, 112.1719
597.8540, 56.48438
598.3360, 182.8594
598.8180, 320.5000
599.3000, 338.7812
599.7820, 171.9219
600.2640, 38.53125
600.7470, 73.00000
601.2290, 113.5938
601.7110, 17.54688
602.1930, 347.4531
602.6750, 573.3281
603.1570, 567.9375
603.6390, 421.3281
604.1210, 369.2656
604.6040, 419.3750
605.0860, 487.8281
605.5680, 535.9531
606.0500, 575.0312
606.5320, 656.1875
607.0140, 776.7969
607.4960, 866.5781
607.9780, 843.0000
608.4600, 769.3750
608.9430, 722.4531
609.4250, 711.1250
609.9070, 738.4844
610.3890, 855.5000
610.8710, 991.7969
611.3530, 1067.453
611.8350, 1048.062
612.3170, 984.0469
612.7990, 841.2031
613.2820, 662.6562
613.7640, 572.3125
614.2460, 611.7969
614.7280, 667.0000
615.2100, 697.0000
615.6920, 706.5938
616.1740, 753.8125
616.6560, 846.9688
617.1380, 941.0625
617.6210, 1005.562
618.1030, 1041.359
618.5850, 1053.094
619.0670, 1040.188
619.5490, 998.9219
620.0310, 862.5469
620.5130, 707.9219
620.9950, 661.3281
621.4770, 880.4375
621.9600, 1089.344
622.4420, 1154.672
622.9240, 1108.453
623.4060, 1051.812
623.8880, 935.9375
624.3700, 883.5156
624.8520, 966.6875
625.3340, 1189.703
625.8170, 1279.375
626.2990, 1195.844
626.7810, 1063.953
627.2630, 950.0312
627.7450, 855.4844
628.2270, 834.2031
628.7090, 909.3750
629.1910, 977.0312
629.6740, 893.1406
630.1560, 707.8125
630.6380, 549.2656
631.1200, 471.0625
631.6020, 408.4375
632.0840, 293.1719
632.5660, 153.3906
633.0480, 52.46875
633.5310, 25.03125
634.0130, 31.07812
634.4950, 78.03125
634.9770, 161.3906
635.4590, 209.0000
635.9410, 190.7656
636.4230, 166.4844
636.9050, 164.1875
637.3870, 186.9688
637.8700, 207.5000
638.3520, 227.4219
638.8340, 226.5781
639.3160, 152.6562
639.7980, 28.42188
640.2800, 7.406250
640.7620, 98.32812
641.2440, 233.2344
641.7260, 263.2969
642.2080, 218.8125
642.6910, 159.2031
643.1730, 38.26562
643.6550, 17.50000
644.1370, 129.3906
644.6190, 429.9531
645.1010, 629.8750
645.5830, 597.4688
646.0650, 518.1719
646.5470, 430.5469
647.0300, 315.8750
647.5120, 359.6406
647.9940, 622.2344
648.4760, 915.8438
648.9580, 1072.500
649.4400, 1088.281
649.9220, 1138.844
650.4040, 1240.875
650.8870, 1357.172
651.3690, 1468.250
651.8510, 1559.812
652.3330, 1594.719
652.8150, 1540.078
653.2970, 1461.516
653.7790, 1445.953
654.2610, 1450.766
654.7440, 1373.141
655.2260, 1008.031
655.7080, 723.0312
656.1900, 707.9844
656.6720, 960.5938
657.1540, 1088.188
657.6360, 1025.625
658.1180, 930.5469
658.6010, 881.5000
659.0830, 884.0469
659.5650, 831.6562
660.0470, 709.0938
660.5290, 580.9062
661.0110, 520.5938
661.4930, 510.4375
661.9750, 494.1406
662.4570, 467.4062
662.9400, 428.2344
663.4220, 365.7188
663.9040, 295.9531
664.3860, 242.1719
664.8680, 208.3125
665.3500, 200.3281
665.8320, 216.1094
666.3140, 257.0469
666.7960, 331.1562
667.2790, 447.2188
667.7610, 570.4531
668.2430, 693.8281
668.7250, 810.1562
669.2070, 866.1250
669.6890, 845.5938
670.1710, 813.1875
670.6530, 829.8281
671.1350, 870.4531
671.6180, 828.1094
672.1000, 695.8281
672.5820, 555.5000
673.0640, 505.8281
673.5460, 487.4844
674.0280, 420.0312
674.5100, 275.9219
674.9920, 131.4375
675.4740, 11.84375
675.9570, 75.84375
676.4390, 123.3594
676.9210, 100.6406
677.4030, 66.21875
677.8850, 10.96875
678.3670, 46.04688
678.8490, 37.29688
679.3310, 65.78125
679.8140, 116.5469
680.2960, 50.65625
680.7780, 92.23438
681.2600, 208.0000
681.7420, 295.7188
682.2240, 401.5469
682.7060, 632.2656
683.1880, 848.9844
683.6700, 849.5000
684.1530, 614.8438
684.6350, 431.0000
685.1170, 482.8125
685.5990, 600.3906
686.0810, 661.6094
686.5630, 613.0625
687.0450, 607.5625
687.5280, 680.0156
688.0100, 771.8281
688.4920, 811.0625
688.9740, 792.0469
689.4560, 771.0781
689.9380, 742.2344
690.4200, 738.9531
690.9020, 859.2969
691.3840, 1065.188
691.8670, 1200.328
692.3490, 1167.016
692.8310, 1070.547
693.3130, 978.6250
693.7950, 896.4219
694.2770, 845.2656
694.7590, 832.0469
695.2410, 850.2656
695.7230, 934.9219
696.2060, 1084.922
696.6880, 1114.281
697.1700, 963.7969
697.6520, 793.8594
698.1340, 695.0625
698.6160, 674.6094
699.0980, 615.6562
699.5800, 514.6562
700.0620, 418.5000
700.5450, 394.3750
701.0270, 404.7812
701.5090, 345.6562
701.9910, 182.8125
702.4730, 43.81250
702.9550, 62.31250
703.4370, 153.9531
703.9190, 210.7969
704.4020, 107.3594
704.8840, 68.73438
705.3660, 192.1406
705.8480, 370.2656
706.3300, 429.2500
706.8120, 305.2812
707.2940, 236.0781
707.7760, 308.2344
708.2580, 447.2344
708.7410, 408.3281
709.2230, 205.4219
709.7050, 42.78125
710.1870, 77.03125
710.6690, 187.4844
711.1510, 183.6562
711.6330, 87.35938
712.1150, 16.93750
712.5970, 35.45312
713.0800, 99.75000
713.5620, 206.5625
714.0440, 368.4688
714.5260, 445.2188
715.0080, 343.2500
715.4900, 237.4844
715.9720, 230.4375
716.4550, 339.7031
716.9370, 443.7812
717.4190, 537.4688
717.9010, 634.0625
718.3830, 782.0625
718.8650, 949.2656
719.3470, 992.8750
719.8290, 864.2344
720.3110, 718.0312
720.7940, 693.8125
721.2760, 739.2031
721.7580, 779.4844
722.2400, 769.5781
722.7220, 777.0781
723.2040, 829.7812
723.6860, 908.1719
724.1680, 977.6719
724.6510, 1055.875
725.1330, 1080.672
725.6150, 1016.188
726.0970, 901.9844
726.5790, 877.3906
727.0610, 937.9844
727.5430, 970.7812
728.0250, 893.8594
728.5070, 770.9688
728.9900, 699.3594
729.4720, 671.3281
729.9540, 643.4062
730.4360, 557.9688
730.9180, 496.3594
731.4000, 526.5000
731.8820, 662.1719
732.3640, 751.1094
732.8460, 750.0469
733.3290, 738.0000
733.8110, 765.3594
734.2930, 844.5469
734.7750, 820.2500
735.2570, 667.5156
735.7390, 523.3906
736.2210, 566.2656
736.7030, 714.2656
737.1850, 730.0781
737.6680, 562.2188
738.1500, 387.6094
738.6320, 344.3750
739.1140, 367.6406
739.5960, 385.2188
740.0780, 357.7344
740.5600, 368.5469
741.0420, 462.9219
741.5240, 592.9062
742.0070, 696.6875
742.4890, 750.7500
742.9710, 841.1250
743.4530, 983.9844
743.9350, 1151.312
744.4170, 1296.031
744.8990, 1415.156
745.3810, 1513.734
745.8640, 1589.109
746.3460, 1638.562
746.8280, 1648.328
747.3100, 1627.250
747.7920, 1605.844
748.2740, 1613.828
748.7560, 1609.594
749.2380, 1607.266
749.7210, 1597.312
750.2030, 1496.016
750.6850, 1277.422
751.1670, 1045.312
751.6490, 828.4531
752.1310, 637.8125
752.6130, 542.2188
753.0950, 541.1875
753.5780, 564.9844
754.0600, 529.5625
754.5420, 501.0156
755.0240, 602.8594
755.5060, 829.9688
755.9880, 992.3594
756.4700, 938.4062
756.9520, 822.0625
757.4340, 742.0625
757.9170, 717.9531
758.3990, 674.7656
758.8810, 626.5000
759.3630, 542.8125
759.8450, 398.5000
760.3270, 197.3594
760.8090, 23.50000
761.2910, 267.5156
761.7730, 463.5156
762.2560, 536.9844
762.7380, 506.4688
763.2200, 397.8750
763.7020, 200.4844
764.1840, 14.76562
764.6660, 91.20312
765.1480, 163.0312
765.6300, 253.0781
766.1120, 374.4062
766.5940, 492.2188
767.0770, 586.4531
767.5590, 675.0000
768.0410, 786.2812
768.5230, 916.5312
769.0050, 1037.859
769.4870, 1143.734
769.9690, 1222.500
770.4510, 1266.578
770.9340, 1273.562
771.4160, 1239.328
771.8980, 1132.641
772.3800, 1024.438
772.8620, 980.4844
773.3440, 965.4062
773.8260, 895.2812
774.3080, 694.9531
774.7910, 541.5625
775.2730, 477.6250
775.7550, 483.6875
776.2370, 504.5781
776.7190, 545.8594
777.2010, 571.6875
777.6830, 531.0156
778.1650, 476.9844
778.6480, 510.7188
779.1300, 614.0781
779.6120, 719.5625
780.0940, 785.6562
780.5760, 841.6562
781.0580, 915.6562
781.5400, 998.5625
782.0220, 1022.344
782.5040, 941.0938
782.9870, 853.3906
783.4690, 777.7656
783.9510, 719.6875
784.4330, 772.2656
784.9150, 948.0312
785.3970, 1056.844
785.8790, 891.2188
786.3610, 617.9688
786.8430, 552.7812
787.3260, 684.8438
787.8080, 793.7812
788.2900, 687.7656
788.7720, 570.5312
789.2540, 582.2344
789.7360, 755.4375
790.2180, 876.0625
790.7000, 921.3594
791.1820, 931.6250
791.6650, 905.3438
792.1470, 839.8594
792.6290, 854.8281
793.1110, 951.7969
793.5930, 1075.984
794.0750, 1216.953
794.5570, 1342.844
795.0390, 1404.766
795.5210, 1396.453
796.0040, 1353.359
796.4860, 1292.938
796.9680, 1212.016
797.4500, 1109.297
797.9320, 968.0156
798.4140, 853.1719
798.8960, 742.3594
799.3780, 673.6562
799.8610, 693.7812
800.3430, 793.9062
800.8250, 870.4844
801.3070, 918.7656
801.7890, 910.5156
802.2710, 740.5156
802.7530, 527.5469
803.2350, 438.8594
803.7180, 532.7344
804.2000, 640.7500
804.6820, 743.9219
805.1640, 809.3438
805.6460, 805.4531
806.1280, 694.8750
806.6100, 613.0938
807.0920, 562.1406
807.5750, 543.6562
808.0570, 577.4375
808.5390, 649.3750
809.0210, 699.4219
809.5030, 720.2656
809.9850, 708.2656
810.4670, 630.4062
810.9490, 530.4062
811.4310, 456.5781
811.9140, 400.1719
812.3960, 405.8125
812.8780, 550.0469
813.3600, 707.8125
813.8420, 742.7969
814.3240, 628.7656
814.8060, 529.6875
815.2880, 451.7031
815.7700, 423.0156
816.2530, 533.3125
816.7350, 720.6406
817.2170, 829.9375
817.6990, 814.2969
818.1810, 738.5469
818.6630, 605.4688
819.1450, 437.6562
819.6270, 273.2031
820.1090, 60.62500
820.5920, 20.90625
821.0740, 107.6875
821.5560, 307.2656
822.0380, 372.9219
822.5200, 297.7656
823.0020, 201.8438
823.4840, 81.07812
823.9660, 20.39062
824.4480, 201.6094
824.9310, 492.5938
825.4130, 663.4688
825.8950, 559.1094
826.3770, 466.9219
826.8590, 473.0938
827.3410, 553.1406
827.8230, 685.9531
828.3050, 935.0469
828.7880, 1055.125
829.2700, 996.6406
829.7520, 849.1562
830.2340, 733.0312
830.7160, 646.6875
831.1980, 581.7031
831.6800, 543.9844
832.1620, 513.4531
832.6440, 505.2969
833.1270, 484.2344
833.6090, 401.6719
834.0910, 97.62500
834.5730, 60.82812
835.0550, 24.96875
835.5370, 207.6875
836.0190, 297.4219
836.5020, 283.6562
836.9840, 260.1875
837.4660, 233.1719
837.9480, 220.6250
838.4300, 256.3594
838.9120, 322.3906
839.3940, 385.7500
839.8760, 436.4844
840.3580, 483.4062
840.8410, 552.0312
841.3230, 610.0312
841.8050, 613.4062
842.2870, 521.2656
842.7690, 453.8906
843.2510, 404.6719
843.7330, 398.2344
844.2150, 514.5781
844.6970, 720.7031
845.1800, 803.7812
845.6620, 694.0312
846.1440, 567.6719
846.6260, 616.5938
847.1080, 730.5781
847.5900, 769.9219
848.0720, 643.6406
848.5540, 549.6406
849.0360, 530.5156
849.5190, 543.4688
850.0010, 565.6719
850.4830, 610.5625
850.9650, 560.0156
851.4470, 389.2812
851.9290, 198.8906
852.4110, 108.0781
852.8930, 80.71875
853.3750, 53.92188
853.8580, 22.03125
854.3400, 30.39062
854.8220, 184.8281
855.3040, 317.2344
855.7860, 298.3281
856.2680, 31.04688
856.7500, 131.3438
857.2320, 156.2031
857.7150, 139.8438
858.1970, 150.9531
858.6790, 196.4062
859.1610, 344.6406
859.6430, 612.8125
860.1250, 844.1562
860.6070, 870.3906
861.0890, 831.5000
861.5710, 875.1875
862.0540, 1068.141
862.5360, 1166.891
863.0180, 1113.719
863.5000, 1013.625
863.9820, 929.2188
864.4640, 861.8438
864.9460, 824.8594
865.4290, 824.6719
865.9110, 790.9219
866.3930, 593.1719
866.8750, 366.4844
867.3570, 327.0938
867.8390, 503.9844
868.3210, 613.1250
868.8030, 516.9688
869.2850, 356.4219
869.7680, 178.4062
870.2500, 25.46875
870.7320, 20.15625
871.2140, 248.9062
871.6960, 482.1719
872.1780, 397.5938
872.6600, 155.3906
873.1420, 168.7656
873.6250, 409.2031
874.1070, 610.0938
874.5890, 570.4375
875.0710, 472.4844
875.5530, 386.9062
876.0350, 322.8594
876.5170, 381.0781
876.9990, 650.0312
877.4810, 828.9375
877.9640, 752.4688
878.4460, 505.0781
878.9280, 393.5781
879.4100, 403.1094
879.8920, 443.7188
880.3740, 487.2031
880.8560, 528.9062
881.3380, 573.8906
881.8200, 617.0469
882.3030, 639.9062
882.7850, 610.7344
883.2670, 589.5625
883.7490, 579.3594
884.2310, 588.0469
884.7130, 632.8125
885.1950, 712.7500
885.6770, 864.8750
886.1590, 1176.188
886.6420, 1453.594
887.1240, 1415.391
887.6060, 1195.672
888.0880, 1052.219
888.5700, 1161.359
889.0520, 1243.875
889.5340, 1206.891
890.0160, 1147.234
890.4980, 1220.453
890.9810, 1439.984
891.4630, 1616.500
891.9450, 1702.953
892.4270, 1765.516
892.9090, 1876.516
893.3910, 2004.203
893.8730, 2111.172
894.3550, 2175.578
894.8380, 2226.109
895.3200, 2272.547
895.8020, 2302.438
896.2840, 2304.062
896.7660, 2272.672
897.2480, 2244.906
897.7300, 2237.203
898.2120, 2204.156
898.6950, 2069.734
899.1770, 1867.281
899.6590, 1633.703
900.1410, 1377.828
900.6230, 1134.016
901.1050, 907.0625
901.5870, 719.8906
902.0690, 595.0312
902.5510, 531.1562
903.0340, 532.2344
903.5160, 623.4219
903.9980, 697.6719
904.4800, 648.4375
904.9620, 522.4531
905.4440, 497.3750
905.9260, 562.1562
906.4080, 627.0312
906.8900, 634.5000
907.3730, 624.3438
907.8550, 622.7656
908.3370, 628.1719
908.8190, 614.1562
909.3010, 587.7500
909.7830, 526.9531
910.2650, 405.8906
910.7470, 261.7656
911.2290, 203.9844
911.7120, 220.0156
912.1940, 249.5625
912.6760, 290.7969
913.1580, 298.9375
913.6400, 199.5469
914.1220, 59.51562
914.6040, 8.562500
915.0860, 58.59375
915.5680, 118.8125
916.0510, 157.0938
916.5330, 195.0469
917.0150, 262.5312
917.4970, 358.6406
917.9790, 434.5312
918.4610, 490.1250
918.9430, 497.7969
919.4250, 377.7656
919.9080, 225.6094
920.3900, 143.8438
920.8720, 134.2812
921.3540, 250.4844
921.8360, 551.7031
922.3180, 878.1875
922.8000, 1080.484
923.2820, 1165.734
923.7650, 1258.781
924.2470, 1359.219
924.7290, 1450.875
925.2110, 1518.688
925.6930, 1569.891
926.1750, 1613.984
926.6570, 1653.281
927.1390, 1660.859
927.6220, 1607.844
928.1040, 1569.891
928.5860, 1607.422
929.0680, 1696.594
929.5500, 1663.438
930.0320, 1521.297
930.5140, 1400.609
930.9960, 1451.531
931.4780, 1497.406
931.9610, 1325.969
932.4430, 1024.750
932.9250, 851.7969
933.4070, 960.8438
933.8890, 1059.141
934.3710, 1106.281
934.8530, 1115.812
935.3350, 1092.516
935.8170, 1040.531
936.3000, 1010.938
936.7820, 1025.500
937.2640, 1038.031
937.7460, 1013.797
938.2280, 958.4375
938.7100, 875.4531
939.1920, 706.0938
939.6740, 622.4844
940.1560, 666.2344
940.6390, 745.2031
941.1210, 772.9375
941.6030, 756.4531
942.0850, 779.4844
942.5670, 849.6875
943.0490, 852.1562
943.5310, 613.5312
944.0130, 329.4844
944.4950, 175.0156
944.9780, 172.6250
945.4600, 183.5625
945.9420, 229.2344
946.4240, 230.2188
946.9060, 121.7969
947.3880, 47.34375
947.8700, 34.15625
948.3520, 129.7969
948.8350, 221.6094
949.3170, 26.93750
949.7990, 191.3438
950.2810, 253.5156
950.7630, 197.6406
951.2450, 115.0000
951.7270, 15.35938
952.2090, 96.37500
952.6920, 92.01562
953.1740, 60.71875
953.6560, 133.6250
954.1380, 269.3125
954.6200, 266.0781
955.1020, 36.06250
955.5840, 136.0781
956.0660, 56.45312
956.5490, 343.5000
957.0310, 451.5156
957.5130, 289.1250
957.9950, 167.7344
958.4770, 78.03125
958.9590, 60.62500
959.4410, 197.9844
959.9230, 425.9375
960.4050, 551.1875
960.8880, 571.8281
961.3700, 533.1406
961.8520, 359.1719
962.3340, 225.8750
962.8160, 278.4844
963.2980, 473.9688
963.7800, 539.0312
964.2620, 424.9219
964.7440, 368.5625
965.2270, 476.4375
965.7090, 633.5469
966.1910, 609.5156
966.6730, 460.7344
967.1550, 318.2969
967.6370, 214.2500
968.1190, 151.3906
968.6010, 189.3438
969.0830, 238.2500
969.5660, 180.7344
970.0480, 21.60938
970.5300, 131.4062
971.0120, 130.9062
971.4940, 71.50000
971.9760, 53.53125
972.4580, 177.5156
972.9400, 155.3281
973.4220, 27.93750
973.9050, 115.6250
974.3870, 99.64062
974.8690, 307.6875
975.3510, 342.0156
975.8330, 241.8750
976.3150, 346.2031
976.7970, 657.1406
977.2790, 900.8438
977.7620, 922.8594
978.2440, 843.0781
978.7260, 750.5156
979.2080, 659.4062
979.6900, 602.3281
980.1720, 613.3906
980.6540, 625.0625
981.1360, 642.4375
981.6190, 644.2031
982.1010, 578.9688
982.5830, 463.8281
983.0650, 442.8594
983.5470, 550.7031
984.0290, 627.8438
984.5110, 496.1719
984.9930, 304.8906
985.4760, 186.0156
985.9580, 170.3281
986.4400, 147.9531
986.9220, 119.0938
987.4040, 78.51562
987.8860, 4.328125
988.3680, 77.54688
988.8500, 58.20312
989.3320, 35.42188
989.8150, 82.93750
990.2970, 55.45312
990.7790, 167.0625
991.2610, 114.9844
991.7430, 28.26562
992.2250, 104.3750
992.7070, 101.7969
993.1890, 86.00000
993.6710, 63.09375
994.1540, 40.20312
994.6360, 19.50000
995.1180, 7.375000
995.6000, 0.5625000
996.0820, 13.26562
996.5640, 51.40625
997.0460, 327.3594
997.5280, 588.3125
998.0100, 707.2656
998.4930, 689.0312
998.9750, 699.4062
999.4570, 737.6406
999.9390, 782.9062
1000.421, 847.7344
1000.903, 891.5938
1001.385, 833.5312
1001.867, 719.0000
1002.350, 676.0312
1002.832, 797.8750
1003.314, 894.8125
1003.796, 958.1719
1004.278, 966.8125
1004.760, 825.7500
1005.242, 586.7188
1005.724, 509.7500
1006.206, 665.0000
1006.689, 852.5625
1007.171, 1020.359
1007.653, 1096.859
1008.135, 992.5625
1008.617, 689.5312
1009.099, 554.0000
1009.581, 622.8906
1010.063, 708.2188
1010.545, 694.9375
1011.028, 636.3281
1011.510, 635.7656
1011.992, 677.2969
1012.474, 713.1719
1012.956, 688.8906
1013.438, 686.6094
1013.920, 766.0469
1014.402, 873.9219
1014.885, 956.0938
1015.367, 1012.484
1015.849, 1026.453
1016.331, 989.9375
1016.813, 953.2656
1017.295, 959.3438
1017.777, 996.8594
1018.259, 1067.188
1018.741, 1182.375
1019.224, 1244.500
1019.706, 1215.922
1020.188, 1210.750
1020.670, 1298.594
1021.152, 1440.656
1021.634, 1504.406
1022.116, 1508.000
1022.598, 1534.000
1023.081, 1650.188
1023.563, 1766.844
1024.045, 1824.984
1024.527, 1848.188
1025.009, 1877.062
1025.491, 1918.031
1025.973, 1956.406
1026.455, 1991.297
1026.938, 2012.078
1027.420, 2030.859
1027.902, 2015.047
1028.384, 1901.297
1028.866, 1691.891
1029.348, 1512.750
1029.830, 1446.891
1030.312, 1348.609
1030.794, 1134.125
1031.276, 876.2656
1031.759, 886.2656
1032.241, 1128.062
1032.723, 1276.391
1033.205, 1167.453
1033.687, 1006.062
1034.169, 844.2031
1034.651, 745.8438
1035.133, 810.5938
1035.616, 1129.938
1036.098, 1306.500
1036.580, 1300.172
1037.062, 1268.047
1037.544, 1362.422
1038.026, 1508.094
1038.508, 1578.984
1038.990, 1573.656
1039.473, 1566.469
1039.955, 1647.938
1040.437, 1653.562
1040.919, 1533.156
1041.401, 1323.141
1041.883, 1074.359
1042.365, 805.4688
1042.847, 664.6719
1043.329, 741.5000
1043.812, 800.0156
1044.294, 581.6562
1044.776, 285.0938
1045.258, 106.1875
1045.740, 74.00000
1046.222, 124.2656
1046.704, 294.2344
1047.186, 439.4844
1047.668, 434.8281
1048.151, 343.5156
1048.633, 266.2969
1049.115, 223.7188
1049.597, 258.5000
1050.079, 443.2656
1050.561, 624.3594
1051.043, 768.1562
1051.525, 889.8906
1052.008, 1003.578
1052.490, 1109.906
1052.972, 1243.266
1053.454, 1409.797
1053.936, 1543.031
1054.418, 1555.766
1054.900, 1531.109
1055.382, 1512.656
1055.865, 1503.094
1056.347, 1614.266
1056.829, 1909.656
1057.311, 2078.188
1057.793, 1964.344
1058.275, 1704.922
1058.757, 1524.500
1059.239, 1395.875
1059.721, 1258.281
1060.203, 1051.875
1060.686, 931.5625
1061.168, 1037.469
1061.650, 1124.375
1062.132, 937.2031
1062.614, 505.8438
1063.096, 242.5312
1063.578, 150.9375
1064.060, 150.0000
1064.543, 262.8125
1065.025, 386.8594
1065.507, 450.2969
1065.989, 444.8281
1066.471, 413.7656
1066.953, 366.9531
1067.435, 297.0312
1067.917, 188.9688
1068.400, 99.96875
1068.882, 128.9844
1069.364, 214.1875
1069.846, 255.1250
1070.328, 219.9375
1070.810, 222.4375
1071.292, 273.2031
1071.774, 366.5469
1072.256, 520.3125
1072.739, 699.7656
1073.221, 768.1094
1073.703, 739.6562
1074.185, 687.4219
1074.667, 659.1719
1075.149, 594.3125
1075.631, 407.7500
1076.113, 208.7188
1076.595, 143.9688
1077.078, 255.2031
1077.560, 258.0312
1078.042, 142.9688
1078.524, 20.90625
1079.006, 11.32812
1079.488, 23.21875
1079.970, 65.46875
1080.452, 231.2812
1080.934, 306.7188
1081.417, 261.7656
1081.899, 161.5938
1082.381, 7.453125
1082.863, 161.6562
1083.345, 288.6562
1083.827, 373.7656
1084.309, 396.9688
1084.791, 326.4688
1085.274, 340.9531
1085.756, 594.0625
1086.238, 860.1094
1086.720, 1046.000
1087.202, 1151.297
1087.684, 1161.766
1088.166, 1083.953
1088.648, 966.3438
1089.130, 800.3125
1089.613, 654.5156
1090.095, 561.9688
1090.577, 531.9531
1091.059, 590.5625
1091.541, 787.2188
1092.023, 840.2812
1092.505, 722.4219
1092.987, 628.8750
1093.469, 761.6875
1093.952, 975.6875
1094.434, 1075.688
1094.916, 1079.969
1095.398, 1123.562
1095.880, 1271.734
1096.362, 1384.109
1096.844, 1418.672
1097.326, 1443.219
1097.809, 1640.266
1098.291, 1903.719
1098.773, 1896.188
1099.255, 1542.719
1099.737, 1263.547
1100.219, 1330.766
1100.701, 1441.656
1101.183, 1458.172
1101.666, 1401.453
1102.148, 1369.656
1102.630, 1359.656
1103.112, 1334.625
1103.594, 1263.219
1104.076, 1201.703
1104.558, 1184.219
1105.040, 1198.297
1105.522, 1235.203
1106.005, 1297.609
1106.487, 1344.859
1106.969, 1374.422
1107.451, 1398.406
1107.933, 1463.578
1108.415, 1521.109
1108.897, 1492.250
1109.379, 1357.312
1109.861, 1129.969
1110.344, 680.4531
1110.826, 435.5156
1111.308, 455.1719
1111.790, 564.9688
1112.272, 607.7031
1112.754, 595.1875
1113.236, 494.3281
1113.718, 311.5781
1114.201, 205.9531
1114.683, 296.2031
1115.165, 406.4531
1115.647, 488.4844
1116.129, 542.2812
1116.611, 552.2500
1117.093, 527.8906
1117.575, 543.4219
1118.057, 632.4531
1118.540, 680.6406
1119.022, 591.2188
1119.504, 458.6719
1119.986, 355.9219
1120.468, 284.2344
1120.950, 188.5000
1121.432, 72.07812
1121.914, 45.09375
1122.396, 189.4531
1122.879, 267.6719
1123.361, 118.0781
1123.843, 123.0938
1124.325, 241.5156
1124.807, 121.8281
1125.289, 190.5000
1125.771, 476.0312
1126.253, 794.1250
1126.736, 1017.516
1127.218, 1172.766
1127.700, 1255.125
1128.182, 1293.625
1128.664, 1394.719
1129.146, 1645.375
1129.628, 1835.328
1130.110, 1926.641
1130.593, 1970.016
1131.075, 2041.875
1131.557, 2110.312
1132.039, 2087.125
1132.521, 1972.219
1133.003, 1860.578
1133.485, 1835.703
1133.967, 1775.297
1134.449, 1632.094
1134.932, 1458.656
1135.414, 1394.188
1135.896, 1410.594
1136.378, 1323.406
1136.860, 1062.172
1137.342, 906.3594
1137.824, 1160.312
1138.306, 1421.156
1138.788, 1417.516
1139.271, 1194.438
1139.753, 1116.422
1140.235, 1170.750
1140.717, 1201.891
1141.199, 1120.844
1141.681, 1042.438
1142.163, 1100.125
1142.645, 1179.469
1143.128, 1152.625
1143.610, 1011.000
1144.092, 800.3906
1144.574, 514.2656
1145.056, 311.0938
1145.538, 402.3906
1146.020, 545.5625
1146.502, 483.1250
1146.984, 292.1094
1147.467, 131.9062
1147.949, 7.984375
1148.431, 50.85938
1148.913, 43.28125
1149.395, 24.82812
1149.877, 175.4531
1150.359, 357.0000
1150.841, 469.7812
1151.323, 527.5156
1151.806, 653.9531
1152.288, 934.5000
1152.770, 1157.969
1153.252, 1285.109
1153.734, 1345.125
1154.216, 1357.797
1154.698, 1343.266
1155.180, 1342.906
1155.663, 1364.219
1156.145, 1408.000
1156.627, 1515.344
1157.109, 1613.375
1157.591, 1718.781
1158.073, 1770.562
1158.555, 1548.203
1159.037, 1157.047
1159.520, 927.5469
1160.002, 964.6094
1160.484, 997.9531
1160.966, 870.4375
1161.448, 747.0469
1161.930, 721.0156
1162.412, 759.8125
1162.894, 710.7031
1163.376, 592.9062
1163.859, 520.9375
1164.341, 610.9375
1164.823, 600.1094
1165.305, 187.8594
1165.787, 231.1094
1166.269, 288.1719
1166.751, 9.656250
1167.233, 17.32812
1167.715, 236.0156
1168.198, 416.9375
1168.680, 305.4688
1169.162, 103.6250
1169.644, 127.9688
1170.126, 332.8125
1170.608, 409.1250
1171.090, 309.4844
1171.572, 469.4062
1172.055, 904.1250
1172.537, 1239.797
1173.019, 1041.969
1173.501, 787.6250
1173.983, 882.1406
1174.465, 1197.203
1174.947, 1381.422
1175.429, 1417.094
1175.911, 1408.156
1176.394, 1361.328
1176.876, 1333.594
1177.358, 1397.609
1177.840, 1493.141
1178.322, 1592.328
1178.804, 1677.641
1179.286, 1671.281
1179.768, 1536.125
1180.250, 1436.703
1180.733, 1408.719
1181.215, 1435.875
1181.697, 1499.812
1182.179, 1577.047
1182.661, 1639.828
1183.143, 1685.781
1183.625, 1777.828
1184.107, 1933.359
1184.590, 2073.859
1185.072, 2200.516
1185.554, 2238.281
1186.036, 1976.422
1186.518, 1618.047
1187.000, 1484.453
1187.482, 1686.844
1187.964, 1673.812
1188.447, 1346.953
1188.929, 1056.172
1189.411, 954.6875
1189.893, 950.6719
1190.375, 913.4531
1190.857, 856.0000
1191.339, 793.6406
1191.821, 718.0312
1192.303, 688.1094
1192.786, 731.9531
1193.268, 744.2812
1193.750, 631.6094
1194.232, 479.0781
1194.714, 460.7969
1195.196, 533.4219
1195.678, 613.4531
1196.160, 728.1875
1196.642, 722.9688
1197.125, 535.7188
1197.607, 358.1406
1198.089, 347.4688
1198.571, 439.1406
1199.053, 542.2031
1199.535, 626.1562
1200.017, 606.4844
1200.499, 293.1719
1200.981, 131.1250
1201.464, 179.6250
1201.946, 323.0938
1202.428, 524.7031
1202.910, 716.1250
1203.392, 714.3906
1203.874, 550.2188
1204.356, 365.7500
1204.838, 105.2656
1205.321, 4.078125
1205.803, 93.59375
1206.285, 289.5312
1206.767, 543.3281
1207.249, 792.6250
1207.731, 840.8281
1208.213, 721.8438
1208.695, 724.3281
1209.177, 1135.188
1209.660, 1410.641
1210.142, 1439.188
1210.624, 1335.156
1211.106, 1175.250
1211.588, 1013.828
1212.070, 1002.094
1212.552, 1140.562
1213.034, 1239.297
1213.516, 1166.734
1213.999, 1156.781
1214.481, 1295.812
1214.963, 1446.719
1215.445, 1355.359
1215.927, 1129.141
1216.409, 1027.047
1216.891, 1087.844
1217.373, 1040.812
1217.856, 704.5156
1218.338, 441.2969
1218.820, 356.6562
1219.302, 382.2500
1219.784, 446.3125
1220.266, 509.5781
1220.748, 457.7500
1221.230, 248.6406
1221.713, 175.5000
1222.195, 376.4688
1222.677, 568.6875
1223.159, 652.6406
1223.641, 653.6562
1224.123, 629.6406
1224.605, 628.4375
1225.087, 704.0312
1225.569, 884.4844
1226.052, 946.5312
1226.534, 806.1562
1227.016, 737.3750
1227.498, 880.1406
1227.980, 1103.047
1228.462, 1189.078
1228.944, 1174.875
1229.426, 1116.438
1229.908, 997.5156
1230.391, 958.7812
1230.873, 1040.672
1231.355, 1136.297
1231.837, 1200.234
1232.319, 1238.062
1232.801, 1230.297
1233.283, 1207.844
1233.765, 1229.125
1234.248, 1325.312
1234.730, 1406.938
1235.212, 1462.969
1235.694, 1507.656
1236.176, 1523.422
1236.658, 1549.500
1237.140, 1706.188
1237.622, 1901.688
1238.104, 1969.328
1238.587, 1793.188
1239.069, 1691.406
1239.551, 1691.156
1240.033, 1669.219
1240.515, 1540.969
1240.997, 1352.406
1241.479, 1072.859
1241.961, 812.2656
1242.443, 807.6875
1242.926, 1270.984
1243.408, 1434.172
1243.890, 1240.781
1244.372, 1075.125
1244.854, 1251.875
1245.336, 1530.344
1245.818, 1640.188
1246.300, 1643.719
1246.783, 1664.266
1247.265, 1720.578
1247.747, 1740.484
1248.229, 1725.234
1248.711, 1649.844
1249.193, 1439.047
1249.675, 1220.172
1250.157, 1089.688
1250.640, 1043.781
1251.122, 1080.469
1251.604, 1233.578
1252.086, 1310.922
1252.568, 1306.172
1253.050, 1243.125
1253.532, 1071.016
1254.014, 920.0781
1254.496, 911.8906
1254.979, 965.3750
1255.461, 916.7969
1255.943, 742.1875
1256.425, 799.5469
1256.907, 1084.641
1257.389, 1314.703
1257.871, 1211.578
1258.353, 1092.641
1258.835, 1156.172
1259.318, 1285.625
1259.800, 1374.297
1260.282, 1425.703
1260.764, 1321.953
1261.246, 1072.234
1261.728, 767.3594
1262.210, 377.7344
1262.692, 67.40625
1263.175, 75.26562
1263.657, 121.6250
1264.139, 128.2812
1264.621, 103.6406
1265.103, 116.5781
1265.585, 162.3906
1266.067, 194.6406
1266.549, 262.7500
1267.031, 210.0000
1267.514, 8.218750
1267.996, 311.1094
1268.478, 639.0312
1268.960, 964.9219
1269.442, 1222.391
1269.924, 1406.422
1270.406, 1565.875
1270.888, 1636.047
1271.370, 1798.641
1271.853, 2115.656
1272.335, 2415.453
1272.817, 2464.984
1273.299, 2382.781
1273.781, 2368.812
1274.263, 2419.016
1274.745, 2450.812
1275.227, 2498.875
1275.710, 2425.109
1276.192, 2198.312
1276.674, 1962.562
1277.156, 1909.719
1277.638, 1902.203
1278.120, 1754.922
1278.602, 1514.594
1279.084, 1379.609
1279.567, 1382.156
1280.049, 1364.672
1280.531, 1249.375
1281.013, 1160.922
1281.495, 1230.797
1281.977, 1239.219
1282.459, 1084.281
1282.941, 899.0469
1283.423, 846.6250
1283.906, 927.8438
1284.388, 904.4062
1284.870, 751.8750
1285.352, 684.9531
1285.834, 952.2031
1286.316, 1238.000
1286.798, 1421.234
1287.280, 1493.078
1287.762, 1386.734
1288.245, 1132.984
1288.727, 958.1406
1289.209, 886.6875
1289.691, 856.8594
1290.173, 882.5469
1290.655, 876.6094
1291.137, 808.2656
1291.619, 709.4219
1292.102, 607.7812
1292.584, 535.3906
1293.066, 487.2500
1293.548, 444.2656
1294.030, 395.0312
1294.512, 323.7969
1294.994, 263.5469
1295.476, 192.3281
1295.958, 88.32812
1296.441, 6.625000
1296.923, 0.0000000E+00
##END=



