##NAMES=Andalusite
##RRUFFID=R050258
##IDEAL CHEMISTRY=Al_2_SiO_5_
##LOCALITY=Bautista Canyon, near Hemet, Riverside County, California, USA
##OWNER=RRUFF
##SOURCE=Marcus Origlieri
##DESCRIPTION=Brown fragment
##STATUS=The identification of this mineral has been confirmed by X-ray diffraction and chemical analysis
##URL=rruff.info/R050258
##MEASURED CHEMISTRY=Al_2.00_Si_1.00_O_5_
149.9132, 0.0000000E+00
150.3953, 64.38281
150.8774, 33.10547
151.3595, 2.375000
151.8417, 39.49219
152.3238, 182.9297
152.8059, 264.3945
153.2880, 238.3203
153.7701, 165.1484
154.2522, 109.5977
154.7344, 86.48828
155.2165, 71.76562
155.6986, 58.30859
156.1807, 43.62109
156.6628, 36.23047
157.1449, 43.33984
157.6271, 56.78516
158.1092, 64.10938
158.5913, 42.64844
159.0734, 30.78125
159.5555, 53.02734
160.0376, 133.6211
160.5198, 184.7969
161.0019, 151.5547
161.4840, 74.40625
161.9661, 23.61719
162.4482, 54.86719
162.9303, 97.57812
163.4125, 108.6094
163.8946, 64.33203
164.3767, 27.14453
164.8588, 12.59375
165.3409, 23.26953
165.8230, 67.60547
166.3052, 215.2266
166.7873, 361.6094
167.2694, 415.5664
167.7515, 307.5664
168.2336, 194.8555
168.7157, 190.9023
169.1978, 266.2461
169.6800, 327.8047
170.1621, 299.9570
170.6442, 242.3086
171.1263, 222.7812
171.6084, 282.5312
172.0905, 357.8477
172.5727, 405.5078
173.0548, 427.9258
173.5369, 425.8320
174.0190, 394.0781
174.5011, 347.4727
174.9832, 313.3672
175.4654, 307.3711
175.9475, 310.9180
176.4296, 305.8242
176.9117, 293.4609
177.3938, 279.0273
177.8759, 300.1641
178.3581, 351.4453
178.8402, 384.3125
179.3223, 351.6445
179.8044, 282.3477
180.2865, 230.4531
180.7686, 195.7461
181.2508, 184.5000
181.7329, 218.9844
182.2150, 282.7812
182.6971, 329.8672
183.1792, 330.7266
183.6613, 312.7109
184.1435, 342.7109
184.6256, 423.1172
185.1077, 488.8242
185.5898, 461.3477
186.0719, 359.5898
186.5540, 270.3047
187.0362, 209.2500
187.5183, 167.0977
188.0004, 182.0586
188.4825, 262.2656
188.9646, 332.0898
189.4467, 280.2734
189.9289, 125.5078
190.4110, 18.24609
190.8931, 26.70703
191.3752, 121.5391
191.8573, 170.9180
192.3394, 170.5117
192.8216, 150.2930
193.3037, 149.5117
193.7858, 167.3047
194.2679, 167.3789
194.7500, 121.2617
195.2321, 41.15625
195.7143, 13.78516
196.1964, 50.25000
196.6785, 103.6094
197.1606, 105.8086
197.6427, 52.55078
198.1248, 15.21484
198.6070, 27.45312
199.0891, 84.95312
199.5712, 123.0000
200.0533, 139.4258
200.5354, 141.3867
201.0175, 138.7773
201.4997, 132.7031
201.9818, 113.7227
202.4639, 66.05469
202.9460, 10.34766
203.4281, 31.90625
203.9102, 19.65234
204.3924, 93.44141
204.8745, 113.5195
205.3566, 70.86328
205.8387, 17.96484
206.3208, 31.64844
206.8029, 78.98828
207.2851, 103.8398
207.7672, 101.0469
208.2493, 81.47656
208.7314, 56.08203
209.2135, 21.28906
209.6956, 6.480469
210.1778, 12.51953
210.6599, 9.312500
211.1420, 8.941406
211.6241, 87.03516
212.1062, 180.5117
212.5883, 212.7188
213.0705, 159.9219
213.5526, 109.7461
214.0347, 92.00000
214.5168, 109.3711
214.9989, 139.2930
215.4810, 189.0117
215.9632, 243.8320
216.4453, 280.6250
216.9274, 299.9492
217.4095, 299.7930
217.8916, 270.8984
218.3737, 203.1172
218.8559, 169.8555
219.3380, 188.3086
219.8201, 226.1055
220.3022, 231.6875
220.7843, 195.0898
221.2664, 147.5820
221.7486, 95.00781
222.2307, 34.26562
222.7128, 10.23438
223.1949, 38.67188
223.6770, 49.56641
224.1591, 36.45312
224.6413, 18.39844
225.1234, 64.60547
225.6055, 86.62500
226.0876, 80.42578
226.5697, 68.53906
227.0518, 45.13672
227.5340, 20.46484
228.0161, 11.84766
228.4982, 31.35547
228.9803, 44.25000
229.4624, 34.95703
229.9445, 5.777344
230.4267, 21.70703
230.9088, 8.273438
231.3909, 25.91797
231.8730, 72.66016
232.3551, 150.4336
232.8372, 208.9570
233.3194, 231.6836
233.8015, 213.3086
234.2836, 189.7734
234.7657, 158.0312
235.2478, 123.6680
235.7299, 89.56641
236.2121, 35.40234
236.6942, 19.02344
237.1763, 73.61719
237.6584, 219.0430
238.1405, 290.0312
238.6226, 243.9453
239.1048, 156.5273
239.5869, 121.1250
240.0690, 171.5820
240.5511, 212.6836
241.0332, 215.0352
241.5153, 170.4102
241.9975, 160.0664
242.4796, 200.2422
242.9617, 260.1797
243.4438, 309.7578
243.9259, 364.0156
244.4080, 378.6367
244.8902, 324.6602
245.3723, 193.8320
245.8544, 130.8555
246.3365, 169.2109
246.8186, 243.5664
247.3007, 289.2305
247.7829, 288.9102
248.2650, 291.9570
248.7471, 315.1211
249.2292, 360.1523
249.7113, 377.8711
250.1934, 348.1250
250.6756, 312.9102
251.1577, 315.2266
251.6398, 385.8242
252.1219, 428.6875
252.6040, 416.6836
253.0861, 352.6211
253.5683, 313.8594
254.0504, 306.3828
254.5325, 320.1406
255.0146, 355.4219
255.4967, 441.9297
255.9788, 477.5781
256.4609, 427.2383
256.9431, 306.3242
257.4252, 245.4297
257.9073, 274.0273
258.3894, 321.1211
258.8715, 332.5352
259.3536, 287.0469
259.8358, 262.4766
260.3179, 270.4844
260.8000, 304.9219
261.2821, 347.6602
261.7642, 421.0039
262.2463, 474.4297
262.7285, 467.0781
263.2106, 369.4531
263.6927, 307.2109
264.1748, 300.6875
264.6569, 332.2148
265.1390, 340.4336
265.6212, 320.7109
266.1033, 293.1133
266.5854, 262.8516
267.0675, 222.3086
267.5496, 214.2891
268.0317, 250.6250
268.5139, 311.7148
268.9960, 349.9727
269.4781, 359.1992
269.9602, 359.3438
270.4423, 364.3633
270.9244, 380.6992
271.4066, 359.1602
271.8887, 274.9805
272.3708, 176.0000
272.8529, 172.1172
273.3350, 289.5742
273.8171, 406.8359
274.2993, 466.9258
274.7814, 460.7031
275.2635, 472.4141
275.7456, 502.9141
276.2277, 549.2422
276.7098, 617.1914
277.1920, 715.8750
277.6741, 783.6680
278.1562, 785.8398
278.6383, 722.8867
279.1204, 684.4492
279.6025, 675.5273
280.0847, 678.9102
280.5668, 669.2266
281.0489, 644.2578
281.5310, 627.3438
282.0131, 628.0117
282.4952, 646.9883
282.9774, 680.0938
283.4595, 735.0586
283.9416, 776.0117
284.4237, 744.5977
284.9058, 641.4883
285.3879, 577.1289
285.8701, 588.3359
286.3522, 655.8828
286.8343, 715.7422
287.3164, 767.0938
287.7985, 812.3594
288.2806, 848.5430
288.7628, 878.2148
289.2449, 916.4688
289.7270, 973.8203
290.2091, 1033.754
290.6912, 1048.414
291.1733, 1016.684
291.6555, 981.3438
292.1376, 975.1875
292.6197, 993.2148
293.1018, 1019.738
293.5839, 1065.816
294.0660, 1095.719
294.5482, 1023.383
295.0303, 858.3242
295.5124, 703.0234
295.9945, 633.7734
296.4766, 624.1094
296.9587, 599.0117
297.4409, 547.9141
297.9230, 488.9414
298.4051, 445.1992
298.8872, 414.6016
299.3693, 387.6211
299.8514, 349.0391
300.3336, 312.4922
300.8157, 307.9492
301.2978, 339.8906
301.7799, 382.0469
302.2620, 409.0508
302.7441, 423.6211
303.2263, 433.5820
303.7084, 449.1602
304.1905, 458.0820
304.6726, 433.6172
305.1547, 373.9961
305.6368, 326.1914
306.1190, 339.8320
306.6011, 394.3164
307.0832, 445.0664
307.5653, 494.6094
308.0474, 530.7148
308.5295, 541.2812
309.0117, 527.8984
309.4938, 496.9531
309.9759, 426.7773
310.4580, 351.1914
310.9401, 316.2188
311.4222, 373.3164
311.9044, 424.2578
312.3865, 372.4648
312.8686, 248.6680
313.3507, 164.0625
313.8328, 224.8203
314.3149, 324.6523
314.7971, 365.2930
315.2792, 290.9766
315.7613, 234.8438
316.2434, 293.7891
316.7255, 419.6914
317.2076, 509.8555
317.6898, 487.0938
318.1719, 439.4492
318.6540, 420.9727
319.1361, 443.9102
319.6182, 481.8047
320.1003, 555.7695
320.5825, 635.3359
321.0646, 671.3281
321.5467, 594.3086
322.0288, 521.8203
322.5109, 503.4180
322.9930, 548.1133
323.4752, 589.6797
323.9573, 630.5430
324.4394, 655.1016
324.9215, 649.2109
325.4036, 593.0078
325.8857, 524.7109
326.3679, 444.2695
326.8500, 352.5352
327.3321, 272.1797
327.8142, 175.5312
328.2963, 109.5859
328.7784, 103.8828
329.2606, 244.5352
329.7427, 336.3242
330.2248, 357.6875
330.7069, 323.4609
331.1890, 289.8164
331.6711, 247.4961
332.1533, 215.8359
332.6354, 204.3281
333.1175, 224.2812
333.5996, 239.3867
334.0817, 248.2422
334.5638, 252.4727
335.0460, 255.0820
335.5281, 254.9219
336.0102, 254.3203
336.4923, 252.8750
336.9744, 249.4336
337.4565, 254.2266
337.9387, 278.0625
338.4208, 295.3750
338.9029, 265.6875
339.3850, 170.0938
339.8671, 102.5938
340.3492, 97.87891
340.8313, 144.2734
341.3134, 140.8516
341.7956, 77.42188
342.2777, 1.312500
342.7598, 50.97656
343.2419, 78.25391
343.7240, 79.29297
344.2061, 45.17969
344.6883, 7.976563
345.1704, 34.69531
345.6525, 33.97266
346.1346, 34.25781
346.6167, 62.73438
347.0988, 112.0000
347.5810, 126.6797
348.0631, 92.71094
348.5452, 52.19922
349.0273, 82.00391
349.5094, 168.9375
349.9915, 231.9141
350.4737, 194.9844
350.9558, 110.7617
351.4379, 111.8984
351.9200, 204.2930
352.4021, 303.4141
352.8842, 329.7109
353.3664, 302.6797
353.8485, 267.4453
354.3306, 225.2188
354.8127, 193.1094
355.2948, 192.4062
355.7769, 221.6602
356.2591, 267.8945
356.7412, 345.1953
357.2233, 426.5977
357.7054, 483.5469
358.1875, 513.0820
358.6696, 509.4023
359.1518, 442.0586
359.6339, 335.8555
360.1160, 251.9453
360.5981, 236.3594
361.0802, 240.6797
361.5623, 237.4531
362.0445, 225.7695
362.5266, 191.7188
363.0087, 80.71484
363.4908, 42.81250
363.9729, 96.08984
364.4550, 16.29688
364.9372, 134.8906
365.4193, 206.6719
365.9014, 228.7383
366.3835, 235.6914
366.8656, 214.7188
367.3477, 192.5938
367.8299, 188.6602
368.3120, 225.1797
368.7941, 256.7305
369.2762, 283.0000
369.7583, 302.1484
370.2404, 306.1758
370.7226, 284.2188
371.2047, 258.1484
371.6868, 237.6914
372.1689, 230.3984
372.6510, 212.7422
373.1331, 186.5391
373.6153, 149.6133
374.0974, 88.08594
374.5795, 38.26953
375.0616, 102.4062
375.5437, 34.87500
376.0258, 168.7656
376.5080, 243.7969
376.9901, 145.8633
377.4722, 1.734375
377.9543, 69.09375
378.4364, 58.55078
378.9185, 26.48438
379.4007, 23.92188
379.8828, 82.66406
380.3649, 116.7812
380.8470, 124.0625
381.3291, 121.0977
381.8112, 110.7695
382.2934, 96.91406
382.7755, 108.8281
383.2576, 155.9648
383.7397, 207.1562
384.2218, 219.5234
384.7039, 198.3867
385.1861, 159.0625
385.6682, 67.34375
386.1503, 27.06250
386.6324, 0.3515630
387.1145, 150.0156
387.5966, 289.4336
388.0788, 280.3203
388.5609, 184.5273
389.0430, 113.7539
389.5251, 114.4961
390.0072, 134.9297
390.4893, 124.6055
390.9715, 92.04688
391.4536, 69.33594
391.9357, 86.00391
392.4178, 113.7031
392.8999, 129.5469
393.3820, 129.1719
393.8642, 121.8750
394.3463, 100.0117
394.8284, 77.26953
395.3105, 74.62500
395.7926, 132.2461
396.2747, 181.3242
396.7569, 193.1953
397.2390, 165.6875
397.7211, 129.2148
398.2032, 64.65234
398.6853, 7.714844
399.1674, 14.99609
399.6496, 16.64062
400.1317, 60.35938
400.6138, 130.6797
401.0959, 211.7891
401.5780, 247.6953
402.0602, 200.0469
402.5423, 153.9141
403.0244, 143.9727
403.5065, 184.3633
403.9886, 210.1836
404.4707, 218.6836
404.9529, 215.1562
405.4350, 201.1797
405.9171, 166.6875
406.3992, 157.3828
406.8813, 196.5820
407.3634, 273.3867
407.8456, 314.3555
408.3277, 317.3438
408.8098, 294.5625
409.2919, 247.2969
409.7740, 177.3828
410.2561, 109.2930
410.7383, 35.37109
411.2204, 14.43359
411.7025, 44.76562
412.1846, 196.4375
412.6667, 302.7812
413.1488, 240.7305
413.6310, 91.28516
414.1131, 28.17969
414.5952, 60.74219
415.0773, 119.1875
415.5594, 147.3242
416.0415, 156.8555
416.5237, 168.9180
417.0058, 185.2578
417.4879, 211.6992
417.9700, 278.7734
418.4521, 368.3242
418.9342, 409.2891
419.4164, 304.8516
419.8985, 173.2891
420.3806, 110.4180
420.8627, 149.5156
421.3448, 192.2891
421.8269, 202.5586
422.3091, 198.7930
422.7912, 194.6836
423.2733, 197.1953
423.7554, 197.1680
424.2375, 188.5117
424.7196, 171.1523
425.2018, 164.4688
425.6839, 192.1484
426.1660, 216.7266
426.6481, 215.2500
427.1302, 153.9844
427.6123, 123.5547
428.0945, 139.6680
428.5766, 184.5000
429.0587, 218.8086
429.5408, 245.8516
430.0229, 255.1523
430.5050, 235.8477
430.9872, 186.1484
431.4693, 155.5352
431.9514, 146.8906
432.4335, 146.6680
432.9156, 142.2461
433.3977, 139.2188
433.8799, 133.4766
434.3620, 118.5195
434.8441, 103.1055
435.3262, 113.2383
435.8083, 145.9727
436.2904, 176.9453
436.7726, 199.9062
437.2547, 209.6641
437.7368, 183.6602
438.2189, 115.4102
438.7010, 39.48438
439.1831, 6.195313
439.6652, 27.95703
440.1473, 38.64844
440.6295, 47.42188
441.1116, 42.13281
441.5937, 5.414063
442.0758, 84.45312
442.5579, 137.2148
443.0400, 108.3242
443.5222, 59.10547
444.0043, 35.42969
444.4864, 59.67188
444.9685, 81.05469
445.4506, 79.55078
445.9327, 63.56641
446.4149, 47.36719
446.8970, 24.83203
447.3791, 11.26172
447.8612, 13.12109
448.3433, 30.50000
448.8254, 43.44531
449.3076, 25.11328
449.7897, 26.94531
450.2718, 87.91406
450.7539, 260.0664
451.2360, 371.1758
451.7181, 400.2969
452.2003, 377.3164
452.6824, 361.2227
453.1645, 353.3203
453.6466, 347.7188
454.1287, 350.3359
454.6108, 354.1719
455.0930, 324.0469
455.5751, 256.0625
456.0572, 192.4062
456.5393, 189.6484
457.0214, 231.0859
457.5035, 226.0391
457.9857, 137.5469
458.4678, 39.03516
458.9499, 55.28906
459.4320, 158.6641
459.9141, 252.1484
460.3962, 282.6797
460.8784, 272.0000
461.3605, 241.6406
461.8426, 192.8398
462.3247, 151.6445
462.8068, 143.5117
463.2889, 148.2344
463.7711, 143.8242
464.2532, 113.4414
464.7353, 87.92969
465.2174, 80.71875
465.6995, 86.91016
466.1816, 95.43359
466.6638, 112.0430
467.1459, 121.2422
467.6280, 115.8906
468.1101, 88.01172
468.5922, 65.14062
469.0743, 48.73438
469.5565, 38.39062
470.0386, 33.53516
470.5207, 20.83594
471.0028, 29.08203
471.4849, 73.39844
471.9670, 136.7500
472.4492, 170.5898
472.9313, 171.2266
473.4134, 155.0977
473.8955, 120.2539
474.3776, 68.71875
474.8597, 45.52734
475.3419, 52.48438
475.8240, 76.50391
476.3061, 122.1289
476.7882, 178.4805
477.2703, 186.9180
477.7524, 108.6602
478.2346, 19.57422
478.7167, 46.21484
479.1988, 159.3203
479.6809, 250.0742
480.1630, 231.7852
480.6451, 175.8125
481.1273, 155.7305
481.6094, 177.8242
482.0915, 200.2500
482.5736, 189.7383
483.0557, 171.9844
483.5378, 172.7383
484.0200, 228.1523
484.5021, 266.0820
484.9842, 249.9258
485.4663, 199.5820
485.9484, 169.3477
486.4305, 201.8750
486.9127, 220.7500
487.3948, 189.6953
487.8769, 94.28125
488.3590, 52.70703
488.8411, 90.24219
489.3232, 155.2383
489.8054, 212.2461
490.2875, 272.1211
490.7696, 284.9766
491.2517, 234.6484
491.7338, 146.7930
492.2159, 72.60938
492.6981, 11.62109
493.1802, 24.82031
493.6623, 17.51562
494.1444, 19.86328
494.6265, 18.79688
495.1086, 22.37891
495.5908, 42.48828
496.0729, 45.12891
496.5550, 187.1328
497.0371, 269.6172
497.5192, 253.9531
498.0013, 205.6172
498.4835, 167.6953
498.9656, 140.2461
499.4477, 125.2891
499.9298, 139.7266
500.4119, 147.7969
500.8940, 121.5938
501.3762, 62.18359
501.8583, 15.99219
502.3404, 6.933594
502.8225, 9.312500
503.3046, 9.574219
503.7867, 81.30078
504.2689, 124.1523
504.7510, 115.7812
505.2331, 87.16797
505.7152, 87.93359
506.1973, 143.9414
506.6794, 175.8281
507.1616, 157.7031
507.6437, 97.77734
508.1258, 52.39062
508.6079, 19.45703
509.0900, 8.300781
509.5721, 46.37109
510.0543, 124.6641
510.5364, 133.1992
511.0185, 51.82422
511.5006, 38.18359
511.9827, 23.52734
512.4648, 66.70312
512.9470, 141.8008
513.4291, 172.0234
513.9112, 172.7500
514.3933, 154.8672
514.8754, 120.6836
515.3575, 78.44531
515.8397, 11.42578
516.3218, 47.76172
516.8039, 80.51172
517.2860, 86.82812
517.7681, 53.59375
518.2502, 78.44531
518.7324, 223.1367
519.2145, 303.2266
519.6966, 254.2266
520.1787, 203.4062
520.6608, 145.9141
521.1429, 95.41797
521.6251, 90.05859
522.1072, 160.3750
522.5893, 220.8633
523.0714, 247.9648
523.5535, 241.9961
524.0356, 192.2188
524.5178, 81.62109
524.9999, 13.46875
525.4820, 1.410156
525.9641, 102.9922
526.4462, 135.7227
526.9283, 57.17188
527.4105, 35.61328
527.8926, 11.19531
528.3747, 158.4492
528.8568, 275.9648
529.3389, 301.8281
529.8210, 276.1797
530.3032, 212.4805
530.7853, 121.9727
531.2674, 64.08984
531.7495, 106.6055
532.2316, 169.2539
532.7137, 186.7227
533.1959, 133.5625
533.6780, 102.1367
534.1601, 110.5273
534.6422, 154.0234
535.1243, 229.7227
535.6064, 422.5977
536.0886, 532.4141
536.5707, 503.6836
537.0528, 384.9766
537.5349, 334.4336
538.0170, 391.5078
538.4991, 417.9336
538.9813, 337.0508
539.4634, 158.4102
539.9455, 82.05078
540.4276, 120.8086
540.9097, 191.5391
541.3918, 218.5000
541.8740, 213.1602
542.3561, 221.6406
542.8382, 252.1680
543.3203, 292.5586
543.8024, 347.8008
544.2845, 401.8320
544.7667, 417.3516
545.2488, 322.4531
545.7309, 228.3125
546.2130, 230.4297
546.6951, 307.9570
547.1772, 363.4961
547.6594, 322.3516
548.1415, 276.3438
548.6236, 287.9453
549.1057, 395.1562
549.5878, 441.4570
550.0699, 356.1133
550.5521, 244.3867
551.0342, 196.3555
551.5163, 252.2344
551.9984, 293.6680
552.4805, 303.0234
552.9626, 291.8906
553.4448, 294.7695
553.9269, 319.9961
554.4090, 333.9336
554.8911, 315.7891
555.3732, 278.6133
555.8553, 279.7109
556.3375, 318.0039
556.8196, 344.2383
557.3017, 303.1992
557.7838, 229.5938
558.2659, 174.4492
558.7480, 141.5625
559.2302, 142.9297
559.7123, 225.2305
560.1944, 333.9609
560.6765, 400.2930
561.1586, 381.8945
561.6407, 342.4844
562.1229, 291.8672
562.6050, 234.5469
563.0871, 182.3281
563.5692, 123.3438
564.0513, 84.79688
564.5334, 82.17578
565.0156, 117.6680
565.4977, 132.1406
565.9798, 116.1836
566.4619, 96.54688
566.9440, 94.40234
567.4261, 112.3633
567.9083, 124.4766
568.3904, 129.0312
568.8725, 127.8672
569.3546, 121.2148
569.8367, 112.1875
570.3188, 95.87109
570.8010, 57.28516
571.2831, 22.04297
571.7652, 28.30469
572.2473, 66.93359
572.7294, 105.9062
573.2115, 146.5000
573.6937, 167.8320
574.1758, 137.1250
574.6579, 53.09375
575.1400, 2.171875
575.6221, 50.08203
576.1042, 119.0156
576.5864, 151.2109
577.0685, 124.0039
577.5506, 94.22266
578.0327, 52.69531
578.5148, 15.09375
578.9969, 4.300781
579.4791, 27.24609
579.9612, 49.50000
580.4433, 59.07812
580.9254, 66.39844
581.4075, 109.1016
581.8896, 185.8984
582.3718, 250.1406
582.8539, 260.1016
583.3360, 244.0156
583.8181, 266.8633
584.3002, 325.2891
584.7823, 366.4922
585.2645, 335.6445
585.7466, 280.9961
586.2286, 243.9336
586.7108, 233.6875
587.1929, 231.3281
587.6750, 236.9766
588.1571, 246.5508
588.6392, 254.7422
589.1213, 292.9180
589.6035, 289.9766
590.0856, 199.6094
590.5677, 68.15234
591.0498, 31.56250
591.5319, 135.7930
592.0140, 228.0938
592.4962, 249.8516
592.9783, 209.2344
593.4604, 172.1289
593.9425, 135.3125
594.4246, 120.7344
594.9067, 163.6094
595.3889, 239.9727
595.8710, 286.4766
596.3531, 296.7383
596.8352, 296.6289
597.3173, 312.9141
597.7994, 333.1758
598.2816, 336.9414
598.7637, 300.8945
599.2458, 277.0195
599.7279, 312.7422
600.2100, 376.5195
600.6921, 407.9297
601.1743, 376.9570
601.6564, 332.3164
602.1385, 277.5625
602.6206, 216.5469
603.1027, 177.2773
603.5848, 158.6953
604.0670, 164.7773
604.5491, 207.2031
605.0312, 286.2305
605.5133, 341.7031
605.9954, 373.0312
606.4775, 377.0781
606.9597, 330.1797
607.4418, 250.1719
607.9239, 195.3320
608.4060, 173.0781
608.8881, 184.0156
609.3702, 266.2734
609.8524, 376.1602
610.3345, 437.3125
610.8166, 377.8047
611.2987, 307.8203
611.7808, 278.8398
612.2629, 279.5156
612.7451, 274.4141
613.2272, 237.7500
613.7093, 215.5195
614.1914, 229.5391
614.6735, 280.3203
615.1556, 305.5977
615.6378, 299.3359
616.1199, 279.0664
616.6020, 246.3438
617.0841, 199.6992
617.5662, 189.4375
618.0483, 221.6836
618.5305, 263.5977
619.0126, 278.8203
619.4947, 275.1055
619.9768, 276.6523
620.4589, 291.8867
620.9410, 306.9102
621.4232, 310.3359
621.9053, 305.4258
622.3874, 298.0000
622.8695, 305.0039
623.3516, 296.6328
623.8337, 252.7422
624.3159, 181.7227
624.7980, 120.5508
625.2801, 56.70703
625.7622, 20.85156
626.2443, 26.91406
626.7264, 75.88281
627.2086, 133.8867
627.6907, 213.5352
628.1728, 265.5664
628.6549, 226.4297
629.1370, 109.1602
629.6191, 65.51562
630.1013, 110.6875
630.5834, 188.3008
631.0655, 254.5039
631.5476, 307.0117
632.0297, 342.7852
632.5118, 367.0000
632.9940, 362.5273
633.4761, 280.0938
633.9582, 168.4844
634.4403, 110.8828
634.9224, 206.5000
635.4045, 279.7422
635.8867, 254.1875
636.3688, 159.2227
636.8509, 135.0664
637.3330, 235.9531
637.8151, 314.2930
638.2972, 308.8672
638.7794, 224.9297
639.2615, 160.8359
639.7436, 116.5508
640.2257, 86.51562
640.7078, 76.89062
641.1899, 77.88672
641.6721, 54.15625
642.1542, 1.214844
642.6363, 51.96094
643.1184, 88.73828
643.6005, 106.9570
644.0826, 101.0977
644.5648, 60.14844
645.0469, 14.70312
645.5290, 36.94531
646.0111, 82.48438
646.4932, 104.3086
646.9753, 86.79688
647.4575, 61.59375
647.9396, 24.55469
648.4217, 16.26172
648.9038, 37.21875
649.3859, 37.39844
649.8680, 20.85156
650.3502, 22.83203
650.8323, 77.98047
651.3144, 75.98438
651.7965, 19.56250
652.2786, 28.55859
652.7607, 11.80469
653.2429, 32.21484
653.7250, 47.65625
654.2071, 31.30859
654.6892, 17.51953
655.1713, 14.35938
655.6534, 30.05078
656.1356, 80.47266
656.6177, 204.6133
657.0998, 273.9922
657.5819, 209.6094
658.0640, 121.2734
658.5461, 118.8047
659.0283, 247.5938
659.5104, 322.9688
659.9925, 303.5508
660.4746, 250.5547
660.9567, 286.9844
661.4388, 406.0078
661.9210, 500.8516
662.4031, 530.9883
662.8852, 523.2227
663.3673, 504.1641
663.8494, 476.7656
664.3315, 449.0117
664.8137, 427.3086
665.2958, 404.9336
665.7779, 385.0391
666.2600, 365.3398
666.7421, 324.5859
667.2242, 208.9141
667.7064, 120.0820
668.1885, 114.9688
668.6706, 211.7500
669.1527, 254.6445
669.6348, 229.3945
670.1169, 181.3438
670.5991, 130.0625
671.0812, 77.82422
671.5633, 81.58203
672.0454, 151.7969
672.5275, 235.1680
673.0096, 280.5586
673.4918, 293.8750
673.9739, 280.0781
674.4560, 222.6602
674.9381, 181.7852
675.4202, 223.0000
675.9023, 297.2461
676.3845, 334.0938
676.8666, 281.5195
677.3487, 231.3125
677.8308, 194.2969
678.3129, 169.3867
678.7950, 164.1641
679.2772, 184.7539
679.7593, 213.4688
680.2414, 251.4258
680.7235, 291.7539
681.2056, 304.1953
681.6877, 289.2852
682.1699, 278.8086
682.6520, 305.2852
683.1341, 341.6211
683.6162, 339.9297
684.0983, 302.7461
684.5804, 259.2188
685.0626, 217.9531
685.5447, 183.4297
686.0268, 162.3125
686.5089, 159.2695
686.9910, 146.1719
687.4731, 98.37891
687.9553, 55.37891
688.4374, 39.87109
688.9195, 54.41406
689.4016, 99.92578
689.8837, 194.7695
690.3658, 280.8320
690.8480, 272.5000
691.3301, 185.1328
691.8122, 124.8945
692.2943, 116.9219
692.7764, 122.6055
693.2585, 89.85938
693.7407, 40.57812
694.2228, 15.56250
694.7049, 46.88281
695.1870, 81.81250
695.6691, 96.27734
696.1512, 96.90625
696.6334, 98.28906
697.1155, 106.3281
697.5976, 107.1055
698.0797, 84.62500
698.5618, 53.88281
699.0439, 81.39062
699.5261, 178.3984
700.0082, 273.0508
700.4903, 340.5352
700.9724, 378.4375
701.4545, 366.5898
701.9366, 312.3750
702.4188, 265.4453
702.9009, 268.4688
703.3830, 284.9570
703.8651, 277.7031
704.3472, 245.5820
704.8293, 215.7344
705.3115, 178.2891
705.7936, 162.0781
706.2757, 200.8203
706.7578, 327.8164
707.2399, 356.7070
707.7220, 231.0742
708.2042, 98.94141
708.6863, 95.44922
709.1684, 222.4922
709.6505, 306.6211
710.1326, 336.8242
710.6147, 324.1133
711.0969, 242.7578
711.5790, 132.8203
712.0611, 87.68750
712.5432, 150.0820
713.0253, 210.8398
713.5074, 183.8594
713.9896, 118.3047
714.4717, 75.38281
714.9538, 92.29297
715.4359, 104.4609
715.9180, 93.83594
716.4001, 79.53125
716.8823, 101.7930
717.3644, 178.2266
717.8465, 220.1094
718.3286, 201.7656
718.8107, 144.6680
719.2928, 76.01172
719.7750, 2.957031
720.2571, 26.09375
720.7392, 42.49219
721.2213, 135.2422
721.7034, 178.2734
722.1855, 186.0039
722.6677, 196.4180
723.1498, 215.8086
723.6319, 236.5508
724.1140, 265.6484
724.5961, 302.8711
725.0782, 312.1172
725.5604, 277.6250
726.0425, 242.4219
726.5246, 220.5195
727.0067, 212.3125
727.4888, 236.7734
727.9709, 295.5391
728.4531, 328.7188
728.9352, 251.9688
729.4173, 136.2969
729.8994, 125.7891
730.3815, 223.7656
730.8636, 291.0625
731.3458, 201.9648
731.8279, 79.47266
732.3100, 17.21094
732.7921, 45.38672
733.2742, 54.42969
733.7563, 21.83203
734.2385, 15.57812
734.7206, 36.57812
735.2027, 43.08984
735.6848, 9.851563
736.1669, 74.00391
736.6490, 158.8281
737.1312, 192.1094
737.6133, 183.6055
738.0954, 151.3281
738.5775, 89.70703
739.0596, 45.28906
739.5417, 63.37500
740.0239, 114.7422
740.5060, 166.7617
740.9881, 225.8750
741.4702, 261.3008
741.9523, 256.0625
742.4344, 229.2734
742.9166, 198.2109
743.3987, 155.1875
743.8808, 138.0039
744.3629, 162.3984
744.8450, 195.0391
745.3271, 158.0000
745.8093, 70.34766
746.2914, 41.60156
746.7735, 138.1016
747.2556, 246.9531
747.7377, 239.3672
748.2198, 164.3242
748.7020, 116.0312
749.1841, 148.4336
749.6662, 189.9453
750.1483, 230.3867
750.6304, 263.7070
751.1125, 274.5742
751.5947, 254.5312
752.0768, 232.7969
752.5589, 218.6211
753.0410, 206.3477
753.5231, 175.3672
754.0052, 127.8672
754.4874, 88.59766
754.9695, 76.02344
755.4516, 74.64062
755.9337, 62.16797
756.4158, 42.30469
756.8979, 31.47656
757.3801, 46.28125
757.8622, 62.63281
758.3443, 69.05469
758.8264, 66.64062
759.3085, 68.62891
759.7906, 78.45312
760.2728, 85.06641
760.7549, 81.37109
761.2370, 70.05859
761.7191, 69.12109
762.2012, 78.01172
762.6833, 91.19531
763.1655, 102.5234
763.6476, 116.8906
764.1297, 146.1367
764.6118, 187.6836
765.0939, 220.0781
765.5760, 253.4648
766.0582, 257.7305
766.5403, 191.2695
767.0224, 42.93359
767.5045, 11.76953
767.9866, 66.89453
768.4688, 174.1953
768.9509, 268.1562
769.4330, 347.3672
769.9151, 368.5156
770.3972, 330.3594
770.8793, 285.7461
771.3615, 283.1016
771.8436, 294.8008
772.3257, 274.0820
772.8078, 221.2422
773.2899, 182.2695
773.7720, 187.3711
774.2542, 202.2891
774.7363, 200.0859
775.2184, 173.3008
775.7005, 159.6172
776.1826, 169.9531
776.6647, 176.2031
777.1469, 155.1406
777.6290, 108.5117
778.1111, 72.66797
778.5932, 51.74609
779.0753, 26.44531
779.5574, 43.65625
780.0396, 117.3359
780.5217, 130.7070
781.0038, 69.82422
781.4859, 1.667969
781.9680, 55.61328
782.4501, 101.1484
782.9323, 132.2852
783.4144, 145.0117
783.8964, 158.9336
784.3785, 182.7969
784.8607, 190.7930
785.3428, 140.0312
785.8249, 41.06641
786.3070, 7.140625
786.7891, 49.99609
787.2712, 116.7344
787.7534, 175.9023
788.2355, 221.5547
788.7176, 237.4961
789.1997, 209.4297
789.6818, 207.5703
790.1639, 308.6016
790.6461, 410.3203
791.1282, 426.7969
791.6103, 309.5547
792.0924, 242.7188
792.5745, 240.4648
793.0566, 261.8984
793.5388, 264.8008
794.0209, 251.3438
794.5030, 230.9297
794.9851, 203.2656
795.4672, 182.9023
795.9493, 203.6445
796.4315, 229.0547
796.9136, 210.1875
797.3957, 115.5039
797.8778, 49.13281
798.3599, 59.15625
798.8420, 92.60938
799.3242, 109.3867
799.8063, 102.3711
800.2884, 110.1719
800.7705, 140.3398
801.2526, 164.2344
801.7347, 127.8477
802.2169, 60.56250
802.6990, 59.11719
803.1811, 144.5625
803.6632, 236.7422
804.1453, 278.1992
804.6274, 289.9766
805.1096, 292.0938
805.5917, 283.3086
806.0738, 277.2695
806.5559, 270.6680
807.0380, 271.2734
807.5201, 289.5391
808.0023, 329.0078
808.4844, 351.7617
808.9665, 355.5781
809.4486, 345.7812
809.9307, 328.4141
810.4128, 301.4219
810.8950, 258.0781
811.3771, 195.3398
811.8592, 132.6562
812.3413, 55.91406
812.8234, 0.1445310
813.3055, 1.000000
813.7877, 84.10156
814.2698, 151.8633
814.7519, 208.4023
815.2340, 238.2617
815.7161, 208.2305
816.1982, 126.7305
816.6804, 104.5977
817.1625, 151.4805
817.6446, 214.2383
818.1267, 258.8750
818.6088, 284.2539
819.0909, 284.5078
819.5731, 255.0938
820.0552, 226.4688
820.5373, 192.0273
821.0194, 175.2188
821.5015, 193.0508
821.9836, 253.7695
822.4658, 311.8867
822.9479, 374.8477
823.4300, 410.8555
823.9121, 379.8828
824.3942, 301.2500
824.8763, 224.1719
825.3585, 150.8594
825.8406, 118.0117
826.3227, 192.5664
826.8048, 288.6523
827.2869, 339.2500
827.7690, 336.2539
828.2512, 311.8164
828.7333, 272.0117
829.2154, 211.3047
829.6975, 105.2656
830.1796, 44.55859
830.6617, 73.71484
831.1439, 26.21484
831.6260, 129.3359
832.1081, 125.2539
832.5902, 76.86328
833.0723, 86.02344
833.5544, 151.2852
834.0366, 193.2031
834.5187, 151.0391
835.0008, 95.68750
835.4829, 61.13281
835.9650, 46.69922
836.4471, 43.68750
836.9293, 51.58203
837.4114, 67.31250
837.8935, 100.3164
838.3756, 141.6953
838.8577, 141.7930
839.3398, 106.3320
839.8220, 86.05078
840.3041, 143.9492
840.7862, 203.6094
841.2683, 187.0156
841.7504, 109.3750
842.2325, 77.88672
842.7147, 165.6562
843.1968, 233.9141
843.6789, 243.0820
844.1610, 205.0977
844.6431, 172.9180
845.1252, 146.5625
845.6074, 113.9062
846.0895, 50.39844
846.5716, 2.398438
847.0537, 41.05469
847.5358, 146.6875
848.0179, 219.7930
848.5001, 212.5039
848.9822, 173.3242
849.4643, 88.70703
849.9464, 10.83203
850.4285, 52.67188
850.9106, 19.49219
851.3928, 12.86328
851.8749, 24.67578
852.3570, 29.94141
852.8391, 62.29688
853.3212, 111.7031
853.8033, 145.9219
854.2855, 146.5586
854.7676, 139.0625
855.2497, 135.9219
855.7318, 136.6641
856.2139, 141.1680
856.6960, 163.5234
857.1782, 165.9023
857.6603, 132.7500
858.1424, 96.05469
858.6245, 119.1836
859.1066, 195.5508
859.5887, 209.3984
860.0709, 132.8555
860.5530, 37.96875
861.0351, 13.92578
861.5172, 30.52734
861.9993, 13.44141
862.4814, 60.98828
862.9636, 105.4609
863.4457, 65.72266
863.9278, 12.32422
864.4099, 4.351563
864.8920, 21.33203
865.3741, 49.96875
865.8563, 81.50781
866.3384, 111.8867
866.8205, 144.2305
867.3026, 170.3086
867.7847, 166.6914
868.2668, 130.1289
868.7490, 103.8867
869.2311, 126.9453
869.7132, 153.3828
870.1953, 140.7969
870.6774, 81.42578
871.1595, 90.16016
871.6417, 200.8008
872.1238, 287.5195
872.6059, 254.8359
873.0880, 142.5391
873.5701, 91.50000
874.0522, 95.88672
874.5344, 111.4414
875.0165, 118.2656
875.4986, 121.4883
875.9807, 120.6953
876.4628, 118.0664
876.9449, 126.1094
877.4271, 143.6133
877.9092, 177.7656
878.3913, 248.2383
878.8734, 325.9414
879.3555, 295.8203
879.8376, 171.0625
880.3198, 84.91797
880.8019, 115.2852
881.2840, 173.5117
881.7661, 185.3398
882.2482, 162.5703
882.7303, 122.3828
883.2125, 33.07812
883.6946, 20.41797
884.1767, 19.25000
884.6588, 14.23047
885.1409, 48.06641
885.6230, 81.93750
886.1052, 117.2148
886.5873, 150.9961
887.0694, 195.2930
887.5515, 300.6484
888.0336, 407.7969
888.5157, 424.7539
888.9979, 295.7422
889.4800, 191.3711
889.9621, 167.0117
890.4442, 187.5273
890.9263, 240.5781
891.4084, 344.3203
891.8906, 370.0898
892.3727, 307.7773
892.8548, 228.0195
893.3369, 196.1602
893.8190, 187.6914
894.3011, 157.4258
894.7833, 103.6602
895.2654, 53.73047
895.7475, 5.863281
896.2296, 20.30859
896.7117, 0.9609380
897.1938, 57.92188
897.6760, 85.19141
898.1581, 72.72266
898.6402, 60.91016
899.1223, 71.11328
899.6044, 92.94531
900.0865, 101.5430
900.5687, 100.6484
901.0508, 102.8320
901.5329, 114.3867
902.0150, 130.6211
902.4971, 152.6953
902.9792, 177.0039
903.4614, 193.3672
903.9435, 192.7422
904.4256, 210.6797
904.9077, 264.2422
905.3898, 319.7188
905.8719, 301.5156
906.3541, 237.2227
906.8362, 214.5430
907.3183, 260.0352
907.8004, 332.8672
908.2825, 455.6797
908.7646, 568.6211
909.2468, 595.6406
909.7289, 492.6367
910.2110, 399.6016
910.6931, 302.8594
911.1752, 248.2734
911.6573, 316.5195
912.1395, 467.6680
912.6216, 496.3164
913.1037, 398.6211
913.5858, 335.9688
914.0679, 471.1758
914.5500, 644.8633
915.0322, 747.3633
915.5143, 768.6367
915.9964, 765.4688
916.4785, 711.1641
916.9606, 692.6953
917.4427, 756.7148
917.9249, 874.1445
918.4070, 960.6758
918.8891, 1016.637
919.3712, 1048.207
919.8533, 1063.605
920.3354, 1056.820
920.8176, 1007.391
921.2997, 931.2383
921.7818, 858.1250
922.2639, 786.0820
922.7460, 731.2852
923.2281, 701.9609
923.7103, 680.6328
924.1924, 629.7383
924.6745, 559.4648
925.1566, 530.2305
925.6387, 557.7539
926.1208, 594.6602
926.6030, 610.0156
927.0851, 611.2305
927.5672, 605.6328
928.0493, 594.0898
928.5314, 568.2695
929.0135, 512.5938
929.4957, 470.8750
929.9778, 496.1484
930.4599, 567.4961
930.9420, 536.8477
931.4241, 414.4062
931.9063, 312.0195
932.3884, 319.5000
932.8705, 359.5703
933.3526, 392.8086
933.8347, 413.5469
934.3168, 399.8125
934.7990, 318.0078
935.2811, 276.2227
935.7632, 321.2188
936.2453, 398.8008
936.7274, 376.0859
937.2095, 273.2969
937.6917, 174.2031
938.1738, 101.3633
938.6559, 48.25781
939.1380, 2.773438
939.6201, 21.87109
940.1022, 3.062500
940.5844, 106.9297
941.0665, 161.9688
941.5486, 152.0000
942.0307, 117.3906
942.5128, 85.43750
942.9949, 59.08594
943.4771, 63.84375
943.9592, 99.52734
944.4413, 117.0898
944.9234, 58.87109
945.4055, 7.382813
945.8876, 40.17578
946.3698, 36.05078
946.8519, 6.921875
947.3340, 61.75000
947.8161, 122.6484
948.2982, 157.4141
948.7803, 163.3516
949.2625, 135.5312
949.7446, 85.23828
950.2267, 47.21875
950.7088, 36.09766
951.1909, 37.68359
951.6730, 58.88281
952.1552, 87.01172
952.6373, 101.0742
953.1194, 93.73828
953.6015, 94.09375
954.0836, 104.8789
954.5657, 117.3672
955.0479, 111.8047
955.5300, 99.73438
956.0121, 113.6094
956.4942, 158.5547
956.9763, 183.3164
957.4584, 128.5938
957.9406, 77.59766
958.4227, 91.98047
958.9048, 164.8867
959.3869, 181.6836
959.8690, 135.8164
960.3511, 82.43359
960.8333, 37.87500
961.3154, 11.62891
961.7975, 39.49609
962.2796, 97.62891
962.7617, 124.5000
963.2438, 63.74609
963.7260, 9.992188
964.2081, 11.96875
964.6902, 17.47656
965.1723, 29.87109
965.6544, 51.44141
966.1365, 43.92188
966.6187, 0.9921880
967.1008, 57.95312
967.5829, 152.1836
968.0650, 230.5312
968.5471, 206.9492
969.0292, 52.96484
969.5114, 25.51953
969.9935, 76.44141
970.4756, 181.8672
970.9577, 216.8828
971.4398, 192.5625
971.9219, 174.8867
972.4041, 162.5586
972.8862, 142.9961
973.3683, 94.12109
973.8504, 49.88672
974.3325, 26.62109
974.8146, 29.33984
975.2968, 72.77344
975.7789, 238.1406
976.2610, 295.3242
976.7431, 188.5312
977.2252, 34.44531
977.7073, 16.89844
978.1895, 15.92578
978.6716, 75.06250
979.1537, 156.1484
979.6358, 227.1953
980.1179, 275.7969
980.6000, 300.4258
981.0822, 288.4805
981.5642, 239.6133
982.0463, 225.4883
982.5284, 256.8594
983.0106, 281.8945
983.4927, 274.5352
983.9748, 247.0391
984.4569, 206.6016
984.9390, 166.1445
985.4211, 161.4609
985.9033, 267.9961
986.3854, 339.0156
986.8675, 283.3281
987.3496, 195.5820
987.8317, 185.9570
988.3138, 268.3477
988.7960, 314.1523
989.2781, 310.9492
989.7602, 280.3359
990.2423, 218.7109
990.7244, 155.9336
991.2065, 135.5430
991.6887, 161.8281
992.1708, 182.9023
992.6529, 189.2812
993.1350, 185.6172
993.6171, 170.1953
994.0992, 147.4102
994.5814, 128.0664
995.0635, 114.2812
995.5456, 126.4922
996.0277, 207.1367
996.5098, 259.8867
996.9919, 157.3594
997.4741, 1.078125
997.9562, 54.71094
998.4383, 66.23047
998.9204, 155.7188
999.4025, 214.8594
999.8846, 233.1875
1000.367, 172.1250
1000.849, 68.73047
1001.331, 22.41406
1001.813, 35.30078
1002.295, 64.26172
1002.777, 119.0703
1003.259, 150.9453
1003.742, 124.2461
1004.224, 57.96484
1004.706, 1.019531
1005.188, 57.30859
1005.670, 68.26172
1006.152, 5.347656
1006.634, 66.29297
1007.116, 48.25391
1007.599, 10.48047
1008.081, 36.33594
1008.563, 7.261719
1009.045, 44.54688
1009.527, 149.0156
1010.009, 227.5352
1010.491, 199.3594
1010.973, 81.32422
1011.455, 78.69141
1011.938, 179.8477
1012.420, 272.1562
1012.902, 264.5156
1013.384, 241.8086
1013.866, 259.6289
1014.348, 308.1016
1014.830, 354.3320
1015.312, 409.0625
1015.794, 418.4023
1016.277, 360.8477
1016.759, 292.3555
1017.241, 302.3594
1017.723, 354.9102
1018.205, 383.2461
1018.687, 376.8867
1019.169, 339.5234
1019.651, 221.8828
1020.134, 127.6992
1020.616, 119.5508
1021.098, 185.6055
1021.580, 210.5977
1022.062, 194.0430
1022.544, 181.3984
1023.026, 204.7695
1023.508, 225.8203
1023.990, 193.6016
1024.473, 140.3320
1024.955, 116.6250
1025.437, 150.7266
1025.919, 181.5273
1026.401, 212.2227
1026.883, 226.9141
1027.365, 194.0547
1027.847, 136.2500
1028.330, 102.1094
1028.812, 95.23047
1029.294, 108.4375
1029.776, 168.7500
1030.258, 217.4180
1030.740, 216.2578
1031.222, 181.9609
1031.704, 169.5625
1032.187, 182.6992
1032.669, 170.8906
1033.151, 111.8164
1033.633, 49.48828
1034.115, 31.05469
1034.597, 43.33594
1035.079, 74.09375
1035.561, 130.0742
1036.043, 164.1211
1036.526, 152.9258
1037.008, 151.1719
1037.490, 211.6719
1037.972, 306.4570
1038.454, 316.0430
1038.936, 252.3359
1039.418, 174.3516
1039.900, 80.23438
1040.382, 16.43750
1040.865, 29.37500
1041.347, 80.01172
1041.829, 107.7930
1042.311, 110.1445
1042.793, 109.5352
1043.275, 109.7109
1043.757, 96.89453
1044.239, 20.41797
1044.722, 54.09375
1045.204, 26.60938
1045.686, 105.5625
1046.168, 192.4336
1046.650, 189.2305
1047.132, 168.3516
1047.614, 142.5195
1048.096, 120.6953
1048.578, 135.0742
1049.061, 173.4219
1049.543, 188.2148
1050.025, 150.7031
1050.507, 129.4766
1050.989, 190.3242
1051.471, 262.6211
1051.953, 286.6133
1052.435, 259.3633
1052.917, 200.5703
1053.400, 104.6523
1053.882, 49.50000
1054.364, 128.7500
1054.846, 239.9141
1055.328, 245.3320
1055.810, 184.8242
1056.292, 180.5312
1056.774, 319.9961
1057.257, 399.5469
1057.739, 386.4453
1058.221, 339.5000
1058.703, 328.1133
1059.185, 341.5703
1059.667, 349.1445
1060.149, 348.3047
1060.631, 345.6250
1061.114, 344.3906
1061.596, 343.3359
1062.078, 345.7578
1062.560, 347.6602
1063.042, 323.9102
1063.524, 273.7148
1064.006, 264.8789
1064.488, 320.2461
1064.970, 393.2656
1065.453, 472.6836
1065.935, 524.5000
1066.417, 503.3828
1066.899, 369.6523
1067.381, 276.2500
1067.863, 229.7148
1068.345, 213.9688
1068.827, 223.8203
1069.309, 234.8750
1069.792, 201.6797
1070.274, 141.7891
1070.756, 105.4922
1071.238, 118.0000
1071.720, 133.1836
1072.202, 139.9570
1072.684, 145.3984
1073.166, 157.2969
1073.649, 175.5898
1074.131, 196.3203
1074.613, 219.3750
1075.095, 237.2344
1075.577, 250.4922
1076.059, 252.2227
1076.541, 234.2539
1077.023, 200.0781
1077.505, 160.5469
1077.988, 109.0625
1078.470, 90.17969
1078.952, 118.9570
1079.434, 159.2109
1079.916, 166.3711
1080.398, 157.6367
1080.880, 156.5469
1081.362, 167.4180
1081.844, 178.2656
1082.327, 188.3008
1082.809, 195.5742
1083.291, 195.2266
1083.773, 195.1914
1084.255, 228.1094
1084.737, 281.6172
1085.219, 313.6914
1085.701, 303.8125
1086.183, 283.4531
1086.666, 261.4727
1087.148, 237.0508
1087.630, 208.5547
1088.112, 175.7617
1088.594, 149.3320
1089.076, 129.1719
1089.558, 103.8477
1090.040, 43.36719
1090.523, 3.339844
1091.005, 13.11719
1091.487, 70.58594
1091.969, 112.9141
1092.451, 132.3555
1092.933, 156.3594
1093.415, 187.9844
1093.897, 222.3242
1094.380, 267.4648
1094.862, 304.2383
1095.344, 305.8906
1095.826, 270.5352
1096.308, 207.9492
1096.790, 60.21875
1097.272, 14.11719
1097.754, 31.93750
1098.236, 148.3594
1098.719, 278.8984
1099.201, 402.9844
1099.683, 443.6641
1100.165, 367.6367
1100.647, 297.0156
1101.129, 291.6289
1101.611, 306.5547
1102.093, 321.6602
1102.575, 332.4805
1103.058, 329.9180
1103.540, 313.8633
1104.022, 285.6445
1104.504, 237.4297
1104.986, 194.5195
1105.468, 174.8359
1105.950, 171.8320
1106.432, 178.4961
1106.915, 195.2031
1107.397, 222.6289
1107.879, 264.6836
1108.361, 284.4883
1108.843, 234.5430
1109.325, 164.2305
1109.807, 134.9453
1110.289, 134.8516
1110.771, 130.5078
1111.254, 89.58984
1111.736, 95.77734
1112.218, 167.7266
1112.700, 257.3125
1113.182, 327.0820
1113.664, 370.8398
1114.146, 359.1875
1114.628, 297.1172
1115.110, 248.6367
1115.593, 237.8125
1116.075, 250.7773
1116.557, 308.3750
1117.039, 361.1602
1117.521, 283.5508
1118.003, 110.1953
1118.485, 12.94922
1118.967, 25.84766
1119.450, 48.71094
1119.932, 3.046875
1120.414, 31.59375
1120.896, 4.566406
1121.378, 93.18359
1121.860, 132.1094
1122.342, 122.2539
1122.824, 92.62891
1123.307, 44.21094
1123.789, 2.382813
1124.271, 6.023438
1124.753, 17.57812
1125.235, 17.49609
1125.717, 115.8789
1126.199, 121.0430
1126.681, 17.30469
1127.163, 62.44531
1127.646, 4.816406
1128.128, 66.45312
1128.610, 58.63281
1129.092, 272.7070
1129.574, 378.1797
1130.056, 243.2500
1130.538, 161.0078
1131.020, 136.7031
1131.502, 149.3281
1131.985, 208.0938
1132.467, 280.5352
1132.949, 282.1836
1133.431, 234.1328
1133.913, 213.9961
1134.395, 279.6055
1134.877, 334.4258
1135.359, 368.2695
1135.842, 381.5273
1136.324, 366.1445
1136.806, 331.2305
1137.288, 310.6758
1137.770, 305.4453
1138.252, 293.3711
1138.734, 259.7305
1139.216, 221.1914
1139.698, 175.1992
1140.181, 134.8828
1140.663, 128.8320
1141.145, 153.9453
1141.627, 199.7148
1142.109, 267.8555
1142.591, 315.2344
1143.073, 289.9453
1143.555, 256.8125
1144.037, 272.9648
1144.520, 315.7656
1145.002, 266.0703
1145.484, 125.3438
1145.966, 65.73047
1146.448, 157.4180
1146.930, 267.3086
1147.412, 300.1172
1147.894, 280.3164
1148.377, 215.9609
1148.859, 109.3086
1149.341, 42.94141
1149.823, 19.38281
1150.305, 25.50000
1150.787, 64.67578
1151.269, 116.1758
1151.751, 175.8359
1152.234, 225.5742
1152.716, 238.2578
1153.198, 206.6523
1153.680, 142.6250
1154.162, 33.55859
1154.644, 52.11719
1155.126, 63.46875
1155.608, 32.39453
1156.090, 0.8281250
1156.573, 31.06250
1157.055, 62.96484
1157.537, 113.2773
1158.019, 124.5664
1158.501, 76.97266
1158.983, 38.27734
1159.465, 86.52734
1159.947, 171.2422
1160.429, 190.2461
1160.912, 154.0039
1161.394, 108.7227
1161.876, 44.03125
1162.358, 9.468750
1162.840, 6.277344
1163.322, 42.21484
1163.804, 168.6445
1164.286, 332.4180
1164.769, 368.9961
1165.251, 284.7773
1165.733, 209.1875
1166.215, 173.2461
1166.697, 194.0703
1167.179, 304.7070
1167.661, 431.5898
1168.143, 453.5352
1168.625, 395.0469
1169.108, 341.2695
1169.590, 302.8477
1170.072, 279.3008
1170.554, 282.3086
1171.036, 287.7812
1171.518, 290.9805
1172.000, 288.0430
1172.482, 254.6914
1172.964, 203.3242
1173.447, 216.3750
1173.929, 318.1602
1174.411, 384.8867
1174.893, 277.1680
1175.375, 183.8789
1175.857, 227.3320
1176.339, 357.4102
1176.821, 372.2109
1177.304, 287.7031
1177.786, 240.1875
1178.268, 272.5508
1178.750, 309.1172
1179.232, 289.1953
1179.714, 256.2617
1180.196, 242.0703
1180.678, 243.7461
1181.161, 253.1133
1181.643, 269.8906
1182.125, 275.3164
1182.607, 261.1562
1183.089, 238.9336
1183.571, 212.8320
1184.053, 184.2773
1184.535, 152.2891
1185.017, 112.4648
1185.500, 120.3906
1185.982, 170.8828
1186.464, 192.9414
1186.946, 114.9102
1187.428, 46.82812
1187.910, 71.24609
1188.392, 145.5703
1188.874, 230.2461
1189.356, 330.2539
1189.839, 351.5898
1190.321, 290.7617
1190.803, 239.0430
1191.285, 264.8320
1191.767, 302.2695
1192.249, 294.1562
1192.731, 265.0547
1193.213, 250.2109
1193.696, 249.3398
1194.178, 280.3555
1194.660, 347.2461
1195.142, 392.2422
1195.624, 378.0352
1196.106, 326.6992
1196.588, 230.0781
1197.070, 119.4336
1197.552, 48.94922
1198.035, 13.55469
1198.517, 70.55469
1198.999, 233.7227
1199.481, 361.1484
1199.963, 297.9609
1200.445, 192.3711
1200.927, 181.5547
1201.409, 229.8008
1201.891, 232.4102
1202.374, 168.0000
1202.856, 142.1875
1203.338, 165.3867
1203.820, 191.9062
1204.302, 192.2852
1204.784, 169.6836
1205.266, 103.2656
1205.748, 17.36719
1206.231, 10.02734
1206.713, 32.36719
1207.195, 89.69922
1207.677, 160.1172
1208.159, 214.8086
1208.641, 227.3008
1209.123, 212.7070
1209.605, 165.0234
1210.088, 101.0469
1210.570, 91.79688
1211.052, 147.4648
1211.534, 174.8906
1212.016, 154.6367
1212.498, 132.8750
1212.980, 179.6797
1213.462, 238.1055
1213.944, 245.9414
1214.427, 209.3672
1214.909, 198.3047
1215.391, 216.0078
1215.873, 242.1914
1216.355, 276.1680
1216.837, 299.7930
1217.319, 291.7500
1217.801, 267.9648
1218.283, 239.1602
1218.766, 207.1953
1219.248, 176.4844
1219.730, 147.3594
1220.212, 117.0586
1220.694, 82.09766
1221.176, 66.19141
1221.658, 113.2773
1222.140, 172.5430
1222.623, 191.8867
1223.105, 176.6836
1223.587, 184.8320
1224.069, 217.9062
1224.551, 249.3984
1225.033, 277.1172
1225.515, 282.4062
1225.997, 221.3594
1226.479, 151.0938
1226.962, 127.8594
1227.444, 144.2930
1227.926, 140.1172
1228.408, 114.4062
1228.890, 146.0977
1229.372, 280.3906
1229.854, 377.4805
1230.336, 262.2617
1230.818, 107.6172
1231.301, 58.19141
1231.783, 101.6602
1232.265, 156.3789
1232.747, 221.8984
1233.229, 291.3359
1233.711, 373.7812
1234.193, 418.2383
1234.675, 354.6172
1235.158, 265.1836
1235.640, 217.6445
1236.122, 202.4375
1236.604, 143.1719
1237.086, 47.89844
1237.568, 12.40234
1238.050, 8.691406
1238.532, 14.76172
1239.015, 57.91797
1239.497, 83.80859
1239.979, 62.68359
1240.461, 7.347656
1240.943, 15.00391
1241.425, 8.292969
1241.907, 3.214844
1242.389, 13.67969
1242.871, 21.81250
1243.354, 34.16406
1243.836, 31.43750
1244.318, 9.324219
1244.800, 67.27734
1245.282, 21.13672
1245.764, 101.3242
1246.246, 187.9023
1246.728, 197.0586
1247.210, 188.9219
1247.693, 147.4453
1248.175, 140.6406
1248.657, 216.8594
1249.139, 344.4102
1249.621, 440.4805
1250.103, 496.8555
1250.585, 481.2227
1251.067, 340.9766
1251.550, 265.0977
1252.032, 329.6602
1252.514, 403.0898
1252.996, 424.7070
1253.478, 405.3047
1253.960, 350.1172
1254.442, 279.4570
1254.924, 238.9258
1255.406, 256.7656
1255.889, 254.4258
1256.371, 208.6719
1256.853, 184.2305
1257.335, 231.4023
1257.817, 297.7617
1258.299, 265.3008
1258.781, 192.8594
1259.263, 186.5938
1259.745, 321.1641
1260.228, 367.2852
1260.710, 293.4219
1261.192, 205.9727
1261.674, 170.6523
1262.156, 161.9375
1262.638, 121.6680
1263.120, 79.61719
1263.602, 169.1445
1264.085, 421.5586
1264.567, 490.4883
1265.049, 354.5273
1265.531, 231.0039
1266.013, 241.4180
1266.495, 266.9844
1266.977, 149.3242
1267.459, 3.535156
1267.942, 18.67188
1268.424, 88.43750
1268.906, 163.7578
1269.388, 208.1016
1269.870, 218.7500
1270.352, 183.6602
1270.834, 138.6211
1271.316, 90.89062
1271.798, 62.49219
1272.281, 74.52734
1272.763, 121.8320
1273.245, 181.8125
1273.727, 245.8008
1274.209, 244.9297
1274.691, 106.3555
1275.173, 15.50391
1275.655, 87.09375
1276.137, 158.2109
1276.620, 113.0430
1277.102, 3.933594
1277.584, 11.62500
1278.066, 122.5586
1278.548, 190.3281
1279.030, 150.8867
1279.512, 102.1523
1279.994, 33.24609
1280.476, 0.0000000E+00
##END=



