##NAMES=Anilite
##RRUFFID=R060688
##IDEAL CHEMISTRY=Cu_7_S_4_
##LOCALITY=Horai Halze bei Medenec, Erzgebirge, Czech Republic
##OWNER=RRUFF
##SOURCE=Michael Scott
##DESCRIPTION=Black metallic massive; associated with malachite
##STATUS=The identification of this mineral has been confirmed by X-ray diffraction and chemical analysis
##URL=rruff.info/R060688
##MEASURED CHEMISTRY=Cu_6.96_S_4.00
145.1511, 0.0000000E+00
145.6333, 10.68213
146.1154, 31.69324
146.5975, 57.25732
147.0796, 84.16064
147.5617, 111.5432
148.0438, 137.1902
148.5260, 146.0723
149.0081, 124.7227
149.4902, 104.3193
149.9723, 96.65967
150.4544, 97.62354
150.9365, 100.0328
151.4187, 91.18420
151.9008, 76.82996
152.3829, 65.00513
152.8650, 50.26270
153.3471, 38.43982
153.8292, 33.30408
154.3114, 32.89441
154.7935, 30.09070
155.2756, 18.86365
155.7577, 1.049194
156.2398, 7.799561
156.7219, 0.2602540
157.2041, 9.482300
157.6862, 9.850708
158.1683, 2.504761
158.6504, 4.485840
159.1325, 5.992432
159.6146, 1.896118
160.0968, 3.755493
160.5789, 15.49658
161.0610, 25.19604
161.5431, 23.89514
162.0252, 12.53772
162.5073, 4.456787
162.9895, 10.47693
163.4716, 29.35840
163.9537, 45.15356
164.4358, 56.83215
164.9179, 65.94653
165.4000, 73.41589
165.8822, 79.26953
166.3643, 84.19836
166.8464, 89.85938
167.3285, 97.09229
167.8106, 98.74768
168.2927, 87.26697
168.7749, 76.52771
169.2570, 70.46680
169.7391, 71.84033
170.2212, 74.29553
170.7033, 72.27808
171.1854, 67.18616
171.6676, 64.03833
172.1497, 67.99280
172.6318, 71.99805
173.1139, 66.58447
173.5960, 50.29004
174.0781, 33.57922
174.5603, 24.00281
175.0424, 20.17798
175.5245, 18.87659
176.0066, 22.30188
176.4887, 26.65942
176.9708, 26.31189
177.4530, 20.25122
177.9351, 14.12708
178.4172, 13.35828
178.8993, 15.76819
179.3814, 16.27771
179.8635, 11.38110
180.3457, 4.764526
180.8278, 0.8959960
181.3099, 0.2800290
181.7920, 1.975708
182.2741, 11.83728
182.7562, 25.63672
183.2384, 36.24280
183.7205, 41.45850
184.2026, 42.33752
184.6847, 39.09192
185.1668, 30.43958
185.6489, 22.61023
186.1311, 21.20642
186.6132, 23.70129
187.0953, 25.94568
187.5774, 29.40784
188.0595, 30.92444
188.5416, 22.70251
189.0238, 1.062988
189.5059, 17.02820
189.9880, 14.56104
190.4701, 1.110474
190.9522, 7.297363
191.4343, 0.2824710
191.9165, 12.37329
192.3986, 14.78772
192.8807, 5.126831
193.3628, 8.135132
193.8449, 25.82617
194.3270, 43.06433
194.8092, 50.20581
195.2913, 36.73242
195.7734, 15.36206
196.2555, 6.958984
196.7376, 14.16150
197.2197, 23.83984
197.7019, 29.51221
198.1840, 32.36865
198.6661, 33.45044
199.1482, 32.02502
199.6303, 29.70679
200.1124, 28.46277
200.5946, 28.08508
201.0767, 29.64258
201.5588, 37.78845
202.0409, 47.51855
202.5230, 51.60559
203.0051, 45.52893
203.4873, 34.89111
203.9694, 25.78259
204.4515, 17.98499
204.9336, 12.87170
205.4157, 12.70972
205.8978, 15.38452
206.3800, 18.58521
206.8621, 22.56641
207.3442, 25.96729
207.8263, 26.73889
208.3084, 24.58179
208.7905, 22.10303
209.2727, 21.21313
209.7548, 20.50903
210.2369, 17.86169
210.7190, 11.71033
211.2011, 5.217407
211.6832, 2.030762
212.1654, 2.351074
212.6475, 3.441772
213.1296, 4.596924
213.6117, 5.657349
214.0938, 5.711670
214.5760, 4.328369
215.0581, 4.192505
215.5402, 10.15979
216.0223, 22.29980
216.5044, 30.56897
216.9865, 30.06433
217.4687, 24.32910
217.9508, 17.01709
218.4329, 6.890503
218.9150, 1.062622
219.3971, 1.184448
219.8792, 5.946045
220.3614, 11.91785
220.8435, 13.64868
221.3256, 12.79504
221.8077, 11.44287
222.2898, 9.109131
222.7719, 8.147827
223.2541, 10.63489
223.7362, 16.14124
224.2183, 22.49487
224.7004, 30.26868
225.1825, 37.14075
225.6646, 39.65210
226.1468, 37.00818
226.6289, 34.74036
227.1110, 37.02747
227.5931, 42.41711
228.0752, 45.62036
228.5573, 44.45605
229.0395, 41.85437
229.5216, 42.97107
230.0037, 48.62415
230.4858, 49.86353
230.9679, 37.45508
231.4500, 17.97205
231.9322, 6.912964
232.4143, 9.267334
232.8964, 16.48572
233.3785, 18.36841
233.8606, 15.25806
234.3427, 13.35107
234.8249, 14.08081
235.3070, 17.38489
235.7891, 24.82788
236.2712, 37.93896
236.7533, 49.46106
237.2354, 49.23999
237.7176, 38.42786
238.1997, 30.78870
238.6818, 30.57495
239.1639, 34.02612
239.6460, 37.27271
240.1281, 39.84277
240.6103, 42.09314
241.0924, 44.72876
241.5745, 47.57495
242.0566, 48.33801
242.5387, 45.63977
243.0208, 41.63025
243.5030, 37.35107
243.9851, 33.04895
244.4672, 30.17676
244.9493, 30.19690
245.4314, 32.96680
245.9135, 34.95703
246.3957, 34.56104
246.8778, 34.82349
247.3599, 38.10742
247.8420, 44.30981
248.3241, 49.02942
248.8062, 48.08069
249.2884, 42.70032
249.7705, 40.47864
250.2526, 46.56702
250.7347, 51.23914
251.2168, 49.14355
251.6989, 42.18604
252.1811, 34.77002
252.6632, 28.77527
253.1453, 24.43872
253.6274, 22.81860
254.1095, 26.11560
254.5916, 29.04187
255.0738, 30.03845
255.5559, 30.23792
256.0380, 31.37573
256.5201, 34.15796
257.0022, 37.79919
257.4843, 40.67065
257.9665, 42.40527
258.4486, 43.80212
258.9307, 43.96106
259.4128, 44.26306
259.8949, 47.87622
260.3770, 55.16846
260.8592, 61.01489
261.3413, 56.58960
261.8234, 32.44006
262.3055, 17.80188
262.7876, 16.70117
263.2697, 21.56384
263.7519, 30.29224
264.2340, 40.90979
264.7161, 48.69263
265.1982, 47.79553
265.6803, 35.69458
266.1624, 26.71191
266.6446, 21.05115
267.1267, 17.80664
267.6088, 17.44714
268.0909, 19.31885
268.5730, 21.98657
269.0551, 24.35327
269.5373, 26.42419
270.0194, 28.53198
270.5015, 33.48474
270.9836, 35.50525
271.4657, 29.47583
271.9478, 19.96375
272.4300, 15.27148
272.9121, 21.09424
273.3942, 34.15759
273.8763, 41.24976
274.3584, 39.29761
274.8405, 35.40149
275.3227, 28.30530
275.8048, 21.49121
276.2869, 18.76599
276.7690, 21.81091
277.2511, 28.93689
277.7332, 38.63770
278.2154, 54.19421
278.6975, 62.46143
279.1796, 55.41235
279.6617, 43.43762
280.1438, 32.69458
280.6259, 24.55725
281.1081, 19.77686
281.5902, 20.59546
282.0723, 27.54175
282.5544, 32.23547
283.0365, 31.07874
283.5186, 29.51819
284.0008, 32.01001
284.4829, 37.76648
284.9650, 42.11414
285.4471, 43.01953
285.9292, 40.63562
286.4113, 31.98987
286.8935, 11.57812
287.3756, 5.821289
287.8577, 6.882080
288.3398, 4.344360
288.8219, 14.97888
289.3040, 20.24866
289.7862, 21.73145
290.2683, 21.39453
290.7504, 19.01660
291.2325, 16.45776
291.7146, 14.52002
292.1967, 13.39734
292.6789, 13.59265
293.1610, 16.87109
293.6431, 20.08423
294.1252, 20.24756
294.6073, 17.73975
295.0894, 15.14807
295.5716, 13.18591
296.0537, 12.43408
296.5358, 14.50684
297.0179, 22.13086
297.5000, 27.88367
297.9821, 26.57935
298.4643, 21.60754
298.9464, 19.77856
299.4285, 23.58923
299.9106, 30.63464
300.3927, 37.04370
300.8748, 44.53613
301.3570, 47.78967
301.8391, 40.96423
302.3212, 31.14355
302.8033, 26.38635
303.2854, 27.85461
303.7675, 30.65051
304.2497, 29.00366
304.7318, 21.15747
305.2139, 17.26807
305.6960, 21.81042
306.1781, 26.02405
306.6602, 21.75452
307.1424, 11.77563
307.6245, 7.596436
308.1066, 19.04004
308.5887, 44.42236
309.0708, 56.11914
309.5529, 33.59583
310.0351, 19.20764
310.5172, 29.25574
310.9993, 49.91577
311.4814, 61.12000
311.9635, 52.82751
312.4456, 33.26245
312.9278, 21.38171
313.4099, 18.67737
313.8920, 20.42371
314.3741, 30.14417
314.8562, 40.78345
315.3383, 47.77856
315.8205, 49.88074
316.3026, 47.02856
316.7847, 37.08923
317.2668, 18.86292
317.7489, 4.483276
318.2310, 5.348633
318.7132, 10.22949
319.1953, 8.538574
319.6774, 1.321899
320.1595, 7.013062
320.6416, 14.37512
321.1237, 20.78149
321.6059, 25.95203
322.0880, 29.54688
322.5701, 32.68225
323.0522, 37.13416
323.5343, 41.34253
324.0164, 41.85413
324.4986, 34.50525
324.9807, 25.88879
325.4628, 24.17480
325.9449, 29.10229
326.4270, 33.40710
326.9091, 33.94421
327.3913, 31.53455
327.8734, 28.09326
328.3555, 22.20520
328.8376, 18.25757
329.3197, 19.98413
329.8018, 24.81409
330.2840, 27.54126
330.7661, 26.49487
331.2482, 23.67163
331.7303, 21.56348
332.2124, 19.96362
332.6945, 20.33472
333.1767, 22.33752
333.6588, 26.21802
334.1409, 36.17847
334.6230, 50.61499
335.1051, 58.83350
335.5873, 50.19214
336.0694, 23.69666
336.5515, 6.464111
337.0336, 2.457764
337.5157, 1.894409
337.9979, 3.486938
338.4800, 6.175171
338.9621, 9.216309
339.4442, 12.39343
339.9263, 14.57812
340.4084, 11.77380
340.8906, 2.509827
341.3727, 10.73456
341.8548, 10.21063
342.3369, 4.358948
342.8190, 6.127563
343.3011, 20.47485
343.7833, 34.17517
344.2654, 40.41296
344.7475, 38.34595
345.2296, 37.21594
345.7117, 39.55597
346.1938, 41.36261
346.6760, 39.34375
347.1581, 34.53857
347.6402, 30.52502
348.1223, 30.57306
348.6044, 32.64276
349.0865, 30.39801
349.5687, 21.88489
350.0508, 15.90710
350.5329, 20.11420
351.0150, 29.26459
351.4971, 35.28967
351.9792, 35.51825
352.4614, 34.48541
352.9435, 37.72186
353.4256, 43.41498
353.9077, 42.36340
354.3898, 29.30139
354.8719, 11.55194
355.3541, 1.586060
355.8362, 0.3394780
356.3183, 0.7164310
356.8004, 8.023315
357.2825, 15.57507
357.7646, 14.14325
358.2468, 3.234680
358.7289, 6.151550
359.2110, 2.812805
359.6931, 14.75031
360.1752, 25.63800
360.6573, 28.49585
361.1395, 27.27405
361.6216, 21.09656
362.1037, 12.23737
362.5858, 3.954590
363.0679, 2.204102
363.5500, 5.518982
364.0322, 3.334045
364.5143, 10.12518
364.9964, 19.75433
365.4785, 23.48895
365.9606, 24.14148
366.4427, 22.80530
366.9249, 20.65216
367.4070, 19.74316
367.8891, 24.91742
368.3712, 37.11267
368.8533, 38.87408
369.3354, 19.04089
369.8176, 1.375427
370.2997, 0.5979000
370.7818, 8.832825
371.2639, 19.00531
371.7460, 25.09479
372.2281, 28.79742
372.7103, 34.13110
373.1924, 41.77686
373.6745, 44.51569
374.1566, 34.69958
374.6387, 20.28455
375.1208, 15.68958
375.6030, 25.96558
376.0851, 34.06873
376.5672, 29.54889
377.0493, 17.09662
377.5314, 5.667725
378.0135, 3.437561
378.4957, 7.858948
378.9778, 2.954285
379.4599, 14.45587
379.9420, 24.35516
380.4241, 20.06354
380.9063, 13.62805
381.3884, 13.11951
381.8705, 17.54108
382.3526, 21.54480
382.8347, 21.52112
383.3168, 18.41797
383.7990, 17.24896
384.2811, 20.04614
384.7632, 22.39124
385.2453, 24.45343
385.7274, 25.59985
386.2095, 23.87036
386.6917, 19.22791
387.1738, 15.86365
387.6559, 21.97003
388.1380, 40.81757
388.6201, 47.57446
389.1022, 29.56842
389.5844, 10.91766
390.0665, 1.234619
390.5486, 1.3855000E-02
391.0307, 5.138733
391.5128, 20.57092
391.9949, 38.39819
392.4771, 41.36157
392.9592, 27.27594
393.4413, 14.01062
393.9234, 8.544250
394.4055, 9.438477
394.8876, 14.08014
395.3698, 23.79565
395.8519, 33.35492
396.3340, 41.30072
396.8161, 47.09912
397.2982, 48.24408
397.7803, 43.85107
398.2625, 38.47729
398.7446, 37.48969
399.2267, 42.29767
399.7088, 39.48059
400.1909, 19.81689
400.6730, 2.285400
401.1552, 3.450867
401.6373, 0.6051030
402.1194, 8.860107
402.6015, 18.62451
403.0836, 28.39819
403.5657, 33.04419
404.0479, 28.85760
404.5300, 25.42450
405.0121, 24.12543
405.4942, 23.35065
405.9763, 20.95123
406.4584, 17.12537
406.9406, 15.04779
407.4227, 19.60760
407.9048, 30.33893
408.3869, 35.68567
408.8690, 32.34088
409.3511, 29.00250
409.8333, 32.14551
410.3154, 37.98297
410.7975, 39.76697
411.2796, 34.25635
411.7617, 25.72815
412.2438, 16.58167
412.7260, 7.410461
413.2081, 2.787476
413.6902, 5.217957
414.1723, 11.68073
414.6544, 18.44189
415.1365, 26.05481
415.6187, 30.13928
416.1008, 25.20441
416.5829, 18.89465
417.0650, 21.19012
417.5471, 31.53900
418.0292, 40.31262
418.5114, 40.46582
418.9935, 32.99054
419.4756, 27.00507
419.9577, 18.85327
420.4398, 16.66406
420.9219, 31.10132
421.4041, 47.26172
421.8862, 45.14661
422.3683, 20.89966
422.8504, 5.726196
423.3325, 4.792114
423.8146, 28.48553
424.2968, 49.93903
424.7789, 54.74036
425.2610, 50.51569
425.7431, 35.04065
426.2252, 14.13062
426.7073, 1.372559
427.1895, 5.921875
427.6716, 17.73163
428.1537, 24.34607
428.6358, 26.27203
429.1179, 25.95300
429.6000, 23.62195
430.0822, 20.25494
430.5643, 17.05200
431.0464, 13.50305
431.5285, 12.07007
432.0106, 17.23914
432.4927, 22.63129
432.9749, 18.75842
433.4570, 6.182678
433.9391, 3.476807
434.4212, 3.0823000E-02
434.9033, 15.08789
435.3854, 21.93054
435.8676, 9.448975
436.3497, 1.299683
436.8318, 6.056091
437.3139, 15.84479
437.7960, 21.44672
438.2781, 20.23993
438.7603, 15.61816
439.2424, 10.92432
439.7245, 5.849304
440.2066, 4.079651
440.6887, 7.656189
441.1708, 12.39404
441.6530, 17.87427
442.1351, 22.73975
442.6172, 23.73566
443.0993, 17.81769
443.5814, 9.596252
444.0635, 3.388184
444.5457, 0.6696170
445.0278, 0.5224610
445.5099, 6.045532
445.9920, 15.20862
446.4741, 19.79248
446.9562, 19.40985
447.4384, 19.71356
447.9205, 22.02966
448.4026, 24.96490
448.8847, 27.93176
449.3668, 30.57013
449.8489, 32.32611
450.3311, 32.97961
450.8132, 32.41962
451.2953, 29.98816
451.7774, 24.57977
452.2595, 18.71722
452.7416, 11.20673
453.2238, 4.344788
453.7059, 1.195923
454.1880, 4.680725
454.6701, 3.588379
455.1522, 8.496948
455.6343, 29.56799
456.1165, 39.83441
456.5986, 35.93915
457.0807, 27.93298
457.5628, 18.37982
458.0449, 9.018555
458.5270, 2.534424
459.0092, 0.9079590
459.4913, 0.7636720
459.9734, 6.067017
460.4555, 16.07373
460.9376, 19.91321
461.4197, 14.71924
461.9019, 7.678101
462.3840, 7.523682
462.8661, 15.66357
463.3482, 20.85168
463.8303, 21.52234
464.3124, 21.48792
464.7946, 22.00903
465.2767, 23.11304
465.7588, 25.18164
466.2409, 28.46411
466.7230, 31.10437
467.2051, 28.98950
467.6873, 20.43726
468.1694, 13.04089
468.6515, 5.926392
469.1336, 1.689453
469.6157, 3.818604
470.0978, 10.41138
470.5800, 14.86389
471.0621, 11.49329
471.5442, 5.891602
472.0263, 7.342407
472.5084, 1.655273
472.9905, 18.71313
473.4727, 28.30884
473.9548, 30.84485
474.4369, 5.176758
474.9190, 15.93323
475.4011, 12.09375
475.8832, 7.655029
476.3654, 23.53833
476.8475, 1.973511
477.3296, 17.53467
477.8117, 18.27563
478.2938, 26.31274
478.7759, 19.15588
479.2581, 16.53357
479.7402, 28.60535
480.2223, 32.54211
480.7044, 23.25476
481.1865, 30.83887
481.6686, 8.769531
482.1508, 13.05444
482.6329, 28.71021
483.1150, 20.60303
483.5971, 28.83582
484.0792, 30.84473
484.5613, 4.519043
485.0435, 27.41919
485.5256, 29.06213
486.0077, 8.866577
486.4898, 30.09546
486.9719, 23.19226
487.4540, 28.93701
487.9362, 32.96191
488.4183, 33.93286
488.9004, 27.24487
489.3825, 13.50598
489.8646, 2.934204
490.3467, 5.471313
490.8289, 20.16077
491.3110, 27.28687
491.7931, 18.10498
492.2752, 11.52271
492.7573, 12.60742
493.2394, 15.87549
493.7216, 14.75366
494.2037, 8.326660
494.6858, 2.121460
495.1679, 2.160400
495.6500, 7.872803
496.1321, 16.71045
496.6143, 31.26111
497.0964, 41.39001
497.5785, 36.52307
498.0606, 23.76758
498.5427, 18.40088
499.0248, 25.87720
499.5070, 33.47766
499.9891, 35.74915
500.4712, 33.98193
500.9533, 29.47290
501.4355, 22.66394
501.9176, 14.70691
502.3997, 5.972290
502.8818, 3.632935
503.3639, 6.426514
503.8460, 4.478149
504.3282, 14.35925
504.8103, 21.78442
505.2924, 26.09485
505.7745, 25.18738
506.2566, 18.86450
506.7387, 12.86304
507.2209, 14.63184
507.7030, 22.88281
508.1851, 26.74316
508.6672, 23.46448
509.1493, 21.86963
509.6314, 29.93628
510.1136, 42.19983
510.5957, 48.20642
511.0778, 45.48755
511.5599, 40.31836
512.0420, 30.38867
512.5241, 19.95679
513.0062, 17.74707
513.4883, 24.50232
513.9705, 31.74683
514.4526, 30.69739
514.9347, 21.40088
515.4168, 16.57434
515.8989, 19.93176
516.3810, 22.21423
516.8632, 21.06677
517.3453, 18.69482
517.8274, 17.65271
518.3095, 18.35852
518.7916, 17.83337
519.2737, 10.05322
519.7559, 1.875977
520.2380, 2.799561
520.7201, 10.79187
521.2022, 23.99341
521.6843, 28.32397
522.1664, 25.31848
522.6486, 20.33508
523.1307, 9.354492
523.6128, 3.476074
524.0949, 11.45142
524.5770, 23.59399
525.0591, 27.99170
525.5413, 23.78406
526.0234, 18.72266
526.5055, 19.54004
526.9876, 25.32458
527.4697, 28.28613
527.9518, 26.11267
528.4340, 24.99854
528.9161, 29.43237
529.3982, 33.14880
529.8803, 28.76318
530.3624, 16.16467
530.8445, 5.674072
531.3267, 5.445435
531.8088, 11.67566
532.2909, 17.35315
532.7730, 22.23535
533.2551, 26.27954
533.7372, 30.47498
534.2194, 32.81519
534.7015, 26.93335
535.1836, 4.588745
535.6657, 7.488892
536.1478, 0.6949460
536.6299, 14.22253
537.1121, 23.24011
537.5942, 27.31763
538.0763, 29.74792
538.5584, 32.91309
539.0405, 35.67529
539.5226, 35.29407
540.0048, 30.38818
540.4869, 28.53088
540.9690, 32.82764
541.4511, 39.14636
541.9332, 45.88086
542.4153, 52.38171
542.8975, 55.20544
543.3796, 50.34619
543.8617, 43.55090
544.3438, 39.31750
544.8259, 37.52002
545.3080, 37.85046
545.7902, 40.38794
546.2723, 43.44812
546.7544, 44.36548
547.2365, 42.21887
547.7186, 41.47205
548.2007, 43.13501
548.6829, 44.96606
549.1650, 49.67798
549.6471, 52.93811
550.1292, 46.06421
550.6113, 25.05542
551.0934, 3.336792
551.5756, 2.641357
552.0577, 5.298706
552.5398, 15.46558
553.0219, 28.10193
553.5040, 37.75879
553.9861, 39.80237
554.4683, 35.47791
554.9504, 32.09021
555.4325, 28.64746
555.9146, 27.45776
556.3967, 32.47192
556.8788, 38.35303
557.3610, 36.78796
557.8431, 28.05090
558.3252, 22.11560
558.8073, 28.93933
559.2894, 45.73596
559.7715, 53.58643
560.2537, 48.74402
560.7358, 43.04211
561.2179, 37.82031
561.7000, 34.70398
562.1821, 35.33752
562.6642, 39.64197
563.1464, 43.17444
563.6285, 44.55591
564.1106, 43.56116
564.5927, 39.74756
565.0748, 33.22278
565.5569, 23.48303
566.0391, 9.407104
566.5212, 4.297729
567.0033, 7.991943
567.4854, 5.375977
567.9675, 10.14490
568.4496, 4.993286
568.9318, 16.05988
569.4139, 8.670654
569.8960, 9.411377
570.3781, 24.39685
570.8602, 31.05322
571.3423, 30.65088
571.8245, 20.78198
572.3066, 3.868408
572.7887, 6.603516
573.2708, 8.426636
573.7529, 4.346802
574.2350, 5.658691
574.7172, 20.23755
575.1993, 30.66638
575.6814, 36.29626
576.1635, 38.92212
576.6456, 37.03394
577.1277, 33.54663
577.6099, 16.01835
578.0920, 35.61228
578.5741, 46.50491
579.0562, 49.16385
579.5383, 18.92824
580.0204, 31.16914
580.5026, 26.38730
580.9847, 20.90754
581.4668, 39.12678
581.9489, 13.67562
582.4310, 31.51904
582.9132, 32.08001
583.3953, 40.55075
583.8774, 31.89375
584.3596, 28.52687
584.8417, 42.29336
585.3238, 46.57299
585.8059, 35.94427
586.2880, 44.91780
586.7701, 18.86836
587.2523, 23.55199
587.7344, 41.49570
588.2165, 26.59875
588.6986, 29.17261
589.1807, 31.03955
589.6628, 32.68945
590.1450, 32.54858
590.6271, 26.59558
591.1092, 12.75085
591.5913, 3.566162
592.0734, 13.14246
592.5555, 30.29260
593.0377, 36.19409
593.5198, 29.48621
594.0019, 19.98218
594.4840, 11.78198
594.9661, 5.124878
595.4482, 0.5910640
595.9304, 4.427734
596.4125, 2.444214
596.8946, 14.98303
597.3767, 30.63635
597.8588, 32.60925
598.3409, 25.67371
598.8231, 22.03357
599.3052, 27.84827
599.7873, 36.66125
600.2694, 40.84546
600.7515, 41.43152
601.2336, 44.05908
601.7158, 50.46558
602.1979, 53.71924
602.6800, 45.91907
603.1621, 29.11023
603.6442, 22.94043
604.1263, 37.27576
604.6085, 48.20630
605.0906, 51.56616
605.5727, 50.57092
606.0548, 46.30603
606.5369, 40.10217
607.0190, 35.29785
607.5012, 35.15955
607.9833, 36.88135
608.4654, 34.17639
608.9475, 26.98755
609.4296, 18.06909
609.9117, 6.600098
610.3939, 1.268188
610.8760, 3.591553
611.3581, 22.17871
611.8402, 33.53796
612.3223, 32.12097
612.8044, 29.20325
613.2866, 29.61267
613.7687, 30.73425
614.2508, 27.05896
614.7329, 18.49707
615.2150, 13.17920
615.6971, 21.60754
616.1793, 39.76917
616.6614, 47.49390
617.1435, 43.05286
617.6256, 36.52808
618.1077, 30.73462
618.5898, 25.33179
619.0720, 18.46655
619.5541, 9.351685
620.0362, 7.164917
620.5183, 19.99646
621.0004, 34.81165
621.4825, 41.68420
621.9647, 42.20020
622.4468, 41.82336
622.9289, 42.19055
623.4110, 43.04810
623.8931, 45.45361
624.3752, 48.80408
624.8574, 44.04333
625.3395, 27.73328
625.8216, 15.19055
626.3037, 15.46790
626.7858, 21.53247
627.2679, 24.07837
627.7501, 22.54272
628.2322, 20.32629
628.7143, 17.87122
629.1964, 15.64343
629.6785, 13.11511
630.1606, 11.18811
630.6428, 12.46289
631.1249, 18.56799
631.6070, 24.97083
632.0891, 22.50256
632.5712, 9.932739
633.0533, 4.552368
633.5355, 10.09253
634.0176, 15.63318
634.4997, 14.01831
634.9818, 9.665771
635.4639, 9.828613
635.9460, 16.19263
636.4282, 22.16138
636.9103, 26.43457
637.3924, 28.73010
637.8745, 27.90417
638.3566, 24.85583
638.8387, 21.55286
639.3209, 18.88159
639.8030, 17.63550
640.2851, 20.01013
640.7672, 10.56180
641.2493, 30.20916
641.7314, 41.15527
642.2136, 43.86760
642.6957, 13.68549
643.1778, 25.97981
643.6599, 21.25149
644.1420, 15.82515
644.6241, 34.09788
645.1063, 8.700118
645.5884, 26.59702
646.0705, 27.21148
646.5526, 35.73568
647.0347, 27.13210
647.5168, 23.81878
647.9990, 37.63863
648.4811, 41.97174
648.9632, 31.39648
649.4453, 40.42347
649.9274, 14.42745
650.4095, 19.16463
650.8917, 37.16171
651.3738, 27.44766
651.8559, 36.78780
652.3380, 38.87104
652.8201, 7.974729
653.3022, 34.43320
653.7844, 20.85876
654.2665, 21.02954
654.7486, 20.52954
655.2307, 21.28198
655.7128, 24.26624
656.1949, 26.89368
656.6771, 23.99182
657.1592, 15.43445
657.6413, 10.01160
658.1234, 7.702393
658.6055, 10.41260
659.0876, 24.10938
659.5698, 41.97388
660.0519, 47.03381
660.5340, 33.67737
661.0161, 22.66760
661.4982, 19.41626
661.9803, 18.95032
662.4625, 17.62524
662.9446, 16.05176
663.4267, 17.00671
663.9088, 21.80212
664.3909, 27.06238
664.8730, 28.47693
665.3552, 26.17224
665.8373, 20.37500
666.3194, 10.03650
666.8015, 0.8602290
667.2836, 5.344116
667.7657, 7.499268
668.2479, 1.832764
668.7300, 16.62146
669.2121, 29.17737
669.6942, 31.95471
670.1763, 30.78259
670.6584, 26.95911
671.1406, 22.91516
671.6227, 22.68481
672.1048, 27.69800
672.5869, 33.87878
673.0690, 37.54211
673.5511, 38.80103
674.0333, 37.02258
674.5154, 32.01355
674.9975, 28.68030
675.4796, 29.85657
675.9617, 33.29517
676.4438, 35.66565
676.9260, 39.56848
677.4081, 33.72693
677.8902, 2.259033
678.3723, 20.26538
678.8544, 16.93823
679.3365, 1.031494
679.8187, 22.16772
680.3008, 43.10339
680.7829, 55.06567
681.2650, 43.32458
681.7471, 22.24207
682.2292, 18.79358
682.7114, 30.55103
683.1935, 36.47034
683.6756, 27.87915
684.1577, 13.96606
684.6398, 7.531250
685.1219, 9.446899
685.6041, 10.96997
686.0862, 11.40063
686.5683, 12.43896
687.0504, 13.30115
687.5325, 15.69849
688.0146, 23.47156
688.4968, 36.20911
688.9789, 45.40332
689.4610, 41.37024
689.9431, 32.54846
690.4252, 30.20398
690.9073, 32.05103
691.3895, 33.17957
691.8716, 32.10315
692.3537, 28.20825
692.8358, 19.48291
693.3179, 7.678833
693.8000, 6.744995
694.2822, 21.47681
694.7643, 32.31812
695.2464, 34.03748
695.7285, 30.68347
696.2106, 6.600685
696.6927, 26.28712
697.1749, 37.27225
697.6570, 40.02374
698.1391, 9.880684
698.6212, 22.21409
699.1033, 17.52488
699.5854, 12.13763
700.0676, 30.44937
700.5497, 5.090771
701.0318, 23.02673
701.5139, 23.68028
701.9960, 32.24358
702.4781, 23.67909
702.9603, 20.40478
703.4424, 34.26380
703.9245, 5.787476
704.4066, 6.730957
704.8887, 19.20789
705.3708, 28.13489
705.8530, 33.46790
706.3351, 35.32971
706.8172, 29.80591
707.2993, 24.46838
707.7814, 25.25159
708.2635, 29.64368
708.7457, 31.71716
709.2278, 29.17102
709.7099, 24.72302
710.1920, 20.36060
710.6741, 16.00024
711.1563, 10.94531
711.6384, 5.421997
712.1205, 1.440552
712.6026, 0.8574220
713.0847, 0.5090330
713.5668, 4.254761
714.0490, 14.63892
714.5311, 23.52222
715.0132, 31.56689
715.4953, 36.95679
715.9774, 39.50500
716.4595, 38.89844
716.9417, 32.79419
717.4238, 20.51306
717.9059, 12.94434
718.3880, 17.65283
718.8701, 24.76477
719.3522, 28.40271
719.8344, 28.80188
720.3165, 26.19446
720.7986, 21.06335
721.2807, 15.89648
721.7628, 13.05273
722.2449, 12.08252
722.7271, 11.13232
723.2092, 10.05957
723.6913, 10.98486
724.1734, 14.95752
724.6555, 20.10535
725.1376, 25.91003
725.6198, 32.05139
726.1019, 30.50476
726.5840, 6.786133
727.0661, 4.637207
727.5482, 12.30676
728.0303, 34.22412
728.5125, 44.26465
728.9946, 43.31555
729.4767, 39.09668
729.9588, 33.76807
730.4409, 29.71704
730.9230, 30.85669
731.4052, 34.42529
731.8873, 34.19543
732.3694, 29.93970
732.8515, 25.89832
733.3336, 24.48315
733.8157, 24.81348
734.2979, 25.19812
734.7800, 25.71191
735.2621, 25.78003
735.7442, 24.86414
736.2263, 23.20923
736.7084, 23.23438
737.1906, 24.79443
737.6727, 25.73096
738.1548, 25.92871
738.6369, 26.00366
739.1190, 25.23523
739.6011, 25.29382
740.0833, 29.24902
740.5654, 33.80139
741.0475, 32.04321
741.5296, 23.65527
742.0117, 18.51953
742.4938, 29.47327
742.9760, 45.89832
743.4581, 40.43140
743.9402, 16.82007
744.4223, 5.608154
744.9044, 16.12793
745.3865, 25.96851
745.8687, 11.47754
746.3508, 21.10620
746.8329, 25.87457
747.3150, 20.77881
747.7971, 52.59619
748.2792, 55.20874
748.7614, 49.83850
749.2435, 44.76831
749.7256, 40.66443
750.2077, 39.07471
750.6898, 41.86182
751.1719, 42.80994
751.6541, 36.21106
752.1362, 28.30432
752.6183, 24.59143
753.1004, 25.33899
753.5825, 31.05945
754.0646, 41.79883
754.5468, 51.57141
755.0289, 51.67102
755.5110, 43.65869
755.9931, 35.62048
756.4752, 27.33118
756.9573, 23.43506
757.4395, 27.12195
757.9216, 32.31787
758.4037, 30.41589
758.8858, 20.55798
759.3679, 17.22998
759.8500, 30.05017
760.3322, 36.91333
760.8143, 27.52380
761.2964, 16.73218
761.7785, 19.33069
762.2606, 31.93298
762.7427, 36.66858
763.2249, 19.89148
763.7070, 6.244141
764.1891, 19.69092
764.6712, 41.92651
765.1533, 45.46509
765.6354, 31.72302
766.1176, 20.38074
766.5997, 22.30750
767.0818, 30.03235
767.5639, 32.49316
768.0460, 29.80200
768.5281, 21.33289
769.0103, 5.016846
769.4924, 3.530273
769.9745, 5.244995
770.4566, 21.51013
770.9387, 30.27710
771.4208, 30.57654
771.9030, 29.18872
772.3851, 24.89124
772.8672, 20.52844
773.3493, 14.68188
773.8314, 10.53125
774.3135, 12.78772
774.7957, 20.30017
775.2778, 24.77173
775.7599, 19.63916
776.2420, 14.71289
776.7241, 18.99438
777.2062, 26.54395
777.6884, 27.19653
778.1705, 21.80701
778.6526, 21.04688
779.1347, 31.98157
779.6168, 45.19849
780.0989, 42.50525
780.5811, 25.90796
781.0632, 13.80981
781.5453, 7.067627
782.0274, 8.978394
782.5095, 24.55823
782.9916, 42.84229
783.4738, 43.84973
783.9559, 21.80969
784.4380, 12.79260
784.9201, 30.48364
785.4022, 43.38049
785.8843, 42.23743
786.3665, 34.24866
786.8486, 21.00000
787.3307, 5.276245
787.8128, 1.691406
788.2949, 30.12256
788.7770, 52.74475
789.2592, 38.78210
789.7413, 14.21228
790.2234, 12.08154
790.7055, 30.33142
791.1876, 45.66370
791.6697, 44.65991
792.1519, 37.47107
792.6340, 38.76819
793.1161, 45.13037
793.5982, 40.51953
794.0803, 24.36951
794.5624, 16.39355
795.0446, 26.78955
795.5267, 43.08960
796.0088, 46.70093
796.4909, 36.75659
796.9730, 27.71069
797.4551, 18.99756
797.9373, 12.25146
798.4194, 7.687378
798.9015, 5.501099
799.3836, 8.334839
799.8657, 14.51355
800.3478, 14.27722
800.8300, 2.311157
801.3121, 13.78076
801.7942, 11.20447
802.2763, 3.837036
802.7584, 2.795532
803.2405, 7.525879
803.7227, 9.284180
804.2048, 5.940186
804.6869, 2.667358
805.1690, 7.489746
805.6511, 13.68237
806.1332, 8.902954
806.6154, 2.701050
807.0975, 0.1916500
807.5796, 23.07617
808.0617, 45.25562
808.5438, 40.08691
809.0259, 14.18237
809.5081, 3.613037
809.9902, 10.48193
810.4723, 17.46179
810.9544, 21.45093
811.4365, 23.66687
811.9186, 24.05420
812.4008, 23.61560
812.8829, 26.69910
813.3650, 37.98682
813.8471, 44.71045
814.3292, 46.33630
814.8113, 44.14111
815.2935, 35.35425
815.7756, 24.66040
816.2577, 18.71179
816.7398, 18.69812
817.2219, 19.95068
817.7040, 21.62952
818.1862, 22.86902
818.6683, 24.41309
819.1504, 24.44629
819.6325, 18.29846
820.1146, 6.996826
820.5967, 1.492432
821.0789, 1.474731
821.5610, 3.407227
822.0431, 8.299316
822.5252, 13.42859
823.0073, 20.03198
823.4894, 28.11572
823.9716, 35.12964
824.4537, 39.76379
824.9358, 42.33411
825.4179, 43.06567
825.9000, 41.77039
826.3821, 41.42126
826.8643, 42.55530
827.3464, 42.73132
827.8285, 41.78491
828.3106, 39.96423
828.7927, 38.00745
829.2748, 35.86658
829.7570, 32.17419
830.2391, 26.21106
830.7212, 20.23901
831.2033, 13.11536
831.6854, 7.507690
832.1675, 5.032227
832.6497, 5.263062
833.1318, 6.788940
833.6139, 8.866211
834.0960, 14.56860
834.5781, 33.47131
835.0602, 49.35120
835.5424, 44.21021
836.0245, 27.26990
836.5066, 12.23523
836.9887, 4.244995
837.4708, 4.667725
837.9529, 18.23584
838.4351, 35.85291
838.9172, 41.74133
839.3993, 38.03906
839.8814, 31.15393
840.3635, 22.52490
840.8456, 16.75623
841.3278, 17.15649
841.8099, 20.21704
842.2920, 17.78088
842.7741, 8.897339
843.2562, 7.159912
843.7383, 15.88647
844.2205, 19.78528
844.7026, 9.184570
845.1847, 2.178101
845.6668, 5.112305
846.1489, 31.19287
846.6310, 41.67322
847.1132, 22.70203
847.5953, 7.547974
848.0774, 4.051880
848.5595, 7.987793
849.0416, 5.314087
849.5237, 26.71814
850.0059, 35.50549
850.4880, 24.67688
850.9701, 14.49377
851.4522, 11.14392
851.9343, 11.89905
852.4164, 17.81653
852.8986, 25.24023
853.3807, 28.79456
853.8628, 28.11597
854.3449, 26.90259
854.8270, 26.61182
855.3091, 29.09253
855.7913, 41.46912
856.2734, 55.88611
856.7555, 52.67212
857.2376, 33.11414
857.7197, 16.27136
858.2018, 12.07971
858.6840, 16.27942
859.1661, 25.87305
859.6482, 39.71667
860.1303, 42.26001
860.6124, 32.75684
861.0945, 28.82959
861.5767, 36.91992
862.0588, 49.07617
862.5409, 59.11768
863.0230, 65.62183
863.5051, 57.98401
863.9872, 28.96155
864.4694, 7.933716
864.9515, 1.618652
865.4336, 2.242920
865.9157, 10.07361
866.3978, 27.97852
866.8799, 35.94971
867.3621, 30.89343
867.8442, 30.44824
868.3263, 42.19641
868.8084, 49.90588
869.2905, 45.98865
869.7726, 37.95471
870.2548, 31.16504
870.7369, 26.66174
871.2190, 25.89075
871.7011, 31.05103
872.1832, 36.40857
872.6653, 41.25757
873.1475, 43.41284
873.6296, 40.26831
874.1117, 33.05225
874.5938, 21.89526
875.0759, 7.644165
875.5580, 0.2170410
876.0402, 12.39307
876.5223, 30.28638
877.0044, 32.54297
877.4865, 25.14099
877.9686, 22.24622
878.4507, 25.37427
878.9329, 26.74451
879.4150, 21.14172
879.8971, 14.43433
880.3792, 18.48645
880.8613, 30.69482
881.3434, 36.95679
881.8256, 36.71289
882.3077, 32.22937
882.7898, 23.63220
883.2719, 16.57544
883.7540, 17.93176
884.2361, 26.01465
884.7183, 30.18689
885.2004, 29.96362
885.6825, 28.06360
886.1646, 25.07312
886.6467, 19.31287
887.1288, 6.365967
887.6110, 7.029785
888.0931, 4.962646
888.5752, 19.14404
889.0573, 30.57153
889.5394, 16.75293
890.0215, 7.626709
890.5037, 14.56091
890.9858, 24.99341
891.4679, 30.56213
891.9500, 30.89319
892.4321, 24.80676
892.9142, 2.675415
893.3964, 8.300537
893.8785, 8.290527
894.3606, 26.40503
894.8427, 29.75256
895.3248, 24.88672
895.8069, 22.31702
896.2891, 23.92456
896.7712, 26.09851
897.2533, 28.32568
897.7354, 29.25439
898.2175, 27.86011
898.6996, 24.78027
899.1818, 20.12878
899.6639, 14.52161
900.1460, 8.531860
900.6281, 2.177124
901.1102, 0.7919920
901.5923, 4.910400
902.0745, 14.99329
902.5566, 24.94531
903.0387, 33.45386
903.5208, 37.93469
904.0029, 37.94971
904.4850, 36.79407
904.9672, 37.06274
905.4493, 37.05066
905.9314, 31.40125
906.4135, 22.35986
906.8956, 22.17163
907.3777, 30.46533
907.8599, 36.22400
908.3420, 34.91223
908.8241, 29.90076
909.3062, 25.27466
909.7883, 20.49194
910.2704, 10.51624
910.7526, 5.728271
911.2347, 13.40192
911.7169, 9.210815
912.1990, 0.4522710
912.6811, 13.88452
913.1632, 26.07996
913.6453, 24.80579
914.1274, 5.869019
914.6096, 4.461548
915.0917, 31.72058
915.5738, 49.26685
916.0559, 41.92932
916.5380, 28.69824
917.0201, 26.21570
917.5023, 31.97571
917.9844, 33.77271
918.4665, 27.48987
918.9486, 24.82043
919.4307, 33.26123
919.9128, 36.36145
920.3950, 21.70972
920.8771, 2.861572
921.3592, 4.371460
921.8413, 0.1687010
922.3234, 6.018799
922.8055, 15.13281
923.2877, 20.51379
923.7698, 15.80200
924.2519, 11.71826
924.7340, 18.52100
925.2161, 30.11597
925.6982, 34.11536
926.1804, 27.74792
926.6625, 22.94360
927.1446, 27.69861
927.6267, 31.23706
928.1088, 23.99561
928.5909, 15.09753
929.0731, 17.45947
929.5552, 27.39099
930.0373, 29.04858
930.5194, 14.62048
931.0015, 3.315430
931.4836, 11.54895
931.9658, 26.09460
932.4479, 37.31494
932.9300, 44.08057
933.4121, 44.89539
933.8942, 40.71179
934.3763, 34.16174
934.8585, 25.70349
935.3406, 18.93567
935.8227, 20.40710
936.3048, 24.80237
936.7869, 23.08716
937.2690, 16.41821
937.7512, 10.69250
938.2333, 7.950195
938.7154, 6.888306
939.1975, 5.680298
939.6796, 5.434448
940.1617, 8.713501
940.6439, 14.55969
941.1260, 21.29700
941.6081, 27.95410
942.0902, 29.44043
942.5723, 23.38953
943.0544, 15.91980
943.5366, 14.96008
944.0187, 18.49341
944.5008, 18.79968
944.9829, 16.38904
945.4650, 14.90125
945.9471, 15.61853
946.4293, 22.66418
946.9114, 39.35193
947.3935, 56.79956
947.8756, 57.16541
948.3577, 41.65833
948.8398, 34.28906
949.3220, 35.72485
949.8041, 34.66980
950.2862, 27.90076
950.7683, 20.20782
951.2504, 14.28357
951.7325, 11.65564
952.2147, 14.60480
952.6968, 24.68115
953.1789, 28.52838
953.6610, 24.90588
954.1431, 18.92432
954.6252, 10.32080
955.1074, 5.151367
955.5895, 11.10809
956.0716, 24.89575
956.5537, 29.18262
957.0358, 19.09241
957.5179, 16.43036
958.0001, 26.14435
958.4822, 33.96027
958.9643, 33.03766
959.4464, 28.85388
959.9285, 27.91809
960.4106, 29.98334
960.8928, 30.71820
961.3749, 30.69232
961.8570, 27.77649
962.3391, 16.92365
962.8212, 10.49792
963.3033, 17.54730
963.7855, 30.32190
964.2676, 39.06403
964.7497, 43.66827
965.2318, 40.68671
965.7139, 17.56879
966.1960, 6.166626
966.6782, 22.43146
967.1603, 38.35724
967.6424, 33.72113
968.1245, 19.81519
968.6066, 17.69061
969.0887, 30.03156
969.5709, 40.45367
970.0530, 51.00720
970.5351, 55.73187
971.0172, 47.69043
971.4993, 39.04498
971.9814, 41.51562
972.4636, 48.89716
972.9457, 45.58179
973.4278, 26.94244
973.9099, 13.14899
974.3920, 6.825562
974.8741, 5.912170
975.3563, 11.45483
975.8384, 20.62018
976.3205, 35.20667
976.8026, 51.04895
977.2847, 57.12823
977.7668, 49.77563
978.2490, 39.72083
978.7311, 22.77106
979.2132, 11.17004
979.6953, 14.47186
980.1774, 22.96497
980.6595, 27.80133
981.1417, 29.28943
981.6238, 31.62622
982.1059, 36.47711
982.5880, 39.99396
983.0701, 41.46588
983.5522, 40.88141
984.0344, 34.16016
984.5165, 28.24982
984.9986, 33.57532
985.4807, 47.64185
985.9628, 56.04431
986.4449, 52.81866
986.9271, 48.71710
987.4092, 50.42426
987.8913, 49.27850
988.3734, 37.01764
988.8555, 20.59583
989.3376, 6.116821
989.8198, 4.145142
990.3019, 4.906128
990.7840, 10.86749
991.2661, 24.92017
991.7482, 31.49982
992.2303, 31.96649
992.7125, 24.68884
993.1946, 13.37531
993.6767, 0.2007450
994.1588, 12.87964
994.6409, 18.18384
995.1230, 9.655823
995.6052, 0.6131590
996.0873, 8.749512
996.5694, 14.92883
997.0515, 19.41406
997.5336, 21.97931
998.0157, 21.32654
998.4979, 17.90759
998.9800, 15.70459
999.4621, 16.04761
999.9442, 18.25061
1000.426, 23.47845
1000.908, 28.96625
1001.391, 31.72906
1001.873, 33.67267
1002.355, 40.38843
1002.837, 51.11896
1003.319, 53.49530
1003.801, 35.57977
1004.283, 19.99536
1004.765, 21.86188
1005.247, 26.88318
1005.730, 21.65662
1006.212, 12.56903
1006.694, 12.19330
1007.176, 21.44000
1007.658, 28.16693
1008.140, 24.13696
1008.622, 21.79987
1009.104, 28.58594
1009.587, 37.71185
1010.069, 43.96283
1010.551, 48.80072
1011.033, 57.43353
1011.515, 69.36743
1011.997, 73.13733
1012.479, 58.22003
1012.961, 43.54889
1013.443, 37.02258
1013.926, 34.13635
1014.408, 32.76404
1014.890, 32.04272
1015.372, 31.95837
1015.854, 32.08606
1016.336, 29.15759
1016.818, 15.88043
1017.300, 8.761230
1017.783, 21.63110
1018.265, 35.36493
1018.747, 32.87378
1019.229, 24.08191
1019.711, 28.73590
1020.193, 46.65784
1020.675, 50.79291
1021.157, 19.57690
1021.639, 5.887146
1022.122, 8.825195
1022.604, 4.708923
1023.086, 0.2428590
1023.568, 3.825317
1024.050, 2.791687
1024.532, 2.425903
1025.014, 5.272522
1025.496, 2.773254
1025.979, 0.1660770
1026.461, 0.4133910
1026.943, 2.798645
1027.425, 14.01111
1027.907, 26.49268
1028.389, 17.10126
1028.871, 33.93878
1029.353, 43.31531
1029.835, 45.63177
1030.318, 19.73920
1030.800, 30.27185
1031.282, 26.20728
1031.764, 21.54492
1032.246, 37.20349
1032.728, 15.41492
1033.210, 30.75250
1033.692, 31.26904
1034.174, 38.56873
1034.657, 31.18115
1035.139, 28.32983
1035.621, 40.17139
1036.103, 43.87708
1036.585, 34.79877
1037.067, 42.53046
1037.549, 20.23035
1038.031, 24.28418
1038.514, 39.70813
1038.996, 31.37006
1039.478, 39.37012
1039.960, 18.80914
1040.442, 29.93427
1040.924, 43.00726
1041.406, 24.10950
1041.888, 41.63770
1042.370, 51.28888
1042.853, 53.48718
1043.335, 25.91162
1043.817, 36.78412
1044.299, 32.24854
1044.781, 27.08209
1045.263, 43.36578
1045.745, 20.12140
1046.227, 36.06519
1046.709, 36.36615
1047.192, 43.82501
1047.674, 35.45966
1048.156, 31.83325
1048.638, 44.08752
1049.120, 47.75482
1049.602, 37.92743
1050.084, 45.84412
1050.566, 22.05908
1051.049, 26.09204
1051.531, 42.07599
1052.013, 32.15588
1052.495, 38.35834
1052.977, 38.18250
1053.459, 30.76770
1053.941, 22.83783
1054.423, 18.66626
1054.906, 16.62097
1055.388, 13.87396
1055.870, 10.71814
1056.352, 9.510620
1056.834, 10.20239
1057.316, 17.59039
1057.798, 32.90167
1058.280, 41.35126
1058.762, 35.23901
1059.245, 23.11407
1059.727, 15.12610
1060.209, 10.29877
1060.691, 2.619690
1061.173, 5.887268
1061.655, 2.091858
1062.137, 26.03107
1062.619, 42.77246
1063.101, 43.37500
1063.584, 37.32367
1064.066, 32.74066
1064.548, 29.66187
1065.030, 27.53314
1065.512, 25.70416
1065.994, 23.31635
1066.476, 20.73083
1066.958, 19.68262
1067.441, 20.59131
1067.923, 22.79614
1068.405, 25.69434
1068.887, 27.84991
1069.369, 26.90466
1069.851, 24.06274
1070.333, 20.93707
1070.815, 17.55859
1071.297, 12.31140
1071.780, 6.188477
1072.262, 4.909912
1072.744, 11.95459
1073.226, 21.13855
1073.708, 30.01581
1074.190, 36.14630
1074.672, 37.65308
1075.154, 34.68060
1075.636, 24.35602
1076.119, 10.77142
1076.601, 2.832520
1077.083, 3.733032
1077.565, 7.607666
1078.047, 13.77954
1078.529, 19.05750
1079.011, 21.63867
1079.494, 22.08368
1079.976, 19.93884
1080.458, 17.62628
1080.940, 19.84314
1081.422, 27.30432
1081.904, 31.80774
1082.386, 30.49536
1082.868, 27.14227
1083.350, 17.18463
1083.833, 11.29480
1084.315, 21.88684
1084.797, 36.35571
1085.279, 34.54779
1085.761, 16.59851
1086.243, 6.763306
1086.725, 8.183350
1087.207, 12.64136
1087.689, 23.99268
1088.172, 31.62750
1088.654, 29.58588
1089.136, 25.25452
1089.618, 25.90778
1090.100, 30.19043
1090.582, 32.98352
1091.064, 34.38513
1091.546, 32.57611
1092.029, 24.98871
1092.511, 26.93768
1092.993, 45.72211
1093.475, 59.92108
1093.957, 53.06445
1094.439, 35.38147
1094.921, 25.89197
1095.403, 23.93988
1095.885, 22.69238
1096.368, 22.12738
1096.850, 21.53479
1097.332, 20.86084
1097.814, 21.98535
1098.296, 25.89832
1098.778, 30.09985
1099.260, 32.76904
1099.742, 32.32471
1100.224, 20.90192
1100.707, 4.487793
1101.189, 0.3167720
1101.671, 7.738403
1102.153, 21.08685
1102.635, 36.87384
1103.117, 43.53937
1103.599, 29.59149
1104.081, 12.95020
1104.564, 15.92841
1105.046, 24.61926
1105.528, 20.53607
1106.010, 9.925049
1106.492, 5.288452
1106.974, 7.455322
1107.456, 9.503113
1107.938, 8.723755
1108.421, 8.057861
1108.903, 9.159546
1109.385, 10.67017
1109.867, 2.109619
1110.349, 20.43042
1110.831, 30.87048
1111.313, 33.85815
1111.795, 7.071777
1112.277, 18.73370
1112.760, 14.98761
1113.242, 10.61023
1113.724, 27.68512
1114.206, 5.228760
1114.688, 21.96124
1115.170, 23.05103
1115.652, 31.30115
1116.134, 24.04773
1116.616, 21.58380
1117.099, 34.75293
1117.581, 39.54730
1118.063, 30.51154
1118.545, 39.21808
1119.027, 15.94519
1119.509, 20.76953
1119.991, 37.59729
1120.473, 29.48297
1120.956, 23.70844
1121.438, 13.14233
1121.920, 5.457397
1122.402, 5.832825
1122.884, 10.55713
1123.366, 25.28180
1123.848, 34.58270
1124.330, 31.54657
1124.813, 12.91705
1125.295, 3.913208
1125.777, 3.333557
1126.259, 21.44495
1126.741, 27.14911
1127.223, 25.10651
1127.705, 23.21826
1128.187, 22.66357
1128.669, 24.03143
1129.151, 27.28687
1129.634, 31.93134
1130.116, 39.03101
1130.598, 42.86127
1131.080, 37.56189
1131.562, 28.90778
1132.044, 20.77307
1132.526, 13.00189
1133.008, 0.7929080
1133.491, 11.34344
1133.973, 8.293640
1134.455, 16.54608
1134.937, 31.15021
1135.419, 19.61731
1135.901, 8.824829
1136.383, 5.819885
1136.865, 5.566895
1137.348, 2.759094
1137.830, 2.741150
1138.312, 17.39355
1138.794, 43.63873
1139.276, 46.34100
1139.758, 13.50220
1140.240, 3.842285
1140.722, 0.2063600
1141.204, 5.217163
1141.687, 6.769409
1142.169, 7.501648
1142.651, 9.447449
1143.133, 13.40533
1143.615, 23.13037
1144.097, 36.70349
1144.579, 39.87439
1145.061, 34.01361
1145.543, 25.27271
1146.026, 15.64722
1146.508, 11.60925
1146.990, 15.71783
1147.472, 22.72754
1147.954, 29.76740
1148.436, 33.79132
1148.918, 28.27917
1149.400, 19.15607
1149.883, 13.77380
1150.365, 11.98340
1150.847, 12.37018
1151.329, 14.59064
1151.811, 19.32751
1152.293, 28.14136
1152.775, 33.76917
1153.257, 30.34497
1153.740, 26.10486
1154.222, 24.80389
1154.704, 24.65076
1155.186, 24.33667
1155.668, 23.86670
1156.150, 23.10455
1156.632, 21.96771
1157.114, 22.97833
1157.596, 30.28918
1158.078, 29.41650
1158.561, 11.71136
1159.043, 5.971985
1159.525, 28.31726
1160.007, 50.35260
1160.489, 45.02820
1160.971, 24.14563
1161.453, 16.70410
1161.935, 22.03107
1162.418, 31.26868
1162.900, 44.62561
1163.382, 38.75433
1163.864, 12.91083
1164.346, 1.373230
1164.828, 18.58423
1165.310, 41.05847
1165.792, 48.28894
1166.275, 44.88025
1166.757, 30.30359
1167.239, 14.02112
1167.721, 9.921753
1168.203, 12.75208
1168.685, 22.18756
1169.167, 32.52844
1169.649, 32.94196
1170.131, 15.85919
1170.614, 5.802612
1171.096, 22.85236
1171.578, 35.02753
1172.060, 21.67285
1172.542, 7.148682
1173.024, 16.56305
1173.506, 34.23547
1173.988, 27.65106
1174.470, 1.057007
1174.953, 4.399048
1175.435, 31.04944
1175.917, 50.25677
1176.399, 48.10876
1176.881, 40.03455
1177.363, 29.78693
1177.845, 1.091614
1178.327, 16.86218
1178.810, 26.93744
1179.292, 29.55823
1179.774, 2.401672
1180.256, 13.69013
1180.738, 9.563232
1181.220, 4.804932
1181.702, 21.49438
1182.184, 1.348694
1182.667, 15.01550
1183.149, 15.73828
1183.631, 23.52777
1184.113, 15.90277
1184.595, 13.06287
1185.077, 25.72717
1185.559, 29.86243
1186.041, 20.50385
1186.523, 28.88818
1187.005, 5.581421
1187.488, 10.10297
1187.970, 26.62952
1188.452, 17.55225
1188.934, 24.76611
1189.416, 26.82037
1189.898, 0.9793090
1190.380, 19.63208
1190.862, 14.72913
1191.345, 10.75653
1191.827, 19.33130
1192.309, 33.84607
1192.791, 39.12659
1193.273, 34.53375
1193.755, 36.25494
1194.237, 43.25702
1194.719, 40.91431
1195.202, 28.19482
1195.684, 16.76630
1196.166, 10.35626
1196.648, 9.579468
1197.130, 11.93774
1197.612, 16.73242
1198.094, 28.09149
1198.576, 36.73834
1199.058, 26.86865
1199.541, 9.260498
1200.023, 3.0273000E-02
1200.505, 0.1251830
1200.987, 4.031738
1201.469, 6.813660
1201.951, 0.0000000E+00
##END=



