##NAMES=Anthoinite
##RRUFFID=R070025
##IDEAL CHEMISTRY=AlW^6+^O_3_(OH)_3_
##LOCALITY=Kyakabingu, Bumbogo, Rwanda
##OWNER=RRUFF
##SOURCE=Michael Scott
##DESCRIPTION=White, waxy flaky crystals associated with tan colored jarosite on quartz
##STATUS=The identification of this mineral is not yet confirmed.
##URL=rruff.info/R070025
178.9000, 0.0000000E+00
179.3820, 34.06250
179.8640, 4.777344
180.3460, 6.804688
180.8280, 13.45312
181.3100, 36.85547
181.7920, 43.12500
182.2740, 31.70312
182.7570, 22.06641
183.2390, 6.007813
183.7210, 4.093750
184.2030, 3.253906
184.6850, 8.660156
185.1670, 38.11328
185.6490, 97.51562
186.1310, 177.8789
186.6130, 236.1289
187.0960, 254.8281
187.5780, 264.4609
188.0600, 287.5273
188.5420, 322.8711
189.0240, 353.0430
189.5060, 361.4062
189.9880, 358.1445
190.4700, 378.4297
190.9520, 446.2383
191.4350, 517.5547
191.9170, 559.2578
192.3990, 573.8125
192.8810, 573.0039
193.3630, 509.1992
193.8450, 461.1719
194.3270, 620.0781
194.8090, 556.9102
195.2920, 677.8398
195.7740, 754.6133
196.2560, 789.6133
196.7380, 656.4727
197.2200, 741.3281
197.7020, 739.3555
198.1840, 734.1367
198.6660, 850.6719
199.1480, 824.7617
199.6310, 842.3672
200.1130, 909.5547
200.5950, 965.5078
201.0770, 990.6953
201.5590, 978.5938
202.0410, 922.3516
202.5230, 784.1250
203.0050, 668.6289
203.4880, 673.1836
203.9700, 776.2773
204.4520, 845.1914
204.9340, 819.6680
205.4160, 731.0156
205.8980, 641.7109
206.3800, 544.3984
206.8620, 462.3711
207.3440, 408.8477
207.8270, 382.0469
208.3090, 376.4961
208.7910, 396.3555
209.2730, 431.2227
209.7550, 463.5195
210.2370, 492.4414
210.7190, 520.5117
211.2010, 552.4766
211.6840, 585.1758
212.1660, 607.6172
212.6480, 612.8750
213.1300, 610.9648
213.6120, 618.5195
214.0940, 637.9492
214.5760, 650.7891
215.0580, 636.9258
215.5400, 609.4727
216.0230, 601.8047
216.5050, 619.7109
216.9870, 666.2812
217.4690, 770.2266
217.9510, 936.8711
218.4330, 1047.836
218.9150, 1024.621
219.3970, 917.7383
219.8800, 821.0000
220.3620, 742.8516
220.8440, 702.6562
221.3260, 754.8555
221.8080, 889.4336
222.2900, 982.6328
222.7720, 981.2695
223.2540, 918.3984
223.7360, 828.6953
224.2190, 704.5312
224.7010, 608.0742
225.1830, 635.3789
225.6650, 764.2422
226.1470, 853.6523
226.6290, 851.0977
227.1110, 801.0547
227.5930, 747.7148
228.0760, 692.4766
228.5580, 657.6328
229.0400, 670.2227
229.5220, 723.5898
230.0040, 778.2891
230.4860, 841.0703
230.9680, 895.5898
231.4500, 915.8086
231.9320, 901.0508
232.4150, 895.7461
232.8970, 938.3945
233.3790, 1019.461
233.8610, 1080.543
234.3430, 1105.328
234.8250, 1120.738
235.3070, 1143.930
235.7890, 1174.668
236.2710, 1209.105
236.7540, 1238.773
237.2360, 1271.105
237.7180, 1302.414
238.2000, 1342.387
238.6820, 1371.691
239.1640, 1378.457
239.6460, 1365.461
240.1280, 1340.363
240.6110, 1301.754
241.0930, 1257.188
241.5750, 1232.152
242.0570, 1238.840
242.5390, 1243.590
243.0210, 1231.938
243.5030, 1210.457
243.9850, 1195.656
244.4670, 1197.141
244.9500, 1200.648
245.4320, 1169.523
245.9140, 1082.426
246.3960, 1017.363
246.8780, 1016.172
247.3600, 1038.465
247.8420, 1018.980
248.3240, 936.5312
248.8070, 839.1875
249.2890, 803.1797
249.7710, 855.9883
250.2530, 890.9219
250.7350, 891.3672
251.2170, 874.8672
251.6990, 857.8242
252.1810, 842.7812
252.6630, 820.3984
253.1460, 772.4297
253.6280, 678.8477
254.1100, 656.6719
254.5920, 764.5195
255.0740, 893.4727
255.5560, 976.2383
256.0380, 1008.152
256.5200, 1012.633
257.0030, 1004.641
257.4850, 981.6523
257.9670, 990.6992
258.4490, 1074.445
258.9310, 1143.242
259.4130, 1143.844
259.8950, 1096.449
260.3770, 1055.441
260.8590, 1057.398
261.3420, 1098.266
261.8240, 1137.285
262.3060, 1199.520
262.7880, 1233.113
263.2700, 1209.754
263.7520, 1154.094
264.2340, 1103.453
264.7160, 1075.898
265.1980, 1066.984
265.6810, 1063.699
266.1630, 1080.340
266.6450, 1083.633
267.1270, 1075.570
267.6090, 1052.105
268.0910, 1002.922
268.5730, 926.5000
269.0560, 840.5234
269.5380, 775.8398
270.0200, 737.4570
270.5020, 713.3047
270.9840, 708.7578
271.4660, 711.2383
271.9480, 718.4570
272.4300, 726.7891
272.9120, 725.6758
273.3950, 696.6562
273.8770, 627.4062
274.3590, 587.5508
274.8410, 612.9961
275.3230, 635.9258
275.8050, 620.7109
276.2870, 576.8789
276.7690, 538.4844
277.2510, 532.3906
277.7340, 556.6953
278.2160, 588.5781
278.6980, 630.4375
279.1800, 676.8398
279.6620, 726.7930
280.1440, 778.9883
280.6260, 836.2656
281.1080, 910.0391
281.5910, 977.9219
282.0730, 969.3711
282.5550, 840.9453
283.0370, 738.6836
283.5190, 740.7969
284.0010, 780.2578
284.4830, 788.1328
284.9650, 739.1641
285.4470, 672.2930
285.9300, 641.4844
286.4120, 651.9961
286.8940, 649.7031
287.3760, 620.6523
287.8580, 570.9688
288.3400, 499.5820
288.8220, 405.3398
289.3040, 315.5625
289.7860, 249.4648
290.2690, 205.1914
290.7510, 174.2188
291.2330, 158.2539
291.7150, 152.1758
292.1970, 164.6328
292.6790, 191.0430
293.1610, 186.0781
293.6430, 100.7031
294.1250, 18.05469
294.6080, 89.63281
295.0900, 102.9961
295.5720, 93.40625
296.0540, 82.39453
296.5360, 70.29297
297.0180, 57.50781
297.5000, 66.01562
297.9830, 58.43359
298.4650, 11.15625
298.9470, 133.5273
299.4290, 244.4219
299.9110, 305.9375
300.3930, 327.7773
300.8750, 351.4219
301.3570, 372.9961
301.8390, 399.9414
302.3220, 439.9727
302.8040, 485.7305
303.2860, 526.9297
303.7680, 560.8047
304.2500, 584.1484
304.7320, 588.1250
305.2140, 547.1016
305.6960, 541.0195
306.1780, 621.5859
306.6610, 709.3984
307.1430, 717.7461
307.6250, 638.5273
308.1070, 547.7539
308.5890, 536.0664
309.0710, 631.4727
309.5530, 675.9531
310.0350, 652.6875
310.5170, 600.8438
311.0000, 529.1914
311.4820, 445.5664
311.9640, 360.0547
312.4460, 279.3438
312.9280, 204.4023
313.4100, 143.8594
313.8920, 105.6875
314.3740, 74.61719
314.8570, 36.75781
315.3390, 9.179688
315.8210, 22.89844
316.3030, 92.78906
316.7850, 182.1406
317.2670, 211.7852
317.7490, 154.8008
318.2310, 104.8047
318.7140, 79.91797
319.1960, 62.25781
319.6780, 30.25781
320.1600, 15.64453
320.6420, 41.36719
321.1240, 2.332031
321.6060, 101.5469
322.0880, 190.8750
322.5700, 248.4141
323.0520, 301.9492
323.5350, 364.0625
324.0170, 434.2227
324.4990, 512.3320
324.9810, 616.6836
325.4630, 724.7500
325.9450, 772.4609
326.4270, 738.2227
326.9090, 723.0742
327.3920, 813.4609
327.8740, 950.2734
328.3560, 1039.535
328.8380, 1047.801
329.3200, 1032.566
329.8020, 1038.266
330.2840, 1061.707
330.7660, 1084.160
331.2490, 1102.102
331.7310, 1113.176
332.2130, 1112.047
332.6950, 1096.898
333.1770, 1081.488
333.6590, 1082.789
334.1410, 1083.727
334.6230, 1053.777
335.1050, 987.3555
335.5880, 918.0547
336.0700, 886.1367
336.5520, 902.2617
337.0340, 879.3945
337.5160, 781.2383
337.9980, 678.8789
338.4800, 619.8906
338.9620, 593.9961
339.4440, 560.4375
339.9270, 491.6367
340.4090, 395.6328
340.8910, 317.3594
341.3730, 240.1523
341.8550, 202.2773
342.3370, 247.5508
342.8190, 316.5586
343.3010, 334.6016
343.7840, 278.6914
344.2660, 200.6367
344.7480, 190.2930
345.2300, 282.7383
345.7120, 347.8242
346.1940, 359.2148
346.6760, 363.5547
347.1580, 385.5039
347.6410, 423.5039
348.1230, 461.6992
348.6050, 494.1016
349.0870, 518.1367
349.5690, 504.8359
350.0510, 418.6914
350.5330, 356.1758
351.0150, 371.6250
351.4970, 428.8359
351.9790, 479.3008
352.4620, 508.0977
352.9440, 515.0312
353.4260, 492.0234
353.9080, 438.1914
354.3900, 389.3398
354.8720, 355.5703
355.3540, 334.0312
355.8360, 327.1602
356.3190, 340.7109
356.8010, 332.2578
357.2830, 263.1602
357.7650, 162.5781
358.2470, 83.83203
358.7290, 35.44922
359.2110, 8.199219
359.6930, 1.066406
360.1760, 8.292969
360.6580, 12.53516
361.1400, 13.87109
361.6220, 7.703125
362.1040, 19.41797
362.5860, 58.06250
363.0680, 77.98438
363.5500, 60.35156
364.0320, 16.98438
364.5150, 11.71484
364.9970, 24.43359
365.4790, 23.35156
365.9610, 14.33203
366.4430, 53.41797
366.9250, 54.39844
367.4070, 11.25391
367.8890, 43.32031
368.3710, 63.95703
368.8540, 35.35547
369.3360, 45.51953
369.8180, 141.2812
370.3000, 230.6445
370.7820, 278.6992
371.2640, 293.5469
371.7460, 295.9688
372.2280, 293.9141
372.7110, 293.2344
373.1930, 315.5781
373.6750, 373.6602
374.1570, 420.1172
374.6390, 436.9180
375.1210, 436.2344
375.6030, 425.5312
376.0850, 405.7539
376.5680, 380.4258
377.0500, 350.1133
377.5320, 316.2031
378.0140, 282.0586
378.4960, 244.4258
378.9780, 215.1641
379.4600, 217.4297
379.9420, 242.8203
380.4240, 242.0898
380.9060, 184.8438
381.3890, 110.5586
381.8710, 52.48828
382.3530, 11.06250
382.8350, 23.56641
383.3170, 58.54297
383.7990, 89.17969
384.2810, 96.67188
384.7630, 60.55859
385.2460, 31.77734
385.7280, 21.23438
386.2100, 20.60156
386.6920, 19.77734
387.1740, 16.51562
387.6560, 17.50391
388.1380, 35.17578
388.6200, 80.95312
389.1030, 89.70312
389.5850, 39.55469
390.0670, 22.63672
390.5490, 87.76562
391.0310, 150.6641
391.5130, 204.8984
391.9950, 246.5117
392.4770, 277.8984
392.9590, 305.0234
393.4420, 325.9414
393.9240, 347.0977
394.4060, 371.1523
394.8880, 395.1172
395.3700, 424.3633
395.8520, 458.9531
396.3340, 470.5000
396.8160, 411.7656
397.2980, 307.4297
397.7810, 259.9688
398.2630, 294.9219
398.7450, 346.1680
399.2270, 372.4375
399.7090, 373.6836
400.1910, 345.0391
400.6730, 237.2852
401.1550, 141.1367
401.6380, 143.5977
402.1200, 216.1992
402.6020, 259.1211
403.0840, 226.4141
403.5660, 151.6602
404.0480, 102.2969
404.5300, 87.25391
405.0120, 83.66406
405.4950, 106.8906
405.9770, 130.6406
406.4590, 131.4336
406.9410, 110.3945
407.4230, 85.35938
407.9050, 71.04297
408.3870, 67.65625
408.8690, 71.58984
409.3510, 59.86328
409.8330, 88.08203
410.3160, 215.5234
410.7980, 367.4766
411.2800, 450.0781
411.7620, 430.4883
412.2440, 374.2266
412.7260, 368.6719
413.2080, 416.3242
413.6900, 454.3008
414.1730, 455.8594
414.6550, 466.9414
415.1370, 528.5117
415.6190, 629.3633
416.1010, 721.8711
416.5830, 795.8984
417.0650, 845.9219
417.5470, 854.9180
418.0300, 825.6953
418.5120, 800.2344
418.9940, 804.7070
419.4760, 822.4062
419.9580, 804.5977
420.4400, 724.4492
420.9220, 669.0039
421.4040, 676.1953
421.8860, 713.3867
422.3690, 747.1992
422.8510, 769.3164
423.3330, 781.6836
423.8150, 783.6094
424.2970, 774.0391
424.7790, 769.0508
425.2610, 767.4375
425.7430, 775.7070
426.2250, 809.2070
426.7080, 846.9961
427.1900, 858.6094
427.6720, 831.2031
428.1540, 785.9102
428.6360, 752.8203
429.1180, 731.9805
429.6000, 725.1094
430.0820, 758.2773
430.5650, 778.5547
431.0470, 739.0547
431.5290, 653.9805
432.0110, 584.0430
432.4930, 576.3711
432.9750, 590.7109
433.4570, 557.9219
433.9390, 478.8945
434.4220, 421.2812
434.9040, 426.4688
435.3860, 466.9141
435.8680, 473.7539
436.3500, 433.9727
436.8320, 399.4023
437.3140, 382.1992
437.7960, 377.2617
438.2780, 384.9023
438.7600, 402.5586
439.2430, 414.7070
439.7250, 403.8594
440.2070, 370.3164
440.6890, 351.3125
441.1710, 352.3906
441.6530, 362.6602
442.1350, 395.7891
442.6170, 434.3281
443.1000, 449.4648
443.5820, 434.3711
444.0640, 413.5859
444.5460, 432.9258
445.0280, 499.8828
445.5100, 516.7070
445.9920, 426.1094
446.4740, 344.9297
446.9570, 364.4453
447.4390, 457.0625
447.9210, 529.7539
448.4030, 541.5078
448.8850, 523.4531
449.3670, 508.0117
449.8490, 493.5664
450.3310, 465.6797
450.8130, 412.8477
451.2960, 357.0898
451.7780, 340.6211
452.2600, 378.8320
452.7420, 401.9531
453.2240, 367.5195
453.7060, 344.8047
454.1880, 417.4414
454.6700, 557.5195
455.1520, 651.6016
455.6350, 618.1992
456.1170, 492.6523
456.5990, 422.0938
457.0810, 426.6094
457.5630, 456.2852
458.0450, 533.1836
458.5270, 608.5703
459.0090, 632.3320
459.4920, 604.7734
459.9740, 584.4648
460.4560, 637.2539
460.9380, 740.3789
461.4200, 791.4375
461.9020, 773.1055
462.3840, 753.4297
462.8660, 779.7227
463.3490, 827.3438
463.8310, 850.4102
464.3130, 843.5703
464.7950, 815.5312
465.2770, 738.2148
465.7590, 652.2812
466.2410, 649.1523
466.7230, 746.2695
467.2050, 835.0312
467.6880, 793.9766
468.1700, 607.4492
468.6520, 526.3438
469.1340, 644.1992
469.6160, 746.1797
470.0980, 759.1133
470.5800, 722.0977
471.0620, 692.8281
471.5440, 691.2031
472.0270, 695.2812
472.5090, 669.6914
472.9910, 609.8359
473.4730, 561.6367
473.9550, 531.1758
474.4370, 508.8828
474.9190, 498.3359
475.4010, 491.3008
475.8840, 466.8320
476.3660, 409.2773
476.8480, 342.9297
477.3300, 295.0547
477.8120, 260.8867
478.2940, 212.6602
478.7760, 133.6289
479.2580, 63.55469
479.7410, 62.75781
480.2230, 156.5469
480.7050, 212.5781
481.1870, 197.9336
481.6690, 174.4766
482.1510, 181.8398
482.6330, 208.2383
483.1150, 220.4648
483.5970, 201.0859
484.0790, 163.6836
484.5620, 134.2188
485.0440, 106.9570
485.5260, 103.9141
486.0080, 148.1758
486.4900, 199.6992
486.9720, 246.4414
487.4540, 283.7891
487.9360, 302.7031
488.4190, 296.7070
488.9010, 270.2422
489.3830, 210.1094
489.8650, 119.1016
490.3470, 87.78516
490.8290, 181.0156
491.3110, 309.1250
491.7930, 304.4180
492.2760, 135.0625
492.7580, 31.63672
493.2400, 82.29688
493.7220, 159.8008
494.2040, 170.7070
494.6860, 122.5703
495.1680, 64.18750
495.6500, 22.66016
496.1320, 2.035156
496.6150, 7.964844
497.0970, 22.23047
497.5790, 34.98438
498.0610, 2.835938
498.5430, 28.19141
499.0250, 18.41406
499.5070, 22.41406
499.9890, 44.29688
500.4710, 2.906250
500.9540, 75.94531
501.4360, 80.46484
501.9180, 14.10156
502.4000, 24.46875
502.8820, 22.47266
503.3640, 97.28516
503.8460, 88.86719
504.3280, 22.45312
504.8100, 99.18359
505.2930, 85.64453
505.7750, 51.43750
506.2570, 51.96484
506.7390, 84.52344
507.2210, 122.9023
507.7030, 152.8672
508.1850, 172.4258
508.6680, 172.5234
509.1500, 135.3477
509.6320, 116.8906
510.1140, 136.2227
510.5960, 162.6211
511.0780, 184.6055
511.5600, 198.2695
512.0420, 196.5156
512.5240, 163.9961
513.0060, 123.3398
513.4890, 106.7305
513.9710, 112.8047
514.4530, 138.4102
514.9350, 194.3516
515.4170, 254.4766
515.8990, 273.5469
516.3810, 246.5508
516.8640, 215.7344
517.3460, 180.3945
517.8280, 148.4258
518.3100, 119.0781
518.7920, 96.80859
519.2740, 92.64062
519.7560, 113.2383
520.2380, 149.7070
520.7200, 181.5430
521.2030, 203.5586
521.6850, 235.7383
522.1670, 307.8438
522.6490, 364.5859
523.1310, 376.3398
523.6130, 349.5195
524.0950, 303.5273
524.5770, 228.5742
525.0590, 159.8945
525.5420, 143.7852
526.0240, 173.9688
526.5060, 219.2148
526.9880, 277.3984
527.4700, 324.8398
527.9520, 325.7578
528.4340, 266.7188
528.9160, 236.3789
529.3980, 265.9141
529.8810, 292.3320
530.3630, 289.6016
530.8450, 263.2227
531.3270, 219.7578
531.8090, 162.8516
532.2910, 106.4648
532.7730, 71.71094
533.2550, 59.98438
533.7370, 56.12500
534.2200, 50.31641
534.7020, 66.94922
535.1840, 143.9336
535.6660, 245.6172
536.1480, 301.3203
536.6300, 276.9102
537.1120, 246.6328
537.5940, 274.4141
538.0770, 333.7344
538.5590, 357.0156
539.0410, 330.5898
539.5230, 283.2930
540.0050, 237.4883
540.4870, 193.3750
540.9690, 177.6133
541.4510, 225.6445
541.9330, 257.3438
542.4160, 250.0078
542.8980, 226.0977
543.3800, 205.0547
543.8620, 192.0156
544.3440, 186.7344
544.8260, 196.0820
545.3080, 214.1680
545.7910, 213.3711
546.2730, 191.4180
546.7550, 162.6562
547.2370, 125.2891
547.7190, 91.05859
548.2010, 86.73828
548.6830, 128.2031
549.1650, 140.7617
549.6470, 50.78516
550.1300, 38.10938
550.6120, 7.902344
551.0940, 119.2500
551.5760, 228.0703
552.0580, 249.5078
552.5400, 212.7852
553.0220, 199.3164
553.5040, 224.2930
553.9870, 231.3594
554.4690, 189.3867
554.9510, 153.2969
555.4330, 159.6523
555.9150, 194.8281
556.3970, 213.6523
556.8790, 185.6328
557.3610, 154.9805
557.8430, 174.1484
558.3260, 229.8672
558.8080, 271.2305
559.2900, 288.3789
559.7720, 301.3438
560.2540, 328.0508
560.7360, 368.6367
561.2180, 379.7617
561.7000, 360.3008
562.1820, 333.1211
562.6650, 291.1914
563.1470, 242.0078
563.6290, 186.6211
564.1110, 128.3320
564.5930, 87.37500
565.0750, 96.62891
565.5570, 146.0781
566.0390, 165.7344
566.5210, 145.4336
567.0040, 130.6289
567.4860, 157.7031
567.9680, 197.6250
568.4500, 191.4570
568.9320, 124.2305
569.4140, 58.51562
569.8960, 3.796875
570.3780, 34.42578
570.8600, 45.53125
571.3430, 34.04688
571.8250, 16.88672
572.3070, 4.140625
572.7890, 8.648438
573.2710, 38.14844
573.7530, 100.4180
574.2350, 128.4922
574.7180, 85.79688
575.2000, 36.88672
575.6820, 15.19141
576.1640, 16.52734
576.6460, 26.68359
577.1280, 44.03906
577.6100, 64.25781
578.0920, 89.04688
578.5740, 113.2539
579.0570, 122.6250
579.5390, 113.6719
580.0210, 94.27344
580.5030, 67.62109
580.9850, 33.86719
581.4670, 34.68750
581.9490, 120.1289
582.4310, 179.1602
582.9140, 173.5469
583.3960, 148.1719
583.8780, 148.7734
584.3600, 178.9062
584.8420, 203.2812
585.3240, 188.2305
585.8060, 150.6016
586.2880, 128.5312
586.7700, 121.9102
587.2530, 114.9141
587.7350, 97.83984
588.2170, 83.33594
588.6990, 95.59375
589.1810, 148.0977
589.6630, 178.2500
590.1450, 181.1836
590.6270, 164.6914
591.1090, 116.2461
591.5920, 56.85156
592.0740, 25.25000
592.5560, 35.51172
593.0380, 53.35547
593.5200, 11.40625
594.0020, 83.63281
594.4840, 85.00781
594.9660, 48.67969
595.4480, 179.2188
595.9310, 232.0156
596.4130, 224.1758
596.8950, 197.9648
597.3770, 139.5273
597.8590, 95.54297
598.3410, 85.69531
598.8230, 91.95312
599.3050, 96.33203
599.7870, 100.6523
600.2700, 124.2227
600.7520, 182.4531
601.2340, 247.5508
601.7160, 245.2148
602.1980, 156.5273
602.6800, 93.85547
603.1620, 83.35938
603.6440, 85.66016
604.1270, 72.29688
604.6090, 51.12109
605.0910, 42.99219
605.5730, 59.44531
606.0550, 79.17578
606.5370, 92.46680
607.0190, 102.7656
607.5010, 105.9512
607.9840, 98.77344
608.4660, 99.64844
608.9480, 126.7637
609.4300, 171.2676
609.9120, 170.6250
610.3940, 71.89453
610.8760, 28.15039
611.3580, 135.8594
611.8410, 251.9141
612.3230, 273.6758
612.8050, 213.9160
613.2870, 159.0859
613.7690, 143.8340
614.2510, 149.8457
614.7330, 172.4219
615.2150, 201.4180
615.6970, 211.3652
616.1800, 195.5098
616.6620, 161.1660
617.1440, 108.5723
617.6260, 38.28906
618.1080, 25.66992
618.5900, 143.8164
619.0720, 215.5742
619.5540, 168.6895
620.0360, 92.44336
620.5190, 49.15820
621.0010, 50.86914
621.4830, 105.6270
621.9650, 296.7754
622.4470, 492.6777
622.9290, 484.4941
623.4110, 314.8926
623.8930, 192.7500
624.3750, 193.6523
624.8580, 236.1445
625.3400, 208.3164
625.8220, 92.86914
626.3040, 43.69141
626.7860, 139.8672
627.2680, 210.7480
627.7500, 201.3984
628.2320, 156.7422
628.7140, 122.3867
629.1970, 109.4434
629.6790, 117.2461
630.1610, 174.4609
630.6430, 238.7695
631.1250, 221.7793
631.6070, 133.1621
632.0890, 67.09180
632.5710, 62.58008
633.0540, 91.99609
633.5360, 115.8047
634.0180, 133.4336
634.5000, 148.5234
634.9820, 171.8281
635.4640, 179.9453
635.9460, 144.5547
636.4280, 99.95898
636.9110, 92.91797
637.3930, 133.0664
637.8750, 176.4863
638.3570, 190.3926
638.8390, 184.1309
639.3210, 173.4102
639.8030, 159.5078
640.2850, 144.6211
640.7680, 127.7227
641.2500, 116.8770
641.7320, 130.0762
642.2140, 184.2383
642.6960, 199.9883
643.1780, 132.8887
643.6600, 80.60938
644.1420, 83.80469
644.6240, 117.3906
645.1070, 156.9961
645.5890, 195.8770
646.0710, 208.4160
646.5530, 148.2207
647.0350, 58.77344
647.5170, 30.80273
647.9990, 62.40430
648.4810, 87.69531
648.9630, 77.16797
649.4460, 46.41992
649.9280, 19.97852
650.4100, 5.548828
650.8920, 10.96289
651.3740, 18.66406
651.8560, 45.04492
652.3380, 70.19336
652.8200, 92.44336
653.3020, 90.48242
653.7850, 60.19141
654.2670, 41.90820
654.7490, 82.86133
655.2310, 145.2930
655.7130, 161.2598
656.1950, 134.4121
656.6770, 112.9258
657.1590, 118.2422
657.6410, 134.9648
658.1240, 137.9648
658.6060, 122.8652
659.0880, 112.9062
659.5700, 111.8379
660.0520, 111.9121
660.5340, 113.3535
661.0160, 113.6895
661.4980, 111.9668
661.9810, 108.0273
662.4630, 95.76758
662.9450, 69.48633
663.4270, 34.75586
663.9090, 10.28125
664.3910, 58.60547
664.8730, 79.61133
665.3550, 60.22852
665.8380, 29.14453
666.3200, 31.32812
666.8020, 73.70117
667.2840, 79.07812
667.7660, 20.49805
668.2480, 34.57617
668.7300, 66.67383
669.2120, 86.22070
669.6950, 105.5391
670.1770, 125.5996
670.6590, 126.1699
671.1410, 70.40039
671.6230, 14.73047
672.1050, 18.53125
672.5870, 63.05469
673.0690, 101.3027
673.5510, 117.9824
674.0340, 123.7129
674.5160, 130.4336
674.9980, 137.5352
675.4800, 138.7578
675.9620, 133.2520
676.4440, 125.2656
676.9260, 106.2598
677.4080, 92.21484
677.8900, 104.9980
678.3730, 142.9844
678.8550, 167.6035
679.3370, 168.3359
679.8190, 154.9258
680.3010, 122.3789
680.7830, 83.89062
681.2650, 57.89453
681.7470, 48.06641
682.2290, 46.45117
682.7120, 48.25391
683.1940, 50.51367
683.6760, 40.03516
684.1580, 13.69336
684.6400, 5.314453
685.1220, 10.85352
685.6040, 9.857422
686.0860, 11.88086
686.5680, 15.41992
687.0510, 0.1621090
687.5330, 50.05664
688.0150, 99.24609
688.4970, 139.8438
688.9790, 173.7305
689.4610, 207.6895
689.9430, 237.8730
690.4250, 246.6465
690.9080, 215.4336
691.3900, 173.8965
691.8720, 183.6758
692.3540, 233.2637
692.8360, 229.6270
693.3180, 146.2227
693.8000, 82.91602
694.2820, 128.1094
694.7650, 253.1016
695.2470, 319.3496
695.7290, 257.0195
696.2110, 239.9727
696.6930, 323.6094
697.1750, 404.0527
697.6570, 420.4473
698.1390, 385.8281
698.6220, 331.4648
699.1040, 260.0723
699.5860, 204.6660
700.0680, 196.0312
700.5500, 220.7070
701.0320, 266.7539
701.5140, 326.9062
701.9960, 369.6523
702.4780, 378.0684
702.9610, 358.1016
703.4430, 319.1777
703.9250, 255.3145
704.4070, 194.1562
704.8890, 117.3398
705.3710, 70.76367
705.8530, 99.80859
706.3350, 159.1562
706.8170, 187.9902
707.3000, 175.5449
707.7820, 168.0547
708.2640, 187.6973
708.7460, 211.8828
709.2280, 224.8340
709.7100, 228.7852
710.1920, 236.7402
710.6740, 250.9824
711.1560, 250.2266
711.6390, 199.4531
712.1210, 112.4238
712.6030, 64.97461
713.0850, 59.66016
713.5670, 72.31836
714.0490, 96.59766
714.5310, 134.4258
715.0130, 200.0781
715.4950, 298.4160
715.9780, 332.4883
716.4600, 251.6309
716.9420, 173.9844
717.4240, 113.7324
717.9060, 80.12500
718.3880, 91.04492
718.8700, 138.9512
719.3520, 190.9023
719.8350, 232.6914
720.3170, 263.3672
720.7990, 279.4941
721.2810, 283.1367
721.7630, 277.6523
722.2450, 262.2188
722.7270, 247.9727
723.2090, 245.7090
723.6920, 251.0469
724.1740, 242.8184
724.6560, 209.8516
725.1380, 187.7305
725.6200, 200.5664
726.1020, 205.1348
726.5840, 160.7324
727.0660, 97.39844
727.5490, 78.00000
728.0310, 129.5996
728.5130, 164.0879
728.9950, 129.5488
729.4770, 78.25781
729.9590, 56.77734
730.4410, 57.94727
730.9230, 51.25781
731.4050, 25.69922
731.8880, 8.623047
732.3700, 46.66211
732.8520, 125.3066
733.3340, 160.0078
733.8160, 146.3945
734.2980, 130.1309
734.7800, 126.5098
735.2620, 129.5723
735.7440, 129.5723
736.2270, 123.6387
736.7090, 139.2344
737.1910, 191.7227
737.6730, 244.4648
738.1550, 310.9434
738.6370, 359.3750
739.1190, 349.3516
739.6010, 290.2461
740.0830, 240.7852
740.5660, 234.9863
741.0480, 238.3809
741.5300, 208.5156
742.0120, 170.4746
742.4940, 182.2129
742.9760, 244.2910
743.4580, 298.2891
743.9400, 303.9922
744.4220, 277.2715
744.9050, 252.2363
745.3870, 225.2188
745.8690, 222.9902
746.3510, 258.3730
746.8330, 296.8281
747.3150, 316.6562
747.7970, 327.0508
748.2790, 350.8652
748.7620, 395.8379
749.2440, 428.3477
749.7260, 436.7852
750.2080, 440.0801
750.6900, 455.4766
751.1720, 469.3418
751.6540, 455.2090
752.1360, 409.5879
752.6190, 367.8555
753.1010, 355.6289
753.5830, 364.1445
754.0650, 395.8730
754.5470, 438.8887
755.0290, 446.5352
755.5110, 406.2559
755.9930, 337.0625
756.4760, 248.3867
756.9580, 152.0918
757.4400, 129.3242
757.9220, 215.5156
758.4040, 263.5938
758.8860, 225.9707
759.3680, 175.8164
759.8500, 171.3301
760.3320, 196.1582
760.8150, 206.3555
761.2970, 193.8457
761.7790, 176.3086
762.2610, 148.3691
762.7430, 125.4434
763.2250, 124.8145
763.7070, 136.9199
764.1890, 137.0723
764.6710, 118.2734
765.1540, 104.8555
765.6360, 124.6777
766.1180, 161.7891
766.6000, 191.1562
767.0820, 212.4961
767.5640, 213.6641
768.0460, 189.3984
768.5280, 155.0645
769.0100, 128.8379
769.4930, 111.3477
769.9750, 113.3340
770.4570, 152.5684
770.9390, 168.3418
771.4210, 113.3496
771.9030, 58.81641
772.3850, 85.75195
772.8670, 172.0918
773.3490, 223.8340
773.8320, 212.9414
774.3140, 192.2461
774.7960, 172.6523
775.2780, 153.6289
775.7600, 137.1836
776.2420, 120.4473
776.7240, 92.20312
777.2060, 46.12305
777.6890, 9.896484
778.1710, 20.75781
778.6530, 56.91211
779.1350, 74.27344
779.6170, 72.54883
780.0990, 63.66992
780.5810, 51.58984
781.0630, 49.92773
781.5450, 78.47852
782.0280, 136.0117
782.5100, 190.8477
782.9920, 251.5664
783.4740, 279.7871
783.9560, 242.0840
784.4380, 197.5000
784.9200, 204.3340
785.4030, 252.8242
785.8850, 295.0801
786.3670, 337.6992
786.8490, 363.6621
787.3310, 356.3887
787.8130, 342.7812
788.2950, 342.2285
788.7770, 350.4121
789.2590, 353.0723
789.7420, 344.4336
790.2240, 338.5938
790.7060, 358.2207
791.1880, 380.6699
791.6700, 364.0879
792.1520, 318.5586
792.6340, 288.2168
793.1160, 288.6855
793.5980, 298.2148
794.0810, 290.4082
794.5630, 269.8672
795.0450, 273.3203
795.5270, 310.4648
796.0090, 302.0801
796.4910, 210.3066
796.9730, 110.5586
797.4550, 71.38867
797.9380, 82.31445
798.4200, 78.03906
798.9020, 39.65430
799.3840, 12.47852
799.8660, 1.761719
800.3480, 2.712891
800.8300, 3.125000
801.3120, 2.296875
801.7940, 6.275391
802.2770, 17.86328
802.7590, 21.04492
803.2410, 2.255859
803.7230, 23.74023
804.2050, 50.50586
804.6870, 72.61914
805.1690, 80.78516
805.6510, 73.47461
806.1330, 55.78906
806.6160, 24.83203
807.0980, 5.236328
807.5800, 4.847656
808.0620, 49.25391
808.5440, 80.98047
809.0260, 91.36328
809.5080, 92.41406
809.9900, 91.39844
810.4720, 88.87305
810.9550, 88.54883
811.4370, 96.09180
811.9190, 85.85352
812.4010, 38.79102
812.8830, 3.005859
813.3650, 2.695313
813.8470, 24.11328
814.3300, 52.79688
814.8120, 90.17578
815.2940, 117.3789
815.7760, 137.5371
816.2580, 139.4434
816.7400, 101.0137
817.2220, 54.59570
817.7040, 32.48438
818.1860, 35.54688
818.6690, 47.48828
819.1510, 64.04297
819.6330, 78.83594
820.1150, 93.95703
820.5970, 99.76953
821.0790, 70.96484
821.5610, 15.13477
822.0430, 33.24414
822.5260, 57.83984
823.0080, 61.68359
823.4900, 38.63867
823.9720, 5.097656
824.4540, 17.72656
824.9360, 3.175781
825.4180, 17.56250
825.9000, 11.93555
826.3820, 0.8574220
826.8650, 9.312500
827.3470, 13.00391
827.8290, 5.992188
828.3110, 33.30273
828.7930, 40.04688
829.2750, 34.77734
829.7570, 98.91406
830.2390, 74.12305
830.7210, 8.078125
831.2040, 1.732422
831.6860, 73.17188
832.1680, 132.0430
832.6500, 145.6445
833.1320, 142.6758
833.6140, 123.8848
834.0960, 106.8301
834.5780, 125.2070
835.0600, 175.9707
835.5430, 202.0469
836.0250, 146.7930
836.5070, 79.49219
836.9890, 84.10938
837.4710, 124.9668
837.9530, 132.6719
838.4350, 102.3242
838.9170, 63.01562
839.4000, 30.22852
839.8820, 14.04492
840.3640, 46.56641
840.8460, 116.3730
841.3280, 117.2969
841.8100, 42.12305
842.2920, 12.43359
842.7740, 5.167969
843.2560, 26.25781
843.7390, 39.77930
844.2210, 37.64453
844.7030, 31.64648
845.1850, 12.70508
845.6670, 12.00781
846.1490, 52.67578
846.6310, 90.25977
847.1140, 85.70312
847.5960, 56.05273
848.0780, 43.74414
848.5600, 58.88867
849.0420, 67.63281
849.5240, 60.08203
850.0060, 50.17773
850.4880, 39.29297
850.9700, 32.73242
851.4530, 41.88867
851.9350, 65.46289
852.4170, 78.91406
852.8990, 58.67383
853.3810, 36.94922
853.8630, 42.37695
854.3450, 58.84570
854.8270, 57.79492
855.3090, 44.77148
855.7920, 55.57812
856.2740, 110.2617
856.7560, 170.5137
857.2380, 187.7168
857.7200, 174.5000
858.2020, 161.5352
858.6840, 150.4883
859.1660, 139.0918
859.6480, 125.9414
860.1310, 125.0996
860.6130, 157.9707
861.0950, 212.9062
861.5770, 223.6855
862.0590, 184.5371
862.5410, 137.7227
863.0230, 80.56055
863.5050, 43.54102
863.9870, 53.08008
864.4700, 88.99023
864.9520, 105.2402
865.4340, 99.50977
865.9160, 86.63086
866.3980, 47.11914
866.8800, 27.06445
867.3620, 58.34180
867.8440, 100.2422
868.3270, 110.2012
868.8090, 93.04883
869.2910, 92.44922
869.7730, 129.9492
870.2550, 164.5957
870.7370, 203.1582
871.2190, 219.5664
871.7010, 166.1152
872.1830, 83.96680
872.6660, 61.26562
873.1480, 124.0957
873.6300, 179.4043
874.1120, 157.7637
874.5940, 114.4316
875.0760, 92.75586
875.5580, 89.45703
876.0410, 100.5449
876.5230, 122.1094
877.0050, 143.6211
877.4870, 158.0879
877.9690, 169.6074
878.4510, 184.1270
878.9330, 199.9297
879.4150, 214.0176
879.8970, 223.2949
880.3800, 224.7051
880.8620, 217.9180
881.3440, 209.4727
881.8260, 208.0117
882.3080, 208.9863
882.7900, 196.8691
883.2720, 170.5703
883.7540, 146.6367
884.2370, 128.6152
884.7190, 115.6191
885.2010, 109.7832
885.6830, 103.9062
886.1650, 72.62695
886.6470, 1.855469
887.1290, 26.66992
887.6110, 1.904297
888.0930, 36.52930
888.5760, 68.42383
889.0580, 89.56641
889.5400, 89.83398
890.0220, 68.80859
890.5040, 47.33008
890.9860, 16.38281
891.4680, 3.218750
891.9500, 4.976563
892.4320, 0.7851560
892.9150, 13.50781
893.3970, 27.40820
893.8790, 30.02539
894.3610, 16.74609
894.8430, 15.91406
895.3250, 62.09961
895.8070, 94.05664
896.2890, 60.24023
896.7710, 6.232422
897.2540, 17.25977
897.7360, 8.363281
898.2180, 13.36133
898.7000, 47.35742
899.1820, 65.42188
899.6640, 21.38281
900.1460, 33.72070
900.6280, 30.58789
901.1100, 15.39844
901.5930, 56.87500
902.0750, 80.25977
902.5570, 99.82812
903.0390, 128.8770
903.5210, 159.1328
904.0030, 172.0781
904.4850, 175.8086
904.9680, 200.3223
905.4500, 244.3828
905.9320, 269.7109
906.4140, 254.8711
906.8960, 232.2891
907.3780, 255.1133
907.8600, 313.8281
908.3420, 348.7891
908.8240, 360.2324
909.3070, 359.5664
909.7890, 347.6953
910.2710, 346.7773
910.7530, 379.4473
911.2350, 428.2969
911.7170, 437.3047
912.1990, 399.3945
912.6810, 367.0293
913.1640, 338.7109
913.6460, 332.4023
914.1280, 372.1914
914.6100, 407.4121
915.0920, 359.2051
915.5740, 230.5371
916.0560, 189.0684
916.5380, 299.1406
917.0200, 363.8887
917.5030, 336.9883
917.9850, 293.5254
918.4670, 275.8027
918.9490, 270.2148
919.4310, 246.9297
919.9130, 198.5039
920.3950, 167.9297
920.8770, 171.0938
921.3590, 173.1211
921.8420, 174.1797
922.3240, 163.3242
922.8060, 110.2559
923.2880, 37.65625
923.7700, 22.48438
924.2520, 108.4062
924.7340, 171.8828
925.2160, 160.3535
925.6980, 136.8359
926.1810, 132.7930
926.6630, 141.0078
927.1450, 156.2812
927.6270, 173.6230
928.1090, 171.2461
928.5910, 113.6035
929.0730, 77.14258
929.5550, 130.3320
930.0370, 205.1465
930.5200, 244.3867
931.0020, 249.0938
931.4840, 213.5391
931.9660, 141.9043
932.4480, 105.6504
932.9300, 201.1836
933.4120, 311.0645
933.8940, 296.3750
934.3770, 225.8887
934.8590, 218.0176
935.3410, 268.2109
935.8230, 291.6699
936.3050, 247.9297
936.7870, 191.9961
937.2690, 194.0020
937.7510, 216.4512
938.2340, 186.5605
938.7160, 120.0000
939.1980, 57.01367
939.6800, 10.92188
940.1620, 3.949219
940.6440, 58.29492
941.1260, 123.8125
941.6080, 101.4219
942.0910, 22.82617
942.5730, 6.281250
943.0550, 49.17578
943.5370, 87.75195
944.0190, 101.0469
944.5010, 101.1875
944.9830, 97.57617
945.4650, 92.91797
945.9470, 84.89062
946.4300, 73.48633
946.9120, 53.43164
947.3940, 23.17578
947.8760, 27.97461
948.3580, 93.40820
948.8400, 165.2969
949.3220, 169.2734
949.8040, 117.1797
950.2860, 96.32031
950.7690, 109.8984
951.2510, 121.4629
951.7330, 126.9824
952.2150, 117.9004
952.6970, 81.96875
953.1790, 47.11914
953.6610, 70.26367
954.1430, 155.7402
954.6250, 189.2246
955.1080, 155.3633
955.5900, 124.0234
956.0720, 111.0898
956.5540, 98.39648
957.0360, 65.98828
957.5180, 30.07031
958.0000, 38.65039
958.4820, 114.7402
958.9640, 150.5820
959.4470, 124.0605
959.9290, 100.3691
960.4110, 102.1934
960.8930, 107.3477
961.3750, 93.06836
961.8570, 65.41211
962.3390, 52.87109
962.8210, 64.68359
963.3040, 71.33594
963.7860, 61.34961
964.2680, 62.68164
964.7500, 101.8555
965.2320, 142.9453
965.7140, 136.8633
966.1960, 89.26953
966.6780, 75.76953
967.1610, 133.7305
967.6430, 169.2090
968.1250, 169.2539
968.6070, 152.2266
969.0890, 106.3496
969.5710, 67.04297
970.0530, 92.29297
970.5350, 175.0684
971.0180, 194.4609
971.5000, 71.97852
971.9820, 13.86133
972.4640, 24.24414
972.9460, 2.900391
973.4280, 49.54297
973.9100, 106.1113
974.3920, 121.5195
974.8740, 89.60742
975.3570, 61.64453
975.8390, 43.43555
976.3210, 33.82812
976.8030, 34.83594
977.2850, 42.01367
977.7670, 53.93555
978.2490, 69.01953
978.7310, 87.88672
979.2130, 112.8887
979.6960, 121.7070
980.1780, 91.07812
980.6600, 66.17578
981.1420, 61.41211
981.6240, 71.91406
982.1060, 112.1035
982.5880, 160.6680
983.0700, 162.1133
983.5520, 93.93555
984.0350, 40.23438
984.5170, 38.53711
984.9990, 43.66992
985.4810, 28.02734
985.9630, 13.46680
986.4450, 35.48047
986.9270, 78.19336
987.4090, 83.67188
987.8910, 24.34961
988.3740, 21.03906
988.8560, 12.06836
989.3380, 6.039063
989.8200, 3.695313
990.3020, 0.4921880
990.7840, 25.50000
991.2660, 71.29102
991.7480, 88.22852
992.2310, 50.90234
992.7130, 17.96484
993.1950, 19.41211
993.6770, 27.48828
994.1590, 26.92578
994.6410, 20.85938
995.1230, 9.251953
995.6050, 3.515625
996.0880, 2.605469
996.5700, 18.68945
997.0520, 49.73438
997.5340, 101.9160
998.0160, 144.9141
998.4980, 152.1836
998.9800, 140.0137
999.4620, 128.2520
999.9450, 120.2520
1000.427, 114.0508
1000.909, 105.1406
1001.391, 106.4590
1001.873, 138.6855
1002.355, 168.5605
1002.837, 158.3008
1003.319, 136.8340
1003.801, 153.6855
1004.284, 207.5039
1004.766, 244.2812
1005.248, 241.9883
1005.730, 222.8242
1006.212, 184.4941
1006.694, 146.6328
1007.176, 119.7734
1007.658, 105.4824
1008.140, 112.9121
1008.623, 137.3770
1009.105, 142.9746
1009.587, 103.6992
1010.069, 65.91602
1010.551, 44.11914
1011.033, 38.10156
1011.515, 55.17578
1011.997, 84.24414
1012.479, 113.0586
1012.962, 138.3340
1013.444, 154.6152
1013.926, 162.6250
1014.408, 156.6797
1014.890, 104.7520
1015.372, 66.72070
1015.854, 118.0527
1016.336, 197.5488
1016.819, 198.8008
1017.301, 118.3438
1017.783, 66.53516
1018.265, 107.2090
1018.747, 139.1484
1019.229, 113.2402
1019.711, 77.51758
1020.193, 59.20312
1020.675, 55.18164
1021.158, 61.59375
1021.640, 75.97461
1022.122, 85.40820
1022.604, 93.66992
1023.086, 85.38281
1023.568, 39.93164
1024.050, 6.357422
1024.532, 38.93945
1025.015, 53.26953
1025.497, 31.44922
1025.979, 20.61328
1026.461, 38.10742
1026.943, 49.41016
1027.425, 86.25000
1027.907, 25.12500
1028.389, 130.2344
1028.871, 117.5977
1029.354, 62.90625
1029.836, 75.59570
1030.318, 154.7383
1030.800, 195.6172
1031.282, 134.9648
1031.764, 103.6797
1032.246, 152.7402
1032.728, 199.5957
1033.210, 204.3105
1033.693, 184.8945
1034.175, 151.3301
1034.657, 109.7637
1035.139, 105.1816
1035.621, 189.2812
1036.103, 234.0449
1036.585, 196.8789
1037.067, 160.2461
1037.550, 170.2969
1038.032, 188.2207
1038.514, 167.1406
1038.996, 112.4531
1039.478, 69.27539
1039.960, 19.67969
1040.442, 14.34961
1040.924, 85.27734
1041.406, 154.8105
1041.889, 211.8223
1042.371, 240.5293
1042.853, 215.2754
1043.335, 147.3770
1043.817, 93.41406
1044.299, 52.66211
1044.781, 27.85742
1045.263, 22.54492
1045.745, 24.88281
1046.228, 28.09375
1046.710, 43.16602
1047.192, 87.77539
1047.674, 145.8359
1048.156, 159.3672
1048.638, 113.7070
1049.120, 86.79102
1049.602, 84.64844
1050.085, 81.48828
1050.567, 67.78320
1051.049, 58.74805
1051.531, 68.85352
1052.013, 89.48438
1052.495, 96.84375
1052.977, 89.02148
1053.459, 93.08398
1053.942, 109.6777
1054.424, 117.2539
1054.906, 109.0312
1055.388, 96.30664
1055.870, 84.69531
1056.352, 79.37500
1056.834, 94.65625
1057.316, 127.9375
1057.798, 145.0723
1058.281, 145.9844
1058.763, 119.9004
1059.245, 64.51758
1059.727, 39.38281
1060.209, 83.06250
1060.691, 141.0625
1061.173, 124.0488
1061.655, 56.41016
1062.137, 35.48633
1062.620, 51.63672
1063.102, 50.20703
1063.584, 26.26562
1064.066, 12.79492
1064.548, 25.16211
1065.030, 48.81250
1065.512, 71.07812
1065.994, 90.18750
1066.477, 104.6133
1066.959, 112.2422
1067.441, 101.5078
1067.923, 77.83984
1068.405, 67.99414
1068.887, 80.25586
1069.369, 89.92578
1069.851, 74.38867
1070.333, 48.84375
1070.816, 29.17383
1071.298, 13.57617
1071.780, 6.566406
1072.262, 23.40234
1072.744, 12.65039
1073.226, 27.01367
1073.708, 64.48047
1074.190, 83.25781
1074.672, 91.53320
1075.155, 86.97070
1075.637, 82.63281
1076.119, 96.59961
1076.601, 116.3457
1077.083, 124.3730
1077.565, 117.1992
1078.047, 92.81445
1078.530, 33.46484
1079.012, 2.949219
1079.494, 55.45312
1079.976, 112.0469
1080.458, 131.3926
1080.940, 126.8613
1081.422, 108.2734
1081.904, 80.34375
1082.386, 50.11719
1082.869, 8.035156
1083.351, 9.365234
1083.833, 120.2891
1084.315, 198.6465
1084.797, 183.8730
1085.279, 131.9316
1085.761, 71.55859
1086.243, 14.19531
1086.725, 1.972656
1087.208, 46.72461
1087.690, 63.63281
1088.172, 28.17773
1088.654, 15.79297
1089.136, 51.56055
1089.618, 85.89453
1090.100, 86.32422
1090.582, 77.81055
1091.065, 103.6816
1091.547, 158.8574
1092.029, 159.6855
1092.511, 88.46680
1092.993, 75.66406
1093.475, 146.9297
1093.957, 198.5566
1094.439, 186.0996
1094.922, 141.8809
1095.404, 91.90234
1095.886, 50.45312
1096.368, 77.47852
1096.850, 163.5410
1097.332, 206.3730
1097.814, 203.2148
1098.296, 195.6934
1098.778, 194.7773
1099.260, 175.8613
1099.743, 117.5664
1100.225, 53.56445
1100.707, 34.66211
1101.189, 47.25195
1101.671, 70.25586
1102.153, 96.83594
1102.635, 112.8496
1103.117, 116.7754
1103.600, 113.3242
1104.082, 104.4609
1104.564, 94.39453
1105.046, 83.84766
1105.528, 76.85547
1106.010, 83.46289
1106.492, 92.01953
1106.974, 83.66797
1107.457, 65.36328
1107.939, 57.28125
1108.421, 64.21680
1108.903, 74.43555
1109.385, 99.11523
1109.867, 103.0488
1110.349, 33.71680
1110.831, 22.61914
1111.313, 17.59766
1111.796, 94.28711
1112.278, 118.6387
1112.760, 89.42773
1113.242, 67.37305
1113.724, 55.13867
1114.206, 58.42969
1114.688, 97.98633
1115.170, 125.7188
1115.652, 119.2656
1116.135, 105.9297
1116.617, 110.0645
1117.099, 124.0664
1117.581, 124.5566
1118.063, 108.5117
1118.545, 102.5879
1119.027, 110.2715
1119.509, 116.9570
1119.992, 122.1973
1120.474, 111.9336
1120.956, 73.72852
1121.438, 34.88086
1121.920, 37.17969
1122.402, 73.68359
1122.884, 123.4043
1123.366, 180.4922
1123.849, 194.5020
1124.331, 164.9238
1124.813, 131.4746
1125.295, 109.9277
1125.777, 111.2051
1126.259, 154.4258
1126.741, 196.0430
1127.223, 150.7695
1127.705, 77.60742
1128.188, 99.33398
1128.670, 168.8574
1129.152, 155.6367
1129.634, 58.89258
1130.116, 5.572266
1130.598, 20.34375
1131.080, 58.19531
1131.562, 60.16602
1132.044, 49.16602
1132.527, 25.82617
1133.009, 11.11133
1133.491, 37.62891
1133.973, 85.89258
1134.455, 110.6387
1134.937, 103.9199
1135.419, 93.02930
1135.901, 78.39453
1136.384, 67.07031
1136.866, 67.03906
1137.348, 61.84961
1137.830, 36.93164
1138.312, 8.968750
1138.794, 7.041016
1139.276, 9.859375
1139.758, 11.70898
1140.240, 72.04688
1140.723, 95.99805
1141.205, 74.66992
1141.687, 53.25781
1142.169, 41.77148
1142.651, 41.04297
1143.133, 53.97656
1143.615, 68.25195
1144.097, 58.50195
1144.579, 33.00586
1145.062, 25.15820
1145.544, 35.03320
1146.026, 76.01758
1146.508, 138.9551
1146.990, 165.4023
1147.472, 135.1777
1147.954, 91.83398
1148.436, 69.41016
1148.919, 55.45703
1149.401, 23.43359
1149.883, 0.7402340
1150.365, 47.31641
1150.847, 119.4668
1151.329, 124.1562
1151.811, 62.32227
1152.293, 18.95703
1152.776, 30.31445
1153.258, 33.07031
1153.740, 23.70703
1154.222, 62.68945
1154.704, 34.73828
1155.186, 10.16602
1155.668, 30.40039
1156.150, 38.59961
1156.632, 68.52344
1157.115, 121.9785
1157.597, 141.9473
1158.079, 105.0371
1158.561, 95.41211
1159.043, 136.7266
1159.525, 153.8848
1160.007, 110.8789
1160.489, 58.64844
1160.971, 45.28125
1161.454, 55.86328
1161.936, 48.92969
1162.418, 28.23242
1162.900, 26.64062
1163.382, 44.99219
1163.864, 101.8633
1164.346, 190.1445
1164.828, 227.9941
1165.311, 176.5801
1165.793, 105.8633
1166.275, 81.48828
1166.757, 81.53516
1167.239, 88.54883
1167.721, 94.99902
1168.203, 85.33398
1168.685, 67.53320
1169.167, 66.81348
1169.650, 82.17188
1170.132, 86.30566
1170.614, 56.94727
1171.096, 49.71484
1171.578, 112.7832
1172.060, 164.7959
1172.542, 172.4785
1173.024, 152.8848
1173.506, 104.7207
1173.989, 47.23145
1174.471, 15.99414
1174.953, 11.35352
1175.435, 29.57715
1175.917, 88.22461
1176.399, 100.0596
1176.881, 40.69043
1177.363, 14.30273
1177.846, 67.48535
1178.328, 129.2617
1178.810, 133.3906
1179.292, 105.0039
1179.774, 101.5225
1180.256, 111.4092
1180.738, 81.61328
1181.220, 26.52930
1181.703, 3.353516
1182.185, 14.16309
1182.667, 17.87402
1183.149, 1.819336
1183.631, 17.80957
1184.113, 6.564453
1184.595, 14.21582
1185.077, 35.62012
1185.559, 52.95703
1186.042, 62.38867
1186.524, 63.33398
1187.006, 50.43457
1187.488, 27.60059
1187.970, 14.29688
1188.452, 12.38770
1188.934, 25.17285
1189.416, 66.23145
1189.898, 98.29395
1190.381, 111.2129
1190.863, 119.5127
1191.345, 136.1201
1191.827, 144.1143
1192.309, 114.3418
1192.791, 56.88281
1193.273, 22.39844
1193.755, 11.11719
1194.238, 35.31738
1194.720, 90.89062
1195.202, 130.4434
1195.684, 142.1182
1196.166, 146.1123
1196.648, 155.4736
1197.130, 159.1201
1197.612, 128.3701
1198.094, 101.9492
1198.577, 147.4414
1199.059, 208.3926
1199.541, 210.0068
1200.023, 170.3008
1200.505, 134.0967
1200.987, 111.6582
1201.469, 106.6484
1201.951, 141.7646
1202.433, 154.0957
1202.916, 107.6865
1203.398, 70.19238
1203.880, 70.45605
1204.362, 79.44434
1204.844, 79.05469
1205.326, 70.29492
1205.808, 53.07617
1206.290, 28.56934
1206.773, 17.92969
1207.255, 21.41016
1207.737, 6.637695
1208.219, 26.92480
1208.701, 28.53516
1209.183, 16.30176
1209.665, 51.30273
1210.147, 30.11133
1210.630, 1.376953
1211.112, 32.35449
1211.594, 82.88184
1212.076, 111.4863
1212.558, 121.5273
1213.040, 101.2275
1213.522, 67.04590
1214.004, 64.41699
1214.486, 101.8369
1214.969, 132.3564
1215.451, 137.3086
1215.933, 143.0020
1216.415, 160.5986
1216.897, 166.6689
1217.379, 141.2734
1217.861, 119.6035
1218.343, 135.8438
1218.825, 167.5566
1219.308, 163.1621
1219.790, 126.1621
1220.272, 110.1924
1220.754, 114.4375
1221.236, 117.9141
1221.718, 118.9287
1222.200, 122.2725
1222.682, 130.7402
1223.165, 154.1904
1223.647, 205.9775
1224.129, 245.6289
1224.611, 201.2021
1225.093, 153.2490
1225.575, 218.8926
1226.057, 308.4775
1226.539, 299.8232
1227.021, 221.6816
1227.504, 152.4951
1227.986, 106.9443
1228.468, 87.71484
1228.950, 122.3301
1229.432, 148.4463
1229.914, 165.1807
1230.396, 165.9043
1230.878, 141.5439
1231.360, 120.8066
1231.843, 127.2441
1232.325, 138.3369
1232.807, 111.9531
1233.289, 58.87598
1233.771, 23.91406
1234.253, 9.259766
1234.735, 31.68359
1235.217, 78.66992
1235.700, 90.55859
1236.182, 60.85156
1236.664, 52.90430
1237.146, 106.5381
1237.628, 154.8262
1238.110, 150.8877
1238.592, 127.8242
1239.074, 83.82129
1239.557, 51.85156
1240.039, 82.45605
1240.521, 131.0215
1241.003, 95.76758
1241.485, 7.920898
1241.967, 6.678711
1242.449, 88.69629
1242.931, 125.8447
1243.413, 90.41309
1243.896, 79.86133
1244.378, 117.5400
1244.860, 142.3135
1245.342, 121.0967
1245.824, 87.05469
1246.306, 71.87207
1246.788, 76.00391
1247.270, 117.9199
1247.752, 166.4619
1248.235, 171.0596
1248.717, 146.0146
1249.199, 113.1016
1249.681, 82.70898
1250.163, 75.51562
1250.645, 100.6836
1251.127, 111.6719
1251.609, 86.60254
1252.092, 61.70898
1252.574, 35.61133
1253.056, 23.59668
1253.538, 37.37988
1254.020, 53.21973
1254.502, 54.61816
1254.984, 41.24316
1255.466, 11.01953
1255.948, 28.07520
1256.431, 8.336914
1256.913, 53.72461
1257.395, 77.28906
1257.877, 61.70020
1258.359, 52.50684
1258.841, 59.58105
1259.323, 95.51465
1259.805, 184.9961
1260.287, 239.2354
1260.770, 162.6514
1261.252, 85.98633
1261.734, 89.60449
1262.216, 116.6504
1262.698, 117.7148
1263.180, 107.9111
1263.662, 123.0781
1264.144, 157.4004
1264.627, 158.5391
1265.109, 157.2090
1265.591, 149.5186
1266.073, 123.7158
1266.555, 102.1572
1267.037, 88.03125
1267.519, 77.03223
1268.001, 66.28516
1268.484, 50.46094
1268.966, 19.39551
1269.448, 1.668945
1269.930, 21.25195
1270.412, 53.17676
1270.894, 62.11230
1271.376, 44.21582
1271.858, 24.35840
1272.340, 0.8027340
1272.823, 0.0000000E+00
##END=



