##NAMES=Apachite
##RRUFFID=R060694
##IDEAL CHEMISTRY=Cu^2+^_9_Si_10_O_29_&#183;11H_2_O
##LOCALITY=Christmas mine, Gila County, Arizona, USA
##OWNER=RRUFF
##SOURCE=Bob Jenkins
##DESCRIPTION=Spherical aggregates of pale blue fibers, associated with yellowish-orange andradite and colorless calcite
##STATUS=The identification of this mineral is not yet confirmed.
##URL=rruff.info/R060694
210.7193, 0.0000000E+00
211.2014, 14.04248
211.6835, 8.249512
212.1656, 0.4707030
212.6478, 13.47461
213.1299, 22.71436
213.6120, 22.54590
214.0941, 21.02588
214.5762, 19.27100
215.0583, 17.86133
215.5405, 20.65771
216.0226, 33.61426
216.5047, 61.67627
216.9868, 74.45361
217.4689, 56.16113
217.9510, 36.14062
218.4332, 37.13086
218.9153, 58.50586
219.3974, 81.90088
219.8795, 91.33789
220.3616, 93.76367
220.8437, 85.64404
221.3259, 83.89355
221.8080, 78.89893
222.2901, 63.97461
222.7722, 42.16357
223.2543, 21.59668
223.7364, 7.213867
224.2186, 0.9790040
224.7007, 3.213867
225.1828, 38.24463
225.6649, 67.47607
226.1470, 79.87500
226.6291, 78.31934
227.1113, 69.96484
227.5934, 58.82764
228.0755, 45.09326
228.5576, 29.47070
229.0397, 1.806152
229.5218, 14.43750
230.0040, 8.495117
230.4861, 11.40381
230.9682, 34.11670
231.4503, 54.67041
231.9324, 71.74121
232.4145, 79.18604
232.8967, 69.30225
233.3788, 61.45361
233.8609, 63.46143
234.3430, 68.97461
234.8251, 68.39893
235.3072, 55.82812
235.7894, 40.32324
236.2715, 45.90283
236.7536, 88.95557
237.2357, 118.3667
237.7178, 116.1533
238.1999, 99.91650
238.6821, 83.87451
239.1642, 72.55811
239.6463, 65.32324
240.1284, 62.49707
240.6105, 66.64648
241.0926, 67.02832
241.5748, 55.89746
242.0569, 42.99951
242.5390, 35.55762
243.0211, 35.17432
243.5032, 36.83838
243.9853, 32.99414
244.4675, 22.07764
244.9496, 18.27539
245.4317, 31.84570
245.9138, 48.17871
246.3959, 57.66504
246.8780, 59.86963
247.3602, 62.30225
247.8423, 76.21582
248.3244, 100.9502
248.8065, 110.0454
249.2886, 87.88281
249.7707, 62.37402
250.2529, 50.70947
250.7350, 51.80420
251.2171, 56.66357
251.6992, 60.26367
252.1813, 63.03906
252.6634, 67.20410
253.1456, 77.58984
253.6277, 83.38916
254.1098, 83.63574
254.5919, 80.54785
255.0740, 79.41064
255.5561, 83.09570
256.0382, 90.35400
256.5204, 100.2163
257.0025, 115.1484
257.4846, 125.1489
257.9667, 118.9438
258.4488, 104.1245
258.9309, 92.85596
259.4131, 91.12256
259.8952, 92.62061
260.3773, 89.36572
260.8594, 81.03564
261.3415, 71.70703
261.8236, 59.08887
262.3058, 48.70850
262.7879, 50.78516
263.2700, 73.50391
263.7521, 98.26221
264.2342, 113.2114
264.7163, 118.3174
265.1985, 109.3193
265.6806, 75.64355
266.1627, 34.72559
266.6448, 19.66602
267.1269, 39.41064
267.6090, 58.46387
268.0912, 55.48291
268.5733, 39.05713
269.0554, 30.84424
269.5375, 40.13574
270.0196, 53.87451
270.5017, 47.61084
270.9839, 17.66943
271.4660, 1.074707
271.9481, 10.99512
272.4302, 35.49365
272.9123, 46.65674
273.3944, 38.96680
273.8766, 25.64014
274.3587, 21.11865
274.8408, 27.02539
275.3229, 30.33545
275.8050, 29.62744
276.2871, 26.60059
276.7693, 16.54883
277.2514, 1.779785
277.7335, 4.3457001E-02
278.2156, 30.09766
278.6977, 92.56934
279.1798, 128.9292
279.6620, 127.7539
280.1441, 115.6582
280.6262, 95.95898
281.1083, 74.42432
281.5904, 63.43213
282.0725, 71.07764
282.5547, 94.48486
283.0368, 115.2695
283.5189, 142.0508
284.0010, 155.4800
284.4831, 144.4795
284.9652, 120.5425
285.4474, 98.64453
285.9295, 85.06738
286.4116, 75.41455
286.8937, 59.06543
287.3758, 20.88965
287.8579, 0.4970700
288.3401, 7.244141
288.8222, 23.42188
289.3043, 32.90283
289.7864, 32.34717
290.2685, 26.90283
290.7506, 23.19043
291.2328, 22.73779
291.7149, 19.04639
292.1970, 7.131836
292.6791, 3.259277
293.1612, 5.528320
293.6433, 1.484375
294.1255, 1.226563
294.6076, 5.926758
295.0897, 22.23486
295.5718, 25.17725
296.0539, 3.746582
296.5360, 18.82959
297.0182, 37.70068
297.5003, 52.29639
297.9824, 62.02002
298.4645, 65.86426
298.9466, 65.39258
299.4287, 64.22998
299.9109, 61.64990
300.3930, 59.92578
300.8751, 58.89697
301.3572, 60.42920
301.8393, 66.69678
302.3214, 75.18652
302.8036, 83.07568
303.2857, 90.94043
303.7678, 99.34668
304.2499, 101.5010
304.7320, 89.94385
305.2141, 76.54736
305.6963, 72.14404
306.1784, 77.35010
306.6605, 87.05322
307.1426, 98.37695
307.6247, 108.1118
308.1068, 107.9868
308.5890, 94.15283
309.0711, 80.53125
309.5532, 88.56738
310.0353, 111.4961
310.5174, 116.9150
310.9995, 75.44727
311.4817, 23.54492
311.9638, 6.602539
312.4459, 26.45996
312.9280, 52.62939
313.4101, 68.04492
313.8922, 72.51318
314.3744, 70.83350
314.8565, 59.68701
315.3386, 45.95361
315.8207, 26.77783
316.3028, 7.259766
316.7849, 2.886230
317.2671, 23.08203
317.7492, 56.24023
318.2313, 73.83301
318.7134, 68.85400
319.1955, 61.53662
319.6776, 51.56152
320.1598, 41.66992
320.6419, 34.75684
321.1240, 31.46338
321.6061, 30.56885
322.0882, 29.95801
322.5703, 27.15625
323.0525, 33.90625
323.5346, 60.22266
324.0167, 85.55908
324.4988, 96.66846
324.9809, 96.39453
325.4630, 96.50586
325.9452, 106.6924
326.4273, 125.8804
326.9094, 139.4976
327.3915, 139.2617
327.8736, 142.9102
328.3557, 165.3745
328.8379, 189.9897
329.3200, 191.0400
329.8021, 156.0664
330.2842, 106.4062
330.7663, 86.59619
331.2484, 109.2700
331.7306, 126.1030
332.2127, 124.7886
332.6948, 117.3130
333.1769, 110.9287
333.6590, 106.8140
334.1411, 102.2666
334.6233, 93.74561
335.1054, 81.84033
335.5875, 73.26709
336.0696, 70.87744
336.5517, 69.04150
337.0338, 60.66113
337.5160, 49.06543
337.9981, 44.90283
338.4802, 59.85059
338.9623, 81.94580
339.4444, 91.83643
339.9265, 88.45898
340.4087, 82.77393
340.8908, 80.55078
341.3729, 80.28613
341.8550, 77.91553
342.3371, 71.00195
342.8192, 65.18701
343.3014, 64.04199
343.7835, 66.39893
344.2656, 69.53662
344.7477, 72.77393
345.2298, 75.45508
345.7119, 76.09912
346.1941, 73.55127
346.6762, 72.56396
347.1583, 73.02930
347.6404, 75.61035
348.1225, 83.91113
348.6046, 96.82910
349.0868, 105.4551
349.5689, 100.2505
350.0510, 79.67432
350.5331, 67.19385
351.0152, 62.37061
351.4973, 65.17578
351.9795, 82.39209
352.4616, 105.5850
352.9437, 120.9219
353.4258, 122.1763
353.9079, 114.2627
354.3900, 105.1221
354.8722, 91.51123
355.3543, 82.34424
355.8364, 81.41309
356.3185, 82.73779
356.8006, 85.83057
357.2827, 88.95508
357.7649, 82.77539
358.2470, 47.12158
358.7291, 19.79688
359.2112, 54.46436
359.6933, 35.87891
360.1754, 5.517090
360.6576, 17.80225
361.1397, 34.34912
361.6218, 45.94287
362.1039, 56.85254
362.5860, 61.36621
363.0681, 42.97217
363.5503, 2.295898
364.0324, 36.70947
364.5145, 39.44092
364.9966, 20.71631
365.4787, 1.372070
365.9608, 31.03320
366.4430, 52.59229
366.9251, 48.80615
367.4072, 31.03027
367.8893, 25.84814
368.3714, 41.25977
368.8535, 66.08984
369.3357, 89.36621
369.8178, 112.9658
370.2999, 121.4819
370.7820, 98.81348
371.2641, 72.63721
371.7462, 65.40137
372.2284, 74.33203
372.7105, 81.19629
373.1926, 72.44482
373.6747, 50.95410
374.1568, 38.93408
374.6389, 43.85791
375.1211, 49.73633
375.6032, 54.47559
376.0853, 58.99170
376.5674, 63.12695
377.0495, 67.17188
377.5316, 74.58496
378.0138, 95.64014
378.4959, 141.6089
378.9780, 160.2974
379.4601, 115.6772
379.9422, 71.55566
380.4243, 61.41260
380.9065, 77.59619
381.3886, 89.50488
381.8707, 72.48779
382.3528, 38.17236
382.8349, 22.65430
383.3170, 31.35010
383.7992, 41.25586
384.2813, 40.02881
384.7634, 34.43896
385.2455, 32.52246
385.7276, 35.69727
386.2097, 42.23242
386.6919, 55.62646
387.1740, 72.08301
387.6561, 76.23682
388.1382, 61.09082
388.6203, 42.34082
389.1024, 41.07275
389.5846, 58.78271
390.0667, 73.39355
390.5488, 84.55029
391.0309, 90.12451
391.5130, 84.02344
391.9951, 69.31055
392.4773, 58.31934
392.9594, 59.18555
393.4415, 70.26465
393.9236, 83.25098
394.4057, 109.0142
394.8878, 122.9302
395.3700, 112.0933
395.8521, 93.44922
396.3342, 85.07275
396.8163, 91.23096
397.2984, 101.5801
397.7805, 101.3267
398.2627, 86.91748
398.7448, 80.90283
399.2269, 88.57764
399.7090, 99.57617
400.1911, 115.2051
400.6732, 130.8066
401.1554, 137.7251
401.6375, 127.0620
402.1196, 105.9858
402.6017, 87.11133
403.0838, 70.10449
403.5659, 57.48535
404.0481, 52.49561
404.5302, 51.00049
405.0123, 46.43555
405.4944, 37.24121
405.9765, 33.02686
406.4586, 43.42725
406.9408, 60.77393
407.4229, 70.69482
407.9050, 70.74463
408.3871, 68.52295
408.8692, 71.64600
409.3513, 79.99902
409.8335, 80.28711
410.3156, 61.68701
410.7977, 46.81445
411.2798, 45.73975
411.7619, 55.21680
412.2440, 71.46240
412.7262, 93.13672
413.2083, 113.5239
413.6904, 117.3877
414.1725, 89.46289
414.6546, 74.96729
415.1367, 79.98975
415.6189, 91.10059
416.1010, 105.8481
416.5831, 119.1904
417.0652, 120.9795
417.5473, 103.0322
418.0294, 72.82324
418.5116, 61.47900
418.9937, 77.03809
419.4758, 91.35498
419.9579, 90.35791
420.4400, 83.64209
420.9221, 81.46484
421.4043, 86.57471
421.8864, 90.39209
422.3685, 88.33838
422.8506, 83.28418
423.3327, 80.83594
423.8148, 80.96240
424.2970, 85.39502
424.7791, 96.26367
425.2612, 113.3906
425.7433, 125.8442
426.2254, 134.3711
426.7076, 136.7373
427.1897, 129.5898
427.6718, 115.2100
428.1539, 96.68262
428.6360, 74.37646
429.1181, 54.71387
429.6003, 53.50586
430.0824, 88.33301
430.5645, 112.6484
431.0466, 125.2324
431.5287, 129.6860
432.0108, 125.8174
432.4930, 115.5576
432.9751, 103.7788
433.4572, 94.35010
433.9393, 86.73145
434.4214, 77.77197
434.9035, 65.82324
435.3857, 56.21143
435.8678, 49.63623
436.3499, 46.96191
436.8320, 50.62598
437.3141, 62.04834
437.7962, 74.07715
438.2784, 81.04053
438.7605, 84.30713
439.2426, 88.61914
439.7247, 95.39697
440.2068, 100.6470
440.6889, 102.2109
441.1711, 99.43457
441.6532, 86.98926
442.1353, 46.84326
442.6174, 14.82764
443.0995, 13.97900
443.5816, 34.26514
444.0638, 56.07959
444.5459, 71.39648
445.0280, 81.60205
445.5101, 89.59180
445.9922, 98.13770
446.4743, 97.47900
446.9565, 74.14551
447.4386, 55.01758
447.9207, 60.26904
448.4028, 82.32666
448.8849, 97.87988
449.3670, 90.34229
449.8492, 68.46826
450.3313, 55.77539
450.8134, 54.75146
451.2955, 53.56348
451.7776, 49.62061
452.2597, 43.02490
452.7419, 30.92969
453.2240, 12.37158
453.7061, 2.053711
454.1882, 18.26123
454.6703, 43.64111
455.1524, 43.21533
455.6346, 13.87793
456.1167, 5.048340
456.5988, 21.72021
457.0809, 83.41943
457.5630, 101.1938
458.0451, 28.38818
458.5273, 23.26660
459.0093, 12.59473
459.4915, 24.61523
459.9736, 46.30957
460.4557, 42.93506
460.9378, 35.03564
461.4199, 49.52148
461.9020, 90.24170
462.3842, 108.8882
462.8663, 88.84131
463.3484, 65.43604
463.8305, 44.32910
464.3126, 29.16309
464.7947, 26.79883
465.2769, 42.30127
465.7590, 60.53467
466.2411, 63.31787
466.7232, 52.21387
467.2053, 40.95020
467.6874, 30.76025
468.1696, 24.02637
468.6517, 25.43848
469.1338, 33.85791
469.6159, 39.62939
470.0980, 41.86133
470.5801, 40.54102
471.0623, 33.51318
471.5444, 22.86719
472.0265, 12.92285
472.5086, 5.409668
472.9907, 1.259766
473.4728, 2.767090
473.9550, 12.95898
474.4371, 22.35742
474.9192, 32.40234
475.4013, 40.42529
475.8834, 42.86816
476.3655, 42.00195
476.8477, 45.25293
477.3298, 60.35889
477.8119, 76.71826
478.2940, 65.81104
478.7761, 21.87402
479.2582, 16.43359
479.7404, 46.42383
480.2225, 57.98145
480.7046, 32.65039
481.1867, 30.04102
481.6688, 76.23438
482.1509, 71.69727
482.6331, 48.20898
483.1152, 41.75439
483.5973, 52.36475
484.0794, 63.35400
484.5615, 65.50635
485.0436, 60.88379
485.5258, 56.94824
486.0079, 46.18848
486.4900, 41.86426
486.9721, 49.08105
487.4542, 59.04785
487.9363, 66.04590
488.4185, 69.22363
488.9006, 69.28467
489.3827, 64.80615
489.8648, 58.61865
490.3469, 66.47412
490.8290, 98.05420
491.3112, 118.0728
491.7933, 104.0679
492.2754, 78.83447
492.7575, 60.73389
493.2396, 51.45801
493.7217, 49.58643
494.2039, 65.12109
494.6860, 83.16406
495.1681, 73.75928
495.6502, 36.14600
496.1323, 5.067871
496.6144, 5.903809
497.0966, 30.14160
497.5787, 39.32812
498.0608, 11.94238
498.5429, 0.8046880
499.0250, 21.37549
499.5071, 50.61426
499.9893, 59.08105
500.4714, 46.23682
500.9535, 33.56592
501.4356, 41.53320
501.9177, 65.83545
502.3998, 77.11621
502.8820, 72.13135
503.3641, 61.47510
503.8462, 39.21631
504.3283, 18.16016
504.8104, 13.30273
505.2925, 27.65674
505.7747, 41.88574
506.2568, 42.18115
506.7389, 36.19434
507.2210, 39.43848
507.7031, 52.85400
508.1852, 60.30078
508.6674, 47.75732
509.1495, 22.37939
509.6316, 17.75928
510.1137, 57.75098
510.5958, 85.46045
511.0779, 91.85303
511.5601, 87.36523
512.0422, 74.27686
512.5243, 55.13232
513.0064, 39.08838
513.4885, 35.20557
513.9706, 41.40039
514.4528, 46.51074
514.9349, 49.09521
515.4170, 52.79492
515.8991, 62.00391
516.3812, 69.51123
516.8633, 69.12305
517.3455, 59.41357
517.8276, 52.09375
518.3097, 52.42188
518.7918, 59.03223
519.2739, 73.99902
519.7560, 95.84082
520.2382, 111.4487
520.7203, 111.8950
521.2024, 101.6196
521.6845, 95.16895
522.1666, 98.21387
522.6487, 97.58643
523.1309, 90.86572
523.6130, 81.96777
524.0951, 68.40039
524.5772, 54.21436
525.0593, 53.08936
525.5414, 78.93066
526.0236, 117.3110
526.5057, 123.6836
526.9878, 91.19141
527.4699, 64.56055
527.9520, 59.98633
528.4341, 64.34131
528.9163, 63.62891
529.3984, 57.89551
529.8805, 49.78857
530.3626, 32.27539
530.8447, 18.83105
531.3268, 28.68164
531.8090, 54.65576
532.2911, 69.14014
532.7732, 57.19482
533.2553, 32.45264
533.7374, 22.51123
534.2195, 36.31152
534.7017, 44.36230
535.1838, 40.29492
535.6659, 36.98486
536.1480, 39.98682
536.6301, 48.38086
537.1122, 59.47803
537.5944, 73.08643
538.0765, 84.49854
538.5586, 86.06201
539.0407, 79.03906
539.5228, 75.33301
540.0049, 79.59424
540.4871, 83.55078
540.9692, 79.69336
541.4513, 67.86670
541.9334, 50.78125
542.4155, 8.987305
542.8976, 17.04834
543.3798, 5.199707
543.8619, 50.02051
544.3440, 79.85986
544.8261, 83.26318
545.3082, 71.21387
545.7903, 53.76514
546.2725, 30.12500
546.7546, 18.67920
547.2367, 25.09033
547.7188, 35.40674
548.2009, 49.82959
548.6830, 62.52734
549.1652, 63.72119
549.6473, 49.17236
550.1294, 37.21826
550.6115, 44.40674
551.0936, 60.81152
551.5757, 65.69775
552.0579, 57.53906
552.5400, 56.32910
553.0221, 79.88477
553.5042, 118.7881
553.9863, 129.7109
554.4684, 71.54492
554.9506, 38.97656
555.4327, 53.93262
555.9148, 80.49072
556.3969, 92.84766
556.8790, 90.88184
557.3611, 87.95215
557.8433, 94.37891
558.3254, 104.2075
558.8075, 105.8428
559.2896, 98.46729
559.7717, 95.71631
560.2538, 105.7310
560.7360, 116.4341
561.2181, 110.3501
561.7002, 88.19922
562.1823, 69.77588
562.6644, 55.19824
563.1465, 47.97314
563.6287, 58.11523
564.1108, 75.88379
564.5929, 80.78564
565.0750, 65.59912
565.5571, 43.07129
566.0392, 32.80811
566.5214, 35.59131
567.0035, 35.76172
567.4856, 37.88623
567.9677, 33.23730
568.4498, 10.71777
568.9319, 17.25342
569.4141, 31.86279
569.8962, 26.87207
570.3783, 18.26758
570.8604, 19.78906
571.3425, 23.62988
571.8246, 14.08008
572.3068, 9.866211
572.7889, 36.45557
573.2710, 59.56641
573.7531, 77.24854
574.2352, 80.96289
574.7173, 51.57617
575.1995, 36.95361
575.6816, 54.95117
576.1637, 74.25049
576.6458, 69.34033
577.1279, 45.39795
577.6100, 26.41016
578.0922, 29.38721
578.5743, 40.89648
579.0564, 33.54395
579.5385, 9.347168
580.0206, 4.176758
580.5027, 34.80225
580.9849, 68.61963
581.4670, 64.97559
581.9491, 19.75195
582.4312, 1.815918
582.9133, 22.17920
583.3954, 45.09326
583.8776, 48.41504
584.3597, 40.27686
584.8418, 30.24414
585.3239, 21.69922
585.8060, 16.23779
586.2881, 14.71387
586.7703, 17.50586
587.2524, 32.25195
587.7345, 68.20801
588.2166, 86.65137
588.6987, 52.75244
589.1808, 3.745117
589.6630, 1.669922
590.1451, 47.51416
590.6272, 79.93994
591.1093, 56.32715
591.5914, 21.02734
592.0735, 14.54199
592.5557, 31.13232
593.0378, 45.44189
593.5199, 45.20898
594.0020, 36.87207
594.4841, 31.68213
594.9662, 29.31152
595.4484, 31.88379
595.9305, 46.50342
596.4126, 57.12598
596.8947, 49.89893
597.3768, 35.38428
597.8589, 34.11914
598.3411, 55.99316
598.8232, 76.53564
599.3053, 77.68799
599.7874, 67.89258
600.2695, 61.41309
600.7516, 58.42627
601.2338, 53.13184
601.7159, 37.19336
602.1980, 15.02588
602.6801, 5.764160
603.1622, 19.86621
603.6443, 27.80859
604.1265, 20.53369
604.6086, 13.23779
605.0907, 18.81396
605.5728, 32.66650
606.0549, 38.25146
606.5370, 22.09082
607.0192, 3.762207
607.5013, 9.407227
607.9834, 31.67041
608.4655, 44.95898
608.9476, 43.26416
609.4297, 32.95850
609.9119, 18.05811
610.3940, 1.033203
610.8761, 10.80664
611.3582, 7.159180
611.8403, 0.7290040
612.3224, 19.33691
612.8046, 36.41406
613.2867, 40.10156
613.7688, 30.60498
614.2509, 17.42432
614.7330, 1.460449
615.2151, 10.14258
615.6973, 0.1547850
616.1794, 30.17725
616.6615, 55.95703
617.1436, 70.81201
617.6257, 75.17188
618.1078, 66.49951
618.5900, 41.74658
619.0721, 30.39111
619.5542, 45.54102
620.0363, 57.35840
620.5184, 55.03516
621.0005, 45.33350
621.4827, 36.29395
621.9648, 29.58350
622.4469, 21.50098
622.9290, 2.811523
623.4111, 18.87305
623.8932, 19.50781
624.3754, 1.635254
624.8575, 30.74805
625.3396, 69.31201
625.8217, 102.1665
626.3038, 102.6753
626.7859, 58.30078
627.2681, 28.72900
627.7502, 21.74609
628.2323, 24.97803
628.7144, 42.47021
629.1965, 62.05664
629.6786, 65.13867
630.1608, 47.64453
630.6429, 27.59766
631.1250, 27.48193
631.6071, 42.01221
632.0892, 47.91162
632.5714, 44.29541
633.0535, 34.84229
633.5356, 17.64990
634.0177, 0.9067380
634.4998, 9.423828
634.9819, 7.025391
635.4641, 1.257813
635.9462, 18.45996
636.4283, 37.94189
636.9104, 60.91357
637.3925, 82.29102
637.8746, 94.25391
638.3568, 94.35449
638.8389, 86.60938
639.3210, 69.99268
639.8031, 48.02295
640.2852, 43.87891
640.7673, 62.47168
641.2495, 79.84912
641.7316, 84.85449
642.2137, 81.62793
642.6958, 77.64990
643.1779, 71.67383
643.6600, 69.05029
644.1422, 70.34229
644.6243, 75.04053
645.1064, 86.57422
645.5885, 100.3916
646.0706, 108.5576
646.5527, 108.2241
647.0349, 103.9878
647.5170, 101.1045
647.9991, 99.62842
648.4812, 93.65967
648.9633, 81.28174
649.4454, 77.36816
649.9276, 94.24951
650.4097, 119.8247
650.8918, 125.8667
651.3739, 98.63184
651.8560, 91.86670
652.3381, 132.4790
652.8203, 170.1006
653.3024, 173.2764
653.7845, 155.2856
654.2666, 140.0469
654.7487, 136.0293
655.2308, 138.5859
655.7130, 145.4863
656.1951, 154.8447
656.6772, 158.4722
657.1593, 155.3906
657.6414, 153.1284
658.1235, 154.6997
658.6057, 160.2666
659.0878, 171.2671
659.5699, 193.7354
660.0520, 205.4014
660.5341, 200.8408
661.0162, 191.5312
661.4984, 173.9722
661.9805, 158.2979
662.4626, 163.2925
662.9447, 194.3828
663.4268, 225.6309
663.9089, 232.6099
664.3911, 222.0903
664.8732, 206.6104
665.3553, 187.2271
665.8374, 177.0161
666.3195, 184.0010
666.8016, 197.8213
667.2838, 199.1826
667.7659, 180.2622
668.2480, 176.9277
668.7301, 203.0737
669.2122, 227.5425
669.6943, 240.4136
670.1765, 245.3936
670.6586, 249.1221
671.1407, 252.9697
671.6228, 250.6045
672.1049, 232.6196
672.5870, 208.1309
673.0692, 189.7583
673.5513, 178.8682
674.0334, 174.1401
674.5155, 175.7100
674.9976, 179.5288
675.4797, 181.0552
675.9619, 181.4839
676.4440, 168.8574
676.9261, 127.5908
677.4082, 94.92920
677.8903, 80.22363
678.3724, 78.37012
678.8546, 88.72754
679.3367, 110.0415
679.8188, 126.3340
680.3009, 127.3770
680.7830, 122.1318
681.2651, 119.7153
681.7473, 117.6401
682.2294, 110.0503
682.7115, 94.58154
683.1936, 74.71826
683.6757, 50.05322
684.1578, 21.42627
684.6400, 20.98633
685.1221, 67.28516
685.6042, 94.90771
686.0863, 66.60400
686.5684, 30.06299
687.0505, 36.21533
687.5327, 79.60498
688.0148, 104.4644
688.4969, 84.03857
688.9790, 59.36475
689.4611, 50.50293
689.9432, 52.25635
690.4254, 58.79297
690.9075, 66.95850
691.3896, 69.35986
691.8717, 58.00049
692.3538, 39.87646
692.8359, 38.77246
693.3181, 56.63184
693.8002, 63.33936
694.2823, 47.85205
694.7644, 30.81982
695.2465, 31.39746
695.7286, 46.94678
696.2108, 56.01221
696.6929, 49.50879
697.1750, 49.03223
697.6571, 65.95703
698.1392, 84.02686
698.6213, 90.32373
699.1035, 85.89062
699.5856, 77.59766
700.0677, 68.15967
700.5498, 59.00195
701.0319, 52.75977
701.5140, 48.38916
701.9962, 39.50586
702.4783, 25.08350
702.9604, 19.08105
703.4425, 32.35400
703.9246, 57.23828
704.4067, 72.70703
704.8889, 75.84717
705.3710, 75.68311
705.8531, 73.95361
706.3352, 67.15723
706.8173, 44.01611
707.2994, 18.24072
707.7816, 15.42139
708.2637, 44.85986
708.7458, 70.43359
709.2279, 68.90479
709.7100, 53.38770
710.1921, 33.73975
710.6743, 13.96045
711.1564, 4.321289
711.6385, 8.928711
712.1206, 19.01562
712.6027, 22.25977
713.0848, 18.53076
713.5670, 16.93359
714.0491, 16.95947
714.5312, 20.80078
715.0133, 33.95703
715.4954, 47.41260
715.9775, 46.65479
716.4597, 31.11133
716.9418, 25.96289
717.4239, 48.66992
717.9060, 66.63037
718.3881, 59.15088
718.8702, 41.63428
719.3524, 28.66943
719.8345, 26.56592
720.3166, 43.25146
720.7987, 90.95898
721.2808, 145.5708
721.7629, 159.7969
722.2451, 138.0459
722.7272, 113.8428
723.2093, 93.08154
723.6914, 81.19092
724.1735, 85.24316
724.6556, 101.6016
725.1378, 108.5903
725.6199, 104.7896
726.1020, 93.52686
726.5841, 59.14160
727.0662, 33.36475
727.5483, 44.66260
728.0305, 76.82227
728.5126, 89.96777
728.9947, 66.13916
729.4768, 43.87061
729.9589, 56.83838
730.4410, 79.55518
730.9232, 75.20605
731.4053, 48.20166
731.8874, 25.73682
732.3695, 20.67041
732.8516, 26.49463
733.3337, 36.55127
733.8159, 51.05420
734.2980, 53.08691
734.7801, 38.81689
735.2622, 23.65137
735.7443, 11.18506
736.2264, 3.548340
736.7086, 7.482910
737.1907, 26.03174
737.6728, 30.87744
738.1549, 3.770508
738.6370, 17.61475
739.1191, 12.63232
739.6013, 1.519043
740.0834, 1.217285
740.5655, 13.29541
741.0476, 17.09375
741.5297, 14.50879
742.0118, 55.12988
742.4940, 64.71484
742.9761, 53.81689
743.4582, 60.80859
743.9403, 91.94531
744.4224, 107.2881
744.9045, 71.64209
745.3867, 3.134277
745.8688, 30.34229
746.3509, 23.50879
746.8330, 3.645020
747.3151, 76.43018
747.7972, 134.5068
748.2794, 132.4131
748.7615, 93.68066
749.2436, 60.44922
749.7257, 35.20508
750.2078, 19.23828
750.6899, 15.06396
751.1721, 17.87256
751.6542, 29.37402
752.1363, 44.95801
752.6184, 56.79443
753.1005, 62.28223
753.5826, 61.53857
754.0648, 46.63232
754.5469, 27.97021
755.0290, 40.57959
755.5111, 80.89990
755.9932, 102.6406
756.4753, 89.34424
756.9575, 62.13184
757.4396, 42.23047
757.9217, 29.77100
758.4038, 26.41309
758.8859, 33.84033
759.3680, 47.42627
759.8502, 80.83691
760.3323, 107.8325
760.8144, 109.0366
761.2965, 88.36768
761.7786, 66.37451
762.2607, 39.62109
762.7429, 26.61670
763.2250, 48.99072
763.7071, 78.67773
764.1892, 86.23682
764.6713, 75.91406
765.1534, 67.61914
765.6356, 70.45850
766.1177, 76.28809
766.5998, 77.13818
767.0819, 72.40674
767.5640, 53.84863
768.0461, 21.37500
768.5283, 7.281250
769.0104, 28.72998
769.4925, 60.28027
769.9746, 65.62256
770.4567, 42.17090
770.9388, 27.81250
771.4210, 27.42871
771.9031, 28.54004
772.3852, 24.63965
772.8673, 24.29932
773.3494, 39.58203
773.8315, 66.34473
774.3137, 81.80371
774.7958, 73.15283
775.2779, 62.00684
775.7600, 65.01904
776.2421, 65.76416
776.7242, 36.04004
777.2064, 13.16406
777.6885, 40.18164
778.1706, 22.33691
778.6527, 11.58545
779.1348, 24.20947
779.6169, 21.73145
780.0991, 26.30664
780.5812, 39.16357
781.0633, 52.09131
781.5454, 61.90869
782.0275, 68.31055
782.5096, 71.14795
782.9918, 70.69922
783.4739, 61.90137
783.9560, 33.79639
784.4381, 17.80566
784.9202, 32.62500
785.4023, 54.22949
785.8845, 60.63477
786.3666, 54.01416
786.8487, 51.87109
787.3308, 65.09912
787.8129, 73.21924
788.2950, 59.92578
788.7772, 45.31836
789.2593, 52.99072
789.7414, 76.40430
790.2235, 91.57031
790.7056, 87.30762
791.1877, 74.79834
791.6699, 61.92725
792.1520, 50.79980
792.6341, 45.75879
793.1162, 47.00928
793.5983, 55.84570
794.0804, 73.41797
794.5626, 89.64697
795.0447, 89.05762
795.5268, 72.42725
796.0089, 65.84961
796.4910, 72.94385
796.9731, 76.38037
797.4553, 69.18115
797.9374, 57.67041
798.4195, 46.92578
798.9016, 37.03906
799.3837, 26.32520
799.8658, 8.842285
800.3480, 3.289063
800.8301, 8.220703
801.3122, 7.395996
801.7943, 1.564453
802.2764, 14.79834
802.7585, 25.61035
803.2407, 32.25146
803.7228, 31.86963
804.2049, 20.87891
804.6870, 9.263672
805.1691, 8.246582
805.6512, 14.42139
806.1334, 17.64062
806.6155, 14.72852
807.0976, 8.349121
807.5797, 1.060547
808.0618, 10.16211
808.5439, 3.315918
809.0261, 19.45898
809.5082, 28.88916
809.9903, 15.67041
810.4724, 2.478516
810.9545, 7.517578
811.4366, 26.05908
811.9188, 40.58740
812.4009, 53.50977
812.8830, 56.88916
813.3651, 39.19189
813.8472, 25.24023
814.3293, 31.40527
814.8115, 44.32715
815.2936, 42.16992
815.7757, 20.83350
816.2578, 9.247559
816.7399, 30.70264
817.2220, 47.01172
817.7042, 20.29102
818.1863, 13.65967
818.6684, 0.5522460
819.1505, 59.80859
819.6326, 105.1372
820.1147, 97.88477
820.5969, 69.08887
821.0790, 49.33740
821.5611, 37.98096
822.0432, 37.33838
822.5253, 45.34375
823.0074, 47.31299
823.4896, 34.90576
823.9717, 19.09326
824.4538, 20.19873
824.9359, 37.98193
825.4180, 47.91113
825.9001, 48.79346
826.3823, 47.30371
826.8644, 45.19287
827.3465, 42.52832
827.8286, 38.51611
828.3107, 33.30762
828.7928, 33.50879
829.2749, 40.19482
829.7570, 50.81104
830.2391, 74.94385
830.7213, 93.30322
831.2034, 88.98438
831.6855, 71.07178
832.1676, 61.29297
832.6497, 66.55273
833.1318, 68.66943
833.6140, 56.05078
834.0961, 42.72510
834.5782, 38.86133
835.0603, 40.41357
835.5424, 41.53955
836.0245, 43.67139
836.5067, 48.53369
836.9888, 57.78613
837.4709, 65.88281
837.9530, 61.13818
838.4351, 49.79980
838.9172, 52.78809
839.3994, 70.55713
839.8815, 76.61768
840.3636, 52.96484
840.8457, 16.44629
841.3278, 2.337891
841.8099, 3.749023
842.2921, 7.293457
842.7742, 34.14941
843.2563, 56.34180
843.7384, 66.39453
844.2205, 65.58154
844.7026, 52.66846
845.1848, 27.12207
845.6669, 15.39355
846.1490, 28.57617
846.6311, 36.78613
847.1132, 24.39844
847.5953, 15.88477
848.0775, 32.52783
848.5596, 64.51074
849.0417, 85.51025
849.5238, 90.32373
850.0059, 89.44775
850.4880, 79.22559
850.9702, 70.38916
851.4523, 71.46191
851.9344, 77.29199
852.4165, 83.27539
852.8986, 86.99902
853.3807, 78.97070
853.8629, 34.63721
854.3450, 4.814941
854.8271, 12.19043
855.3092, 55.82129
855.7913, 76.20020
856.2734, 69.19580
856.7556, 54.58203
857.2377, 42.30127
857.7198, 37.61377
858.2019, 54.63525
858.6840, 85.78662
859.1661, 100.3872
859.6483, 97.94824
860.1304, 85.22900
860.6125, 63.45264
861.0946, 40.92969
861.5767, 26.02832
862.0588, 19.18457
862.5410, 26.08447
863.0231, 52.20947
863.5052, 68.66553
863.9873, 68.64893
864.4694, 62.69336
864.9515, 55.88477
865.4337, 49.46338
865.9158, 48.53223
866.3979, 58.43213
866.8800, 61.83691
867.3621, 50.18066
867.8442, 43.13184
868.3264, 51.62158
868.8085, 64.03662
869.2906, 68.72607
869.7727, 65.44287
870.2548, 59.74609
870.7369, 52.72559
871.2191, 43.92871
871.7012, 30.39893
872.1833, 17.45459
872.6654, 6.028320
873.1475, 0.4511720
873.6296, 8.003906
874.1118, 35.18652
874.5939, 55.93994
875.0760, 39.60840
875.5581, 17.79199
876.0402, 32.80371
876.5223, 68.79004
877.0045, 86.64062
877.4866, 79.59375
877.9687, 63.85449
878.4508, 48.06299
878.9329, 38.84033
879.4150, 52.75439
879.8972, 82.71045
880.3793, 104.9028
880.8614, 116.6323
881.3435, 111.0972
881.8256, 84.07910
882.3077, 54.24805
882.7899, 46.95605
883.2720, 59.79639
883.7541, 70.95850
884.2362, 81.53320
884.7183, 81.58887
885.2004, 66.02490
885.6826, 48.29053
886.1647, 35.21729
886.6468, 30.17090
887.1289, 46.93652
887.6110, 108.5112
888.0931, 124.4565
888.5753, 57.24805
889.0574, 1.844238
889.5395, 1.121582
890.0216, 21.21191
890.5037, 20.90527
890.9858, 2.167480
891.4680, 2.770996
891.9501, 50.68555
892.4322, 81.73877
892.9143, 73.50537
893.3964, 55.81006
893.8785, 42.02881
894.3607, 35.16016
894.8428, 42.11084
895.3249, 66.81592
895.8070, 77.80615
896.2891, 49.73242
896.7712, 17.78711
897.2534, 2.785156
897.7355, 2.441406
898.2176, 8.726563
898.6997, 15.94775
899.1818, 16.25049
899.6639, 3.903320
900.1461, 11.79395
900.6282, 25.41943
901.1103, 34.32080
901.5924, 30.01416
902.0745, 18.29785
902.5566, 16.58545
903.0388, 29.34131
903.5209, 43.16064
904.0030, 45.12061
904.4851, 41.54834
904.9672, 45.87695
905.4493, 55.22461
905.9315, 57.30664
906.4136, 51.43213
906.8957, 49.88477
907.3778, 60.13379
907.8599, 70.45361
908.3420, 56.06494
908.8242, 22.09326
909.3063, 23.43994
909.7884, 62.43359
910.2705, 83.33984
910.7526, 68.88086
911.2347, 48.45117
911.7169, 46.46045
912.1990, 56.96680
912.6811, 63.05371
913.1632, 64.23047
913.6453, 60.14746
914.1274, 49.46973
914.6096, 35.68066
915.0917, 13.75635
915.5738, 1.405273
916.0559, 12.64209
916.5380, 55.53125
917.0201, 84.46436
917.5023, 96.19385
917.9844, 99.94385
918.4665, 93.66211
918.9486, 83.03076
919.4307, 68.57080
919.9128, 52.89209
920.3950, 41.54688
920.8771, 36.31592
921.3592, 26.78223
921.8413, 4.414063
922.3234, 12.48877
922.8055, 17.84814
923.2877, 16.07715
923.7698, 9.877930
924.2519, 2.9300000E-03
924.7340, 13.45557
925.2161, 34.36914
925.6982, 47.76562
926.1804, 44.34326
926.6625, 36.52686
927.1446, 29.25635
927.6267, 24.02832
928.1088, 19.98193
928.5909, 18.41016
929.0731, 27.25537
929.5552, 60.36328
930.0373, 86.88721
930.5194, 77.97217
931.0015, 59.11914
931.4836, 56.38184
931.9658, 66.84961
932.4479, 83.07373
932.9300, 101.5088
933.4121, 108.1162
933.8942, 81.98877
934.3763, 49.96289
934.8585, 42.77246
935.3406, 50.43652
935.8227, 60.03271
936.3048, 67.10986
936.7869, 63.72314
937.2690, 45.82275
937.7512, 27.02930
938.2333, 22.80713
938.7154, 27.96240
939.1975, 34.96533
939.6796, 41.93457
940.1617, 39.53467
940.6439, 28.13916
941.1260, 27.48340
941.6081, 53.26465
942.0902, 85.10596
942.5723, 85.56641
943.0544, 61.97168
943.5366, 42.11963
944.0187, 27.80371
944.5008, 25.05176
944.9829, 35.72754
945.4650, 44.14697
945.9471, 34.32666
946.4293, 13.91650
946.9114, 12.61377
947.3935, 29.42383
947.8756, 39.19775
948.3577, 39.46729
948.8398, 35.43652
949.3220, 28.53516
949.8041, 23.29199
950.2862, 26.33887
950.7683, 36.25586
951.2504, 39.04150
951.7325, 31.88525
952.2147, 31.44043
952.6968, 41.55957
953.1789, 51.18311
953.6610, 52.31201
954.1431, 53.47852
954.6252, 71.98096
955.1074, 109.5396
955.5895, 127.3369
956.0716, 120.8901
956.5537, 106.8906
957.0358, 83.94873
957.5179, 66.91211
958.0001, 67.79150
958.4822, 79.03223
958.9643, 82.17529
959.4464, 75.16748
959.9285, 69.12012
960.4106, 66.12012
960.8928, 59.26270
961.3749, 38.25635
961.8570, 24.27539
962.3391, 43.85645
962.8212, 85.24805
963.3033, 97.90967
963.7855, 62.73730
964.2676, 40.98926
964.7497, 38.26514
965.2318, 41.29346
965.7139, 53.40088
966.1960, 63.19629
966.6782, 52.56543
967.1603, 25.80371
967.6424, 19.16211
968.1245, 54.76709
968.6066, 76.43652
969.0887, 74.28955
969.5709, 67.28516
970.0530, 59.52002
970.5351, 53.66553
971.0172, 54.18555
971.4993, 60.51270
971.9814, 64.69043
972.4636, 71.40283
972.9457, 67.92578
973.4278, 27.99268
973.9099, 3.493164
974.3920, 45.39697
974.8741, 109.6562
975.3563, 125.3062
975.8384, 85.00439
976.3205, 51.46680
976.8026, 40.07031
977.2847, 30.69092
977.7668, 13.78760
978.2490, 1.327148
978.7311, 6.818848
979.2132, 20.28125
979.6953, 24.53857
980.1774, 15.01709
980.6595, 13.86621
981.1417, 37.07812
981.6238, 57.22559
982.1059, 63.78369
982.5880, 63.29590
983.0701, 61.08789
983.5522, 56.86768
984.0344, 46.23486
984.5165, 26.15576
984.9986, 16.97217
985.4807, 35.46826
985.9628, 53.60938
986.4449, 58.56201
986.9271, 56.97021
987.4092, 55.75098
987.8913, 53.81348
988.3734, 45.42480
988.8555, 27.68848
989.3376, 11.69873
989.8198, 2.126465
990.3019, 8.552734
990.7840, 2.958008
991.2661, 17.60010
991.7482, 17.61523
992.2303, 6.208008
992.7125, 0.9687500
993.1946, 0.8652340
993.6767, 5.588867
994.1588, 13.13428
994.6409, 20.32520
995.1230, 24.80371
995.6052, 27.08936
996.0873, 26.21533
996.5694, 23.35156
997.0515, 21.75391
997.5336, 21.09375
998.0157, 26.43506
998.4979, 47.52002
998.9800, 67.28076
999.4621, 76.03418
999.9442, 75.50098
1000.426, 65.24414
1000.908, 48.09863
1001.391, 33.91406
1001.873, 27.47021
1002.355, 20.15479
1002.837, 1.206543
1003.319, 15.21777
1003.801, 2.385742
1004.283, 30.79736
1004.765, 40.64893
1005.247, 32.58984
1005.730, 30.59570
1006.212, 49.41650
1006.694, 59.41553
1007.176, 38.29395
1007.658, 12.56299
1008.140, 6.208496
1008.622, 13.38379
1009.104, 2.746582
1009.587, 36.85254
1010.069, 59.52002
1010.551, 57.23535
1011.033, 48.79736
1011.515, 37.41455
1011.997, 28.18506
1012.479, 27.47852
1012.961, 29.40771
1013.443, 23.90820
1013.926, 11.97949
1014.408, 6.712891
1014.890, 17.57471
1015.372, 24.38232
1015.854, 11.22754
1016.336, 0.7041020
1016.818, 8.413574
1017.300, 23.90723
1017.783, 24.13379
1018.265, 9.374023
1018.747, 1.671387
1019.229, 1.784180
1019.711, 0.7421880
1020.193, 2.942383
1020.675, 3.959961
1021.157, 0.7832030
1021.639, 5.062012
1022.122, 13.47461
1022.604, 23.06201
1023.086, 26.94678
1023.568, 20.14160
1024.050, 15.82178
1024.532, 20.31152
1025.014, 27.49902
1025.496, 38.07275
1025.979, 46.36279
1026.461, 44.91895
1026.943, 34.47510
1027.425, 22.39160
1027.907, 2.977539
1028.389, 3.535645
1028.871, 18.64600
1029.353, 41.33838
1029.835, 50.86133
1030.318, 53.53369
1030.800, 56.87500
1031.282, 60.66504
1031.764, 60.33984
1032.246, 51.06396
1032.728, 46.06592
1033.210, 48.05176
1033.692, 53.47852
1034.175, 72.88818
1034.657, 86.01660
1035.139, 62.46582
1035.621, 11.69287
1036.103, 14.20312
1036.585, 1.092285
1037.067, 14.11279
1037.549, 25.85840
1038.031, 31.19629
1038.514, 23.07617
1038.996, 12.28760
1039.478, 4.859863
1039.960, 2.688477
1040.442, 14.69043
1040.924, 50.71094
1041.406, 76.79639
1041.888, 94.26855
1042.370, 99.02832
1042.853, 82.22949
1043.335, 61.30127
1043.817, 48.47217
1044.299, 43.95459
1044.781, 51.08057
1045.263, 79.55078
1045.745, 80.82812
1046.227, 38.16943
1046.710, 6.885254
1047.192, 2.644531
1047.674, 10.87744
1048.156, 24.94238
1048.638, 39.90430
1049.120, 39.22900
1049.602, 19.33887
1050.084, 14.08252
1050.567, 29.92920
1051.049, 32.73291
1051.531, 8.811523
1052.013, 6.283691
1052.495, 12.54639
1052.977, 46.23242
1053.459, 61.89258
1053.941, 59.60791
1054.423, 48.22119
1054.906, 25.87207
1055.388, 16.19141
1055.870, 24.56934
1056.352, 37.30762
1056.834, 46.95996
1057.316, 54.25488
1057.798, 59.64746
1058.280, 63.88135
1058.762, 74.68652
1059.245, 90.84814
1059.727, 91.91162
1060.209, 75.53027
1060.691, 57.47168
1061.173, 44.34717
1061.655, 40.58398
1062.137, 53.29150
1062.619, 72.34521
1063.102, 65.77246
1063.584, 40.96875
1064.066, 25.14062
1064.548, 21.22363
1065.030, 29.63428
1065.512, 49.36377
1065.994, 61.27588
1066.476, 43.80713
1066.958, 17.64160
1067.441, 14.33936
1067.923, 24.60742
1068.405, 32.45947
1068.887, 36.35303
1069.369, 36.76270
1069.851, 34.12109
1070.333, 29.49512
1070.815, 21.53223
1071.297, 17.38330
1071.780, 26.61621
1072.262, 42.26074
1072.744, 58.33154
1073.226, 72.84473
1073.708, 85.47607
1074.190, 94.51318
1074.672, 93.44336
1075.154, 76.77002
1075.637, 58.21924
1076.119, 38.47754
1076.601, 28.81445
1077.083, 54.75146
1077.565, 85.00684
1078.047, 70.81641
1078.529, 23.61279
1079.011, 0.3603520
1079.493, 23.55566
1079.976, 37.03857
1080.458, 3.948242
1080.940, 21.99951
1081.422, 9.351563
1081.904, 14.08691
1082.386, 20.98242
1082.868, 19.86621
1083.350, 40.06299
1083.833, 92.74951
1084.315, 110.1787
1084.797, 47.82520
1085.279, 3.698242
1085.761, 4.693848
1086.243, 18.42236
1086.725, 35.75732
1087.207, 49.91992
1087.689, 49.56641
1088.172, 34.67285
1088.654, 21.08154
1089.136, 4.058594
1089.618, 1.102539
1090.100, 17.97217
1090.582, 39.66602
1091.064, 64.56104
1091.546, 80.82129
1092.028, 72.40186
1092.511, 46.12939
1092.993, 32.08496
1093.475, 31.05615
1093.957, 36.00195
1094.439, 49.64014
1094.921, 49.31006
1095.403, 26.00781
1095.885, 15.85352
1096.368, 52.00928
1096.850, 103.5405
1097.332, 103.3564
1097.814, 62.56836
1098.296, 32.36768
1098.778, 14.31885
1099.260, 14.53369
1099.742, 31.60889
1100.224, 46.86279
1100.707, 49.98193
1101.189, 48.32910
1101.671, 48.28418
1102.153, 50.83105
1102.635, 63.36768
1103.117, 77.15527
1103.599, 69.46143
1104.081, 46.65430
1104.563, 38.82715
1105.046, 54.60596
1105.528, 65.49854
1106.010, 45.69434
1106.492, 22.95264
1106.974, 21.02002
1107.456, 25.39014
1107.938, 23.71826
1108.420, 16.59521
1108.903, 1.430176
1109.385, 18.23730
1109.867, 19.91309
1110.349, 15.58594
1110.831, 46.02051
1111.313, 58.45703
1111.795, 62.21777
1112.277, 57.95801
1112.760, 50.43604
1113.242, 39.85449
1113.724, 29.82617
1114.206, 34.46289
1114.688, 63.61572
1115.170, 77.30664
1115.652, 66.37793
1116.134, 57.02148
1116.616, 57.17236
1117.099, 59.23975
1117.581, 58.68408
1118.063, 57.18311
1118.545, 57.00244
1119.027, 58.33203
1119.509, 67.73145
1119.991, 89.01367
1120.473, 84.36816
1120.955, 45.78662
1121.438, 17.86182
1121.920, 19.54492
1122.402, 33.65332
1122.884, 45.41650
1123.366, 50.83154
1123.848, 31.24902
1124.330, 3.293457
1124.812, 3.299316
1125.295, 24.71191
1125.777, 37.92871
1126.259, 28.62988
1126.741, 23.66309
1127.223, 39.42041
1127.705, 60.24658
1128.187, 65.31641
1128.669, 68.63477
1129.151, 99.47900
1129.634, 134.0957
1130.116, 132.5381
1130.598, 103.4448
1131.080, 84.70166
1131.562, 88.05518
1132.044, 86.39160
1132.526, 60.21924
1133.008, 35.79590
1133.490, 22.28418
1133.973, 18.71387
1134.455, 28.04395
1134.937, 44.66748
1135.419, 69.10059
1135.901, 97.01318
1136.383, 95.56396
1136.865, 24.70166
1137.347, 1.438477
1137.830, 57.93555
1138.312, 96.14258
1138.794, 72.01465
1139.276, 36.39844
1139.758, 23.52588
1140.240, 27.08887
1140.722, 35.82520
1141.204, 49.06836
1141.687, 56.26221
1142.169, 56.49316
1142.651, 61.87305
1143.133, 75.05078
1143.615, 77.93750
1144.097, 61.54395
1144.579, 39.99414
1145.061, 28.24707
1145.543, 23.71533
1146.026, 21.89209
1146.508, 21.95947
1146.990, 20.01123
1147.472, 17.76611
1147.954, 22.83105
1148.436, 35.63818
1148.918, 49.19189
1149.400, 61.00684
1149.882, 63.78076
1150.365, 35.75391
1150.847, 12.26416
1151.329, 39.20117
1151.811, 79.20703
1152.293, 86.39404
1152.775, 67.25195
1153.257, 47.15527
1153.739, 31.36426
1154.222, 18.65234
1154.704, 6.279785
1155.186, 0.7182620
1155.668, 6.759766
1156.150, 16.27881
1156.632, 20.86377
1157.114, 29.62549
1157.596, 58.44678
1158.078, 98.43896
1158.561, 107.7319
1159.043, 76.22607
1159.525, 58.45459
1160.007, 57.68018
1160.489, 53.99023
1160.971, 41.89697
1161.453, 33.00146
1161.935, 34.37354
1162.417, 42.81494
1162.900, 55.67676
1163.382, 70.33105
1163.864, 77.34229
1164.346, 78.71582
1164.828, 83.98242
1165.310, 90.85645
1165.792, 82.91846
1166.274, 58.27637
1166.757, 40.88770
1167.239, 47.56543
1167.721, 56.92139
1168.203, 45.18115
1168.685, 32.09131
1169.167, 44.22803
1169.649, 61.88623
1170.131, 54.67676
1170.614, 30.51514
1171.096, 20.95117
1171.578, 34.51465
1172.060, 36.86963
1172.542, 0.6503910
1173.024, 17.77686
1173.506, 8.393555
1173.988, 35.87695
1174.470, 48.41455
1174.953, 50.09570
1175.435, 42.14648
1175.917, 28.45703
1176.399, 25.85840
1176.881, 35.98877
1177.363, 46.01367
1177.845, 56.41455
1178.327, 57.09375
1178.809, 45.62646
1179.292, 35.61621
1179.774, 34.84912
1180.256, 36.84961
1180.738, 34.32666
1181.220, 28.22070
1181.702, 15.19531
1182.184, 2.943359
1182.666, 12.59180
1183.149, 35.48633
1183.631, 42.37402
1184.113, 30.16113
1184.595, 23.88379
1185.077, 39.56543
1185.559, 47.30957
1186.041, 13.49609
1186.523, 11.60107
1187.005, 18.37549
1187.488, 53.79395
1187.970, 42.69189
1188.452, 5.317871
1188.934, 10.04688
1189.416, 0.7631840
1189.898, 8.157715
1190.380, 19.80273
1190.862, 21.16602
1191.344, 4.490723
1191.827, 2.030273
1192.309, 29.72119
1192.791, 54.49463
1193.273, 48.09863
1193.755, 23.35205
1194.237, 0.1997070
1194.719, 18.01074
1195.201, 10.47607
1195.684, 15.15576
1196.166, 32.18115
1196.648, 36.79590
1197.130, 26.45898
1197.612, 2.894531
1198.094, 5.415039
1198.576, 32.28271
1199.058, 66.26025
1199.541, 49.26758
1200.023, 21.32324
1200.505, 12.24072
1200.987, 14.62744
1201.469, 20.54150
1201.951, 27.26416
1202.433, 29.24121
1202.915, 23.28125
1203.397, 27.24316
1203.880, 55.02832
1204.362, 65.69580
1204.844, 46.76465
1205.326, 28.08252
1205.808, 22.18799
1206.290, 22.67578
1206.772, 24.02100
1207.254, 25.27881
1207.736, 22.77441
1208.219, 17.62793
1208.701, 16.73047
1209.183, 20.09375
1209.665, 30.76904
1210.147, 46.02783
1210.629, 47.94287
1211.111, 30.12451
1211.593, 18.08154
1212.076, 41.03027
1212.558, 60.81152
1213.040, 28.84082
1213.522, 3.126465
1214.004, 22.13770
1214.486, 66.51318
1214.968, 85.24268
1215.450, 77.46875
1215.932, 63.05029
1216.415, 39.72363
1216.897, 30.90576
1217.379, 43.08398
1217.861, 57.92188
1218.343, 77.29150
1218.825, 87.07568
1219.307, 78.17725
1219.789, 68.10303
1220.271, 76.12305
1220.754, 92.60986
1221.236, 92.45312
1221.718, 80.86865
1222.200, 60.88672
1222.682, 39.15479
1223.164, 29.33398
1223.646, 32.45557
1224.128, 45.40234
1224.611, 66.18115
1225.093, 82.81250
1225.575, 97.75342
1226.057, 102.0200
1226.539, 74.35645
1227.021, 46.96582
1227.503, 51.80225
1227.985, 65.55713
1228.468, 58.05127
1228.950, 37.32373
1229.432, 36.12256
1229.914, 59.11035
1230.396, 62.66211
1230.878, 39.38965
1231.360, 24.17090
1231.842, 21.84473
1232.324, 20.24414
1232.807, 14.23730
1233.289, 16.19922
1233.771, 39.00781
1234.253, 63.89258
1234.735, 48.58008
1235.217, 19.01660
1235.699, 31.46143
1236.181, 62.81641
1236.663, 62.26465
1237.146, 36.96826
1237.628, 23.85693
1238.110, 30.54443
1238.592, 31.36670
1239.074, 7.508789
1239.556, 5.726074
1240.038, 8.863770
1240.520, 27.62744
1241.003, 45.21045
1241.485, 58.81787
1241.967, 66.67725
1242.449, 69.03564
1242.931, 64.78027
1243.413, 55.54492
1243.895, 55.86523
1244.377, 65.53516
1244.859, 74.48584
1245.342, 81.39990
1245.824, 77.60449
1246.306, 62.77783
1246.788, 54.61523
1247.270, 63.35840
1247.752, 65.61963
1248.234, 33.74902
1248.716, 5.495117
1249.198, 25.82617
1249.681, 58.79785
1250.163, 77.38135
1250.645, 80.01416
1251.127, 61.78027
1251.609, 28.36914
1252.091, 6.435059
1252.573, 1.302246
1253.055, 3.555664
1253.538, 27.86572
1254.020, 30.77539
1254.502, 18.95703
1254.984, 0.0000000E+00
##END=



