##NAMES=Arapovite
##RRUFFID=R060672
##IDEAL CHEMISTRY=(K_1-x_[box]_x_)(Ca,Na)_2_U^4+^Si_8_O_20_ (x~0.5)
##LOCALITY=Dara-i-Pioz Glacier, Hait, Alayskiy (Alai) Range, Tien Shan Mountains, Tajikistan
##OWNER=RRUFF
##SOURCE=Michael Scott
##DESCRIPTION=Dark green prismatic crystals with rectangular shapes
##STATUS=The identification of this mineral is not yet confirmed.
##URL=rruff.info/R060672
142.254, 0.000
142.736, 5.916
143.218, 41.239
143.700, 81.934
144.182, 116.848
144.665, 143.884
145.147, 159.298
145.629, 153.996
146.111, 150.739
146.593, 154.847
147.075, 168.388
147.557, 175.742
148.039, 175.170
148.521, 168.633
149.004, 158.562
149.486, 136.439
149.968, 119.194
150.450, 112.762
150.932, 125.949
151.414, 131.634
151.896, 125.314
152.378, 112.321
152.861, 102.987
153.343, 98.561
153.825, 98.533
154.307, 103.316
154.789, 119.539
155.271, 132.870
155.753, 136.604
156.235, 134.872
156.717, 142.854
157.200, 172.546
157.682, 207.607
158.164, 237.915
158.646, 249.891
159.128, 267.284
159.610, 299.911
160.092, 345.864
160.574, 387.176
161.057, 415.666
161.539, 436.422
162.021, 454.179
162.503, 469.104
162.985, 481.518
163.467, 492.651
163.949, 502.446
164.431, 506.138
164.913, 495.266
165.396, 478.178
165.878, 466.362
166.360, 472.267
166.842, 480.531
167.324, 481.398
167.806, 473.960
168.288, 461.227
168.770, 442.313
169.253, 419.853
169.735, 398.896
170.217, 385.214
170.699, 373.315
171.181, 355.759
171.663, 327.044
172.145, 303.646
172.627, 306.414
173.109, 328.190
173.592, 344.803
174.074, 330.763
174.556, 305.059
175.038, 296.329
175.520, 317.782
176.002, 347.925
176.484, 360.783
176.966, 358.384
177.449, 355.486
177.931, 362.870
178.413, 377.545
178.895, 393.843
179.377, 411.272
179.859, 428.673
180.341, 442.517
180.823, 453.030
181.305, 466.167
181.788, 495.646
182.270, 534.037
182.752, 557.760
183.234, 546.124
183.716, 516.570
184.198, 513.769
184.680, 540.550
185.162, 569.164
185.645, 568.109
186.127, 540.827
186.609, 508.507
187.091, 466.009
187.573, 422.883
188.055, 424.869
188.537, 480.812
189.019, 553.071
189.501, 598.253
189.984, 616.927
190.466, 611.714
190.948, 566.304
191.430, 489.305
191.912, 450.279
192.394, 460.726
192.876, 493.484
193.358, 501.125
193.840, 482.869
194.323, 459.076
194.805, 438.615
195.287, 421.726
195.769, 415.244
196.251, 425.309
196.733, 439.900
197.215, 421.130
197.697, 362.902
198.180, 312.158
198.662, 308.976
199.144, 356.910
199.626, 386.788
200.108, 386.222
200.590, 363.225
201.072, 341.185
201.554, 317.651
202.036, 303.326
202.519, 312.277
203.001, 348.933
203.483, 372.854
203.965, 372.851
204.447, 353.921
204.929, 346.797
205.411, 354.116
205.893, 365.228
206.376, 374.004
206.858, 383.162
207.340, 374.685
207.822, 336.439
208.304, 272.209
208.786, 238.370
209.268, 245.558
209.750, 265.324
210.232, 267.814
210.714, 248.666
211.197, 228.562
211.679, 211.078
212.161, 196.418
212.643, 191.431
213.125, 202.125
213.607, 215.121
214.089, 212.642
214.572, 187.973
215.054, 165.357
215.536, 151.153
216.018, 145.492
216.500, 144.414
216.982, 148.897
217.464, 156.033
217.946, 164.811
218.428, 182.360
218.911, 183.533
219.393, 152.078
219.875, 75.675
220.357, 32.454
220.839, 33.945
221.321, 60.619
221.803, 81.234
222.285, 94.682
222.767, 104.592
223.250, 113.506
223.732, 124.899
224.214, 123.106
224.696, 100.376
225.178, 69.177
225.660, 54.431
226.142, 64.926
226.624, 77.073
227.107, 81.214
227.589, 73.617
228.071, 60.432
228.553, 26.879
229.035, 61.337
229.517, 79.288
229.999, 81.611
230.481, 21.537
230.963, 42.056
231.445, 30.276
231.928, 17.179
232.410, 49.043
232.892, 1.949
233.374, 29.210
233.856, 21.572
234.338, 2.724
234.820, 29.492
235.303, 9.860
235.785, 36.911
236.267, 52.636
236.749, 57.642
237.231, 19.810
237.713, 37.301
238.195, 32.623
238.677, 38.919
239.159, 39.718
239.641, 38.868
240.124, 34.481
240.606, 27.537
241.088, 21.546
241.570, 15.238
242.052, 11.661
242.534, 12.898
243.016, 21.478
243.498, 29.049
243.981, 33.454
244.463, 35.961
244.945, 43.511
245.427, 59.823
245.909, 75.548
246.391, 85.936
246.873, 92.075
247.355, 87.789
247.837, 61.504
248.320, 22.062
248.802, 17.864
249.284, 24.941
249.766, 33.225
250.248, 66.884
250.730, 77.355
251.212, 4.819
251.694, 32.648
252.176, 22.170
252.659, 9.723
253.141, 37.639
253.623, 30.537
254.105, 28.839
254.587, 38.385
255.069, 39.861
255.551, 28.362
256.033, 7.085
256.516, 8.738
256.998, 22.118
257.480, 25.759
257.962, 10.535
258.444, 38.671
258.926, 65.109
259.408, 52.672
259.890, 10.888
260.372, 3.362
260.855, 21.040
261.337, 54.026
261.819, 39.967
262.301, 3.312
262.783, 49.438
263.265, 75.469
263.747, 82.492
264.229, 13.551
264.711, 42.712
265.194, 32.557
265.676, 20.807
266.158, 63.779
266.640, 5.905
267.122, 48.026
267.604, 50.230
268.086, 70.709
268.569, 51.641
269.051, 44.786
269.533, 44.024
270.015, 82.578
270.497, 108.006
270.979, 109.568
271.461, 93.423
271.943, 81.942
272.425, 74.755
272.908, 73.724
273.390, 84.515
273.872, 110.781
274.354, 122.002
274.836, 107.105
275.318, 78.395
275.800, 84.547
276.282, 136.435
276.764, 183.066
277.247, 179.981
277.729, 119.341
278.211, 86.943
278.693, 98.012
279.175, 138.014
279.657, 166.801
280.139, 182.482
280.621, 196.058
281.103, 214.728
281.586, 238.463
282.068, 263.372
282.550, 292.295
283.032, 318.414
283.514, 319.827
283.996, 293.645
284.478, 271.016
284.960, 276.742
285.443, 308.975
285.925, 332.061
286.407, 340.412
286.889, 341.537
287.371, 349.337
287.853, 363.952
288.335, 380.842
288.817, 399.098
289.299, 418.006
289.782, 432.781
290.264, 441.991
290.746, 447.834
291.228, 451.543
291.710, 453.367
292.192, 458.832
292.674, 479.867
293.156, 508.467
293.638, 512.402
294.121, 483.162
294.603, 445.938
295.085, 433.609
295.567, 444.206
296.049, 464.918
296.531, 497.015
297.013, 533.766
297.496, 557.424
297.978, 564.766
298.460, 567.034
298.942, 574.018
299.424, 585.957
299.906, 603.331
300.388, 610.911
300.870, 628.027
301.352, 621.078
301.835, 650.515
302.317, 671.117
302.799, 683.386
303.281, 662.270
303.763, 684.259
304.245, 688.984
304.727, 693.016
305.209, 721.093
305.691, 704.865
306.174, 730.214
306.656, 727.298
307.138, 739.483
307.620, 749.830
308.102, 750.302
308.584, 746.840
309.066, 745.062
309.548, 745.574
310.030, 744.771
310.513, 743.982
310.995, 739.951
311.477, 728.235
311.959, 697.126
312.441, 665.803
312.923, 647.018
313.405, 640.376
313.887, 636.960
314.370, 627.423
314.852, 620.726
315.334, 625.669
315.816, 670.804
316.298, 704.371
316.780, 693.906
317.262, 646.287
317.744, 609.766
318.226, 607.451
318.709, 621.731
319.191, 639.979
319.673, 674.804
320.155, 696.174
320.637, 686.932
321.119, 654.486
321.601, 630.368
322.083, 632.486
322.565, 638.091
323.048, 633.313
323.530, 589.933
324.012, 571.988
324.494, 605.559
324.976, 673.318
325.458, 724.575
325.940, 751.319
326.422, 762.061
326.905, 758.868
327.387, 728.604
327.869, 706.716
328.351, 694.127
328.833, 690.233
329.315, 694.048
329.797, 708.500
330.279, 727.898
330.762, 754.594
331.244, 799.708
331.726, 818.179
332.208, 792.027
332.690, 749.163
333.172, 732.986
333.654, 761.688
334.136, 786.936
334.618, 794.220
335.100, 780.803
335.583, 775.784
336.065, 784.192
336.547, 795.268
337.029, 791.702
337.511, 760.144
337.993, 755.201
338.475, 800.028
338.957, 887.912
339.440, 946.065
339.922, 971.185
340.404, 973.653
340.886, 957.749
341.368, 921.203
341.850, 888.063
342.332, 861.644
342.814, 843.121
343.297, 840.866
343.779, 857.150
344.261, 876.161
344.743, 884.069
345.225, 882.618
345.707, 890.764
346.189, 917.317
346.671, 946.739
347.153, 943.859
347.635, 910.238
348.118, 879.814
348.600, 867.440
349.082, 874.354
349.564, 889.735
350.046, 896.166
350.528, 962.354
351.010, 911.751
351.492, 1007.107
351.975, 1067.051
352.457, 1093.463
352.939, 985.953
353.421, 1051.402
353.903, 1047.552
354.385, 1040.868
354.867, 1130.693
355.349, 1042.706
355.832, 1131.009
356.314, 1148.959
356.796, 1150.599
357.278, 1147.087
357.760, 1177.704
358.242, 1202.920
358.724, 1187.224
359.206, 1157.858
359.688, 1144.899
360.171, 1173.691
360.653, 1207.071
361.135, 1229.750
361.617, 1242.338
362.099, 1249.244
362.581, 1239.050
363.063, 1231.444
363.545, 1241.147
364.027, 1293.940
364.510, 1333.291
364.992, 1339.872
365.474, 1322.212
365.956, 1305.321
366.438, 1297.109
366.920, 1288.357
367.402, 1272.744
367.884, 1234.790
368.366, 1220.655
368.849, 1258.050
369.331, 1315.804
369.813, 1340.808
370.295, 1304.370
370.777, 1269.932
371.259, 1256.474
371.741, 1269.844
372.224, 1271.475
372.706, 1251.063
373.188, 1227.364
373.670, 1226.415
374.152, 1266.936
374.634, 1281.495
375.116, 1244.364
375.598, 1162.512
376.080, 1118.620
376.562, 1123.647
377.045, 1141.465
377.527, 1143.212
378.009, 1127.438
378.491, 1110.724
378.973, 1096.770
379.455, 1082.796
379.937, 1061.501
380.419, 1032.886
380.902, 999.369
381.384, 957.965
381.866, 911.519
382.348, 876.353
382.830, 856.366
383.312, 841.510
383.794, 812.803
384.276, 774.356
384.759, 746.560
385.241, 751.102
385.723, 770.074
386.205, 768.228
386.687, 743.219
387.169, 714.022
387.651, 692.024
388.133, 678.126
388.615, 674.369
389.098, 696.941
389.580, 718.273
390.062, 706.105
390.544, 665.467
391.026, 634.220
391.508, 646.241
391.990, 672.625
392.472, 686.927
392.954, 677.479
393.437, 662.921
393.919, 646.954
394.401, 632.197
394.883, 624.680
395.365, 633.974
395.847, 645.638
396.329, 651.641
396.811, 647.113
397.293, 647.078
397.776, 661.462
398.258, 679.497
398.740, 685.611
399.222, 661.646
399.704, 642.512
400.186, 633.897
400.668, 635.563
401.151, 649.830
401.633, 686.777
402.115, 727.585
402.597, 757.562
403.079, 777.029
403.561, 783.707
404.043, 768.416
404.525, 740.044
405.007, 747.023
405.490, 804.144
405.972, 859.203
406.454, 876.614
406.936, 853.345
407.418, 834.377
407.900, 821.519
408.382, 815.582
408.864, 818.275
409.346, 829.540
409.828, 847.354
410.311, 879.980
410.793, 919.217
411.275, 931.013
411.757, 912.719
412.239, 890.087
412.721, 884.124
413.203, 894.154
413.685, 919.112
414.168, 967.513
414.650, 1022.344
415.132, 1063.535
415.614, 1092.207
416.096, 1113.580
416.578, 1131.063
417.060, 1143.178
417.542, 1146.442
418.025, 1134.947
418.507, 1125.655
418.989, 1124.671
419.471, 1132.909
419.953, 1152.379
420.435, 1189.758
420.917, 1233.967
421.399, 1282.898
421.881, 1339.080
422.364, 1384.942
422.846, 1409.966
423.328, 1426.271
423.810, 1445.415
424.292, 1465.701
424.774, 1493.147
425.256, 1538.285
425.738, 1598.304
426.220, 1630.192
426.703, 1609.523
427.185, 1587.875
427.667, 1596.106
428.149, 1650.630
428.631, 1692.843
429.113, 1715.348
429.595, 1728.163
430.077, 1757.800
430.560, 1812.247
431.042, 1850.816
431.524, 1845.096
432.006, 1798.075
432.488, 1794.195
432.970, 1842.538
433.452, 1898.621
433.934, 1909.134
434.417, 1879.359
434.899, 1853.045
435.381, 1841.992
435.863, 1841.699
436.345, 1845.109
436.827, 1852.208
437.309, 1861.859
437.791, 1879.841
438.273, 1897.854
438.755, 1901.298
439.238, 1884.843
439.720, 1863.838
440.202, 1852.814
440.684, 1846.084
441.166, 1832.543
441.648, 1801.612
442.130, 1766.544
442.612, 1731.726
443.095, 1697.078
443.577, 1673.033
444.059, 1671.979
444.541, 1678.494
445.023, 1679.712
445.505, 1676.961
445.987, 1664.600
446.469, 1631.320
446.952, 1585.152
447.434, 1559.146
447.916, 1569.749
448.398, 1585.195
448.880, 1594.461
449.362, 1598.137
449.844, 1594.156
450.326, 1581.354
450.808, 1562.006
451.290, 1533.769
451.773, 1487.570
452.255, 1465.575
452.737, 1485.689
453.219, 1539.636
453.701, 1582.303
454.183, 1613.562
454.665, 1631.971
455.147, 1633.072
455.630, 1618.863
456.112, 1600.677
456.594, 1577.671
457.076, 1557.756
457.558, 1556.163
458.040, 1569.521
458.522, 1582.999
459.004, 1588.079
459.487, 1589.670
459.969, 1596.353
460.451, 1608.636
460.933, 1615.971
461.415, 1602.656
461.897, 1582.823
462.379, 1574.092
462.861, 1613.351
463.343, 1629.941
463.826, 1565.253
464.308, 1445.996
464.790, 1361.779
465.272, 1370.535
465.754, 1397.621
466.236, 1409.260
466.718, 1401.608
467.200, 1380.959
467.682, 1339.318
468.165, 1288.651
468.647, 1241.455
469.129, 1196.430
469.611, 1157.466
470.093, 1128.883
470.575, 1108.331
471.057, 1071.341
471.539, 1009.882
472.022, 949.874
472.504, 910.927
472.986, 894.571
473.468, 874.907
473.950, 849.883
474.432, 822.041
474.914, 799.811
475.396, 781.831
475.878, 751.441
476.361, 689.155
476.843, 613.529
477.325, 564.924
477.807, 542.840
478.289, 533.008
478.771, 530.155
479.253, 531.065
479.735, 532.017
480.217, 535.659
480.700, 532.342
481.182, 506.396
481.664, 468.053
482.146, 440.470
482.628, 433.748
483.110, 438.888
483.592, 457.868
484.074, 494.219
484.556, 512.803
485.039, 484.587
485.521, 446.462
486.003, 430.088
486.485, 458.337
486.967, 477.205
487.449, 479.086
487.931, 469.097
488.414, 467.770
488.896, 489.002
489.378, 491.577
489.860, 448.283
490.342, 354.480
490.824, 292.310
491.306, 265.399
491.788, 261.280
492.270, 273.642
492.753, 300.575
493.235, 316.829
493.717, 312.024
494.199, 296.771
494.681, 290.409
495.163, 291.367
495.645, 290.208
496.127, 273.399
496.609, 253.542
497.092, 251.855
497.574, 273.240
498.056, 290.665
498.538, 278.723
499.020, 253.931
499.502, 237.931
499.984, 248.801
500.466, 259.242
500.948, 253.815
501.431, 236.880
501.913, 232.404
502.395, 264.561
502.877, 294.438
503.359, 301.336
503.841, 271.267
504.323, 253.847
504.805, 255.309
505.288, 264.472
505.770, 259.627
506.252, 219.322
506.734, 234.419
507.216, 232.866
507.698, 260.835
508.180, 281.665
508.662, 295.715
509.145, 282.688
509.627, 304.181
510.109, 308.136
510.591, 299.651
511.073, 270.478
511.555, 243.916
512.037, 254.365
512.519, 288.465
513.001, 313.245
513.484, 302.398
513.966, 288.971
514.448, 308.006
514.930, 352.280
515.412, 386.718
515.894, 384.055
516.376, 371.983
516.858, 369.214
517.341, 381.333
517.823, 392.846
518.305, 399.459
518.787, 403.863
519.269, 409.388
519.751, 413.364
520.233, 422.771
520.715, 444.620
521.197, 474.429
521.680, 481.079
522.162, 454.551
522.644, 426.584
523.126, 415.477
523.608, 422.392
524.090, 430.396
524.572, 440.524
525.054, 448.142
525.536, 443.870
526.019, 430.312
526.501, 424.612
526.983, 440.514
527.465, 457.706
527.947, 435.831
528.429, 383.655
528.911, 341.981
529.393, 343.197
529.875, 362.566
530.358, 380.545
530.840, 395.555
531.322, 403.085
531.804, 399.037
532.286, 387.170
532.768, 371.664
533.250, 332.817
533.732, 314.014
534.214, 339.851
534.697, 395.168
535.179, 422.406
535.661, 404.846
536.143, 381.666
536.625, 366.429
537.107, 359.321
537.589, 358.744
538.071, 367.648
538.554, 376.654
539.036, 374.142
539.518, 360.318
540.000, 348.517
540.482, 339.667
540.964, 336.337
541.446, 347.608
541.928, 370.261
542.411, 388.594
542.893, 386.019
543.375, 378.513
543.857, 389.499
544.339, 418.695
544.821, 442.973
545.303, 447.772
545.785, 441.522
546.268, 430.762
546.750, 408.894
547.232, 396.846
547.714, 409.688
548.196, 434.693
548.678, 448.958
549.160, 440.424
549.642, 433.331
550.124, 436.179
550.606, 447.817
551.089, 440.816
551.571, 402.917
552.053, 371.169
552.535, 376.370
553.017, 421.003
553.499, 447.597
553.981, 451.421
554.463, 442.117
554.945, 425.873
555.428, 405.541
555.910, 396.748
556.392, 413.017
556.874, 434.896
557.356, 439.647
557.838, 428.728
558.320, 408.131
558.802, 357.534
559.284, 314.927
559.767, 316.342
560.249, 372.967
560.731, 423.203
561.213, 443.330
561.695, 449.308
562.177, 456.006
562.659, 464.806
563.141, 474.746
563.624, 488.586
564.106, 502.468
564.588, 506.021
565.070, 494.133
565.552, 483.626
566.034, 480.052
566.516, 483.007
566.998, 487.312
567.481, 492.149
567.963, 503.558
568.445, 536.916
568.927, 582.064
569.409, 603.675
569.891, 593.695
570.373, 570.816
570.855, 544.689
571.338, 520.821
571.820, 510.904
572.302, 533.359
572.784, 558.163
573.266, 567.249
573.748, 563.285
574.230, 560.552
574.712, 567.990
575.194, 573.847
575.677, 571.227
576.159, 556.076
576.641, 546.826
577.123, 544.117
577.605, 547.048
578.087, 556.790
578.569, 577.283
579.051, 590.356
579.533, 593.142
580.016, 588.536
580.498, 577.001
580.980, 559.247
581.462, 554.023
581.944, 574.931
582.426, 611.979
582.908, 652.447
583.390, 694.356
583.872, 719.896
584.355, 705.535
584.837, 673.786
585.319, 639.929
585.801, 596.301
586.283, 587.533
586.765, 679.527
587.247, 799.601
587.729, 860.984
588.211, 788.600
588.694, 727.015
589.176, 694.090
589.658, 686.047
590.140, 692.834
590.622, 725.542
591.104, 749.161
591.586, 742.689
592.068, 708.738
592.551, 707.999
593.033, 746.969
593.515, 780.999
593.997, 757.170
594.479, 694.303
594.961, 653.674
595.443, 645.616
595.925, 656.600
596.407, 687.933
596.890, 726.946
597.372, 749.852
597.854, 736.855
598.336, 715.771
598.818, 689.848
599.300, 664.263
599.782, 661.160
600.265, 720.537
600.747, 770.804
601.229, 777.692
601.711, 731.251
602.193, 697.600
602.675, 650.220
603.157, 715.779
603.639, 753.929
604.121, 766.148
604.604, 674.758
605.086, 717.188
605.568, 706.010
606.050, 692.632
606.532, 753.934
607.014, 677.666
607.496, 737.800
607.978, 743.492
608.460, 736.585
608.943, 758.318
609.425, 783.821
609.907, 810.426
610.389, 821.700
610.871, 795.616
611.353, 721.471
611.835, 677.615
612.317, 707.571
612.799, 754.557
613.282, 776.793
613.764, 756.959
614.246, 748.575
614.728, 760.071
615.210, 777.549
615.692, 773.457
616.174, 744.944
616.656, 728.151
617.138, 738.990
617.621, 763.608
618.103, 773.036
618.585, 767.645
619.067, 751.723
619.549, 704.421
620.031, 660.900
620.513, 671.219
620.995, 739.117
621.477, 797.446
621.960, 806.836
622.442, 793.796
622.924, 777.815
623.406, 750.395
623.888, 740.744
624.370, 768.113
624.852, 806.854
625.334, 824.923
625.817, 818.043
626.299, 799.384
626.781, 766.264
627.263, 725.935
627.745, 699.493
628.227, 687.175
628.709, 684.564
629.191, 696.033
629.674, 714.484
630.156, 721.704
630.638, 718.524
631.120, 714.645
631.602, 723.825
632.084, 732.254
632.566, 721.905
633.048, 681.404
633.531, 652.925
634.013, 658.514
634.495, 681.883
634.977, 706.031
635.459, 734.521
635.941, 756.050
636.423, 767.269
636.905, 772.038
637.387, 781.366
637.870, 798.164
638.352, 805.032
638.834, 790.530
639.316, 763.427
639.798, 748.995
640.280, 747.552
640.762, 766.179
641.244, 835.536
641.726, 917.362
642.209, 953.718
642.691, 938.864
643.173, 911.479
643.655, 879.305
644.137, 854.210
644.619, 848.314
645.101, 886.858
645.583, 907.632
646.065, 878.745
646.548, 836.698
647.030, 832.521
647.512, 886.133
647.994, 930.425
648.476, 951.666
648.958, 955.677
649.440, 953.938
649.922, 945.479
650.404, 955.979
650.887, 1016.797
651.369, 1100.256
651.851, 1150.524
652.333, 1168.872
652.815, 1165.020
653.297, 1130.166
653.779, 1086.301
654.261, 1056.777
654.744, 1050.531
655.226, 1032.597
655.708, 967.342
656.190, 899.426
656.672, 872.559
657.154, 927.332
657.636, 952.364
658.118, 933.375
658.601, 891.475
659.083, 862.874
659.565, 848.733
660.047, 834.511
660.529, 812.249
661.011, 791.166
661.493, 800.213
661.975, 833.099
662.458, 855.974
662.940, 838.798
663.422, 810.281
663.904, 798.084
664.386, 802.695
664.868, 809.746
665.350, 819.857
665.832, 825.727
666.314, 821.425
666.797, 800.293
667.279, 785.730
667.761, 782.187
668.243, 779.572
668.725, 763.267
669.207, 726.290
669.689, 718.893
670.171, 754.035
670.653, 800.734
671.135, 811.004
671.618, 790.123
672.100, 761.541
672.582, 724.838
673.064, 695.452
673.546, 690.137
674.028, 665.029
674.510, 695.072
674.992, 711.743
675.474, 715.753
675.957, 669.162
676.439, 687.929
676.921, 680.516
677.403, 672.042
677.885, 700.036
678.367, 660.858
678.849, 684.710
679.331, 698.780
679.814, 687.618
680.296, 668.727
680.778, 654.363
681.260, 645.088
681.742, 649.101
682.224, 670.913
682.706, 687.313
683.188, 663.934
683.670, 624.190
684.153, 603.286
684.635, 622.471
685.117, 648.904
685.599, 686.646
686.081, 722.486
686.563, 725.845
687.045, 663.433
687.528, 619.468
688.010, 615.642
688.492, 643.024
688.974, 667.464
689.456, 689.581
689.938, 704.577
690.420, 709.393
690.902, 705.216
691.384, 692.277
691.867, 671.256
692.349, 652.153
692.831, 641.398
693.313, 635.711
693.795, 629.773
694.277, 621.263
694.759, 624.099
695.241, 661.285
695.723, 700.207
696.206, 713.578
696.688, 688.057
697.170, 662.014
697.652, 632.558
698.134, 606.729
698.616, 597.471
699.098, 605.679
699.580, 605.645
700.062, 590.418
700.545, 569.579
701.027, 558.467
701.509, 553.723
701.991, 545.866
702.473, 513.697
702.955, 492.184
703.437, 526.739
703.919, 594.612
704.402, 620.963
704.884, 538.792
705.366, 459.161
705.848, 414.001
706.330, 402.839
706.812, 420.355
707.294, 481.320
707.776, 533.652
708.258, 541.824
708.741, 511.346
709.223, 495.055
709.705, 493.514
710.187, 497.229
710.669, 498.702
711.151, 500.265
711.633, 507.664
712.115, 524.510
712.597, 532.883
713.080, 516.463
713.562, 490.860
714.044, 471.225
714.526, 457.694
715.008, 453.311
715.490, 460.836
715.972, 475.048
716.455, 490.007
716.937, 506.435
717.419, 518.521
717.901, 526.033
718.383, 527.046
718.865, 510.255
719.347, 482.351
719.829, 467.145
720.311, 489.086
720.794, 516.465
721.276, 523.191
721.758, 513.886
722.240, 503.777
722.722, 491.546
723.204, 485.772
723.686, 493.105
724.168, 511.986
724.651, 524.255
725.133, 532.049
725.615, 527.770
726.097, 497.656
726.579, 446.979
727.061, 433.999
727.543, 459.795
728.025, 487.327
728.507, 484.475
728.990, 465.929
729.472, 453.667
729.954, 451.582
730.436, 444.854
730.918, 414.211
731.400, 383.005
731.882, 370.662
732.364, 395.946
732.846, 412.886
733.328, 420.252
733.811, 420.344
734.293, 412.341
734.775, 394.704
735.257, 388.571
735.739, 400.084
736.221, 415.313
736.703, 412.181
737.185, 396.454
737.667, 383.312
738.150, 377.547
738.632, 377.276
739.114, 384.220
739.596, 395.839
740.078, 406.882
740.560, 422.930
741.042, 430.512
741.524, 423.140
742.007, 405.752
742.489, 394.828
742.971, 389.149
743.453, 394.935
743.935, 420.085
744.417, 455.451
744.899, 473.453
745.381, 474.710
745.864, 469.000
746.346, 454.044
746.828, 439.873
747.310, 437.395
747.792, 446.180
748.274, 456.049
748.756, 473.591
749.238, 482.648
749.721, 473.180
750.203, 443.133
750.685, 418.389
751.167, 402.195
751.649, 385.505
752.131, 355.117
752.613, 396.383
753.095, 420.270
753.577, 427.688
754.060, 369.358
754.542, 395.930
755.024, 388.542
755.506, 379.819
755.988, 418.370
756.470, 369.609
756.952, 402.750
757.434, 422.800
757.916, 434.288
758.399, 429.531
758.881, 413.004
759.363, 381.006
759.845, 343.170
760.327, 311.683
760.809, 286.997
761.291, 269.160
761.773, 260.702
762.255, 256.091
762.738, 245.623
763.220, 234.226
763.702, 231.712
764.184, 251.735
764.666, 269.466
765.148, 250.852
765.630, 225.896
766.112, 263.986
766.594, 236.520
767.077, 269.759
767.559, 288.202
768.041, 292.742
768.523, 241.407
769.005, 262.090
769.487, 253.722
769.969, 244.208
770.451, 275.040
770.934, 231.684
771.416, 261.709
771.898, 262.346
772.380, 276.500
772.862, 261.745
773.344, 256.055
773.826, 254.860
774.308, 234.264
774.791, 262.412
775.273, 285.086
775.755, 277.279
776.237, 246.170
776.719, 251.287
777.201, 294.289
777.683, 334.579
778.165, 340.804
778.648, 331.054
779.130, 333.784
779.612, 348.603
780.094, 362.790
780.576, 376.337
781.058, 380.843
781.540, 364.966
782.022, 321.886
782.504, 303.210
782.987, 325.693
783.469, 346.793
783.951, 337.650
784.433, 298.927
784.915, 268.387
785.397, 245.628
785.879, 236.108
786.361, 256.235
786.843, 287.750
787.326, 302.502
787.808, 296.597
788.290, 285.912
788.772, 271.653
789.254, 259.891
789.736, 256.375
790.218, 264.229
790.700, 271.191
791.182, 276.163
791.665, 280.922
792.147, 291.505
792.629, 306.018
793.111, 296.396
793.593, 256.793
794.075, 219.653
794.557, 220.577
795.039, 243.336
795.521, 269.405
796.004, 303.095
796.486, 314.728
796.968, 273.465
797.450, 216.724
797.932, 180.444
798.414, 172.075
798.896, 169.403
799.378, 172.755
799.860, 179.812
800.343, 193.636
800.825, 210.629
801.307, 208.035
801.789, 177.977
802.271, 140.778
802.753, 104.690
803.235, 77.630
803.718, 68.798
804.200, 77.362
804.682, 31.177
805.164, 84.250
805.646, 113.138
806.128, 119.402
806.610, 34.661
807.092, 67.484
807.574, 52.902
808.057, 36.251
808.539, 85.235
809.021, 13.304
809.503, 61.345
809.985, 61.550
810.467, 83.609
810.949, 48.278
811.431, 38.657
811.914, 27.661
812.396, 9.383
812.878, 24.106
813.360, 1.446
813.842, 40.938
814.324, 47.651
814.806, 17.585
815.288, 0.210
815.770, 8.936
816.253, 26.981
816.735, 32.350
817.217, 27.907
817.699, 20.856
818.181, 21.635
818.663, 9.345
819.145, 45.810
819.627, 116.092
820.109, 148.076
820.592, 116.915
821.074, 89.228
821.556, 70.062
822.038, 61.931
822.520, 80.361
823.002, 121.124
823.484, 136.450
823.966, 102.062
824.448, 57.956
824.931, 54.574
825.413, 73.323
825.895, 79.494
826.377, 40.989
826.859, 12.636
827.341, 21.173
827.823, 44.470
828.305, 42.799
828.787, 3.381
829.270, 11.697
829.752, 15.984
830.234, 61.605
830.716, 82.490
831.198, 84.479
831.680, 89.199
832.162, 110.436
832.644, 126.254
833.127, 110.468
833.609, 81.216
834.091, 69.497
834.573, 105.131
835.055, 126.350
835.537, 121.353
836.019, 104.001
836.501, 100.133
836.984, 109.968
837.466, 115.528
837.948, 109.043
838.430, 104.542
838.912, 114.455
839.394, 88.482
839.876, 71.244
840.358, 62.258
840.841, 86.235
841.323, 67.677
841.805, 66.180
842.287, 65.405
842.769, 50.285
843.251, 53.576
843.733, 58.490
844.215, 65.996
844.697, 85.854
845.180, 111.327
845.662, 110.614
846.144, 60.336
846.626, 17.521
847.108, 42.065
847.590, 96.003
848.072, 127.614
848.554, 102.550
849.036, 84.070
849.519, 71.834
850.001, 70.649
850.483, 95.271
850.965, 146.193
851.447, 172.442
851.929, 162.857
852.411, 136.399
852.893, 102.796
853.375, 70.416
853.858, 53.520
854.340, 61.146
854.822, 72.544
855.304, 88.404
855.786, 100.169
856.268, 96.138
856.750, 65.020
857.232, 61.214
857.714, 97.150
858.197, 134.542
858.679, 156.626
859.161, 142.548
859.643, 151.843
860.125, 115.134
860.607, 89.619
861.089, 74.678
861.571, 101.988
862.054, 74.773
862.536, 69.431
863.018, 53.271
863.500, 97.081
863.982, 124.166
864.464, 105.595
864.946, 46.486
865.428, 14.859
865.911, 15.953
866.393, 28.328
866.875, 43.122
867.357, 53.269
867.839, 44.055
868.321, 7.894
868.803, 7.739
869.285, 41.817
869.767, 84.917
870.250, 80.065
870.732, 21.587
871.214, 20.988
871.696, 46.956
872.178, 62.665
872.660, 67.456
873.142, 67.522
873.624, 76.834
874.106, 94.799
874.589, 102.455
875.071, 88.693
875.553, 62.872
876.035, 18.632
876.517, 43.046
876.999, 63.153
877.481, 32.484
877.963, 10.801
878.445, 56.729
878.928, 97.965
879.410, 101.222
879.892, 73.646
880.374, 55.394
880.856, 87.426
881.338, 120.405
881.820, 116.350
882.302, 82.243
882.784, 69.021
883.267, 90.646
883.749, 111.286
884.231, 118.851
884.713, 119.667
885.195, 137.070
885.677, 168.130
886.159, 192.448
886.641, 197.885
887.124, 196.024
887.606, 199.426
888.088, 202.969
888.570, 195.578
889.052, 157.923
889.534, 129.981
890.016, 111.904
890.498, 110.756
890.981, 152.507
891.463, 236.624
891.945, 288.693
892.427, 284.798
892.909, 256.170
893.391, 223.686
893.873, 195.457
894.355, 185.471
894.838, 211.066
895.320, 231.374
895.802, 228.935
896.284, 223.098
896.766, 236.574
897.248, 274.915
897.730, 290.683
898.212, 276.693
898.694, 256.468
899.177, 257.986
899.659, 270.557
900.141, 275.046
900.623, 266.862
901.105, 264.542
901.587, 286.337
902.069, 308.845
902.551, 313.367
903.033, 293.948
903.516, 298.768
903.998, 335.035
904.480, 364.747
904.962, 345.434
905.444, 301.830
905.926, 292.252
906.408, 315.845
906.890, 336.961
907.372, 330.605
907.855, 320.731
908.337, 322.902
908.819, 335.797
909.301, 337.828
909.783, 325.626
910.265, 315.054
910.747, 315.330
911.229, 319.978
911.711, 309.193
912.194, 287.146
912.676, 271.229
913.158, 270.664
913.640, 278.127
914.122, 294.075
914.604, 315.102
915.086, 329.772
915.568, 325.521
916.051, 312.741
916.533, 340.870
917.015, 359.104
917.497, 367.869
917.979, 339.176
918.461, 359.168
918.943, 359.743
919.425, 359.422
919.907, 386.306
920.390, 381.339
920.872, 417.291
921.354, 419.310
921.836, 421.354
922.318, 421.415
922.800, 425.444
923.282, 444.945
923.764, 473.803
924.247, 480.288
924.729, 460.442
925.211, 449.003
925.693, 490.154
926.175, 536.087
926.657, 543.303
927.139, 498.944
927.621, 481.587
928.104, 507.510
928.586, 529.909
929.068, 516.661
929.550, 480.794
930.032, 483.489
930.514, 519.656
930.996, 550.265
931.478, 545.914
931.960, 533.846
932.443, 519.238
932.925, 510.522
933.407, 497.540
933.889, 523.188
934.371, 539.256
934.853, 546.371
935.335, 518.180
935.817, 535.913
936.299, 539.540
936.782, 522.103
937.264, 545.769
937.746, 578.118
938.228, 604.701
938.710, 622.480
939.192, 625.404
939.674, 594.894
940.156, 588.466
940.638, 619.665
941.121, 650.686
941.603, 629.551
942.085, 572.491
942.567, 544.245
943.049, 551.814
943.531, 581.197
944.013, 661.714
944.495, 730.935
944.977, 724.869
945.460, 623.526
945.942, 589.980
946.424, 655.629
946.906, 713.943
947.388, 701.543
947.870, 643.540
948.352, 618.073
948.834, 621.382
949.317, 634.227
949.799, 645.407
950.281, 664.184
950.763, 707.857
951.245, 762.979
951.727, 786.806
952.209, 765.039
952.691, 750.340
953.174, 755.377
953.656, 766.481
954.138, 750.192
954.620, 721.812
955.102, 727.126
955.584, 795.338
956.066, 849.036
956.548, 828.861
957.031, 786.653
957.513, 773.481
957.995, 798.876
958.477, 826.188
958.959, 856.996
959.441, 884.451
959.923, 900.884
960.405, 910.233
960.887, 922.620
961.370, 937.745
961.852, 944.667
962.334, 925.315
962.816, 908.821
963.298, 911.476
963.780, 929.487
964.262, 942.079
964.744, 948.477
965.226, 954.803
965.709, 962.486
966.191, 972.738
966.673, 991.000
967.155, 1013.101
967.637, 1029.611
968.119, 1037.312
968.601, 1039.010
969.083, 1027.656
969.565, 1016.500
970.048, 1025.202
970.530, 1055.743
971.012, 1064.922
971.494, 1044.870
971.976, 1027.417
972.458, 1068.203
972.940, 1115.677
973.422, 1090.009
973.904, 1081.071
974.387, 1116.694
974.869, 1141.508
975.351, 1133.722
975.833, 1190.385
976.315, 1196.877
976.797, 1193.068
977.279, 1180.528
977.761, 1178.839
978.244, 1218.728
978.726, 1256.405
979.208, 1249.282
979.690, 1212.020
980.172, 1182.977
980.654, 1169.224
981.136, 1161.316
981.618, 1158.000
982.101, 1160.472
982.583, 1173.652
983.065, 1194.802
983.547, 1211.850
984.029, 1221.527
984.511, 1233.362
984.993, 1261.947
985.475, 1290.151
985.957, 1303.996
986.440, 1304.029
986.922, 1282.061
987.404, 1229.770
987.886, 1185.328
988.368, 1185.035
988.850, 1206.571
989.332, 1190.216
989.814, 1147.368
990.296, 1130.169
990.779, 1196.959
991.261, 1256.118
991.743, 1242.006
992.225, 1207.661
992.707, 1283.319
993.189, 1260.985
993.671, 1282.352
994.153, 1293.105
994.635, 1293.849
995.118, 1254.521
995.600, 1266.953
996.082, 1258.651
996.564, 1260.632
997.046, 1249.339
997.528, 1241.485
998.010, 1237.041
998.492, 1233.485
998.974, 1231.779
999.457, 1255.302
999.939, 1301.774
1000.421, 1331.375
1000.903, 1301.945
1001.385, 1260.204
1001.867, 1241.163
1002.349, 1240.990
1002.831, 1239.897
1003.314, 1239.384
1003.796, 1229.098
1004.278, 1202.133
1004.760, 1173.076
1005.242, 1174.280
1005.724, 1192.973
1006.206, 1191.745
1006.688, 1155.056
1007.171, 1120.235
1007.653, 1105.766
1008.135, 1100.764
1008.617, 1095.643
1009.099, 1089.899
1009.581, 1090.817
1010.063, 1099.844
1010.545, 1103.899
1011.027, 1089.954
1011.510, 1068.090
1011.992, 1055.264
1012.474, 1047.677
1012.956, 1028.960
1013.438, 969.732
1013.920, 930.734
1014.402, 932.745
1014.884, 953.326
1015.367, 947.657
1015.849, 919.288
1016.331, 897.098
1016.813, 887.147
1017.295, 885.686
1017.777, 899.394
1018.259, 914.191
1018.741, 916.519
1019.223, 904.035
1019.706, 882.771
1020.188, 849.206
1020.670, 817.741
1021.152, 795.527
1021.634, 782.642
1022.116, 780.195
1022.598, 787.519
1023.080, 802.321
1023.563, 841.374
1024.045, 866.354
1024.527, 855.407
1025.009, 826.368
1025.491, 809.720
1025.973, 806.020
1026.455, 794.209
1026.937, 768.948
1027.419, 745.527
1027.901, 738.295
1028.384, 742.723
1028.866, 760.460
1029.348, 797.987
1029.830, 802.904
1030.312, 752.510
1030.794, 709.676
1031.276, 712.480
1031.758, 743.625
1032.241, 739.908
1032.723, 708.272
1033.205, 676.584
1033.687, 644.366
1034.169, 631.638
1034.651, 618.640
1035.133, 599.200
1035.615, 620.871
1036.098, 632.562
1036.580, 634.841
1037.062, 599.400
1037.544, 612.678
1038.026, 606.445
1038.508, 599.421
1038.990, 619.586
1039.472, 589.681
1039.954, 609.426
1040.437, 609.360
1040.919, 618.383
1041.401, 607.774
1041.883, 603.237
1042.365, 618.359
1042.847, 600.758
1043.329, 595.998
1043.811, 593.676
1044.293, 589.895
1044.776, 583.952
1045.258, 574.548
1045.740, 558.473
1046.222, 529.638
1046.704, 519.912
1047.186, 533.085
1047.668, 545.667
1048.150, 526.678
1048.633, 501.829
1049.115, 519.867
1049.597, 572.566
1050.079, 599.204
1050.561, 551.181
1051.043, 512.096
1051.525, 498.021
1052.007, 504.936
1052.490, 535.830
1052.972, 583.492
1053.454, 610.465
1053.936, 605.626
1054.418, 588.495
1054.900, 555.193
1055.382, 527.743
1055.864, 529.832
1056.346, 564.350
1056.828, 581.784
1057.311, 578.880
1057.793, 579.484
1058.275, 602.527
1058.757, 633.450
1059.239, 618.833
1059.721, 596.904
1060.203, 579.783
1060.685, 613.451
1061.168, 634.800
1061.650, 644.494
1062.132, 607.599
1062.614, 630.881
1063.096, 630.052
1063.578, 628.252
1064.060, 660.031
1064.542, 652.341
1065.025, 660.131
1065.507, 698.768
1065.989, 682.885
1066.471, 624.498
1066.953, 585.012
1067.435, 564.333
1067.917, 565.792
1068.399, 598.039
1068.881, 636.386
1069.364, 654.990
1069.846, 658.725
1070.328, 652.808
1070.810, 625.960
1071.292, 619.471
1071.774, 639.471
1072.256, 668.868
1072.738, 705.805
1073.220, 740.859
1073.703, 732.181
1074.185, 687.011
1074.667, 644.069
1075.149, 605.255
1075.631, 592.778
1076.113, 637.909
1076.595, 701.868
1077.077, 718.445
1077.559, 687.401
1078.042, 663.165
1078.524, 653.717
1079.006, 649.267
1079.488, 638.766
1079.970, 631.370
1080.452, 637.004
1080.934, 657.557
1081.416, 675.878
1081.899, 692.939
1082.381, 703.069
1082.863, 700.548
1083.345, 694.436
1083.827, 699.381
1084.309, 713.055
1084.791, 732.266
1085.273, 763.984
1085.755, 782.820
1086.238, 775.944
1086.720, 766.028
1087.202, 776.700
1087.684, 802.410
1088.166, 783.868
1088.648, 727.544
1089.130, 692.548
1089.612, 734.682
1090.094, 786.411
1090.577, 816.689
1091.059, 829.327
1091.541, 829.541
1092.023, 813.883
1092.505, 816.861
1092.987, 845.146
1093.469, 879.229
1093.951, 899.618
1094.434, 915.292
1094.916, 938.412
1095.398, 970.310
1095.880, 985.022
1096.362, 962.831
1096.844, 970.377
1097.326, 964.410
1097.808, 999.139
1098.291, 1024.025
1098.773, 1039.550
1099.255, 1017.729
1099.737, 1044.144
1100.219, 1051.235
1100.701, 1057.532
1101.183, 1090.756
1101.665, 1092.335
1102.147, 1091.432
1102.630, 1101.434
1103.112, 1121.562
1103.594, 1146.426
1104.076, 1158.116
1104.558, 1189.042
1105.040, 1182.935
1105.522, 1214.012
1106.004, 1236.075
1106.486, 1249.596
1106.969, 1229.022
1107.451, 1252.494
1107.933, 1262.391
1108.415, 1286.542
1108.897, 1327.730
1109.379, 1356.591
1109.861, 1373.037
1110.343, 1404.951
1110.826, 1466.450
1111.308, 1506.695
1111.790, 1506.016
1112.272, 1492.150
1112.754, 1511.512
1113.236, 1548.157
1113.718, 1568.749
1114.200, 1557.745
1114.682, 1570.356
1115.165, 1639.155
1115.647, 1703.288
1116.129, 1723.164
1116.611, 1715.721
1117.093, 1757.992
1117.575, 1838.638
1118.057, 1909.677
1118.539, 1953.900
1119.021, 1978.618
1119.504, 1968.068
1119.986, 1952.723
1120.468, 1965.278
1120.950, 2008.218
1121.432, 2035.919
1121.914, 2047.455
1122.396, 2063.118
1122.878, 2113.739
1123.361, 2159.034
1123.843, 2164.803
1124.325, 2140.253
1124.807, 2118.556
1125.289, 2097.791
1125.771, 2094.469
1126.253, 2114.634
1126.735, 2134.646
1127.218, 2128.391
1127.700, 2106.443
1128.182, 2074.717
1128.664, 2034.087
1129.146, 2016.733
1129.628, 2043.179
1130.110, 2046.482
1130.592, 2001.760
1131.074, 1928.120
1131.557, 1847.890
1132.039, 1768.230
1132.521, 1710.164
1133.003, 1687.448
1133.485, 1652.075
1133.967, 1583.416
1134.449, 1514.947
1134.931, 1469.808
1135.413, 1438.169
1135.896, 1365.431
1136.378, 1264.435
1136.860, 1185.517
1137.342, 1162.848
1137.824, 1153.912
1138.306, 1165.540
1138.788, 1166.711
1139.270, 1118.801
1139.752, 1021.908
1140.235, 948.835
1140.717, 901.017
1141.199, 865.604
1141.681, 844.103
1142.163, 822.502
1142.645, 793.651
1143.127, 757.428
1143.609, 714.604
1144.092, 662.888
1144.574, 623.451
1145.056, 601.646
1145.538, 571.411
1146.020, 481.079
1146.502, 391.158
1146.984, 377.153
1147.466, 436.351
1147.948, 443.612
1148.431, 380.133
1148.913, 334.559
1149.395, 332.774
1149.877, 349.756
1150.359, 360.414
1150.841, 363.019
1151.323, 352.065
1151.805, 321.768
1152.287, 292.163
1152.770, 219.550
1153.252, 183.955
1153.734, 213.887
1154.216, 227.926
1154.698, 226.980
1155.180, 165.915
1155.662, 182.601
1156.144, 168.119
1156.627, 168.927
1157.109, 168.979
1157.591, 180.245
1158.073, 191.798
1158.555, 200.507
1159.037, 188.218
1159.519, 160.656
1160.001, 141.364
1160.484, 152.849
1160.966, 158.892
1161.448, 151.385
1161.930, 133.312
1162.412, 101.544
1162.894, 60.086
1163.376, 34.123
1163.858, 24.753
1164.340, 27.570
1164.823, 66.097
1165.305, 86.829
1165.787, 48.016
1166.269, 13.054
1166.751, 26.370
1167.233, 4.760
1167.715, 42.448
1168.197, 83.849
1168.679, 100.086
1169.162, 36.485
1169.644, 29.726
1170.126, 39.943
1170.608, 8.686
1171.090, 20.060
1171.572, 45.820
1172.054, 41.488
1172.536, 10.182
1173.019, 55.120
1173.501, 33.391
1173.983, 8.001
1174.465, 21.545
1174.947, 6.278
1175.429, 14.230
1175.911, 48.868
1176.393, 68.112
1176.875, 49.723
1177.358, 18.705
1177.840, 3.966
1178.322, 21.120
1178.804, 37.770
1179.286, 59.409
1179.768, 53.421
1180.250, 16.418
1180.732, 24.700
1181.214, 62.314
1181.697, 87.081
1182.179, 83.071
1182.661, 59.110
1183.143, 31.479
1183.625, 2.230
1184.107, 29.552
1184.589, 51.488
1185.071, 62.553
1185.554, 50.491
1186.036, 30.162
1186.518, 24.011
1187.000, 27.743
1187.482, 24.370
1187.964, 10.976
1188.446, 14.106
1188.928, 58.710
1189.411, 91.956
1189.893, 69.907
1190.375, 21.361
1190.857, 11.409
1191.339, 26.909
1191.821, 33.834
1192.303, 28.639
1192.785, 26.433
1193.267, 31.233
1193.750, 36.500
1194.232, 23.914
1194.714, 9.658
1195.196, 31.396
1195.678, 92.345
1196.160, 126.207
1196.642, 102.081
1197.124, 82.393
1197.606, 86.854
1198.089, 97.833
1198.571, 77.440
1199.053, 42.196
1199.535, 23.521
1200.017, 28.051
1200.499, 44.768
1200.981, 96.954
1201.463, 123.364
1201.945, 87.142
1202.428, 66.181
1202.910, 59.619
1203.392, 110.466
1203.874, 87.100
1204.356, 93.315
1204.838, 100.803
1205.320, 83.319
1205.802, 92.627
1206.285, 79.726
1206.767, 54.123
1207.249, 43.178
1207.731, 40.599
1208.213, 28.259
1208.695, 15.733
1209.177, 33.205
1209.659, 3.014
1210.141, 31.110
1210.624, 36.068
1211.106, 23.501
1211.588, 30.257
1212.070, 50.558
1212.552, 66.638
1213.034, 75.248
1213.516, 70.823
1213.998, 45.584
1214.480, 21.333
1214.963, 16.638
1215.445, 27.330
1215.927, 47.475
1216.409, 72.130
1216.891, 82.692
1217.373, 51.070
1217.855, 35.114
1218.337, 49.772
1218.820, 70.038
1219.302, 62.918
1219.784, 41.977
1220.266, 54.626
1220.748, 94.022
1221.230, 111.200
1221.712, 55.131
1222.194, 22.006
1222.677, 37.270
1223.159, 64.860
1223.641, 77.540
1224.123, 103.061
1224.605, 68.569
1225.087, 48.618
1225.569, 42.479
1226.051, 91.489
1226.533, 69.312
1227.016, 75.686
1227.498, 83.385
1227.980, 51.415
1228.462, 92.526
1228.944, 61.020
1229.426, 58.438
1229.908, 42.623
1230.390, 55.642
1230.872, 59.997
1231.355, 35.560
1231.837, 26.871
1232.319, 43.187
1232.801, 26.660
1233.283, 68.852
1233.765, 59.451
1234.247, 27.903
1234.729, 52.715
1235.212, 72.477
1235.694, 45.040
1236.176, 2.186
1236.658, 4.524
1237.140, 27.199
1237.622, 24.322
1238.104, 16.130
1238.586, 43.654
1239.068, 54.198
1239.551, 48.056
1240.033, 18.409
1240.515, 13.775
1240.997, 20.146
1241.479, 6.488
1241.961, 29.162
1242.443, 100.601
1242.925, 100.307
1243.407, 3.496
1243.890, 81.869
1244.372, 73.232
1244.854, 23.798
1245.336, 13.075
1245.818, 37.948
1246.300, 47.460
1246.782, 31.677
1247.264, 40.610
1247.747, 82.545
1248.229, 111.637
1248.711, 101.250
1249.193, 75.579
1249.675, 59.854
1250.157, 51.355
1250.639, 43.537
1251.121, 34.094
1251.604, 40.683
1252.086, 67.360
1252.568, 80.020
1253.050, 52.805
1253.532, 14.621
1254.014, 17.900
1254.496, 37.443
1254.978, 29.532
1255.460, 10.708
1255.943, 35.835
1256.425, 45.627
1256.907, 48.071
1257.389, 43.846
1257.871, 39.008
1258.353, 4.762
1258.835, 6.758
1259.317, 27.475
1259.799, 13.755
1260.281, 7.781
1260.764, 10.330
1261.246, 33.305
1261.728, 66.358
1262.210, 56.712
1262.692, 52.621
1263.174, 46.527
1263.656, 40.292
1264.138, 32.617
1264.621, 44.978
1265.103, 22.343
1265.585, 8.383
1266.067, 2.397
1266.549, 17.103
1267.031, 40.124
1267.513, 2.206
1267.995, 13.633
1268.478, 12.118
1268.960, 27.559
1269.442, 56.009
1269.924, 74.685
1270.406, 55.897
1270.888, 48.180
1271.370, 69.550
1271.852, 94.301
1272.334, 88.505
1272.817, 65.489
1273.299, 70.467
1273.781, 97.070
1274.263, 113.511
1274.745, 98.767
1275.227, 86.333
1275.709, 80.192
1276.191, 76.226
1276.673, 79.399
1277.156, 79.765
1277.638, 43.994
1278.120, 12.657
1278.602, 32.785
1279.084, 25.049
1279.566, 55.341
1280.048, 47.048
1280.530, 25.024
1281.013, 0.178
1281.495, 19.014
1281.977, 17.608
1282.459, 0.984
1282.941, 22.897
1283.423, 58.512
1283.905, 70.358
1284.387, 53.844
1284.870, 32.629
1285.352, 27.489
1285.834, 24.933
1286.316, 7.203
1286.798, 14.021
1287.280, 10.315
1287.762, 20.188
1288.244, 47.573
1288.726, 71.606
1289.208, 84.245
1289.691, 78.211
1290.173, 60.796
1290.655, 17.925
1291.137, 21.683
1291.619, 5.941
1292.101, 55.058
1292.583, 75.493
1293.065, 57.128
1293.548, 38.588
1294.030, 41.512
1294.512, 43.629
1294.994, 41.233
1295.476, 37.460
1295.958, 38.697
1296.440, 39.364
1296.922, 19.263
1297.405, 0.000
##END=



