##NAMES=Aravaipaite
##RRUFFID=R100032
##IDEAL CHEMISTRY=Pb^2+^_3_AlF_9_&#183;H_2_O
##LOCALITY=Grand Reef mine, Klondyke, Aravaipa District, Graham County, Arizona, USA
##OWNER=RRUFF
##SOURCE=William W. Pinch
##DESCRIPTION=Transparent sheets, associated with laurelite R100011 and scotlandite R100043
##STATUS=The identification of this mineral has been confirmed by single-crystal X-ray diffraction.
##URL=rruff.info/R100032
118.5317, 0.0000000E+00
119.0139, 7.3199999E-04
119.4960, 3.720703
119.9781, 6.389038
120.4602, 6.447388
120.9423, 4.836792
121.4244, 2.964600
121.9066, 2.088623
122.3887, 2.714111
122.8708, 3.263672
123.3529, 2.548096
123.8350, 1.906128
124.3171, 1.923706
124.7993, 2.347900
125.2814, 2.643188
125.7635, 1.968750
126.2456, 6.0180999E-02
126.7277, 0.5415040
127.2098, 2.773804
127.6920, 6.899658
128.1741, 7.985962
128.6562, 5.413330
129.1383, 1.785645
129.6204, 0.3632810
130.1025, 0.7864990
130.5847, 1.504517
131.0668, 2.272827
131.5489, 2.987915
132.0310, 3.215942
132.5131, 2.489502
132.9952, 1.661499
133.4774, 1.666382
133.9595, 2.511353
134.4416, 3.199463
134.9237, 2.586670
135.4058, 0.4049070
135.8879, 1.153320
136.3701, 1.216064
136.8522, 0.7777100
137.3343, 0.2310790
137.8164, 0.3116460
138.2985, 0.7691650
138.7806, 1.003540
139.2628, 0.9698490
139.7449, 0.7738040
140.2270, 4.5170002E-03
140.7091, 0.7182620
141.1912, 0.7333980
141.6733, 0.2323000
142.1555, 1.918457
142.6376, 3.439331
143.1197, 5.440674
143.6018, 6.483521
144.0839, 5.698853
144.5660, 3.906860
145.0482, 2.402222
145.5303, 1.952148
146.0124, 2.406494
146.4945, 2.651245
146.9766, 1.504517
147.4587, 1.298706
147.9409, 4.088135
148.4230, 9.151001
148.9051, 13.16614
149.3872, 13.60950
149.8693, 10.82520
150.3514, 8.543457
150.8336, 6.835205
151.3157, 5.645142
151.7978, 5.130615
152.2799, 5.398560
152.7620, 5.599487
153.2441, 4.451782
153.7263, 2.802856
154.2084, 2.217651
154.6905, 4.564453
155.1726, 8.142944
155.6547, 8.729492
156.1368, 4.360718
156.6190, 0.5289310
157.1011, 0.5888670
157.5832, 3.240723
158.0653, 6.017822
158.5474, 7.333984
159.0295, 7.300781
159.5117, 7.449951
159.9938, 7.968994
160.4759, 8.492065
160.9580, 8.900635
161.4401, 9.198120
161.9222, 9.405884
162.4044, 9.473755
162.8865, 9.298706
163.3686, 9.604736
163.8507, 10.92310
164.3328, 12.22766
164.8149, 13.23047
165.2971, 13.83142
165.7792, 13.92554
166.2613, 13.31689
166.7434, 11.56445
167.2255, 10.42737
167.7076, 10.10938
168.1898, 10.16980
168.6719, 10.61426
169.1540, 11.35400
169.6361, 11.75403
170.1182, 10.72729
170.6003, 7.134033
171.0825, 5.150024
171.5646, 5.802368
172.0467, 7.843018
172.5288, 10.18469
173.0109, 12.63867
173.4930, 14.66895
173.9752, 14.81445
174.4573, 12.67517
174.9394, 11.66321
175.4215, 14.25525
175.9036, 18.67761
176.3857, 20.55078
176.8679, 17.77051
177.3500, 13.50024
177.8321, 12.28174
178.3142, 14.35437
178.7963, 16.24304
179.2784, 15.29382
179.7606, 11.92603
180.2427, 9.660278
180.7248, 9.924438
181.2069, 11.30322
181.6890, 12.83191
182.1711, 14.47925
182.6533, 15.52954
183.1354, 14.94592
183.6175, 12.46448
184.0996, 10.44434
184.5817, 9.455444
185.0638, 9.202759
185.5460, 9.850342
186.0281, 11.39551
186.5102, 12.93665
186.9923, 12.94580
187.4744, 10.42725
187.9565, 9.033936
188.4387, 10.02966
188.9208, 11.63928
189.4029, 12.47693
189.8850, 12.15356
190.3671, 11.44409
190.8492, 11.90771
191.3314, 14.63403
191.8135, 16.79028
192.2956, 18.40942
192.7777, 19.36035
193.2598, 19.41809
193.7419, 18.46606
194.2241, 16.81836
194.7062, 15.14514
195.1883, 12.50732
195.6704, 11.00574
196.1525, 11.82898
196.6346, 13.44202
197.1168, 13.72778
197.5989, 11.69714
198.0810, 8.556030
198.5631, 7.901733
199.0452, 12.72217
199.5273, 15.96826
200.0095, 15.48584
200.4916, 12.83313
200.9737, 10.33813
201.4558, 8.864624
201.9379, 8.505859
202.4200, 9.772583
202.9022, 13.78882
203.3843, 17.14380
203.8664, 18.51221
204.3485, 18.28320
204.8306, 17.29675
205.3127, 15.44971
205.7949, 13.58813
206.2770, 13.52844
206.7591, 15.89014
207.2412, 18.50232
207.7233, 20.87915
208.2054, 22.78979
208.6876, 22.38452
209.1697, 16.92224
209.6518, 10.26453
210.1339, 8.280396
210.6160, 12.36169
211.0981, 17.74756
211.5803, 20.80115
212.0624, 21.51526
212.5445, 21.64087
213.0266, 21.73547
213.5087, 21.47461
213.9908, 20.25830
214.4730, 17.80334
214.9551, 15.52515
215.4372, 15.43140
215.9193, 18.00293
216.4014, 19.77502
216.8836, 18.91162
217.3657, 17.34265
217.8478, 16.06519
218.3299, 15.30920
218.8120, 15.27722
219.2941, 16.48499
219.7763, 19.40820
220.2584, 21.97681
220.7405, 23.83899
221.2226, 25.23132
221.7047, 26.16809
222.1868, 26.66113
222.6690, 26.98389
223.1511, 27.81335
223.6332, 29.96399
224.1153, 30.65637
224.5974, 27.69397
225.0795, 24.62878
225.5617, 24.34998
226.0438, 27.56323
226.5259, 32.48010
227.0080, 36.08936
227.4901, 38.02698
227.9722, 39.12378
228.4544, 39.21729
228.9365, 38.76721
229.4186, 37.92676
229.9007, 36.81274
230.3828, 35.72925
230.8649, 35.25830
231.3471, 36.17615
231.8292, 36.43555
232.3113, 34.81604
232.7934, 33.28381
233.2755, 33.97021
233.7576, 37.29895
234.2398, 41.38916
234.7219, 43.05383
235.2040, 40.30005
235.6861, 38.48389
236.1682, 37.96130
236.6503, 38.14294
237.1325, 38.64136
237.6146, 39.32837
238.0967, 40.13721
238.5788, 41.02100
239.0609, 42.48450
239.5430, 42.30261
240.0252, 38.58801
240.5073, 34.11731
240.9894, 32.04773
241.4715, 33.12280
241.9536, 35.00854
242.4357, 34.35181
242.9179, 30.32043
243.4000, 27.71045
243.8821, 27.29529
244.3642, 28.08972
244.8463, 29.37036
245.3284, 31.07043
245.8106, 32.78394
246.2927, 34.29382
246.7748, 35.67041
247.2569, 35.61304
247.7390, 32.40002
248.2211, 28.30542
248.7033, 26.27734
249.1854, 26.92749
249.6675, 28.29834
250.1496, 28.40845
250.6317, 27.45496
251.1138, 26.72961
251.5960, 26.46387
252.0781, 26.57788
252.5602, 27.43018
253.0423, 29.34595
253.5244, 30.33301
254.0065, 27.34631
254.4887, 21.84485
254.9708, 17.89978
255.4529, 17.61414
255.9350, 19.02271
256.4171, 19.27356
256.8992, 18.00781
257.3813, 16.87048
257.8635, 17.05225
258.3456, 18.16455
258.8277, 19.78479
259.3098, 22.54736
259.7919, 25.29529
260.2740, 25.97449
260.7562, 24.04688
261.2383, 22.33032
261.7204, 23.07617
262.2025, 24.83044
262.6846, 25.84558
263.1667, 25.50110
263.6489, 24.36084
264.1310, 22.92676
264.6131, 21.01392
265.0952, 19.68274
265.5773, 20.29761
266.0594, 21.50488
266.5416, 21.92163
267.0237, 21.06873
267.5058, 19.54004
267.9879, 17.74536
268.4700, 15.52905
268.9521, 13.85559
269.4343, 13.53870
269.9164, 13.83435
270.3985, 13.97937
270.8806, 13.78748
271.3627, 13.63867
271.8448, 14.03369
272.3270, 15.18188
272.8091, 15.75525
273.2912, 14.75452
273.7733, 13.47595
274.2554, 12.73621
274.7375, 12.65564
275.2197, 12.73010
275.7018, 12.23853
276.1839, 11.08887
276.6660, 10.50818
277.1481, 12.79370
277.6302, 14.17810
278.1124, 11.38452
278.5945, 4.845581
279.0766, 1.082642
279.5587, 1.254639
280.0408, 5.262939
280.5229, 9.830200
281.0051, 11.01160
281.4872, 11.24268
281.9693, 11.42114
282.4514, 11.67749
282.9335, 11.43579
283.4156, 9.965210
283.8978, 7.396973
284.3799, 5.531494
284.8620, 4.901001
285.3441, 4.496460
285.8262, 4.154175
286.3083, 3.788818
286.7905, 3.148315
287.2726, 1.780273
287.7547, 9.4237998E-02
288.2368, 0.1127930
288.7189, 4.270508
289.2010, 7.489624
289.6832, 7.367554
290.1653, 5.314453
290.6474, 3.435669
291.1295, 3.001831
291.6116, 3.607788
292.0938, 3.500610
292.5759, 1.810303
293.0580, 0.6734620
293.5401, 1.124512
294.0222, 2.073730
294.5043, 2.132080
294.9865, 0.6501460
295.4686, 1.555054
295.9507, 2.411865
296.4328, 0.9106450
296.9149, 0.1827390
297.3970, 2.2095000E-02
297.8792, 0.4173580
298.3613, 0.3620610
298.8434, 2.620239
299.3255, 4.936035
299.8076, 4.574463
300.2897, 0.6085210
300.7719, 3.582886
301.2540, 3.086060
301.7361, 1.356689
302.2182, 0.7207030
302.7003, 2.733032
303.1824, 4.147705
303.6646, 4.126099
304.1467, 2.077881
304.6288, 0.7222900
305.1109, 0.1547850
305.5930, 0.2261960
306.0751, 1.349731
306.5573, 4.087158
307.0394, 6.415161
307.5215, 6.700806
308.0036, 4.721924
308.4857, 3.943604
308.9678, 6.149780
309.4500, 7.836304
309.9321, 7.814697
310.4142, 6.488403
310.8963, 4.768433
311.3784, 3.180054
311.8605, 1.772095
312.3427, 0.9805910
312.8248, 1.311646
313.3069, 1.718994
313.7890, 1.978882
314.2711, 2.213013
314.7532, 2.697754
315.2354, 3.593750
315.7175, 4.608154
316.1996, 4.850952
316.6817, 3.755371
317.1638, 2.754028
317.6459, 1.777100
318.1281, 1.076538
318.6102, 1.094116
319.0923, 1.909302
319.5744, 2.889648
320.0565, 2.871460
320.5386, 1.112671
321.0208, 6.6161998E-02
321.5029, 0.5089110
321.9850, 1.059692
322.4671, 0.5194090
322.9492, 1.074463
323.4313, 2.397339
323.9135, 1.766113
324.3956, 1.402344
324.8777, 3.526245
325.3598, 4.612427
325.8419, 4.703125
326.3240, 2.595459
326.8062, 0.8782960
327.2883, 3.079834
327.7704, 1.637939
328.2525, 3.154175
328.7346, 5.995605
329.2167, 5.470093
329.6989, 4.436768
330.1810, 2.993774
330.6631, 1.639038
331.1452, 1.223389
331.6273, 2.344849
332.1094, 4.246704
332.5916, 4.346558
333.0737, 0.7355960
333.5558, 1.358276
334.0379, 0.2401120
334.5200, 2.136963
335.0021, 4.289917
335.4843, 5.704224
335.9664, 6.258911
336.4485, 4.961304
336.9306, 0.2021480
337.4127, 2.339111
337.8948, 0.3836670
338.3770, 3.475220
338.8591, 3.569946
339.3412, 0.6827390
339.8233, 2.226929
340.3055, 1.868042
340.7876, 1.929321
341.2697, 4.213501
341.7518, 4.102173
342.2339, 3.384888
342.7160, 2.308838
343.1982, 1.165405
343.6803, 0.4511720
344.1624, 0.4927980
344.6445, 1.244019
345.1266, 2.652588
345.6087, 5.931396
346.0909, 7.806641
346.5730, 6.183716
347.0551, 3.125122
347.5372, 1.249756
348.0193, 1.696167
348.5014, 3.448242
348.9836, 4.846436
349.4657, 6.004639
349.9478, 6.392700
350.4299, 4.569824
350.9120, 2.719849
351.3941, 2.736816
351.8763, 4.933716
352.3584, 7.592651
352.8405, 8.987549
353.3226, 9.049927
353.8047, 8.827637
354.2868, 8.318237
354.7690, 7.833008
355.2511, 7.294556
355.7332, 6.849487
356.2153, 7.106445
356.6974, 9.436890
357.1795, 12.91528
357.6617, 13.13660
358.1438, 7.817993
358.6259, 3.791382
359.1080, 6.931274
359.5901, 13.73804
360.0722, 18.49182
360.5544, 18.43274
361.0365, 16.18970
361.5186, 15.41125
362.0007, 16.27905
362.4828, 17.22766
362.9649, 17.72937
363.4471, 17.90894
363.9292, 17.87354
364.4113, 17.59656
364.8934, 17.49622
365.3755, 17.52759
365.8576, 17.73669
366.3398, 17.26868
366.8219, 15.38257
367.3040, 13.58789
367.7861, 13.59338
368.2682, 15.23499
368.7503, 16.98633
369.2325, 18.32068
369.7146, 19.36169
370.1967, 20.57080
370.6788, 22.15771
371.1609, 22.85046
371.6430, 21.10522
372.1252, 17.59668
372.6073, 14.65210
373.0894, 12.35840
373.5715, 10.90649
374.0536, 10.86060
374.5357, 12.00354
375.0179, 13.09216
375.5000, 13.71497
375.9821, 13.71436
376.4642, 12.63757
376.9463, 9.880859
377.4284, 7.595947
377.9106, 7.115723
378.3927, 7.517578
378.8748, 6.851196
379.3569, 4.473633
379.8390, 2.236938
380.3211, 2.996460
380.8033, 7.518188
381.2854, 9.963257
381.7675, 8.942261
382.2496, 6.661499
382.7317, 3.699585
383.2138, 0.5548100
383.6960, 0.7259520
384.1781, 1.860107
384.6602, 7.827271
385.1423, 11.06897
385.6244, 10.59827
386.1065, 9.505737
386.5887, 7.930786
387.0708, 6.411011
387.5529, 5.906006
388.0350, 6.869019
388.5171, 8.657959
388.9992, 9.888672
389.4814, 10.57031
389.9635, 10.56189
390.4456, 9.463379
390.9277, 7.952759
391.4098, 6.486084
391.8919, 5.310181
392.3741, 4.048096
392.8562, 2.034912
393.3383, 1.131226
393.8204, 1.880005
394.3025, 2.205566
394.7846, 5.991699
395.2668, 8.249878
395.7489, 9.076538
396.2310, 7.906860
396.7131, 4.203125
397.1952, 0.8781740
397.6773, 3.251831
398.1595, 0.8260500
398.6416, 1.590210
399.1237, 3.555786
399.6058, 4.867554
400.0879, 5.234375
400.5700, 4.680054
401.0522, 3.614258
401.5343, 2.638916
402.0164, 1.849487
402.4985, 1.300293
402.9806, 0.5892330
403.4627, 0.5260010
403.9449, 1.873169
404.4270, 4.188477
404.9091, 6.351563
405.3912, 7.636597
405.8733, 8.281982
406.3554, 8.856079
406.8376, 9.224976
407.3197, 9.796997
407.8018, 11.43896
408.2839, 13.03979
408.7660, 13.25745
409.2481, 11.61084
409.7303, 9.470703
410.2124, 8.166504
410.6945, 7.658203
411.1766, 7.233398
411.6587, 6.970703
412.1408, 6.441162
412.6230, 4.662476
413.1051, 1.932739
413.5872, 0.6179200
414.0693, 3.047119
414.5514, 7.009277
415.0335, 8.961426
415.5157, 8.611572
415.9978, 7.249878
416.4799, 4.948608
416.9620, 2.387817
417.4441, 1.569580
417.9262, 3.969116
418.4084, 6.246582
418.8905, 5.888184
419.3726, 3.917725
419.8547, 3.392334
420.3368, 5.746826
420.8189, 8.591431
421.3011, 7.394287
421.7832, 0.5169680
422.2653, 3.170532
422.7474, 0.3552250
423.2295, 5.386841
423.7116, 6.404297
424.1938, 3.462769
424.6759, 0.9353030
425.1580, 2.488770
425.6401, 7.793335
426.1222, 10.74792
426.6043, 10.26062
427.0865, 9.080322
427.5686, 7.058105
428.0507, 4.991821
428.5328, 4.068848
429.0149, 4.716675
429.4970, 6.130615
429.9792, 6.793701
430.4613, 5.671631
430.9434, 6.125732
431.4255, 10.13892
431.9076, 13.72327
432.3897, 14.29053
432.8719, 12.27795
433.3540, 9.769409
433.8361, 8.252808
434.3182, 7.706543
434.8003, 8.125122
435.2824, 10.97998
435.7646, 12.48279
436.2467, 11.12366
436.7288, 8.404785
437.2109, 5.535767
437.6930, 2.855591
438.1751, 1.121338
438.6573, 1.989014
439.1394, 5.770508
439.6215, 7.483643
440.1036, 4.760742
440.5857, 1.667969
441.0678, 0.6901860
441.5500, 1.520996
442.0321, 3.016357
442.5142, 4.868530
442.9963, 6.674561
443.4784, 7.657227
443.9605, 7.729248
444.4427, 7.662842
444.9248, 7.872559
445.4069, 8.118774
445.8890, 7.964233
446.3711, 7.215942
446.8532, 6.570557
447.3354, 6.690063
447.8175, 7.157104
448.2996, 6.720337
448.7817, 4.906738
449.2638, 3.478882
449.7459, 4.794312
450.2281, 9.066895
450.7102, 11.64673
451.1923, 11.20728
451.6744, 9.920532
452.1565, 9.028687
452.6386, 8.411499
453.1208, 7.927246
453.6029, 7.484375
454.0850, 7.196655
454.5671, 7.409180
455.0492, 9.501221
455.5313, 9.844360
456.0135, 7.623291
456.4956, 4.588989
456.9777, 1.462280
457.4598, 1.272095
457.9419, 2.667847
458.4240, 1.595459
458.9062, 1.995728
459.3883, 4.768433
459.8704, 6.125977
460.3525, 7.277832
460.8346, 8.953247
461.3167, 10.40320
461.7989, 10.32019
462.2810, 8.136841
462.7631, 5.490845
463.2452, 5.231079
463.7273, 7.900635
464.2094, 9.690796
464.6916, 9.573730
465.1737, 8.919189
465.6558, 8.238037
466.1379, 7.654907
466.6200, 7.451294
467.1021, 8.079834
467.5843, 9.050659
468.0664, 9.471802
468.5485, 9.435547
469.0306, 8.732178
469.5127, 5.951172
469.9948, 3.076416
470.4770, 3.435547
470.9591, 8.314209
471.4412, 11.96826
471.9233, 9.982300
472.4054, 5.255371
472.8875, 3.290894
473.3697, 5.151855
473.8518, 8.465820
474.3339, 11.58533
474.8160, 14.39807
475.2981, 15.57715
475.7802, 14.28528
476.2624, 12.29871
476.7445, 9.723755
477.2266, 7.106812
477.7087, 5.477173
478.1908, 5.226074
478.6729, 5.868164
479.1551, 6.588501
479.6372, 7.612549
480.1193, 7.875000
480.6014, 7.554199
481.0835, 6.976807
481.5656, 6.288818
482.0478, 5.563965
482.5299, 4.708130
483.0120, 3.523926
483.4941, 2.487305
483.9762, 3.928833
484.4583, 10.37585
484.9405, 14.07007
485.4226, 11.39282
485.9047, 7.068726
486.3868, 4.444946
486.8689, 4.044678
487.3510, 4.810791
487.8332, 6.177979
488.3153, 8.035767
488.7974, 10.00977
489.2795, 12.37622
489.7616, 14.13000
490.2437, 14.73694
490.7259, 14.29736
491.2080, 12.50525
491.6901, 8.274292
492.1722, 4.747925
492.6543, 4.782715
493.1364, 7.367798
493.6186, 9.815430
494.1007, 11.60925
494.5828, 12.38550
495.0649, 11.21521
495.5470, 7.806152
496.0291, 6.298462
496.5113, 8.795288
496.9934, 11.38953
497.4755, 11.62000
497.9576, 10.11194
498.4397, 8.687256
498.9218, 8.245239
499.4040, 8.205078
499.8861, 7.222412
500.3682, 4.469971
500.8503, 2.297974
501.3324, 0.4825440
501.8145, 0.6567380
502.2967, 0.5277100
502.7788, 0.5014650
503.2609, 1.273071
503.7430, 0.8291020
504.2251, 0.3106690
504.7072, 3.4912001E-02
505.1894, 2.193970
505.6715, 4.622314
506.1536, 8.162231
506.6357, 10.83704
507.1178, 10.34265
507.5999, 6.596313
508.0821, 2.916382
508.5642, 1.718018
509.0463, 2.479492
509.5284, 4.012207
510.0105, 6.577271
510.4926, 8.437622
510.9748, 8.037354
511.4569, 6.270508
511.9390, 5.304077
512.4211, 5.536743
512.9032, 6.054443
513.3853, 6.802612
513.8674, 7.427612
514.3495, 6.994873
514.8317, 5.293579
515.3138, 3.754150
515.7959, 4.072876
516.2780, 6.616455
516.7601, 7.635254
517.2422, 5.408936
517.7244, 3.645874
518.2065, 4.251953
518.6886, 6.050659
519.1707, 7.293945
519.6528, 7.348267
520.1349, 6.645142
520.6171, 5.760254
521.0992, 4.630737
521.5813, 3.609619
522.0634, 2.642944
522.5455, 1.866333
523.0276, 1.290161
523.5098, 0.9533690
523.9919, 1.064819
524.4740, 1.925537
524.9561, 2.665649
525.4382, 1.287231
525.9203, 2.275024
526.4025, 3.476440
526.8846, 0.2579350
527.3667, 4.657593
527.8488, 5.095215
528.3309, 2.161133
528.8130, 0.3211670
529.2952, 2.129150
529.7773, 4.727539
530.2594, 5.279175
530.7415, 4.133301
531.2236, 3.105591
531.7057, 2.961060
532.1879, 3.474976
532.6700, 4.286133
533.1521, 5.734741
533.6342, 6.678345
534.1163, 6.382446
534.5984, 6.187988
535.0806, 7.127563
535.5627, 8.982422
536.0448, 10.88538
536.5269, 12.38135
537.0090, 13.46741
537.4911, 14.17871
537.9733, 14.80054
538.4554, 14.36743
538.9375, 11.29895
539.4196, 8.398560
539.9017, 7.837524
540.3839, 9.226929
540.8660, 10.27795
541.3481, 9.190552
541.8302, 6.963257
542.3123, 5.872803
542.7944, 6.035156
543.2766, 6.387573
543.7587, 6.727295
544.2408, 6.883179
544.7229, 6.611938
545.2050, 5.884399
545.6871, 5.074219
546.1693, 4.019287
546.6514, 3.130615
547.1335, 3.029175
547.6156, 3.625244
548.0977, 4.028198
548.5798, 3.557251
549.0620, 2.715088
549.5441, 3.193970
550.0262, 5.943481
550.5083, 8.820557
550.9904, 13.57019
551.4725, 17.10107
551.9547, 15.87659
552.4368, 10.88306
552.9189, 6.585815
553.4010, 6.578735
553.8831, 9.567017
554.3652, 10.00952
554.8474, 6.284302
555.3295, 4.129150
555.8116, 7.264282
556.2937, 10.95264
556.7758, 11.53638
557.2579, 8.947144
557.7401, 6.104126
558.2222, 4.361450
558.7043, 3.600830
559.1864, 3.929565
559.6685, 5.339722
560.1506, 6.416260
560.6328, 6.257568
561.1149, 5.534058
561.5970, 5.835815
562.0791, 7.483398
562.5612, 8.860840
563.0433, 10.12732
563.5255, 10.65271
564.0076, 9.460327
564.4897, 6.904419
564.9718, 4.355225
565.4539, 2.646851
565.9360, 1.727051
566.4182, 1.505127
566.9003, 2.530518
567.3824, 3.234131
567.8645, 3.682739
568.3466, 3.691650
568.8287, 2.705444
569.3109, 1.093628
569.7930, 9.7290002E-02
570.2751, 0.6606450
570.7572, 2.118164
571.2393, 3.142822
571.7214, 3.725708
572.2036, 4.015503
572.6857, 4.215576
573.1678, 3.941040
573.6499, 2.213135
574.1320, 0.9201660
574.6141, 2.647095
575.0963, 1.083008
575.5784, 1.312866
576.0605, 2.406616
576.5426, 2.458496
577.0247, 2.783569
577.5068, 4.035645
577.9890, 5.483276
578.4711, 5.701416
578.9532, 4.062012
579.4353, 2.777588
579.9174, 1.812378
580.3995, 1.194092
580.8817, 0.8651120
581.3638, 0.9101560
581.8459, 1.680176
582.3280, 3.432373
582.8101, 5.259521
583.2922, 5.652832
583.7744, 4.458862
584.2565, 2.659546
584.7386, 0.1868900
585.2207, 2.446533
585.7029, 2.687012
586.1850, 1.426758
586.6671, 0.1468510
587.1492, 2.221558
587.6313, 3.891357
588.1135, 4.380005
588.5956, 3.974976
589.0777, 3.042969
589.5598, 1.643921
590.0419, 0.8859860
590.5240, 2.348022
591.0062, 6.235352
591.4883, 7.424805
591.9704, 3.310303
592.4525, 8.2275003E-02
592.9346, 0.4553220
593.4167, 0.5417480
593.8989, 2.018921
594.3810, 3.673096
594.8631, 4.855835
595.3452, 4.507935
595.8273, 2.879395
596.3094, 1.826904
596.7916, 1.498291
597.2737, 1.405884
597.7558, 1.619019
598.2379, 1.931396
598.7200, 1.695435
599.2021, 0.8876950
599.6843, 0.3800050
600.1664, 0.9903560
600.6485, 1.960571
601.1306, 1.798706
601.6127, 0.6119380
602.0948, 0.4935300
602.5770, 2.941650
603.0591, 6.746704
603.5412, 8.557739
604.0233, 6.734619
604.5054, 5.496460
604.9875, 5.046265
605.4697, 4.982056
605.9518, 5.173584
606.4339, 5.544189
606.9160, 5.998779
607.3981, 6.491211
607.8802, 7.036865
608.3624, 7.678955
608.8445, 8.399292
609.3266, 8.937622
609.8087, 9.103760
610.2908, 9.373047
610.7729, 10.41895
611.2551, 11.87134
611.7372, 12.57068
612.2193, 11.78491
612.7014, 10.70996
613.1835, 10.07349
613.6656, 9.802612
614.1478, 9.673828
614.6299, 9.641724
615.1120, 9.952393
615.5941, 10.97180
616.0762, 12.70227
616.5583, 13.65857
617.0405, 13.47583
617.5226, 12.95984
618.0047, 12.33020
618.4868, 11.37036
618.9689, 9.538696
619.4510, 6.976196
619.9332, 4.775757
620.4153, 3.893799
620.8974, 4.096069
621.3795, 4.919922
621.8616, 6.681030
622.3438, 7.315552
622.8259, 5.189697
623.3080, 2.358032
623.7901, 2.070801
624.2722, 4.494629
624.7543, 6.631592
625.2365, 8.279297
625.7186, 8.838745
626.2007, 6.648071
626.6828, 2.916382
627.1649, 1.174316
627.6470, 2.929077
628.1292, 6.157593
628.6113, 7.487061
629.0934, 6.172119
629.5755, 6.031128
630.0576, 9.237793
630.5397, 11.26746
631.0219, 9.703857
631.5040, 6.568115
631.9861, 4.668823
632.4682, 4.785645
632.9503, 5.625977
633.4324, 5.876465
633.9146, 5.678711
634.3967, 5.715820
634.8788, 6.093750
635.3609, 6.274170
635.8430, 5.724976
636.3251, 4.693726
636.8073, 4.757446
637.2894, 6.530273
637.7715, 7.873901
638.2536, 8.346313
638.7357, 8.373474
639.2178, 8.062500
639.7000, 7.588135
640.1821, 7.302612
640.6642, 7.396667
641.1463, 7.715698
641.6284, 8.067749
642.1105, 8.584229
642.5927, 8.322388
643.0748, 6.260925
643.5569, 4.453064
644.0390, 4.487000
644.5211, 5.536255
645.0032, 5.753235
645.4854, 4.344543
645.9675, 2.981750
646.4496, 2.995850
646.9317, 3.762817
647.4138, 4.272400
647.8959, 4.346924
648.3781, 3.721008
648.8602, 1.913940
649.3423, 0.4833980
649.8244, 0.5136720
650.3065, 5.754028
650.7886, 8.401184
651.2708, 3.657776
651.7529, 1.598816
652.2350, 2.694580
652.7171, 0.3101810
653.1992, 2.658630
653.6813, 5.061035
654.1635, 6.347168
654.6456, 4.696106
655.1277, 0.4807130
655.6098, 1.234131
656.0919, 1.134705
656.5740, 4.373352
657.0562, 6.007996
657.5383, 6.089172
658.0204, 5.645569
658.5025, 3.935608
658.9846, 2.626404
659.4667, 2.351013
659.9489, 2.630005
660.4310, 3.142151
660.9131, 3.731812
661.3952, 4.171265
661.8773, 4.312500
662.3594, 4.133362
662.8416, 3.471802
663.3237, 2.134155
663.8058, 1.025146
664.2879, 0.2866820
664.7700, 0.1433720
665.2521, 0.5097660
665.7343, 0.6458740
666.2164, 5.0659999E-03
666.6985, 1.962585
667.1806, 4.276855
667.6627, 6.896729
668.1448, 9.243530
668.6270, 10.12164
669.1091, 9.173218
669.5912, 7.298218
670.0733, 5.031189
670.5554, 2.580933
671.0375, 1.450562
671.5197, 2.590698
672.0018, 3.518555
672.4839, 3.774536
672.9660, 3.914856
673.4481, 4.615967
673.9302, 5.574097
674.4124, 5.624756
674.8945, 3.642944
675.3766, 1.369812
675.8587, 1.380371
676.3408, 3.127441
676.8229, 3.857727
677.3051, 2.794189
677.7872, 1.949463
678.2693, 3.598022
678.7514, 7.317627
679.2335, 8.123718
679.7156, 2.420532
680.1978, 1.046997
680.6799, 0.2172240
681.1620, 3.240112
681.6441, 6.454773
682.1262, 9.123779
682.6083, 9.951660
683.0905, 7.682617
683.5726, 4.182373
684.0547, 3.117615
684.5368, 4.485657
685.0189, 5.878235
685.5010, 6.996887
685.9832, 7.704346
686.4653, 7.761841
686.9474, 7.254578
687.4295, 6.716309
687.9116, 6.328491
688.3937, 5.681580
688.8759, 3.935852
689.3580, 2.367554
689.8401, 2.706604
690.3222, 4.639465
690.8043, 6.327271
691.2864, 6.624084
691.7686, 5.729126
692.2507, 3.618958
692.7328, 0.1902470
693.2149, 1.892700
693.6970, 8.2457997E-02
694.1791, 2.857422
694.6613, 4.383972
695.1434, 4.966980
695.6255, 5.501770
696.1076, 6.345886
696.5897, 6.717102
697.0718, 5.526611
697.5540, 4.086853
698.0361, 4.410950
698.5182, 6.251770
699.0003, 7.490662
699.4824, 6.777161
699.9645, 4.924072
700.4467, 3.888794
700.9288, 3.827148
701.4109, 4.047913
701.8930, 4.754944
702.3751, 5.454895
702.8572, 5.890625
703.3394, 6.326721
703.8215, 7.142700
704.3036, 9.009460
704.7857, 9.990112
705.2678, 7.716064
705.7499, 4.544434
706.2321, 4.170532
706.7142, 6.306152
707.1963, 7.838562
707.6784, 7.232422
708.1605, 5.353455
708.6426, 3.500427
709.1248, 1.235352
709.6069, 0.4492190
710.0890, 2.549377
710.5711, 4.883728
711.0532, 6.611328
711.5353, 7.749695
712.0175, 8.388977
712.4996, 8.540161
712.9817, 8.340637
713.4638, 7.133911
713.9459, 6.172241
714.4280, 7.589600
714.9102, 10.70941
715.3923, 12.08765
715.8744, 10.21814
716.3565, 7.048157
716.8386, 5.412659
717.3207, 5.450134
717.8029, 5.731812
718.2850, 6.794678
718.7671, 7.439819
719.2492, 6.988708
719.7313, 6.261963
720.2134, 6.299988
720.6956, 7.103088
721.1777, 7.386719
721.6598, 5.973572
722.1419, 3.899536
722.6240, 2.035400
723.1061, 0.6119380
723.5883, 1.081665
724.0704, 4.061768
724.5525, 6.742798
725.0346, 5.813599
725.5167, 1.415466
725.9988, 0.9127810
726.4810, 0.4824830
726.9631, 1.594971
727.4452, 1.766296
727.9273, 1.635498
728.4094, 1.435547
728.8915, 1.341858
729.3737, 1.873901
729.8558, 3.617981
730.3379, 5.463440
730.8200, 5.989502
731.3021, 5.694153
731.7842, 6.264160
732.2664, 7.965027
732.7485, 8.903198
733.2306, 7.422180
733.7127, 4.305481
734.1948, 2.579468
734.6769, 2.383301
735.1591, 3.365479
735.6412, 7.525818
736.1233, 10.76208
736.6054, 10.21155
737.0875, 7.411438
737.5696, 5.311646
738.0518, 4.755371
738.5339, 4.905396
739.0160, 5.147949
739.4981, 5.357971
739.9802, 5.210754
740.4623, 4.766296
740.9445, 4.844299
741.4266, 5.986938
741.9087, 7.219177
742.3908, 6.599304
742.8729, 3.334900
743.3550, 1.614746
743.8372, 2.515930
744.3193, 3.721191
744.8014, 5.437073
745.2835, 6.665527
745.7656, 5.824463
746.2477, 2.873901
746.7299, 0.5325930
747.2120, 0.9669800
747.6941, 2.253723
748.1762, 1.760254
748.6583, 0.2182010
749.1404, 0.4869380
749.6226, 3.338745
750.1047, 5.861389
750.5868, 4.781921
751.0689, 0.5150760
751.5510, 1.691650
752.0331, 1.464539
752.5153, 0.1513670
752.9974, 3.600586
753.4795, 7.006287
753.9616, 7.467957
754.4437, 6.051025
754.9258, 6.478210
755.4080, 11.26056
755.8901, 15.43121
756.3722, 14.89453
756.8543, 11.95135
757.3364, 9.876099
757.8185, 8.982178
758.3007, 8.284668
758.7828, 7.249634
759.2649, 5.725281
759.7470, 2.898804
760.2291, 2.125671
760.7112, 4.006165
761.1934, 0.6317750
761.6755, 2.796692
762.1576, 3.570862
762.6397, 3.147766
763.1218, 3.432190
763.6039, 4.723938
764.0861, 5.383972
764.5682, 4.099976
765.0503, 2.668335
765.5324, 2.705261
766.0145, 3.608215
766.4966, 4.013916
766.9788, 3.561890
767.4609, 3.000916
767.9430, 3.135254
768.4251, 3.825745
768.9072, 4.679321
769.3893, 5.930481
769.8715, 5.994812
770.3536, 3.867310
770.8357, 1.296326
771.3178, 0.4265750
771.7999, 1.256653
772.2820, 0.8942260
772.7642, 2.586304
773.2463, 4.671204
773.7284, 2.382507
774.2105, 0.4451900
774.6926, 5.9875000E-02
775.1747, 3.161499
775.6569, 5.724976
776.1390, 6.182190
776.6211, 5.739075
777.1032, 5.654785
777.5853, 5.926758
778.0674, 5.766113
778.5496, 5.024536
779.0317, 4.784790
779.5138, 5.814514
779.9959, 7.291321
780.4780, 7.740723
780.9601, 6.885193
781.4423, 6.084595
781.9244, 5.538696
782.4065, 4.810364
782.8886, 3.028076
783.3707, 1.438049
783.8528, 1.899902
784.3350, 4.370178
784.8171, 5.929932
785.2992, 3.930359
785.7813, 1.131897
786.2634, 1.711975
786.7455, 4.540527
787.2277, 5.684021
787.7098, 4.383545
788.1919, 2.965942
788.6740, 3.338074
789.1561, 4.895020
789.6382, 5.302551
790.1204, 3.597534
790.6025, 3.090515
791.0846, 5.542664
791.5667, 7.447083
792.0488, 6.545349
792.5309, 4.398987
793.0131, 3.532898
793.4952, 4.498291
793.9773, 5.687866
794.4594, 6.810059
794.9415, 7.446167
795.4236, 6.929260
795.9058, 5.649536
796.3879, 4.406372
796.8700, 3.485535
797.3521, 2.943298
797.8342, 2.867371
798.3163, 3.200500
798.7985, 3.660767
799.2806, 4.249023
799.7627, 4.976746
800.2448, 6.051514
800.7269, 6.915588
801.2090, 7.037415
801.6912, 6.506165
802.1733, 5.884338
802.6554, 5.245544
803.1375, 4.383179
803.6196, 1.950867
804.1017, 0.4622190
804.5839, 3.442749
805.0660, 8.468750
805.5481, 9.811523
806.0302, 5.327332
806.5123, 0.1702880
806.9944, 0.2938230
807.4766, 2.404602
807.9587, 5.225464
808.4408, 7.917114
808.9229, 8.695190
809.4050, 6.620667
809.8871, 3.666138
810.3693, 2.061584
810.8514, 1.739197
811.3335, 1.444519
811.8156, 1.128113
812.2977, 0.9245000
812.7798, 0.3117070
813.2620, 0.2881470
813.7441, 2.219788
814.2262, 5.260254
814.7083, 6.952637
815.1904, 6.174377
815.6725, 5.255737
816.1547, 5.249268
816.6368, 5.525269
817.1189, 5.844604
817.6010, 6.073547
818.0831, 5.640930
818.5652, 4.411438
819.0474, 3.752014
819.5295, 5.461182
820.0116, 9.020508
820.4937, 9.550232
820.9758, 6.353394
821.4579, 4.376160
821.9401, 5.561523
822.4222, 7.899658
822.9043, 9.657837
823.3864, 10.78381
823.8685, 10.52374
824.3506, 7.014038
824.8328, 4.809631
825.3149, 5.732300
825.7970, 7.179626
826.2791, 7.180786
826.7612, 6.175537
827.2433, 5.565125
827.7255, 5.871033
828.2076, 6.514954
828.6897, 6.992249
829.1718, 7.475464
829.6539, 8.355164
830.1360, 9.612671
830.6182, 10.99414
831.1003, 12.34351
831.5824, 12.95221
832.0645, 11.99737
832.5466, 9.349548
833.0287, 5.847473
833.5109, 0.1885380
833.9930, 2.151367
834.4751, 2.299927
834.9572, 7.560852
835.4393, 8.281067
835.9214, 5.923340
836.4036, 4.742493
836.8857, 5.669006
837.3678, 6.528198
837.8499, 6.477295
838.3320, 6.444031
838.8141, 7.489685
839.2963, 8.956055
839.7784, 9.592224
840.2605, 9.009949
840.7426, 7.813293
841.2247, 6.080627
841.7068, 4.328308
842.1890, 3.371216
842.6711, 3.258911
843.1532, 4.692871
843.6353, 7.912354
844.1174, 10.82996
844.5995, 11.49622
845.0817, 10.36975
845.5638, 9.642517
846.0459, 9.561707
846.5280, 9.151489
847.0101, 7.826111
847.4922, 6.994629
847.9744, 7.184082
848.4565, 7.920166
848.9386, 9.231628
849.4207, 11.24878
849.9028, 12.88702
850.3849, 14.35510
850.8671, 14.83533
851.3492, 12.92389
851.8313, 10.26318
852.3134, 9.172424
852.7955, 9.832275
853.2776, 10.49493
853.7598, 10.01422
854.2419, 8.850769
854.7240, 7.280640
855.2061, 5.580444
855.6882, 5.170715
856.1703, 6.192444
856.6525, 6.985657
857.1346, 6.509766
857.6167, 5.641602
858.0988, 6.135437
858.5809, 8.256531
859.0630, 10.07867
859.5452, 12.16058
860.0273, 13.08270
860.5094, 11.56580
860.9915, 9.248047
861.4736, 7.269287
861.9557, 5.681763
862.4379, 4.597412
862.9200, 4.142273
863.4021, 4.059631
863.8842, 4.332214
864.3663, 4.888550
864.8484, 6.075989
865.3306, 7.457336
865.8127, 7.920227
866.2948, 7.061646
866.7769, 5.897705
867.2590, 5.340820
867.7411, 5.219421
868.2233, 5.123169
868.7054, 5.110474
869.1875, 5.725769
869.6696, 7.125793
870.1517, 8.178833
870.6339, 7.793884
871.1160, 6.209106
871.5981, 4.332947
872.0802, 1.885132
872.5623, 1.9470001E-02
873.0444, 2.071472
873.5266, 2.163269
874.0087, 2.903076
874.4908, 9.828796
874.9729, 12.16357
875.4550, 8.980591
875.9371, 6.517822
876.4193, 5.759277
876.9014, 5.689514
877.3835, 6.329102
877.8656, 7.158630
878.3477, 7.801086
878.8298, 8.122986
879.3120, 7.837708
879.7941, 6.429749
880.2762, 5.372253
880.7583, 6.515381
881.2404, 8.798584
881.7225, 10.82013
882.2047, 12.20648
882.6868, 11.92859
883.1689, 9.548340
883.6510, 6.565491
884.1331, 4.660950
884.6152, 3.859497
885.0974, 4.948425
885.5795, 8.431946
886.0616, 9.884949
886.5437, 7.514954
887.0258, 4.865662
887.5079, 5.316162
887.9901, 7.812744
888.4722, 7.427917
888.9543, 1.164124
889.4364, 1.871582
889.9185, 0.7745970
890.4006, 3.742493
890.8828, 5.335449
891.3649, 5.848999
891.8470, 5.296509
892.3291, 4.043518
892.8112, 3.358948
893.2933, 4.728699
893.7755, 5.769470
894.2576, 4.071106
894.7397, 1.774475
895.2218, 2.113770
895.7039, 4.542419
896.1860, 5.898376
896.6682, 4.600220
897.1503, 2.526550
897.6324, 2.134888
898.1145, 2.907776
898.5966, 3.201477
899.0787, 3.061462
899.5609, 3.701904
900.0430, 5.599670
900.5251, 6.810486
901.0072, 5.175049
901.4893, 1.531250
901.9714, 0.1226810
902.4536, 1.604919
902.9357, 3.083557
903.4178, 5.037781
903.8999, 5.593079
904.3820, 2.385071
904.8641, 2.047363
905.3463, 2.881348
905.8284, 0.3482670
906.3105, 2.397949
906.7926, 2.632568
907.2747, 2.331482
907.7568, 1.484680
908.2390, 0.5777590
908.7211, 0.2917480
909.2032, 0.7948000
909.6853, 4.8799999E-04
910.1674, 2.846924
910.6495, 5.287109
911.1317, 5.172424
911.6138, 4.185547
912.0959, 4.422241
912.5780, 5.403625
913.0601, 5.542358
913.5422, 4.498535
914.0244, 3.568665
914.5065, 4.078308
914.9886, 5.127258
915.4707, 4.692505
915.9528, 3.004150
916.4349, 1.190796
916.9171, 0.6667480
917.3992, 1.045837
917.8813, 1.088196
918.3634, 4.400391
918.8455, 6.620544
919.3276, 7.737732
919.8098, 7.995239
920.2919, 7.026978
920.7740, 6.135925
921.2561, 5.557373
921.7382, 5.238464
922.2203, 5.440552
922.7025, 5.891907
923.1846, 5.412842
923.6667, 2.914124
924.1488, 1.877197
924.6309, 4.554199
925.1130, 6.564331
925.5952, 4.962769
926.0773, 2.157043
926.5594, 0.9736940
927.0415, 1.716309
927.5236, 3.290771
928.0057, 6.154785
928.4879, 8.365540
928.9700, 7.982605
929.4521, 6.721741
929.9342, 6.926636
930.4163, 8.048401
930.8984, 7.635132
931.3806, 5.003723
931.8627, 2.562744
932.3448, 2.748047
932.8269, 4.360535
933.3090, 5.041504
933.7911, 4.950134
934.2733, 4.612061
934.7554, 4.154968
935.2375, 3.816711
935.7196, 3.726074
936.2017, 4.040039
936.6838, 5.491394
937.1660, 8.233643
937.6481, 8.761719
938.1302, 6.467041
938.6123, 4.614014
939.0944, 4.167969
939.5765, 4.829285
940.0587, 6.727051
940.5408, 9.530151
941.0229, 10.72504
941.5050, 9.503357
941.9871, 8.176636
942.4692, 6.242737
942.9514, 4.861145
943.4335, 5.410583
943.9156, 6.257202
944.3977, 4.559265
944.8798, 0.2634890
945.3619, 1.536194
945.8441, 2.684753
946.3262, 6.359253
946.8083, 6.824890
947.2904, 5.938049
947.7725, 5.487183
948.2546, 5.271484
948.7368, 4.499146
949.2189, 2.918213
949.7010, 1.755005
950.1831, 2.028076
950.6652, 2.904602
951.1473, 4.069214
951.6295, 4.998352
952.1116, 4.556030
952.5937, 2.853638
953.0758, 1.086487
953.5579, 0.1425780
954.0400, 0.4839480
954.5222, 1.242310
955.0043, 4.080688
955.4864, 5.021362
955.9685, 4.210876
956.4506, 3.519104
956.9327, 3.501282
957.4149, 3.551941
957.8970, 3.064880
958.3791, 2.363892
958.8612, 2.681091
959.3433, 4.140625
959.8254, 4.399353
960.3076, 3.013367
960.7897, 1.931519
961.2718, 2.206177
961.7539, 2.657166
962.2360, 1.493225
962.7181, 1.281372
963.2003, 1.903748
963.6824, 1.763733
964.1645, 3.715454
964.6466, 1.631226
965.1287, 7.4280001E-02
965.6108, 1.631653
966.0930, 4.853577
966.5751, 7.087585
967.0572, 8.363159
967.5393, 7.913879
968.0214, 3.112671
968.5035, 9.3445003E-02
968.9857, 1.495056
969.4678, 3.801758
969.9499, 2.995300
970.4320, 0.5735470
970.9141, 0.7747190
971.3962, 5.002136
971.8784, 7.965820
972.3605, 6.516174
972.8426, 3.772522
973.3247, 0.8743290
973.8068, 1.417419
974.2889, 2.192444
974.7711, 1.582336
975.2532, 5.5539999E-03
975.7353, 2.710083
976.2174, 4.833923
976.6995, 4.455811
977.1816, 2.955444
977.6638, 1.735046
978.1459, 1.051941
978.6280, 1.569458
979.1101, 3.180359
979.5922, 4.410278
980.0743, 4.185913
980.5565, 3.215027
981.0386, 2.527527
981.5207, 2.065491
982.0028, 1.675598
982.4849, 1.365234
982.9670, 1.039978
983.4492, 0.6654050
983.9313, 0.6450810
984.4134, 1.459473
984.8955, 2.791138
985.3776, 3.654602
985.8597, 4.047852
986.3419, 3.901978
986.8240, 3.118469
987.3061, 2.346375
987.7882, 1.838257
988.2703, 1.512146
988.7524, 1.237427
989.2346, 1.044434
989.7167, 1.354309
990.1988, 2.576782
990.6809, 3.033630
991.1630, 1.990479
991.6451, 1.257324
992.1273, 1.833618
992.6094, 3.163025
993.0915, 4.626343
993.5736, 6.283386
994.0557, 6.993469
994.5378, 6.526672
995.0200, 5.429199
995.5021, 2.811584
995.9842, 0.5768430
996.4663, 0.2836300
996.9484, 9.1430999E-02
997.4305, 0.5821530
997.9127, 1.672180
998.3948, 3.513550
998.8769, 8.189453
999.3590, 10.91431
999.8411, 8.748840
1000.323, 5.447571
1000.805, 3.475769
1001.287, 2.776367
1001.770, 2.701111
1002.252, 3.050049
1002.734, 4.378540
1003.216, 9.044617
1003.698, 12.44202
1004.180, 10.32214
1004.662, 6.260742
1005.144, 3.376587
1005.627, 2.241882
1006.109, 3.621948
1006.591, 7.968384
1007.073, 10.78638
1007.555, 7.068604
1008.037, 2.202026
1008.519, 1.384277
1009.001, 2.984192
1009.483, 4.953125
1009.966, 6.524231
1010.448, 6.491272
1010.930, 4.201050
1011.412, 1.990051
1011.894, 2.886292
1012.376, 5.022583
1012.858, 5.081726
1013.340, 3.866943
1013.823, 3.818359
1014.305, 5.093994
1014.787, 5.814636
1015.269, 4.848206
1015.751, 3.381287
1016.233, 3.240540
1016.715, 3.856812
1017.197, 3.085938
1017.679, 1.446167
1018.162, 1.954407
1018.644, 5.091675
1019.126, 8.240662
1019.608, 9.713440
1020.090, 9.763000
1020.572, 8.222107
1021.054, 5.485168
1021.536, 4.057068
1022.018, 3.789795
1022.501, 4.005737
1022.983, 4.573914
1023.465, 4.737061
1023.947, 3.668762
1024.429, 2.640686
1024.911, 5.246155
1025.393, 11.64673
1025.875, 13.45825
1026.358, 10.06897
1026.840, 6.797424
1027.322, 4.867371
1027.804, 3.989563
1028.286, 4.092529
1028.768, 4.845337
1029.250, 5.433716
1029.732, 5.822510
1030.214, 6.293518
1030.697, 7.030212
1031.179, 7.077454
1031.661, 5.706726
1032.143, 4.580261
1032.625, 5.512695
1033.107, 7.365967
1033.589, 6.322693
1034.071, 1.052917
1034.553, 0.9733890
1035.036, 1.959595
1035.518, 4.455505
1036.000, 4.845947
1036.482, 4.489136
1036.964, 4.233521
1037.446, 4.122009
1037.928, 4.359253
1038.410, 5.246704
1038.893, 5.405029
1039.375, 4.047668
1039.857, 3.237244
1040.339, 3.537354
1040.821, 4.464783
1041.303, 6.377747
1041.785, 8.557312
1042.267, 8.543335
1042.750, 4.619873
1043.232, 3.499817
1043.714, 8.619812
1044.196, 12.06885
1044.678, 11.23602
1045.160, 8.880920
1045.642, 6.169617
1046.124, 3.651672
1046.606, 2.614624
1047.089, 3.487366
1047.571, 4.331116
1048.053, 4.925354
1048.535, 5.568542
1049.017, 6.638672
1049.499, 7.496582
1049.981, 7.607727
1050.463, 7.106201
1050.945, 6.170776
1051.428, 4.669556
1051.910, 3.763855
1052.392, 4.338745
1052.874, 4.673035
1053.356, 3.847107
1053.838, 3.101257
1054.320, 3.275696
1054.802, 4.017456
1055.285, 4.623108
1055.767, 4.985229
1056.249, 5.115845
1056.731, 4.862244
1057.213, 4.563110
1057.695, 4.844299
1058.177, 4.790955
1058.659, 2.466003
1059.141, 0.4664310
1059.624, 0.4959720
1060.106, 2.976807
1060.588, 5.454651
1061.070, 4.881592
1061.552, 3.892517
1062.034, 3.101135
1062.516, 2.693787
1062.998, 2.646912
1063.480, 3.148804
1063.963, 4.963013
1064.445, 8.048218
1064.927, 10.03021
1065.409, 9.250854
1065.891, 8.261780
1066.373, 8.234741
1066.855, 8.274841
1067.337, 7.672485
1067.820, 6.656067
1068.302, 5.488953
1068.784, 4.296509
1069.266, 3.498291
1069.748, 3.159424
1070.230, 3.447083
1070.712, 5.760315
1071.194, 7.328186
1071.677, 4.620850
1072.159, 0.6347660
1072.641, 2.9906999E-02
1073.123, 2.886108
1073.605, 5.740479
1074.087, 7.795349
1074.569, 8.589233
1075.051, 6.865845
1075.533, 4.883972
1076.016, 4.057434
1076.498, 4.115906
1076.980, 5.152283
1077.462, 6.638733
1077.944, 6.650391
1078.426, 3.953918
1078.908, 1.876526
1079.390, 2.644287
1079.873, 3.780823
1080.355, 3.405273
1080.837, 2.671631
1081.319, 3.351013
1081.801, 4.962585
1082.283, 5.283203
1082.765, 3.302734
1083.247, 2.434509
1083.729, 6.130737
1084.212, 9.100647
1084.694, 7.177551
1085.176, 3.870117
1085.658, 2.601807
1086.140, 3.126953
1086.622, 4.130127
1087.104, 5.325867
1087.586, 5.953552
1088.068, 5.471802
1088.551, 4.657043
1089.033, 3.438477
1089.515, 2.475220
1089.997, 2.580505
1090.479, 3.263184
1090.961, 3.738770
1091.443, 3.836853
1091.925, 3.228271
1092.408, 0.5792850
1092.890, 1.156921
1093.372, 0.1907350
1093.854, 1.400879
1094.336, 2.404297
1094.818, 2.887085
1095.300, 3.098572
1095.782, 3.078369
1096.265, 2.752319
1096.747, 1.365906
1097.229, 1.117432
1097.711, 4.895508
1098.193, 7.579163
1098.675, 4.652954
1099.157, 3.7292000E-02
1099.639, 1.661194
1100.121, 0.5879520
1100.604, 0.6887820
1101.086, 1.759033
1101.568, 2.595093
1102.050, 3.088928
1102.532, 3.469421
1103.014, 4.193787
1103.496, 4.519470
1103.978, 3.620361
1104.460, 1.938599
1104.943, 0.3989870
1105.425, 1.156677
1105.907, 0.8647460
1106.389, 3.713074
1106.871, 7.284180
1107.353, 8.025879
1107.835, 7.555847
1108.317, 6.557495
1108.800, 5.318054
1109.282, 4.346802
1109.764, 3.699280
1110.246, 2.443359
1110.728, 0.9704590
1111.210, 2.795898
1111.692, 1.287720
1112.174, 0.4681400
1112.656, 0.9580690
1113.139, 0.9177860
1113.621, 1.516663
1114.103, 2.609131
1114.585, 2.455750
1115.067, 0.6118160
1115.549, 1.916382
1116.031, 0.3940430
1116.513, 1.386597
1116.995, 3.072510
1117.478, 4.213074
1117.960, 4.156860
1118.442, 3.292358
1118.924, 2.993347
1119.406, 3.505371
1119.888, 3.586609
1120.370, 2.929016
1120.852, 2.495056
1121.335, 2.570190
1121.817, 2.758606
1122.299, 2.711182
1122.781, 2.734009
1123.263, 3.558960
1123.745, 5.222534
1124.227, 5.487366
1124.709, 3.774170
1125.192, 2.812561
1125.674, 3.286743
1126.156, 3.358887
1126.638, 1.951294
1127.120, 0.3246460
1127.602, 1.8310999E-02
1128.084, 0.7208250
1128.566, 1.697021
1129.048, 3.064209
1129.531, 3.068848
1130.013, 1.332336
1130.495, 0.5430910
1130.977, 1.740967
1131.459, 3.182983
1131.941, 2.885193
1132.423, 1.984436
1132.905, 2.839539
1133.387, 5.275085
1133.870, 6.358948
1134.352, 6.143372
1134.834, 5.977905
1135.316, 6.119263
1135.798, 6.026672
1136.280, 5.393738
1136.762, 4.520996
1137.244, 3.750061
1137.727, 3.118530
1138.209, 2.663025
1138.691, 2.436279
1139.173, 2.776978
1139.655, 3.640747
1140.137, 4.846191
1140.619, 6.229248
1141.101, 6.642639
1141.583, 4.911011
1142.066, 2.553345
1142.548, 2.080750
1143.030, 2.613708
1143.512, 2.085144
1143.994, 1.054565
1144.476, 1.745850
1144.958, 4.048462
1145.440, 5.158081
1145.922, 3.598694
1146.405, 1.640808
1146.887, 0.9212650
1147.369, 0.9857790
1147.851, 2.469971
1148.333, 4.140747
1148.815, 3.513916
1149.297, 1.552246
1149.779, 1.257935
1150.262, 3.342224
1150.744, 5.640320
1151.226, 7.888733
1151.708, 8.790771
1152.190, 6.092041
1152.672, 3.106750
1153.154, 2.615051
1153.636, 3.694397
1154.119, 5.410889
1154.601, 7.227661
1155.083, 7.259399
1155.565, 4.279236
1156.047, 2.661072
1156.529, 5.090515
1157.011, 7.545959
1157.493, 8.081055
1157.975, 8.108032
1158.458, 9.351440
1158.940, 10.59827
1159.422, 8.637573
1159.904, 2.828552
1160.386, 0.2908330
1160.868, 1.750122
1161.350, 3.573425
1161.832, 4.627136
1162.314, 5.332092
1162.797, 5.891907
1163.279, 6.069702
1163.761, 5.626892
1164.243, 4.832947
1164.725, 4.658447
1165.207, 5.513916
1165.689, 5.436096
1166.171, 3.908813
1166.654, 3.065125
1167.136, 3.575745
1167.618, 4.374634
1168.100, 4.785217
1168.582, 4.953430
1169.064, 5.255798
1169.546, 5.848267
1170.028, 6.231323
1170.510, 6.309875
1170.993, 6.227539
1171.475, 6.001465
1171.957, 5.215637
1172.439, 3.663025
1172.921, 2.612122
1173.403, 3.375977
1173.885, 5.063599
1174.367, 5.310242
1174.849, 4.646545
1175.332, 5.267090
1175.814, 6.767700
1176.296, 7.285767
1176.778, 6.637634
1177.260, 5.857849
1177.742, 5.473022
1178.224, 5.386780
1178.706, 5.792969
1179.189, 6.126526
1179.671, 5.223816
1180.153, 4.070740
1180.635, 4.140381
1181.117, 5.206238
1181.599, 6.876770
1182.081, 8.757813
1182.563, 9.580383
1183.046, 8.511047
1183.528, 7.091614
1184.010, 6.251465
1184.492, 5.331604
1184.974, 2.750854
1185.456, 0.7914430
1185.938, 3.090332
1186.420, 7.664001
1186.902, 9.593323
1187.385, 8.000549
1187.867, 5.439697
1188.349, 0.1980590
1188.831, 2.823486
1189.313, 1.344604
1189.795, 5.548645
1190.277, 6.234619
1190.759, 5.665955
1191.241, 6.199219
1191.724, 7.362366
1192.206, 7.239746
1192.688, 5.309570
1193.170, 4.224060
1193.652, 3.909058
1194.134, 5.004517
1194.616, 8.446228
1195.098, 10.40222
1195.581, 8.282776
1196.063, 5.009399
1196.545, 4.737122
1197.027, 6.612915
1197.509, 6.595093
1197.991, 4.791016
1198.473, 5.041016
1198.955, 7.326782
1199.438, 7.731873
1199.920, 5.345581
1200.402, 2.539368
1200.884, 0.6680300
1201.366, 0.4186400
1201.848, 4.512268
1202.330, 9.498779
1202.812, 7.662415
1203.294, 2.171570
1203.776, 1.255066
1204.259, 1.992615
1204.741, 0.2244260
1205.223, 4.795227
1205.705, 7.210693
1206.187, 3.899719
1206.669, 0.4026490
1207.151, 0.4611210
1207.633, 1.959717
1208.116, 4.088928
1208.598, 6.073547
1209.080, 7.256409
1209.562, 7.611938
1210.044, 7.271545
1210.526, 6.237671
1211.008, 4.649475
1211.490, 0.5074460
1211.973, 1.134827
1212.455, 3.167603
1212.937, 6.991394
1213.419, 7.428467
1213.901, 6.216370
1214.383, 4.638428
1214.865, 2.976746
1215.347, 2.263855
1215.829, 2.606995
1216.312, 3.351257
1216.794, 4.817505
1217.276, 4.844910
1217.758, 2.779419
1218.240, 1.037598
1218.722, 0.9210820
1219.204, 1.768127
1219.686, 3.083679
1220.168, 4.372253
1220.651, 3.942200
1221.133, 2.421692
1221.615, 2.752991
1222.097, 4.479309
1222.579, 4.616028
1223.061, 2.990662
1223.543, 1.507690
1224.025, 1.074219
1224.508, 1.843628
1224.990, 5.058167
1225.472, 8.159851
1225.954, 8.003540
1226.436, 6.804626
1226.918, 7.180664
1227.400, 8.329407
1227.882, 8.647705
1228.365, 8.015381
1228.847, 7.134399
1229.329, 6.005249
1229.811, 5.341858
1230.293, 5.843933
1230.775, 6.153748
1231.257, 5.548828
1231.739, 4.926270
1232.221, 5.374756
1232.703, 5.735901
1233.186, 3.925964
1233.668, 0.5763550
1234.150, 5.1514000E-02
1234.632, 3.182434
1235.114, 6.110107
1235.596, 9.159363
1236.078, 10.06726
1236.560, 8.098389
1237.043, 5.385132
1237.525, 2.704529
1238.007, 1.541443
1238.489, 3.420227
1238.971, 6.680054
1239.453, 6.338135
1239.935, 3.599915
1240.417, 2.327881
1240.900, 2.518311
1241.382, 3.403076
1241.864, 4.578186
1242.346, 5.119934
1242.828, 4.550720
1243.310, 4.062439
1243.792, 5.118347
1244.274, 6.035583
1244.756, 4.849304
1245.239, 2.996033
1245.721, 2.939331
1246.203, 3.698669
1246.685, 3.982849
1247.167, 3.847656
1247.649, 4.191895
1248.131, 5.689148
1248.613, 5.914368
1249.095, 2.860474
1249.578, 1.069702
1250.060, 1.667969
1250.542, 2.649353
1251.024, 3.158081
1251.506, 3.302795
1251.988, 3.126587
1252.470, 2.731567
1252.952, 2.810242
1253.435, 3.387085
1253.917, 2.480042
1254.399, 0.1461180
1254.881, 0.8544310
1255.363, 0.1039430
1255.845, 0.7156980
1256.327, 0.7910770
1256.809, 0.3697510
1257.292, 0.6879270
1257.774, 1.220886
1258.256, 1.325439
1258.738, 4.644775
1259.220, 5.490784
1259.702, 4.658630
1260.184, 3.098999
1260.666, 1.627686
1261.148, 1.779114
1261.630, 4.000366
1262.113, 5.225342
1262.595, 2.629272
1263.077, 1.450867
1263.559, 5.339905
1264.041, 8.304016
1264.523, 6.207703
1265.005, 3.057617
1265.487, 2.279968
1265.970, 3.106812
1266.452, 3.829468
1266.934, 4.452148
1267.416, 5.057983
1267.898, 5.788940
1268.380, 5.066833
1268.862, 2.605408
1269.344, 1.351196
1269.827, 2.268616
1270.309, 3.243042
1270.791, 2.427124
1271.273, 1.907104
1271.755, 4.159241
1272.237, 7.259033
1272.719, 8.168945
1273.201, 7.265381
1273.683, 5.050171
1274.166, 2.431946
1274.648, 1.105164
1275.130, 1.267334
1275.612, 1.764771
1276.094, 2.021545
1276.576, 3.227905
1277.058, 8.112366
1277.540, 10.88898
1278.022, 7.664124
1278.505, 3.421143
1278.987, 0.3969120
1279.469, 0.9072880
1279.951, 0.8606570
1280.433, 4.528015
1280.915, 4.876343
1281.397, 1.221924
1281.879, 0.9465940
1282.362, 4.468140
1282.844, 5.126221
1283.326, 4.270691
1283.808, 4.325684
1284.290, 6.623962
1284.772, 8.191650
1285.254, 5.865723
1285.736, 0.0000000E+00
##END=



