##NAMES=Arfvedsonite
##RRUFFID=R050514
##IDEAL CHEMISTRY=NaNa_2_(Fe^2+^_4_Fe^3+^)Si_8_O_22_(OH)_2_
##LOCALITY=unknown
##OWNER=RRUFF
##SOURCE=Frank Hawthorne
##DESCRIPTION=Small black fragments
##STATUS=The identification of this mineral has been confirmed by X-ray diffraction and chemical analysis
##URL=rruff.info/R050514
##MEASURED CHEMISTRY=(Na_2.44_K_0.22_Ca_0.17_[box]_0.17_)_Σ=3_(Fe^2+^_2.55_Fe^3+^_0.94_Mg_0.80_Mn_0.55_Ti_0.09_Al_0.07_)_Σ=5_(Si_7.81_Al_0.19_)_8_O_22_((OH)_1.40_F_0.60_)_Σ=2_
114.5543, 0.0000000E+00
115.0364, 2.570374
115.5185, 4.397522
116.0007, 4.274963
116.4828, 3.760376
116.9649, 2.428650
117.4470, 0.8547970
117.9291, 0.3134770
118.4112, 8.9661002E-02
118.8934, 3.191284
119.3755, 5.056213
119.8576, 4.066589
120.3397, 2.474976
120.8218, 2.285400
121.3039, 4.281494
121.7861, 7.461609
122.2682, 8.936584
122.7503, 6.282104
123.2324, 4.368835
123.7145, 3.887207
124.1966, 4.284607
124.6788, 4.718445
125.1609, 4.670471
125.6430, 4.248657
126.1251, 4.430054
126.6072, 5.676575
127.0893, 6.906738
127.5715, 7.764465
128.0536, 8.243286
128.5357, 8.385254
129.0178, 8.055969
129.4999, 7.408325
129.9821, 6.963440
130.4642, 7.017822
130.9463, 7.154358
131.4284, 6.806091
131.9105, 5.812866
132.3926, 4.970215
132.8748, 5.234436
133.3569, 6.083557
133.8390, 6.638062
134.3211, 6.121765
134.8032, 4.958496
135.2853, 4.658386
135.7674, 5.708923
136.2496, 7.064941
136.7317, 8.602539
137.2138, 10.04791
137.6959, 10.81433
138.1780, 10.02954
138.6601, 7.470276
139.1423, 6.191895
139.6244, 8.148926
140.1065, 9.719543
140.5886, 9.145203
141.0707, 6.582947
141.5528, 3.606750
142.0350, 2.394287
142.5171, 4.083862
142.9992, 4.816772
143.4813, 3.632935
143.9634, 2.200562
144.4455, 1.764771
144.9277, 2.909180
145.4098, 4.881714
145.8919, 6.815186
146.3740, 9.663269
146.8561, 10.88916
147.3382, 9.495056
147.8204, 7.394775
148.3025, 6.773987
148.7846, 8.268921
149.2667, 10.63409
149.7488, 10.71753
150.2309, 7.807068
150.7131, 5.627380
151.1952, 6.386841
151.6773, 9.169067
152.1594, 10.91486
152.6415, 10.10828
153.1236, 8.034363
153.6058, 6.801758
154.0879, 6.480347
154.5700, 6.594482
155.0521, 6.876709
155.5342, 7.342773
156.0163, 7.862122
156.4985, 8.606934
156.9806, 9.105896
157.4627, 8.879150
157.9448, 7.733704
158.4269, 6.482361
158.9090, 6.499512
159.3912, 8.475403
159.8733, 9.964661
160.3554, 10.49323
160.8375, 10.32031
161.3196, 9.450623
161.8017, 7.874084
162.2839, 5.888977
162.7660, 4.483826
163.2481, 3.811951
163.7302, 3.643738
164.2123, 4.639526
164.6944, 5.957031
165.1766, 6.411621
165.6587, 5.283386
166.1408, 2.912720
166.6229, 1.560120
167.1050, 1.485535
167.5871, 2.150635
168.0693, 4.290588
168.5514, 7.115295
169.0335, 9.197876
169.5156, 9.456177
169.9977, 7.969116
170.4798, 6.300049
170.9620, 3.779419
171.4441, 1.753906
171.9262, 1.190247
172.4083, 1.930542
172.8904, 2.639954
173.3725, 2.412354
173.8547, 1.288269
174.3368, 0.2773440
174.8189, 0.8339230
175.3010, 1.693542
175.7831, 1.888367
176.2652, 1.363342
176.7474, 0.7916870
177.2295, 0.8408810
177.7116, 1.201477
178.1937, 1.100586
178.6758, 0.2462770
179.1579, 1.908691
179.6401, 2.382324
180.1222, 1.315063
180.6043, 9.1918997E-02
181.0864, 0.6163940
181.5685, 0.8812260
182.0506, 0.7056880
182.5328, 1.377346
183.0149, 1.359863
183.4970, 2.278687
183.9791, 2.704834
184.4612, 3.053101
184.9433, 3.631775
185.4255, 4.299194
185.9076, 4.680603
186.3897, 4.596069
186.8718, 4.090332
187.3539, 3.535950
187.8360, 2.685547
188.3182, 2.138184
188.8003, 2.088928
189.2824, 2.454285
189.7645, 3.035767
190.2466, 3.743408
190.7287, 4.607178
191.2109, 4.855652
191.6930, 3.592163
192.1751, 2.578186
192.6572, 2.603088
193.1393, 3.423096
193.6214, 4.282898
194.1036, 4.507568
194.5857, 3.999817
195.0678, 3.513428
195.5499, 3.125000
196.0320, 2.701294
196.5141, 2.070618
196.9963, 1.297668
197.4784, 0.6310420
197.9605, 0.2770390
198.4426, 0.2569580
198.9247, 0.7081300
199.4068, 2.049805
199.8890, 3.492798
200.3711, 4.569092
200.8532, 5.227417
201.3353, 5.626831
201.8174, 5.845703
202.2995, 5.872986
202.7817, 6.012268
203.2638, 6.416687
203.7459, 6.860046
204.2280, 7.228333
204.7101, 7.518066
205.1922, 7.475403
205.6744, 6.593323
206.1565, 5.079224
206.6386, 3.962463
207.1207, 3.779541
207.6028, 3.986755
208.0849, 3.724731
208.5671, 2.754761
209.0492, 1.953552
209.5313, 2.266113
210.0134, 3.292664
210.4955, 4.224243
210.9776, 4.553467
211.4598, 4.539795
211.9419, 5.253113
212.4240, 7.246582
212.9061, 8.815186
213.3882, 8.637268
213.8703, 7.377502
214.3525, 6.216980
214.8346, 5.802124
215.3167, 5.951782
215.7988, 6.010193
216.2809, 5.849915
216.7630, 5.797729
217.2451, 6.121338
217.7273, 6.620239
218.2094, 6.941040
218.6915, 6.818604
219.1736, 6.332642
219.6557, 5.993042
220.1378, 5.883850
220.6200, 5.824341
221.1021, 6.033691
221.5842, 6.229675
222.0663, 5.862000
222.5484, 4.391846
223.0305, 2.039063
223.5127, 0.9274290
223.9948, 2.257629
224.4769, 3.683655
224.9590, 5.028748
225.4411, 6.120178
225.9232, 6.693848
226.4054, 6.512085
226.8875, 5.668335
227.3696, 5.296753
227.8517, 5.834656
228.3338, 6.402832
228.8159, 6.970764
229.2981, 7.424255
229.7802, 7.580750
230.2623, 7.305786
230.7444, 6.645020
231.2265, 6.179138
231.7086, 6.122009
232.1908, 5.983459
232.6729, 5.230408
233.1550, 4.269226
233.6371, 4.100586
234.1192, 5.511108
234.6013, 8.114807
235.0835, 8.857971
235.5656, 5.577393
236.0477, 3.156616
236.5298, 3.635376
237.0119, 6.106995
237.4940, 8.728210
237.9762, 10.61346
238.4583, 11.67627
238.9404, 11.59613
239.4225, 9.350952
239.9046, 7.399780
240.3867, 7.193726
240.8689, 7.987793
241.3510, 7.738770
241.8331, 5.036194
242.3152, 1.092102
242.7973, 0.4127200
243.2794, 1.987854
243.7616, 4.033752
244.2437, 3.336304
244.7258, 0.7431030
245.2079, 1.190796
245.6900, 1.341064
246.1721, 0.2805180
246.6543, 0.7272340
247.1364, 1.633179
247.6185, 2.543152
248.1006, 3.614563
248.5827, 4.755249
249.0648, 5.719238
249.5470, 6.531006
250.0291, 6.909302
250.5112, 6.246216
250.9933, 4.296753
251.4754, 2.879333
251.9576, 3.654968
252.4397, 6.005249
252.9218, 7.114624
253.4039, 5.705688
253.8860, 3.453125
254.3681, 2.130737
254.8503, 1.717346
255.3324, 1.761780
255.8145, 2.253418
256.2966, 3.082397
256.7787, 3.657288
257.2608, 3.806152
257.7430, 3.785095
258.2251, 3.758118
258.7072, 3.738831
259.1893, 3.802124
259.6714, 4.102051
260.1535, 4.571106
260.6357, 4.715027
261.1178, 4.018494
261.5999, 3.678040
262.0820, 4.934509
262.5641, 7.220398
263.0462, 8.793518
263.5284, 8.121765
264.0105, 5.610596
264.4926, 3.608582
264.9747, 2.012390
265.4568, 1.211792
265.9389, 1.939148
266.4211, 3.520691
266.9032, 4.351685
267.3853, 3.022888
267.8674, 0.2850950
268.3495, 0.6972660
268.8316, 1.361877
269.3138, 3.292297
269.7959, 3.731506
270.2780, 3.335388
270.7601, 3.085876
271.2422, 3.512329
271.7243, 4.411255
272.2065, 5.137146
272.6886, 5.688110
273.1707, 6.052124
273.6528, 6.260498
274.1349, 6.307190
274.6170, 6.112610
275.0992, 5.603943
275.5813, 5.006470
276.0634, 4.948120
276.5455, 5.896851
277.0276, 6.498779
277.5097, 6.340576
277.9919, 5.877502
278.4740, 5.564026
278.9561, 5.560486
279.4382, 5.626770
279.9203, 5.252258
280.4024, 4.137695
280.8846, 3.194763
281.3667, 2.282043
281.8488, 1.714905
282.3309, 1.916260
282.8130, 2.907104
283.2951, 4.076355
283.7773, 4.438110
284.2594, 3.486267
284.7415, 2.972046
285.2236, 3.264465
285.7057, 3.698120
286.1878, 3.762390
286.6700, 3.468750
287.1521, 3.310120
287.6342, 4.038513
288.1163, 6.187683
288.5984, 7.040771
289.0805, 4.843323
289.5627, 3.010498
290.0448, 3.471985
290.5269, 5.884888
291.0090, 8.562317
291.4911, 10.05023
291.9732, 10.32935
292.4554, 9.864136
292.9375, 8.106689
293.4196, 6.189392
293.9017, 4.180237
294.3838, 2.305969
294.8659, 0.9097290
295.3481, 0.2401730
295.8302, 0.2570190
296.3123, 0.5420530
296.7944, 1.223999
297.2765, 2.062134
297.7586, 3.514526
298.2408, 5.000366
298.7229, 5.485779
299.2050, 4.338257
299.6871, 2.137390
300.1692, 1.166077
300.6513, 3.163757
301.1335, 4.385803
301.6156, 4.044495
302.0977, 2.902222
302.5798, 1.635010
303.0619, 0.4677730
303.5440, 0.3960570
304.0262, 0.5654910
304.5083, 0.8087160
304.9904, 1.473999
305.4725, 0.9804690
305.9546, 8.4778003E-02
306.4367, 0.8775020
306.9189, 1.712708
307.4010, 2.015991
307.8831, 2.898368
308.3652, 3.350014
308.8473, 3.914978
309.3294, 4.089600
309.8116, 3.707825
310.2937, 3.413208
310.7758, 3.261841
311.2579, 2.968506
311.7400, 2.215576
312.2221, 0.8870850
312.7043, 8.3922997E-02
313.1864, 0.8286130
313.6685, 1.155334
314.1506, 0.7087400
314.6327, 0.2443240
315.1148, 1.057739
315.5970, 1.213196
316.0791, 0.7951050
316.5612, 0.9633180
317.0433, 2.820251
317.5254, 4.044373
318.0075, 3.689331
318.4897, 2.484558
318.9718, 1.525574
319.4539, 1.380432
319.9360, 1.847839
320.4181, 2.270996
320.9002, 2.774719
321.3824, 3.030701
321.8645, 3.080505
322.3466, 2.843018
322.8287, 1.902344
323.3108, 0.2229000
323.7929, 1.313599
324.2751, 1.009155
324.7572, 3.101074
325.2393, 5.200134
325.7214, 3.846130
326.2035, 1.798340
326.6856, 0.9597170
327.1678, 1.541992
327.6499, 2.840759
328.1320, 4.201904
328.6141, 5.779724
329.0962, 6.617188
329.5783, 6.148743
330.0605, 5.590759
330.5426, 5.397400
331.0247, 5.547729
331.5068, 5.905273
331.9889, 6.438538
332.4710, 7.094910
332.9532, 7.006409
333.4353, 5.384094
333.9174, 3.812622
334.3995, 2.228333
334.8816, 0.9725340
335.3637, 0.6038820
335.8459, 1.427490
336.3280, 3.039368
336.8101, 4.227905
337.2922, 4.833252
337.7743, 5.214111
338.2564, 5.406311
338.7386, 5.406250
339.2206, 5.012756
339.7028, 4.256042
340.1849, 3.624573
340.6670, 3.908020
341.1491, 5.534607
341.6312, 7.024231
342.1133, 8.936035
342.5955, 10.26691
343.0776, 10.12292
343.5597, 8.723145
344.0418, 7.118835
344.5239, 6.232422
345.0060, 6.078430
345.4882, 6.396362
345.9703, 8.081421
346.4524, 9.373108
346.9345, 10.08624
347.4166, 10.02307
347.8987, 8.611328
348.3809, 5.177246
348.8630, 0.6849370
349.3451, 0.6243900
349.8272, 3.860107
350.3093, 7.578430
350.7914, 9.350220
351.2736, 9.811890
351.7557, 9.243530
352.2378, 7.763733
352.7199, 6.189758
353.2020, 5.999939
353.6841, 7.684814
354.1663, 9.278931
354.6484, 11.32166
355.1305, 12.65112
355.6126, 12.01392
356.0947, 9.617493
356.5768, 7.205261
357.0590, 6.749023
357.5411, 8.355164
358.0232, 9.018860
358.5053, 7.807190
358.9874, 6.677490
359.4695, 6.494202
359.9517, 6.996094
360.4338, 7.600708
360.9159, 7.986572
361.3980, 8.215820
361.8801, 8.541809
362.3622, 9.054443
362.8444, 9.548523
363.3265, 10.17957
363.8086, 10.65808
364.2907, 10.53217
364.7728, 9.593689
365.2549, 8.446472
365.7371, 7.927673
366.2192, 8.094421
366.7013, 8.305603
367.1834, 8.600281
367.6655, 8.727600
368.1476, 8.402222
368.6298, 7.646301
369.1119, 6.916260
369.5940, 6.613342
370.0761, 6.637085
370.5582, 6.508545
371.0403, 6.116699
371.5225, 5.644897
372.0046, 5.035156
372.4867, 4.474426
372.9688, 4.417236
373.4509, 5.491760
373.9330, 6.891541
374.4152, 7.429199
374.8973, 7.056641
375.3794, 6.219116
375.8615, 4.571533
376.3436, 2.850952
376.8257, 2.255859
377.3079, 3.269775
377.7900, 4.490479
378.2721, 4.952881
378.7542, 4.758911
379.2363, 4.264954
379.7184, 3.360046
380.2006, 2.532593
380.6827, 2.504211
381.1648, 3.242065
381.6469, 3.912415
382.1290, 4.479980
382.6111, 4.897827
383.0933, 4.836487
383.5754, 4.235413
384.0575, 3.782959
384.5396, 4.195618
385.0217, 5.338013
385.5038, 5.930908
385.9860, 5.471375
386.4681, 4.866821
386.9502, 4.659180
387.4323, 4.775513
387.9144, 4.978455
388.3965, 5.249573
388.8787, 5.390991
389.3608, 4.668884
389.8429, 2.093994
390.3250, 0.8112790
390.8071, 2.608337
391.2892, 5.542786
391.7714, 7.330200
392.2535, 7.469299
392.7356, 6.745483
393.2177, 6.016296
393.6998, 5.307434
394.1819, 4.263794
394.6641, 2.208191
395.1462, 0.4139400
395.6283, 0.5045170
396.1104, 0.5294800
396.5925, 0.3496090
397.0746, 2.337280
397.5568, 5.083130
398.0389, 6.733582
398.5210, 6.491882
399.0031, 6.260925
399.4852, 6.296448
399.9673, 6.427979
400.4495, 6.482056
400.9316, 6.467468
401.4137, 6.404175
401.8958, 6.228882
402.3779, 5.586792
402.8600, 5.229858
403.3422, 6.077515
403.8243, 6.745789
404.3064, 6.306274
404.7885, 5.099426
405.2706, 3.983215
405.7527, 3.808289
406.2349, 4.511169
406.7170, 5.079468
407.1991, 5.344299
407.6812, 5.726563
408.1633, 6.611694
408.6454, 7.484314
409.1276, 7.665466
409.6097, 6.894714
410.0918, 5.772339
410.5739, 5.112732
411.0560, 4.926147
411.5381, 5.199158
412.0203, 6.507690
412.5024, 7.798767
412.9845, 8.535095
413.4666, 8.714905
413.9487, 8.537659
414.4308, 7.924316
414.9130, 7.037537
415.3951, 6.494690
415.8772, 6.346802
416.3593, 6.421143
416.8414, 6.838318
417.3235, 7.361511
417.8057, 7.610596
418.2878, 7.339905
418.7699, 7.081238
419.2520, 7.450684
419.7341, 8.376099
420.2162, 9.245483
420.6984, 10.08710
421.1805, 10.49207
421.6626, 9.589844
422.1447, 7.348450
422.6268, 5.888123
423.1089, 6.765381
423.5911, 8.503601
424.0732, 9.000977
424.5553, 8.024231
425.0374, 6.729919
425.5195, 5.898987
426.0016, 5.512756
426.4838, 5.229919
426.9659, 5.020813
427.4480, 4.941345
427.9301, 5.111877
428.4122, 5.431274
428.8943, 5.657410
429.3765, 5.689514
429.8586, 5.649292
430.3407, 5.754211
430.8228, 6.090576
431.3049, 6.464111
431.7870, 6.831482
432.2692, 7.161499
432.7513, 7.799500
433.2334, 8.535095
433.7155, 8.452209
434.1976, 6.635498
434.6797, 3.286499
435.1619, 1.308105
435.6440, 1.878296
436.1261, 2.494507
436.6082, 2.865295
437.0903, 3.025635
437.5724, 2.996887
438.0546, 2.797363
438.5367, 2.554443
439.0188, 2.518677
439.5009, 2.842285
439.9830, 2.871277
440.4651, 2.351257
440.9473, 1.732666
441.4294, 1.064026
441.9115, 0.4624020
442.3936, 0.1548460
442.8757, 0.2890630
443.3578, 0.8380740
443.8400, 1.863770
444.3221, 3.832214
444.8042, 5.097290
445.2863, 4.505615
445.7684, 3.248413
446.2505, 2.341125
446.7327, 1.992737
447.2148, 1.881348
447.6969, 1.870911
448.1790, 1.903320
448.6611, 1.622314
449.1432, 0.8277590
449.6254, 1.3428000E-02
450.1075, 0.5801390
450.5896, 0.8890380
451.0717, 0.9088130
451.5538, 0.5809940
452.0359, 4.8219999E-03
452.5181, 1.144592
453.0002, 2.655762
453.4823, 3.144470
453.9644, 1.602356
454.4465, 0.8347170
454.9286, 1.500183
455.4108, 9.5215000E-02
455.8929, 1.518127
456.3750, 2.473083
456.8571, 2.844116
457.3392, 2.272583
457.8214, 0.8039550
458.3035, 0.8817140
458.7856, 2.360535
459.2677, 3.646606
459.7498, 3.287354
460.2319, 1.174683
460.7141, 4.198364
461.1962, 2.824768
461.6783, 0.4940190
462.1604, 2.126465
462.6425, 0.7177120
463.1246, 2.131226
463.6068, 3.705505
464.0889, 3.498169
464.5710, 3.316101
465.0531, 3.228394
465.5352, 3.102844
466.0173, 2.719116
466.4995, 2.235168
466.9816, 2.109558
467.4637, 2.793518
467.9458, 3.870544
468.4279, 3.801636
468.9100, 1.850159
469.3922, 0.6726680
469.8743, 1.864014
470.3564, 3.646851
470.8385, 4.546265
471.3206, 4.348999
471.8027, 4.039001
472.2849, 4.700439
472.7670, 5.922729
473.2491, 5.978699
473.7312, 4.382019
474.2133, 2.567566
474.6954, 1.487488
475.1776, 0.9619750
475.6597, 0.6452640
476.1418, 0.5189210
476.6239, 0.5460210
477.1060, 0.7720340
477.5881, 1.137756
478.0703, 1.485596
478.5524, 1.772644
479.0345, 1.972473
479.5166, 1.919189
479.9987, 1.403076
480.4808, 1.731079
480.9630, 4.257874
481.4451, 6.584473
481.9272, 6.677917
482.4093, 5.035278
482.8914, 3.609924
483.3735, 3.609680
483.8557, 4.567017
484.3378, 4.800720
484.8199, 3.751526
485.3020, 2.726379
485.7841, 1.471680
486.2662, 0.4633790
486.7484, 0.2771000
487.2305, 0.8240970
487.7126, 1.312134
488.1947, 0.8021850
488.6768, 0.5634770
489.1589, 0.3638920
489.6411, 2.911438
490.1232, 5.347656
490.6053, 5.390564
491.0874, 4.220825
491.5695, 2.965637
492.0516, 1.893616
492.5338, 1.335754
493.0159, 1.930054
493.4980, 3.534424
493.9801, 4.722229
494.4622, 5.200867
494.9443, 5.405518
495.4265, 5.937561
495.9086, 6.527710
496.3907, 6.266663
496.8728, 3.925598
497.3549, 1.552307
497.8370, 1.068665
498.3192, 2.052551
498.8013, 3.016479
499.2834, 3.458496
499.7655, 3.431824
500.2476, 2.796814
500.7297, 1.037415
501.2119, 0.6708370
501.6940, 3.515747
502.1761, 6.430176
502.6582, 6.920593
503.1403, 5.417847
503.6224, 3.770447
504.1045, 3.052185
504.5866, 3.259399
505.0688, 4.499695
505.5509, 8.883484
506.0330, 10.88025
506.5151, 8.025940
506.9972, 4.500610
507.4793, 3.602722
507.9615, 5.315796
508.4436, 7.277161
508.9257, 7.446289
509.4078, 6.186707
509.8899, 5.649597
510.3720, 6.177246
510.8542, 6.622498
511.3363, 6.205200
511.8184, 5.666626
512.3005, 6.005859
512.7827, 7.589966
513.2648, 8.634277
513.7469, 6.700134
514.2290, 2.999573
514.7111, 1.357910
515.1932, 2.572388
515.6754, 4.280396
516.1575, 4.559387
516.6396, 3.732483
517.1217, 3.486572
517.6038, 4.838379
518.0859, 6.093933
518.5681, 5.819153
519.0502, 4.737671
519.5323, 4.118286
520.0144, 4.284180
520.4965, 4.684082
520.9786, 4.282776
521.4608, 2.681091
521.9429, 2.286499
522.4250, 4.046143
522.9071, 5.776611
523.3892, 7.073242
523.8713, 7.723877
524.3535, 7.129883
524.8356, 5.080566
525.3177, 2.876648
525.7998, 3.070557
526.2819, 6.420715
526.7640, 8.318665
527.2462, 7.353271
527.7283, 6.031982
528.2104, 5.312805
528.6925, 5.158020
529.1746, 5.594788
529.6567, 6.997498
530.1389, 8.396912
530.6210, 8.112549
531.1031, 6.275330
531.5852, 5.264832
532.0673, 6.063416
532.5494, 7.467773
533.0316, 8.121826
533.5137, 8.082397
533.9958, 7.622437
534.4779, 5.917542
534.9600, 4.538574
535.4421, 5.333557
535.9243, 7.623901
536.4064, 8.927551
536.8885, 7.971069
537.3706, 5.812927
537.8527, 4.682495
538.3348, 5.048523
538.8170, 5.588196
539.2991, 6.713562
539.7812, 7.624573
540.2633, 7.595032
540.7454, 6.939270
541.2275, 6.700134
541.7097, 7.636169
542.1918, 8.978577
542.6739, 8.402710
543.1560, 4.970642
543.6381, 2.694580
544.1202, 3.084534
544.6024, 4.114258
545.0845, 4.766907
545.5666, 5.023987
546.0487, 5.199951
546.5308, 5.660583
547.0129, 6.040222
547.4951, 5.258667
547.9772, 3.335083
548.4593, 2.514587
548.9414, 4.121521
549.4235, 6.865051
549.9056, 8.484070
550.3878, 8.963623
550.8699, 8.932007
551.3520, 8.313232
551.8341, 7.360718
552.3162, 5.847595
552.7983, 4.114502
553.2805, 3.219421
553.7626, 3.807434
554.2447, 5.514099
554.7268, 7.395020
555.2089, 10.43573
555.6910, 11.79340
556.1732, 10.39490
556.6553, 8.392456
557.1374, 6.604065
557.6195, 5.365601
558.1016, 5.259521
558.5837, 6.854736
559.0659, 9.189880
559.5480, 9.771851
560.0301, 8.212280
560.5122, 7.189758
560.9943, 7.864868
561.4764, 8.977539
561.9586, 9.419250
562.4407, 9.190002
562.9228, 8.454529
563.4049, 6.344299
563.8870, 4.400574
564.3691, 4.967041
564.8513, 7.502991
565.3334, 8.865540
565.8155, 7.486145
566.2976, 4.625610
566.7797, 2.581787
567.2618, 1.445801
567.7440, 1.109314
568.2261, 2.437439
568.7082, 3.766113
569.1903, 3.885132
569.6724, 3.230957
570.1545, 3.023804
570.6367, 3.901428
571.1188, 5.340027
571.6009, 6.161682
572.0830, 6.157104
572.5651, 6.367981
573.0472, 7.458801
573.5294, 8.214355
574.0115, 7.739868
574.4936, 6.405640
574.9757, 5.328491
575.4578, 4.748962
575.9399, 4.596008
576.4221, 5.143860
576.9042, 6.300842
577.3863, 6.714966
577.8684, 5.849487
578.3505, 4.565247
578.8326, 3.753845
579.3148, 3.446228
579.7969, 3.597961
580.2790, 4.851074
580.7611, 5.900085
581.2432, 5.893494
581.7253, 5.329346
582.2075, 5.107727
582.6896, 5.503479
583.1717, 6.073669
583.6538, 6.312744
584.1359, 6.298157
584.6180, 5.347717
585.1002, 1.623474
585.5823, 0.8123780
586.0643, 9.8572001E-02
586.5464, 2.663818
587.0286, 4.882263
587.5107, 6.240173
587.9928, 6.563965
588.4749, 4.891479
588.9570, 1.940125
589.4391, 0.7804570
589.9213, 2.113586
590.4034, 3.629944
590.8855, 3.636963
591.3676, 2.605408
591.8497, 2.421143
592.3318, 4.009033
592.8140, 4.872498
593.2961, 3.391296
593.7782, 1.259949
594.2603, 0.5399780
594.7424, 1.335205
595.2245, 2.321777
595.7067, 2.449097
596.1888, 1.856079
596.6709, 1.249451
597.1530, 1.8920000E-03
597.6351, 0.1141360
598.1172, 2.509094
598.5994, 5.130676
599.0815, 5.621216
599.5636, 4.079712
600.0457, 2.043945
600.5278, 9.1599999E-04
601.0099, 1.575928
601.4921, 1.417603
601.9742, 0.4992070
602.4563, 2.078308
602.9384, 2.476563
603.4205, 2.376404
603.9026, 2.756348
604.3848, 3.632996
604.8669, 4.301270
605.3490, 4.624329
605.8311, 4.752380
606.3132, 4.700500
606.7953, 4.541504
607.2775, 4.477600
607.7596, 4.582092
608.2417, 4.577576
608.7238, 3.913269
609.2059, 2.297546
609.6880, 1.493408
610.1702, 2.315857
610.6523, 3.044678
611.1344, 2.810059
611.6165, 2.270691
612.0986, 2.553772
612.5807, 4.059937
613.0629, 5.389404
613.5450, 5.106567
614.0271, 3.597900
614.5092, 1.857849
614.9913, 0.1511840
615.4734, 1.330994
615.9556, 0.6931760
616.4377, 1.224609
616.9198, 2.506958
617.4019, 2.831787
617.8840, 3.223145
618.3661, 4.285767
618.8483, 5.221375
619.3304, 5.174255
619.8125, 4.259094
620.2946, 3.128296
620.7767, 2.147522
621.2589, 1.476929
621.7410, 1.755859
622.2231, 3.495117
622.7052, 4.668579
623.1873, 4.428528
623.6694, 4.075745
624.1516, 4.555481
624.6337, 5.545593
625.1158, 6.047180
625.5979, 5.658630
626.0800, 4.716858
626.5621, 2.917725
627.0443, 0.6588130
627.5264, 0.2173460
628.0085, 0.8574220
628.4906, 2.364502
628.9727, 2.750732
629.4548, 2.009888
629.9370, 2.022705
630.4191, 4.264038
630.9012, 5.289063
631.3833, 3.285583
631.8654, 4.252308
632.3475, 1.820984
632.8297, 2.651428
633.3118, 2.123413
633.7939, 0.3255620
634.2760, 3.952759
634.7581, 5.305603
635.2402, 3.753357
635.7224, 2.464539
636.2045, 2.478455
636.6866, 3.203186
637.1687, 4.432617
637.6508, 5.822571
638.1329, 6.048523
638.6151, 3.756226
639.0972, 1.171753
639.5793, 8.4778003E-02
640.0614, 0.2102660
640.5435, 0.8641970
641.0256, 1.813538
641.5078, 2.645691
641.9899, 2.729980
642.4720, 1.890381
642.9541, 1.562622
643.4362, 2.540527
643.9183, 3.123901
644.4005, 2.639038
644.8826, 1.694336
645.3647, 0.7672730
645.8468, 1.1841000E-02
646.3289, 0.2332760
646.8110, 0.7368160
647.2932, 2.467468
647.7753, 4.118530
648.2574, 5.653381
648.7395, 6.181458
649.2216, 4.856628
649.7037, 2.957825
650.1859, 2.964172
650.6680, 5.503418
651.1501, 6.998962
651.6322, 6.470642
652.1143, 5.487183
652.5964, 4.602661
653.0786, 4.031067
653.5607, 4.168030
654.0428, 5.124451
654.5249, 6.255310
655.0070, 6.658081
655.4891, 6.310120
655.9713, 5.838135
656.4534, 5.057800
656.9355, 4.503235
657.4176, 4.683594
657.8997, 5.106079
658.3818, 5.071777
658.8640, 4.329834
659.3461, 4.057739
659.8282, 5.494507
660.3103, 7.187317
660.7924, 7.249634
661.2745, 5.991089
661.7567, 5.226624
662.2388, 5.877136
662.7209, 7.190308
663.2030, 7.698364
663.6851, 7.007629
664.1672, 6.812500
664.6494, 7.266479
665.1315, 8.059998
665.6136, 9.963135
666.0957, 11.81091
666.5778, 11.67749
667.0599, 8.959412
667.5421, 5.998230
668.0242, 4.636108
668.5063, 4.575317
668.9884, 5.348511
669.4705, 6.929382
669.9526, 8.325989
670.4348, 9.015259
670.9169, 9.175232
671.3990, 9.121887
671.8811, 8.618713
672.3632, 8.497620
672.8453, 9.325806
673.3275, 9.930847
673.8096, 9.672485
674.2917, 8.886719
674.7738, 8.204529
675.2559, 7.882629
675.7380, 7.607178
676.2202, 6.842041
676.7023, 5.677307
677.1844, 5.129639
677.6665, 5.441528
678.1486, 5.675842
678.6307, 5.274475
679.1129, 4.530457
679.5950, 3.953796
680.0771, 3.488831
680.5592, 3.403320
681.0413, 4.563782
681.5234, 5.428162
682.0056, 4.374023
682.4877, 2.086121
682.9698, 0.1892700
683.4519, 0.6106570
683.9340, 0.4804080
684.4161, 0.6143190
684.8983, 2.819153
685.3804, 4.108948
685.8625, 4.190247
686.3446, 3.928162
686.8267, 3.439941
687.3088, 2.934875
687.7910, 2.596313
688.2731, 2.430603
688.7552, 2.623169
689.2373, 3.982605
689.7194, 5.208557
690.2015, 4.390015
690.6837, 2.117188
691.1658, 0.3609620
691.6479, 7.5679999E-03
692.1300, 0.5527340
692.6121, 1.685852
693.0942, 3.726318
693.5764, 3.903625
694.0585, 0.2194210
694.5406, 2.910461
695.0227, 1.370239
695.5048, 1.602905
695.9869, 2.971924
696.4691, 2.319031
696.9512, 1.529480
697.4333, 1.999207
697.9154, 2.796326
698.3975, 2.412476
698.8796, 1.087524
699.3618, 0.1854250
699.8439, 0.2081910
700.3260, 0.7850950
700.8081, 1.585999
701.2902, 2.743774
701.7723, 3.029358
702.2545, 1.386169
702.7366, 0.3175660
703.2187, 0.9877930
703.7008, 2.060303
704.1829, 1.940491
704.6650, 0.7266240
705.1472, 0.3295900
705.6293, 0.5392460
706.1114, 1.6418001E-02
706.5935, 1.892212
707.0756, 4.709045
707.5577, 5.625488
708.0399, 3.484863
708.5220, 0.9163820
709.0041, 0.9077760
709.4862, 3.463867
709.9683, 4.731323
710.4504, 3.761169
710.9326, 2.832092
711.4147, 1.873962
711.8968, 1.425293
712.3789, 2.526184
712.8610, 4.711670
713.3431, 5.942322
713.8253, 4.588562
714.3074, 2.289307
714.7895, 1.731873
715.2716, 2.670593
715.7537, 3.270996
716.2358, 3.099670
716.7180, 2.859985
717.2001, 3.246826
717.6822, 4.092651
718.1643, 4.242920
718.6464, 2.909058
719.1285, 2.029297
719.6107, 2.192078
720.0928, 2.531860
720.5749, 2.362793
721.0570, 1.841797
721.5391, 1.418091
722.0212, 1.277222
722.5034, 1.594604
722.9855, 3.014343
723.4676, 5.237366
723.9497, 6.351563
724.4318, 6.042236
724.9139, 5.273987
725.3961, 4.612793
725.8782, 3.977844
726.3603, 3.950623
726.8424, 5.412354
727.3245, 5.850769
727.8066, 4.237976
728.2888, 2.460510
728.7709, 1.134949
729.2530, 0.5419310
729.7351, 1.238464
730.2172, 3.374451
730.6993, 5.772827
731.1815, 7.511230
731.6636, 8.442444
732.1457, 8.072937
732.6278, 6.330872
733.1099, 4.989685
733.5920, 5.003723
734.0742, 5.444275
734.5563, 4.739929
735.0384, 2.461426
735.5205, 1.272339
736.0026, 2.079773
736.4847, 2.895447
736.9669, 2.920105
737.4490, 2.622131
737.9311, 2.385620
738.4132, 2.392334
738.8953, 3.028442
739.3774, 5.071106
739.8596, 7.525513
740.3417, 7.805969
740.8238, 6.082947
741.3059, 5.837585
741.7880, 8.516968
742.2701, 11.15747
742.7523, 10.47443
743.2344, 6.763672
743.7165, 4.849060
744.1986, 6.405090
744.6807, 7.295105
745.1628, 6.569336
745.6450, 5.366150
746.1271, 4.342407
746.6092, 3.630859
747.0913, 3.298096
747.5734, 3.438293
748.0555, 3.698730
748.5377, 3.650635
749.0198, 3.341919
749.5019, 2.868042
749.9840, 2.257690
750.4661, 1.993896
750.9482, 2.402222
751.4304, 3.312317
751.9125, 4.332642
752.3946, 5.691772
752.8767, 6.464661
753.3588, 6.618286
753.8409, 6.220093
754.3231, 4.817200
754.8052, 3.125183
755.2873, 2.128357
755.7694, 2.050964
756.2515, 2.288147
756.7336, 2.795654
757.2158, 3.103088
757.6979, 1.940430
758.1800, 0.3156130
758.6621, 1.230774
759.1442, 0.1630860
759.6263, 1.964722
760.1085, 1.776428
760.5906, 0.4187620
761.0727, 1.226868
761.5548, 0.5762330
762.0369, 1.942993
762.5190, 2.360535
763.0012, 2.201721
763.4833, 1.511108
763.9654, 0.5668950
764.4475, 7.6476999E-02
764.9296, 0.4906010
765.4117, 1.059692
765.8939, 0.9248050
766.3760, 0.5886840
766.8581, 1.391541
767.3402, 3.296448
767.8223, 4.467407
768.3044, 3.649963
768.7866, 1.725830
769.2687, 0.9389040
769.7508, 1.601990
770.2329, 2.293762
770.7150, 3.304688
771.1971, 3.875916
771.6793, 3.165222
772.1614, 2.057678
772.6435, 1.967468
773.1256, 3.213867
773.6077, 3.848816
774.0898, 2.473450
774.5720, 0.7738040
775.0541, 4.6936002E-02
775.5362, 8.1359997E-02
776.0183, 0.6418460
776.5004, 1.978271
776.9825, 2.927856
777.4647, 2.304382
777.9468, 0.5153200
778.4289, 0.3596190
778.9110, 0.1724240
779.3931, 8.3922997E-02
779.8752, 2.4292000E-02
780.3574, 0.2277220
780.8395, 1.939148
781.3216, 4.547729
781.8037, 4.821411
782.2858, 5.5114999E-02
782.7679, 3.367371
783.2501, 2.253723
783.7322, 3.1250000E-02
784.2143, 0.8881230
784.6964, 0.5350340
785.1785, 0.2857060
785.6606, 0.7229000
786.1428, 1.607849
786.6249, 3.283203
787.1070, 5.209595
787.5891, 4.563660
788.0712, 1.058228
788.5533, 1.437317
789.0355, 1.014038
789.5176, 0.9454350
789.9997, 2.370239
790.4818, 3.163635
790.9639, 4.040405
791.4460, 5.345276
791.9282, 6.294922
792.4103, 6.975769
792.8924, 7.042969
793.3745, 5.639343
793.8566, 3.164795
794.3387, 1.616882
794.8209, 2.376282
795.3030, 3.825562
795.7851, 4.718567
796.2672, 5.039978
796.7493, 4.562195
797.2314, 3.338562
797.7136, 1.972412
798.1957, 0.7683720
798.6778, 1.8859999E-02
799.1599, 0.6843870
799.6420, 3.343872
800.1241, 4.970398
800.6063, 4.998169
801.0884, 4.772522
801.5705, 4.668274
802.0526, 4.772827
802.5347, 5.430725
803.0168, 6.754761
803.4990, 7.341675
803.9811, 6.012695
804.4632, 4.650208
804.9453, 4.583862
805.4274, 5.189697
805.9095, 5.634216
806.3917, 5.678833
806.8738, 5.251831
807.3559, 4.124634
807.8380, 2.799377
808.3201, 2.577087
808.8022, 3.405884
809.2844, 3.859741
809.7665, 3.567444
810.2486, 3.540955
810.7307, 4.662903
811.2128, 6.449890
811.6949, 7.399170
812.1771, 7.235474
812.6592, 6.738586
813.1413, 5.171814
813.6234, 4.087402
814.1055, 4.582581
814.5876, 5.770996
815.0698, 6.460632
815.5519, 6.417725
816.0340, 6.137878
816.5161, 5.627075
816.9982, 5.393494
817.4803, 6.013306
817.9625, 7.158142
818.4446, 7.990356
818.9267, 8.298889
819.4088, 8.249146
819.8909, 7.658752
820.3730, 6.902832
820.8552, 7.713074
821.3373, 10.86951
821.8194, 12.03308
822.3015, 9.915588
822.7836, 7.123291
823.2657, 4.519775
823.7479, 2.547546
824.2300, 2.291260
824.7121, 4.276428
825.1942, 6.050720
825.6763, 7.470520
826.1584, 8.198120
826.6406, 7.753479
827.1227, 6.623840
827.6048, 5.330994
828.0869, 4.088562
828.5690, 3.173767
829.0511, 2.701782
829.5333, 2.804810
830.0154, 4.090881
830.4975, 6.250000
830.9796, 7.736267
831.4617, 8.239258
831.9438, 8.330688
832.4260, 8.454895
832.9081, 8.408752
833.3902, 7.434265
833.8723, 4.616089
834.3544, 3.280579
834.8365, 4.178101
835.3187, 5.642090
835.8008, 7.506348
836.2829, 9.252625
836.7650, 10.28857
837.2471, 10.54297
837.7292, 10.38757
838.2114, 9.410400
838.6935, 8.643188
839.1756, 9.046387
839.6577, 9.901917
840.1398, 9.968201
840.6219, 9.100769
841.1041, 8.861389
841.5862, 10.32269
842.0683, 12.30151
842.5504, 13.05365
843.0325, 12.65338
843.5146, 11.25226
843.9968, 8.757141
844.4789, 6.760193
844.9610, 6.247742
845.4431, 6.438293
845.9252, 5.797302
846.4073, 3.824829
846.8895, 3.215210
847.3716, 5.122498
847.8537, 6.855957
848.3358, 7.817993
848.8179, 8.401062
849.3000, 9.070679
849.7822, 9.730896
850.2643, 9.759827
850.7464, 8.508179
851.2285, 7.288879
851.7106, 6.891174
852.1927, 6.983521
852.6749, 7.140930
853.1570, 7.213440
853.6391, 7.110107
854.1212, 6.765625
854.6033, 6.674988
855.0854, 7.924011
855.5676, 10.04041
856.0497, 10.62933
856.5318, 9.623413
857.0139, 7.974243
857.4960, 5.607605
857.9781, 4.190002
858.4603, 5.953857
858.9424, 10.47131
859.4245, 12.72186
859.9066, 11.47986
860.3887, 10.07312
860.8708, 8.361450
861.3530, 6.993958
861.8351, 6.183533
862.3172, 5.986877
862.7993, 6.703796
863.2814, 8.618469
863.7635, 10.01978
864.2457, 9.708191
864.7278, 9.054382
865.2099, 9.054749
865.6920, 9.632324
866.1741, 10.29761
866.6563, 10.93512
867.1384, 11.98608
867.6205, 14.16870
868.1026, 16.15753
868.5847, 14.72241
869.0668, 10.53052
869.5490, 7.965637
870.0311, 7.676697
870.5132, 8.015625
870.9953, 8.070435
871.4774, 8.053467
871.9595, 8.457642
872.4417, 9.468201
872.9238, 9.894836
873.4059, 9.509460
873.8880, 8.905579
874.3701, 7.830078
874.8522, 6.941895
875.3344, 7.134766
875.8165, 8.147095
876.2986, 8.397034
876.7807, 7.055847
877.2628, 5.683777
877.7449, 4.469543
878.2271, 3.756348
878.7092, 4.042358
879.1913, 5.091248
879.6734, 6.351501
880.1555, 7.727417
880.6376, 8.798828
881.1198, 9.151855
881.6019, 8.930359
882.0840, 6.848022
882.5661, 3.741028
883.0482, 3.056824
883.5303, 5.597229
884.0125, 8.063721
884.4946, 7.504150
884.9767, 5.077332
885.4588, 4.721375
885.9409, 6.846069
886.4230, 8.906067
886.9052, 11.16901
887.3873, 12.32513
887.8694, 11.41711
888.3515, 9.254028
888.8336, 6.794189
889.3157, 3.800842
889.7979, 2.364014
890.2800, 4.082458
890.7621, 5.347412
891.2442, 4.615723
891.7263, 3.512573
892.2084, 3.553894
892.6906, 4.487793
893.1727, 5.165833
893.6548, 5.199463
894.1369, 4.877991
894.6190, 4.094971
895.1011, 3.286255
895.5833, 2.977844
896.0654, 3.092346
896.5475, 3.415100
897.0296, 3.847412
897.5117, 4.218445
897.9938, 4.299988
898.4760, 4.279541
898.9581, 4.850708
899.4402, 5.915222
899.9223, 6.143555
900.4044, 5.219971
900.8865, 4.358276
901.3687, 4.343811
901.8508, 4.885254
902.3329, 5.476135
902.8150, 6.361023
903.2971, 5.973389
903.7792, 3.093323
904.2614, 1.048035
904.7435, 1.177856
905.2256, 2.269653
905.7077, 3.844116
906.1898, 5.582520
906.6719, 5.719727
907.1541, 2.511108
907.6362, 0.1384890
908.1183, 0.4346920
908.6004, 1.158264
909.0825, 0.3880620
909.5646, 0.9832150
910.0468, 0.9877930
910.5289, 0.7957760
911.0110, 2.401733
911.4931, 2.346191
911.9752, 1.572571
912.4573, 0.8174440
912.9395, 0.2095340
913.4216, 7.8308001E-02
913.9037, 0.4010620
914.3858, 0.7991940
914.8679, 1.051697
915.3500, 1.173828
915.8321, 1.191345
916.3142, 1.099426
916.7963, 0.5993650
917.2784, 0.3879390
917.7606, 0.1000980
918.2427, 3.173645
918.7248, 6.221191
919.2069, 6.347290
919.6890, 3.956787
920.1711, 2.117920
920.6533, 0.8128050
921.1354, 0.1839600
921.6175, -0.2384421
922.0996, 1.402954
922.5817, 0.2601320
923.0638, 1.486450
923.5460, 2.393738
924.0281, 2.381348
924.5102, 1.927063
924.9923, 0.7603760
925.4744, 0.4148560
925.9565, 1.575073
926.4387, 2.457703
926.9208, 2.569519
927.4029, 2.194336
927.8850, 2.261230
928.3671, 3.234253
928.8492, 4.010864
929.3314, 3.669617
929.8135, 2.868896
930.2956, 1.934998
930.7777, 1.239868
931.2598, 1.881531
931.7419, 3.845154
932.2241, 5.186768
932.7062, 4.239807
933.1883, 2.369812
933.6704, 2.147034
934.1525, 3.201050
934.6346, 4.151062
935.1168, 4.817505
935.5989, 4.288452
936.0810, 1.959595
936.5631, 0.1858520
937.0452, 0.8394170
937.5273, 0.6519170
938.0095, 1.582581
938.4916, 0.1638180
938.9737, 2.006104
939.4558, 0.7646480
939.9379, 4.335754
940.4200, 6.157776
940.9022, 6.577942
941.3843, 6.367310
941.8664, 5.044189
942.3485, 4.416931
942.8306, 4.745483
943.3127, 5.424744
943.7949, 7.047119
944.2770, 8.318970
944.7591, 7.768860
945.2412, 5.778687
945.7233, 4.050171
946.2054, 2.590637
946.6876, 2.232544
947.1697, 4.507446
947.6518, 6.791687
948.1339, 7.034485
948.6160, 5.986023
949.0981, 4.668213
949.5803, 3.482239
950.0624, 3.113037
950.5445, 4.684021
951.0266, 6.189514
951.5087, 4.842590
951.9908, 2.451050
952.4730, 2.383728
952.9551, 4.336792
953.4372, 5.740906
953.9193, 5.535583
954.4014, 5.006348
954.8835, 5.911316
955.3657, 7.454956
955.8478, 7.108643
956.3299, 5.128174
956.8120, 3.128296
957.2941, 1.419434
957.7762, 0.9434200
958.2584, 2.463806
958.7405, 4.920532
959.2226, 6.175232
959.7047, 6.151733
960.1868, 6.151611
960.6689, 6.189453
961.1511, 6.198608
961.6332, 6.153931
962.1153, 6.091431
962.5974, 6.019897
963.0795, 5.975952
963.5616, 6.164063
964.0438, 7.340881
964.5259, 7.114746
965.0080, 3.903320
965.4901, 1.332458
965.9722, 0.7289430
966.4543, 1.291870
966.9365, 2.432007
967.4186, 4.000244
967.9007, 5.557312
968.3828, 7.928894
968.8649, 9.080933
969.3470, 7.606567
969.8292, 5.745667
970.3113, 4.776428
970.7934, 4.458435
971.2755, 4.443787
971.7576, 4.619812
972.2397, 4.429016
972.7219, 3.070923
973.2040, 1.892700
973.6861, 1.888306
974.1682, 2.432373
974.6503, 2.981140
975.1324, 3.363342
975.6146, 3.605408
976.0967, 3.669128
976.5788, 3.356140
977.0609, 2.125366
977.5430, 0.7091060
978.0251, 7.4280001E-02
978.5073, 0.1777950
978.9894, 0.9783330
979.4715, 3.117554
979.9536, 4.313354
980.4357, 3.472473
980.9178, 1.898926
981.4000, 1.776917
981.8821, 2.686890
982.3642, 2.810486
982.8463, 2.251648
983.3284, 1.498962
983.8105, 0.6156010
984.2927, 0.2617800
984.7748, 1.069275
985.2569, 2.234192
985.7390, 1.491089
986.2211, 1.999817
986.7032, 2.575562
987.1854, 1.189758
987.6675, 2.840149
988.1496, 1.544250
988.6317, 0.3605350
989.1138, 0.6534420
989.5959, 0.2583010
990.0781, 0.5810550
990.5602, 9.0576001E-02
991.0423, 0.1225590
991.5244, 1.005676
992.0065, 1.849670
992.4886, 1.823059
992.9708, 1.293152
993.4529, 0.2341920
993.9350, 1.193237
994.4171, 1.030457
994.8992, 3.031921
995.3813, 2.501322
995.8635, 3.821350
996.3456, 2.270264
996.8277, 1.690857
997.3098, 1.687683
997.7919, 1.078674
998.2740, 0.1158450
998.7562, 0.6243290
999.2383, 0.6550290
999.7204, 1.458618
1000.203, 0.5292970
1000.685, 0.3864750
1001.167, 0.1665650
1001.649, 1.442017
1002.131, 2.093018
1002.613, 1.929871
1003.095, 1.861450
1003.577, 2.592590
1004.059, 3.136108
1004.542, 2.496033
1005.024, 1.762268
1005.506, 2.203857
1005.988, 3.398254
1006.470, 4.376648
1006.952, 4.820740
1007.434, 4.581665
1007.916, 2.667114
1008.398, 0.9265140
1008.881, 1.604004
1009.363, 3.326050
1009.845, 3.871338
1010.327, 3.504822
1010.809, 4.210938
1011.291, 6.690063
1011.773, 8.789307
1012.255, 8.131470
1012.738, 6.151489
1013.220, 5.006165
1013.702, 4.370544
1014.184, 3.269043
1014.666, 1.766174
1015.148, 0.9108280
1015.630, 1.221008
1016.112, 1.998108
1016.594, 2.389038
1017.077, 2.578369
1017.559, 3.185547
1018.041, 4.075745
1018.523, 4.474182
1019.005, 4.300354
1019.487, 4.368286
1019.969, 5.170593
1020.451, 6.087097
1020.934, 6.250488
1021.416, 5.700745
1021.898, 4.413940
1022.380, 2.432434
1022.862, 1.326782
1023.344, 1.419983
1023.826, 2.074097
1024.308, 2.929077
1024.791, 4.006165
1025.273, 5.485046
1025.755, 7.336426
1026.237, 8.228699
1026.719, 8.123596
1027.201, 7.252808
1027.683, 5.517883
1028.165, 3.547546
1028.647, 1.516907
1029.130, 2.8380999E-02
1029.612, 0.5382690
1030.094, 3.256836
1030.576, 5.327820
1031.058, 6.776733
1031.540, 7.399902
1032.022, 6.973083
1032.504, 6.080078
1032.986, 5.010010
1033.469, 3.851135
1033.951, 2.668335
1034.433, 1.226563
1034.915, 1.369690
1035.397, 4.262146
1035.879, 6.188232
1036.361, 6.084473
1036.843, 5.276123
1037.326, 4.219421
1037.808, 3.320740
1038.290, 3.802734
1038.772, 6.427124
1039.254, 7.104431
1039.736, 3.288635
1040.218, 1.200684
1040.700, 3.459595
1041.182, 6.291992
1041.665, 7.452332
1042.147, 7.386658
1042.629, 6.623657
1043.111, 4.554321
1043.593, 3.665771
1044.075, 4.940369
1044.557, 6.177063
1045.039, 6.930603
1045.521, 7.502686
1046.004, 8.640198
1046.486, 9.578125
1046.968, 8.249939
1047.450, 3.818848
1047.932, 1.526062
1048.414, 3.585571
1048.896, 5.572693
1049.378, 6.280334
1049.861, 6.623718
1050.343, 7.455078
1050.825, 8.292969
1051.307, 7.744507
1051.789, 5.330505
1052.271, 3.985596
1052.753, 5.325012
1053.235, 6.423523
1053.718, 6.287476
1054.200, 5.675049
1054.682, 4.612061
1055.164, 3.686096
1055.646, 4.045105
1056.128, 5.917175
1056.610, 7.655762
1057.092, 9.212524
1057.574, 10.11652
1058.057, 9.758484
1058.539, 9.105835
1059.021, 8.688599
1059.503, 8.633972
1059.985, 9.429321
1060.467, 11.12720
1060.949, 11.56519
1061.431, 8.790894
1061.913, 6.525696
1062.396, 6.603882
1062.878, 7.131165
1063.360, 6.548218
1063.842, 5.332947
1064.324, 4.238586
1064.806, 3.465576
1065.288, 3.613525
1065.770, 5.990967
1066.253, 7.852661
1066.735, 8.090393
1067.217, 7.373596
1067.699, 5.434204
1068.181, 3.276306
1068.663, 2.365906
1069.145, 2.867737
1069.627, 3.896301
1070.109, 5.811279
1070.592, 7.024292
1071.074, 6.043152
1071.556, 4.878540
1072.038, 5.377625
1072.520, 6.509521
1073.002, 6.544678
1073.484, 5.421692
1073.966, 4.464966
1074.448, 4.070129
1074.931, 4.068848
1075.413, 4.492859
1075.895, 5.171265
1076.377, 6.666992
1076.859, 7.916138
1077.341, 6.965332
1077.823, 4.251404
1078.305, 2.682312
1078.788, 3.638306
1079.270, 4.592896
1079.752, 3.951965
1080.234, 3.360901
1080.716, 4.343384
1081.198, 5.721985
1081.680, 5.991150
1082.162, 5.269226
1082.644, 4.542908
1083.127, 4.028381
1083.609, 3.974670
1084.091, 4.999207
1084.573, 5.937622
1085.055, 6.039856
1085.537, 5.723816
1086.019, 5.501404
1086.501, 5.268555
1086.984, 4.339600
1087.466, 2.392944
1087.948, 1.585999
1088.430, 3.804688
1088.912, 6.143433
1089.394, 7.574402
1089.876, 8.029663
1090.358, 6.852417
1090.840, 4.881470
1091.323, 3.796936
1091.805, 3.943176
1092.287, 4.269592
1092.769, 4.258057
1093.251, 4.517639
1093.733, 5.781372
1094.215, 6.973022
1094.697, 7.674316
1095.179, 7.489929
1095.662, 5.262878
1096.144, 1.119690
1096.626, 1.275757
1097.108, 0.6259770
1097.590, 2.171814
1098.072, 1.935974
1098.554, 0.7990720
1099.036, 2.015991
1099.519, 0.9853637
1100.001, 3.776001
1100.483, 8.4045000E-02
1100.965, 2.392700
1101.447, 2.156738
1101.929, 1.874817
1102.411, 2.388306
1102.893, 2.774536
1103.375, 2.259827
1103.858, 1.700500
1104.340, 2.266357
1104.822, 3.573242
1105.304, 4.124146
1105.786, 3.579834
1106.268, 2.766846
1106.750, 0.4564210
1107.232, 0.3135380
1107.714, 3.208679
1108.197, 7.020813
1108.679, 7.789185
1109.161, 6.505432
1109.643, 5.650635
1110.125, 5.511230
1110.607, 5.024597
1111.089, 3.242798
1111.571, 2.315979
1112.054, 3.644470
1112.536, 4.852295
1113.018, 4.099182
1113.500, 2.636292
1113.982, 2.644714
1114.464, 4.179688
1114.946, 4.753967
1115.428, 3.759338
1115.911, 2.813965
1116.393, 1.737427
1116.875, 1.114197
1117.357, 0.8580141
1117.839, 2.447083
1118.321, 1.097046
1118.803, 1.679321
1119.285, 2.483521
1119.767, 0.1099850
1120.250, 1.194092
1120.732, 0.8798830
1121.214, 0.6217040
1121.696, 0.8995970
1122.178, 1.411987
1122.660, 2.044373
1123.142, 2.613159
1123.624, 2.529541
1124.106, 1.603638
1124.589, 1.550964
1125.071, 2.680542
1125.553, 3.648743
1126.035, 4.291199
1126.517, 4.337585
1126.999, 3.399963
1127.481, 2.265808
1127.963, 2.076355
1128.446, 2.854614
1128.928, 5.585022
1129.410, 10.87152
1129.892, 12.08319
1130.374, 7.961365
1130.856, 3.758301
1131.338, 1.543945
1131.820, 1.036072
1132.302, 2.262146
1132.785, 4.379761
1133.267, 4.538330
1133.749, 2.891113
1134.231, 1.681213
1134.713, 1.031555
1135.195, 1.699707
1135.677, 3.876587
1136.159, 5.141724
1136.641, 3.611938
1137.124, 1.123474
1137.606, 0.8917850
1138.088, 2.320740
1138.570, 3.233215
1139.052, 3.741089
1139.534, 4.547668
1140.016, 5.646423
1140.498, 6.005554
1140.981, 5.162598
1141.463, 4.351685
1141.945, 5.025635
1142.427, 6.385742
1142.909, 7.442078
1143.391, 7.947266
1143.873, 6.919739
1144.355, 4.844055
1144.838, 3.140320
1145.320, 2.312561
1145.802, 2.731812
1146.284, 5.215515
1146.766, 7.280029
1147.248, 5.138245
1147.730, 2.246460
1148.212, 3.857666
1148.694, 7.286438
1149.177, 7.032654
1149.659, 3.433167
1150.141, 1.214233
1150.623, 2.330444
1151.105, 3.442688
1151.587, 1.928406
1152.069, 0.3599240
1152.551, 0.8775630
1153.033, 6.7099999E-04
1153.516, 1.589478
1153.998, 0.5883790
1154.480, 0.7211910
1154.962, 2.443176
1155.444, 3.887512
1155.926, 4.421265
1156.408, 4.621521
1156.890, 4.448181
1157.373, 4.155401
1157.855, 3.265686
1158.337, 2.668335
1158.819, 1.505981
1159.301, 0.1203610
1159.783, 0.3345950
1160.265, 3.353943
1160.747, 4.991028
1161.229, 4.055054
1161.712, 3.182556
1162.194, 3.201904
1162.676, 3.181213
1163.158, 2.232910
1163.640, 1.074036
1164.122, 1.136841
1164.604, 2.393250
1165.086, 3.273743
1165.568, 3.776245
1166.051, 4.305176
1166.533, 5.127136
1167.015, 5.279358
1167.497, 4.188110
1167.979, 3.141846
1168.461, 3.465759
1168.943, 4.854736
1169.425, 6.717468
1169.908, 9.111328
1170.390, 9.289185
1170.872, 7.136780
1171.354, 5.808044
1171.836, 6.053467
1172.318, 6.299194
1172.800, 5.529663
1173.282, 4.828430
1173.765, 6.198792
1174.247, 5.485840
1174.729, 5.289307
1175.211, 5.750305
1175.693, 4.636902
1176.175, 4.838501
1176.657, 5.006897
1177.139, 4.807617
1177.621, 4.711670
1178.104, 4.682190
1178.586, 5.090942
1179.068, 7.233765
1179.550, 9.453491
1180.032, 9.189697
1180.514, 7.391724
1180.996, 5.642029
1181.478, 4.299744
1181.960, 3.382263
1182.443, 2.904663
1182.925, 2.773193
1183.407, 2.943237
1183.889, 3.428650
1184.371, 4.829773
1184.853, 5.981201
1185.335, 5.445618
1185.817, 4.186890
1186.300, 3.976013
1186.782, 4.842224
1187.264, 5.094238
1187.746, 3.794495
1188.228, 3.095337
1188.710, 3.974487
1189.192, 4.697937
1189.674, 4.348877
1190.156, 3.905212
1190.639, 4.116211
1191.121, 4.787170
1191.603, 5.648193
1192.085, 6.781799
1192.567, 6.922485
1193.049, 5.563660
1193.531, 4.711487
1194.013, 4.743713
1194.495, 4.722656
1194.978, 4.156738
1195.460, 3.696167
1195.942, 4.053528
1196.424, 4.956116
1196.906, 5.735901
1197.388, 6.377747
1197.870, 6.094238
1198.352, 4.950989
1198.835, 4.366150
1199.317, 4.601807
1199.799, 5.097229
1200.281, 5.571411
1200.763, 5.761169
1201.245, 4.962463
1201.727, 3.813416
1202.209, 3.536499
1202.692, 4.014648
1203.174, 5.462463
1203.656, 7.307312
1204.138, 7.952454
1204.620, 7.281982
1205.102, 6.939331
1205.584, 7.917725
1206.066, 8.496643
1206.548, 6.782837
1207.031, 4.897522
1207.513, 4.747009
1207.995, 5.052551
1208.477, 3.914734
1208.959, 2.312866
1209.441, 3.029114
1209.923, 6.336609
1210.405, 7.901306
1210.887, 4.886475
1211.370, 2.888733
1211.852, 3.745605
1212.334, 4.503479
1212.816, 3.446899
1213.298, 2.300415
1213.780, 2.565002
1214.262, 3.776733
1214.744, 4.938843
1215.227, 6.169800
1215.709, 5.831055
1216.191, 3.448792
1216.673, 1.305359
1217.155, 0.4467770
1217.637, 1.019958
1218.119, 7.7820003E-02
1218.601, 1.444153
1219.083, 1.676147
1219.566, 1.097229
1220.048, 1.5930001E-02
1220.530, 1.362488
1221.012, 1.804810
1221.494, 1.354858
1221.976, 0.3205570
1222.458, 2.813904
1222.940, 3.483154
1223.422, 1.222107
1223.905, 0.7895510
1224.387, 0.6148680
1224.869, 2.991638
1225.351, 3.736633
1225.833, 3.917603
1226.315, 5.210205
1226.797, 4.799438
1227.279, 6.322510
1227.762, 4.380737
1228.244, 2.990662
1228.726, 2.910950
1229.208, 2.687378
1229.690, 1.057190
1230.172, 0.1707150
1230.654, 1.659790
1231.136, 3.174194
1231.619, 2.982300
1232.101, 2.031006
1232.583, 1.339172
1233.065, 1.037476
1233.547, 2.128967
1234.029, 5.547180
1234.511, 7.106506
1234.993, 6.354370
1235.475, 5.423157
1235.958, 4.668640
1236.440, 4.520630
1236.922, 5.351135
1237.404, 6.263306
1237.886, 5.953125
1238.368, 4.938599
1238.850, 4.860107
1239.332, 5.501526
1239.814, 6.227478
1240.297, 6.820740
1240.779, 6.316345
1241.261, 4.825623
1241.743, 4.336121
1242.225, 5.955017
1242.707, 7.417847
1243.189, 6.411987
1243.671, 4.693604
1244.154, 3.219482
1244.636, 2.428528
1245.118, 3.153809
1245.600, 4.693604
1246.082, 5.955994
1246.564, 6.798950
1247.046, 7.527588
1247.528, 7.447083
1248.010, 8.453552
1248.493, 6.270508
1248.975, 4.314880
1249.457, 2.734375
1249.939, 2.143250
1250.421, 3.388000
1250.903, 5.246216
1251.385, 6.067505
1251.867, 5.928467
1252.349, 6.019836
1252.832, 6.702576
1253.314, 6.426575
1253.796, 4.797729
1254.278, 3.310120
1254.760, 2.215332
1255.242, 1.709473
1255.724, 2.440613
1256.206, 3.305664
1256.689, 3.207458
1257.171, 2.411377
1257.653, 0.7335210
1258.135, 0.9630130
1258.617, 1.090515
1259.099, 3.2837000E-02
1259.581, 1.765015
1260.063, 3.591614
1260.546, 4.099243
1261.028, 2.571960
1261.510, 1.613892
1261.992, 2.578003
1262.474, 4.062927
1262.956, 5.839478
1263.438, 7.587341
1263.920, 9.759094
1264.402, 11.28827
1264.885, 10.59149
1265.367, 8.261841
1265.849, 6.291687
1266.331, 4.586426
1266.813, 4.143250
1267.295, 5.255188
1267.777, 6.310425
1268.259, 7.098694
1268.741, 7.347046
1269.224, 6.857971
1269.706, 6.252930
1270.188, 6.071228
1270.670, 6.298340
1271.152, 7.342468
1271.634, 8.553040
1272.116, 8.178833
1272.598, 5.982117
1273.081, 4.243896
1273.563, 2.722656
1274.045, 1.337708
1274.527, 0.2075810
1275.009, 7.8856997E-02
1275.491, -0.2734874
1275.973, -0.5422993
1276.455, 0.5691530
1276.938, 0.5338130
1277.420, 1.876099
1277.902, 4.986755
1278.384, 6.414368
1278.866, 6.563599
1279.348, 6.411316
1279.830, 6.018433
1280.312, 5.184753
1280.794, 5.256226
1281.276, 3.093628
1281.759, 4.547424
1282.241, 5.545166
1282.723, 4.698425
1283.205, 3.389038
1283.687, 2.433411
1284.169, 1.703491
1284.651, 0.9887700
1285.133, 0.3942260
1285.616, 6.2560998E-02
1286.098, 0.0000000E+00
##END=



