##NAMES=Argyrodite
##RRUFFID=R050437
##IDEAL CHEMISTRY=Ag^1+^_8_Ge^4+^S^2-^_6_
##LOCALITY=Himmelsfurst mine, Freiberg, Saxony, Germany
##OWNER=RRUFF
##SOURCE=University of Arizona Mineral Museum
##DESCRIPTION=Steel gray with a red hint, mass of poorly formed crystals, associated with pyrargyrite.
##STATUS=The identification of this mineral is confirmed by single-crystal X-ray diffraction and chemical analysis.
##URL=rruff.info/R050437
##MEASURED CHEMISTRY=Ag_8.00_Ge_1.00_S_6.00_
200.4483, 0.0000000E+00
200.9304, 1.407150
201.4125, 0.4699540
201.8947, 7.4289002E-02
202.3768, 1.861027
202.8589, 3.182646
203.3410, 3.764568
203.8231, 3.779195
204.3052, 3.236846
204.7874, 1.867569
205.2695, 1.042382
205.7516, 1.756293
206.2337, 4.410017
206.7158, 5.749326
207.1979, 5.367294
207.6801, 4.025325
208.1622, 3.317454
208.6443, 3.415777
209.1264, 3.595539
209.6085, 3.462965
210.0906, 2.874235
210.5728, 2.690879
211.0549, 3.140798
211.5370, 3.846588
212.0191, 3.836654
212.5012, 2.782660
212.9833, 1.822735
213.4655, 1.605840
213.9476, 2.444859
214.4297, 2.805531
214.9118, 2.411243
215.3939, 1.651754
215.8760, 1.547719
216.3581, 2.404221
216.8403, 3.287238
217.3224, 3.714100
217.8045, 3.509718
218.2866, 3.389502
218.7687, 3.371452
219.2508, 3.444386
219.7330, 3.630869
220.2151, 4.101660
220.6972, 4.372821
221.1793, 4.106592
221.6614, 2.920638
222.1435, 2.260795
222.6257, 2.344849
223.1078, 2.909239
223.5899, 3.217027
224.0720, 3.144836
224.5541, 3.016978
225.0362, 2.977641
225.5184, 3.061747
226.0005, 3.151542
226.4826, 3.272856
226.9647, 3.391893
227.4468, 3.418256
227.9289, 3.377685
228.4111, 3.257863
228.8932, 2.995816
229.3753, 2.522436
229.8574, 2.298570
230.3395, 2.191991
230.8216, 2.178632
231.3038, 2.337806
231.7859, 2.905553
232.2680, 3.296140
232.7501, 3.200618
233.2322, 2.382304
233.7143, 1.688897
234.1965, 1.040479
234.6786, 0.5844220
235.1607, 0.7582260
235.6428, 2.022707
236.1249, 3.197381
236.6070, 3.711138
237.0892, 3.160056
237.5713, 2.867799
238.0534, 3.068880
238.5355, 3.467924
239.0176, 3.224752
239.4997, 1.741646
239.9819, 0.4707190
240.4640, 0.1158710
240.9461, 1.191464
241.4282, 1.924230
241.9103, 2.212919
242.3924, 2.191260
242.8746, 2.170789
243.3567, 2.157314
243.8388, 2.136060
244.3209, 2.094193
244.8030, 2.020937
245.2851, 1.991986
245.7673, 2.000733
246.2494, 2.056813
246.7315, 2.166835
247.2136, 2.383984
247.6957, 2.571308
248.1778, 2.791361
248.6600, 2.919214
249.1421, 2.856784
249.6242, 2.661644
250.1063, 2.366298
250.5884, 1.994112
251.0705, 1.372807
251.5527, 0.9729960
252.0348, 1.061666
252.5169, 1.898239
252.9990, 2.292865
253.4811, 2.139511
253.9632, 1.630839
254.4454, 1.051684
254.9275, 0.2164990
255.4096, 0.3420540
255.8917, 0.3964450
256.3738, 0.1683960
256.8560, 0.7661220
257.3381, 1.611447
257.8202, 2.315523
258.3023, 2.120486
258.7844, 0.2807470
259.2665, 0.9381120
259.7487, 0.6019710
260.2308, 1.645904
260.7129, 3.249446
261.1950, 4.216763
261.6771, 4.534722
262.1592, 3.976951
262.6414, 2.043528
263.1235, 0.5271760
263.6056, 0.1103120
264.0877, 0.8939570
264.5698, 1.122003
265.0519, 0.5395030
265.5341, 0.2491660
266.0162, 0.5491030
266.4983, 0.2759380
266.9804, 0.2696960
267.4625, 1.238633
267.9446, 2.604694
268.4268, 2.931326
268.9089, 1.804864
269.3910, 0.3631770
269.8731, 0.1936370
270.3552, 0.3536210
270.8373, 0.9342640
271.3195, 1.303595
271.8016, 1.490728
272.2837, 1.856378
272.7658, 2.489734
273.2479, 3.111201
273.7300, 3.438798
274.2122, 3.420602
274.6943, 3.460209
275.1764, 3.763362
275.6585, 4.186714
276.1406, 3.818394
276.6227, 2.432006
277.1049, 1.002400
277.5870, 0.4242410
278.0691, 0.7852110
278.5512, 0.9551780
279.0333, 0.6653080
279.5154, 0.1073350
279.9976, 7.5995997E-02
280.4797, 0.1487300
280.9618, 0.5773920
281.4439, 1.193142
281.9260, 1.997224
282.4081, 2.531111
282.8903, 2.737517
283.3724, 2.640985
283.8545, 2.144089
284.3366, 1.192986
284.8187, 0.4105580
285.3008, 0.3199050
285.7830, 0.8559940
286.2651, 1.292194
286.7472, 1.600489
287.2293, 1.720619
287.7114, 1.415582
288.1935, 0.6898160
288.6757, 5.0528999E-02
289.1578, 0.2265100
289.6399, 0.1735710
290.1220, 0.1207130
290.6041, 0.7100950
291.0862, 1.348301
291.5684, 1.641856
292.0505, 1.625503
292.5326, 1.615784
293.0147, 1.962053
293.4968, 2.442339
293.9789, 2.289779
294.4611, 1.413116
294.9432, 0.3513260
295.4253, 0.4856430
295.9074, 1.042253
296.3895, 1.067549
296.8716, 8.5030003E-03
297.3538, 1.563191
297.8359, 2.449083
298.3180, 2.623779
298.8001, 2.444314
299.2822, 2.176315
299.7643, 1.833972
300.2465, 1.417566
300.7286, 0.7160410
301.2107, 8.1234999E-02
301.6928, 0.1904700
302.1749, 0.9896990
302.6570, 1.665457
303.1392, 1.287751
303.6213, 0.3859530
304.1034, 9.0485997E-02
304.5855, 0.3857840
305.0676, 1.085439
305.5497, 1.215798
306.0319, 0.8750960
306.5140, 0.5836990
306.9961, 0.6305320
307.4782, 0.9387730
307.9603, 1.505077
308.4424, 2.582628
308.9246, 3.429010
309.4067, 3.220305
309.8888, 2.269404
310.3709, 1.463501
310.8530, 1.262567
311.3351, 1.432490
311.8173, 1.870700
312.2994, 2.712943
312.7815, 3.360352
313.2636, 3.184567
313.7457, 2.580949
314.2278, 2.258037
314.7100, 2.851068
315.1921, 3.537125
315.6742, 3.853654
316.1563, 3.742028
316.6384, 3.335085
317.1205, 2.194824
317.6027, 0.9365860
318.0848, 0.2637410
318.5669, 0.7805660
319.0490, 1.519747
319.5311, 2.220898
320.0132, 2.874154
320.4954, 3.256120
320.9775, 3.077582
321.4596, 2.707031
321.9417, 2.458760
322.4238, 2.453186
322.9059, 2.516677
323.3881, 2.594170
323.8702, 2.682109
324.3523, 2.870107
324.8344, 3.694068
325.3165, 4.256019
325.7986, 4.041331
326.2808, 1.501641
326.7629, 3.9191999E-02
327.2450, 9.5003001E-02
327.7271, 1.500979
328.2092, 2.633897
328.6913, 3.671008
329.1735, 4.249077
329.6556, 4.152590
330.1377, 2.664599
330.6198, 1.877638
331.1019, 2.146060
331.5840, 3.010345
332.0662, 3.632458
332.5483, 4.042593
333.0304, 4.155148
333.5125, 3.809411
333.9946, 2.805620
334.4767, 2.432676
334.9589, 3.033258
335.4410, 3.932889
335.9231, 4.201870
336.4052, 3.494795
336.8873, 3.084692
337.3694, 3.446239
337.8516, 4.501989
338.3336, 4.910605
338.8158, 4.500132
339.2979, 3.796715
339.7800, 3.148358
340.2621, 2.504810
340.7442, 2.345918
341.2263, 2.906743
341.7085, 3.936281
342.1906, 4.603760
342.6727, 4.899783
343.1548, 4.930491
343.6369, 4.662673
344.1190, 4.122773
344.6012, 3.691699
345.0833, 3.395054
345.5654, 3.258639
346.0475, 3.471488
346.5296, 4.001152
347.0117, 4.329043
347.4939, 3.927500
347.9760, 3.108706
348.4581, 2.999124
348.9402, 3.776028
349.4223, 4.550464
349.9044, 4.143913
350.3866, 2.857492
350.8687, 1.720713
351.3508, 1.102931
351.8329, 0.9001650
352.3150, 1.165717
352.7971, 1.879730
353.2793, 2.326016
353.7614, 1.721397
354.2435, 0.5351760
354.7256, 0.3027190
355.2077, 0.5683140
355.6898, 0.5166420
356.1720, 0.2340820
356.6541, 0.2230420
357.1362, 0.6100680
357.6183, 0.7017020
358.1004, 0.7089940
358.5826, 0.7815860
359.0647, 0.8718310
359.5468, 1.224096
360.0289, 2.439479
360.5110, 3.981352
360.9931, 4.830270
361.4753, 3.708741
361.9574, 2.478132
362.4395, 2.330924
362.9216, 3.583750
363.4037, 4.296527
363.8858, 3.324590
364.3680, 1.757904
364.8501, 0.7402830
365.3322, 0.8862180
365.8143, 1.231336
366.2964, 1.742989
366.7785, 2.399953
367.2607, 2.585404
367.7428, 1.744152
368.2249, 0.7491470
368.7070, 0.1253930
369.1891, 6.6357002E-02
369.6712, 0.1323910
370.1534, 0.2819250
370.6355, 0.5645260
371.1176, 1.115834
371.5997, 2.367453
372.0818, 3.278543
372.5639, 3.338041
373.0461, 2.129021
373.5282, 1.495166
374.0103, 1.706310
374.4924, 2.192297
374.9745, 1.975348
375.4566, 0.7060830
375.9388, 8.9666001E-02
376.4209, 0.2509500
376.9030, 1.625579
377.3851, 2.186303
377.8672, 1.753017
378.3493, 1.105896
378.8315, 1.052152
379.3136, 1.604605
379.7957, 1.966886
380.2778, 1.910256
380.7599, 1.660337
381.2420, 1.879769
381.7242, 2.564806
382.2063, 3.106915
382.6884, 2.918104
383.1705, 2.227381
383.6526, 1.857267
384.1347, 1.918688
384.6169, 2.213789
385.0990, 2.651247
385.5811, 3.155993
386.0632, 3.473526
386.5453, 3.482546
387.0274, 3.238894
387.5096, 2.641746
387.9917, 1.703099
388.4738, 0.9990460
388.9559, 1.202409
389.4380, 1.857412
389.9201, 2.377401
390.4023, 2.631663
390.8844, 2.628150
391.3665, 2.073689
391.8486, 1.177240
392.3307, 0.7283800
392.8128, 1.763785
393.2950, 2.942313
393.7771, 3.286874
394.2592, 2.320926
394.7413, 1.386637
395.2234, 0.8051890
395.7055, 0.5477160
396.1877, 0.5695930
396.6698, 1.227697
397.1519, 1.813668
397.6340, 2.077982
398.1161, 1.971957
398.5982, 1.908892
399.0804, 1.905350
399.5625, 1.960863
400.0446, 2.083517
400.5267, 2.426569
401.0088, 2.612026
401.4909, 2.577380
401.9731, 2.359149
402.4552, 2.082992
402.9373, 1.672927
403.4194, 1.328298
403.9015, 1.120910
404.3836, 1.023375
404.8658, 1.249671
405.3479, 2.008018
405.8300, 2.804641
406.3121, 2.703863
406.7942, 1.516016
407.2763, 0.7862310
407.7585, 1.222513
408.2406, 2.555922
408.7227, 3.335858
409.2048, 3.556701
409.6869, 3.274499
410.1690, 1.988717
410.6512, 6.1811998E-02
411.1333, 0.6499870
411.6154, 0.5505060
412.0975, 2.472106
412.5796, 3.404981
413.0617, 3.461158
413.5439, 3.249061
414.0260, 3.018728
414.5081, 2.769698
414.9902, 2.493505
415.4723, 2.186572
415.9544, 1.878075
416.4366, 1.492120
416.9187, 1.142963
417.4008, 1.002188
417.8829, 1.546569
418.3650, 1.962027
418.8471, 1.545297
419.3293, 0.4642090
419.8114, 0.2982700
420.2935, 0.1614830
420.7756, 0.3419880
421.2577, 0.8762600
421.7398, 1.455960
422.2220, 1.940399
422.7041, 2.457620
423.1862, 2.841505
423.6683, 2.800755
424.1504, 1.775897
424.6325, 0.8413100
425.1147, 0.3027440
425.5968, 0.1929410
426.0789, 0.1214670
426.5610, 0.1398990
427.0431, 0.1498990
427.5252, 4.4009000E-02
428.0074, 0.3142480
428.4895, 0.4478790
428.9716, 0.1917960
429.4537, 0.2863770
429.9358, 0.4038410
430.4179, 5.2204002E-02
430.9001, 0.2768840
431.3822, 0.3672650
431.8643, 0.2187600
432.3464, 0.2482980
432.8285, 1.148724
433.3106, 1.995212
433.7928, 1.960340
434.2749, 1.182713
434.7570, 0.7687780
435.2391, 1.267745
435.7212, 2.175778
436.2033, 2.533174
436.6855, 2.367626
437.1676, 1.986456
437.6497, 1.471127
438.1318, 0.9202280
438.6139, 0.4739620
439.0960, 0.1713470
439.5782, 2.0409999E-03
440.0603, 0.1335340
440.5424, 0.1168280
441.0245, 0.2075320
441.5066, 1.478099
441.9887, 2.608270
442.4709, 2.766420
442.9530, 1.975137
443.4351, 1.389285
443.9172, 1.771454
444.3993, 2.336751
444.8814, 2.498446
445.3636, 1.639684
445.8457, 1.073450
446.3278, 1.241120
446.8099, 1.828003
447.2920, 2.052881
447.7741, 1.642261
448.2563, 1.152369
448.7384, 0.6969340
449.2205, 0.2281090
449.7026, 0.1950650
450.1847, 0.8870090
450.6668, 1.651398
451.1490, 1.808565
451.6311, 1.143115
452.1132, 0.7023420
452.5953, 0.6407080
453.0774, 0.8928690
453.5595, 1.424307
454.0417, 2.295368
454.5238, 2.907348
455.0059, 2.602377
455.4880, 1.631910
455.9701, 1.599409
456.4522, 2.696926
456.9344, 3.925740
457.4165, 4.159606
457.8986, 3.652026
458.3807, 3.099929
458.8628, 2.614261
459.3449, 2.306597
459.8271, 2.506881
460.3092, 3.068046
460.7913, 3.381932
461.2734, 2.594164
461.7555, 1.657365
462.2376, 1.572820
462.7198, 2.714353
463.2019, 3.723222
463.6840, 3.813474
464.1661, 3.462154
464.6482, 3.246467
465.1303, 3.619154
465.6125, 3.827795
466.0946, 3.506193
466.5767, 2.734400
467.0588, 2.303480
467.5409, 2.322537
468.0230, 2.650481
468.5052, 3.377234
468.9873, 4.951044
469.4694, 5.510730
469.9515, 4.498570
470.4336, 2.888904
470.9157, 2.083137
471.3979, 2.314245
471.8800, 2.568061
472.3621, 2.566272
472.8442, 2.385866
473.3263, 2.492709
473.8084, 2.947443
474.2906, 3.219861
474.7727, 2.720640
475.2548, 1.647173
475.7369, 0.9384440
476.2190, 0.6913770
476.7011, 0.8048490
477.1833, 1.426591
477.6654, 2.320198
478.1475, 2.904289
478.6296, 2.785538
479.1117, 2.328700
479.5938, 1.740595
480.0760, 1.072329
480.5581, 0.6802600
481.0402, 0.9562800
481.5223, 1.474062
482.0044, 1.948526
482.4865, 2.432112
482.9687, 2.575545
483.4508, 1.775961
483.9329, 0.6877360
484.4150, 0.2606730
484.8971, 1.560203
485.3792, 2.584621
485.8614, 2.677104
486.3435, 1.930004
486.8256, 1.574834
487.3077, 1.868110
487.7898, 2.235497
488.2719, 2.355652
488.7541, 2.084605
489.2362, 1.990366
489.7183, 2.179049
490.2004, 2.445290
490.6825, 2.410945
491.1646, 2.035990
491.6468, 1.781667
492.1289, 1.871962
492.6110, 2.130542
493.0931, 1.880636
493.5752, 1.132155
494.0573, 0.6668360
494.5395, 1.633234
495.0216, 3.187628
495.5037, 3.311204
495.9858, 1.525382
496.4679, 0.3061580
496.9500, 0.2423700
497.4322, 0.8941920
497.9143, 1.738833
498.3964, 1.405886
498.8785, 0.9689290
499.3606, 1.139850
499.8427, 1.765599
500.3249, 2.114759
500.8070, 1.709217
501.2891, 1.142076
501.7712, 0.6919640
502.2533, 0.3220210
502.7354, 0.2028620
503.2176, 0.6956760
503.6997, 1.264733
504.1818, 1.317635
504.6639, 0.3590640
505.1460, 0.1737880
505.6281, 7.6355003E-02
506.1103, 0.8819110
506.5924, 1.349404
507.0745, 1.425313
507.5566, 1.352184
508.0387, 1.207297
508.5208, 0.9969570
509.0030, 0.8652950
509.4851, 0.8259220
509.9672, 0.7889500
510.4493, 0.6568980
510.9314, 0.4473790
511.4135, 0.1961980
511.8957, 0.1528410
512.3778, 0.4215130
512.8599, 0.2924720
513.3420, 0.1078430
513.8242, 0.4085950
514.3063, 0.2494360
514.7884, 3.8300999E-02
515.2705, 0.1519320
515.7526, 0.6170570
516.2347, 1.031396
516.7169, 1.203485
517.1990, 1.151369
517.6811, 0.8711730
518.1632, 0.1862900
518.6453, 0.7267830
519.1274, 0.2698420
519.6096, 0.7235560
520.0917, 1.454591
520.5738, 1.798135
521.0559, 1.950878
521.5380, 1.949600
522.0201, 1.798509
522.5023, 1.524955
522.9844, 1.052236
523.4665, 0.6737150
523.9486, 0.7343480
524.4307, 1.197860
524.9128, 1.163422
525.3950, 0.4183010
525.8771, 0.3267160
526.3592, 0.1765180
526.8413, 1.554350
527.3234, 2.435601
527.8055, 1.966496
528.2877, 1.085886
528.7698, 0.8183970
529.2519, 1.079469
529.7340, 1.496702
530.2161, 2.158366
530.6982, 2.694551
531.1804, 2.757480
531.6625, 2.219112
532.1446, 1.732057
532.6267, 1.454769
533.1088, 1.356227
533.5909, 1.411928
534.0731, 1.967473
534.5552, 2.236566
535.0373, 1.978689
535.5194, 1.428045
536.0015, 1.177407
536.4836, 1.353951
536.9658, 1.580932
537.4479, 1.762158
537.9300, 1.893896
538.4121, 1.888479
538.8942, 1.739337
539.3763, 1.477677
539.8585, 0.9988840
540.3406, 0.3821720
540.8227, 0.1159830
541.3048, 0.3033120
541.7869, 0.6930140
542.2690, 1.044545
542.7512, 1.355151
543.2333, 1.617736
543.7154, 1.826034
544.1975, 2.015867
544.6796, 2.208522
545.1617, 2.403094
545.6439, 2.455900
546.1260, 2.015717
546.6081, 1.633021
547.0902, 1.778788
547.5723, 2.762751
548.0544, 3.160355
548.5366, 1.988885
549.0187, 0.5963380
549.5008, 0.2216600
549.9829, 1.802470
550.4650, 2.663739
550.9471, 2.327028
551.4293, 1.282531
551.9114, 0.6060240
552.3935, 0.2955380
552.8756, 0.3887140
553.3577, 1.143943
553.8398, 2.313978
554.3220, 2.583904
554.8041, 1.954590
555.2862, 1.289725
555.7683, 1.273682
556.2504, 1.666794
556.7325, 2.070036
557.2147, 2.484250
557.6968, 2.609333
558.1789, 1.789418
558.6610, 0.6142990
559.1431, 3.7953999E-02
559.6252, 0.6913490
560.1074, 1.441762
560.5895, 1.578668
561.0716, 1.311545
561.5537, 1.228663
562.0358, 1.796308
562.5179, 2.277382
563.0001, 2.344591
563.4822, 1.976655
563.9643, 1.759259
564.4464, 1.700553
564.9285, 1.776640
565.4106, 2.026342
565.8928, 2.504209
566.3749, 2.802457
566.8570, 2.890927
567.3391, 2.795815
567.8212, 2.416529
568.3033, 1.814849
568.7855, 1.509401
569.2676, 1.901652
569.7497, 2.437095
570.2318, 2.058071
570.7139, 1.039394
571.1960, 0.4598510
571.6782, 1.748159
572.1603, 3.164536
572.6424, 2.941086
573.1245, 0.8335750
573.6066, 0.6894900
574.0887, 0.1650830
574.5709, 1.075727
575.0530, 2.004840
575.5351, 2.686347
576.0172, 2.727182
576.4993, 1.633327
576.9814, 0.1728190
577.4636, 0.4870980
577.9457, 0.1482910
578.4278, 0.4196000
578.9099, 1.200675
579.3920, 2.016139
579.8741, 1.998669
580.3563, 1.079228
580.8384, 0.2596970
581.3205, 0.2634800
581.8026, 0.8225080
582.2847, 1.148015
582.7668, 1.213333
583.2490, 1.286736
583.7311, 1.616327
584.2132, 2.094013
584.6953, 2.501817
585.1774, 2.827354
585.6595, 3.009946
586.1416, 3.070202
586.6237, 2.992323
587.1058, 2.754494
587.5880, 1.999556
588.0701, 1.469966
588.5522, 1.447324
589.0343, 1.818715
589.5164, 2.099387
589.9985, 2.353466
590.4807, 2.398989
590.9628, 2.038101
591.4449, 1.253520
591.9270, 1.034179
592.4091, 1.481807
592.8912, 2.058281
593.3734, 2.262229
593.8555, 2.169447
594.3376, 2.139032
594.8197, 2.233140
595.3018, 2.345642
595.7839, 2.374210
596.2661, 2.335281
596.7482, 2.259038
597.2303, 2.107903
597.7124, 1.973024
598.1945, 1.963159
598.6766, 2.016362
599.1588, 1.962857
599.6409, 1.764140
600.1230, 1.435159
600.6051, 0.8001000
601.0872, 0.1886850
601.5693, 0.4720660
602.0515, 0.3905680
602.5336, 1.366279
603.0157, 1.788339
603.4978, 1.494334
603.9799, 1.494548
604.4620, 1.916992
604.9442, 2.415448
605.4263, 2.552029
605.9084, 2.362878
606.3905, 2.012440
606.8726, 1.429732
607.3547, 0.9125950
607.8369, 0.8676800
608.3190, 1.183389
608.8011, 1.577550
609.2832, 2.171710
609.7653, 2.579070
610.2474, 2.440920
610.7296, 1.826847
611.2117, 1.310025
611.6938, 0.9314000
612.1759, 0.7821410
612.6580, 1.007663
613.1401, 1.786596
613.6223, 2.116828
614.1044, 1.792723
614.5865, 1.294996
615.0686, 1.010613
615.5507, 0.9454960
616.0328, 1.118733
616.5150, 1.655997
616.9971, 2.134049
617.4792, 1.648173
617.9613, 0.4049310
618.4434, 0.2967130
618.9255, 0.2202480
619.4077, 1.169391
619.8898, 1.761507
620.3719, 2.050178
620.8540, 2.215844
621.3361, 2.332279
621.8182, 2.362467
622.3004, 2.295843
622.7825, 2.131731
623.2646, 1.837976
623.7467, 1.198877
624.2288, 0.6047970
624.7109, 0.2389190
625.1931, 0.1187720
625.6752, 0.2109200
626.1573, 0.6473660
626.6394, 1.078177
627.1215, 0.9806850
627.6036, 0.3401050
628.0858, 0.3411520
628.5679, 1.393007
629.0500, 2.567015
629.5321, 2.101391
630.0142, 0.5217560
630.4963, 0.4731840
630.9785, 0.1772360
631.4606, 1.249990
631.9427, 2.023458
632.4248, 2.473454
632.9069, 2.565308
633.3890, 1.780958
633.8712, 1.096072
634.3533, 1.028970
634.8354, 1.654447
635.3175, 2.080216
635.7996, 2.250284
636.2817, 2.351466
636.7639, 2.521177
637.2460, 2.837386
637.7281, 2.746500
638.2102, 2.125800
638.6923, 1.445018
639.1744, 1.282300
639.6566, 1.550790
640.1387, 1.752973
640.6208, 1.825939
641.1029, 1.710553
641.5850, 0.9808960
642.0671, 4.3221001E-02
642.5493, 0.3030460
643.0314, 0.9856390
643.5135, 2.281095
643.9956, 2.575163
644.4777, 2.156277
644.9598, 1.868129
645.4420, 2.034599
645.9241, 2.224099
646.4062, 2.352512
646.8883, 2.415228
647.3704, 2.239315
647.8525, 1.690120
648.3347, 1.272257
648.8168, 1.439676
649.2989, 2.149958
649.7810, 2.097357
650.2631, 1.176560
650.7452, 0.3401970
651.2274, 0.7847030
651.7095, 1.948226
652.1916, 2.647565
652.6737, 2.567092
653.1558, 2.340864
653.6379, 2.418854
654.1201, 2.633410
654.6022, 2.763716
655.0843, 2.820928
655.5664, 2.699677
656.0485, 2.264742
656.5306, 1.643965
657.0128, 1.108517
657.4949, 0.6053760
657.9770, 0.3057640
658.4591, 0.3477390
658.9412, 0.6020050
659.4233, 0.4674560
659.9055, 5.3139001E-02
660.3876, 0.4526780
660.8697, 0.4441930
661.3518, 0.1002600
661.8339, 0.5295640
662.3160, 1.417601
662.7982, 2.166013
663.2803, 2.460095
663.7624, 2.497020
664.2445, 2.465237
664.7266, 2.401788
665.2087, 2.198574
665.6909, 1.597552
666.1730, 0.9727700
666.6551, 0.6484440
667.1372, 0.8131150
667.6193, 0.9691260
668.1014, 1.166397
668.5836, 1.299994
669.0657, 1.165939
669.5478, 0.7324140
670.0299, 0.4252620
670.5120, 0.3487600
670.9941, 0.4094210
671.4763, 0.4608330
671.9584, 0.5098440
672.4405, 0.5843310
672.9226, 0.8498450
673.4047, 1.021270
673.8868, 0.6014410
674.3690, 0.1758670
674.8511, 0.4945110
675.3332, 0.5519940
675.8153, 1.574579
676.2974, 1.893980
676.7795, 1.501639
677.2617, 1.283169
677.7438, 1.374898
678.2259, 1.427560
678.7080, 1.152149
679.1901, 0.4832140
679.6722, 0.5257520
680.1544, 1.400269
680.6365, 2.279183
681.1186, 2.179853
681.6007, 1.508168
682.0828, 1.397656
682.5649, 2.106551
683.0471, 2.804873
683.5292, 2.664806
684.0113, 2.166992
684.4934, 1.897068
684.9755, 2.221384
685.4576, 2.455307
685.9398, 2.447447
686.4219, 2.236709
686.9040, 1.864500
687.3861, 1.050077
687.8682, 0.6732060
688.3503, 1.000014
688.8325, 1.763047
689.3146, 2.028831
689.7967, 1.789263
690.2788, 1.604579
690.7609, 1.723120
691.2430, 2.020824
691.7252, 2.382778
692.2073, 2.761785
692.6894, 2.928689
693.1715, 2.594751
693.6536, 2.131513
694.1357, 1.868507
694.6179, 1.824801
695.1000, 1.747261
695.5821, 1.432186
696.0642, 1.201610
696.5463, 1.244821
697.0284, 1.630249
697.5106, 1.816727
697.9927, 1.744681
698.4748, 1.612986
698.9569, 1.683230
699.4390, 1.893606
699.9211, 1.554481
700.4033, 0.5099310
700.8854, 0.3491770
701.3675, 2.4297999E-02
701.8496, 1.076133
702.3317, 2.005850
702.8138, 2.749556
703.2960, 3.000823
703.7781, 2.241722
704.2602, 1.051519
704.7423, 0.1394640
705.2244, 0.4180910
705.7065, 0.6168840
706.1887, 0.3841550
706.6708, 0.1650510
707.1529, 0.9621840
707.6350, 2.125611
708.1171, 2.783418
708.5992, 2.569752
709.0814, 1.890844
709.5635, 1.563943
710.0456, 1.529757
710.5277, 1.511333
711.0098, 1.326181
711.4919, 1.131786
711.9741, 1.083846
712.4562, 1.151242
712.9383, 1.204831
713.4204, 1.282703
713.9025, 1.256586
714.3846, 0.8846220
714.8668, 0.2062870
715.3489, 0.2225240
715.8310, 1.303858
716.3131, 2.357176
716.7952, 2.845841
717.2773, 2.804713
717.7595, 2.778827
718.2416, 2.751518
718.7237, 2.666166
719.2058, 2.425838
719.6879, 2.112643
720.1700, 1.819120
720.6522, 1.547856
721.1343, 1.470109
721.6164, 2.083028
722.0985, 2.678181
722.5806, 2.671724
723.0627, 1.456475
723.5449, 0.6011960
724.0270, 0.2568500
724.5091, 0.2943690
724.9912, 0.7428290
725.4733, 1.776959
725.9554, 2.105626
726.4376, 1.449946
726.9197, 0.5799370
727.4018, 0.6890340
727.8839, 1.467950
728.3660, 1.909372
728.8481, 1.636850
729.3303, 1.244244
729.8124, 1.259003
730.2945, 1.482958
730.7766, 1.613685
731.2587, 1.304691
731.7408, 1.195298
732.2230, 1.762574
732.7051, 2.518549
733.1872, 2.537582
733.6693, 1.453973
734.1514, 0.5683270
734.6335, 0.2108790
735.1157, 0.2145520
735.5978, 9.7524002E-02
736.0799, 9.6680000E-02
736.5620, 1.0924000E-02
737.0441, 0.9670860
737.5262, 2.016398
738.0084, 2.233014
738.4905, 1.798107
738.9726, 1.328416
739.4547, 0.7734190
739.9368, 0.5453030
740.4189, 1.162872
740.9011, 2.523925
741.3832, 2.904279
741.8653, 1.760299
742.3474, 0.6194440
742.8295, 0.1019180
743.3116, 0.1450560
743.7938, 0.2825230
744.2759, 0.5125400
744.7580, 0.8964130
745.2401, 1.747759
745.7222, 2.655404
746.2043, 2.871382
746.6865, 2.401464
747.1686, 1.972259
747.6507, 2.066962
748.1328, 2.276654
748.6149, 2.417468
749.0970, 2.479694
749.5792, 2.083528
750.0613, 0.5916590
750.5434, 0.5613320
751.0255, 0.1831200
751.5076, 1.943805
751.9897, 2.902504
752.4719, 2.537900
752.9540, 1.749689
753.4361, 1.196442
753.9182, 0.8213860
754.4003, 0.6593800
754.8824, 0.7322960
755.3646, 0.9028010
755.8467, 0.9877630
756.3288, 1.180946
756.8109, 1.716887
757.2930, 3.081889
757.7751, 3.856968
758.2573, 3.884567
758.7394, 3.377417
759.2215, 2.400060
759.7036, 0.7423030
760.1857, 4.8921999E-02
760.6678, 0.2876260
761.1500, 1.103751
761.6321, 1.851999
762.1142, 2.415945
762.5963, 2.403829
763.0784, 1.442295
763.5605, 0.5938870
764.0427, 0.8527720
764.5248, 1.607812
765.0069, 2.056409
765.4890, 1.542897
765.9711, 1.406884
766.4532, 2.036664
766.9354, 2.810530
767.4175, 2.660507
767.8996, 1.385872
768.3817, 0.4524680
768.8638, 0.1325780
769.3459, 0.1965950
769.8281, 0.3027430
770.3102, 0.4976170
770.7923, 0.9838930
771.2744, 2.273882
771.7565, 3.174725
772.2386, 2.333698
772.7208, 0.6602780
773.2029, 0.2622150
773.6850, 0.5489380
774.1671, 1.400973
774.6492, 2.301176
775.1313, 2.983711
775.6135, 2.674717
776.0956, 1.179285
776.5777, 0.1178190
777.0598, 4.3983001E-02
777.5419, 0.4063010
778.0240, 1.434604
778.5062, 2.697560
778.9883, 3.112804
779.4704, 1.110918
779.9525, 0.7924500
780.4346, 0.6929370
780.9167, 0.6748990
781.3989, 1.486395
781.8810, 0.7807560
782.3631, 0.2159070
782.8452, 9.8494999E-02
783.3273, 0.3428610
783.8094, 0.5372370
784.2916, 0.6982860
784.7737, 1.031181
785.2558, 1.754166
785.7379, 2.537903
786.2200, 2.685978
786.7021, 2.347985
787.1843, 2.023874
787.6664, 1.973441
788.1485, 1.982389
788.6306, 1.872551
789.1127, 1.712356
789.5948, 1.792269
790.0770, 2.579082
790.5591, 2.935341
791.0412, 2.425466
791.5233, 1.347982
792.0054, 0.7350930
792.4875, 0.5957420
792.9697, 0.7380250
793.4518, 1.229745
793.9339, 1.817257
794.4160, 2.080482
794.8981, 2.096811
795.3802, 2.142826
795.8624, 2.549716
796.3445, 2.818911
796.8266, 2.621638
797.3087, 2.050140
797.7908, 1.602850
798.2729, 1.292299
798.7551, 1.109479
799.2372, 1.064890
799.7193, 1.136773
800.2014, 1.330215
800.6835, 1.623612
801.1656, 1.708395
801.6478, 1.128714
802.1299, 0.4852110
802.6120, 0.6150870
803.0941, 1.293766
803.5762, 1.806718
804.0583, 1.927352
804.5405, 1.761262
805.0226, 1.069006
805.5047, 7.8442998E-02
805.9868, 0.2809400
806.4689, 0.1691790
806.9510, 0.7151360
807.4332, 1.139962
807.9153, 1.476276
808.3974, 1.925351
808.8795, 2.452827
809.3616, 2.509653
809.8438, 1.169030
810.3259, 0.2331030
810.8080, 0.5710590
811.2901, 2.7765000E-02
811.7722, 0.6547770
812.2543, 1.980280
812.7365, 2.791157
813.2186, 2.543957
813.7007, 1.617380
814.1828, 1.490399
814.6649, 2.287996
815.1470, 2.868862
815.6292, 2.665660
816.1113, 2.145129
816.5934, 2.271931
817.0755, 2.849499
817.5576, 3.223148
818.0397, 2.741557
818.5219, 2.310562
819.0040, 2.654531
819.4861, 3.436100
819.9682, 3.485486
820.4503, 2.100531
820.9324, 1.154363
821.4146, 1.250236
821.8967, 1.880757
822.3788, 1.476838
822.8609, 0.1461460
823.3430, 0.4242840
823.8251, 0.8474780
824.3073, 2.547863
824.7894, 3.061469
825.2715, 2.702402
825.7536, 2.178869
826.2357, 1.320325
826.7178, 0.8273090
827.2000, 1.296306
827.6821, 2.165581
828.1642, 2.312449
828.6463, 1.435536
829.1284, 0.9490990
829.6105, 1.238375
830.0927, 1.883451
830.5748, 2.117249
831.0569, 2.036710
831.5390, 2.084290
832.0211, 2.496858
832.5032, 2.874589
832.9854, 2.924041
833.4675, 2.757577
833.9496, 2.542119
834.4317, 2.035114
834.9138, 1.891608
835.3959, 2.362674
835.8781, 3.025381
836.3602, 3.243019
836.8423, 3.013197
837.3244, 2.634276
837.8065, 2.064764
838.2886, 1.534847
838.7708, 1.395327
839.2529, 1.395032
839.7350, 1.114816
840.2171, 1.1242000E-02
840.6992, 0.5002200
841.1813, 0.8912480
841.6635, 2.718523
842.1456, 3.409246
842.6277, 2.463607
843.1098, 1.871788
843.5919, 1.730532
844.0740, 1.977293
844.5562, 3.007850
845.0383, 4.359679
845.5204, 4.451307
846.0025, 2.784274
846.4846, 1.122615
846.9667, 0.7244490
847.4489, 0.9698950
847.9310, 1.318754
848.4131, 1.753763
848.8952, 2.133280
849.3773, 2.514557
849.8594, 2.759192
850.3416, 2.698492
850.8237, 2.342810
851.3058, 2.106235
851.7879, 2.001451
852.2700, 2.020316
852.7521, 2.328123
853.2343, 2.656052
853.7164, 2.619204
854.1985, 2.165384
854.6806, 1.803676
855.1627, 1.670133
855.6448, 1.713211
856.1270, 1.941518
856.6091, 2.361775
857.0912, 2.721509
857.5733, 3.055372
858.0554, 3.118267
858.5375, 2.488161
859.0197, 1.555357
859.5018, 1.283437
859.9839, 1.572523
860.4660, 1.765653
860.9481, 1.391052
861.4302, 0.9258040
861.9124, 0.5909070
862.3945, 0.3544750
862.8766, 0.3554410
863.3587, 0.7032930
863.8408, 1.058239
864.3229, 1.345191
864.8051, 1.579601
865.2872, 1.918768
865.7693, 2.322263
866.2514, 2.537755
866.7335, 2.530835
867.2156, 2.226255
867.6978, 0.9801220
868.1799, 0.6104500
868.6620, 1.228146
869.1441, 0.8456440
869.6262, 2.146508
870.1083, 1.927618
870.5905, 0.9223160
871.0726, 0.5313230
871.5547, 0.7396500
872.0368, 1.299230
872.5189, 2.313915
873.0010, 3.199199
873.4832, 3.125731
873.9653, 2.509802
874.4474, 2.033198
874.9295, 1.956201
875.4116, 1.908631
875.8937, 1.706075
876.3759, 1.563883
876.8580, 1.773290
877.3401, 2.470159
877.8222, 2.653359
878.3043, 2.117554
878.7864, 1.592678
879.2686, 2.156881
879.7507, 3.179423
880.2328, 3.386142
880.7149, 2.506898
881.1970, 1.732062
881.6791, 1.648055
882.1613, 1.900631
882.6434, 2.391660
883.1255, 3.238762
883.6076, 3.232344
884.0897, 2.109050
884.5718, 0.9833070
885.0540, 0.6054180
885.5361, 0.8159780
886.0182, 1.212323
886.5003, 1.777069
886.9824, 2.295707
887.4645, 2.730773
887.9467, 2.988655
888.4288, 2.963679
888.9109, 2.667315
889.3930, 2.273350
889.8751, 1.592036
890.3572, 1.270712
890.8394, 1.659437
891.3215, 2.437360
891.8036, 2.612795
892.2857, 2.303353
892.7678, 2.173026
893.2499, 2.836506
893.7321, 3.393679
894.2142, 3.024352
894.6963, 2.098952
895.1784, 1.329248
895.6605, 0.6358040
896.1426, 0.4589840
896.6248, 1.047706
897.1069, 1.920793
897.5890, 2.459445
898.0711, 2.657126
898.5532, 2.238536
899.0353, 1.069814
899.5175, 4.7552001E-02
899.9996, 0.2510290
900.4817, 0.9944300
900.9638, 1.508642
901.4459, 1.705453
901.9280, 1.484106
902.4102, 0.2929580
902.8923, 0.6475840
903.3744, 0.2603500
903.8565, 1.497584
904.3386, 2.395011
904.8207, 2.425619
905.3029, 2.175946
905.7850, 1.964142
906.2671, 1.800487
906.7492, 1.663275
907.2313, 1.550386
907.7134, 1.448614
908.1956, 1.239057
908.6777, 1.184446
909.1598, 1.459673
909.6419, 1.956205
910.1240, 2.099960
910.6061, 1.885606
911.0883, 1.639287
911.5704, 1.387265
912.0525, 1.314610
912.5346, 2.050998
913.0167, 3.111230
913.4988, 3.442683
913.9810, 1.545389
914.4631, 0.3258940
914.9452, 0.6606840
915.4273, 1.761593
915.9094, 2.611720
916.3915, 3.206151
916.8737, 3.568884
917.3558, 3.741549
917.8379, 3.504006
918.3200, 2.089507
918.8021, 0.3108970
919.2842, 0.5668300
919.7664, 0.1244390
920.2485, 0.4026260
920.7306, 0.5394780
921.2127, 0.7456530
921.6948, 1.454789
922.1769, 2.765061
922.6591, 2.950956
923.1412, 1.911072
923.6233, 0.7483940
924.1054, 4.1126002E-02
924.5875, 0.3329050
925.0696, 0.4589030
925.5518, 2.061891
926.0339, 2.966904
926.5160, 1.868183
926.9981, 0.8952610
927.4802, 0.6467470
927.9623, 0.9340810
928.4445, 1.220840
928.9266, 1.511727
929.4087, 1.750611
929.8908, 1.912215
930.3729, 2.038146
930.8550, 2.172502
931.3372, 2.316300
931.8193, 2.467793
932.3014, 2.621277
932.7835, 2.803173
933.2656, 3.421882
933.7477, 3.749521
934.2299, 2.884727
934.7120, 0.5736060
935.1941, 7.8597002E-02
935.6762, 1.246527
936.1583, 2.783352
936.6404, 2.919161
937.1226, 2.256409
937.6047, 1.314721
938.0868, 0.1582760
938.5689, 0.3501580
939.0510, 0.9014960
939.5331, 1.958747
940.0153, 1.924451
940.4974, 1.015242
940.9795, 0.8547210
941.4616, 1.456338
941.9437, 1.849338
942.4258, 1.456838
942.9080, 0.7749300
943.3901, 0.2086290
943.8722, 0.1675490
944.3543, 0.1940520
944.8364, 0.6337530
945.3185, 1.200242
945.8007, 1.219727
946.2828, 1.032546
946.7649, 1.172507
947.2470, 1.623203
947.7291, 1.679752
948.2112, 1.207156
948.6934, 0.6500350
949.1755, 0.2347300
949.6576, 7.5076997E-02
950.1397, 0.4173020
950.6218, 1.431561
951.1039, 2.030022
951.5861, 1.874835
952.0682, 1.582928
952.5503, 1.391841
953.0324, 1.315644
953.5145, 1.570888
953.9966, 2.116749
954.4788, 2.473249
954.9609, 2.260846
955.4430, 1.846797
955.9251, 1.435498
956.4072, 1.087886
956.8893, 0.9732160
957.3715, 1.331314
957.8536, 1.516445
958.3357, 1.343364
958.8178, 1.115660
959.2999, 1.454589
959.7820, 2.196581
960.2642, 2.613122
960.7463, 2.531174
961.2284, 2.110684
961.7105, 0.7648730
962.1926, 0.4781510
962.6747, 0.5365700
963.1569, 1.022578
963.6390, 2.005179
964.1211, 2.299631
964.6032, 2.302714
965.0853, 2.155217
965.5674, 1.945672
966.0496, 1.976695
966.5317, 2.192492
967.0138, 2.327017
967.4959, 2.054644
967.9780, 1.861200
968.4601, 2.104388
968.9423, 2.571919
969.4244, 2.780271
969.9065, 2.698669
970.3886, 2.487601
970.8707, 2.161655
971.3528, 1.748486
971.8350, 1.000581
972.3171, 0.2731940
972.7992, 0.3524140
973.2813, 1.632419
973.7634, 2.541863
974.2455, 2.245065
974.7277, 1.605855
975.2098, 1.016137
975.6919, 0.4775330
976.1740, 0.5644900
976.6561, 1.298216
977.1382, 2.154362
977.6204, 3.326074
978.1025, 4.213810
978.5846, 3.797580
979.0667, 2.484130
979.5488, 1.470566
980.0309, 1.094690
980.5131, 1.174462
980.9952, 1.904673
981.4773, 2.830590
981.9594, 3.157399
982.4415, 2.937022
982.9236, 2.740793
983.4058, 2.648548
983.8879, 2.548186
984.3700, 2.119410
984.8521, 1.688902
985.3342, 1.578266
985.8163, 1.921186
986.2985, 2.084393
986.7806, 1.971178
987.2627, 1.897243
987.7448, 2.144277
988.2269, 2.508825
988.7090, 2.311594
989.1912, 1.648743
989.6733, 0.9214850
990.1554, 7.9501003E-02
990.6375, 0.6513330
991.1196, 0.1399480
991.6017, 0.9221850
992.0839, 1.657670
992.5660, 2.077427
993.0481, 2.011611
993.5302, 1.335739
994.0123, 0.6714950
994.4944, 0.8699180
994.9766, 1.489242
995.4587, 1.870799
995.9408, 1.915973
996.4229, 1.861898
996.9050, 1.913118
997.3871, 1.806759
997.8693, 1.292706
998.3514, 0.5263830
998.8335, 0.6948960
999.3156, 1.724888
999.7977, 2.306152
1000.280, 1.523120
1000.762, 0.4956720
1001.244, 4.3600000E-02
1001.726, 0.1126980
1002.208, 0.6729930
1002.690, 2.647004
1003.173, 3.426284
1003.655, 2.541721
1004.137, 1.242553
1004.619, 0.8505430
1005.101, 1.110661
1005.583, 1.119047
1006.065, 0.8335530
1006.547, 0.6718530
1007.029, 1.078987
1007.512, 1.497175
1007.994, 1.566082
1008.476, 1.360263
1008.958, 1.184233
1009.440, 1.026667
1009.922, 1.006323
1010.404, 1.252759
1010.886, 1.447763
1011.369, 0.8626690
1011.851, 5.8599998E-04
1012.333, 0.2530220
1012.815, 0.6203700
1013.297, 1.417320
1013.779, 1.982521
1014.261, 2.346216
1014.743, 2.485358
1015.225, 2.412198
1015.708, 2.349355
1016.190, 2.293308
1016.672, 2.185244
1017.154, 1.818978
1017.636, 1.544092
1018.118, 1.827088
1018.600, 2.413249
1019.082, 2.440490
1019.565, 1.640026
1020.047, 0.8532320
1020.529, 0.2002880
1021.011, 0.2214740
1021.493, 0.2929820
1021.975, 0.1329010
1022.457, 2.0981001E-02
1022.939, 0.1296090
1023.421, 0.2251670
1023.904, 0.3829670
1024.386, 0.4593270
1024.868, 0.3085680
1025.350, 1.2681000E-02
1025.832, 0.1111200
1026.314, 0.6736610
1026.796, 1.129104
1027.278, 1.196884
1027.760, 1.080747
1028.243, 0.7508950
1028.725, 0.4468440
1029.207, 0.5932910
1029.689, 2.090746
1030.171, 2.601845
1030.653, 1.737411
1031.135, 0.5553910
1031.617, 5.6689002E-02
1032.100, 0.1512550
1032.582, 0.2825080
1033.064, 1.178958
1033.546, 1.823618
1034.028, 1.530539
1034.510, 1.221043
1034.992, 1.431171
1035.474, 1.941263
1035.957, 2.111393
1036.439, 1.930552
1036.921, 1.624025
1037.403, 1.207879
1037.885, 0.8086900
1038.367, 0.5393860
1038.849, 0.3888760
1039.331, 0.4047070
1039.813, 0.6994490
1040.296, 0.6424040
1040.778, 5.6715999E-02
1041.260, 0.5324770
1041.742, 8.2700001E-03
1042.224, 1.135228
1042.706, 1.542535
1043.188, 1.367616
1043.670, 1.229638
1044.152, 1.385370
1044.635, 1.685087
1045.117, 2.347021
1045.599, 2.962481
1046.081, 2.925139
1046.563, 2.112044
1047.045, 1.671885
1047.527, 1.705098
1048.009, 1.785240
1048.492, 1.370290
1048.974, 0.9427930
1049.456, 1.070491
1049.938, 1.694282
1050.420, 1.821724
1050.902, 0.9545670
1051.384, 0.4275900
1051.866, 0.6812870
1052.349, 1.269417
1052.831, 1.168108
1053.313, 0.7033510
1053.795, 0.9803190
1054.277, 2.575995
1054.759, 3.610733
1055.241, 2.523147
1055.723, 1.185224
1056.205, 0.8843070
1056.688, 1.585322
1057.170, 1.880209
1057.652, 1.768419
1058.134, 1.459911
1058.616, 0.7887590
1059.098, 0.2709080
1059.580, 0.6355640
1060.062, 1.438503
1060.544, 1.823779
1061.027, 1.344218
1061.509, 1.160935
1061.991, 1.386161
1062.473, 1.667581
1062.955, 1.576435
1063.437, 1.355619
1063.919, 1.679075
1064.401, 2.489538
1064.884, 3.025139
1065.366, 2.881583
1065.848, 2.443580
1066.330, 1.660969
1066.812, 0.8175520
1067.294, 0.6108370
1067.776, 0.9265620
1068.258, 1.455831
1068.740, 2.211313
1069.223, 2.671903
1069.705, 2.114493
1070.187, 1.296787
1070.669, 0.9682290
1071.151, 1.180015
1071.633, 1.064391
1072.115, 0.5062960
1072.597, 0.1961210
1073.079, 0.5485080
1073.562, 1.168334
1074.044, 1.495666
1074.526, 1.639392
1075.008, 1.885820
1075.490, 2.305571
1075.972, 2.467811
1076.454, 2.220514
1076.936, 1.926337
1077.419, 1.883585
1077.901, 2.040744
1078.383, 2.212444
1078.865, 2.365361
1079.347, 2.366862
1079.829, 2.077693
1080.311, 1.714893
1080.793, 1.235015
1081.275, 0.7961520
1081.758, 0.7413450
1082.240, 1.107201
1082.722, 1.589099
1083.204, 2.167736
1083.686, 2.518968
1084.168, 2.038999
1084.650, 1.420351
1085.132, 1.498668
1085.615, 2.258478
1086.097, 2.160699
1086.579, 0.7715040
1087.061, 0.2421610
1087.543, 0.3881110
1088.025, 4.3187000E-02
1088.507, 0.9843990
1088.989, 2.058592
1089.471, 2.540349
1089.953, 2.124893
1090.436, 1.638944
1090.918, 0.9476760
1091.400, 0.6450790
1091.882, 1.196169
1092.364, 2.362844
1092.846, 3.197511
1093.328, 3.675511
1093.810, 3.693395
1094.293, 2.669988
1094.775, 1.905257
1095.257, 2.421304
1095.739, 3.230817
1096.221, 3.269931
1096.703, 2.455193
1097.185, 1.373398
1097.667, 7.6040002E-03
1098.150, 0.7884950
1098.632, 4.0254001E-02
1099.114, 1.231700
1099.596, 1.824698
1100.078, 1.910939
1100.560, 2.006039
1101.042, 2.210324
1101.524, 2.210003
1102.006, 1.914572
1102.489, 1.578025
1102.971, 1.466412
1103.453, 1.508854
1103.935, 1.687724
1104.417, 1.986534
1104.899, 2.010756
1105.381, 1.430966
1105.863, 0.8895030
1106.345, 0.4610920
1106.828, 0.2794640
1107.310, 0.9317720
1107.792, 2.076566
1108.274, 2.624187
1108.756, 2.250613
1109.238, 1.635394
1109.720, 0.6315260
1110.202, 1.8529000E-02
1110.685, 0.2469370
1111.167, 1.257649
1111.649, 1.685747
1112.131, 1.583489
1112.613, 1.486000
1113.095, 1.670937
1113.577, 1.842728
1114.059, 1.660881
1114.542, 1.425439
1115.024, 1.515376
1115.506, 2.027959
1115.988, 2.476869
1116.470, 2.910310
1116.952, 2.996083
1117.434, 2.112195
1117.916, 0.9860290
1118.398, 0.2657340
1118.880, 8.4686004E-02
1119.363, 0.1461760
1119.845, 0.1476910
1120.327, 0.5958050
1120.809, 1.292286
1121.291, 1.794999
1121.773, 1.384064
1122.255, 0.6029760
1122.737, 0.5746920
1123.220, 1.197734
1123.702, 1.420092
1124.184, 7.7748001E-02
1124.666, 0.5130570
1125.148, 0.3452620
1125.630, 1.703581
1126.112, 1.985590
1126.594, 1.507828
1127.077, 1.192909
1127.559, 1.169058
1128.041, 1.336216
1128.523, 1.932329
1129.005, 2.378737
1129.487, 2.367064
1129.969, 2.060073
1130.451, 2.110579
1130.933, 2.411979
1131.416, 1.973389
1131.898, 0.2283150
1132.380, 1.038619
1132.862, 9.8280003E-03
1133.344, 1.480042
1133.826, 1.883123
1134.308, 1.255218
1134.790, 1.169601
1135.272, 1.641350
1135.755, 2.029404
1136.237, 2.131115
1136.719, 1.945040
1137.201, 1.181185
1137.683, 0.2738880
1138.165, 0.1630940
1138.647, 3.4559000E-02
1139.129, 2.2169000E-02
1139.612, 0.2769410
1140.094, 0.2807320
1140.576, 0.5819540
1141.058, 1.769805
1141.540, 2.948679
1142.022, 3.861133
1142.504, 3.923610
1142.986, 2.217841
1143.469, 1.255994
1143.951, 1.201087
1144.433, 1.551162
1144.915, 2.120084
1145.397, 2.653566
1145.879, 2.507092
1146.361, 1.855845
1146.843, 1.559724
1147.325, 2.505409
1147.807, 2.859722
1148.290, 2.099622
1148.772, 1.237908
1149.254, 1.937146
1149.736, 3.423024
1150.218, 3.421066
1150.700, 1.916381
1151.182, 0.8492510
1151.664, 1.577114
1152.147, 2.217505
1152.629, 2.213194
1153.111, 1.859811
1153.593, 1.751372
1154.075, 1.778769
1154.557, 1.309933
1155.039, 0.1971410
1155.521, 0.3913080
1156.004, 0.9312330
1156.486, 2.116875
1156.968, 2.011183
1157.450, 1.036267
1157.932, 0.4186490
1158.414, 0.1406130
1158.896, 9.5337003E-02
1159.378, 0.2771150
1159.860, 0.5840160
1160.343, 1.090222
1160.825, 1.570401
1161.307, 1.896408
1161.789, 2.067361
1162.271, 1.975100
1162.753, 1.638685
1163.235, 1.551183
1163.717, 2.055998
1164.199, 2.439010
1164.682, 1.888340
1165.164, 1.085397
1165.646, 0.7223440
1166.128, 0.8339810
1166.610, 0.9024470
1167.092, 0.9261960
1167.574, 0.9332580
1168.056, 0.9187510
1168.539, 0.9183440
1169.021, 0.9197260
1169.503, 0.9623290
1169.985, 1.111735
1170.467, 1.380346
1170.949, 1.728593
1171.431, 2.183233
1171.913, 2.453986
1172.396, 2.394988
1172.878, 2.019159
1173.360, 0.9329960
1173.842, 0.3550690
1174.324, 0.8193560
1174.806, 0.1491360
1175.288, 0.7703120
1175.770, 2.042745
1176.252, 2.898442
1176.734, 2.328897
1177.217, 1.286215
1177.699, 0.7768300
1178.181, 0.7782400
1178.663, 1.306729
1179.145, 2.952611
1179.627, 3.516766
1180.109, 2.625619
1180.591, 1.519769
1181.074, 1.488706
1181.556, 1.922690
1182.038, 1.906937
1182.520, 1.506617
1183.002, 1.510201
1183.484, 2.353173
1183.966, 2.734703
1184.448, 2.381341
1184.931, 1.889464
1185.413, 2.147775
1185.895, 2.609814
1186.377, 2.186756
1186.859, 0.9646660
1187.341, 0.3004240
1187.823, 0.8022320
1188.305, 1.111622
1188.787, 0.8671160
1189.270, 0.6154230
1189.752, 1.223576
1190.234, 2.229664
1190.716, 3.286934
1191.198, 4.255264
1191.680, 4.501779
1192.162, 3.604646
1192.644, 2.474109
1193.126, 1.099681
1193.609, 3.0975999E-02
1194.091, 0.6371060
1194.573, 2.022205
1195.055, 2.427103
1195.537, 1.540497
1196.019, 0.8678070
1196.501, 0.9055620
1196.983, 0.9424950
1197.466, 0.7301510
1197.948, 0.4461750
1198.430, 0.4350670
1198.912, 0.5602590
1199.394, 0.5286160
1199.876, 0.2273480
1200.358, 0.2628420
1200.840, 0.9113610
1201.323, 1.670467
1201.805, 2.551192
1202.287, 3.170324
1202.769, 2.160063
1203.251, 0.4323460
1203.733, 3.0991999E-02
1204.215, 1.888539
1204.697, 2.863168
1205.179, 2.016521
1205.661, 1.024432
1206.144, 0.5589470
1206.626, 0.4864140
1207.108, 0.5777990
1207.590, 0.8200470
1208.072, 1.217072
1208.554, 1.843457
1209.036, 2.354245
1209.518, 2.704643
1210.001, 2.933734
1210.483, 3.066340
1210.965, 3.080566
1211.447, 2.856493
1211.929, 2.483642
1212.411, 2.153948
1212.893, 1.851385
1213.375, 1.727185
1213.858, 2.075838
1214.340, 2.226669
1214.822, 1.659689
1215.304, 0.7609630
1215.786, 0.2993170
1216.268, 0.2699440
1216.750, 0.7415500
1217.232, 2.245978
1217.714, 3.105898
1218.197, 3.120191
1218.679, 2.687781
1219.161, 1.778468
1219.643, 0.8022090
1220.125, 0.8255130
1220.607, 1.444767
1221.089, 1.701001
1221.571, 0.7433330
1222.053, 0.5781390
1222.536, 1.599846
1223.018, 2.622434
1223.500, 2.910811
1223.982, 2.630208
1224.464, 1.744106
1224.946, 0.5911970
1225.428, 6.0247999E-02
1225.910, 4.2114999E-02
1226.393, 0.8202270
1226.875, 2.580761
1227.357, 4.047386
1227.839, 4.129076
1228.321, 3.412007
1228.803, 2.654795
1229.285, 1.913932
1229.767, 1.306975
1230.250, 0.6487760
1230.732, 0.6982330
1231.214, 1.682344
1231.696, 2.513231
1232.178, 2.009837
1232.660, 1.172017
1233.142, 1.503417
1233.624, 2.431343
1234.106, 2.530030
1234.589, 1.024484
1235.071, 0.2464260
1235.553, 0.3127120
1236.035, 0.7677300
1236.517, 1.533119
1236.999, 2.272397
1237.481, 2.574654
1237.963, 2.545264
1238.445, 2.434587
1238.928, 2.343507
1239.410, 1.899371
1239.892, 1.048708
1240.374, 0.5006520
1240.856, 1.199283
1241.338, 2.067737
1241.820, 1.935461
1242.302, 1.304009
1242.785, 1.304061
1243.267, 2.180098
1243.749, 2.491302
1244.231, 2.156842
1244.713, 1.900133
1245.195, 2.670605
1245.677, 3.292220
1246.159, 2.538921
1246.641, 1.156278
1247.124, 0.4821400
1247.606, 0.5561830
1248.088, 1.017046
1248.570, 1.835056
1249.052, 2.448189
1249.534, 2.379186
1250.016, 2.105558
1250.498, 1.844849
1250.980, 1.590812
1251.463, 1.297946
1251.945, 0.9694700
1252.427, 0.7764870
1252.909, 0.7264160
1253.391, 0.8344190
1253.873, 1.176491
1254.355, 1.605717
1254.837, 2.237272
1255.320, 2.769671
1255.802, 2.843635
1256.284, 2.503070
1256.766, 1.743964
1257.248, 0.7042040
1257.730, 0.2969930
1258.212, 1.786938
1258.694, 2.915918
1259.177, 3.180798
1259.659, 2.781142
1260.141, 1.323345
1260.623, 0.5592950
1261.105, 0.2340390
1261.587, 1.858356
1262.069, 3.262573
1262.551, 2.353054
1263.033, 1.485403
1263.516, 0.8293250
1263.998, 0.5830080
1264.480, 1.333811
1264.962, 2.454882
1265.444, 2.474108
1265.926, 1.669370
1266.408, 1.194615
1266.890, 1.647584
1267.372, 1.926009
1267.855, 1.992442
1268.337, 1.803431
1268.819, 1.082479
1269.301, 0.2487930
1269.783, 0.3330810
1270.265, 0.5202770
1270.747, 0.2207230
1271.229, 2.581300
1271.712, 3.495238
1272.194, 2.676353
1272.676, 1.586782
1273.158, 1.279448
1273.640, 1.295596
1274.122, 1.209871
1274.604, 1.142511
1275.086, 1.414238
1275.568, 2.179640
1276.051, 2.062656
1276.533, 1.017703
1277.015, 0.3890660
1277.497, 1.488800
1277.979, 2.794964
1278.461, 3.700742
1278.943, 4.043226
1279.425, 3.492905
1279.907, 2.068424
1280.390, 1.092262
1280.872, 0.5719550
1281.354, 0.3834000
1281.836, 0.7967880
1282.318, 0.9997890
1282.800, 0.5782380
1283.282, 0.2687030
1283.764, 0.9307850
1284.247, 2.269444
1284.729, 2.755476
1285.211, 2.541320
1285.693, 2.216838
1286.175, 1.704528
1286.657, 1.668502
1287.139, 2.329416
1287.621, 2.921126
1288.104, 2.001027
1288.586, 0.4750460
1289.068, 0.4548350
1289.550, 1.340165
1290.032, 1.724071
1290.514, 0.6603750
1290.996, 0.2262790
1291.478, 0.5057790
1291.960, 1.081528
1292.443, 1.961182
1292.925, 2.708457
1293.407, 2.579393
1293.889, 2.034050
1294.371, 1.943972
1294.853, 2.570079
1295.335, 2.127661
1295.817, 0.5820100
1296.299, 0.3371190
1296.782, 0.5818630
1297.264, 1.933239
1297.746, 3.029478
1298.228, 3.721427
1298.710, 3.742029
1299.192, 3.164617
1299.674, 3.468777
1300.156, 3.971452
1300.639, 4.348167
1301.121, 3.499062
1301.603, 2.386314
1302.085, 1.013671
1302.567, 0.1126940
1303.049, 4.2619999E-03
1303.531, 0.0000000E+00
##END=



