##NAMES=Arisite-(La)
##RRUFFID=R120051
##IDEAL CHEMISTRY=NaLa_2_(CO_3_)_2_[(CO_3_)_1-x_F_2x_]F
##LOCALITY=Aris quarry, near Windhoek, Namibia
##OWNER=RRUFF
##SOURCE=William W. Pinch
##DESCRIPTION=Pale pink hexagonal tabular crystal, associated with tuperssuatsiaite, and transparent platy polylithionite
##STATUS=The identification of this mineral has been confirmed only by single crystal X-ray diffraction.
##URL=rruff.info/R120051
94.01410, 9406.979
94.49622, 9523.544
94.97833, 9585.402
95.46045, 9606.013
95.94257, 9584.505
96.42468, 9571.046
96.90680, 9586.037
97.38892, 9599.913
97.87103, 9601.942
98.35315, 9582.262
98.83527, 9545.350
99.31738, 9523.181
99.79950, 9523.263
100.2816, 9526.088
100.7637, 9523.430
101.2458, 9523.789
101.7280, 9535.337
102.2101, 9560.111
102.6922, 9593.014
103.1743, 9625.721
103.6564, 9655.747
104.1385, 9692.899
104.6207, 9747.404
105.1028, 9812.779
105.5849, 9866.504
106.0670, 9890.788
106.5491, 9906.343
107.0313, 9939.174
107.5134, 9993.088
107.9955, 10047.49
108.4776, 10071.69
108.9597, 10051.75
109.4418, 10062.51
109.9240, 10150.38
110.4061, 10261.72
110.8882, 10358.78
111.3703, 10427.03
111.8524, 10474.50
112.3345, 10521.11
112.8167, 10554.73
113.2988, 10605.58
113.7809, 10700.15
114.2630, 10808.47
114.7451, 10888.03
115.2272, 10908.25
115.7094, 10874.66
116.1915, 10892.20
116.6736, 11000.71
117.1557, 11112.03
117.6378, 11197.99
118.1199, 11260.52
118.6021, 11313.50
119.0842, 11364.74
119.5663, 11414.78
120.0484, 11482.45
120.5305, 11589.42
121.0126, 11700.75
121.4948, 11779.62
121.9769, 11818.46
122.4590, 11853.05
122.9411, 11931.42
123.4232, 12039.98
123.9053, 12130.63
124.3875, 12171.04
124.8696, 12180.13
125.3517, 12208.76
125.8338, 12262.71
126.3159, 12340.80
126.7980, 12448.79
127.2802, 12580.42
127.7623, 12705.73
128.2444, 12796.19
128.7265, 12847.23
129.2086, 12908.18
129.6907, 12975.63
130.1729, 13060.34
130.6550, 13182.22
131.1371, 13337.27
131.6192, 13493.30
132.1013, 13601.36
132.5834, 13625.91
133.0656, 13673.25
133.5477, 13745.55
134.0298, 13836.26
134.5119, 13944.08
134.9940, 14067.47
135.4761, 14201.40
135.9583, 14333.44
136.4404, 14459.36
136.9225, 14588.09
137.4046, 14715.39
137.8867, 14847.21
138.3688, 14994.03
138.8510, 15164.57
139.3331, 15347.04
139.8152, 15500.85
140.2973, 15614.37
140.7794, 15724.12
141.2615, 15842.56
141.7437, 15968.76
142.2258, 16101.64
142.7079, 16242.68
143.1900, 16388.59
143.6721, 16530.05
144.1542, 16655.60
144.6364, 16790.58
145.1185, 16968.64
145.6006, 17197.65
146.0827, 17421.44
146.5648, 17607.57
147.0469, 17775.07
147.5291, 17938.55
148.0112, 18096.24
148.4933, 18260.19
148.9754, 18462.36
149.4575, 18732.97
149.9396, 18992.83
150.4218, 19213.29
150.9039, 19411.49
151.3860, 19606.28
151.8681, 19806.66
152.3502, 20015.37
152.8323, 20244.06
153.3145, 20514.42
153.7966, 20786.23
154.2787, 21062.88
154.7608, 21336.13
155.2429, 21594.16
155.7250, 21828.12
156.2072, 22035.90
156.6893, 22240.00
157.1714, 22429.99
157.6535, 22626.88
158.1356, 22855.84
158.6177, 23106.96
159.0999, 23340.67
159.5820, 23516.52
160.0641, 23623.01
160.5462, 23746.74
161.0283, 23896.68
161.5104, 24056.00
161.9926, 24212.06
162.4747, 24362.88
162.9568, 24514.80
163.4389, 24669.49
163.9210, 24827.86
164.4031, 25002.21
164.8853, 25213.20
165.3674, 25436.25
165.8495, 25628.96
166.3316, 25780.16
166.8137, 25917.84
167.2958, 26061.29
167.7780, 26211.33
168.2601, 26376.56
168.7422, 26585.95
169.2243, 26820.55
169.7064, 26993.44
170.1885, 27052.58
170.6707, 27100.91
171.1528, 27212.06
171.6349, 27374.89
172.1170, 27539.57
172.5991, 27661.82
173.0812, 27739.03
173.5634, 27830.53
174.0455, 27948.09
174.5276, 28075.63
175.0097, 28217.83
175.4918, 28368.46
175.9739, 28506.95
176.4561, 28600.15
176.9382, 28621.46
177.4203, 28691.78
177.9024, 28854.71
178.3845, 29026.42
178.8666, 29164.70
179.3488, 29262.80
179.8309, 29338.80
180.3130, 29412.92
180.7951, 29474.16
181.2772, 29561.45
181.7593, 29682.19
182.2415, 29819.94
182.7236, 29968.26
183.2057, 30123.83
183.6878, 30277.74
184.1699, 30414.87
184.6520, 30516.35
185.1342, 30640.55
185.6163, 30809.65
186.0984, 30992.93
186.5805, 31152.08
187.0626, 31274.36
187.5447, 31388.37
188.0269, 31546.04
188.5090, 31755.36
188.9911, 31965.63
189.4732, 32151.86
189.9553, 32333.80
190.4374, 32545.45
190.9196, 32802.91
191.4017, 33084.45
191.8838, 33369.72
192.3659, 33660.35
192.8480, 33931.28
193.3301, 34145.21
193.8123, 34323.18
194.2944, 34548.04
194.7765, 34856.62
195.2586, 35201.49
195.7407, 35534.26
196.2228, 35854.09
196.7050, 36160.46
197.1871, 36443.34
197.6692, 36704.44
198.1513, 36983.44
198.6334, 37305.75
199.1155, 37634.36
199.5977, 37942.54
200.0798, 38230.02
200.5619, 38513.40
201.0440, 38807.11
201.5261, 39112.71
202.0082, 39431.49
202.4904, 39768.45
202.9725, 40118.00
203.4546, 40489.27
203.9367, 40879.05
204.4188, 41266.59
204.9009, 41623.74
205.3831, 41942.23
205.8652, 42252.79
206.3473, 42551.95
206.8294, 42847.13
207.3115, 43134.01
207.7936, 43414.94
208.2758, 43704.79
208.7579, 44025.41
209.2400, 44399.02
209.7221, 44753.69
210.2042, 45087.15
210.6863, 45405.68
211.1685, 45716.42
211.6506, 46020.02
212.1327, 46309.43
212.6148, 46573.13
213.0969, 46775.11
213.5790, 47026.96
214.0612, 47363.74
214.5433, 47723.52
215.0254, 48066.35
215.5075, 48379.07
215.9896, 48671.36
216.4717, 48953.52
216.9539, 49227.39
217.4360, 49485.23
217.9181, 49695.45
218.4002, 49905.63
218.8823, 50171.63
219.3644, 50506.51
219.8466, 50868.95
220.3287, 51205.42
220.8108, 51515.11
221.2929, 51814.47
221.7750, 52103.22
222.2571, 52383.86
222.7393, 52658.27
223.2214, 52925.91
223.7035, 53190.89
224.1856, 53445.46
224.6677, 53688.96
225.1498, 53970.16
225.6320, 54314.80
226.1141, 54701.75
226.5962, 55104.96
227.0783, 55530.16
227.5604, 55944.04
228.0425, 56291.98
228.5247, 56590.75
229.0068, 56929.69
229.4889, 57381.14
229.9710, 57890.39
230.4531, 58331.27
230.9352, 58664.98
231.4174, 58980.89
231.8995, 59336.35
232.3816, 59725.43
232.8637, 60137.25
233.3458, 60582.10
233.8279, 61047.19
234.3101, 61492.98
234.7922, 61890.03
235.2743, 62311.88
235.7564, 62804.97
236.2385, 63347.82
236.7206, 63904.84
237.2028, 64473.57
237.6849, 65038.79
238.1670, 65542.74
238.6491, 65961.12
239.1312, 66347.69
239.6133, 66722.89
240.0955, 67088.82
240.5776, 67447.95
241.0597, 67784.72
241.5418, 68118.99
242.0239, 68548.60
242.5060, 69177.88
242.9882, 69763.08
243.4703, 70219.95
243.9524, 70596.20
244.4345, 70959.45
244.9166, 71343.45
245.3987, 71749.61
245.8809, 72177.80
246.3630, 72637.63
246.8451, 73109.77
247.3272, 73622.65
247.8093, 74136.38
248.2914, 74596.93
248.7736, 74974.65
249.2557, 75282.96
249.7378, 75570.81
250.2199, 75802.60
250.7020, 76060.26
251.1841, 76364.02
251.6663, 76694.20
252.1484, 77030.60
252.6305, 77365.99
253.1126, 77691.73
253.5947, 77987.53
254.0768, 78200.57
254.5590, 78444.46
255.0411, 78748.30
255.5232, 79077.99
256.0053, 79404.66
256.4874, 79714.77
256.9695, 80004.23
257.4517, 80262.41
257.9338, 80449.05
258.4159, 80651.60
258.8980, 80883.41
259.3801, 81125.93
259.8622, 81369.26
260.3444, 81608.83
260.8265, 81831.38
261.3086, 82010.79
261.7907, 82120.21
262.2728, 82224.32
262.7549, 82352.13
263.2371, 82461.29
263.7192, 82499.91
264.2013, 82455.82
264.6834, 82371.38
265.1655, 82309.80
265.6476, 82292.43
266.1298, 82244.55
266.6119, 82140.84
267.0940, 82019.40
267.5761, 81922.99
268.0582, 81858.50
268.5403, 81792.11
269.0225, 81688.13
269.5046, 81542.95
269.9867, 81354.58
270.4688, 81091.08
270.9509, 80805.15
271.4330, 80551.09
271.9152, 80333.61
272.3973, 80101.33
272.8794, 79800.98
273.3615, 79424.91
273.8436, 79066.67
274.3257, 78730.89
274.8079, 78408.67
275.2900, 78105.38
275.7721, 77817.31
276.2542, 77522.20
276.7363, 77204.14
277.2184, 76861.55
277.7006, 76495.80
278.1827, 76107.59
278.6648, 75697.84
279.1469, 75260.66
279.6290, 74800.13
280.1111, 74339.32
280.5933, 73892.87
281.0754, 73456.76
281.5575, 73014.45
282.0396, 72592.56
282.5217, 72135.03
283.0038, 71579.33
283.4860, 70945.12
283.9681, 70331.00
284.4502, 69788.19
284.9323, 69288.05
285.4144, 68767.28
285.8965, 68224.33
286.3787, 67667.53
286.8608, 67090.05
287.3429, 66501.11
287.8250, 65923.84
288.3071, 65364.16
288.7892, 64823.63
289.2714, 64306.55
289.7535, 63817.52
290.2356, 63322.44
290.7177, 62816.16
291.1998, 62291.91
291.6819, 61714.66
292.1641, 61053.15
292.6462, 60381.48
293.1283, 59783.94
293.6104, 59252.88
294.0925, 58728.96
294.5746, 58186.11
295.0568, 57637.11
295.5389, 57110.75
296.0210, 56616.17
296.5031, 56128.20
296.9852, 55600.47
297.4673, 55055.17
297.9495, 54558.75
298.4316, 54184.16
298.9137, 53852.88
299.3958, 53434.54
299.8779, 52907.05
300.3600, 52385.98
300.8422, 51969.96
301.3243, 51610.59
301.8064, 51232.00
302.2885, 50793.65
302.7706, 50347.61
303.2527, 49960.18
303.7349, 49634.14
304.2170, 49303.69
304.6991, 48920.78
305.1812, 48524.66
305.6633, 48171.83
306.1454, 47880.88
306.6276, 47607.44
307.1097, 47308.31
307.5918, 46986.51
308.0739, 46684.95
308.5560, 46435.05
309.0381, 46200.05
309.5203, 45937.49
310.0024, 45642.85
310.4845, 45344.44
310.9666, 45058.49
311.4487, 44784.16
311.9308, 44522.89
312.4130, 44286.73
312.8951, 44047.95
313.3772, 43770.53
313.8593, 43461.72
314.3414, 43180.98
314.8235, 42953.17
315.3057, 42774.66
315.7878, 42651.26
316.2699, 42618.52
316.7520, 42557.23
317.2341, 42349.28
317.7162, 42048.54
318.1984, 41764.96
318.6805, 41536.20
319.1626, 41349.06
319.6447, 41195.30
320.1268, 41084.39
320.6089, 40960.07
321.0911, 40769.54
321.5732, 40550.46
322.0553, 40353.81
322.5374, 40188.64
323.0195, 40048.86
323.5016, 39942.90
323.9838, 39870.57
324.4659, 39777.46
324.9480, 39631.43
325.4301, 39461.27
325.9122, 39300.29
326.3943, 39147.09
326.8765, 39012.32
327.3586, 38918.74
327.8407, 38855.99
328.3228, 38767.25
328.8049, 38633.25
329.2870, 38476.92
329.7692, 38315.73
330.2513, 38151.23
330.7334, 38001.82
331.2155, 37881.58
331.6976, 37782.88
332.1797, 37688.35
332.6619, 37595.91
333.1440, 37508.46
333.6261, 37428.90
334.1082, 37356.06
334.5903, 37288.26
335.0724, 37219.97
335.5546, 37159.57
336.0367, 37127.67
336.5188, 37128.48
337.0009, 37115.22
337.4830, 37059.23
337.9651, 36970.39
338.4473, 36866.87
338.9294, 36740.09
339.4115, 36615.73
339.8936, 36520.38
340.3757, 36449.57
340.8578, 36371.09
341.3400, 36265.35
341.8221, 36153.82
342.3042, 36067.37
342.7863, 36007.08
343.2684, 35959.48
343.7505, 35931.27
344.2327, 35910.36
344.7148, 35861.91
345.1969, 35770.02
345.6790, 35672.28
346.1611, 35611.78
346.6432, 35583.03
347.1254, 35568.86
347.6075, 35584.56
348.0896, 35602.96
348.5717, 35590.95
349.0538, 35545.40
349.5359, 35478.07
350.0181, 35384.10
350.5002, 35273.90
350.9823, 35192.49
351.4644, 35142.66
351.9465, 35122.55
352.4286, 35162.60
352.9108, 35243.70
353.3929, 35266.08
353.8750, 35159.32
354.3571, 34985.82
354.8392, 34902.31
355.3214, 34931.16
355.8035, 34981.41
356.2856, 35054.90
356.7677, 35122.00
357.2498, 35117.69
357.7319, 35016.11
358.2141, 34880.10
358.6962, 34793.51
359.1783, 34762.79
359.6604, 34739.16
360.1425, 34716.59
360.6246, 34699.17
361.1068, 34703.28
361.5889, 34726.38
362.0710, 34725.75
362.5531, 34655.84
363.0352, 34518.65
363.5173, 34434.38
363.9995, 34444.57
364.4816, 34460.66
364.9637, 34432.39
365.4458, 34375.76
365.9279, 34335.42
366.4100, 34335.18
366.8922, 34365.25
367.3743, 34395.12
367.8564, 34429.55
368.3385, 34456.98
368.8206, 34473.30
369.3027, 34482.82
369.7849, 34498.83
370.2670, 34523.18
370.7491, 34529.20
371.2312, 34475.88
371.7133, 34335.71
372.1954, 34217.77
372.6776, 34126.03
373.1597, 34051.48
373.6418, 33985.86
374.1239, 33931.13
374.6060, 33899.18
375.0881, 33903.46
375.5703, 33942.17
376.0524, 33950.31
376.5345, 33906.23
377.0166, 33857.64
377.4987, 33809.39
377.9808, 33764.70
378.4630, 33726.17
378.9451, 33695.03
379.4272, 33671.43
379.9093, 33655.61
380.3914, 33646.81
380.8735, 33648.43
381.3557, 33656.69
381.8378, 33676.44
382.3199, 33727.41
382.8020, 33803.05
383.2841, 33860.52
383.7662, 33843.62
384.2484, 33736.85
384.7305, 33663.18
385.2126, 33649.96
385.6947, 33644.58
386.1768, 33632.76
386.6589, 33616.08
387.1411, 33599.88
387.6232, 33586.11
388.1053, 33576.79
388.5874, 33583.49
389.0695, 33627.86
389.5516, 33645.95
390.0338, 33597.98
390.5159, 33534.82
390.9980, 33494.63
391.4801, 33488.74
391.9622, 33524.40
392.4443, 33641.84
392.9265, 33858.89
393.4086, 33982.06
393.8907, 33908.46
394.3728, 33805.78
394.8549, 33762.46
395.3370, 33774.34
395.8192, 33806.64
396.3013, 33853.09
396.7834, 33902.79
397.2655, 33909.92
397.7476, 33851.14
398.2297, 33810.54
398.7119, 33849.80
399.1940, 33928.16
399.6761, 33998.49
400.1582, 34052.69
400.6403, 34087.38
401.1224, 34091.35
401.6046, 34066.43
402.0867, 34042.38
402.5688, 34016.37
403.0509, 34009.32
403.5330, 34048.75
404.0151, 34135.11
404.4973, 34224.38
404.9794, 34301.67
405.4615, 34368.20
405.9436, 34425.54
406.4257, 34473.35
406.9078, 34514.28
407.3900, 34551.51
407.8721, 34583.09
408.3542, 34602.05
408.8363, 34586.01
409.3184, 34577.04
409.8005, 34606.11
410.2827, 34666.04
410.7648, 34731.06
411.2469, 34789.67
411.7290, 34847.11
412.2111, 34915.34
412.6932, 34994.25
413.1754, 35080.96
413.6575, 35174.81
414.1396, 35275.96
414.6217, 35400.77
415.1038, 35546.14
415.5859, 35661.67
416.0681, 35686.25
416.5502, 35605.08
417.0323, 35601.29
417.5144, 35752.75
417.9965, 35887.14
418.4786, 35897.96
418.9608, 35844.42
419.4429, 35856.43
419.9250, 36004.19
420.4071, 36230.22
420.8892, 36374.11
421.3713, 36367.57
421.8535, 36377.12
422.3356, 36408.23
422.8177, 36455.96
423.2998, 36529.85
423.7819, 36623.09
424.2640, 36702.16
424.7462, 36725.50
425.2283, 36687.24
425.7104, 36681.87
426.1925, 36741.33
426.6746, 36800.93
427.1567, 36857.73
427.6389, 36899.09
428.1210, 36897.76
428.6031, 36833.25
429.0852, 36750.32
429.5673, 36752.21
430.0494, 36871.82
430.5316, 36957.43
431.0137, 36919.28
431.4958, 36872.54
431.9779, 36911.75
432.4600, 37034.34
432.9421, 37132.01
433.4243, 37104.30
433.9064, 36979.46
434.3885, 36875.73
434.8706, 36793.82
435.3527, 36743.79
435.8348, 36766.98
436.3170, 36820.53
436.7991, 36828.77
437.2812, 36754.55
437.7633, 36655.60
438.2454, 36582.79
438.7275, 36532.72
439.2097, 36486.37
439.6918, 36441.64
440.1739, 36391.49
440.6560, 36310.90
441.1381, 36191.60
441.6202, 36121.93
442.1024, 36179.66
442.5845, 36270.71
443.0666, 36288.92
443.5487, 36225.42
444.0308, 36125.55
444.5129, 36019.98
444.9951, 35907.72
445.4772, 35776.75
445.9593, 35576.27
446.4414, 35419.23
446.9235, 35375.01
447.4056, 35385.70
447.8878, 35357.91
448.3699, 35260.58
448.8520, 35142.77
449.3341, 35082.55
449.8162, 35114.67
450.2983, 35106.02
450.7805, 35033.30
451.2626, 34948.09
451.7447, 34886.41
452.2268, 34835.72
452.7089, 34752.72
453.1910, 34603.90
453.6732, 34410.76
454.1553, 34265.67
454.6374, 34189.44
455.1195, 34128.82
455.6016, 34100.98
456.0837, 34066.58
456.5659, 33973.37
457.0480, 33819.23
457.5301, 33679.91
458.0122, 33660.16
458.4943, 33756.21
458.9764, 33772.47
459.4586, 33666.02
459.9407, 33531.91
460.4228, 33391.86
460.9049, 33266.05
461.3870, 33196.70
461.8691, 33217.41
462.3513, 33269.07
462.8334, 33289.14
463.3155, 33277.73
463.7976, 33235.38
464.2797, 33155.12
464.7618, 33051.19
465.2440, 32932.38
465.7261, 32797.18
466.2082, 32687.78
466.6903, 32636.85
467.1724, 32608.92
467.6545, 32560.37
468.1367, 32488.80
468.6188, 32414.97
469.1009, 32353.05
469.5830, 32300.56
470.0651, 32243.02
470.5472, 32183.21
471.0294, 32116.19
471.5115, 32027.09
471.9936, 31935.77
472.4757, 31864.39
472.9578, 31819.49
473.4399, 31800.23
473.9221, 31811.27
474.4042, 31864.65
474.8863, 31876.76
475.3684, 31844.17
475.8505, 31779.64
476.3326, 31642.79
476.8148, 31486.26
477.2969, 31405.51
477.7790, 31449.54
478.2611, 31553.69
478.7432, 31580.22
479.2253, 31506.69
479.7075, 31418.37
480.1896, 31282.26
480.6717, 31169.30
481.1538, 31141.56
481.6359, 31181.28
482.1180, 31205.22
482.6002, 31139.18
483.0823, 31022.51
483.5644, 30977.10
484.0465, 31027.40
484.5286, 31059.39
485.0107, 30997.94
485.4929, 30903.72
485.9750, 30854.69
486.4571, 30869.32
486.9392, 30874.27
487.4213, 30799.70
487.9034, 30686.96
488.3856, 30641.29
488.8677, 30686.95
489.3498, 30733.99
489.8319, 30697.89
490.3140, 30585.25
490.7961, 30510.29
491.2783, 30488.03
491.7604, 30486.45
492.2425, 30502.74
492.7246, 30527.27
493.2067, 30539.19
493.6888, 30531.15
494.1710, 30522.21
494.6531, 30545.78
495.1352, 30626.26
495.6173, 30660.13
496.0994, 30618.14
496.5815, 30565.12
497.0637, 30532.58
497.5458, 30513.71
498.0279, 30484.79
498.5100, 30430.69
498.9921, 30367.30
499.4742, 30337.11
499.9564, 30355.70
500.4385, 30367.86
500.9206, 30366.37
501.4027, 30355.48
501.8848, 30333.05
502.3669, 30301.65
502.8491, 30271.68
503.3312, 30248.96
503.8133, 30233.16
504.2954, 30226.64
504.7775, 30232.81
505.2596, 30233.29
505.7418, 30226.24
506.2239, 30204.11
506.7060, 30146.37
507.1881, 30036.14
507.6702, 29958.63
508.1523, 29985.70
508.6345, 30063.67
509.1166, 30097.94
509.5987, 30074.41
510.0808, 30047.57
510.5629, 30065.84
511.0450, 30123.12
511.5272, 30148.30
512.0093, 30141.13
512.4914, 30107.05
512.9735, 30010.10
513.4556, 29902.33
513.9377, 29860.75
514.4199, 29902.28
514.9020, 29970.26
515.3841, 29994.62
515.8662, 29970.23
516.3483, 29938.21
516.8304, 29893.02
517.3126, 29846.04
517.7947, 29797.31
518.2768, 29749.86
518.7589, 29705.88
519.2410, 29665.91
519.7231, 29634.65
520.2053, 29621.43
520.6874, 29627.51
521.1695, 29634.17
521.6516, 29646.95
522.1337, 29648.76
522.6158, 29625.39
523.0980, 29582.93
523.5801, 29537.87
524.0622, 29488.52
524.5443, 29446.69
525.0264, 29425.30
525.5085, 29423.03
525.9907, 29435.69
526.4728, 29466.66
526.9549, 29501.71
527.4370, 29517.97
527.9191, 29512.42
528.4012, 29511.18
528.8834, 29526.70
529.3655, 29539.05
529.8476, 29529.56
530.3297, 29504.59
530.8118, 29483.21
531.2939, 29475.28
531.7761, 29478.62
532.2582, 29488.73
532.7403, 29512.26
533.2224, 29529.43
533.7045, 29535.15
534.1866, 29538.78
534.6688, 29552.18
535.1509, 29569.03
535.6330, 29567.37
536.1151, 29524.94
536.5972, 29464.86
537.0793, 29455.76
537.5615, 29512.99
538.0436, 29558.71
538.5257, 29564.21
539.0078, 29553.78
539.4899, 29546.71
539.9720, 29543.95
540.4542, 29542.43
540.9363, 29539.81
541.4184, 29538.28
541.9005, 29543.27
542.3826, 29554.41
542.8647, 29561.01
543.3469, 29555.96
543.8290, 29544.36
544.3111, 29539.38
544.7932, 29542.46
545.2753, 29547.09
545.7574, 29565.13
546.2396, 29574.98
546.7217, 29538.44
547.2038, 29469.64
547.6859, 29433.90
548.1680, 29481.01
548.6501, 29589.79
549.1323, 29667.69
549.6144, 29708.61
550.0965, 29726.11
550.5786, 29686.78
551.0607, 29654.75
551.5428, 29694.38
552.0250, 29795.93
552.5071, 29881.97
552.9892, 29885.88
553.4713, 29836.24
553.9534, 29813.51
554.4355, 29819.35
554.9177, 29847.30
555.3998, 29922.21
555.8819, 29997.41
556.3640, 30005.11
556.8461, 29935.49
557.3282, 29871.23
557.8104, 29828.25
558.2925, 29816.61
558.7746, 29859.46
559.2567, 29952.14
559.7388, 30058.40
560.2209, 30164.74
560.7031, 30257.40
561.1852, 30292.62
561.6673, 30201.39
562.1494, 30149.29
562.6315, 30163.94
563.1136, 30198.48
563.5958, 30213.99
564.0779, 30215.64
564.5600, 30239.92
565.0421, 30319.50
565.5242, 30428.58
566.0063, 30473.65
566.4885, 30427.44
566.9706, 30396.15
567.4527, 30416.09
567.9348, 30451.04
568.4169, 30472.68
568.8990, 30483.26
569.3812, 30510.42
569.8633, 30588.45
570.3454, 30680.79
570.8275, 30723.68
571.3096, 30721.21
571.7917, 30740.69
572.2739, 30817.04
572.7560, 30920.66
573.2381, 31001.13
573.7202, 31058.21
574.2023, 31097.76
574.6844, 31116.30
575.1666, 31121.36
575.6487, 31095.97
576.1308, 31061.61
576.6129, 31075.17
577.0950, 31168.51
577.5771, 31301.34
578.0593, 31383.82
578.5414, 31398.26
579.0235, 31410.07
579.5056, 31388.99
579.9877, 31397.20
580.4698, 31486.39
580.9520, 31626.11
581.4341, 31748.22
581.9162, 31824.21
582.3983, 31865.15
582.8804, 31869.78
583.3625, 31843.33
583.8447, 31844.35
584.3268, 31892.60
584.8089, 31957.62
585.2910, 32009.74
585.7731, 32050.39
586.2552, 32092.73
586.7374, 32147.42
587.2195, 32194.40
587.7016, 32216.38
588.1837, 32225.25
588.6658, 32247.78
589.1479, 32290.46
589.6301, 32324.21
590.1122, 32307.24
590.5943, 32230.18
591.0764, 32192.55
591.5585, 32218.31
592.0406, 32257.52
592.5228, 32324.68
593.0049, 32386.33
593.4870, 32395.56
593.9691, 32341.84
594.4512, 32277.25
594.9333, 32244.14
595.4155, 32240.56
595.8976, 32263.99
596.3797, 32320.67
596.8618, 32376.42
597.3439, 32416.37
597.8260, 32438.98
598.3082, 32443.01
598.7903, 32422.17
599.2724, 32399.20
599.7545, 32368.16
600.2366, 32346.91
600.7188, 32366.73
601.2009, 32421.13
601.6830, 32467.51
602.1651, 32478.36
602.6472, 32456.73
603.1293, 32410.05
603.6115, 32306.51
604.0936, 32237.10
604.5757, 32238.68
605.0578, 32245.40
605.5399, 32207.84
606.0220, 32138.44
606.5042, 32089.31
606.9863, 32103.58
607.4684, 32132.47
607.9505, 32082.82
608.4326, 31957.12
608.9147, 31858.52
609.3969, 31813.97
609.8790, 31805.14
610.3611, 31831.59
610.8432, 31888.38
611.3253, 31904.08
611.8074, 31843.83
612.2896, 31769.43
612.7717, 31699.48
613.2538, 31641.23
613.7359, 31613.47
614.2180, 31618.97
614.7001, 31625.61
615.1823, 31594.82
615.6644, 31524.95
616.1465, 31449.44
616.6286, 31348.88
617.1107, 31270.84
617.5928, 31247.85
618.0750, 31240.18
618.5571, 31201.68
619.0392, 31125.11
619.5213, 31052.36
620.0034, 31020.50
620.4855, 31013.93
620.9677, 30999.88
621.4498, 30977.14
621.9319, 30944.36
622.4140, 30894.75
622.8961, 30841.48
623.3782, 30816.77
623.8604, 30834.65
624.3425, 30833.44
624.8246, 30805.69
625.3067, 30757.39
625.7888, 30661.76
626.2709, 30550.73
626.7531, 30505.58
627.2352, 30568.18
627.7173, 30668.09
628.1994, 30673.23
628.6815, 30566.55
629.1636, 30456.15
629.6458, 30326.86
630.1279, 30222.51
630.6100, 30180.96
631.0921, 30171.80
631.5742, 30136.71
632.0563, 30048.39
632.5385, 29971.32
633.0206, 29961.13
633.5027, 29992.86
633.9848, 30025.70
634.4669, 30052.75
634.9490, 30053.93
635.4312, 30007.06
635.9133, 29927.45
636.3954, 29887.17
636.8775, 29986.79
637.3596, 29988.56
637.8417, 29811.05
638.3239, 29593.97
638.8060, 29431.28
639.2881, 29320.35
639.7702, 29210.28
640.2523, 29064.45
640.7344, 28918.05
641.2166, 28862.40
641.6987, 28903.75
642.1808, 28876.07
642.6629, 28708.96
643.1450, 28526.23
643.6271, 28457.04
644.1093, 28468.46
644.5914, 28442.93
645.0735, 28331.79
645.5556, 28218.49
646.0377, 28153.45
646.5198, 28105.30
647.0020, 28020.82
647.4841, 27895.37
647.9662, 27776.03
648.4483, 27706.50
648.9304, 27679.67
649.4125, 27643.69
649.8947, 27604.94
650.3768, 27544.54
650.8589, 27460.83
651.3410, 27354.68
651.8231, 27212.49
652.3052, 27043.69
652.7874, 26889.04
653.2695, 26777.33
653.7516, 26681.65
654.2337, 26570.57
654.7158, 26447.10
655.1979, 26326.11
655.6801, 26212.51
656.1622, 26097.63
656.6443, 25967.81
657.1264, 25821.39
657.6085, 25699.62
658.0906, 25622.35
658.5728, 25541.61
659.0549, 25453.25
659.5370, 25350.96
660.0191, 25220.94
660.5012, 25065.94
660.9833, 24910.13
661.4655, 24766.76
661.9476, 24640.78
662.4297, 24571.60
662.9118, 24574.30
663.3939, 24509.61
663.8760, 24298.22
664.3582, 24046.04
664.8403, 23884.68
665.3224, 23806.15
665.8045, 23720.47
666.2866, 23597.91
666.7687, 23481.03
667.2509, 23401.63
667.7330, 23341.58
668.2151, 23273.50
668.6972, 23188.97
669.1793, 23091.55
669.6614, 22983.93
670.1436, 22865.86
670.6257, 22733.69
671.1078, 22579.34
671.5899, 22426.78
672.0720, 22262.25
672.5541, 22115.19
673.0363, 22024.06
673.5184, 21983.25
674.0005, 21922.12
674.4826, 21801.46
674.9647, 21653.07
675.4468, 21489.64
675.9290, 21323.94
676.4111, 21203.57
676.8932, 21144.52
677.3753, 21089.75
677.8574, 20968.22
678.3395, 20776.03
678.8217, 20619.72
679.3038, 20523.98
679.7859, 20434.45
680.2680, 20352.64
680.7501, 20267.17
681.2322, 20165.16
681.7144, 20048.10
682.1965, 19930.26
682.6786, 19824.40
683.1607, 19722.34
683.6428, 19616.21
684.1249, 19504.20
684.6071, 19366.80
685.0892, 19188.41
685.5713, 19017.11
686.0534, 18913.04
686.5355, 18882.08
687.0176, 18820.67
687.4998, 18698.66
687.9819, 18587.11
688.4640, 18519.87
688.9461, 18461.63
689.4282, 18377.66
689.9103, 18263.33
690.3925, 18130.47
690.8746, 17979.28
691.3567, 17825.34
691.8388, 17717.62
692.3209, 17658.97
692.8030, 17569.35
693.2852, 17410.39
693.7673, 17246.77
694.2494, 17152.97
694.7315, 17123.41
695.2136, 17066.87
695.6957, 16971.88
696.1779, 16858.99
696.6600, 16714.06
697.1421, 16567.38
697.6242, 16459.49
698.1063, 16389.55
698.5884, 16318.39
699.0706, 16213.56
699.5527, 16090.89
700.0348, 16000.44
700.5169, 15950.09
700.9990, 15880.29
701.4811, 15771.36
701.9633, 15651.10
702.4454, 15538.50
702.9275, 15433.22
703.4096, 15332.62
703.8917, 15230.13
704.3738, 15140.93
704.8560, 15074.22
705.3381, 15021.75
705.8202, 14976.96
706.3023, 14936.52
706.7844, 14894.43
707.2665, 14847.16
707.7487, 14793.63
708.2308, 14731.16
708.7129, 14658.13
709.1950, 14583.41
709.6771, 14506.88
710.1592, 14430.51
710.6414, 14344.80
711.1235, 14261.88
711.6056, 14212.95
712.0877, 14222.57
712.5698, 14220.67
713.0519, 14172.62
713.5341, 14095.37
714.0162, 13999.20
714.4983, 13891.85
714.9804, 13792.88
715.4625, 13713.65
715.9446, 13643.96
716.4268, 13560.03
716.9089, 13456.40
717.3910, 13363.09
717.8731, 13295.92
718.3552, 13216.82
718.8373, 13098.82
719.3195, 12962.19
719.8016, 12832.48
720.2837, 12710.73
720.7658, 12608.14
721.2479, 12553.13
721.7300, 12503.61
722.2122, 12398.81
722.6943, 12255.66
723.1764, 12144.00
723.6585, 12094.62
724.1406, 12071.51
724.6227, 12023.60
725.1049, 11950.54
725.5870, 11849.26
726.0691, 11685.80
726.5512, 11550.22
727.0333, 11497.07
727.5154, 11470.95
727.9976, 11418.66
728.4797, 11335.84
728.9618, 11249.65
729.4439, 11153.41
729.9260, 11074.48
730.4081, 11055.00
730.8903, 11070.88
731.3724, 11066.33
731.8545, 11024.89
732.3366, 10960.45
732.8187, 10884.84
733.3008, 10799.39
733.7830, 10716.77
734.2651, 10630.59
734.7472, 10561.30
735.2293, 10534.91
735.7114, 10509.47
736.1935, 10448.86
736.6757, 10361.21
737.1578, 10286.27
737.6399, 10246.01
738.1220, 10208.95
738.6041, 10156.76
739.0862, 10093.13
739.5684, 10020.94
740.0505, 9942.654
740.5326, 9864.556
741.0147, 9789.684
741.4968, 9722.627
741.9789, 9679.691
742.4611, 9668.655
742.9432, 9654.219
743.4253, 9644.639
743.9074, 9616.002
744.3895, 9544.719
744.8716, 9448.903
745.3538, 9360.189
745.8359, 9282.063
746.3180, 9215.673
746.8001, 9159.160
747.2822, 9116.814
747.7643, 9106.602
748.2465, 9115.387
748.7286, 9102.146
749.2107, 9048.245
749.6928, 8973.245
750.1749, 8903.039
750.6570, 8837.309
751.1392, 8780.913
751.6213, 8732.634
752.1034, 8696.443
752.5855, 8684.100
753.0676, 8677.721
753.5497, 8654.425
754.0319, 8613.423
754.5140, 8573.998
754.9961, 8541.886
755.4782, 8511.348
755.9603, 8479.035
756.4424, 8446.139
756.9246, 8414.259
757.4067, 8383.765
757.8888, 8356.146
758.3709, 8336.365
758.8530, 8315.659
759.3351, 8254.200
759.8173, 8143.538
760.2994, 8068.615
760.7815, 8060.321
761.2636, 8069.654
761.7457, 8057.904
762.2278, 8029.067
762.7100, 8003.747
763.1921, 7985.542
763.6742, 7966.131
764.1563, 7956.649
764.6384, 7934.818
765.1205, 7864.545
765.6027, 7766.701
766.0848, 7702.068
766.5669, 7700.228
767.0490, 7714.611
767.5311, 7674.203
768.0132, 7592.804
768.4954, 7554.393
768.9775, 7569.542
769.4596, 7577.551
769.9417, 7545.911
770.4238, 7495.520
770.9059, 7463.533
771.3881, 7457.244
771.8702, 7440.362
772.3523, 7410.725
772.8344, 7373.375
773.3165, 7314.376
773.7986, 7257.930
774.2808, 7231.117
774.7629, 7236.758
775.2450, 7259.380
775.7271, 7311.351
776.2092, 7352.463
776.6913, 7301.654
777.1735, 7183.674
777.6556, 7101.511
778.1377, 7078.877
778.6198, 7085.468
779.1019, 7101.216
779.5840, 7120.313
780.0662, 7111.813
780.5483, 7061.019
781.0304, 7010.174
781.5125, 6945.983
781.9946, 6898.454
782.4767, 6898.391
782.9589, 6921.359
783.4410, 6918.774
783.9231, 6874.119
784.4052, 6827.653
784.8873, 6805.159
785.3694, 6793.001
785.8516, 6774.163
786.3337, 6750.400
786.8158, 6733.767
787.2979, 6728.935
787.7800, 6723.906
788.2621, 6699.377
788.7443, 6656.735
789.2264, 6637.741
789.7085, 6651.167
790.1906, 6665.247
790.6727, 6686.171
791.1548, 6688.881
791.6370, 6630.750
792.1191, 6523.818
792.6012, 6456.290
793.0833, 6474.960
793.5654, 6492.376
794.0475, 6471.199
794.5297, 6435.949
795.0118, 6411.042
795.4939, 6396.860
795.9760, 6381.292
796.4581, 6357.237
796.9402, 6331.289
797.4224, 6310.138
797.9045, 6294.914
798.3866, 6300.136
798.8687, 6330.673
799.3508, 6345.184
799.8329, 6315.502
800.3151, 6268.758
800.7972, 6258.636
801.2793, 6302.158
801.7614, 6314.664
802.2435, 6286.436
802.7256, 6242.453
803.2078, 6160.553
803.6899, 6085.526
804.1720, 6077.412
804.6541, 6130.797
805.1362, 6167.961
805.6183, 6139.313
806.1005, 6085.491
806.5826, 6034.391
807.0647, 5993.513
807.5468, 5987.090
808.0289, 6015.666
808.5110, 6047.439
808.9932, 6061.440
809.4753, 6058.201
809.9574, 6033.622
810.4395, 5977.098
810.9216, 5949.415
811.4037, 5975.905
811.8859, 5994.233
812.3680, 5963.275
812.8501, 5909.939
813.3322, 5871.291
813.8143, 5849.826
814.2964, 5836.194
814.7786, 5827.226
815.2607, 5826.471
815.7428, 5850.013
816.2249, 5876.417
816.7070, 5865.990
817.1891, 5819.173
817.6713, 5784.534
818.1534, 5805.863
818.6355, 5851.862
819.1176, 5859.759
819.5997, 5834.306
820.0818, 5813.592
820.5640, 5804.818
821.0461, 5795.402
821.5282, 5775.229
822.0103, 5749.289
822.4924, 5733.677
822.9745, 5737.495
823.4567, 5731.002
823.9388, 5707.191
824.4209, 5681.190
824.9030, 5656.698
825.3851, 5633.831
825.8672, 5607.195
826.3494, 5576.767
826.8315, 5567.887
827.3136, 5627.018
827.7957, 5679.770
828.2778, 5639.460
828.7599, 5555.270
829.2421, 5523.669
829.7242, 5557.957
830.2063, 5601.255
830.6884, 5611.851
831.1705, 5597.644
831.6526, 5569.724
832.1348, 5526.791
832.6169, 5519.466
833.0990, 5567.852
833.5811, 5604.515
834.0632, 5582.208
834.5453, 5527.661
835.0275, 5499.915
835.5096, 5510.459
835.9917, 5514.415
836.4738, 5511.207
836.9559, 5501.713
837.4380, 5479.914
837.9202, 5455.903
838.4023, 5440.856
838.8844, 5435.680
839.3665, 5433.065
839.8486, 5426.128
840.3307, 5423.830
840.8129, 5447.555
841.2950, 5478.850
841.7771, 5472.722
842.2592, 5428.760
842.7413, 5388.423
843.2234, 5377.517
843.7056, 5388.945
844.1877, 5417.342
844.6698, 5466.929
845.1519, 5473.551
845.6340, 5416.499
846.1161, 5370.638
846.5983, 5373.828
847.0804, 5397.983
847.5625, 5403.894
848.0446, 5390.346
848.5267, 5379.871
849.0089, 5371.513
849.4910, 5368.665
849.9731, 5381.382
850.4552, 5392.952
850.9373, 5379.438
851.4194, 5350.746
851.9016, 5343.894
852.3837, 5380.630
852.8658, 5422.613
853.3479, 5439.720
853.8300, 5436.238
854.3121, 5402.236
854.7943, 5350.593
855.2764, 5346.682
855.7585, 5419.337
856.2406, 5504.375
856.7227, 5513.901
857.2048, 5454.728
857.6870, 5418.464
858.1691, 5412.216
858.6512, 5400.068
859.1333, 5365.754
859.6154, 5334.920
860.0975, 5334.155
860.5797, 5357.449
861.0618, 5369.703
861.5439, 5363.282
862.0260, 5358.912
862.5081, 5343.765
862.9902, 5346.435
863.4724, 5402.274
863.9545, 5480.403
864.4366, 5531.582
864.9187, 5544.082
865.4008, 5540.547
865.8829, 5527.884
866.3651, 5513.766
866.8472, 5507.015
867.3293, 5505.827
867.8114, 5504.692
868.2935, 5502.866
868.7756, 5507.374
869.2578, 5526.395
869.7399, 5546.091
870.2220, 5525.104
870.7041, 5460.719
871.1862, 5413.950
871.6683, 5391.470
872.1505, 5382.102
872.6326, 5386.136
873.1147, 5393.167
873.5968, 5382.323
874.0789, 5345.867
874.5610, 5333.767
875.0432, 5391.151
875.5253, 5412.594
876.0074, 5326.915
876.4895, 5233.845
876.9716, 5230.083
877.4537, 5297.178
877.9359, 5341.914
878.4180, 5325.570
878.9001, 5300.623
879.3822, 5293.771
879.8643, 5299.430
880.3464, 5317.271
880.8286, 5341.383
881.3107, 5360.997
881.7928, 5371.574
882.2749, 5368.839
882.7570, 5336.559
883.2391, 5292.628
883.7213, 5302.842
884.2034, 5363.390
884.6855, 5412.517
885.1676, 5437.248
885.6497, 5435.985
886.1318, 5400.274
886.6140, 5345.961
887.0961, 5330.821
887.5782, 5383.392
888.0603, 5400.179
888.5424, 5347.723
889.0245, 5304.907
889.5067, 5311.926
889.9888, 5339.821
890.4709, 5360.415
890.9530, 5372.223
891.4351, 5368.816
891.9172, 5313.448
892.3994, 5286.747
892.8815, 5356.941
893.3636, 5444.270
893.8457, 5471.541
894.3278, 5443.643
894.8099, 5395.670
895.2921, 5338.326
895.7742, 5300.598
896.2563, 5330.103
896.7384, 5387.092
897.2205, 5391.942
897.7026, 5358.644
898.1848, 5361.701
898.6669, 5422.509
899.1490, 5485.154
899.6311, 5494.854
900.1132, 5463.643
900.5953, 5431.513
901.0775, 5396.573
901.5596, 5384.658
902.0417, 5404.201
902.5238, 5432.272
903.0059, 5460.388
903.4880, 5482.797
903.9702, 5483.249
904.4523, 5447.195
904.9344, 5447.967
905.4165, 5521.619
905.8986, 5585.251
906.3807, 5622.577
906.8629, 5641.372
907.3450, 5643.170
907.8271, 5632.111
908.3092, 5620.895
908.7913, 5609.774
909.2734, 5604.987
909.7556, 5606.284
910.2377, 5617.724
910.7198, 5657.011
911.2019, 5705.218
911.6840, 5716.721
912.1661, 5682.713
912.6483, 5659.341
913.1304, 5707.836
913.6125, 5782.519
914.0946, 5810.106
914.5767, 5800.358
915.0588, 5778.376
915.5410, 5750.723
916.0231, 5730.904
916.5052, 5727.456
916.9873, 5736.371
917.4694, 5749.095
917.9515, 5765.352
918.4337, 5799.830
918.9158, 5861.319
919.3979, 5900.183
919.8800, 5895.657
920.3621, 5868.958
920.8442, 5837.049
921.3264, 5801.681
921.8085, 5782.616
922.2906, 5783.727
922.7727, 5795.059
923.2548, 5825.189
923.7369, 5855.224
924.2191, 5872.389
924.7012, 5885.638
925.1833, 5913.011
925.6654, 5957.688
926.1475, 5986.265
926.6296, 5972.139
927.1118, 5959.051
927.5939, 5967.281
928.0760, 5989.395
928.5581, 6030.012
929.0402, 6076.266
929.5223, 6085.980
930.0045, 6033.135
930.4866, 5991.730
930.9687, 6049.046
931.4508, 6148.698
931.9329, 6204.617
932.4150, 6223.636
932.8972, 6242.358
933.3793, 6270.373
933.8614, 6289.681
934.3435, 6281.318
934.8256, 6260.701
935.3077, 6265.950
935.7899, 6295.784
936.2720, 6335.033
936.7541, 6383.014
937.2362, 6427.858
937.7183, 6464.631
938.2004, 6491.980
938.6826, 6505.778
939.1647, 6505.543
939.6468, 6515.771
940.1289, 6538.795
940.6110, 6568.200
941.0931, 6621.521
941.5753, 6655.735
942.0574, 6614.750
942.5395, 6536.471
943.0216, 6528.188
943.5037, 6620.422
943.9858, 6689.585
944.4680, 6709.772
944.9501, 6725.044
945.4322, 6747.874
945.9143, 6776.840
946.3964, 6813.356
946.8785, 6854.601
947.3607, 6889.457
947.8428, 6913.308
948.3249, 6932.859
948.8070, 6944.966
949.2891, 6960.077
949.7712, 6989.110
950.2534, 7028.511
950.7355, 7071.015
951.2176, 7113.905
951.6997, 7155.434
952.1818, 7193.576
952.6639, 7230.115
953.1461, 7266.732
953.6282, 7303.619
954.1103, 7344.823
954.5924, 7387.906
955.0745, 7416.850
955.5566, 7423.686
956.0388, 7421.147
956.5209, 7417.890
957.0030, 7420.954
957.4851, 7476.829
957.9672, 7585.426
958.4493, 7677.464
958.9315, 7737.999
959.4136, 7774.935
959.8957, 7788.754
960.3778, 7794.426
960.8599, 7836.923
961.3420, 7931.945
961.8242, 7977.683
962.3063, 7948.294
962.7884, 7933.465
963.2705, 7969.963
963.7526, 8021.931
964.2347, 8051.725
964.7169, 8063.867
965.1990, 8092.287
965.6811, 8126.198
966.1632, 8193.775
966.6453, 8339.313
967.1274, 8467.582
967.6096, 8536.409
968.0917, 8567.436
968.5738, 8572.756
969.0559, 8558.313
969.5380, 8583.773
970.0201, 8726.484
970.5023, 8827.679
970.9844, 8780.452
971.4665, 8716.012
971.9486, 8749.134
972.4307, 8845.940
972.9128, 8921.094
973.3950, 8952.494
973.8771, 8983.984
974.3592, 9040.359
974.8413, 9109.867
975.3234, 9191.133
975.8055, 9274.083
976.2877, 9341.074
976.7698, 9394.715
977.2519, 9450.975
977.7340, 9517.196
978.2161, 9590.950
978.6982, 9672.697
979.1804, 9758.173
979.6625, 9842.196
980.1446, 9921.690
980.6267, 9983.914
981.1088, 10028.31
981.5909, 10077.47
982.0731, 10148.08
982.5552, 10225.20
983.0373, 10282.73
983.5194, 10322.32
984.0015, 10349.51
984.4836, 10364.94
984.9658, 10406.98
985.4479, 10489.58
985.9300, 10585.97
986.4121, 10673.14
986.8942, 10751.83
987.3763, 10821.34
987.8585, 10879.34
988.3406, 10946.92
988.8227, 11031.91
989.3048, 11102.82
989.7869, 11143.01
990.2690, 11167.74
990.7512, 11185.87
991.2333, 11201.72
991.7154, 11274.40
992.1975, 11452.52
992.6796, 11583.84
993.1617, 11633.72
993.6439, 11669.14
994.1260, 11716.08
994.6081, 11770.38
995.0902, 11825.36
995.5723, 11880.70
996.0544, 11945.17
996.5366, 12020.23
997.0187, 12103.33
997.5008, 12199.51
997.9829, 12298.15
998.4650, 12391.75
998.9471, 12484.50
999.4293, 12584.58
999.9114, 12693.86
1000.393, 12796.58
1000.876, 12889.48
1001.358, 12973.01
1001.840, 13043.59
1002.322, 13106.98
1002.804, 13154.59
1003.286, 13202.64
1003.768, 13296.79
1004.250, 13453.10
1004.733, 13580.48
1005.215, 13591.23
1005.697, 13596.32
1006.179, 13685.43
1006.661, 13813.98
1007.143, 13929.97
1007.625, 14026.10
1008.107, 14108.15
1008.589, 14176.34
1009.072, 14255.11
1009.554, 14379.67
1010.036, 14512.99
1010.518, 14615.93
1011.000, 14691.57
1011.482, 14738.59
1011.964, 14766.42
1012.446, 14807.65
1012.929, 14879.71
1013.411, 14979.58
1013.893, 15126.37
1014.375, 15287.27
1014.857, 15376.74
1015.339, 15420.59
1015.821, 15528.47
1016.303, 15715.31
1016.785, 15886.51
1017.268, 15976.72
1017.750, 16023.56
1018.232, 16082.03
1018.714, 16151.46
1019.196, 16229.98
1019.678, 16317.08
1020.160, 16411.90
1020.642, 16514.70
1021.125, 16622.59
1021.607, 16734.14
1022.089, 16849.31
1022.571, 16974.15
1023.053, 17107.63
1023.535, 17204.49
1024.017, 17260.94
1024.499, 17338.23
1024.981, 17456.73
1025.464, 17598.93
1025.946, 17756.46
1026.428, 17911.07
1026.910, 17992.19
1027.392, 17986.85
1027.874, 18032.61
1028.356, 18137.09
1028.838, 18285.04
1029.321, 18487.59
1029.803, 18684.29
1030.285, 18816.64
1030.767, 18895.46
1031.249, 18966.19
1031.731, 19021.84
1032.213, 19101.59
1032.695, 19227.20
1033.177, 19317.04
1033.660, 19306.16
1034.142, 19305.75
1034.624, 19440.35
1035.106, 19688.30
1035.588, 19911.09
1036.070, 20113.54
1036.552, 20276.91
1037.034, 20374.92
1037.516, 20480.26
1037.999, 20641.62
1038.481, 20797.55
1038.963, 20862.39
1039.445, 20854.73
1039.927, 20919.61
1040.409, 21112.17
1040.891, 21280.10
1041.373, 21396.26
1041.855, 21520.90
1042.338, 21695.84
1042.820, 21874.10
1043.302, 22000.34
1043.784, 22082.18
1044.266, 22182.85
1044.748, 22299.14
1045.230, 22442.36
1045.712, 22643.27
1046.195, 22834.38
1046.677, 22982.71
1047.159, 23113.37
1047.641, 23259.48
1048.123, 23416.09
1048.605, 23545.20
1049.087, 23623.78
1049.569, 23710.35
1050.052, 23804.33
1050.534, 23917.52
1051.016, 24054.60
1051.498, 24213.90
1051.980, 24410.69
1052.462, 24632.57
1052.944, 24810.68
1053.426, 24883.36
1053.908, 25013.88
1054.391, 25290.04
1054.873, 25572.33
1055.355, 25785.10
1055.837, 25970.37
1056.319, 26200.04
1056.801, 26457.71
1057.283, 26634.40
1057.765, 26644.60
1058.248, 26714.07
1058.730, 26976.84
1059.212, 27239.33
1059.694, 27392.78
1060.176, 27488.25
1060.658, 27574.48
1061.140, 27664.45
1061.622, 27773.89
1062.104, 27898.47
1062.587, 28066.39
1063.069, 28341.61
1063.551, 28600.78
1064.033, 28755.46
1064.515, 28866.36
1064.997, 28992.82
1065.479, 29144.91
1065.961, 29331.02
1066.443, 29570.08
1066.926, 29780.91
1067.408, 29893.16
1067.890, 30009.68
1068.372, 30182.88
1068.854, 30400.97
1069.336, 30669.23
1069.818, 30965.56
1070.300, 31231.01
1070.782, 31443.24
1071.265, 31657.41
1071.747, 31921.40
1072.229, 32169.35
1072.711, 32342.49
1073.193, 32493.72
1073.675, 32654.17
1074.157, 32846.33
1074.639, 33125.19
1075.122, 33520.91
1075.604, 33888.89
1076.086, 34144.26
1076.568, 34375.75
1077.050, 34604.22
1077.532, 34859.95
1078.014, 35174.16
1078.496, 35539.55
1078.979, 35932.86
1079.461, 36349.23
1079.943, 36776.45
1080.425, 37251.98
1080.907, 37679.23
1081.389, 37994.68
1081.871, 38242.67
1082.353, 38506.91
1082.835, 38725.48
1083.318, 38733.47
1083.800, 38497.26
1084.282, 38262.62
1084.764, 38129.76
1085.246, 38031.07
1085.728, 37933.12
1086.210, 37854.49
1086.692, 37798.39
1087.175, 37779.22
1087.657, 37831.63
1088.139, 37956.46
1088.621, 38082.25
1089.103, 38197.03
1089.585, 38283.82
1090.067, 38301.19
1090.549, 38321.31
1091.031, 38379.75
1091.514, 38487.96
1091.996, 38663.89
1092.478, 38904.52
1092.960, 39174.18
1093.442, 39510.63
1093.924, 39780.84
1094.406, 39890.60
1094.888, 39969.54
1095.370, 40116.74
1095.853, 40275.07
1096.335, 40352.21
1096.817, 40359.70
1097.299, 40396.54
1097.781, 40488.78
1098.263, 40613.29
1098.745, 40802.71
1099.227, 40976.32
1099.709, 41051.28
1100.192, 41120.45
1100.674, 41300.31
1101.156, 41562.62
1101.638, 41786.83
1102.120, 41942.90
1102.602, 42088.10
1103.084, 42243.48
1103.566, 42381.14
1104.049, 42472.93
1104.531, 42557.38
1105.013, 42651.08
1105.495, 42767.56
1105.977, 42935.59
1106.459, 43164.05
1106.941, 43408.50
1107.423, 43700.68
1107.906, 43953.94
1108.388, 44107.68
1108.870, 44253.04
1109.352, 44477.38
1109.834, 44721.59
1110.316, 44860.61
1110.798, 44881.93
1111.280, 44970.57
1111.762, 45203.00
1112.245, 45411.59
1112.727, 45547.46
1113.209, 45689.45
1113.691, 45857.98
1114.173, 46064.07
1114.655, 46350.88
1115.137, 46706.25
1115.619, 46979.44
1116.102, 47095.77
1116.584, 47260.02
1117.066, 47491.05
1117.548, 47745.77
1118.030, 48029.77
1118.512, 48310.77
1118.994, 48561.45
1119.476, 48784.39
1119.958, 48983.19
1120.441, 49117.71
1120.923, 49362.36
1121.405, 49767.49
1121.887, 50174.63
1122.369, 50561.48
1122.851, 50901.70
1123.333, 51159.39
1123.815, 51373.44
1124.297, 51631.25
1124.780, 51935.56
1125.262, 52235.70
1125.744, 52519.19
1126.226, 52848.43
1126.708, 53252.60
1127.190, 53635.10
1127.672, 53926.98
1128.154, 54210.09
1128.636, 54615.42
1129.119, 55121.87
1129.601, 55530.32
1130.083, 55827.45
1130.565, 56209.41
1131.047, 56705.83
1131.529, 57173.60
1132.011, 57549.99
1132.493, 57895.39
1132.976, 58262.18
1133.458, 58662.66
1133.940, 59154.76
1134.422, 59728.30
1134.904, 60233.60
1135.386, 60667.57
1135.868, 61117.55
1136.350, 61607.94
1136.833, 62146.89
1137.315, 62749.95
1137.797, 63358.92
1138.279, 63835.46
1138.761, 64243.56
1139.243, 64817.07
1139.725, 65524.10
1140.207, 66236.82
1140.689, 66929.27
1141.172, 67588.45
1141.654, 68210.95
1142.136, 68830.30
1142.618, 69464.53
1143.100, 70132.35
1143.582, 70885.43
1144.064, 71685.84
1144.546, 72436.12
1145.029, 73162.14
1145.511, 73983.99
1145.993, 74927.50
1146.475, 75870.51
1146.957, 76727.04
1147.439, 77559.77
1147.921, 78402.49
1148.403, 79281.10
1148.885, 80228.51
1149.368, 81222.89
1149.850, 82236.69
1150.332, 83250.86
1150.814, 84242.12
1151.296, 85182.77
1151.778, 86163.48
1152.260, 87262.12
1152.742, 88382.73
1153.224, 89465.30
1153.707, 90544.96
1154.189, 91682.83
1154.671, 92849.24
1155.153, 93939.62
1155.635, 94935.41
1156.117, 96048.89
1156.599, 97444.19
1157.081, 98829.44
1157.563, 100150.1
1158.046, 101394.3
1158.528, 102445.3
1159.010, 103477.4
1159.492, 104745.3
1159.974, 106228.6
1160.456, 107705.8
1160.938, 109170.1
1161.420, 110604.2
1161.903, 111993.0
1162.385, 113366.1
1162.867, 114729.4
1163.349, 116082.9
1163.831, 117427.4
1164.313, 118763.1
1164.795, 120061.5
1165.277, 121307.7
1165.760, 122697.9
1166.242, 124306.2
1166.724, 125816.8
1167.206, 127149.1
1167.688, 128456.4
1168.170, 129802.3
1168.652, 131186.9
1169.134, 132612.7
1169.616, 134063.5
1170.099, 135444.3
1170.581, 136756.8
1171.063, 138065.8
1171.545, 139380.3
1172.027, 140662.5
1172.509, 141910.8
1172.991, 143159.3
1173.473, 144436.9
1173.956, 145733.4
1174.438, 147048.6
1174.920, 148365.7
1175.402, 149576.6
1175.884, 150728.4
1176.366, 152006.1
1176.848, 153417.9
1177.330, 154828.4
1177.813, 156182.2
1178.295, 157494.9
1178.777, 158763.0
1179.259, 160053.8
1179.741, 161525.7
1180.223, 163017.6
1180.705, 164235.3
1181.187, 165297.4
1181.669, 166453.4
1182.151, 167745.6
1182.634, 169077.0
1183.116, 170388.0
1183.598, 171766.6
1184.080, 173312.6
1184.562, 174877.7
1185.044, 176344.3
1185.526, 177790.9
1186.008, 179297.7
1186.490, 180862.1
1186.973, 182488.6
1187.455, 184179.0
1187.937, 185784.6
1188.419, 187178.9
1188.901, 188642.6
1189.383, 190236.0
1189.865, 191913.3
1190.347, 193696.4
1190.830, 195507.5
1191.312, 197255.2
1191.794, 198957.4
1192.276, 200719.2
1192.758, 202570.4
1193.240, 204396.8
1193.722, 206193.5
1194.204, 207954.5
1194.687, 209640.1
1195.169, 211420.4
1195.651, 213430.5
1196.133, 215546.7
1196.615, 217573.5
1197.097, 219531.9
1197.579, 221624.5
1198.061, 223848.7
1198.543, 225914.0
1199.026, 227807.6
1199.508, 229663.6
1199.990, 231525.8
1200.472, 233552.3
1200.954, 235866.9
1201.436, 238322.7
1201.918, 240755.0
1202.400, 243151.5
1202.883, 245444.9
1203.365, 247682.5
1203.847, 249947.3
1204.329, 252264.3
1204.811, 254691.3
1205.293, 257239.0
1205.775, 259797.5
1206.257, 262331.6
1206.740, 264795.8
1207.222, 267073.8
1207.704, 269349.4
1208.186, 271727.7
1208.668, 274253.5
1209.150, 277053.1
1209.632, 280070.8
1210.114, 283030.4
1210.596, 285870.1
1211.078, 288621.1
1211.561, 291139.8
1212.043, 293814.1
1212.525, 296876.6
1213.007, 300007.3
1213.489, 302995.7
1213.971, 305926.7
1214.453, 308896.3
1214.935, 311904.9
1215.417, 314997.8
1215.900, 318161.4
1216.382, 321496.3
1216.864, 325098.9
1217.346, 328330.9
1217.828, 330931.6
1218.310, 333434.2
1218.792, 336260.0
1219.274, 339309.0
1219.757, 342449.7
1220.239, 345670.5
1220.721, 349042.8
1221.203, 352503.9
1221.685, 355616.4
1222.167, 358414.8
1222.649, 361384.5
1223.131, 364695.3
1223.614, 368053.9
1224.096, 371235.6
1224.578, 374390.6
1225.060, 377790.3
1225.542, 381160.4
1226.024, 384063.1
1226.506, 386750.9
1226.988, 389597.7
1227.470, 392604.2
1227.953, 395653.3
1228.435, 398699.8
1228.917, 401557.8
1229.399, 403976.8
1229.881, 406422.5
1230.363, 409150.8
1230.845, 411859.7
1231.327, 414355.8
1231.810, 416750.1
1232.292, 419187.5
1232.774, 421654.0
1233.256, 424104.3
1233.738, 426662.3
1234.220, 428597.3
1234.702, 429591.6
1235.184, 431008.3
1235.667, 433206.4
1236.149, 435411.6
1236.631, 437232.5
1237.113, 438809.5
1237.595, 440308.6
1238.077, 441710.4
1238.559, 442956.5
1239.041, 444071.5
1239.523, 445191.4
1240.005, 446313.3
1240.488, 447317.3
1240.970, 448205.1
1241.452, 449103.7
1241.934, 450082.3
1242.416, 451196.6
1242.898, 452626.3
1243.380, 454068.4
1243.862, 455076.9
1244.344, 456059.3
1244.827, 457559.4
1245.309, 459340.3
1245.791, 460989.9
1246.273, 462451.8
1246.755, 463795.3
1247.237, 464926.2
1247.719, 466333.1
1248.201, 468246.7
1248.684, 470289.5
1249.166, 472475.9
1249.648, 474605.0
1250.130, 476411.3
1250.612, 478234.2
1251.094, 480505.7
1251.576, 483222.9
1252.058, 486401.4
1252.541, 490146.7
1253.023, 493473.4
1253.505, 496290.4
1253.987, 499780.0
1254.469, 504236.3
1254.951, 508861.1
1255.433, 513195.8
1255.915, 517460.4
1256.397, 521862.4
1256.880, 526466.1
1257.362, 531456.1
1257.844, 536674.0
1258.326, 541812.8
1258.808, 546880.4
1259.290, 551968.9
1259.772, 557118.7
1260.254, 562526.4
1260.737, 568304.4
1261.219, 573947.8
1261.701, 579243.7
1262.183, 584264.9
1262.665, 588880.7
1263.147, 593443.5
1263.629, 598369.4
1264.111, 603302.4
1264.594, 607754.9
1265.076, 611734.4
1265.558, 615402.1
1266.040, 618674.3
1266.522, 621980.3
1267.004, 625485.2
1267.486, 628412.2
1267.968, 630531.9
1268.450, 632461.3
1268.932, 634508.1
1269.415, 636575.7
1269.897, 638630.2
1270.379, 640508.5
1270.861, 641615.3
1271.343, 642303.8
1271.825, 643734.3
1272.307, 645693.1
1272.789, 647376.3
1273.271, 648725.5
1273.754, 650162.4
1274.236, 651848.1
1274.718, 653476.8
1275.200, 654682.3
1275.682, 656041.9
1276.164, 657884.1
1276.646, 660014.7
1277.128, 662434.6
1277.611, 664954.6
1278.093, 667429.3
1278.575, 669821.0
1279.057, 671935.2
1279.539, 673730.1
1280.021, 675882.4
1280.503, 678462.9
1280.985, 680798.9
1281.468, 682977.8
1281.950, 685123.6
1282.432, 687281.7
1282.914, 689287.1
1283.396, 691027.8
1283.878, 692544.4
1284.360, 693927.3
1284.842, 694832.8
1285.324, 694409.2
##END=



