##NAMES=Arsenopyrite
##RRUFFID=R061082
##IDEAL CHEMISTRY=Fe^3+^(AsS)^3-^
##LOCALITY=Little Gem mine, Goldbridge, British Columbia, Canada
##OWNER=RRUFF
##SOURCE=Lloyd Twaites
##DESCRIPTION=Silver gray metallic fragments
##STATUS=The identification of this mineral has been confirmed by X-ray diffraction and chemical analysis
##URL=rruff.info/R061082
##MEASURED CHEMISTRY=Fe_1.00_As_1.00_S_1.00_
132.1714, 0.0000000E+00
132.6535, 1.718092
133.1356, 4.980446
133.6177, 9.208951
134.0998, 12.91631
134.5819, 17.15732
135.0640, 20.13725
135.5462, 21.33689
136.0283, 20.89388
136.5104, 25.18728
136.9925, 20.46451
137.4746, 12.63944
137.9567, 8.710880
138.4389, 11.92634
138.9210, 21.45295
139.4031, 22.57897
139.8852, 11.70015
140.3673, 1.233005
140.8494, 3.381960
141.3316, 10.47671
141.8137, 21.38528
142.2958, 23.11548
142.7779, 13.36343
143.2600, 8.319400
143.7421, 9.794289
144.2243, 14.75308
144.7064, 17.70890
145.1885, 16.83598
145.6706, 16.59522
146.1527, 19.03676
146.6348, 28.23714
147.1170, 34.65856
147.5991, 31.12952
148.0812, 22.60496
148.5633, 18.24155
149.0454, 23.49137
149.5275, 28.44059
150.0097, 28.50652
150.4918, 16.22264
150.9739, 7.760200
151.4560, 4.570508
151.9381, 6.206097
152.4202, 9.030381
152.9024, 15.12829
153.3845, 21.00718
153.8666, 24.44633
154.3487, 22.03226
154.8308, 20.27923
155.3129, 21.25416
155.7950, 25.12070
156.2772, 27.13473
156.7593, 24.69881
157.2414, 20.66020
157.7235, 17.76632
158.2056, 16.89689
158.6877, 17.07417
159.1699, 19.28639
159.6520, 24.61794
160.1341, 25.92644
160.6162, 14.75817
161.0983, 0.7406850
161.5804, 8.856658
162.0626, 2.517979
162.5447, 17.40950
163.0268, 25.10107
163.5089, 22.64430
163.9910, 19.59120
164.4731, 21.39739
164.9553, 25.92601
165.4374, 28.50296
165.9195, 24.40795
166.4016, 18.84579
166.8837, 16.29419
167.3658, 19.46150
167.8480, 22.57792
168.3301, 20.74446
168.8122, 15.27312
169.2943, 11.02089
169.7764, 13.02941
170.2585, 17.11463
170.7407, 18.02062
171.2228, 11.17986
171.7049, 4.243006
172.1870, 5.750977
172.6691, 14.67520
173.1512, 22.49002
173.6334, 20.44449
174.1155, 13.60783
174.5976, 10.66743
175.0797, 18.71251
175.5618, 29.46042
176.0439, 32.14135
176.5260, 26.76370
177.0082, 20.16507
177.4903, 18.45911
177.9724, 20.14152
178.4545, 21.39017
178.9366, 20.16624
179.4187, 17.67288
179.9009, 15.83849
180.3830, 14.65013
180.8651, 14.20840
181.3472, 15.59622
181.8293, 17.62309
182.3114, 19.11120
182.7936, 18.60641
183.2757, 17.02841
183.7578, 16.81916
184.2399, 18.25745
184.7220, 20.44785
185.2041, 22.47042
185.6863, 24.30515
186.1684, 25.59900
186.6505, 26.83080
187.1326, 27.53091
187.6147, 25.35901
188.0968, 19.39559
188.5790, 12.03144
189.0611, 6.448833
189.5432, 2.684074
190.0253, 1.553902
190.5074, 6.251260
190.9895, 15.49657
191.4717, 18.25443
191.9538, 11.15134
192.4359, 0.6342800
192.9180, 4.997577
193.4001, 1.477856
193.8822, 4.260476
194.3644, 8.673321
194.8465, 11.95405
195.3286, 14.02268
195.8107, 14.83798
196.2928, 14.74781
196.7749, 14.93325
197.2570, 15.49655
197.7392, 15.83547
198.2213, 15.39266
198.7034, 14.22777
199.1855, 12.21855
199.6676, 7.935365
200.1497, 2.428939
200.6319, 2.053850
201.1140, 8.300620
201.5961, 15.12323
202.0782, 15.79182
202.5603, 9.124562
203.0424, 3.790256
203.5246, 2.620149
204.0067, 5.086521
204.4888, 5.852516
204.9709, 4.094821
205.4530, 2.004714
205.9352, 2.186538
206.4173, 5.178241
206.8994, 8.305901
207.3815, 11.15927
207.8636, 13.77637
208.3457, 14.23542
208.8279, 11.52546
209.3100, 8.178560
209.7921, 7.655141
210.2742, 10.76229
210.7563, 14.23656
211.2384, 17.26303
211.7206, 19.93274
212.2027, 21.68233
212.6848, 22.90432
213.1669, 22.77108
213.6490, 19.32481
214.1311, 10.61103
214.6133, 3.478560
215.0954, 0.6343670
215.5775, 2.954658
216.0596, 4.828849
216.5417, 6.220864
217.0238, 7.208255
217.5059, 8.463089
217.9881, 10.17629
218.4702, 12.04650
218.9523, 14.02487
219.4344, 14.94313
219.9165, 16.38056
220.3986, 18.09765
220.8808, 19.89740
221.3629, 21.99473
221.8450, 24.73588
222.3271, 25.75251
222.8092, 24.61199
223.2913, 19.90729
223.7735, 16.96719
224.2556, 16.05922
224.7377, 16.80699
225.2198, 18.49704
225.7019, 21.85078
226.1840, 25.01390
226.6662, 27.35884
227.1483, 29.24611
227.6304, 29.41919
228.1125, 27.87657
228.5946, 24.63660
229.0767, 18.96148
229.5589, 7.411355
230.0410, 1.424128
230.5231, 2.647511
231.0052, 9.327512
231.4873, 16.43320
231.9694, 16.23581
232.4516, 11.17721
232.9337, 9.467756
233.4158, 13.42634
233.8979, 17.44406
234.3800, 18.37116
234.8621, 13.91292
235.3443, 11.33110
235.8264, 11.53672
236.3085, 13.81288
236.7906, 15.68764
237.2727, 17.83204
237.7548, 18.68249
238.2369, 16.93287
238.7191, 9.835538
239.2012, 5.948415
239.6833, 7.265077
240.1654, 12.23512
240.6475, 14.04390
241.1296, 10.36364
241.6118, 6.585564
242.0939, 5.906070
242.5760, 10.14495
243.0581, 13.76804
243.5402, 16.81721
244.0223, 19.02143
244.5045, 18.89375
244.9866, 14.44371
245.4687, 10.28569
245.9508, 9.407961
246.4329, 13.77801
246.9150, 17.28577
247.3972, 19.50682
247.8793, 20.51030
248.3614, 20.51466
248.8435, 18.40985
249.3256, 16.78427
249.8077, 17.96097
250.2899, 25.47849
250.7720, 27.02931
251.2541, 18.48697
251.7362, 2.956480
252.2183, 2.135906
252.7004, 8.900440
253.1826, 22.35903
253.6647, 29.77871
254.1468, 29.51182
254.6289, 26.46978
255.1110, 18.38373
255.5931, 7.380173
256.0753, 6.144763
256.5574, 19.83442
257.0395, 35.15094
257.5216, 43.65631
258.0037, 44.09699
258.4858, 40.98486
258.9680, 33.64853
259.4501, 22.98818
259.9322, 13.07515
260.4143, 2.936654
260.8964, 4.749167
261.3785, 8.022995
261.8607, 6.121562
262.3428, 1.960267
262.8249, 5.307472
263.3070, 14.55690
263.7891, 21.34638
264.2712, 25.22328
264.7534, 27.32380
265.2355, 28.60014
265.7176, 29.73573
266.1997, 27.01951
266.6818, 17.62328
267.1639, 4.649053
267.6461, 0.7062830
268.1282, 8.689081
268.6103, 18.79779
269.0924, 25.65792
269.5745, 29.19276
270.0566, 29.11760
270.5387, 23.93656
271.0208, 15.75555
271.5030, 12.03035
271.9851, 14.36762
272.4672, 16.41031
272.9493, 13.08671
273.4314, 3.076732
273.9135, 2.378447
274.3957, 0.6847410
274.8778, 5.030240
275.3599, 5.050355
275.8420, 2.519409
276.3241, 8.252112
276.8062, 3.579874
277.2884, 12.96145
277.7705, 19.25280
278.2526, 9.900302
278.7347, 6.643170
279.2168, 9.557827
279.6989, 3.199948
280.1811, 17.78502
280.6632, 26.93676
281.1453, 30.64549
281.6274, 32.04627
282.1095, 31.00669
282.5916, 28.26388
283.0738, 24.45991
283.5559, 19.38985
284.0380, 15.82821
284.5201, 15.91926
285.0022, 19.35039
285.4843, 22.98447
285.9665, 27.11770
286.4486, 30.37449
286.9307, 29.37968
287.4128, 24.18968
287.8949, 19.58021
288.3770, 19.19936
288.8592, 22.32453
289.3413, 23.27335
289.8234, 21.43903
290.3055, 18.48127
290.7876, 16.21482
291.2697, 14.70136
291.7519, 14.72039
292.2340, 17.42376
292.7161, 22.05089
293.1982, 26.61613
293.6803, 31.37545
294.1624, 34.67194
294.6446, 33.75537
295.1267, 29.26008
295.6088, 24.14440
296.0909, 18.59947
296.5730, 13.60842
297.0551, 11.57416
297.5373, 12.80848
298.0194, 14.85174
298.5015, 14.97132
298.9836, 13.76781
299.4657, 13.05349
299.9478, 13.74349
300.4300, 15.35074
300.9121, 17.36667
301.3942, 19.78438
301.8763, 22.13724
302.3584, 24.77581
302.8405, 27.02302
303.3227, 27.41191
303.8048, 24.11625
304.2869, 19.43501
304.7690, 14.73454
305.2511, 10.13611
305.7332, 8.241582
306.2154, 13.63653
306.6975, 22.38577
307.1796, 28.80486
307.6617, 30.96476
308.1438, 29.91101
308.6259, 24.45877
309.1081, 15.35304
309.5901, 8.382193
310.0723, 7.998495
310.5544, 11.33334
311.0365, 14.69859
311.5186, 16.52612
312.0007, 18.82734
312.4828, 24.43267
312.9650, 32.14705
313.4471, 37.00264
313.9292, 34.74821
314.4113, 29.47308
314.8934, 24.34940
315.3755, 19.75798
315.8577, 15.94708
316.3398, 12.40769
316.8219, 9.667567
317.3040, 9.327326
317.7861, 15.23093
318.2682, 21.52461
318.7504, 24.10489
319.2325, 20.41290
319.7146, 17.44137
320.1967, 17.19532
320.6788, 19.04649
321.1609, 21.83038
321.6431, 28.46822
322.1252, 33.63466
322.6073, 34.44449
323.0894, 28.56117
323.5715, 23.27732
324.0536, 18.61314
324.5358, 15.40995
325.0179, 14.89496
325.5000, 19.94179
325.9821, 25.15956
326.4642, 29.15204
326.9464, 31.75578
327.4285, 33.55664
327.9106, 34.76802
328.3927, 35.10445
328.8748, 34.19509
329.3569, 30.75716
329.8391, 27.65727
330.3212, 25.37831
330.8033, 23.92991
331.2854, 23.12153
331.7675, 22.70239
332.2496, 23.12926
332.7318, 24.78947
333.2139, 29.26747
333.6960, 31.72728
334.1781, 31.38082
334.6602, 28.76712
335.1423, 25.64870
335.6245, 21.48364
336.1066, 17.27614
336.5887, 12.79897
337.0708, 7.427662
337.5529, 6.019127
338.0350, 10.01034
338.5172, 17.35461
338.9993, 19.01763
339.4814, 8.586009
339.9635, 13.63990
340.4456, 16.35774
340.9277, 16.86501
341.4099, 8.541107
341.8920, 11.62453
342.3741, 10.13805
342.8562, 8.464377
343.3383, 13.15409
343.8204, 6.118505
344.3026, 5.003219
344.7847, 8.209649
345.2668, 14.01897
345.7489, 23.09249
346.2310, 31.61957
346.7131, 32.53090
347.1953, 26.85208
347.6774, 22.51149
348.1595, 24.95218
348.6416, 30.83199
349.1237, 32.45313
349.6058, 29.83727
350.0880, 26.06819
350.5700, 24.42757
351.0522, 24.08284
351.5343, 22.70915
352.0164, 18.72514
352.4985, 13.71808
352.9806, 8.756447
353.4627, 4.020327
353.9449, 1.868045
354.4270, 5.892239
354.9091, 13.08552
355.3912, 19.54818
355.8733, 25.37103
356.3554, 24.18692
356.8376, 28.78626
357.3197, 31.04952
357.8018, 31.10217
358.2839, 22.32273
358.7660, 24.94834
359.2481, 23.00344
359.7303, 20.87111
360.2124, 25.10216
360.6945, 17.60786
361.1766, 21.73818
361.6587, 21.22831
362.1408, 22.84224
362.6230, 19.85736
363.1051, 19.16751
363.5872, 23.28449
364.0693, 25.89905
364.5514, 24.26284
365.0335, 20.80184
365.5157, 18.63765
365.9978, 19.16366
366.4799, 20.18713
366.9620, 21.60148
367.4441, 23.60950
367.9262, 24.08352
368.4084, 20.66141
368.8905, 16.95926
369.3726, 15.96278
369.8547, 21.40244
370.3368, 24.60440
370.8189, 23.03682
371.3011, 17.19223
371.7832, 13.76370
372.2653, 14.49678
372.7474, 15.37203
373.2295, 13.29354
373.7116, 5.510957
374.1938, 2.842756
374.6759, 8.565550
375.1580, 18.37852
375.6401, 20.62922
376.1222, 12.92640
376.6043, 4.986218
377.0865, 1.726138
377.5686, 3.569342
378.0507, 3.862936
378.5328, 1.283409
379.0149, 2.088547
379.4970, 3.559190
379.9792, 3.128926
380.4613, 0.1860570
380.9434, 9.384719
381.4255, 21.81310
381.9076, 25.80081
382.3897, 20.84474
382.8719, 13.36702
383.3540, 9.221101
383.8361, 7.727901
384.3182, 6.609415
384.8003, 4.903515
385.2824, 3.573515
385.7646, 5.052829
386.2467, 8.831635
386.7288, 11.32151
387.2109, 6.968135
387.6930, 0.7345760
388.1751, 0.8458800
388.6573, 11.44650
389.1394, 21.84431
389.6215, 23.00606
390.1036, 17.27034
390.5857, 10.17978
391.0678, 1.030413
391.5499, 6.281231
392.0320, 8.338875
392.5142, 4.113486
392.9963, 0.8663440
393.4784, 4.411474
393.9605, 7.469885
394.4426, 11.23076
394.9247, 14.04367
395.4069, 19.20273
395.8890, 21.98411
396.3711, 22.51555
396.8532, 14.05872
397.3353, 17.20792
397.8174, 15.70566
398.2996, 14.01243
398.7817, 18.97900
399.2638, 12.32668
399.7459, 17.10688
400.2280, 17.06425
400.7101, 19.18258
401.1923, 16.62064
401.6744, 15.50396
402.1565, 19.06850
402.6386, 20.04059
403.1207, 16.93887
403.6028, 19.19296
404.0850, 11.43834
404.5671, 6.527174
405.0492, 2.034884
405.5313, 6.748181
406.0134, 4.347088
406.4955, 4.491337
406.9777, 12.83096
407.4598, 20.82733
407.9419, 27.75553
408.4240, 32.92453
408.9061, 36.33347
409.3882, 38.04726
409.8704, 37.81334
410.3525, 36.17474
410.8346, 34.14589
411.3167, 31.72017
411.7988, 28.87143
412.2809, 25.02789
412.7631, 20.87659
413.2452, 17.74679
413.7273, 15.77984
414.2094, 15.05879
414.6915, 15.23748
415.1736, 16.71991
415.6558, 20.46960
416.1379, 32.02304
416.6200, 42.59535
417.1021, 42.75935
417.5842, 32.30563
418.0663, 22.58227
418.5485, 21.53376
419.0306, 23.81165
419.5127, 24.07297
419.9948, 17.91848
420.4769, 12.42511
420.9590, 9.889038
421.4412, 9.890766
421.9233, 10.89098
422.4054, 14.65146
422.8875, 17.68944
423.3696, 18.05629
423.8517, 13.16547
424.3339, 10.28095
424.8160, 11.51812
425.2981, 14.30015
425.7802, 14.70833
426.2623, 11.34986
426.7444, 7.476590
427.2266, 2.762301
427.7087, 3.174191
428.1908, 2.389245
428.6729, 9.221503
429.1550, 21.11123
429.6371, 21.99142
430.1193, 8.903048
430.6014, 1.037588
431.0835, 2.935032
431.5656, 10.66603
432.0477, 12.30969
432.5298, 7.264264
433.0119, 2.990168
433.4940, 6.500430
433.9762, 15.43226
434.4583, 16.04838
434.9404, 5.750372
435.4225, 5.063956
435.9046, 1.623766
436.3867, 12.36873
436.8689, 24.89835
437.3510, 32.17924
437.8331, 34.88248
438.3152, 32.23229
438.7973, 24.47951
439.2794, 16.57873
439.7616, 10.84948
440.2437, 7.257727
440.7258, 5.790641
441.2079, 6.967797
441.6900, 9.357573
442.1721, 13.51465
442.6543, 18.37242
443.1364, 21.45864
443.6185, 21.21514
444.1006, 19.56948
444.5827, 16.66086
445.0648, 11.64690
445.5470, 9.386606
446.0291, 13.02826
446.5112, 18.69845
446.9933, 22.32439
447.4754, 21.69950
447.9576, 21.90718
448.4397, 24.67339
448.9218, 29.19679
449.4039, 29.78820
449.8860, 25.80283
450.3681, 19.99459
450.8503, 12.10711
451.3324, 0.4203140
451.8145, 3.839597
452.2966, 5.335056
452.7787, 19.09076
453.2608, 23.22502
453.7430, 17.23580
454.2251, 10.99984
454.7072, 8.683683
455.1893, 8.976916
455.6714, 5.522592
456.1535, 1.829478
456.6357, 6.798692
457.1178, 0.4775570
457.5999, 12.56359
458.0820, 20.98831
458.5641, 21.07527
459.0462, 17.83771
459.5284, 15.70707
460.0105, 14.56021
460.4926, 13.95352
460.9747, 14.72561
461.4568, 15.26077
461.9389, 12.86026
462.4211, 6.612784
462.9032, 4.104434
463.3853, 14.61505
463.8674, 28.75430
464.3495, 36.45000
464.8316, 27.18334
465.3138, 19.07522
465.7959, 17.23439
466.2780, 20.65786
466.7601, 22.55371
467.2422, 21.72350
467.7243, 20.08411
468.2065, 17.98651
468.6886, 14.40590
469.1707, 15.73344
469.6528, 25.49984
470.1349, 37.29277
470.6170, 41.28263
471.0992, 35.22071
471.5813, 28.94203
472.0634, 24.72404
472.5455, 22.42639
473.0276, 22.44506
473.5097, 25.33357
473.9918, 26.74294
474.4739, 19.45243
474.9561, 6.273955
475.4382, 4.695765
475.9203, 20.21210
476.4024, 38.45947
476.8845, 37.86473
477.3666, 23.33694
477.8488, 11.06606
478.3309, 11.43278
478.8130, 16.64344
479.2951, 18.27569
479.7772, 16.26193
480.2593, 13.99511
480.7415, 11.57220
481.2236, 10.82629
481.7057, 13.98743
482.1878, 26.16364
482.6699, 35.39112
483.1520, 35.54989
483.6342, 29.73578
484.1163, 25.07098
484.5984, 25.82963
485.0805, 25.19457
485.5626, 19.26992
486.0447, 5.830483
486.5269, 0.7457120
487.0090, 3.577946
487.4911, 10.70518
487.9732, 13.36350
488.4553, 9.093196
488.9374, 7.402666
489.4196, 10.42376
489.9017, 16.07148
490.3838, 17.80385
490.8659, 15.27874
491.3480, 12.76345
491.8301, 14.03779
492.3123, 18.27257
492.7944, 19.88296
493.2765, 18.15985
493.7586, 15.79734
494.2407, 14.77295
494.7228, 14.58055
495.2050, 14.29798
495.6871, 13.07442
496.1692, 12.44420
496.6513, 15.08845
497.1334, 19.98276
497.6155, 23.51438
498.0977, 21.79684
498.5798, 19.35416
499.0619, 20.41753
499.5440, 26.56618
500.0261, 30.01148
500.5082, 24.71738
500.9904, 16.82372
501.4725, 12.67718
501.9546, 18.54164
502.4367, 22.23949
502.9188, 20.46309
503.4009, 14.66268
503.8831, 11.03381
504.3652, 10.68647
504.8473, 10.93843
505.3294, 10.42247
505.8115, 8.669624
506.2936, 9.166518
506.7758, 12.96439
507.2579, 17.02992
507.7400, 16.79525
508.2221, 12.16584
508.7042, 9.538122
509.1863, 11.13759
509.6685, 14.64642
510.1506, 15.99722
510.6327, 15.03295
511.1148, 13.15037
511.5969, 11.00152
512.0790, 8.587119
512.5612, 5.370913
513.0433, 1.080280
513.5254, 1.809954
514.0075, 0.6927640
514.4896, 2.377737
514.9717, 5.539093
515.4539, 7.574038
515.9360, 9.225748
516.4181, 10.51294
516.9002, 11.61475
517.3823, 13.17243
517.8644, 17.77310
518.3466, 20.77485
518.8287, 19.29209
519.3108, 11.13483
519.7929, 6.663036
520.2750, 7.435156
520.7571, 10.55634
521.2393, 13.34630
521.7214, 16.03114
522.2035, 17.96281
522.6856, 19.85548
523.1677, 20.41472
523.6498, 13.42811
524.1320, 2.004442
524.6141, 13.29544
525.0962, 9.652657
525.5783, 4.065499
526.0604, 10.17265
526.5425, 7.844538
527.0247, 4.226782
527.5068, 5.651352
527.9889, 10.52609
528.4710, 16.38410
528.9531, 24.91050
529.4352, 30.47989
529.9174, 26.70324
530.3995, 16.54720
530.8816, 7.867869
531.3637, 2.323345
531.8458, 0.1151530
532.3279, 2.855091
532.8101, 11.46831
533.2922, 16.99015
533.7743, 16.20137
534.2564, 12.95027
534.7385, 9.811413
535.2206, 4.921862
535.7027, 3.867674
536.1848, 9.425129
536.6669, 17.50167
537.1490, 17.58717
537.6312, 6.678190
538.1133, 0.2775650
538.5954, 6.655313
539.0775, 22.60277
539.5596, 29.97470
540.0417, 28.42539
540.5239, 24.15245
541.0060, 21.90938
541.4881, 20.55840
541.9702, 15.33250
542.4523, 3.660084
542.9344, 5.281353
543.4166, 2.111488
543.8987, 17.95597
544.3808, 27.66084
544.8629, 16.71310
545.3450, 5.527246
545.8271, 8.894262
546.3093, 24.47626
546.7914, 32.21374
547.2735, 16.35502
547.7556, 0.7287540
548.2377, 6.619498
548.7198, 5.204559
549.2020, 14.76415
549.6841, 22.37478
550.1662, 27.48950
550.6483, 29.29347
551.1304, 27.43202
551.6125, 22.86282
552.0947, 13.68064
552.5768, 3.104280
553.0589, 3.258793
553.5410, 14.82295
554.0231, 24.97835
554.5052, 23.89803
554.9874, 15.83992
555.4695, 14.31097
555.9516, 20.04225
556.4337, 24.92140
556.9158, 17.95287
557.3979, 6.592329
557.8801, 2.546139
558.3622, 13.64470
558.8443, 24.45304
559.3264, 24.31737
559.8085, 17.59525
560.2906, 13.16906
560.7728, 15.63619
561.2549, 18.97928
561.7370, 21.26621
562.2191, 22.36143
562.7012, 23.18323
563.1833, 23.73843
563.6655, 24.02241
564.1476, 24.15864
564.6297, 24.46407
565.1118, 23.39625
565.5939, 20.51843
566.0760, 16.88711
566.5582, 13.80921
567.0403, 11.25337
567.5224, 10.03635
568.0045, 10.88077
568.4866, 12.71392
568.9688, 13.59179
569.4509, 13.58020
569.9330, 13.10994
570.4151, 10.92292
570.8972, 9.248896
571.3793, 11.44697
571.8615, 18.33568
572.3436, 23.78980
572.8257, 23.68608
573.3078, 20.82781
573.7899, 17.69417
574.2720, 12.28663
574.7542, 9.990974
575.2363, 14.17555
575.7184, 21.70786
576.2005, 26.27509
576.6826, 26.90161
577.1647, 25.99605
577.6469, 23.68113
578.1290, 20.16683
578.6111, 17.56218
579.0932, 15.94006
579.5753, 14.85836
580.0574, 14.79002
580.5396, 15.30292
581.0217, 12.88061
581.5038, 6.687347
581.9859, 0.5296540
582.4680, 2.094088
582.9501, 1.477201
583.4323, 0.5635260
583.9144, 4.284834
584.3965, 8.078039
584.8786, 10.81980
585.3607, 12.59849
585.8428, 13.62922
586.3250, 13.80636
586.8071, 13.44748
587.2892, 12.40427
587.7713, 10.51591
588.2534, 9.467926
588.7355, 10.30518
589.2177, 11.07315
589.6998, 10.26597
590.1819, 6.880747
590.6640, 4.816339
591.1461, 3.626904
591.6282, 4.682236
592.1104, 12.72929
592.5925, 27.65971
593.0746, 36.11369
593.5567, 31.43585
594.0388, 20.47088
594.5209, 16.04406
595.0031, 17.21189
595.4852, 18.74283
595.9673, 18.49686
596.4494, 16.47151
596.9315, 10.80615
597.4136, 1.111759
597.8958, 4.165092
598.3779, 4.812191
598.8600, 16.29790
599.3421, 20.64371
599.8242, 8.462826
600.3063, 0.7247240
600.7885, 0.3003710
601.2706, 4.688068
601.7527, 9.688808
602.2348, 17.11293
602.7169, 20.53139
603.1990, 16.99532
603.6812, 8.766457
604.1633, 5.738672
604.6454, 8.244297
605.1275, 11.43495
605.6096, 12.87467
606.0917, 12.12728
606.5739, 10.09069
607.0560, 6.294065
607.5381, 3.506372
608.0202, 4.645164
608.5023, 7.869247
608.9844, 10.89431
609.4666, 13.22808
609.9487, 15.19663
610.4308, 16.77166
610.9129, 18.09033
611.3950, 19.38770
611.8771, 22.96835
612.3593, 23.83553
612.8414, 19.73759
613.3235, 11.95614
613.8056, 6.367760
614.2877, 2.702950
614.7698, 1.997385
615.2520, 6.522568
615.7341, 15.92099
616.2162, 18.47849
616.6983, 13.33131
617.1804, 7.427509
617.6625, 8.703007
618.1446, 14.21351
618.6267, 15.75017
619.1088, 10.66891
619.5909, 5.676464
620.0731, 8.682276
620.5552, 15.45203
621.0373, 19.20324
621.5194, 12.91701
622.0015, 7.896582
622.4836, 9.655167
622.9658, 16.52447
623.4479, 21.36228
623.9300, 23.11639
624.4121, 22.99636
624.8942, 20.59528
625.3763, 15.75161
625.8585, 13.86642
626.3406, 16.18739
626.8227, 18.19772
627.3048, 14.88806
627.7869, 7.014380
628.2690, 4.220024
628.7512, 8.034676
629.2333, 13.88668
629.7154, 17.12549
630.1975, 18.35448
630.6796, 18.89837
631.1617, 19.21916
631.6439, 19.05409
632.1260, 16.78231
632.6081, 13.54062
633.0902, 12.48681
633.5723, 16.95338
634.0544, 21.51693
634.5366, 25.01532
635.0187, 27.32643
635.5008, 26.22169
635.9829, 18.96382
636.4650, 12.08470
636.9471, 9.440601
637.4293, 11.80072
637.9114, 11.45978
638.3935, 8.077297
638.8756, 3.159796
639.3577, 4.006083
639.8398, 11.79214
640.3220, 12.68214
640.8041, 3.292347
641.2862, 8.404961
641.7683, 15.38873
642.2504, 18.38349
642.7325, 18.96135
643.2147, 15.12270
643.6968, 11.50645
644.1789, 10.87351
644.6610, 12.46017
645.1431, 12.98781
645.6252, 9.939842
646.1074, 7.857306
646.5895, 8.540810
647.0716, 12.13551
647.5537, 14.43754
648.0358, 15.19937
648.5179, 15.36105
649.0001, 15.63406
649.4822, 15.82392
649.9643, 14.29760
650.4464, 10.59006
650.9285, 7.310759
651.4106, 8.297441
651.8928, 11.60412
652.3749, 13.29281
652.8570, 11.10153
653.3391, 8.914116
653.8212, 9.559792
654.3033, 11.89496
654.7855, 13.81709
655.2676, 13.95529
655.7497, 14.21973
656.2318, 16.05058
656.7139, 18.82776
657.1960, 20.54495
657.6782, 21.18701
658.1603, 20.82766
658.6424, 18.58666
659.1245, 14.78880
659.6066, 13.54975
660.0887, 15.17907
660.5709, 16.52521
661.0530, 14.62278
661.5351, 10.77893
662.0172, 5.952066
662.4993, 0.7442780
662.9814, 3.478722
663.4636, 8.016346
663.9457, 23.74570
664.4278, 31.52504
664.9099, 19.94474
665.3920, 10.53768
665.8741, 10.25761
666.3563, 15.34917
666.8384, 17.80508
667.3205, 15.46551
667.8026, 14.50408
668.2847, 16.87226
668.7668, 21.44291
669.2490, 24.05962
669.7311, 24.75141
670.2132, 23.09709
670.6953, 17.00881
671.1774, 8.687386
671.6595, 3.190756
672.1417, 0.5334740
672.6238, 1.369045
673.1059, 10.05062
673.5880, 20.19306
674.0701, 24.79127
674.5522, 21.53210
675.0344, 19.56061
675.5165, 25.06655
675.9986, 31.29079
676.4807, 32.04974
676.9628, 23.71990
677.4449, 15.92497
677.9271, 7.812889
678.4092, 1.447159
678.8913, 1.014318
679.3734, 6.999666
679.8555, 11.97381
680.3376, 13.77802
680.8198, 14.04557
681.3019, 15.97107
681.7840, 19.05021
682.2661, 21.26163
682.7482, 20.50170
683.2303, 19.20760
683.7125, 19.61943
684.1946, 21.45493
684.6767, 22.60591
685.1588, 21.12079
685.6409, 19.83226
686.1230, 20.81902
686.6052, 24.75033
687.0873, 25.67538
687.5694, 23.04446
688.0515, 18.32687
688.5336, 10.19926
689.0157, 1.597437
689.4979, 1.843367
689.9800, 12.32547
690.4621, 28.62415
690.9442, 31.06698
691.4263, 24.95821
691.9084, 22.45914
692.3906, 28.34957
692.8727, 34.57272
693.3548, 34.44123
693.8369, 31.00548
694.3190, 29.19337
694.8011, 34.15828
695.2833, 36.54044
695.7654, 32.50335
696.2475, 24.48518
696.7296, 19.23904
697.2117, 17.70926
697.6938, 15.62458
698.1760, 11.36375
698.6581, 6.661814
699.1402, 8.449383
699.6223, 17.44258
700.1044, 24.62380
700.5865, 20.94092
701.0686, 13.11102
701.5507, 12.42930
702.0328, 19.16668
702.5150, 25.07418
702.9971, 25.95876
703.4792, 23.68015
703.9613, 18.94971
704.4434, 10.32277
704.9255, 3.892420
705.4077, 0.2216070
705.8898, 1.178658
706.3719, 0.9987830
706.8540, 0.5230560
707.3361, 6.204397
707.8182, 18.51115
708.3004, 29.87781
708.7825, 25.24025
709.2646, 8.737822
709.7467, 0.1274050
710.2288, 7.879011
710.7109, 19.79213
711.1931, 23.70193
711.6752, 22.45541
712.1573, 21.70102
712.6394, 26.12917
713.1215, 28.82205
713.6036, 26.65698
714.0858, 20.41176
714.5679, 13.74254
715.0500, 4.044676
715.5321, 1.146126
716.0142, 2.595882
716.4963, 13.37967
716.9785, 17.67672
717.4606, 15.15765
717.9427, 10.27126
718.4248, 3.379896
718.9069, 3.139324
719.3890, 3.361906
719.8712, 2.735371
720.3533, 8.947399
720.8354, 11.13938
721.3175, 12.02574
721.7996, 12.99902
722.2817, 13.81585
722.7639, 16.46872
723.2460, 24.90167
723.7281, 32.49424
724.2102, 33.50644
724.6923, 24.94850
725.1744, 20.97795
725.6566, 23.79227
726.1387, 28.45196
726.6208, 26.96516
727.1029, 21.08742
727.5850, 19.11118
728.0671, 24.56008
728.5493, 30.64753
729.0314, 27.61386
729.5135, 20.79139
729.9956, 19.39431
730.4777, 36.26002
730.9598, 48.46066
731.4420, 45.53677
731.9241, 32.32771
732.4062, 23.59717
732.8883, 21.74812
733.3704, 19.55341
733.8525, 14.20873
734.3347, 7.468077
734.8168, 7.928396
735.2989, 15.58938
735.7810, 21.48641
736.2631, 19.32666
736.7452, 13.02187
737.2274, 7.388327
737.7095, 2.749329
738.1916, 1.033634
738.6737, 6.759987
739.1558, 13.00749
739.6379, 13.80988
740.1201, 7.548586
740.6022, 8.299202
741.0843, 24.91273
741.5664, 38.72571
742.0485, 37.17797
742.5306, 17.47003
743.0128, 7.562437
743.4949, 8.846756
743.9770, 13.52656
744.4591, 13.56767
744.9412, 11.37881
745.4233, 14.65857
745.9055, 25.79555
746.3876, 33.48146
746.8697, 24.21064
747.3518, 9.389744
747.8339, 1.378080
748.3160, 6.982477
748.7982, 12.32087
749.2803, 16.69962
749.7624, 19.26672
750.2445, 17.87640
750.7266, 10.35954
751.2087, 8.571476
751.6909, 16.23614
752.1730, 26.36541
752.6551, 26.58459
753.1372, 18.72015
753.6193, 11.45092
754.1014, 8.461500
754.5836, 6.032625
755.0657, 2.249237
755.5478, 12.23804
756.0299, 14.96698
756.5120, 1.397985
756.9941, 15.29534
757.4763, 19.85313
757.9584, 17.49697
758.4405, 14.44823
758.9226, 9.686874
759.4047, 7.157719
759.8868, 8.608379
760.3690, 13.01333
760.8511, 19.01564
761.3332, 25.96737
761.8153, 28.43800
762.2974, 17.94675
762.7795, 4.983297
763.2617, 0.2582170
763.7438, 3.279078
764.2259, 8.158203
764.7080, 17.48174
765.1901, 23.77132
765.6722, 20.83625
766.1544, 8.469828
766.6365, 4.438944
767.1186, 11.90318
767.6007, 20.33655
768.0828, 23.33027
768.5649, 21.59304
769.0471, 21.84804
769.5292, 23.72235
770.0113, 25.43615
770.4934, 25.69754
770.9755, 24.71766
771.4576, 22.42694
771.9398, 18.66624
772.4219, 15.15833
772.9040, 10.21114
773.3861, 7.375422
773.8682, 10.42279
774.3503, 22.95490
774.8325, 28.80554
775.3146, 25.75301
775.7967, 20.40470
776.2788, 18.82427
776.7609, 20.40138
777.2430, 23.55688
777.7252, 28.99050
778.2073, 32.09401
778.6894, 24.31939
779.1715, 13.32073
779.6536, 10.08476
780.1357, 21.45594
780.6179, 30.64787
781.1000, 32.78793
781.5821, 29.44552
782.0642, 21.90955
782.5463, 5.754459
783.0284, 3.837688
783.5105, 5.234642
783.9926, 1.191978
784.4747, 6.375717
784.9568, 16.52743
785.4390, 23.13663
785.9211, 24.20542
786.4032, 22.53112
786.8853, 18.64325
787.3674, 14.51918
787.8495, 13.28073
788.3317, 20.93317
788.8138, 25.75101
789.2959, 22.20628
789.7780, 14.88798
790.2601, 11.76257
790.7422, 14.25381
791.2244, 16.68199
791.7065, 18.22970
792.1886, 18.75908
792.6707, 16.01471
793.1528, 11.25826
793.6349, 11.59152
794.1171, 25.19563
794.5992, 38.02901
795.0813, 35.37772
795.5634, 22.68232
796.0455, 11.39479
796.5276, 4.873875
797.0098, 1.607759
797.4919, 1.579060
797.9740, 4.355324
798.4561, 9.779108
798.9382, 18.89577
799.4203, 25.94014
799.9025, 29.13663
800.3846, 29.06733
800.8667, 25.85564
801.3488, 20.13747
801.8309, 14.79117
802.3130, 9.074356
802.7952, 6.051025
803.2773, 10.16653
803.7594, 19.24617
804.2415, 25.08544
804.7236, 23.70612
805.2057, 21.30556
805.6879, 18.75955
806.1700, 16.34291
806.6521, 15.71146
807.1342, 17.12846
807.6163, 17.68090
808.0984, 15.88433
808.5806, 12.47189
809.0627, 7.034851
809.5448, 0.6708220
810.0269, 2.074669
810.5090, 6.389080
810.9911, 14.30584
811.4733, 13.19449
811.9554, 4.203800
812.4375, 0.7122990
812.9196, 6.203060
813.4017, 11.19449
813.8839, 13.09386
814.3660, 13.58863
814.8481, 14.48708
815.3302, 15.75658
815.8123, 16.39503
816.2944, 15.52184
816.7766, 13.87521
817.2587, 12.10131
817.7408, 10.28617
818.2229, 8.840168
818.7050, 6.102993
819.1871, 5.477482
819.6693, 10.86224
820.1514, 21.14915
820.6335, 24.50393
821.1156, 18.61912
821.5977, 12.70674
822.0798, 11.21828
822.5620, 13.24409
823.0441, 16.25539
823.5262, 20.00628
824.0083, 22.10754
824.4904, 20.97485
824.9725, 17.61694
825.4547, 10.25037
825.9368, 0.2750430
826.4189, 4.083179
826.9010, 9.002815
827.3831, 20.84451
827.8652, 25.70323
828.3474, 23.93226
828.8295, 19.02651
829.3116, 10.44140
829.7937, 3.644192
830.2758, 2.042213
830.7579, 4.218609
831.2401, 9.127304
831.7222, 16.03067
832.2043, 20.44799
832.6864, 16.34998
833.1685, 12.54051
833.6506, 16.17763
834.1328, 26.99073
834.6149, 28.73528
835.0970, 15.85825
835.5791, 4.928928
836.0612, 3.813110
836.5433, 10.25258
837.0255, 14.52137
837.5076, 16.65170
837.9897, 16.86773
838.4718, 13.15519
838.9539, 9.167229
839.4360, 9.004868
839.9182, 12.16983
840.4003, 15.07203
840.8824, 17.78586
841.3645, 18.32753
841.8466, 15.66012
842.3287, 10.28437
842.8109, 6.682541
843.2930, 4.954823
843.7751, 4.424606
844.2572, 5.009041
844.7393, 6.418842
845.2214, 7.880909
845.7036, 9.567432
846.1857, 12.22773
846.6678, 19.87506
847.1499, 25.30388
847.6320, 23.03592
848.1141, 14.53150
848.5963, 8.970238
849.0784, 7.617336
849.5605, 7.294544
850.0426, 7.450150
850.5247, 7.811619
851.0068, 7.313862
851.4890, 5.577774
851.9711, 2.890858
852.4532, 2.784737
852.9353, 6.321629
853.4174, 0.2740330
853.8995, 12.23348
854.3817, 21.48485
854.8638, 22.96256
855.3459, 22.43086
855.8280, 20.11411
856.3101, 17.16288
856.7922, 17.22302
857.2744, 20.62042
857.7565, 24.48176
858.2386, 29.19967
858.7207, 32.08901
859.2028, 26.50911
859.6849, 15.48237
860.1671, 6.958485
860.6492, 4.819920
861.1313, 5.223881
861.6134, 7.053051
862.0955, 10.38921
862.5776, 15.72728
863.0598, 25.54078
863.5419, 30.92805
864.0240, 29.82311
864.5061, 24.23640
864.9882, 15.40258
865.4703, 4.816975
865.9524, 0.7509080
866.4345, 2.685566
866.9166, 8.283928
867.3987, 12.98377
867.8809, 15.76199
868.3630, 15.54454
868.8451, 6.164211
869.3272, 1.761360
869.8093, 4.692917
870.2914, 11.22290
870.7736, 17.43034
871.2557, 23.17287
871.7378, 25.22694
872.2199, 22.56556
872.7020, 17.97499
873.1841, 11.87573
873.6663, 6.798527
874.1484, 6.966965
874.6305, 17.52727
875.1126, 24.15551
875.5947, 19.14088
876.0768, 11.68873
876.5590, 10.12916
877.0411, 16.44630
877.5232, 15.89535
878.0053, 6.237614
878.4874, 3.299717
878.9695, 0.6809500
879.4517, 8.187817
879.9338, 12.15036
880.4159, 9.020741
880.8980, 5.824398
881.3801, 6.413414
881.8622, 7.312164
882.3444, 5.471806
882.8265, 0.9530110
883.3086, 0.9175680
883.7907, 14.45926
884.2728, 26.10294
884.7549, 23.61605
885.2371, 11.37617
885.7192, 4.397476
886.2013, 2.791088
886.6834, 3.951393
887.1655, 8.402977
887.6476, 13.06634
888.1298, 14.83485
888.6119, 13.34076
889.0940, 16.48697
889.5761, 28.37717
890.0582, 37.24466
890.5403, 36.40358
891.0225, 28.41609
891.5046, 25.84047
891.9867, 28.05460
892.4688, 28.66993
892.9509, 22.34227
893.4330, 14.19775
893.9152, 7.091671
894.3973, 1.553711
894.8794, 0.2952960
895.3615, 5.333244
895.8436, 10.45222
896.3257, 14.00846
896.8079, 15.55472
897.2900, 11.64645
897.7721, 2.693134
898.2542, 0.8700900
898.7363, 7.589970
899.2184, 18.59994
899.7006, 21.91656
900.1827, 19.94501
900.6648, 17.41295
901.1469, 13.37895
901.6290, 12.33525
902.1111, 18.41475
902.5933, 25.21724
903.0754, 21.25383
903.5575, 5.357590
904.0396, 3.689472
904.5217, 2.019360
905.0038, 4.103241
905.4860, 9.922516
905.9681, 14.35559
906.4502, 15.41990
906.9323, 11.91077
907.4144, 7.115917
907.8965, 1.836533
908.3787, 8.721245
908.8608, 8.092190
909.3429, 1.703938
909.8250, 10.89641
910.3071, 19.76389
910.7892, 25.01296
911.2714, 21.23661
911.7535, 13.31610
912.2356, 9.628468
912.7177, 10.93153
913.1998, 14.45925
913.6819, 20.16803
914.1641, 26.75834
914.6462, 35.89891
915.1283, 47.45163
915.6104, 44.59644
916.0925, 23.83290
916.5746, 7.094883
917.0568, 11.44863
917.5389, 25.77685
918.0210, 25.91330
918.5031, 15.07647
918.9852, 6.892910
919.4673, 10.83570
919.9495, 15.68577
920.4316, 15.97085
920.9137, 13.36013
921.3958, 13.46082
921.8779, 17.47424
922.3600, 19.34278
922.8422, 16.65205
923.3243, 12.49769
923.8064, 13.36375
924.2885, 17.13223
924.7706, 17.95305
925.2527, 11.76656
925.7349, 6.175739
926.2170, 4.634274
926.6991, 5.420578
927.1812, 5.897453
927.6633, 5.490578
928.1454, 6.767120
928.6276, 10.35069
929.1097, 14.19769
929.5918, 16.02068
930.0739, 16.41465
930.5560, 15.98160
931.0381, 14.93232
931.5203, 13.73381
932.0024, 12.96159
932.4845, 11.86406
932.9666, 9.360916
933.4487, 4.999607
933.9308, 3.745113
934.4130, 6.349972
934.8951, 9.260303
935.3772, 9.806263
935.8593, 9.123428
936.3414, 11.16065
936.8235, 15.35743
937.3057, 16.26119
937.7878, 5.826511
938.2699, 3.478287
938.7520, 4.374184
939.2341, 1.168133
939.7162, 5.197338
940.1984, 7.328007
940.6805, 9.663673
941.1626, 13.81937
941.6447, 17.09703
942.1268, 12.26074
942.6089, 2.764736
943.0911, 2.446609
943.5732, 3.169872
944.0553, 8.180931
944.5374, 5.003727
945.0195, 0.2496720
945.5016, 3.394623
945.9838, 18.39236
946.4659, 25.11629
946.9480, 21.05620
947.4301, 13.69123
947.9122, 9.694134
948.3943, 8.764290
948.8764, 11.45355
949.3585, 18.17491
949.8406, 23.08968
950.3228, 22.38046
950.8049, 20.00276
951.2870, 18.10307
951.7691, 16.70171
952.2512, 16.26062
952.7333, 17.11421
953.2155, 16.54992
953.6976, 10.11000
954.1797, 2.731297
954.6618, 4.275391
955.1439, 12.51440
955.6260, 19.14244
956.1082, 20.98059
956.5903, 20.33366
957.0724, 16.54124
957.5545, 11.32916
958.0366, 7.746403
958.5187, 5.665802
959.0009, 7.751873
959.4830, 15.57192
959.9651, 25.05387
960.4472, 34.19199
960.9293, 40.31027
961.4114, 38.28613
961.8936, 21.62111
962.3757, 8.574116
962.8578, 2.678791
963.3399, 1.322735
963.8220, 4.526154
964.3041, 12.56938
964.7863, 13.33165
965.2684, 6.164387
965.7505, 0.7577250
966.2326, 7.057487
966.7147, 17.72132
967.1968, 26.63732
967.6790, 32.72932
968.1611, 33.87318
968.6432, 25.01981
969.1253, 17.95599
969.6074, 17.22033
970.0895, 20.38094
970.5717, 18.76989
971.0538, 13.06481
971.5359, 8.711044
972.0180, 8.093422
972.5001, 9.291092
972.9822, 11.42661
973.4644, 14.14507
973.9465, 17.02887
974.4286, 22.27255
974.9107, 22.94899
975.3928, 16.60377
975.8749, 9.699211
976.3571, 10.62895
976.8392, 17.40353
977.3213, 23.22723
977.8034, 27.39586
978.2855, 29.18427
978.7676, 26.18325
979.2498, 22.15672
979.7319, 20.20821
980.2140, 20.55782
980.6961, 19.16597
981.1782, 15.94340
981.6603, 11.18062
982.1425, 3.394646
982.6246, 4.075893
983.1067, 5.065517
983.5888, 1.494320
984.0709, 2.947342
984.5530, 8.750786
985.0352, 13.82985
985.5173, 17.56915
985.9994, 18.77653
986.4815, 14.47084
986.9636, 3.268356
987.4457, 1.721550
987.9279, 1.976967
988.4100, 9.102524
988.8921, 15.75281
989.3742, 21.17552
989.8563, 24.24728
990.3384, 24.60022
990.8206, 23.37217
991.3027, 19.23859
991.7848, 15.35496
992.2669, 13.39151
992.7490, 13.14231
993.2311, 12.13222
993.7133, 10.43325
994.1954, 9.754360
994.6775, 11.95602
995.1596, 14.79989
995.6417, 16.76338
996.1238, 17.65572
996.6060, 17.71632
997.0881, 16.70004
997.5702, 16.06347
998.0523, 16.12910
998.5344, 16.52201
999.0165, 16.98787
999.4987, 17.29538
999.9808, 16.50065
1000.463, 14.23199
1000.945, 11.74687
1001.427, 10.01512
1001.909, 8.731243
1002.391, 7.194912
1002.873, 4.910744
1003.356, 7.866459
1003.838, 17.27217
1004.320, 25.63206
1004.802, 27.57862
1005.284, 25.61082
1005.766, 23.76352
1006.248, 21.81031
1006.730, 18.87674
1007.213, 11.61110
1007.695, 7.209732
1008.177, 8.610920
1008.659, 12.97794
1009.141, 15.16213
1009.623, 15.29614
1010.105, 16.06513
1010.587, 18.42461
1011.069, 19.80384
1011.552, 14.66346
1012.034, 8.944817
1012.516, 10.91368
1012.998, 25.83807
1013.480, 29.25405
1013.962, 14.25135
1014.444, 0.5478520
1014.926, 1.665901
1015.409, 12.82430
1015.891, 15.08924
1016.373, 10.46960
1016.855, 9.286648
1017.337, 22.34006
1017.819, 32.76058
1018.301, 28.74258
1018.783, 17.20056
1019.265, 12.25539
1019.748, 14.89688
1020.230, 20.23339
1020.712, 28.65376
1021.194, 35.26507
1021.676, 32.31409
1022.158, 24.71960
1022.640, 19.42960
1023.122, 17.71027
1023.604, 17.29992
1024.087, 20.49945
1024.569, 21.21978
1025.051, 14.63286
1025.533, 3.006996
1026.015, 2.469086
1026.497, 11.68178
1026.979, 18.69563
1027.461, 11.49586
1027.943, 5.387459
1028.426, 17.36881
1028.908, 36.44256
1029.390, 39.29811
1029.872, 15.13785
1030.354, 1.311775
1030.836, 2.404472
1031.318, 9.650795
1031.800, 11.73894
1032.283, 12.70790
1032.765, 24.17370
1033.247, 47.98951
1033.729, 61.99284
1034.211, 49.42513
1034.693, 32.20611
1035.175, 18.58234
1035.657, 8.802513
1036.140, 6.125278
1036.622, 10.32325
1037.104, 15.23772
1037.586, 20.02389
1038.068, 22.18900
1038.550, 18.00922
1039.032, 10.18396
1039.514, 2.297729
1039.996, 8.608418
1040.479, 11.96526
1040.961, 4.641415
1041.443, 3.929909
1041.925, 1.272842
1042.407, 6.961796
1042.889, 4.205269
1043.371, 9.492519
1043.853, 21.14094
1044.335, 24.25164
1044.818, 23.76141
1045.300, 20.25895
1045.782, 15.45390
1046.264, 14.11589
1046.746, 16.87254
1047.228, 18.76505
1047.710, 18.99849
1048.192, 19.49447
1048.675, 24.48688
1049.157, 29.85732
1049.639, 29.91646
1050.121, 19.53230
1050.603, 15.35153
1051.085, 20.09607
1051.567, 25.40715
1052.049, 25.83116
1052.531, 22.38246
1053.014, 16.14126
1053.496, 8.297962
1053.978, 4.478333
1054.460, 9.808006
1054.942, 17.05103
1055.424, 24.85051
1055.906, 32.15742
1056.388, 37.10447
1056.870, 39.62839
1057.353, 41.77347
1057.835, 44.10394
1058.317, 44.52411
1058.799, 40.17870
1059.281, 33.43821
1059.763, 25.78120
1060.245, 16.94088
1060.727, 14.86159
1061.210, 23.71557
1061.692, 29.20734
1062.174, 23.64053
1062.656, 12.31949
1063.138, 5.921272
1063.620, 3.883415
1064.102, 4.831928
1064.584, 11.49448
1065.067, 16.15783
1065.549, 16.00798
1066.031, 13.22715
1066.513, 7.994549
1066.995, 3.7356999E-02
1067.477, 2.069057
1067.959, 15.23028
1068.441, 25.63816
1068.923, 18.15791
1069.406, 7.773670
1069.888, 6.579056
1070.370, 13.73163
1070.852, 19.83106
1071.334, 24.27705
1071.816, 29.17339
1072.298, 36.52559
1072.780, 40.52822
1073.262, 26.16898
1073.745, 4.093597
1074.227, 5.018764
1074.709, 6.209686
1075.191, 16.06275
1075.673, 17.73999
1076.155, 17.76037
1076.637, 18.76301
1077.119, 20.81406
1077.601, 25.59874
1078.084, 32.45089
1078.566, 36.54372
1079.048, 33.22525
1079.530, 28.77577
1080.012, 27.45823
1080.494, 26.64435
1080.976, 22.87761
1081.458, 14.39738
1081.941, 11.10564
1082.423, 13.90593
1082.905, 19.80880
1083.387, 31.01188
1083.869, 40.53238
1084.351, 37.03022
1084.833, 21.48837
1085.315, 11.87385
1085.797, 12.49525
1086.280, 16.62861
1086.762, 24.77426
1087.244, 32.53018
1087.726, 29.76132
1088.208, 19.95332
1088.690, 12.01693
1089.172, 7.551739
1089.654, 7.482296
1090.136, 16.97747
1090.619, 26.07579
1091.101, 29.31978
1091.583, 26.95275
1092.065, 21.44788
1092.547, 13.16638
1093.029, 8.602753
1093.511, 16.82965
1093.993, 24.26346
1094.476, 14.74920
1094.958, 0.6134220
1095.440, 0.9800800
1095.922, 22.17000
1096.404, 33.74195
1096.886, 30.07594
1097.368, 22.12724
1097.850, 18.45516
1098.333, 17.39631
1098.815, 17.94635
1099.297, 19.44297
1099.779, 18.34050
1100.261, 9.693741
1100.743, 4.353828
1101.225, 5.215065
1101.707, 9.726936
1102.189, 17.02800
1102.672, 24.39624
1103.154, 21.54690
1103.636, 3.068607
1104.118, 9.292252
1104.600, 0.9810370
1105.082, 14.99286
1105.564, 21.93694
1106.046, 22.38889
1106.528, 19.82018
1107.011, 14.38242
1107.493, 13.20848
1107.975, 24.12025
1108.457, 34.24819
1108.939, 32.48938
1109.421, 24.21590
1109.903, 16.57723
1110.385, 8.501183
1110.868, 6.853870
1111.350, 12.79171
1111.832, 18.76177
1112.314, 17.76059
1112.796, 13.62672
1113.278, 10.40506
1113.760, 8.274143
1114.242, 7.183456
1114.724, 8.554417
1115.207, 7.791821
1115.689, 2.674744
1116.171, 1.792664
1116.653, 4.328915
1117.135, 16.04608
1117.617, 21.03799
1118.099, 17.13363
1118.581, 14.55053
1119.063, 17.71362
1119.546, 22.90493
1120.028, 29.82695
1120.510, 37.02036
1120.992, 38.37976
1121.474, 35.15110
1121.956, 33.01656
1122.438, 36.27741
1122.920, 35.49848
1123.403, 16.06031
1123.885, 3.151730
1124.367, 3.722458
1124.849, 16.18004
1125.331, 25.47887
1125.813, 23.98235
1126.295, 18.72082
1126.777, 9.220871
1127.260, 2.278728
1127.742, 6.667938
1128.224, 17.21853
1128.706, 23.02899
1129.188, 22.59896
1129.670, 19.26404
1130.152, 12.20204
1130.634, 6.910080
1131.116, 12.02792
1131.599, 20.21986
1132.081, 19.49004
1132.563, 11.48639
1133.045, 7.877323
1133.527, 14.91288
1134.009, 19.39191
1134.491, 18.10836
1134.973, 14.22248
1135.455, 13.17887
1135.938, 13.28221
1136.420, 9.368622
1136.902, 0.3786770
1137.384, 5.333752
1137.866, 1.578667
1138.348, 11.00103
1138.830, 21.13285
1139.312, 30.18683
1139.795, 29.59149
1140.277, 21.55333
1140.759, 16.20621
1141.241, 18.97254
1141.723, 20.23053
1142.205, 10.53637
1142.687, 1.233963
1143.169, 2.747807
1143.651, 15.07271
1144.134, 17.71034
1144.616, 11.12717
1145.098, 5.482594
1145.580, 9.968861
1146.062, 14.01281
1146.544, 7.387997
1147.026, 2.992363
1147.508, 4.777340
1147.990, 4.352577
1148.473, 10.09524
1148.955, 11.52295
1149.437, 11.56281
1149.919, 10.61554
1150.401, 11.11615
1150.883, 18.13523
1151.365, 29.27851
1151.847, 32.88892
1152.330, 26.60926
1152.812, 17.81771
1153.294, 6.488422
1153.776, 1.662327
1154.258, 3.696949
1154.740, 14.22285
1155.222, 17.75098
1155.704, 12.73088
1156.186, 11.50154
1156.669, 18.39671
1157.151, 22.10269
1157.633, 17.85860
1158.115, 10.64865
1158.597, 9.197037
1159.079, 11.84354
1159.561, 16.11884
1160.043, 23.03578
1160.526, 24.81622
1161.008, 15.05116
1161.490, 8.481144
1161.972, 16.39113
1162.454, 32.35380
1162.936, 26.99695
1163.418, 7.305519
1163.900, 3.185776
1164.382, 13.36290
1164.865, 24.71781
1165.347, 18.33355
1165.829, 7.982735
1166.311, 3.743713
1166.793, 4.958042
1167.275, 5.941952
1167.757, 6.806839
1168.239, 8.712486
1168.721, 14.12955
1169.204, 17.60469
1169.686, 14.21438
1170.168, 10.39949
1170.650, 16.01392
1171.132, 30.48312
1171.614, 35.82996
1172.096, 31.11049
1172.578, 24.25907
1173.061, 19.09851
1173.543, 15.21171
1174.025, 10.95639
1174.507, 8.389954
1174.989, 13.41498
1175.471, 26.25129
1175.953, 35.07371
1176.435, 38.21847
1176.917, 35.95398
1177.400, 23.94604
1177.882, 10.43837
1178.364, 0.8224750
1178.846, 4.480164
1179.328, 2.486649
1179.810, 7.599266
1180.292, 14.31141
1180.774, 13.76489
1181.256, 11.30043
1181.739, 11.62007
1182.221, 13.04294
1182.703, 14.19367
1183.185, 14.71142
1183.667, 13.40640
1184.149, 9.881142
1184.631, 7.742481
1185.113, 9.025017
1185.596, 11.61468
1186.078, 13.70782
1186.560, 15.20164
1187.042, 15.94941
1187.524, 15.98793
1188.006, 14.50626
1188.488, 10.84989
1188.970, 9.113075
1189.453, 12.88465
1189.935, 18.96291
1190.417, 25.01635
1190.899, 29.93890
1191.381, 31.08902
1191.863, 24.44698
1192.345, 23.14880
1192.827, 29.08088
1193.309, 33.75818
1193.792, 26.54095
1194.274, 16.26405
1194.756, 17.11253
1195.238, 25.44537
1195.720, 29.44847
1196.202, 23.19403
1196.684, 19.71459
1197.166, 21.08509
1197.648, 22.50592
1198.131, 14.69377
1198.613, 6.189198
1199.095, 15.11972
1199.577, 38.54392
1200.059, 47.68061
1200.541, 28.04770
1201.023, 14.82119
1201.505, 15.05268
1201.988, 20.59059
1202.470, 22.19452
1202.952, 21.21237
1203.434, 18.94961
1203.916, 15.62071
1204.398, 15.35191
1204.880, 22.42692
1205.362, 23.51335
1205.844, 12.99236
1206.327, 5.2306999E-02
1206.809, 1.182404
1207.291, 10.32048
1207.773, 17.31816
1208.255, 20.47926
1208.737, 21.18294
1209.219, 19.53854
1209.701, 15.79217
1210.183, 8.576221
1210.666, 1.534187
1211.148, 4.062229
1211.630, 11.34066
1212.112, 13.73759
1212.594, 6.894432
1213.076, 4.658890
1213.558, 8.463055
1214.040, 14.12378
1214.523, 20.33134
1215.005, 25.85297
1215.487, 28.04432
1215.969, 27.48875
1216.451, 25.47610
1216.933, 22.86746
1217.415, 16.50846
1217.897, 2.598076
1218.380, 6.687168
1218.862, 1.5628999E-02
1219.344, 14.24829
1219.826, 16.87691
1220.308, 11.87238
1220.790, 8.997135
1221.272, 15.28179
1221.754, 16.90521
1222.236, 11.94537
1222.719, 6.155132
1223.201, 4.020771
1223.683, 4.387001
1224.165, 6.447914
1224.647, 9.000706
1225.129, 8.465172
1225.611, 3.741154
1226.093, 6.061066
1226.575, 5.955616
1227.058, 19.80450
1227.540, 24.11150
1228.022, 21.97271
1228.504, 17.03963
1228.986, 10.50659
1229.468, 6.431679
1229.950, 4.617802
1230.432, 9.153770
1230.915, 23.63501
1231.397, 35.54054
1231.879, 24.51128
1232.361, 5.367588
1232.843, 5.776516
1233.325, 23.03321
1233.807, 30.36123
1234.289, 17.00586
1234.771, 7.772850
1235.254, 6.457722
1235.736, 9.527184
1236.218, 15.57238
1236.700, 21.43890
1237.182, 22.53611
1237.664, 19.08166
1238.146, 18.47829
1238.628, 22.78094
1239.110, 26.03603
1239.593, 27.18086
1240.075, 26.58081
1240.557, 24.36692
1241.039, 21.02076
1241.521, 15.93818
1242.003, 9.458904
1242.485, 9.153965
1242.967, 17.17083
1243.449, 24.04646
1243.932, 27.85107
1244.414, 28.52968
1244.896, 24.07554
1245.378, 17.84400
1245.860, 13.57878
1246.342, 11.73220
1246.824, 10.06827
1247.306, 8.541916
1247.789, 6.921619
1248.271, 4.293442
1248.753, 4.239841
1249.235, 16.37895
1249.717, 29.45419
1250.199, 29.18555
1250.681, 14.99500
1251.163, 6.102661
1251.646, 2.685379
1252.128, 3.504005
1252.610, 9.572887
1253.092, 15.97728
1253.574, 18.45329
1254.056, 18.66575
1254.538, 16.63459
1255.020, 12.84257
1255.502, 19.33141
1255.984, 35.85949
1256.467, 46.44273
1256.949, 43.38866
1257.431, 35.95215
1257.913, 27.03101
1258.395, 19.55954
1258.877, 18.74240
1259.359, 23.34955
1259.841, 22.55993
1260.324, 17.31295
1260.806, 16.78899
1261.288, 28.48712
1261.770, 38.20789
1262.252, 38.25122
1262.734, 33.72281
1263.216, 24.54175
1263.698, 12.61195
1264.181, 16.47203
1264.663, 32.68435
1265.145, 43.79686
1265.627, 39.74611
1266.109, 33.81006
1266.591, 28.69570
1267.073, 25.73380
1267.555, 27.60522
1268.037, 32.41764
1268.520, 31.21955
1269.002, 24.81821
1269.484, 15.89338
1269.966, 1.959743
1270.448, 8.893486
1270.930, 2.688496
1271.412, 16.32282
1271.894, 18.65858
1272.376, 14.01462
1272.859, 14.17067
1273.341, 17.80766
1273.823, 21.41111
1274.305, 25.92198
1274.787, 25.52677
1275.269, 16.94574
1275.751, 12.08037
1276.233, 27.15218
1276.716, 47.75609
1277.198, 46.60035
1277.680, 31.38629
1278.162, 20.89995
1278.644, 19.31541
1279.126, 23.13536
1279.608, 34.33550
1280.090, 40.71262
1280.573, 27.27170
1281.055, 8.812798
1281.537, 0.1379050
1282.019, 0.7608910
1282.501, 1.247303
1282.983, 6.332169
1283.465, 11.18556
1283.947, 14.92060
1284.429, 16.05816
1284.911, 18.96329
1285.394, 21.64867
1285.876, 25.91386
1286.358, 29.60562
1286.840, 28.74825
1287.322, 22.97813
1287.804, 20.17101
1288.286, 20.50149
1288.768, 20.89477
1289.251, 19.65517
1289.733, 16.74675
1290.215, 11.58180
1290.697, 8.164108
1291.179, 6.297836
1291.661, 5.721863
1292.143, 5.673698
1292.625, 6.136322
1293.108, 7.260506
1293.590, 10.34750
1294.072, 12.68651
1294.554, 14.31590
1295.036, 13.89649
1295.518, 7.909386
1296.000, 0.1935040
1296.482, 1.250519
1296.964, 5.763992
1297.447, 0.0000000E+00
##END=



