##NAMES=Asbolane
##RRUFFID=R070359
##IDEAL CHEMISTRY=Mn^4+^(O,OH)_2_&#183;(Co^3+^,Ni^2+^,Mg,Ca)_x_(OH)_2x_&#183;nH_2_O
##LOCALITY=Hachberg, Saint Avold, Moselle, France
##OWNER=RRUFF
##SOURCE=Michael Scott
##DESCRIPTION=Thin black platelets coating grains of quartz
##STATUS=The identification of this mineral is not yet confirmed.
##URL=rruff.info/R070359
209.2467, 0.0000000E+00
209.7289, 22.56836
210.2110, 35.10352
210.6931, 53.49805
211.1752, 34.62109
211.6573, 5.017578
212.1395, 17.28516
212.6216, 35.51172
213.1037, 52.93750
213.5858, 44.76953
214.0679, 14.96484
214.5500, 12.54297
215.0322, 13.45898
215.5143, 15.74609
215.9964, 48.12109
216.4785, 92.21289
216.9606, 131.7383
217.4427, 158.2734
217.9249, 174.3672
218.4070, 190.4961
218.8891, 219.2910
219.3712, 262.0332
219.8533, 269.7969
220.3354, 191.2734
220.8176, 126.1953
221.2997, 98.46680
221.7818, 105.2520
222.2639, 140.7266
222.7460, 207.4570
223.2281, 299.2227
223.7103, 340.4141
224.1924, 259.1289
224.6745, 203.8066
225.1566, 228.1562
225.6387, 293.2734
226.1208, 338.9668
226.6030, 328.9434
227.0851, 276.7715
227.5672, 239.7285
228.0493, 234.2168
228.5314, 222.1680
229.0135, 183.0371
229.4957, 139.3945
229.9778, 119.3770
230.4599, 136.1719
230.9420, 175.8008
231.4241, 204.1699
231.9062, 213.9199
232.3884, 224.0938
232.8705, 239.7988
233.3526, 255.4688
233.8347, 264.2285
234.3168, 264.1289
234.7989, 263.2461
235.2811, 279.6484
235.7632, 332.3418
236.2453, 356.0586
236.7274, 325.3887
237.2095, 282.0547
237.6916, 249.5840
238.1738, 234.0918
238.6559, 232.3066
239.1380, 242.9277
239.6201, 270.2383
240.1022, 294.3242
240.5843, 331.6992
241.0665, 351.6113
241.5486, 318.2344
242.0307, 243.1523
242.5128, 182.7109
242.9949, 201.2637
243.4770, 307.8223
243.9592, 386.6465
244.4413, 435.8203
244.9234, 455.9004
245.4055, 429.6660
245.8876, 372.3652
246.3697, 320.0234
246.8519, 300.0215
247.3340, 308.6699
247.8161, 312.8770
248.2982, 312.3789
248.7803, 307.2188
249.2624, 295.3516
249.7446, 279.7910
250.2267, 265.4590
250.7088, 255.6602
251.1909, 248.1523
251.6730, 235.0195
252.1551, 209.6973
252.6373, 192.5566
253.1194, 190.4062
253.6015, 198.5195
254.0836, 216.0391
254.5657, 245.6719
255.0478, 272.9336
255.5300, 267.1406
256.0121, 214.1230
256.4942, 182.0859
256.9763, 208.2773
257.4584, 253.0957
257.9406, 291.6465
258.4227, 318.7734
258.9048, 338.8945
259.3869, 358.9180
259.8690, 379.3906
260.3511, 385.9102
260.8333, 357.6777
261.3154, 330.9941
261.7975, 338.8926
262.2796, 379.8066
262.7617, 415.3379
263.2438, 410.0879
263.7260, 372.4668
264.2081, 353.0156
264.6902, 365.3848
265.1723, 383.7969
265.6544, 394.7148
266.1365, 397.3262
266.6187, 386.9512
267.1008, 353.6934
267.5829, 307.0547
268.0650, 256.7285
268.5471, 193.2402
269.0292, 157.6680
269.5114, 220.6895
269.9935, 327.8008
270.4756, 383.2695
270.9577, 326.7598
271.4398, 236.8027
271.9219, 204.7246
272.4041, 231.3945
272.8862, 259.4551
273.3683, 256.8477
273.8504, 239.3223
274.3325, 241.4082
274.8146, 279.9746
275.2968, 310.3613
275.7789, 292.2520
276.2610, 237.6133
276.7431, 196.6387
277.2252, 189.6289
277.7073, 200.3691
278.1895, 199.8125
278.6716, 183.8496
279.1537, 176.8477
279.6358, 191.8340
280.1179, 220.5215
280.6000, 251.4609
281.0822, 283.5840
281.5643, 309.5332
282.0464, 317.7188
282.5285, 306.2266
283.0106, 298.8066
283.4927, 307.0957
283.9749, 314.8320
284.4570, 300.1289
284.9391, 263.8418
285.4212, 236.4199
285.9033, 246.7207
286.3854, 293.8262
286.8676, 318.1953
287.3497, 304.8281
287.8318, 285.6113
288.3139, 274.2500
288.7960, 269.4902
289.2781, 265.5352
289.7603, 258.9414
290.2424, 251.1562
290.7245, 248.2773
291.2066, 258.9863
291.6887, 263.6191
292.1708, 255.5020
292.6530, 241.0254
293.1351, 228.5898
293.6172, 221.1094
294.0993, 214.8438
294.5814, 203.1777
295.0635, 184.4023
295.5457, 162.7285
296.0278, 131.3340
296.5099, 102.1348
296.9920, 84.46484
297.4741, 78.69531
297.9562, 78.30273
298.4384, 76.75977
298.9205, 73.62695
299.4026, 72.71289
299.8847, 60.60547
300.3668, 63.98242
300.8489, 107.1855
301.3311, 173.3398
301.8131, 225.4688
302.2953, 236.9805
302.7774, 217.4355
303.2595, 217.6211
303.7416, 262.8965
304.2237, 289.9473
304.7058, 267.2480
305.1880, 229.7305
305.6701, 219.9980
306.1522, 256.4395
306.6343, 309.9102
307.1164, 323.2793
307.5985, 285.5547
308.0807, 244.6289
308.5628, 182.9121
309.0449, 140.3887
309.5270, 159.4551
310.0091, 237.2285
310.4912, 308.6113
310.9734, 308.6738
311.4555, 244.9102
311.9376, 195.1426
312.4197, 170.0078
312.9018, 153.2812
313.3839, 134.3711
313.8661, 114.8379
314.3482, 99.00391
314.8303, 89.22852
315.3124, 85.21680
315.7945, 79.06250
316.2766, 69.05664
316.7588, 74.67578
317.2409, 127.4961
317.7230, 195.3047
318.2051, 220.3750
318.6872, 171.6582
319.1693, 121.7148
319.6515, 143.9355
320.1336, 217.7031
320.6157, 243.0332
321.0978, 167.8359
321.5799, 58.31641
322.0620, 26.97656
322.5442, 83.77148
323.0263, 132.0996
323.5084, 131.1445
323.9905, 112.5195
324.4726, 120.1699
324.9547, 161.4668
325.4369, 210.0762
325.9190, 242.7344
326.4011, 257.6523
326.8832, 263.6211
327.3653, 250.5293
327.8474, 238.3789
328.3296, 245.5723
328.8117, 264.1309
329.2938, 268.5762
329.7759, 244.1270
330.2580, 196.1641
330.7401, 149.6621
331.2223, 94.88672
331.7044, 56.82031
332.1865, 50.82617
332.6686, 56.83008
333.1507, 46.70898
333.6328, 14.25977
334.1150, 12.20312
334.5971, 16.61133
335.0792, 138.5410
335.5613, 211.7109
336.0434, 212.9492
336.5255, 192.3008
337.0077, 169.8047
337.4898, 147.6055
337.9719, 119.2598
338.4540, 74.85352
338.9361, 19.05078
339.4182, 4.089844
339.9004, 28.31055
340.3825, 60.94141
340.8646, 76.12695
341.3467, 82.70703
341.8288, 95.02734
342.3109, 121.0312
342.7931, 142.9316
343.2752, 123.0703
343.7573, 51.38281
344.2394, 10.85938
344.7215, 45.30469
345.2036, 100.0469
345.6858, 137.0527
346.1679, 154.1230
346.6500, 153.8828
347.1321, 126.8242
347.6142, 84.14258
348.0963, 55.86523
348.5785, 45.34961
349.0606, 48.01172
349.5427, 65.53125
350.0248, 94.14062
350.5069, 123.3164
350.9890, 162.4785
351.4712, 192.8008
351.9533, 192.3223
352.4354, 165.8125
352.9175, 144.4102
353.3996, 142.3105
353.8817, 154.6230
354.3639, 173.1758
354.8460, 216.7676
355.3281, 227.9355
355.8102, 165.6445
356.2923, 76.85742
356.7744, 14.71484
357.2566, 9.144531
357.7387, 8.722656
358.2208, 1.441406
358.7029, 22.14648
359.1850, 50.06836
359.6671, 98.50195
360.1493, 139.8145
360.6314, 163.4941
361.1135, 170.2539
361.5956, 165.0977
362.0777, 151.5234
362.5598, 126.4219
363.0420, 73.74219
363.5241, 56.89453
364.0062, 131.0840
364.4883, 96.93555
364.9704, 29.40820
365.4525, 9.345703
365.9347, 6.117188
366.4168, 10.27539
366.8989, 4.658203
367.3810, 25.40820
367.8631, 38.56641
368.3452, 9.593750
368.8274, 14.13867
369.3095, 3.224609
369.7916, 48.95703
370.2737, 91.78906
370.7558, 125.1445
371.2379, 140.8789
371.7201, 110.9219
372.2022, 23.20117
372.6843, 33.68359
373.1664, 2.250000
373.6485, 72.43164
374.1306, 121.3633
374.6128, 139.7402
375.0949, 144.9883
375.5770, 133.8477
376.0591, 117.3770
376.5412, 120.5684
377.0233, 150.8359
377.5055, 182.2031
377.9876, 186.5996
378.4697, 160.4551
378.9518, 140.7285
379.4339, 132.2148
379.9160, 126.2832
380.3982, 118.5078
380.8803, 109.1055
381.3624, 99.59375
381.8445, 90.81055
382.3266, 82.38672
382.8087, 73.31641
383.2909, 66.37500
383.7730, 54.70117
384.2551, 28.63672
384.7372, 4.017578
385.2193, 1.808594
385.7014, 11.12695
386.1836, 24.28516
386.6657, 14.24023
387.1478, 21.44531
387.6299, 32.40430
388.1120, 10.96680
388.5941, 45.34180
389.0763, 29.51172
389.5584, 3.798828
390.0405, 4.013672
390.5226, 88.16406
391.0047, 194.1016
391.4868, 230.6738
391.9690, 190.1367
392.4511, 150.7637
392.9332, 131.3711
393.4153, 122.0879
393.8974, 109.8281
394.3795, 94.69531
394.8617, 92.91992
395.3438, 128.1680
395.8259, 176.4512
396.3080, 192.5996
396.7901, 170.9453
397.2722, 149.1406
397.7544, 155.6953
398.2365, 184.3848
398.7186, 199.7480
399.2007, 191.6680
399.6828, 181.7129
400.1649, 180.2109
400.6471, 181.8242
401.1292, 179.6992
401.6113, 171.6934
402.0934, 158.0273
402.5755, 124.0195
403.0576, 47.03711
403.5398, 6.480469
404.0219, 10.16797
404.5040, 37.31641
404.9861, 95.79688
405.4682, 169.1816
405.9503, 224.2285
406.4325, 239.9902
406.9146, 222.1309
407.3967, 186.8457
407.8788, 119.7637
408.3609, 65.04688
408.8430, 22.51172
409.3252, 0.1777340
409.8073, 16.13477
410.2894, 70.36133
410.7715, 117.3887
411.2536, 103.1270
411.7357, 43.51758
412.2179, 27.16016
412.7000, 77.24219
413.1821, 128.3984
413.6642, 129.4727
414.1463, 99.67969
414.6284, 74.05859
415.1106, 57.36914
415.5927, 48.43359
416.0748, 47.36133
416.5569, 53.32227
417.0390, 65.39258
417.5211, 84.16602
418.0033, 105.3574
418.4854, 122.9883
418.9675, 136.8633
419.4496, 146.8730
419.9317, 155.5059
420.4138, 157.9824
420.8960, 145.7324
421.3781, 121.9395
421.8602, 99.35938
422.3423, 92.10547
422.8244, 99.68750
423.3065, 116.5898
423.7887, 178.5078
424.2708, 191.6445
424.7529, 87.35156
425.2350, 28.62305
425.7171, 58.92773
426.1992, 4.533203
426.6814, 87.23828
427.1635, 125.2090
427.6456, 120.6230
428.1277, 92.81250
428.6098, 19.11719
429.0919, 33.75586
429.5741, 6.658203
430.0562, 55.88867
430.5383, 84.69727
431.0204, 54.87305
431.5025, 13.48242
431.9846, 9.912109
432.4668, 13.66211
432.9489, 15.34180
433.4310, 88.32812
433.9131, 168.5352
434.3952, 216.3477
434.8773, 229.8398
435.3595, 216.1094
435.8416, 128.7891
436.3237, 56.21289
436.8058, 71.60547
437.2879, 146.7344
437.7701, 203.5293
438.2522, 201.0820
438.7343, 162.2617
439.2164, 145.5996
439.6985, 172.1523
440.1806, 184.6309
440.6628, 171.2441
441.1449, 153.2969
441.6270, 146.6270
442.1091, 149.2812
442.5912, 145.9609
443.0733, 117.1348
443.5555, 76.86719
444.0376, 90.38867
444.5197, 189.7539
445.0018, 251.7383
445.4839, 186.6348
445.9660, 85.98047
446.4482, 35.37695
446.9303, 49.48828
447.4124, 82.61523
447.8945, 123.3652
448.3766, 160.7891
448.8587, 162.8711
449.3409, 122.5059
449.8230, 88.81445
450.3051, 105.4590
450.7872, 166.1895
451.2693, 202.1230
451.7514, 194.9180
452.2336, 186.3477
452.7157, 193.9199
453.1978, 206.8613
453.6799, 210.8574
454.1620, 201.5195
454.6441, 180.6719
455.1263, 145.3223
455.6084, 86.12695
456.0905, 65.76562
456.5726, 134.5059
457.0547, 191.7637
457.5368, 214.9199
458.0190, 204.4688
458.5011, 152.2656
458.9832, 45.21484
459.4653, 57.88867
459.9474, 58.96680
460.4295, 43.68359
460.9117, 128.4844
461.3938, 169.7656
461.8759, 189.7617
462.3580, 210.6016
462.8401, 229.6641
463.3222, 230.5820
463.8044, 196.0000
464.2865, 151.6133
464.7686, 115.1836
465.2507, 87.98047
465.7328, 72.84766
466.2149, 70.36719
466.6971, 78.46484
467.1792, 93.19531
467.6613, 117.7578
468.1434, 146.4492
468.6255, 202.3086
469.1076, 242.3203
469.5898, 225.7070
470.0719, 168.1953
470.5540, 116.9922
471.0361, 101.7188
471.5182, 112.5938
472.0003, 123.7461
472.4825, 139.4570
472.9646, 143.2852
473.4467, 102.9062
473.9288, 70.51562
474.4109, 96.69531
474.8930, 175.2422
475.3752, 233.3867
475.8573, 208.5156
476.3394, 145.0234
476.8215, 122.4492
477.3036, 142.9805
477.7857, 161.8281
478.2679, 157.4414
478.7500, 136.6133
479.2321, 115.7656
479.7142, 98.55859
480.1963, 73.01953
480.6784, 16.25000
481.1606, 35.98047
481.6427, 45.62109
482.1248, 14.90234
482.6069, 26.19141
483.0890, 54.72266
483.5711, 71.49609
484.0533, 82.85547
484.5354, 80.02344
485.0175, 78.14062
485.4996, 77.85156
485.9817, 80.36328
486.4638, 90.13281
486.9460, 103.4258
487.4281, 112.2578
487.9102, 96.60156
488.3923, 68.36719
488.8744, 74.36719
489.3565, 122.0430
489.8387, 159.0391
490.3208, 154.0156
490.8029, 127.0000
491.2850, 115.1953
491.7671, 118.9336
492.2492, 136.2539
492.7314, 188.9648
493.2135, 243.6836
493.6956, 250.5703
494.1777, 210.3516
494.6598, 175.9141
495.1419, 193.4766
495.6241, 249.3398
496.1062, 247.7891
496.5883, 117.7969
497.0704, 29.70312
497.5525, 23.67578
498.0346, 47.60156
498.5168, 62.88672
498.9989, 63.11719
499.4810, 58.98047
499.9631, 61.52344
500.4452, 66.76562
500.9273, 53.33984
501.4095, 13.79688
501.8916, 12.53906
502.3737, 3.550781
502.8558, 26.39453
503.3379, 55.55078
503.8200, 85.27734
504.3022, 105.9766
504.7843, 103.7891
505.2664, 96.63672
505.7485, 110.5977
506.2306, 143.9531
506.7127, 169.3203
507.1949, 167.3867
507.6770, 144.6641
508.1591, 129.1758
508.6412, 114.6406
509.1233, 118.0273
509.6054, 171.9688
510.0876, 219.9023
510.5697, 203.5391
511.0518, 133.4805
511.5339, 72.47266
512.0161, 69.50000
512.4982, 105.7109
512.9803, 130.3359
513.4624, 136.0000
513.9445, 147.0547
514.4266, 180.1875
514.9088, 218.0039
515.3909, 239.2734
515.8730, 244.0938
516.3551, 238.9023
516.8372, 220.8633
517.3193, 190.5430
517.8015, 149.4062
518.2836, 107.3516
518.7657, 76.73047
519.2478, 66.73828
519.7299, 72.78906
520.2120, 85.57812
520.6942, 118.3242
521.1763, 132.0469
521.6584, 116.4648
522.1405, 93.87500
522.6226, 57.03906
523.1047, 23.35547
523.5869, 37.47266
524.0690, 139.0742
524.5511, 264.0000
525.0332, 301.9570
525.5153, 253.4453
525.9974, 198.3164
526.4796, 148.8516
526.9617, 108.9688
527.4438, 82.16016
527.9259, 67.82031
528.4080, 70.42188
528.8901, 107.0703
529.3723, 144.7070
529.8544, 161.7773
530.3365, 166.1914
530.8186, 174.1406
531.3007, 191.2227
531.7828, 211.0781
532.2650, 227.0938
532.7471, 241.9492
533.2292, 236.1797
533.7113, 182.2461
534.1934, 139.1406
534.6755, 130.5039
535.1577, 140.9023
535.6398, 145.6523
536.1219, 135.9883
536.6040, 137.1367
537.0861, 195.5234
537.5682, 284.3867
538.0504, 305.3594
538.5325, 237.9531
539.0146, 161.1055
539.4967, 131.8555
539.9788, 145.3555
540.4609, 164.1133
540.9431, 207.6016
541.4252, 226.4180
541.9073, 192.3906
542.3894, 140.9805
542.8715, 100.2266
543.3536, 76.23047
543.8358, 69.16016
544.3179, 82.57422
544.8000, 109.5117
545.2821, 114.1836
545.7642, 78.97656
546.2463, 70.40625
546.7285, 150.8594
547.2106, 229.6367
547.6927, 226.7969
548.1748, 146.4141
548.6569, 68.44531
549.1390, 29.08984
549.6211, 8.683594
550.1032, 15.08984
550.5853, 39.48438
551.0674, 49.77344
551.5496, 39.55469
552.0317, 14.94531
552.5138, 16.17578
552.9959, 60.59766
553.4780, 88.45312
553.9601, 96.19531
554.4423, 93.91016
554.9244, 78.39062
555.4065, 57.47656
555.8886, 39.72656
556.3707, 28.07031
556.8528, 30.45312
557.3350, 70.99219
557.8171, 143.9883
558.2992, 184.0742
558.7813, 178.5352
559.2634, 159.2500
559.7455, 139.4805
560.2277, 124.8164
560.7098, 126.3398
561.1919, 155.7461
561.6740, 178.9883
562.1561, 181.0078
562.6382, 174.1484
563.1204, 170.5781
563.6025, 171.8203
564.0846, 174.6289
564.5667, 177.0391
565.0488, 178.7617
565.5309, 182.1875
566.0131, 198.6367
566.4952, 187.8086
566.9773, 82.16406
567.4594, 3.179688
567.9415, 42.21875
568.4236, 185.6211
568.9058, 266.4414
569.3879, 163.5352
569.8700, 16.94141
570.3521, 35.05469
570.8342, 11.41406
571.3163, 34.02344
571.7985, 88.04297
572.2806, 125.2773
572.7627, 105.3945
573.2448, 15.05078
573.7269, 4.675781
574.2090, 138.0664
574.6912, 238.0859
575.1733, 216.6680
575.6554, 140.4297
576.1375, 77.89062
576.6196, 46.71875
577.1017, 36.61719
577.5839, 42.16406
578.0660, 61.06641
578.5481, 86.11719
579.0302, 117.4297
579.5123, 153.7461
579.9944, 200.3008
580.4766, 246.1719
580.9587, 267.5977
581.4408, 261.9727
581.9229, 253.8945
582.4050, 243.8984
582.8871, 234.0664
583.3693, 223.1914
583.8514, 213.8828
584.3335, 212.8789
584.8156, 223.3125
585.2977, 237.2539
585.7798, 243.0820
586.2620, 240.6641
586.7441, 233.0664
587.2262, 221.6133
587.7083, 199.7578
588.1904, 149.7656
588.6725, 92.85938
589.1547, 67.37109
589.6368, 89.09766
590.1189, 113.6211
590.6010, 112.5156
591.0831, 106.1094
591.5652, 132.8711
592.0474, 186.6055
592.5295, 210.7578
593.0116, 162.3555
593.4937, 73.50781
593.9758, 50.12109
594.4579, 138.7305
594.9401, 182.2070
595.4222, 113.6875
595.9043, 46.03906
596.3864, 43.42578
596.8685, 86.53125
597.3506, 121.1250
597.8328, 120.1797
598.3149, 111.4375
598.7970, 118.6328
599.2791, 138.9609
599.7612, 171.5938
600.2433, 216.5938
600.7255, 248.8320
601.2076, 244.0977
601.6897, 207.8477
602.1718, 184.4570
602.6539, 173.4453
603.1360, 179.9648
603.6182, 215.0117
604.1003, 253.4258
604.5824, 278.3555
605.0645, 287.7500
605.5466, 283.9453
606.0287, 266.1562
606.5109, 239.7656
606.9930, 204.5547
607.4751, 164.3477
607.9572, 150.2461
608.4393, 176.0781
608.9214, 206.0625
609.4036, 202.4297
609.8857, 165.8516
610.3678, 145.4609
610.8499, 161.1797
611.3320, 164.0508
611.8141, 138.7148
612.2963, 97.82812
612.7784, 42.75000
613.2605, 18.30859
613.7426, 57.50391
614.2247, 49.69531
614.7068, 8.316406
615.1890, 43.18359
615.6711, 106.2500
616.1532, 136.6641
616.6353, 108.9297
617.1174, 66.48438
617.5995, 57.00000
618.0817, 81.33984
618.5638, 110.0508
619.0459, 151.3242
619.5280, 185.9883
620.0101, 212.6602
620.4922, 225.4961
620.9744, 213.8477
621.4565, 178.1758
621.9386, 132.1406
622.4207, 79.10547
622.9028, 29.21484
623.3849, 31.79688
623.8671, 97.77344
624.3492, 152.7891
624.8313, 174.8516
625.3134, 175.1133
625.7955, 161.6016
626.2776, 134.4531
626.7598, 121.6836
627.2419, 148.4062
627.7240, 167.1094
628.2061, 138.0508
628.6882, 93.04297
629.1703, 79.58594
629.6525, 103.6562
630.1346, 125.5898
630.6167, 99.67578
631.0988, 39.15234
631.5809, 27.64453
632.0630, 85.39062
632.5452, 118.8906
633.0273, 85.00000
633.5094, 29.58984
633.9915, 0.1093750
634.4736, 5.078125
634.9557, 4.671875
635.4379, 46.65625
635.9200, 82.46484
636.4021, 75.76172
636.8842, 54.16797
637.3663, 69.69531
637.8484, 129.9922
638.3306, 187.5117
638.8127, 191.8555
639.2948, 152.6250
639.7769, 127.9766
640.2590, 120.9297
640.7411, 117.2734
641.2233, 109.2812
641.7054, 106.8828
642.1875, 135.8438
642.6696, 190.7656
643.1517, 197.6055
643.6339, 79.47656
644.1160, 24.64844
644.5981, 30.91797
645.0802, 23.10547
645.5623, 93.35156
646.0444, 162.6289
646.5266, 207.7031
647.0087, 200.8750
647.4908, 155.1641
647.9729, 133.8594
648.4550, 144.1836
648.9371, 150.3711
649.4193, 142.1094
649.9014, 127.9609
650.3835, 113.9062
650.8656, 100.4648
651.3477, 92.01953
651.8298, 90.21484
652.3120, 92.50781
652.7941, 112.6250
653.2762, 128.9180
653.7583, 98.12891
654.2404, 23.69531
654.7225, 34.65234
655.2047, 24.94141
655.6868, 32.55469
656.1689, 73.68750
656.6510, 97.87891
657.1331, 107.9375
657.6152, 99.19141
658.0974, 83.89844
658.5795, 76.14844
659.0616, 72.19141
659.5437, 53.69922
660.0258, 17.66406
660.5079, 58.23047
660.9901, 4.839844
661.4722, 71.17188
661.9543, 90.30469
662.4364, 52.67188
662.9185, 7.300781
663.4006, 16.28516
663.8828, 18.71094
664.3649, 6.718750
664.8470, 61.35938
665.3291, 97.78906
665.8112, 104.9883
666.2933, 102.0703
666.7755, 101.3633
667.2576, 102.0156
667.7397, 100.4180
668.2218, 92.72266
668.7039, 88.93750
669.1860, 93.94141
669.6682, 101.1328
670.1503, 106.5117
670.6324, 109.5234
671.1145, 109.7500
671.5966, 106.6094
672.0787, 100.9102
672.5609, 82.61328
673.0430, 55.52734
673.5251, 70.11328
674.0072, 140.8359
674.4893, 193.9883
674.9714, 175.3555
675.4536, 117.8125
675.9357, 109.6055
676.4178, 189.8203
676.8999, 233.1406
677.3820, 216.6992
677.8641, 182.8125
678.3463, 137.9062
678.8284, 95.96094
679.3105, 80.58984
679.7926, 99.29297
680.2747, 121.3477
680.7568, 114.2734
681.2390, 89.97266
681.7211, 72.17578
682.2032, 62.57812
682.6853, 75.30078
683.1674, 122.5000
683.6495, 174.7148
684.1317, 183.2305
684.6138, 135.9219
685.0959, 109.5898
685.5780, 129.9023
686.0601, 137.9141
686.5422, 110.5977
687.0244, 70.53906
687.5065, 37.57422
687.9886, 15.56641
688.4707, 6.265625
688.9528, 16.50391
689.4349, 35.49609
689.9171, 57.66406
690.3992, 78.27344
690.8813, 78.85156
691.3634, 55.03906
691.8455, 31.71875
692.3276, 34.85156
692.8098, 61.27344
693.2919, 79.38672
693.7740, 83.23828
694.2561, 92.31250
694.7382, 122.0742
695.2203, 147.3359
695.7025, 136.5039
696.1846, 104.4219
696.6667, 108.2930
697.1488, 191.4883
697.6309, 269.5117
698.1130, 299.3594
698.5952, 297.3203
699.0773, 271.7109
699.5594, 232.3086
700.0415, 207.9766
700.5236, 219.0195
701.0057, 241.5547
701.4879, 215.6836
701.9700, 136.2461
702.4521, 104.9023
702.9342, 156.5859
703.4163, 201.7109
703.8984, 177.5586
704.3806, 112.1797
704.8627, 65.01562
705.3448, 33.67188
705.8269, 25.32031
706.3090, 60.24219
706.7911, 99.17188
707.2733, 111.4219
707.7554, 113.8828
708.2375, 148.0039
708.7196, 223.4375
709.2017, 280.1406
709.6838, 234.9023
710.1660, 134.1719
710.6481, 100.1758
711.1302, 131.2266
711.6123, 172.6836
712.0944, 208.4844
712.5765, 232.7227
713.0587, 241.9727
713.5408, 236.6953
714.0229, 213.3164
714.5050, 126.0820
714.9871, 84.57031
715.4692, 150.3047
715.9514, 232.3047
716.4335, 260.3633
716.9156, 235.3906
717.3977, 191.0312
717.8798, 118.7031
718.3619, 60.63281
718.8441, 68.19141
719.3262, 110.9258
719.8083, 150.2461
720.2904, 176.0859
720.7725, 171.8672
721.2546, 121.3750
721.7368, 52.74609
722.2189, 30.54688
722.7010, 55.24219
723.1831, 130.8164
723.6652, 308.6641
724.1473, 436.7773
724.6295, 406.7852
725.1116, 277.0859
725.5937, 163.9922
726.0758, 61.42188
726.5579, 0.5937500
727.0400, 14.21094
727.5222, 43.35547
728.0043, 54.40234
728.4864, 56.51172
728.9685, 65.77344
729.4506, 87.25000
729.9327, 120.9336
730.4149, 185.8125
730.8970, 254.9375
731.3791, 260.7109
731.8612, 208.3438
732.3433, 136.4883
732.8254, 49.27734
733.3076, 6.617188
733.7897, 27.03516
734.2718, 140.2031
734.7539, 200.9883
735.2360, 180.4609
735.7181, 155.5586
736.2003, 123.3906
736.6824, 100.2930
737.1645, 95.91406
737.6466, 108.8477
738.1287, 138.0391
738.6108, 198.6094
739.0930, 237.8125
739.5751, 205.9609
740.0572, 152.8594
740.5393, 135.9297
741.0214, 147.7148
741.5035, 129.7969
741.9857, 54.53906
742.4678, 24.40234
742.9499, 20.84766
743.4320, 58.19531
743.9141, 115.2812
744.3962, 148.2539
744.8784, 163.3477
745.3605, 154.6914
745.8426, 142.5781
746.3247, 162.0000
746.8068, 217.4414
747.2889, 237.2852
747.7711, 207.1406
748.2532, 167.2891
748.7353, 99.51953
749.2174, 46.42578
749.6995, 67.49609
750.1816, 145.5586
750.6638, 196.4648
751.1459, 171.3984
751.6280, 122.6328
752.1101, 75.90234
752.5922, 47.68750
753.0743, 99.84375
753.5565, 218.9883
754.0386, 275.6680
754.5207, 187.6562
755.0028, 39.33984
755.4849, 8.484375
755.9670, 114.1602
756.4492, 152.8984
756.9313, 94.90625
757.4134, 37.86328
757.8955, 37.64062
758.3776, 61.62891
758.8597, 59.32031
759.3419, 28.89062
759.8240, 1.667969
760.3061, 57.02344
760.7882, 79.91797
761.2703, 19.09375
761.7524, 65.42188
762.2346, 112.7812
762.7167, 117.5195
763.1988, 105.4258
763.6809, 82.70312
764.1630, 64.48438
764.6451, 78.64453
765.1273, 109.0859
765.6094, 109.5898
766.0915, 78.02734
766.5736, 53.53125
767.0557, 62.23828
767.5378, 89.75000
768.0200, 104.8438
768.5021, 105.4102
768.9842, 106.2305
769.4663, 110.5586
769.9484, 108.2695
770.4305, 90.68750
770.9127, 66.93750
771.3948, 48.08594
771.8769, 33.53125
772.3590, 29.98828
772.8411, 48.89062
773.3232, 66.20312
773.8054, 61.10156
774.2875, 57.43750
774.7696, 95.47656
775.2517, 164.8516
775.7338, 203.0352
776.2159, 164.7891
776.6981, 105.0273
777.1802, 87.32031
777.6623, 94.71875
778.1444, 85.43750
778.6265, 57.11328
779.1086, 36.17188
779.5908, 37.83203
780.0729, 52.03125
780.5550, 61.61719
781.0371, 66.62500
781.5192, 62.81250
782.0013, 39.80859
782.4835, 37.55469
782.9656, 89.14453
783.4477, 151.8242
783.9298, 166.2539
784.4119, 131.7812
784.8940, 107.1992
785.3762, 98.59375
785.8583, 95.59766
786.3404, 87.99609
786.8225, 90.67578
787.3046, 133.0430
787.7867, 198.2070
788.2689, 227.8281
788.7510, 187.0625
789.2331, 144.1523
789.7152, 164.8516
790.1973, 200.2969
790.6794, 171.4648
791.1616, 89.12500
791.6437, 24.60156
792.1258, 8.046875
792.6079, 20.42578
793.0900, 40.59766
793.5721, 66.71875
794.0543, 78.70312
794.5364, 73.02344
795.0185, 79.99609
795.5006, 120.4219
795.9827, 149.0039
796.4648, 109.6055
796.9470, 12.10156
797.4291, 35.77344
797.9112, 8.242188
798.3933, 42.28516
798.8754, 48.91016
799.3575, 57.25000
799.8397, 95.36719
800.3218, 143.2109
800.8039, 163.7695
801.2860, 146.5977
801.7681, 117.5625
802.2502, 84.14844
802.7324, 51.17969
803.2145, 9.890625
803.6966, 27.22656
804.1787, 28.03125
804.6608, 9.761719
805.1429, 42.69531
805.6251, 27.25781
806.1072, 7.894531
806.5893, 6.488281
807.0714, 62.44141
807.5535, 98.71094
808.0356, 105.8242
808.5178, 103.9375
808.9999, 97.89453
809.4820, 91.96484
809.9641, 87.24609
810.4462, 84.04688
810.9283, 80.47656
811.4105, 71.55469
811.8926, 70.84766
812.3747, 105.9023
812.8568, 136.8750
813.3389, 100.7422
813.8210, 1.882813
814.3032, 54.21875
814.7853, 8.222656
815.2674, 62.96875
815.7495, 58.89453
816.2316, 36.65234
816.7137, 27.64844
817.1959, 34.91406
817.6780, 53.44531
818.1601, 81.15234
818.6422, 105.4219
819.1243, 123.5352
819.6064, 130.5156
820.0886, 109.1992
820.5707, 71.78906
821.0528, 70.12891
821.5349, 120.4727
822.0170, 164.4297
822.4991, 129.2500
822.9813, 38.87109
823.4634, 1.359375
823.9455, 11.80469
824.4276, 26.51562
824.9097, 33.86328
825.3918, 38.16406
825.8740, 40.43359
826.3561, 43.35938
826.8382, 57.24219
827.3203, 96.19922
827.8024, 113.1797
828.2845, 80.22266
828.7667, 59.80859
829.2488, 90.67969
829.7309, 136.2656
830.2130, 154.5039
830.6951, 142.7617
831.1772, 118.3555
831.6594, 67.68750
832.1415, 26.79688
832.6236, 13.50781
833.1057, 15.84375
833.5878, 23.53906
834.0699, 35.07422
834.5521, 53.08594
835.0342, 80.42969
835.5163, 105.1914
835.9984, 117.7109
836.4805, 120.0781
836.9626, 104.8086
837.4448, 81.66406
837.9269, 90.52344
838.4090, 142.6094
838.8911, 194.2305
839.3732, 198.6562
839.8553, 166.0352
840.3375, 129.2461
840.8196, 88.01172
841.3017, 50.01953
841.7838, 9.066406
842.2659, 17.50391
842.7480, 134.5469
843.2302, 294.5000
843.7123, 321.5703
844.1944, 151.2148
844.6765, 67.73828
845.1586, 153.5391
845.6407, 203.4180
846.1229, 82.65625
846.6050, 59.48438
847.0871, 54.65234
847.5692, 84.39062
848.0513, 170.3516
848.5334, 148.2188
849.0156, 110.6016
849.4977, 59.93359
849.9798, 23.19531
850.4619, 27.50000
850.9440, 60.65625
851.4261, 97.35156
851.9083, 130.8555
852.3904, 154.2188
852.8725, 153.8945
853.3546, 149.1719
853.8367, 175.2969
854.3188, 208.5820
854.8010, 180.8750
855.2831, 90.69531
855.7652, 40.39453
856.2473, 110.2656
856.7294, 223.9062
857.2115, 243.4258
857.6937, 187.6133
858.1758, 136.3828
858.6579, 97.93359
859.1400, 63.48828
859.6221, 22.65234
860.1042, 8.210938
860.5864, 4.261719
861.0685, 57.97266
861.5506, 93.19141
862.0327, 105.5430
862.5148, 132.5195
862.9969, 194.9141
863.4791, 242.1562
863.9612, 233.9805
864.4433, 181.9766
864.9254, 116.9258
865.4075, 7.589844
865.8896, 48.04688
866.3718, 56.30469
866.8539, 168.2266
867.3360, 261.6719
867.8181, 324.2734
868.3002, 330.3438
868.7823, 283.7266
869.2645, 248.5234
869.7466, 273.5312
870.2287, 272.1055
870.7108, 162.4258
871.1929, 48.10156
871.6750, 40.87500
872.1572, 100.4883
872.6393, 122.6250
873.1214, 64.56641
873.6035, 20.06250
874.0856, 88.27734
874.5677, 179.7734
875.0499, 185.2891
875.5320, 138.4258
876.0141, 114.6680
876.4962, 126.0273
876.9783, 137.1289
877.4604, 123.8984
877.9426, 98.83594
878.4247, 77.16406
878.9068, 60.94141
879.3889, 66.22656
879.8710, 90.57422
880.3531, 88.26172
880.8353, 38.70703
881.3174, 9.265625
881.7995, 8.105469
882.2816, 78.23047
882.7637, 124.2539
883.2458, 145.8008
883.7280, 137.9219
884.2101, 86.12109
884.6922, 51.74609
885.1743, 84.72266
885.6564, 148.5391
886.1385, 157.8320
886.6207, 88.86328
887.1028, 74.71094
887.5849, 163.7383
888.0670, 235.7539
888.5491, 245.7227
889.0313, 227.7930
889.5134, 202.9922
889.9955, 173.2812
890.4776, 146.8867
890.9597, 112.8984
891.4418, 106.1094
891.9240, 176.1133
892.4061, 222.2617
892.8882, 156.6211
893.3703, 55.46875
893.8524, 34.03516
894.3345, 101.0625
894.8167, 151.2188
895.2988, 110.8320
895.7809, 81.44141
896.2630, 150.7305
896.7451, 232.7500
897.2272, 225.3125
897.7094, 152.8320
898.1915, 98.79297
898.6736, 93.05469
899.1557, 101.4219
899.6378, 95.21484
900.1199, 89.11719
900.6021, 112.5859
901.0842, 145.8047
901.5663, 136.5508
902.0484, 85.60156
902.5305, 50.49609
903.0126, 68.40625
903.4948, 110.7539
903.9769, 134.5273
904.4590, 144.1875
904.9411, 185.3711
905.4232, 255.0430
905.9053, 275.6562
906.3875, 223.9531
906.8696, 167.9141
907.3517, 177.0977
907.8338, 225.0195
908.3159, 218.1172
908.7980, 155.9102
909.2802, 133.9297
909.7623, 168.3828
910.2444, 192.9062
910.7265, 171.9297
911.2086, 136.9688
911.6907, 134.6719
912.1729, 164.8359
912.6550, 162.1328
913.1371, 108.6602
913.6192, 82.21875
914.1013, 114.2500
914.5834, 141.4336
915.0656, 118.2070
915.5477, 63.67578
916.0298, 16.20703
916.5119, 37.90234
916.9940, 31.77734
917.4761, 103.1172
917.9583, 199.4102
918.4404, 212.0156
918.9225, 181.9766
919.4046, 108.9023
919.8867, 17.03125
920.3688, 2.683594
920.8510, 103.8711
921.3331, 176.8789
921.8152, 182.0898
922.2973, 162.5781
922.7794, 103.4336
923.2615, 51.57812
923.7437, 84.09766
924.2258, 194.5156
924.7079, 251.7852
925.1900, 188.3711
925.6721, 114.7773
926.1542, 68.40625
926.6364, 36.52344
927.1185, 2.890625
927.6006, 20.88281
928.0827, 9.464844
928.5648, 40.30469
929.0469, 96.41797
929.5291, 155.2188
930.0112, 197.7852
930.4933, 192.8477
930.9754, 175.0078
931.4575, 201.7383
931.9396, 254.3477
932.4218, 257.2422
932.9039, 184.4961
933.3860, 118.9492
933.8681, 160.4648
934.3502, 226.1797
934.8323, 190.8789
935.3145, 103.8242
935.7966, 73.36328
936.2787, 103.9297
936.7608, 128.3945
937.2429, 111.2656
937.7250, 76.27344
938.2072, 33.06250
938.6893, 1.832031
939.1714, 58.27344
939.6535, 172.7188
940.1356, 198.7500
940.6177, 113.8750
941.0999, 49.37891
941.5820, 101.0078
942.0641, 208.5430
942.5462, 280.1445
943.0283, 313.0469
943.5104, 279.3047
943.9926, 182.7227
944.4747, 75.67188
944.9568, 27.02344
945.4389, 74.68750
945.9210, 9.183594
946.4031, 115.8320
946.8853, 142.5156
947.3674, 71.39453
947.8495, 16.17578
948.3316, 16.31641
948.8137, 29.99219
949.2958, 25.21094
949.7780, 7.222656
950.2601, 21.02734
950.7422, 55.24219
951.2243, 68.07031
951.7064, 52.91797
952.1885, 62.49219
952.6707, 109.1914
953.1528, 150.1875
953.6349, 163.6992
954.1170, 166.3750
954.5991, 184.7969
955.0812, 216.6055
955.5634, 205.9219
956.0455, 122.8281
956.5276, 92.36328
957.0097, 153.0586
957.4918, 221.3672
957.9739, 265.3750
958.4561, 275.5977
958.9382, 226.3477
959.4203, 110.1484
959.9024, 40.41016
960.3845, 35.94531
960.8666, 40.28516
961.3488, 44.86328
961.8309, 56.96875
962.3130, 83.98828
962.7951, 120.0391
963.2772, 157.0938
963.7593, 194.9219
964.2415, 219.6367
964.7236, 219.8789
965.2057, 223.6406
965.6878, 254.0938
966.1699, 271.5234
966.6520, 246.1484
967.1342, 190.1406
967.6163, 123.6250
968.0984, 31.93359
968.5805, 8.703125
969.0626, 40.63281
969.5447, 93.95703
970.0269, 150.6094
970.5090, 184.6875
970.9911, 161.0508
971.4732, 101.6719
971.9553, 62.71875
972.4374, 48.67969
972.9196, 57.52734
973.4017, 119.6289
973.8838, 165.9922
974.3659, 155.3594
974.8480, 133.2109
975.3301, 140.9180
975.8123, 167.0391
976.2944, 180.4727
976.7765, 176.6250
977.2586, 157.7930
977.7407, 67.05469
978.2228, 30.48438
978.7050, 188.9219
979.1871, 363.2109
979.6692, 338.8047
980.1513, 169.6836
980.6334, 98.41016
981.1155, 223.7578
981.5977, 300.4023
982.0798, 197.0156
982.5619, 95.63281
983.0440, 87.47266
983.5261, 131.2383
984.0082, 197.3594
984.4904, 269.4023
984.9725, 311.4844
985.4546, 311.7812
985.9367, 286.3516
986.4188, 212.9844
986.9009, 149.7617
987.3831, 111.5117
987.8652, 103.0664
988.3473, 146.0664
988.8294, 220.9531
989.3115, 249.7266
989.7936, 190.5781
990.2758, 137.8008
990.7579, 140.1797
991.2400, 150.2344
991.7221, 133.6836
992.2042, 109.7422
992.6863, 111.0312
993.1685, 131.2344
993.6506, 122.6406
994.1327, 43.99219
994.6148, 10.28125
995.0969, 134.5859
995.5790, 254.6328
996.0612, 245.2734
996.5433, 175.0195
997.0254, 124.7500
997.5075, 105.7695
997.9896, 109.1562
998.4717, 142.8398
998.9539, 164.9727
999.4360, 154.8711
999.9181, 128.2070
1000.400, 74.42188
1000.882, 24.51172
1001.364, 26.88672
1001.847, 72.33984
1002.329, 100.5625
1002.811, 81.62891
1003.293, 63.33594
1003.775, 92.52344
1004.257, 115.9570
1004.739, 70.89062
1005.221, 16.73438
1005.703, 51.55469
1006.186, 153.2148
1006.668, 196.9492
1007.150, 122.5039
1007.632, 55.04297
1008.114, 53.92578
1008.596, 73.77344
1009.078, 99.47266
1009.560, 119.5781
1010.043, 116.9336
1010.525, 100.7812
1011.007, 97.75781
1011.489, 131.6406
1011.971, 145.7422
1012.453, 63.55859
1012.935, 13.28125
1013.417, 120.7305
1013.899, 267.6953
1014.382, 316.1719
1014.864, 277.6094
1015.346, 242.1719
1015.828, 234.3555
1016.310, 231.0898
1016.792, 237.4336
1017.274, 229.5977
1017.756, 168.1680
1018.239, 106.9141
1018.721, 124.3281
1019.203, 188.7305
1019.685, 183.7383
1020.167, 60.44922
1020.649, 18.77734
1021.131, 30.01562
1021.613, 95.62109
1022.095, 133.9609
1022.578, 159.6211
1023.060, 196.8125
1023.542, 233.5312
1024.024, 228.3047
1024.506, 167.2266
1024.988, 129.2461
1025.470, 164.3359
1025.952, 187.1797
1026.435, 144.1445
1026.917, 96.92969
1027.399, 96.90234
1027.881, 129.2188
1028.363, 160.7812
1028.845, 189.9062
1029.327, 197.6992
1029.809, 178.4023
1030.292, 140.6836
1030.774, 63.28516
1031.256, 8.257813
1031.738, 55.33594
1032.220, 70.30859
1032.702, 32.56641
1033.184, 63.97266
1033.666, 144.1445
1034.148, 224.5156
1034.630, 252.2344
1035.113, 168.7188
1035.595, 84.76562
1036.077, 69.44531
1036.559, 87.16016
1037.041, 78.26953
1037.523, 40.28125
1038.005, 38.08594
1038.487, 119.4961
1038.970, 159.6094
1039.452, 122.4453
1039.934, 80.33203
1040.416, 57.48047
1040.898, 51.91406
1041.380, 63.14062
1041.862, 90.29297
1042.344, 128.1250
1042.826, 217.7734
1043.309, 218.7812
1043.791, 45.94141
1044.273, 60.83203
1044.755, 29.60547
1045.237, 159.7383
1045.719, 163.1914
1046.201, 71.62500
1046.683, 31.07031
1047.166, 48.63281
1047.648, 103.5508
1048.130, 232.8359
1048.612, 277.6680
1049.094, 153.7422
1049.576, 28.39844
1050.058, 54.51172
1050.540, 168.3242
1051.022, 191.0781
1051.505, 109.7109
1051.987, 71.85156
1052.469, 82.33203
1052.951, 92.23047
1053.433, 92.62500
1053.915, 92.79688
1054.397, 100.0547
1054.879, 106.0625
1055.361, 90.87109
1055.844, 58.28906
1056.326, 55.57422
1056.808, 82.66406
1057.290, 121.9648
1057.772, 170.7266
1058.254, 210.1758
1058.736, 230.9375
1059.218, 230.1875
1059.701, 198.8281
1060.183, 146.8438
1060.665, 98.12500
1061.147, 58.33594
1061.629, 68.24609
1062.111, 125.8164
1062.593, 179.9258
1063.075, 210.1680
1063.557, 223.8008
1064.040, 224.0000
1064.522, 217.9727
1065.004, 225.5039
1065.486, 234.7383
1065.968, 218.2266
1066.450, 175.5469
1066.932, 94.28125
1067.414, 15.89062
1067.896, 71.54297
1068.379, 6.289063
1068.861, 100.9102
1069.343, 189.6719
1069.825, 246.5898
1070.307, 218.4766
1070.789, 154.9922
1071.271, 155.7383
1071.753, 220.3398
1072.236, 268.3047
1072.718, 261.7578
1073.200, 247.4570
1073.682, 285.2109
1074.164, 302.1328
1074.646, 192.9492
1075.128, 59.59766
1075.610, 34.89062
1076.093, 97.16797
1076.575, 159.1250
1077.057, 198.6875
1077.539, 210.4414
1078.021, 157.9062
1078.503, 120.6914
1078.985, 182.6719
1079.467, 231.3477
1079.949, 133.0000
1080.432, 15.39453
1080.914, 30.69922
1081.396, 99.26953
1081.878, 181.3047
1082.360, 142.8984
1082.842, 112.4023
1083.324, 127.8984
1083.806, 132.3633
1084.288, 75.05469
1084.771, 12.58594
1085.253, 5.769531
1085.735, 48.10938
1086.217, 112.4570
1086.699, 229.0430
1087.181, 284.7031
1087.663, 255.8672
1088.145, 210.0430
1088.628, 144.8398
1089.110, 104.7930
1089.592, 132.2891
1090.074, 194.0586
1090.556, 218.0898
1091.038, 203.5352
1091.520, 166.5703
1092.002, 98.74219
1092.484, 65.60547
1092.967, 79.72266
1093.449, 123.9453
1093.931, 198.1680
1094.413, 249.9102
1094.895, 199.0664
1095.377, 87.20312
1095.859, 77.55469
1096.341, 155.3945
1096.823, 218.2188
1097.306, 253.7344
1097.788, 230.0625
1098.270, 141.6641
1098.752, 59.68750
1099.234, 37.92188
1099.716, 65.50000
1100.198, 163.7227
1100.680, 278.7539
1101.163, 282.3750
1101.645, 213.1328
1102.127, 176.8867
1102.609, 191.3633
1103.091, 189.5391
1103.573, 140.6953
1104.055, 93.12109
1104.537, 86.75000
1105.020, 99.63672
1105.502, 113.1562
1105.984, 132.8477
1106.466, 176.5703
1106.948, 229.1797
1107.430, 266.2383
1107.912, 279.9609
1108.394, 243.2891
1108.876, 84.57812
1109.359, 34.51562
1109.841, 44.46094
1110.323, 7.062500
1110.805, 86.85547
1111.287, 174.6641
1111.769, 159.8516
1112.251, 65.73047
1112.733, 33.70312
1113.215, 98.33594
1113.698, 171.2070
1114.180, 298.5312
1114.662, 353.3867
1115.144, 262.4258
1115.626, 155.6523
1116.108, 125.8359
1116.590, 134.8320
1117.072, 118.1289
1117.555, 79.05078
1118.037, 48.24219
1118.519, 19.37891
1119.001, 46.33203
1119.483, 148.6562
1119.965, 212.3516
1120.447, 183.1992
1120.929, 142.6367
1121.411, 177.7070
1121.894, 255.0703
1122.376, 294.4180
1122.858, 297.6055
1123.340, 258.8516
1123.822, 190.8398
1124.304, 171.9102
1124.786, 209.9023
1125.268, 214.8789
1125.750, 132.8281
1126.233, 34.62891
1126.715, 34.43359
1127.197, 61.26953
1127.679, 13.38281
1128.161, 119.0469
1128.643, 137.1758
1129.125, 86.03516
1129.607, 38.21094
1130.090, 15.98047
1130.572, 23.83984
1131.054, 86.03516
1131.536, 139.6641
1132.018, 129.2852
1132.500, 124.6602
1132.982, 201.4922
1133.464, 291.2461
1133.947, 299.0156
1134.429, 241.8438
1134.911, 216.9258
1135.393, 251.8281
1135.875, 263.8633
1136.357, 235.4648
1136.839, 199.6797
1137.321, 160.2266
1137.803, 115.6172
1138.286, 50.94141
1138.768, 5.402344
1139.250, 6.507813
1139.732, 40.28516
1140.214, 97.26172
1140.696, 172.0273
1141.178, 194.3242
1141.660, 155.5117
1142.142, 109.3438
1142.625, 72.03516
1143.107, 43.62891
1143.589, 23.17188
1144.071, 19.21094
1144.553, 55.68359
1145.035, 118.0664
1145.517, 172.2305
1145.999, 211.7812
1146.482, 216.0977
1146.964, 186.8555
1147.446, 128.1133
1147.928, 46.60156
1148.410, 9.335938
1148.892, 97.55078
1149.374, 196.8008
1149.856, 207.1406
1150.339, 172.1484
1150.821, 104.8516
1151.303, 38.52344
1151.785, 23.41797
1152.267, 52.57812
1152.749, 68.76953
1153.231, 49.70703
1153.713, 51.37109
1154.195, 120.4883
1154.677, 164.9648
1155.160, 140.1602
1155.642, 100.8281
1156.124, 72.45312
1156.606, 57.06641
1157.088, 61.14453
1157.570, 82.48438
1158.052, 95.91406
1158.534, 103.5312
1159.017, 85.81250
1159.499, 31.12891
1159.981, 24.64062
1160.463, 99.78906
1160.945, 156.7695
1161.427, 118.2422
1161.909, 46.73438
1162.391, 50.60156
1162.874, 107.1797
1163.356, 150.8906
1163.838, 179.3555
1164.320, 166.4180
1164.802, 128.0469
1165.284, 149.5820
1165.766, 246.6914
1166.248, 295.2891
1166.730, 186.2617
1167.213, 68.31250
1167.695, 88.39844
1168.177, 137.8594
1168.659, 103.6445
1169.141, 45.31250
1169.623, 53.63281
1170.105, 109.1406
1170.587, 124.6758
1171.069, 76.00391
1171.552, 67.01172
1172.034, 196.6602
1172.516, 236.8008
1172.998, 64.58203
1173.480, 74.32422
1173.962, 61.17188
1174.444, 12.46094
1174.926, 57.50781
1175.409, 77.46094
1175.891, 78.10156
1176.373, 55.85156
1176.855, 66.60938
1177.337, 111.1406
1177.819, 167.0625
1178.301, 229.0039
1178.783, 248.9180
1179.266, 200.8945
1179.748, 141.6406
1180.230, 141.1758
1180.712, 159.7422
1181.194, 134.5508
1181.676, 92.06250
1182.158, 59.84375
1182.640, 54.02344
1183.122, 137.7578
1183.604, 278.1445
1184.087, 307.2188
1184.569, 144.8828
1185.051, 16.21484
1185.533, 41.33594
1186.015, 97.75391
1186.497, 151.4922
1186.979, 196.9688
1187.461, 246.3750
1187.944, 275.3086
1188.426, 237.6445
1188.908, 147.3047
1189.390, 90.31250
1189.872, 74.29297
1190.354, 63.74609
1190.836, 57.18750
1191.318, 64.59375
1191.801, 89.05078
1192.283, 122.3320
1192.765, 160.6914
1193.247, 198.5195
1193.729, 236.0234
1194.211, 256.9414
1194.693, 191.9727
1195.175, 89.20312
1195.657, 89.33594
1196.140, 165.3906
1196.622, 220.6562
1197.104, 236.4688
1197.586, 237.3203
1198.068, 232.0312
1198.550, 233.6250
1199.032, 263.8516
1199.514, 285.6797
1199.996, 276.0547
1200.479, 251.9219
1200.961, 213.3555
1201.443, 177.3047
1201.925, 170.3711
1202.407, 189.7383
1202.889, 187.2500
1203.371, 195.1797
1203.853, 195.2891
1204.336, 185.1094
1204.818, 178.0312
1205.300, 182.7500
1205.782, 152.5938
1206.264, 52.54297
1206.746, 27.93750
1207.228, 28.62109
1207.710, 161.4023
1208.193, 220.2930
1208.675, 228.9570
1209.157, 256.3789
1209.639, 294.7305
1210.121, 313.4102
1210.603, 305.8359
1211.085, 260.4141
1211.567, 170.8008
1212.049, 128.5781
1212.531, 255.1953
1213.014, 355.5039
1213.496, 304.2969
1213.978, 215.1562
1214.460, 135.7773
1214.942, 87.02344
1215.424, 114.4570
1215.906, 188.3516
1216.388, 197.3359
1216.871, 128.0000
1217.353, 71.69531
1217.835, 20.37891
1218.317, 19.76562
1218.799, 81.23047
1219.281, 163.2773
1219.763, 266.9688
1220.245, 332.2344
1220.728, 305.4609
1221.210, 228.2031
1221.692, 160.1406
1222.174, 103.5039
1222.656, 60.03125
1223.138, 32.90234
1223.620, 35.29297
1224.102, 58.87109
1224.584, 79.25781
1225.067, 89.09375
1225.549, 102.8750
1226.031, 134.4414
1226.513, 149.9766
1226.995, 134.0234
1227.477, 104.7812
1227.959, 53.34766
1228.441, 11.02344
1228.923, 4.679688
1229.406, 6.625000
1229.888, 49.43750
1230.370, 65.92188
1230.852, 39.34375
1231.334, 0.0000000E+00
##END=



