##NAMES=Asbolane
##RRUFFID=R070306
##IDEAL CHEMISTRY=Mn^4+^(O,OH)_2_&#183;(Co^3+^,Ni^2+^,Mg,Ca)_x_(OH)_2x_&#183;nH_2_O
##LOCALITY=Porterville, Tulare County, California, USA
##OWNER=RRUFF
##SOURCE=James Shigley
##DESCRIPTION=Coating of thin micron sized black platelets
##STATUS=The identification of this mineral is not yet confirmed.
##URL=rruff.info/R070306
182.7303, 0.0000000E+00
183.2124, 26.97559
183.6946, 12.70020
184.1767, 0.6328130
184.6588, 46.81641
185.1409, 81.09180
185.6230, 72.96680
186.1051, 44.34570
186.5873, 20.09180
187.0694, 12.63770
187.5515, 21.10742
188.0336, 20.73047
188.5157, 11.95898
188.9978, 11.08789
189.4800, 32.82715
189.9621, 58.30859
190.4442, 64.14258
190.9263, 38.14941
191.4084, 2.138672
191.8905, 13.14844
192.3727, 20.98145
192.8548, 58.17578
193.3369, 99.56738
193.8190, 136.3223
194.3011, 157.3027
194.7832, 157.8418
195.2654, 148.3389
195.7475, 151.1396
196.2296, 171.8545
196.7117, 195.4580
197.1938, 230.1289
197.6759, 261.0654
198.1581, 270.3242
198.6402, 252.6729
199.1223, 225.6953
199.6044, 224.5537
200.0865, 269.6963
200.5686, 299.9912
201.0508, 308.8564
201.5329, 304.8066
202.0150, 290.8213
202.4971, 268.7090
202.9792, 243.9023
203.4613, 225.3408
203.9435, 216.1689
204.4256, 206.4629
204.9077, 189.3613
205.3898, 175.8613
205.8719, 177.2471
206.3540, 194.0430
206.8362, 213.6738
207.3183, 218.4658
207.8004, 202.3770
208.2825, 186.0566
208.7646, 170.2393
209.2467, 153.8438
209.7289, 133.9805
210.2110, 111.6641
210.6931, 92.29688
211.1752, 82.58594
211.6573, 84.57324
212.1395, 89.16797
212.6216, 102.3730
213.1037, 112.8984
213.5858, 112.9473
214.0679, 103.9551
214.5500, 93.72656
215.0322, 89.40430
215.5143, 91.15039
215.9964, 98.15234
216.4785, 123.9219
216.9606, 142.4531
217.4427, 138.5420
217.9249, 117.5947
218.4070, 96.54688
218.8891, 89.98633
219.3712, 98.40137
219.8533, 103.7480
220.3354, 103.6914
220.8176, 102.6289
221.2997, 97.30078
221.7818, 91.89355
222.2639, 95.86328
222.7460, 118.4385
223.2281, 156.3867
223.7103, 172.2900
224.1924, 133.0879
224.6745, 107.2178
225.1566, 123.9082
225.6387, 159.9004
226.1208, 176.6084
226.6030, 148.8955
227.0851, 91.95508
227.5672, 71.61523
228.0493, 129.1152
228.5314, 168.6445
229.0135, 160.6787
229.4957, 132.6436
229.9778, 115.7412
230.4599, 125.4453
230.9420, 149.8838
231.4241, 158.5527
231.9062, 136.9365
232.3884, 124.3223
232.8705, 134.3105
233.3526, 149.4375
233.8347, 154.5820
234.3168, 144.7510
234.7989, 126.2471
235.2811, 106.2920
235.7632, 80.75195
236.2453, 65.81055
236.7274, 68.65234
237.2095, 76.90234
237.6916, 86.20996
238.1738, 94.12891
238.6559, 95.14453
239.1380, 77.11816
239.6201, 29.58398
240.1022, 3.485352
240.5843, 19.14648
241.0665, 41.52637
241.5486, 56.01953
242.0307, 61.34961
242.5128, 63.56641
242.9949, 67.11133
243.4770, 72.17383
243.9592, 76.40332
244.4413, 78.90527
244.9234, 81.41504
245.4055, 83.45703
245.8876, 85.95605
246.3697, 91.66992
246.8519, 106.6230
247.3340, 128.0264
247.8161, 127.1895
248.2982, 74.56738
248.7803, 39.81641
249.2624, 60.75586
249.7446, 111.0137
250.2267, 148.7451
250.7088, 148.6582
251.1909, 123.0771
251.6730, 108.0664
252.1551, 109.8750
252.6373, 109.5869
253.1194, 98.52539
253.6015, 83.53418
254.0836, 72.43555
254.5657, 68.65137
255.0478, 67.42480
255.5300, 58.95312
256.0121, 39.12988
256.4942, 27.87109
256.9763, 40.23438
257.4584, 58.09961
257.9406, 68.92871
258.4227, 70.02539
258.9048, 66.44238
259.3869, 60.03809
259.8690, 50.29102
260.3511, 51.60352
260.8333, 84.79688
261.3154, 113.4082
261.7975, 104.6992
262.2796, 60.20020
262.7617, 18.28516
263.2438, 8.083008
263.7260, 24.96777
264.2081, 43.11719
264.6902, 63.40918
265.1723, 78.99902
265.6544, 83.32129
266.1365, 79.05469
266.6187, 74.71875
267.1008, 77.78320
267.5829, 82.87891
268.0650, 76.79883
268.5471, 56.01660
269.0292, 34.64258
269.5114, 22.59961
269.9935, 17.86719
270.4756, 16.73926
270.9577, 15.53223
271.4398, 18.04102
271.9219, 33.86328
272.4041, 63.65820
272.8862, 84.45020
273.3683, 82.79688
273.8504, 64.96680
274.3325, 43.83008
274.8146, 15.27637
275.2968, 8.101563
275.7789, 16.49023
276.2610, 12.19141
276.7431, 3.662109
277.2252, 8.330078
277.7073, 20.27051
278.1895, 25.00293
278.6716, 20.43652
279.1537, 19.61816
279.6358, 31.04688
280.1179, 48.43164
280.6000, 61.31738
281.0822, 67.49219
281.5643, 68.88477
282.0464, 67.46094
282.5285, 63.29590
283.0106, 55.27930
283.4927, 36.28809
283.9749, 17.80762
284.4570, 13.63379
284.9391, 23.58008
285.4212, 31.29688
285.9033, 20.91309
286.3854, 6.662109
286.8676, 16.14062
287.3497, 2.672852
287.8318, 25.86621
288.3139, 42.51562
288.7960, 54.04297
289.2781, 66.36230
289.7603, 83.47266
290.2424, 102.7090
290.7245, 112.1787
291.2066, 103.6904
291.6887, 96.33594
292.1708, 91.99414
292.6530, 90.64355
293.1351, 96.39844
293.6172, 110.2617
294.0993, 120.7979
294.5814, 106.0791
295.0635, 41.05664
295.5457, 1.826172
296.0278, 12.68555
296.5099, 10.22168
296.9920, 6.610352
297.4741, 3.555664
297.9562, 4.427734
298.4384, 25.74023
298.9205, 65.27051
299.4026, 83.59180
299.8847, 60.37988
300.3668, 36.95801
300.8489, 26.33496
301.3311, 26.65430
301.8131, 31.73828
302.2953, 38.27441
302.7774, 45.47949
303.2595, 48.49219
303.7416, 38.57617
304.2237, 37.95508
304.7058, 61.54688
305.1880, 91.21387
305.6701, 105.0625
306.1522, 94.53223
306.6343, 75.06543
307.1164, 74.48145
307.5985, 100.2607
308.0807, 116.9521
308.5628, 107.0713
309.0449, 93.91309
309.5270, 92.26855
310.0091, 102.9531
310.4912, 114.8965
310.9734, 120.2295
311.4555, 119.0117
311.9376, 110.4736
312.4197, 89.17383
312.9018, 68.27832
313.3839, 52.13281
313.8661, 42.13086
314.3482, 42.80469
314.8303, 64.97656
315.3124, 95.40039
315.7945, 109.8857
316.2766, 106.9961
316.7588, 96.69629
317.2409, 75.25098
317.7230, 52.83301
318.2051, 48.18457
318.6872, 73.56836
319.1693, 99.30859
319.6515, 100.5264
320.1336, 82.14648
320.6157, 65.97363
321.0978, 59.16113
321.5799, 58.91992
322.0620, 61.20508
322.5442, 68.31152
323.0263, 68.02832
323.5084, 43.59668
323.9905, 15.43945
324.4726, 18.60059
324.9547, 58.71191
325.4369, 94.61719
325.9190, 82.82910
326.4011, 17.27441
326.8832, 26.25684
327.3653, 44.10742
327.8474, 44.76270
328.3296, 21.99707
328.8117, 15.64062
329.2938, 43.29590
329.7759, 44.54102
330.2580, 28.07422
330.7401, 33.86816
331.2223, 94.06445
331.7044, 133.5312
332.1865, 129.2812
332.6686, 109.3262
333.1507, 104.7939
333.6328, 124.9189
334.1150, 152.0527
334.5971, 159.6533
335.0792, 139.0977
335.5613, 124.2461
336.0434, 124.1777
336.5255, 121.2393
337.0077, 97.62695
337.4898, 61.23145
337.9719, 38.23145
338.4540, 54.27246
338.9361, 103.6992
339.4182, 131.3164
339.9004, 123.5547
340.3825, 111.8887
340.8646, 106.3320
341.3467, 102.6309
341.8288, 95.54688
342.3109, 83.11426
342.7931, 66.36035
343.2752, 41.54492
343.7573, 4.955078
344.2394, 12.06348
344.7215, 10.96680
345.2036, 47.40625
345.6858, 80.86426
346.1679, 110.0410
346.6500, 123.6748
347.1321, 100.1104
347.6142, 56.04785
348.0963, 41.70410
348.5785, 69.78223
349.0606, 102.6914
349.5427, 106.9180
350.0248, 93.05957
350.5069, 89.90918
350.9890, 116.1348
351.4712, 144.4180
351.9533, 153.0947
352.4354, 144.6885
352.9175, 128.1699
353.3996, 103.2129
353.8817, 75.09863
354.3639, 62.84766
354.8460, 73.16602
355.3281, 84.41016
355.8102, 92.40332
356.2923, 98.58984
356.7744, 101.4756
357.2566, 101.6074
357.7387, 108.6846
358.2208, 136.6357
358.7029, 193.5586
359.1850, 222.2744
359.6671, 207.0918
360.1493, 185.3418
360.6314, 171.9941
361.1135, 164.6377
361.5956, 156.0762
362.0777, 143.3809
362.5598, 127.9434
363.0420, 112.6699
363.5241, 90.43262
364.0062, 81.76172
364.4883, 99.73047
364.9704, 124.1035
365.4525, 138.0205
365.9347, 137.4629
366.4168, 130.3809
366.8989, 123.8096
367.3810, 117.3291
367.8631, 119.4072
368.3452, 145.7178
368.8274, 161.5576
369.3095, 138.5684
369.7916, 92.33984
370.2737, 61.85645
370.7558, 74.75000
371.2379, 104.7471
371.7201, 104.2773
372.2022, 69.06738
372.6843, 46.27148
373.1664, 62.95703
373.6485, 98.92285
374.1306, 124.3584
374.6128, 137.2461
375.0949, 144.4111
375.5770, 146.6162
376.0591, 145.9199
376.5412, 150.3242
377.0233, 163.2373
377.5055, 166.1582
377.9876, 131.6475
378.4697, 54.35156
378.9518, 15.53320
379.4339, 50.50586
379.9160, 93.44531
380.3982, 99.52344
380.8803, 80.34375
381.3624, 77.51953
381.8445, 116.5254
382.3266, 176.8604
382.8087, 196.1445
383.2909, 124.4365
383.7730, 75.27930
384.2551, 65.17969
384.7372, 68.06543
385.2193, 64.67480
385.7014, 52.49902
386.1836, 39.82715
386.6657, 34.41992
387.1478, 36.24023
387.6299, 28.44727
388.1120, 10.72168
388.5941, 33.50488
389.0763, 7.878906
389.5584, 39.82520
390.0405, 64.56641
390.5226, 41.99902
391.0047, 4.459961
391.4868, 10.25098
391.9690, 65.79492
392.4511, 101.8193
392.9332, 84.57422
393.4153, 54.45801
393.8974, 55.59180
394.3795, 87.97461
394.8617, 108.0947
395.3438, 81.44336
395.8259, 33.50195
396.3080, 7.041016
396.7901, 6.410156
397.2722, 15.16797
397.7544, 24.61816
398.2365, 34.14941
398.7186, 41.33496
399.2007, 43.72754
399.6828, 46.44727
400.1649, 55.89746
400.6471, 65.95996
401.1292, 63.41113
401.6113, 43.70312
402.0934, 19.72070
402.5755, 13.28809
403.0576, 31.43066
403.5398, 43.60938
404.0219, 54.05762
404.5040, 55.73535
404.9861, 35.37988
405.4682, 2.992188
405.9503, 17.10840
406.4325, 8.241211
406.9146, 21.15820
407.3967, 42.07227
407.8788, 55.53320
408.3609, 57.69141
408.8430, 39.95898
409.3252, 16.84277
409.8073, 3.708984
410.2894, 19.49609
410.7715, 25.59863
411.2536, 12.06641
411.7357, 16.56641
412.2179, 36.53125
412.7000, 45.04590
413.1821, 47.68750
413.6642, 46.10742
414.1463, 41.46484
414.6284, 35.29004
415.1106, 24.77051
415.5927, 16.57715
416.0748, 21.56738
416.5569, 33.64258
417.0390, 30.08203
417.5211, 0.1494140
418.0033, 36.38672
418.4854, 46.95508
418.9675, 23.17969
419.4496, 1.350586
419.9317, 21.12500
420.4138, 38.15625
420.8960, 43.62402
421.3781, 39.72070
421.8602, 32.18555
422.3423, 23.52832
422.8244, 16.83398
423.3065, 26.92578
423.7887, 78.30469
424.2708, 107.6035
424.7529, 91.76172
425.2350, 64.52051
425.7171, 55.68945
426.1992, 68.04980
426.6814, 80.15918
427.1635, 64.83984
427.6456, 25.91113
428.1277, 13.50195
428.6098, 43.50293
429.0919, 69.67480
429.5741, 58.14746
430.0562, 30.39746
430.5383, 18.71582
431.0204, 35.09961
431.5025, 60.44824
431.9846, 86.03711
432.4668, 108.6982
432.9489, 114.6396
433.4310, 97.56445
433.9131, 72.25977
434.3952, 54.74707
434.8773, 45.64551
435.3595, 40.81641
435.8416, 38.54883
436.3237, 41.79980
436.8058, 57.78418
437.2879, 81.61230
437.7701, 97.40137
438.2522, 96.61328
438.7343, 85.61719
439.2164, 80.68359
439.6985, 86.98438
440.1806, 90.20605
440.6628, 83.98242
441.1449, 79.95996
441.6270, 87.68066
442.1091, 105.2734
442.5912, 123.4082
443.0733, 135.5010
443.5555, 142.6377
444.0376, 146.9102
444.5197, 148.3955
445.0018, 148.3516
445.4839, 143.0947
445.9660, 137.3311
446.4482, 140.4365
446.9303, 156.6992
447.4124, 172.3311
447.8945, 177.2168
448.3766, 175.5332
448.8587, 172.8174
449.3409, 170.7158
449.8230, 171.6250
450.3051, 178.3379
450.7872, 190.0938
451.2693, 196.9375
451.7514, 194.2002
452.2336, 189.6094
452.7157, 185.9941
453.1978, 183.7314
453.6799, 182.5420
454.1620, 181.8691
454.6441, 181.0049
455.1263, 178.6641
455.6084, 174.2598
456.0905, 173.1963
456.5726, 175.5879
457.0547, 181.7178
457.5368, 195.5889
458.0190, 211.9082
458.5011, 222.9473
458.9832, 225.8750
459.4653, 222.2822
459.9474, 206.9971
460.4295, 179.6943
460.9117, 177.7246
461.3938, 227.0254
461.8759, 275.4492
462.3580, 265.8633
462.8401, 210.2461
463.3222, 172.3809
463.8044, 181.6660
464.2865, 207.6699
464.7686, 230.9375
465.2507, 247.5029
465.7328, 244.1807
466.2149, 211.4746
466.6971, 169.2227
467.1792, 158.0605
467.6613, 204.3105
468.1434, 224.4668
468.6255, 194.5967
469.1076, 162.2754
469.5898, 161.0771
470.0719, 182.8711
470.5540, 198.7451
471.0361, 188.9014
471.5182, 165.4395
472.0003, 167.0996
472.4825, 206.7676
472.9646, 236.0137
473.4467, 244.3184
473.9288, 238.7734
474.4109, 211.0791
474.8930, 166.0771
475.3752, 139.3838
475.8573, 169.9639
476.3394, 224.8652
476.8215, 243.8457
477.3036, 225.0215
477.7857, 206.7949
478.2679, 211.3809
478.7500, 225.2012
479.2321, 211.8828
479.7142, 154.5273
480.1963, 116.0020
480.6784, 117.9863
481.1606, 137.7998
481.6427, 162.6035
482.1248, 186.1113
482.6069, 195.3535
483.0890, 177.9111
483.5711, 141.2129
484.0533, 127.6396
484.5354, 156.3926
485.0175, 177.0703
485.4996, 182.6787
485.9817, 177.8135
486.4638, 160.1924
486.9460, 132.3936
487.4281, 113.2227
487.9102, 127.2822
488.3923, 160.5791
488.8744, 167.0479
489.3565, 140.9648
489.8387, 117.8086
490.3208, 117.2109
490.8029, 130.1504
491.2850, 138.4170
491.7671, 144.3125
492.2492, 139.3955
492.7314, 109.3779
493.2135, 73.36230
493.6956, 50.54980
494.1777, 43.92578
494.6598, 52.73633
495.1419, 79.11719
495.6241, 118.5479
496.1062, 142.5381
496.5883, 145.5684
497.0704, 139.2686
497.5525, 113.7793
498.0346, 87.48047
498.5168, 80.94238
498.9989, 92.92383
499.4810, 98.89844
499.9631, 68.97266
500.4452, 17.21777
500.9273, 3.404297
501.4095, 38.18066
501.8916, 65.92871
502.3737, 61.08008
502.8558, 35.42578
503.3379, 4.513672
503.8200, 36.86914
504.3022, 59.69434
504.7843, 39.45801
505.2664, 2.698242
505.7485, 24.40039
506.2306, 38.21387
506.7127, 37.54395
507.1949, 19.75391
507.6770, 10.45312
508.1591, 32.66406
508.6412, 50.22559
509.1233, 53.67676
509.6054, 25.23633
510.0876, 3.475586
510.5697, 5.341797
511.0518, 17.01758
511.5339, 39.45996
512.0161, 43.73047
512.4982, 36.16992
512.9803, 33.66406
513.4624, 36.72656
513.9445, 42.39648
514.4266, 52.96484
514.9088, 62.75977
515.3909, 63.45117
515.8730, 54.23145
516.3551, 46.75684
516.8372, 48.04102
517.3193, 49.97656
517.8015, 49.71094
518.2836, 44.08105
518.7657, 18.23926
519.2478, 38.96582
519.7299, 105.8418
520.2120, 128.0049
520.6942, 68.95020
521.1763, 34.70020
521.6584, 29.56055
522.1405, 41.92969
522.6226, 74.68164
523.1047, 119.7949
523.5869, 161.5713
524.0690, 194.5371
524.5511, 214.5762
525.0332, 205.9893
525.5153, 169.0615
525.9974, 152.1768
526.4796, 173.9795
526.9617, 207.5625
527.4438, 222.7412
527.9259, 222.2236
528.4080, 229.4707
528.8901, 259.3398
529.3723, 286.4141
529.8544, 284.5527
530.3365, 271.1758
530.8186, 285.4971
531.3007, 340.1533
531.7828, 404.8867
532.2650, 437.0859
532.7471, 431.2617
533.2292, 427.5898
533.7113, 416.6357
534.1934, 419.6172
534.6755, 454.9961
535.1577, 503.1768
535.6398, 538.9844
536.1219, 555.3799
536.6040, 558.7520
537.0861, 547.9609
537.5682, 528.6973
538.0504, 519.1123
538.5325, 521.4072
539.0146, 533.3301
539.4967, 557.2910
539.9788, 589.3975
540.4609, 609.9121
540.9431, 615.1543
541.4252, 615.6543
541.9073, 608.2305
542.3894, 600.4355
542.8715, 604.5283
543.3536, 617.9033
543.8358, 621.5176
544.3179, 597.1602
544.8000, 553.7852
545.2821, 530.6973
545.7642, 531.4404
546.2463, 543.0645
546.7285, 580.0879
547.2106, 613.4121
547.6927, 618.4062
548.1748, 595.9902
548.6569, 568.1230
549.1390, 546.0469
549.6211, 522.1016
550.1032, 474.1963
550.5853, 413.2314
551.0674, 391.4785
551.5496, 433.4863
552.0317, 504.6152
552.5138, 550.2734
552.9959, 566.4443
553.4780, 569.9365
553.9601, 560.9990
554.4423, 541.1738
554.9244, 484.4834
555.4065, 425.5088
555.8886, 428.1436
556.3707, 517.6621
556.8528, 620.0615
557.3350, 639.0938
557.8171, 585.4375
558.2992, 542.6387
558.7813, 514.0176
559.2634, 509.9854
559.7455, 549.1143
560.2277, 616.7568
560.7098, 664.1426
561.1919, 685.5771
561.6740, 694.0830
562.1561, 689.2129
562.6382, 680.1992
563.1204, 667.6152
563.6025, 655.4980
564.0846, 664.3838
564.5667, 713.8828
565.0488, 789.0586
565.5309, 827.8340
566.0131, 811.9170
566.4952, 804.9141
566.9773, 824.7979
567.4594, 854.3477
567.9415, 883.4688
568.4236, 910.8271
568.9058, 938.1084
569.3879, 971.1191
569.8700, 1001.092
570.3521, 1016.700
570.8342, 1021.284
571.3163, 1024.932
571.7985, 1030.035
572.2806, 1041.283
572.7627, 1066.455
573.2448, 1108.758
573.7269, 1140.771
574.2090, 1154.338
574.6912, 1167.709
575.1733, 1181.772
575.6554, 1200.062
576.1375, 1226.051
576.6196, 1261.482
577.1017, 1304.913
577.5839, 1364.831
578.0660, 1431.428
578.5481, 1468.546
579.0302, 1473.131
579.5123, 1469.766
579.9944, 1465.433
580.4766, 1463.218
580.9587, 1471.045
581.4408, 1492.036
581.9229, 1508.160
582.4050, 1519.834
582.8871, 1523.138
583.3693, 1511.410
583.8514, 1489.739
584.3335, 1466.744
584.8156, 1446.388
585.2977, 1431.920
585.7798, 1430.938
586.2620, 1445.037
586.7441, 1453.713
587.2262, 1453.027
587.7083, 1451.837
588.1904, 1464.867
588.6725, 1478.234
589.1547, 1462.819
589.6368, 1397.062
590.1189, 1349.471
590.6010, 1376.239
591.0831, 1427.084
591.5652, 1434.357
592.0474, 1397.108
592.5295, 1355.435
593.0116, 1335.261
593.4937, 1331.433
593.9758, 1329.862
594.4579, 1337.900
594.9401, 1330.685
595.4222, 1286.415
595.9043, 1244.435
596.3864, 1226.596
596.8685, 1226.829
597.3506, 1228.631
597.8328, 1228.822
598.3149, 1223.031
598.7970, 1198.446
599.2791, 1165.458
599.7612, 1155.800
600.2433, 1175.609
600.7255, 1194.301
601.2076, 1183.105
601.6897, 1147.810
602.1718, 1135.951
602.6539, 1178.526
603.1360, 1202.341
603.6182, 1191.421
604.1003, 1168.470
604.5824, 1145.536
605.0645, 1126.011
605.5466, 1113.454
606.0287, 1111.782
606.5109, 1115.530
606.9930, 1114.794
607.4751, 1110.839
607.9572, 1115.660
608.4393, 1134.878
608.9214, 1152.871
609.4036, 1152.229
609.8857, 1132.841
610.3678, 1121.678
610.8499, 1122.271
611.3320, 1125.808
611.8141, 1126.560
612.2963, 1132.161
612.7784, 1157.348
613.2605, 1197.253
613.7426, 1224.420
614.2247, 1213.557
614.7068, 1178.317
615.1890, 1149.812
615.6711, 1128.905
616.1532, 1116.468
616.6353, 1108.424
617.1174, 1108.851
617.5995, 1128.401
618.0817, 1167.554
618.5638, 1175.016
619.0459, 1115.131
619.5280, 1061.115
620.0101, 1044.041
620.4922, 1046.600
620.9744, 1051.083
621.4565, 1051.712
621.9386, 1043.272
622.4207, 1018.307
622.9028, 982.4033
623.3849, 954.3242
623.8671, 935.3975
624.3492, 925.2021
624.8313, 932.3438
625.3134, 938.2490
625.7955, 914.6348
626.2776, 863.5000
626.7598, 825.3018
627.2419, 813.8818
627.7240, 809.0820
628.2061, 801.4570
628.6882, 792.4209
629.1703, 790.8057
629.6525, 795.5859
630.1346, 786.6885
630.6167, 738.5811
631.0988, 660.5840
631.5809, 603.7432
632.0630, 569.6592
632.5452, 551.1201
633.0273, 558.9727
633.5094, 570.5918
633.9915, 559.3242
634.4736, 527.4102
634.9557, 494.4990
635.4379, 464.9346
635.9200, 435.8496
636.4021, 393.6094
636.8842, 354.9619
637.3663, 356.1084
637.8484, 400.0342
638.3306, 440.1582
638.8127, 425.4209
639.2948, 366.3682
639.7769, 333.7979
640.2590, 338.8857
640.7411, 337.7305
641.2233, 317.1621
641.7054, 286.4697
642.1875, 250.2627
642.6696, 210.9521
643.1517, 185.8857
643.6339, 192.4736
644.1160, 199.3154
644.5981, 188.0254
645.0802, 166.3848
645.5623, 144.6533
646.0444, 126.0781
646.5266, 111.8555
647.0087, 103.2021
647.4908, 99.84570
647.9729, 102.2686
648.4550, 113.4092
648.9371, 117.2490
649.4193, 98.38379
649.9014, 83.25684
650.3835, 104.8691
650.8656, 156.7930
651.3477, 193.9746
651.8298, 213.6426
652.3120, 212.2451
652.7941, 169.3564
653.2762, 113.9053
653.7583, 84.71777
654.2404, 87.03027
654.7225, 102.2695
655.2047, 116.7324
655.6868, 125.7002
656.1689, 119.7021
656.6510, 98.15723
657.1331, 80.56543
657.6152, 74.50195
658.0974, 69.14258
658.5795, 51.41406
659.0616, 26.98438
659.5437, 20.40527
660.0258, 53.42285
660.5079, 80.97949
660.9901, 86.49023
661.4722, 79.76172
661.9543, 69.37891
662.4364, 57.37793
662.9185, 41.46582
663.4006, 17.37500
663.8828, 5.165039
664.3649, 2.053711
664.8470, 40.50000
665.3291, 62.47461
665.8112, 57.13574
666.2933, 41.93359
666.7755, 25.08105
667.2576, 9.855469
667.7397, 9.503906
668.2218, 45.60742
668.7039, 61.16211
669.1860, 19.49902
669.6682, 25.04297
670.1503, 27.54199
670.6324, 5.190430
671.1145, 47.69434
671.5966, 89.68555
672.0787, 111.9316
672.5609, 66.60254
673.0430, 30.85156
673.5251, 59.79590
674.0072, 3.282227
674.4893, 61.25781
674.9714, 54.02148
675.4536, 4.822266
675.9357, 26.79004
676.4178, 35.79004
676.8999, 38.08008
677.3820, 30.40820
677.8641, 19.81445
678.3463, 4.743164
678.8284, 8.966797
679.3105, 8.029297
679.7926, 11.69824
680.2747, 25.50000
680.7568, 1.228516
681.2390, 48.54980
681.7211, 66.68359
682.2032, 55.20996
682.6853, 37.15723
683.1674, 22.96875
683.6495, 10.16992
684.1317, 6.103516
684.6138, 30.12891
685.0959, 40.14160
685.5780, 24.53516
686.0601, 9.222656
686.5422, 2.291992
687.0244, 2.948242
687.5065, 20.10156
687.9886, 48.68066
688.4707, 66.85547
688.9528, 57.55273
689.4349, 35.14746
689.9171, 7.266602
690.3992, 19.89941
690.8813, 23.78516
691.3634, 1.333008
691.8455, 28.70801
692.3276, 31.54492
692.8098, 12.63672
693.2919, 5.151367
693.7740, 24.03320
694.2561, 36.44434
694.7382, 38.03027
695.2203, 36.44824
695.7025, 40.55273
696.1846, 47.00781
696.6667, 40.30664
697.1488, 1.486328
697.6309, 28.13184
698.1130, 13.05469
698.5952, 15.64062
699.0773, 14.30078
699.5594, 15.48535
700.0415, 40.48730
700.5236, 39.90430
701.0057, 26.36816
701.4879, 30.70801
701.9700, 54.14941
702.4521, 64.00000
702.9342, 50.10840
703.4163, 41.93945
703.8984, 65.50293
704.3806, 103.3125
704.8627, 113.1992
705.3448, 83.22559
705.8269, 61.57715
706.3090, 61.37402
706.7911, 63.18652
707.2733, 51.58496
707.7554, 35.64355
708.2375, 35.25098
708.7196, 55.08984
709.2017, 73.54395
709.6838, 66.31836
710.1660, 42.94141
710.6481, 27.69824
711.1302, 20.70117
711.6123, 8.912109
712.0944, 14.70312
712.5765, 29.76465
713.0587, 3.105469
713.5408, 69.01465
714.0229, 92.59570
714.5050, 11.32227
714.9871, 41.54785
715.4692, 30.46680
715.9514, 3.296875
716.4335, 34.34180
716.9156, 57.77148
717.3977, 68.10547
717.8798, 54.64551
718.3619, 37.81348
718.8441, 35.93750
719.3262, 42.24023
719.8083, 42.35938
720.2904, 36.04980
720.7725, 40.13770
721.2546, 68.37695
721.7368, 104.2246
722.2189, 104.4717
722.7010, 60.50684
723.1831, 42.66211
723.6652, 70.25879
724.1473, 96.61816
724.6295, 90.60938
725.1116, 66.79199
725.5937, 57.28223
726.0758, 68.49707
726.5579, 72.04980
727.0400, 55.16504
727.5222, 35.85059
728.0043, 18.78516
728.4864, 10.90137
728.9685, 24.06543
729.4506, 59.73047
729.9327, 93.13574
730.4149, 96.06348
730.8970, 81.27246
731.3791, 79.59277
731.8612, 93.52246
732.3433, 102.3936
732.8254, 98.42871
733.3076, 95.50781
733.7897, 108.8926
734.2718, 136.5674
734.7539, 149.3408
735.2360, 137.2725
735.7181, 125.5508
736.2003, 114.3594
736.6824, 106.4990
737.1645, 105.0635
737.6466, 107.0557
738.1287, 102.3779
738.6108, 85.03906
739.0930, 73.72949
739.5751, 41.55957
740.0572, 98.10352
740.5393, 130.3887
741.0214, 139.8047
741.5035, 57.50879
741.9857, 93.21094
742.4678, 80.31641
742.9499, 65.29395
743.4320, 117.1055
743.9141, 47.50879
744.3962, 98.78516
744.8784, 102.0938
745.3605, 127.5264
745.8426, 105.1748
746.3247, 97.50391
746.8068, 137.5430
747.2889, 151.1328
747.7711, 123.1748
748.2532, 148.4023
748.7353, 75.81543
749.2174, 90.27051
749.6995, 141.8682
750.1816, 116.2129
750.6638, 143.6094
751.1459, 150.0107
751.6280, 63.45996
752.1101, 136.0820
752.5922, 139.4609
753.0743, 71.72070
753.5565, 138.1885
754.0386, 79.48828
754.5207, 65.70020
755.0028, 87.58398
755.4849, 75.34180
755.9670, 117.9473
756.4492, 105.8965
756.9313, 89.12695
757.4134, 94.55176
757.8955, 41.54199
758.3776, 97.32129
758.8597, 78.69629
759.3419, 97.03125
759.8240, 123.7480
760.3061, 86.33887
760.7882, 116.7812
761.2703, 41.94629
761.7524, 55.21094
762.2346, 59.02930
762.7167, 119.1436
763.1988, 44.81445
763.6809, 55.55762
764.1630, 102.5381
764.6451, 98.80371
765.1273, 116.2822
765.6094, 70.85449
766.0915, 84.27734
766.5736, 81.54980
767.0557, 134.9736
767.5378, 144.0400
768.0200, 99.47754
768.5021, 54.81543
768.9842, 111.5244
769.4663, 71.38379
769.9484, 81.77148
770.4305, 37.49414
770.9127, 41.32715
771.3948, 46.47266
771.8769, 75.14258
772.3590, 30.48047
772.8411, 75.97461
773.3232, 68.10840
773.8054, 78.20996
774.2875, 87.78809
774.7696, 27.30859
775.2517, 27.01758
775.7338, 110.1436
776.2159, 62.17383
776.6981, 40.13379
777.1802, 36.75879
777.6623, 121.1348
778.1444, 123.7441
778.6265, 28.89844
779.1086, 109.7236
779.5908, 82.95605
780.0729, 89.50977
780.5550, 84.44141
781.0371, 80.95996
781.5192, 33.64941
782.0013, 44.43262
782.4835, 102.4316
782.9656, 79.81250
783.4477, 111.6416
783.9298, 44.01172
784.4119, 35.52930
784.8940, 42.63184
785.3762, 54.94531
785.8583, 20.77441
786.3404, 77.57910
786.8225, 74.10938
787.3046, 18.82520
787.7867, 21.03711
788.2689, 13.75488
788.7510, 105.2920
789.2331, 60.83398
789.7152, 6.823242
790.1973, 60.64355
790.6794, 79.88086
791.1616, 52.39355
791.6437, 49.72070
792.1258, 8.8867001E-02
792.6079, 22.31641
793.0900, 19.86230
793.5721, 58.33594
794.0543, 8.656250
794.5364, 84.47949
795.0185, 111.7402
795.5006, 121.1699
795.9827, 122.2832
796.4648, 125.2900
796.9470, 128.9043
797.4291, 119.3682
797.9112, 78.69043
798.3933, 53.59277
798.8754, 63.78125
799.3575, 72.08691
799.8397, 44.79980
800.3218, 4.739258
800.8039, 3.722656
801.2860, 62.19531
801.7681, 108.0586
802.2502, 85.88086
802.7324, 53.01562
803.2145, 63.51953
803.6966, 101.5820
804.1787, 140.4463
804.6608, 169.2764
805.1429, 172.4443
805.6251, 126.4219
806.1072, 60.26660
806.5893, 41.23242
807.0714, 63.09277
807.5535, 77.75098
808.0356, 77.03125
808.5178, 65.84082
808.9999, 44.38281
809.4820, 20.69922
809.9641, 19.40820
810.4462, 50.14746
810.9283, 65.05566
811.4105, 51.78027
811.8926, 43.77539
812.3747, 62.21973
812.8568, 87.30566
813.3389, 92.77539
813.8210, 78.76367
814.3032, 73.96094
814.7853, 90.21582
815.2674, 106.5244
815.7495, 119.9375
816.2316, 127.1572
816.7137, 121.0098
817.1959, 105.0732
817.6780, 89.70605
818.1601, 79.38184
818.6422, 69.90625
819.1243, 53.43848
819.6064, 37.55371
820.0886, 35.68066
820.5707, 44.76758
821.0528, 50.32129
821.5349, 48.06836
822.0170, 42.37207
822.4991, 34.90625
822.9813, 29.04395
823.4634, 44.21777
823.9455, 82.62891
824.4276, 102.5469
824.9097, 91.75098
825.3918, 76.30664
825.8740, 76.65723
826.3561, 86.56836
826.8382, 86.62891
827.3203, 72.54883
827.8024, 56.87207
828.2845, 21.94727
828.7667, 6.972656
829.2488, 41.73340
829.7309, 94.19824
830.2130, 134.0430
830.6951, 159.6045
831.1772, 148.5576
831.6594, 50.67871
832.1415, 29.76758
832.6236, 41.21973
833.1057, 18.72070
833.5878, 11.37207
834.0699, 40.46387
834.5521, 62.74219
835.0342, 76.40039
835.5163, 79.72656
835.9984, 66.93945
836.4805, 43.70605
836.9626, 11.70996
837.4448, 21.70020
837.9269, 26.46094
838.4090, 5.928711
838.8911, 42.57812
839.3732, 46.33398
839.8553, 28.53516
840.3375, 34.89551
840.8196, 65.99219
841.3017, 71.94043
841.7838, 38.06055
842.2659, 6.352539
842.7480, 6.557617
843.2302, 26.83008
843.7123, 35.90234
844.1944, 28.01562
844.6765, 32.03125
845.1586, 63.87109
845.6407, 85.02637
846.1229, 72.11621
846.6050, 49.04004
847.0871, 36.36426
847.5692, 33.41504
848.0513, 33.43066
848.5334, 27.59863
849.0156, 33.72070
849.4977, 73.04102
849.9798, 110.9727
850.4619, 119.1074
850.9440, 106.4326
851.4261, 98.89355
851.9083, 104.2891
852.3904, 104.6357
852.8725, 79.37891
853.3546, 48.82715
853.8367, 29.51367
854.3188, 23.01660
854.8010, 39.74609
855.2831, 75.34570
855.7652, 94.87305
856.2473, 68.69727
856.7294, 23.54102
857.2115, 8.262695
857.6937, 15.45605
858.1758, 7.293945
858.6579, 18.21973
859.1400, 24.91016
859.6221, 4.975586
860.1042, 49.31836
860.5864, 78.38379
861.0685, 92.27051
861.5506, 93.90625
862.0327, 77.24023
862.5148, 73.35059
862.9969, 96.19922
863.4791, 119.7354
863.9612, 124.8818
864.4433, 114.0879
864.9254, 94.80664
865.4075, 48.36426
865.8896, 32.39062
866.3718, 84.26660
866.8539, 120.4717
867.3360, 92.81738
867.8181, 46.62207
868.3002, 35.52148
868.7823, 60.57422
869.2645, 81.61328
869.7466, 94.05176
870.2287, 93.60254
870.7108, 60.29980
871.1929, 28.43652
871.6750, 34.34082
872.1572, 66.14453
872.6393, 94.08496
873.1214, 108.6738
873.6035, 109.0820
874.0856, 83.45898
874.5677, 52.72461
875.0499, 38.48926
875.5320, 37.97168
876.0141, 50.68164
876.4962, 71.74902
876.9783, 77.31934
877.4604, 47.05469
877.9426, 10.27246
878.4247, 26.22754
878.9068, 76.02051
879.3889, 79.88965
879.8710, 37.29004
880.3531, 12.86035
880.8353, 33.32812
881.3174, 67.09863
881.7995, 76.63281
882.2816, 65.75684
882.7637, 58.05762
883.2458, 53.47949
883.7280, 52.66992
884.2101, 55.25977
884.6922, 64.90820
885.1743, 90.29785
885.6564, 116.5479
886.1385, 105.8350
886.6207, 40.74512
887.1028, 19.96973
887.5849, 79.04492
888.0670, 124.6738
888.5491, 126.7041
889.0313, 110.7852
889.5134, 89.68555
889.9955, 66.08496
890.4776, 63.80664
890.9597, 107.2979
891.4418, 136.2314
891.9240, 134.7686
892.4061, 123.2100
892.8882, 107.0342
893.3703, 90.19629
893.8524, 73.35938
894.3345, 58.15820
894.8167, 57.71875
895.2988, 95.60059
895.7809, 126.4795
896.2630, 124.0879
896.7451, 105.5312
897.2272, 83.91309
897.7094, 63.86523
898.1915, 50.12305
898.6736, 44.37793
899.1557, 44.98438
899.6378, 55.51172
900.1199, 67.47363
900.6021, 75.54102
901.0842, 75.73926
901.5663, 52.05078
902.0484, 8.102539
902.5305, 25.13867
903.0126, 28.31445
903.4948, 11.48926
903.9769, 17.80957
904.4590, 54.20117
904.9411, 81.59082
905.4232, 99.12598
905.9053, 105.4141
906.3875, 100.0713
906.8696, 89.36523
907.3517, 79.50879
907.8338, 68.44629
908.3159, 43.35547
908.7980, 3.958008
909.2802, 4.459961
909.7623, 26.38379
910.2444, 62.62891
910.7265, 90.07617
911.2086, 107.7637
911.6907, 113.5010
912.1729, 107.3438
912.6550, 95.13184
913.1371, 68.55957
913.6192, 64.82715
914.1013, 106.4062
914.5834, 140.9531
915.0656, 127.9668
915.5477, 88.29297
916.0298, 71.56934
916.5119, 88.49121
916.9940, 83.62793
917.4761, 32.71387
917.9583, 2.215820
918.4404, 1.735352
918.9225, 20.99805
919.4046, 40.79102
919.8867, 60.61426
920.3688, 81.01855
920.8510, 110.6836
921.3331, 121.8281
921.8152, 86.41602
922.2973, 59.51367
922.7794, 81.42188
923.2615, 115.9609
923.7437, 117.4707
924.2258, 86.48145
924.7079, 59.77246
925.1900, 52.27930
925.6721, 44.22852
926.1542, 20.90918
926.6364, 0.2509770
927.1185, 2.026367
927.6006, 8.266602
928.0827, 17.48145
928.5648, 23.64648
929.0469, 41.56055
929.5291, 99.28613
930.0112, 148.8145
930.4933, 151.6621
930.9754, 127.5508
931.4575, 83.79004
931.9396, 37.66113
932.4218, 33.03223
932.9039, 84.66406
933.3860, 133.4473
933.8681, 120.4609
934.3502, 82.52539
934.8323, 62.88086
935.3145, 56.19824
935.7966, 55.39746
936.2787, 56.37793
936.7608, 47.39453
937.2429, 20.14062
937.7250, 4.906250
938.2072, 4.697266
938.6893, 37.72266
939.1714, 78.54980
939.6535, 119.7568
940.1356, 128.2646
940.6177, 100.3135
941.0999, 75.79297
941.5820, 83.90332
942.0641, 105.7832
942.5462, 102.2148
943.0283, 81.23633
943.5104, 95.02051
943.9926, 141.9824
944.4747, 155.1689
944.9568, 112.9912
945.4389, 67.45410
945.9210, 66.64551
946.4031, 91.16211
946.8853, 80.94043
947.3674, 36.24707
947.8495, 17.25488
948.3316, 29.03516
948.8137, 59.23438
949.2958, 109.3193
949.7780, 144.4766
950.2601, 120.5439
950.7422, 51.36230
951.2243, 9.131836
951.7064, 5.007813
952.1885, 4.871094
952.6707, 46.98047
953.1528, 80.07617
953.6349, 82.07129
954.1170, 72.27539
954.5991, 79.72168
955.0812, 102.3975
955.5634, 91.61328
956.0455, 24.58984
956.5276, 1.623047
957.0097, 47.56445
957.4918, 90.46094
957.9739, 78.72852
958.4561, 39.25684
958.9382, 13.24609
959.4203, 0.5957030
959.9024, 1.985352
960.3845, 17.69531
960.8666, 46.58984
961.3488, 113.6680
961.8309, 160.8867
962.3130, 136.2324
962.7951, 75.40332
963.2772, 51.14941
963.7593, 73.19141
964.2415, 81.50293
964.7236, 60.82422
965.2057, 48.64551
965.6878, 55.60840
966.1699, 68.69043
966.6520, 81.04297
967.1342, 93.02148
967.6163, 108.7451
968.0984, 134.1973
968.5805, 137.1289
969.0626, 89.32031
969.5447, 54.65332
970.0269, 60.89453
970.5090, 75.29590
970.9911, 72.89844
971.4732, 58.66992
971.9553, 48.33008
972.4374, 43.28320
972.9196, 38.70410
973.4017, 36.71680
973.8838, 31.40918
974.3659, 6.965820
974.8480, 10.12109
975.3301, 15.62793
975.8123, 68.00488
976.2944, 91.86328
976.7765, 66.68066
977.2586, 52.59863
977.7407, 80.74609
978.2228, 101.0537
978.7050, 78.87109
979.1871, 48.21582
979.6692, 46.40332
980.1513, 67.15039
980.6334, 78.11621
981.1155, 67.83203
981.5977, 61.92871
982.0798, 67.01465
982.5619, 80.11328
983.0440, 115.7490
983.5261, 145.0127
984.0082, 125.1084
984.4904, 68.75977
984.9725, 36.05469
985.4546, 52.77832
985.9367, 64.07129
986.4188, 37.41406
986.9009, 16.33105
987.3831, 28.40723
987.8652, 52.02832
988.3473, 58.23926
988.8294, 48.11914
989.3115, 41.47949
989.7936, 46.77832
990.2758, 48.61816
990.7579, 28.08594
991.2400, 15.89355
991.7221, 49.01953
992.2042, 90.49707
992.6863, 91.25391
993.1685, 54.35938
993.6506, 17.10352
994.1327, 14.35156
994.6148, 22.63184
995.0969, 20.24219
995.5790, 59.07910
996.0612, 46.74609
996.5433, 17.67188
997.0254, 21.03809
997.5075, 53.93262
997.9896, 74.73730
998.4717, 64.73047
998.9539, 54.96387
999.4360, 69.84375
999.9181, 79.12598
1000.400, 52.60547
1000.882, 13.77246
1001.364, 8.208008
1001.847, 11.88867
1002.329, 10.84961
1002.811, 12.27148
1003.293, 1.574219
1003.775, 52.03809
1004.257, 94.30078
1004.739, 72.86035
1005.221, 27.47168
1005.703, 5.050781
1006.186, 9.437500
1006.668, 29.03223
1007.150, 69.59668
1007.632, 92.14160
1008.114, 59.41406
1008.596, 24.41602
1009.078, 24.44824
1009.560, 41.09082
1010.043, 51.92969
1010.525, 56.24805
1011.007, 64.63574
1011.489, 81.21191
1011.971, 98.94824
1012.453, 125.7949
1012.935, 140.4922
1013.417, 117.3584
1013.899, 84.28516
1014.382, 71.95898
1014.864, 79.31250
1015.346, 92.67578
1015.828, 113.8877
1016.310, 116.6387
1016.792, 73.07910
1017.274, 29.33789
1017.756, 10.27637
1018.239, 3.798828
1018.721, 1.936523
1019.203, 7.135742
1019.685, 7.913086
1020.167, 3.147461
1020.649, 4.842773
1021.131, 18.59961
1021.613, 31.38477
1022.095, 38.93066
1022.578, 45.14551
1023.060, 59.58008
1023.542, 74.66309
1024.024, 67.19531
1024.506, 27.37695
1024.988, 2.098633
1025.470, 9.116211
1025.952, 25.45410
1026.435, 52.30957
1026.917, 76.31641
1027.399, 90.74121
1027.881, 93.03516
1028.363, 71.62012
1028.845, 18.65332
1029.327, 1.503906
1029.809, 58.64258
1030.292, 103.1514
1030.774, 98.16699
1031.256, 77.68262
1031.738, 52.06836
1032.220, 32.58301
1032.702, 42.43262
1033.184, 87.77930
1033.666, 114.4570
1034.148, 105.5156
1034.630, 94.38184
1035.113, 79.63867
1035.595, 71.39551
1036.077, 77.40137
1036.559, 92.22656
1037.041, 112.2109
1037.523, 137.8350
1038.005, 145.6592
1038.487, 133.1230
1038.970, 106.3760
1039.452, 40.54785
1039.934, 6.608398
1040.416, 0.4179690
1040.898, 30.54297
1041.380, 47.77637
1041.862, 53.51074
1042.344, 64.74316
1042.826, 99.62695
1043.309, 96.36816
1043.791, 17.61230
1044.273, 31.86621
1044.755, 2.176758
1045.237, 58.70020
1045.719, 76.95020
1046.201, 64.61230
1046.683, 57.69336
1047.166, 59.68457
1047.648, 53.94531
1048.130, 35.77637
1048.612, 23.10742
1049.094, 20.35840
1049.576, 29.32910
1050.058, 58.77930
1050.540, 91.43066
1051.022, 72.59180
1051.505, 7.117188
1051.987, 42.85742
1052.469, 28.10449
1052.951, 0.3925780
1053.433, 35.45020
1053.915, 59.85840
1054.397, 59.66699
1054.879, 50.78516
1055.361, 66.51270
1055.844, 102.9121
1056.326, 111.4121
1056.808, 92.18164
1057.290, 64.76367
1057.772, 32.14355
1058.254, 28.85645
1058.736, 75.50879
1059.218, 129.3633
1059.701, 132.1348
1060.183, 101.4844
1060.665, 99.37695
1061.147, 119.3877
1061.629, 121.0420
1062.111, 100.9678
1062.593, 74.99512
1063.075, 49.73242
1063.557, 29.54980
1064.040, 20.30859
1064.522, 16.86914
1065.004, 4.192383
1065.486, 7.883789
1065.968, 15.00781
1066.450, 61.42090
1066.932, 83.26465
1067.414, 70.43066
1067.896, 52.54980
1068.379, 48.49902
1068.861, 52.44922
1069.343, 63.86230
1069.825, 75.24707
1070.307, 70.74707
1070.789, 57.89160
1071.271, 54.16895
1071.753, 59.28906
1072.236, 57.17969
1072.718, 39.26172
1073.200, 23.00684
1073.682, 21.57129
1074.164, 26.49902
1074.646, 32.17773
1075.128, 39.01758
1075.610, 46.96973
1076.093, 56.87891
1076.575, 74.32324
1077.057, 101.4639
1077.539, 115.1279
1078.021, 100.2080
1078.503, 76.90625
1078.985, 33.12305
1079.467, 4.719727
1079.949, 37.42773
1080.432, 95.78027
1080.914, 121.2051
1081.396, 107.7891
1081.878, 85.31641
1082.360, 40.25586
1082.842, 15.09668
1083.324, 24.21973
1083.806, 45.87695
1084.288, 87.88477
1084.771, 124.4658
1085.253, 119.5391
1085.735, 83.28418
1086.217, 66.20215
1086.699, 78.88184
1087.181, 81.58496
1087.663, 66.06934
1088.145, 60.93652
1088.628, 83.91797
1089.110, 98.79980
1089.592, 72.07520
1090.074, 27.80273
1090.556, 21.78223
1091.038, 55.55176
1091.520, 61.49121
1092.002, 30.64258
1092.484, 43.07520
1092.967, 121.9219
1093.449, 172.5508
1093.931, 143.7334
1094.413, 82.44824
1094.895, 44.16504
1095.377, 27.76562
1095.859, 34.46875
1096.341, 61.34473
1096.823, 89.99219
1097.306, 117.2949
1097.788, 131.4541
1098.270, 129.9209
1098.752, 107.9219
1099.234, 56.09570
1099.716, 4.852539
1100.198, 7.851563
1100.680, 41.58496
1101.163, 62.52051
1101.645, 71.72949
1102.127, 72.20898
1102.609, 71.59961
1103.091, 78.08984
1103.573, 97.00195
1104.055, 108.6885
1104.537, 85.23730
1105.020, 59.61133
1105.502, 65.73730
1105.984, 84.56738
1106.466, 95.58301
1106.948, 98.29102
1107.430, 96.37109
1107.912, 91.06641
1108.394, 86.38477
1108.876, 79.41895
1109.359, 79.65430
1109.841, 102.5420
1110.323, 120.5117
1110.805, 108.0527
1111.287, 84.24512
1111.769, 74.29102
1112.251, 77.21387
1112.733, 79.45996
1113.215, 82.39941
1113.698, 78.22461
1114.180, 57.30371
1114.662, 44.63770
1115.144, 52.24512
1115.626, 60.25977
1116.108, 54.49707
1116.590, 41.33887
1117.072, 32.36035
1117.555, 27.54980
1118.037, 23.92285
1118.519, 18.03906
1119.001, 29.26465
1119.483, 66.25488
1119.965, 78.93164
1120.447, 41.87500
1120.929, 3.881836
1121.411, 18.19336
1121.894, 61.54980
1122.376, 71.97852
1122.858, 56.45215
1123.340, 51.92871
1123.822, 57.88086
1124.304, 55.86523
1124.786, 43.17480
1125.268, 35.28418
1125.750, 41.64746
1126.233, 44.91406
1126.715, 13.42676
1127.197, 22.23926
1127.679, 10.53125
1128.161, 20.75781
1128.643, 24.47070
1129.125, 7.458984
1129.607, 1.972656
1130.090, 15.56934
1130.572, 29.91016
1131.054, 37.85547
1131.536, 40.74512
1132.018, 37.37109
1132.500, 31.36914
1132.982, 20.56250
1133.464, 11.96191
1133.947, 13.82520
1134.429, 25.33496
1134.911, 41.79395
1135.393, 66.69141
1135.875, 82.47754
1136.357, 88.93164
1136.839, 83.48047
1137.321, 56.17188
1137.803, 30.77930
1138.286, 21.57129
1138.768, 20.79785
1139.250, 16.04883
1139.732, 8.833984
1140.214, 16.31445
1140.696, 42.30078
1141.178, 50.40234
1141.660, 35.91992
1142.142, 34.03027
1142.625, 57.23730
1143.107, 71.14941
1143.589, 46.60645
1144.071, 9.557617
1144.553, 6.095703
1145.035, 26.51953
1145.517, 50.37988
1145.999, 71.00391
1146.482, 63.86426
1146.964, 32.73047
1147.446, 1.249023
1147.928, 20.20605
1148.410, 20.98730
1148.892, 21.39355
1149.374, 62.54199
1149.856, 55.43066
1150.339, 34.97363
1150.821, 29.03125
1151.303, 37.59277
1151.785, 64.93066
1152.267, 103.3359
1152.749, 126.5332
1153.231, 129.4766
1153.713, 111.4346
1154.195, 38.14941
1154.677, 8.841797
1155.160, 19.87305
1155.642, 54.66602
1156.124, 50.22461
1156.606, 27.96973
1157.088, 17.22949
1157.570, 17.55664
1158.052, 23.87793
1158.534, 36.78613
1159.017, 55.28906
1159.499, 82.26074
1159.981, 95.20508
1160.463, 85.76758
1160.945, 75.36523
1161.427, 80.13965
1161.909, 89.66992
1162.391, 85.33691
1162.874, 71.67090
1163.356, 63.95117
1163.838, 60.05664
1164.320, 50.31934
1164.802, 37.54883
1165.284, 37.09668
1165.766, 53.18066
1166.248, 77.34180
1166.730, 111.3330
1167.213, 134.0127
1167.695, 108.4717
1168.177, 77.53809
1168.659, 83.59082
1169.141, 103.0625
1169.623, 102.0938
1170.105, 86.48145
1170.587, 85.72070
1171.069, 108.6592
1171.552, 114.9258
1172.034, 86.12305
1172.516, 57.88086
1172.998, 28.50000
1173.480, 11.52930
1173.962, 22.25977
1174.444, 33.68848
1174.926, 11.30371
1175.409, 28.22461
1175.891, 22.18457
1176.373, 34.08594
1176.855, 72.01562
1177.337, 91.98145
1177.819, 84.90234
1178.301, 50.93066
1178.783, 31.34277
1179.266, 46.19434
1179.748, 68.57617
1180.230, 70.65332
1180.712, 62.17383
1181.194, 50.68457
1181.676, 44.27148
1182.158, 67.69824
1182.640, 102.3916
1183.122, 108.0732
1183.604, 85.17383
1184.087, 64.98535
1184.569, 57.99414
1185.051, 62.19043
1185.533, 94.44629
1186.015, 113.3301
1186.497, 81.89160
1186.979, 51.87109
1187.461, 66.38867
1187.944, 99.79492
1188.426, 118.2715
1188.908, 121.6943
1189.390, 109.3164
1189.872, 74.61719
1190.354, 44.44531
1190.836, 14.11328
1191.318, 13.90820
1191.801, 55.78418
1192.283, 90.59668
1192.765, 89.64941
1193.247, 72.70898
1193.729, 67.55273
1194.211, 69.83594
1194.693, 76.99707
1195.175, 84.00879
1195.657, 69.50781
1196.140, 44.38770
1196.622, 47.95117
1197.104, 79.79590
1197.586, 94.76855
1198.068, 70.91113
1198.550, 51.17285
1199.032, 76.85254
1199.514, 95.65234
1199.996, 56.93945
1200.479, 21.05664
1200.961, 47.85156
1201.443, 100.6670
1201.925, 127.5186
1202.407, 126.1484
1202.889, 105.4648
1203.371, 44.52637
1203.853, 37.14355
1204.336, 107.5381
1204.818, 151.9268
1205.300, 146.6328
1205.782, 124.5049
1206.264, 100.2412
1206.746, 84.01855
1207.228, 95.71973
1207.710, 122.1807
1208.193, 127.2520
1208.675, 116.9395
1209.157, 102.9580
1209.639, 90.38867
1210.121, 97.28125
1210.603, 118.8691
1211.085, 119.9014
1211.567, 85.75586
1212.049, 63.38086
1212.531, 103.7881
1213.014, 133.5068
1213.496, 92.84863
1213.978, 51.03125
1214.460, 64.99609
1214.942, 99.28125
1215.424, 106.2080
1215.906, 93.22949
1216.388, 97.38672
1216.871, 126.8672
1217.353, 117.3926
1217.835, 53.42578
1218.317, 18.96289
1218.799, 29.28418
1219.281, 42.83105
1219.763, 42.24023
1220.245, 41.90527
1220.728, 55.06641
1221.210, 75.98242
1221.692, 99.48730
1222.174, 120.2900
1222.656, 134.4238
1223.138, 133.8994
1223.620, 85.44727
1224.102, 11.00977
1224.584, 22.37109
1225.067, 0.6650390
1225.549, 36.19336
1226.031, 73.84375
1226.513, 104.6396
1226.995, 129.2744
1227.477, 141.6006
1227.959, 132.5195
1228.441, 116.4795
1228.923, 100.1641
1229.406, 87.49219
1229.888, 85.84180
1230.370, 94.27051
1230.852, 103.3164
1231.334, 98.62305
1231.816, 109.4951
1232.298, 124.9082
1232.780, 119.1865
1233.263, 87.75586
1233.745, 48.83984
1234.227, 11.58691
1234.709, 2.042969
1235.191, 54.59668
1235.673, 118.0342
1236.155, 107.2158
1236.637, 47.08008
1237.120, 16.00488
1237.602, 0.0000000E+00
##END=



