##NAMES=Asbolane
##RRUFFID=R070359
##IDEAL CHEMISTRY=Mn^4+^(O,OH)_2_&#183;(Co^3+^,Ni^2+^,Mg,Ca)_x_(OH)_2x_&#183;nH_2_O
##LOCALITY=Hachberg, Saint Avold, Moselle, France
##OWNER=RRUFF
##SOURCE=Michael Scott
##DESCRIPTION=Thin black platelets coating grains of quartz
##STATUS=The identification of this mineral is not yet confirmed.
##URL=rruff.info/R070359
166.0538, 0.0000000E+00
166.5359, 0.1748050
167.0180, 0.1868900
167.5002, 4.630127
167.9823, 11.49121
168.4644, 19.93140
168.9465, 29.94373
169.4286, 40.32666
169.9107, 52.56250
170.3929, 64.50647
170.8750, 72.13245
171.3571, 72.34875
171.8392, 67.40161
172.3213, 58.27173
172.8034, 43.51721
173.2856, 29.96484
173.7677, 25.33240
174.2498, 27.68420
174.7319, 30.41956
175.2140, 29.64709
175.6961, 27.67078
176.1783, 24.51270
176.6604, 19.45654
177.1425, 15.71033
177.6246, 19.30115
178.1067, 28.82483
178.5888, 35.48743
179.0710, 28.64661
179.5531, 14.17236
180.0352, 5.501343
180.5173, 7.912964
180.9994, 15.56140
181.4815, 18.58325
181.9637, 17.16333
182.4458, 15.93506
182.9279, 22.36316
183.4100, 33.26990
183.8921, 36.29407
184.3742, 23.21631
184.8564, 2.062866
185.3385, 7.429810
185.8206, 4.711060
186.3027, 2.086304
186.7848, 3.780273
187.2669, 1.421631
187.7491, 3.258545
188.2312, 15.71765
188.7133, 34.71130
189.1954, 44.62891
189.6775, 44.37427
190.1596, 39.55798
190.6418, 36.34717
191.1239, 34.71533
191.6060, 33.06335
192.0881, 29.85925
192.5702, 25.56677
193.0524, 25.23657
193.5345, 30.06274
194.0166, 35.74731
194.4987, 33.77966
194.9808, 23.46631
195.4629, 15.95557
195.9451, 18.99084
196.4272, 32.31982
196.9093, 38.84326
197.3914, 35.98157
197.8735, 29.52832
198.3556, 32.48877
198.8378, 46.82922
199.3199, 58.57373
199.8020, 57.26587
200.2841, 39.09082
200.7662, 28.19055
201.2483, 26.97754
201.7305, 32.71484
202.2126, 39.96826
202.6947, 49.69702
203.1768, 57.35913
203.6589, 59.38647
204.1410, 54.37183
204.6232, 50.96191
205.1053, 49.99219
205.5874, 50.94531
206.0695, 52.33374
206.5516, 54.43835
207.0337, 56.24548
207.5159, 57.02844
207.9980, 56.61401
208.4801, 55.81482
208.9622, 54.53357
209.4443, 52.94714
209.9264, 51.87378
210.4086, 51.27869
210.8907, 51.27905
211.3728, 53.29138
211.8549, 59.86316
212.3370, 58.94470
212.8191, 44.58240
213.3013, 19.72815
213.7834, 9.976807
214.2655, 21.21558
214.7476, 38.14417
215.2297, 47.63782
215.7118, 47.79407
216.1940, 45.80310
216.6761, 41.79614
217.1582, 35.98962
217.6403, 34.41406
218.1224, 39.80054
218.6045, 45.79004
219.0867, 45.81628
219.5688, 37.32812
220.0509, 28.76880
220.5330, 21.50366
221.0151, 15.39526
221.4972, 11.93433
221.9794, 11.58936
222.4615, 13.33191
222.9436, 16.72192
223.4257, 24.01685
223.9078, 27.92468
224.3899, 26.24646
224.8721, 18.42981
225.3542, 12.60364
225.8363, 9.180908
226.3184, 7.301758
226.8005, 5.439697
227.2827, 1.394409
227.7648, 1.835571
228.2469, 10.51648
228.7290, 29.44714
229.2111, 40.50562
229.6932, 40.85950
230.1754, 35.50842
230.6575, 31.17188
231.1396, 30.21008
231.6217, 25.83899
232.1038, 13.33215
232.5859, 11.49609
233.0681, 20.85938
233.5502, 7.224854
234.0323, 16.41418
234.5144, 31.50513
234.9965, 34.54822
235.4786, 34.64478
235.9608, 33.78760
236.4429, 31.36182
236.9250, 30.98132
237.4071, 33.73889
237.8892, 37.86475
238.3713, 41.20544
238.8535, 46.46912
239.3356, 46.23352
239.8177, 35.57471
240.2998, 8.619385
240.7819, 5.342773
241.2640, 0.1031490
241.7462, 14.59302
242.2283, 19.48376
242.7104, 7.378540
243.1925, 2.250000
243.6746, 1.162354
244.1567, 15.99902
244.6389, 25.01904
245.1210, 21.86621
245.6031, 12.98596
246.0852, 9.775391
246.5673, 14.35400
247.0494, 21.04004
247.5316, 28.59790
248.0137, 38.40710
248.4958, 43.91199
248.9779, 40.24597
249.4600, 34.42847
249.9421, 41.47729
250.4243, 72.45740
250.9064, 96.56738
251.3885, 100.8547
251.8706, 78.26990
252.3527, 57.91565
252.8348, 35.18701
253.3170, 17.48682
253.7991, 23.09912
254.2812, 68.08582
254.7633, 105.4575
255.2454, 114.9514
255.7275, 86.14917
256.2097, 65.63013
256.6918, 54.44617
257.1739, 51.07288
257.6560, 54.45923
258.1381, 69.87085
258.6202, 81.72375
259.1024, 82.63977
259.5845, 68.03455
260.0666, 54.87646
260.5487, 40.45850
261.0308, 29.60364
261.5129, 33.69153
261.9951, 60.96448
262.4772, 83.36328
262.9593, 88.45874
263.4414, 72.39795
263.9235, 56.27600
264.4056, 36.47437
264.8878, 19.85901
265.3699, 20.60364
265.8520, 45.18201
266.3341, 68.68884
266.8162, 81.47046
267.2983, 81.95508
267.7805, 80.45044
268.2626, 75.61792
268.7447, 70.30176
269.2268, 70.74463
269.7089, 79.35510
270.1910, 85.11646
270.6732, 83.15088
271.1553, 71.90417
271.6374, 61.13037
272.1195, 50.07568
272.6016, 40.74121
273.0837, 37.47083
273.5659, 41.32629
274.0480, 46.91492
274.5301, 50.65674
275.0122, 51.34558
275.4943, 53.60828
275.9764, 59.16577
276.4586, 64.92554
276.9407, 65.92188
277.4228, 61.80676
277.9049, 55.84314
278.3870, 47.28589
278.8691, 36.52673
279.3513, 34.01111
279.8334, 41.76062
280.3155, 52.56860
280.7976, 57.29285
281.2798, 55.77441
281.7619, 50.87354
282.2440, 42.23425
282.7261, 30.54919
283.2082, 19.87158
283.6903, 9.292969
284.1725, 3.074585
284.6546, 10.84106
285.1367, 31.79749
285.6188, 46.57764
286.1009, 45.18091
286.5830, 31.74768
287.0652, 23.85828
287.5473, 21.94727
288.0294, 23.36340
288.5115, 26.54590
288.9936, 31.18091
289.4757, 34.56152
289.9579, 35.81555
290.4400, 34.86792
290.9221, 32.14929
291.4042, 28.54846
291.8863, 24.25732
292.3684, 17.75964
292.8506, 10.44531
293.3327, 7.425049
293.8148, 12.42090
294.2969, 21.54993
294.7790, 26.59802
295.2611, 27.57483
295.7433, 28.53882
296.2254, 33.82092
296.7075, 42.06189
297.1896, 49.41772
297.6717, 56.01721
298.1538, 60.30200
298.6360, 57.97705
299.1181, 49.85791
299.6002, 42.36487
300.0823, 41.69519
300.5644, 45.12122
301.0465, 47.20239
301.5287, 46.33337
302.0108, 43.90942
302.4929, 41.73999
302.9750, 39.72339
303.4571, 36.37048
303.9392, 29.60400
304.4214, 21.10059
304.9035, 12.18542
305.3856, 1.076904
305.8677, 6.533447
306.3498, 2.075317
306.8319, 11.33167
307.3141, 22.11292
307.7962, 20.77283
308.2783, 14.91638
308.7604, 11.35864
309.2425, 12.03735
309.7246, 13.98328
310.2068, 17.34558
310.6889, 20.76526
311.1710, 20.79736
311.6531, 10.33105
312.1352, 0.8492430
312.6173, 5.240112
313.0995, 0.3979490
313.5816, 7.754272
314.0637, 23.55908
314.5458, 40.36426
315.0279, 45.85388
315.5100, 18.06201
315.9922, 9.291748
316.4743, 15.13586
316.9564, 9.068237
317.4385, 29.38782
317.9206, 30.00830
318.4027, 21.08777
318.8849, 16.80811
319.3670, 27.81726
319.8491, 38.03442
320.3312, 40.09351
320.8133, 31.66162
321.2954, 26.43652
321.7776, 30.07727
322.2597, 37.09363
322.7418, 41.56763
323.2239, 43.48047
323.7060, 42.09534
324.1881, 34.06836
324.6703, 18.15552
325.1524, 11.07019
325.6345, 26.68701
326.1166, 44.89075
326.5987, 49.50293
327.0808, 22.66028
327.5630, 3.014404
328.0451, 3.958252
328.5272, 1.322144
329.0093, 10.49915
329.4914, 33.38538
329.9735, 51.10303
330.4557, 49.53796
330.9378, 9.993164
331.4199, 16.09961
331.9020, 21.74146
332.3841, 10.47876
332.8662, 1.459106
333.3484, 16.70471
333.8305, 28.38940
334.3126, 31.91614
334.7947, 23.96350
335.2768, 18.30176
335.7589, 15.94165
336.2411, 16.11694
336.7232, 16.90283
337.2053, 18.26465
337.6874, 20.09790
338.1695, 22.82007
338.6516, 26.70752
339.1338, 28.69360
339.6159, 27.42126
340.0980, 26.28308
340.5801, 32.67554
341.0622, 47.75256
341.5443, 60.47229
342.0265, 67.22656
342.5086, 68.03052
342.9907, 61.09277
343.4728, 44.41809
343.9549, 28.08459
344.4370, 27.58838
344.9192, 41.15051
345.4013, 51.82898
345.8834, 51.56689
346.3655, 44.81421
346.8476, 43.77954
347.3297, 48.08057
347.8119, 52.10095
348.2940, 52.73975
348.7761, 49.99963
349.2582, 42.34094
349.7403, 23.73193
350.2225, 5.673340
350.7046, 9.069946
351.1867, 31.27539
351.6688, 51.52710
352.1509, 50.64917
352.6331, 38.84570
353.1152, 32.49902
353.5973, 38.11560
354.0794, 45.25793
354.5615, 44.55591
355.0436, 37.65125
355.5258, 29.55872
356.0079, 17.94897
356.4900, 9.746948
356.9721, 12.79846
357.4542, 31.43591
357.9363, 48.42212
358.4185, 56.07385
358.9006, 55.86414
359.3827, 50.13867
359.8648, 29.68286
360.3469, 12.02234
360.8290, 9.206177
361.3112, 24.84973
361.7933, 36.74243
362.2754, 29.36951
362.7575, 16.20715
363.2396, 14.54919
363.7217, 51.08276
364.2039, 76.72693
364.6860, 71.49634
365.1681, 34.64539
365.6502, 10.88928
366.1323, 14.38171
366.6144, 26.38220
367.0966, 34.19568
367.5787, 33.55396
368.0608, 33.45544
368.5429, 34.29846
369.0250, 36.09924
369.5071, 39.00403
369.9893, 43.72131
370.4714, 48.60962
370.9535, 53.27527
371.4356, 56.51489
371.9177, 62.06458
372.3998, 73.27234
372.8820, 85.14783
373.3641, 85.13525
373.8462, 68.17651
374.3283, 50.65564
374.8104, 40.32507
375.2925, 36.61304
375.7747, 34.06152
376.2568, 32.45544
376.7389, 32.40076
377.2210, 36.52722
377.7031, 45.43811
378.1852, 49.40100
378.6674, 42.33350
379.1495, 28.09875
379.6316, 24.98999
380.1137, 34.11267
380.5958, 44.51050
381.0779, 44.66699
381.5601, 36.68738
382.0422, 31.03101
382.5243, 30.54675
383.0064, 32.74841
383.4885, 32.44812
383.9706, 30.31091
384.4528, 31.16663
384.9349, 42.12610
385.4170, 57.23865
385.8991, 66.61377
386.3812, 69.00061
386.8633, 67.67468
387.3455, 64.20923
387.8276, 59.42041
388.3097, 55.15027
388.7918, 54.17102
389.2739, 51.76501
389.7560, 44.02332
390.2382, 31.06299
390.7203, 22.91943
391.2024, 28.80005
391.6845, 40.12268
392.1666, 47.10645
392.6487, 43.16284
393.1309, 37.32434
393.6130, 31.53259
394.0951, 26.13269
394.5772, 24.25195
395.0593, 30.66394
395.5414, 38.32324
396.0236, 42.74731
396.5057, 39.15320
396.9878, 37.26379
397.4699, 39.23706
397.9520, 43.72644
398.4341, 46.49622
398.9163, 47.37000
399.3984, 46.67529
399.8805, 44.04651
400.3626, 38.00159
400.8447, 34.74951
401.3268, 36.70483
401.8090, 39.66699
402.2911, 37.29187
402.7732, 27.58362
403.2553, 17.48401
403.7374, 7.014282
404.2195, 3.330200
404.7017, 2.418823
405.1838, 13.46729
405.6659, 30.62549
406.1480, 35.77319
406.6301, 28.78772
407.1122, 21.24744
407.5944, 14.66516
408.0765, 9.095581
408.5586, 4.430542
409.0407, 0.7757570
409.5228, 1.128540
410.0049, 9.945068
410.4871, 24.38306
410.9692, 38.23645
411.4513, 52.19226
411.9334, 60.27234
412.4155, 51.48303
412.8976, 30.62891
413.3798, 11.96509
413.8619, 0.1711430
414.3440, 5.571167
414.8261, 4.245728
415.3082, 4.209717
415.7903, 13.26868
416.2725, 19.33911
416.7546, 23.52734
417.2367, 27.37683
417.7188, 35.06506
418.2009, 38.05786
418.6830, 25.63965
419.1652, 3.750977
419.6473, 6.447510
420.1294, 19.55835
420.6115, 45.96838
421.0937, 51.97485
421.5758, 22.71545
422.0579, 0.6566160
422.5400, 11.60022
423.0221, 13.82605
423.5042, 13.71790
423.9864, 9.318848
424.4685, 4.288818
424.9506, 0.4333500
425.4327, 4.590332
425.9148, 9.890381
426.3969, 17.12073
426.8791, 24.63538
427.3612, 30.91833
427.8433, 35.76562
428.3254, 40.14600
428.8075, 44.68921
429.2896, 48.60547
429.7718, 48.59839
430.2539, 44.09692
430.7360, 38.79431
431.2181, 33.68298
431.7002, 29.01062
432.1823, 29.02039
432.6645, 34.63379
433.1466, 42.48364
433.6287, 50.47546
434.1108, 57.59717
434.5929, 58.28369
435.0750, 43.33691
435.5572, 23.51025
436.0393, 20.23169
436.5214, 32.75854
437.0035, 45.52148
437.4856, 44.54175
437.9677, 36.94409
438.4499, 32.53979
438.9320, 35.17212
439.4141, 39.08496
439.8962, 40.07959
440.3783, 39.19116
440.8604, 39.09229
441.3426, 43.95532
441.8247, 47.57861
442.3068, 44.71851
442.7889, 32.00488
443.2710, 25.44360
443.7531, 37.38159
444.2353, 55.81299
444.7174, 67.57593
445.1995, 70.25293
445.6816, 66.54321
446.1637, 52.84326
446.6458, 30.70923
447.1280, 15.36426
447.6101, 6.439941
448.0922, 5.556396
448.5743, 14.30859
449.0564, 38.58594
449.5385, 55.68115
450.0207, 63.15161
450.5028, 65.23340
450.9849, 68.79272
451.4670, 74.20190
451.9491, 78.69556
452.4312, 80.49707
452.9134, 80.26147
453.3955, 83.31934
453.8776, 89.97681
454.3597, 97.18774
454.8418, 102.0791
455.3239, 105.3838
455.8061, 108.0071
456.2882, 110.0203
456.7703, 112.2344
457.2524, 115.2241
457.7345, 118.9370
458.2166, 123.3037
458.6988, 127.8696
459.1809, 133.2339
459.6630, 141.2085
460.1451, 152.8569
460.6272, 161.4390
461.1093, 159.4736
461.5915, 153.4673
462.0736, 150.6624
462.5557, 165.0334
463.0378, 175.4280
463.5199, 170.0640
464.0020, 151.0283
464.4842, 136.0945
464.9663, 131.5703
465.4484, 130.1577
465.9305, 128.3928
466.4126, 127.8828
466.8947, 123.3035
467.3769, 111.5979
467.8590, 97.91455
468.3411, 90.64575
468.8232, 93.55566
469.3053, 94.55859
469.7874, 88.80933
470.2696, 77.02905
470.7517, 73.75952
471.2338, 80.91870
471.7159, 89.33667
472.1980, 90.64502
472.6801, 85.47949
473.1623, 82.55420
473.6444, 83.64526
474.1265, 85.56738
474.6086, 83.15698
475.0907, 76.73096
475.5728, 68.45190
476.0550, 55.00806
476.5371, 41.92188
477.0192, 40.70483
477.5013, 51.83887
477.9834, 62.64648
478.4655, 56.10303
478.9477, 43.18921
479.4298, 39.09863
479.9119, 58.29590
480.3940, 73.30396
480.8761, 63.98804
481.3582, 38.93945
481.8404, 22.75586
482.3225, 35.71167
482.8046, 49.20312
483.2867, 47.80078
483.7688, 23.19409
484.2509, 8.008301
484.7331, 10.05396
485.2152, 19.98511
485.6973, 29.78735
486.1794, 40.94141
486.6615, 49.59741
487.1436, 56.10449
487.6258, 59.81274
488.1079, 55.97632
488.5900, 41.19971
489.0721, 28.31494
489.5542, 26.03979
490.0363, 34.47949
490.5185, 38.90161
491.0006, 38.31567
491.4827, 35.58740
491.9648, 34.64526
492.4470, 34.97559
492.9291, 33.63525
493.4112, 28.73779
493.8933, 22.37305
494.3754, 17.25244
494.8575, 13.39746
495.3397, 11.17725
495.8218, 12.27124
496.3039, 14.42847
496.7860, 15.01465
497.2681, 13.30518
497.7502, 11.52100
498.2324, 12.43945
498.7145, 13.56079
499.1966, 11.53638
499.6787, 6.948242
500.1608, 16.29663
500.6429, 2.3193000E-02
501.1251, 39.34302
501.6072, 59.94531
502.0893, 40.52148
502.5714, 18.32153
503.0535, 12.21948
503.5356, 35.30029
504.0178, 42.12476
504.4999, 25.37280
504.9820, 1.108398
505.4641, 17.44897
505.9462, 22.73389
506.4283, 20.96167
506.9105, 10.51099
507.3926, 5.234863
507.8747, 12.28052
508.3568, 10.29590
508.8389, 5.961426
509.3210, 2.590088
509.8032, 0.7231450
510.2853, 3.356445
510.7674, 12.38403
511.2495, 19.36499
511.7316, 11.12939
512.2137, 5.346191
512.6959, 15.78809
513.1780, 9.428223
513.6601, 0.8393550
514.1422, 7.139893
514.6243, 9.880859
515.1064, 12.56055
515.5886, 18.11108
516.0707, 22.94678
516.5528, 25.67847
517.0349, 30.16992
517.5170, 24.18945
517.9991, 9.081787
518.4813, 47.34131
518.9634, 61.12427
519.4455, 35.20972
519.9276, 10.67627
520.4097, 5.352783
520.8918, 13.22998
521.3740, 16.57812
521.8561, 14.69727
522.3382, 10.59790
522.8203, 4.108887
523.3024, 4.265869
523.7845, 5.276123
524.2667, 2.877441
524.7488, 13.59448
525.2309, 19.05249
525.7130, 20.46924
526.1951, 22.05298
526.6772, 26.58398
527.1594, 30.80493
527.6415, 30.52783
528.1236, 26.40063
528.6057, 21.25830
529.0878, 12.35815
529.5699, 5.953125
530.0521, 8.957031
530.5342, 25.39429
531.0163, 36.95093
531.4984, 30.63672
531.9805, 19.64624
532.4626, 17.98828
532.9448, 34.01318
533.4269, 52.05640
533.9090, 75.14722
534.3911, 99.51196
534.8732, 107.7163
535.3553, 89.91309
535.8375, 74.61646
536.3196, 76.21997
536.8017, 95.86816
537.2838, 108.2556
537.7659, 112.2947
538.2480, 113.0891
538.7302, 117.2241
539.2123, 123.7173
539.6944, 124.1323
540.1765, 113.3208
540.6586, 101.7507
541.1407, 107.9385
541.6229, 126.9514
542.1050, 141.1641
542.5871, 136.5298
543.0692, 125.8955
543.5513, 118.5610
544.0334, 115.1682
544.5156, 118.4338
544.9977, 138.5122
545.4798, 160.6768
545.9619, 173.0222
546.4440, 169.0930
546.9261, 161.5798
547.4083, 145.4092
547.8904, 128.0657
548.3725, 123.6509
548.8546, 140.1633
549.3367, 156.6975
549.8188, 169.9468
550.3010, 179.5098
550.7831, 179.7551
551.2652, 169.1277
551.7473, 154.3076
552.2294, 136.2534
552.7115, 116.1890
553.1937, 110.3018
553.6758, 122.7061
554.1579, 137.5166
554.6400, 129.9448
555.1221, 108.2517
555.6042, 96.43872
556.0864, 108.5127
556.5685, 128.5005
557.0506, 143.7485
557.5327, 154.0959
558.0148, 160.1477
558.4969, 165.7727
558.9791, 165.9846
559.4612, 154.4404
559.9433, 126.3767
560.4254, 108.5811
560.9075, 114.7532
561.3896, 128.4197
561.8718, 135.2195
562.3539, 133.2913
562.8360, 126.6465
563.3181, 110.1870
563.8002, 91.36865
564.2823, 89.10596
564.7645, 107.1589
565.2466, 127.3911
565.7287, 144.1399
566.2108, 156.7812
566.6929, 160.7690
567.1750, 155.8726
567.6572, 146.6147
568.1393, 129.4329
568.6214, 111.9285
569.1035, 114.1431
569.5856, 144.5984
570.0677, 172.4500
570.5499, 165.5105
571.0320, 141.2607
571.5141, 126.2815
571.9962, 142.2107
572.4783, 156.6062
572.9604, 152.2874
573.4426, 133.5388
573.9247, 123.1702
574.4068, 133.5740
574.8889, 145.1553
575.3710, 150.0034
575.8531, 145.9004
576.3353, 143.0862
576.8174, 143.8435
577.2995, 147.2798
577.7816, 151.9695
578.2637, 157.7568
578.7458, 154.3552
579.2280, 136.3625
579.7101, 115.8513
580.1922, 116.2910
580.6743, 134.7712
581.1564, 154.7573
581.6385, 174.9373
582.1207, 189.2661
582.6028, 182.8843
583.0849, 158.8818
583.5670, 140.9973
584.0491, 150.4570
584.5313, 167.0398
585.0134, 173.5200
585.4955, 162.2434
585.9776, 157.4558
586.4597, 172.5122
586.9418, 194.2192
587.4240, 207.5083
587.9061, 209.2539
588.3882, 206.8435
588.8703, 199.5415
589.3524, 189.0029
589.8345, 179.0188
590.3167, 168.3564
590.7988, 163.1719
591.2809, 168.5525
591.7630, 181.9812
592.2451, 190.0454
592.7272, 192.5869
593.2094, 193.6646
593.6915, 197.5439
594.1736, 202.1846
594.6557, 202.7820
595.1378, 197.4016
595.6199, 192.8916
596.1021, 195.1343
596.5842, 201.2947
597.0663, 207.3555
597.5485, 218.4814
598.0306, 222.3271
598.5127, 206.9497
598.9948, 178.8376
599.4769, 166.2739
599.9590, 184.5759
600.4412, 201.7473
600.9233, 206.4849
601.4054, 197.8110
601.8875, 192.1179
602.3696, 188.8809
602.8517, 190.0596
603.3339, 201.1848
603.8160, 220.9797
604.2981, 229.7830
604.7802, 223.6411
605.2623, 212.1206
605.7444, 205.1726
606.2266, 202.5920
606.7087, 204.3425
607.1908, 215.4241
607.6729, 225.5542
608.1550, 223.8149
608.6371, 213.8923
609.1193, 207.7087
609.6014, 214.3708
610.0835, 222.2295
610.5656, 226.0898
611.0477, 225.3745
611.5298, 222.3579
612.0120, 217.2502
612.4941, 209.8647
612.9762, 199.2788
613.4583, 183.5034
613.9404, 171.7605
614.4225, 164.5759
614.9047, 161.3730
615.3868, 161.9385
615.8689, 166.0925
616.3510, 172.0142
616.8331, 180.0825
617.3152, 187.0063
617.7974, 194.9819
618.2795, 202.4441
618.7616, 203.5305
619.2437, 186.7368
619.7258, 168.5071
620.2079, 163.5334
620.6901, 172.4341
621.1722, 177.6650
621.6543, 167.4048
622.1364, 153.8933
622.6185, 147.0684
623.1006, 154.2881
623.5828, 152.9734
624.0649, 137.1880
624.5470, 118.3110
625.0291, 110.7603
625.5112, 116.7166
625.9933, 122.5662
626.4755, 126.2158
626.9576, 127.9077
627.4397, 128.1650
627.9218, 126.8989
628.4039, 123.8059
628.8860, 116.6555
629.3682, 108.7368
629.8503, 104.3223
630.3324, 103.2590
630.8145, 104.4858
631.2966, 112.4062
631.7787, 119.0168
632.2609, 117.4880
632.7430, 103.0718
633.2251, 91.80420
633.7072, 89.11475
634.1893, 90.45679
634.6714, 92.18726
635.1536, 95.54199
635.6357, 95.16528
636.1178, 88.90283
636.5999, 80.56323
637.0820, 77.85522
637.5641, 81.05713
638.0463, 83.32886
638.5284, 81.55225
639.0105, 78.27002
639.4926, 79.63647
639.9747, 84.70801
640.4568, 88.02856
640.9390, 83.34937
641.4211, 77.33228
641.9032, 77.37695
642.3853, 83.98657
642.8674, 88.90894
643.3495, 81.97900
643.8317, 75.50977
644.3138, 79.29541
644.7959, 107.7034
645.2780, 119.7156
645.7601, 106.1619
646.2422, 85.19580
646.7244, 77.77856
647.2065, 86.34863
647.6886, 88.22046
648.1707, 77.44141
648.6528, 60.49634
649.1349, 50.18311
649.6171, 45.73950
650.0992, 41.44995
650.5813, 29.26587
651.0634, 20.17383
651.5455, 33.52075
652.0276, 63.32349
652.5098, 82.19727
652.9919, 61.16846
653.4740, 35.76978
653.9561, 29.47559
654.4382, 47.79370
654.9203, 63.08594
655.4025, 76.52637
655.8846, 82.76685
656.3667, 75.03296
656.8488, 43.35522
657.3309, 26.98291
657.8130, 30.84863
658.2952, 43.73267
658.7773, 50.05713
659.2594, 50.54199
659.7415, 53.52173
660.2236, 63.61694
660.7057, 73.02808
661.1879, 67.47168
661.6700, 52.19263
662.1521, 40.57446
662.6342, 41.55615
663.1163, 45.16040
663.5984, 44.97046
664.0806, 41.61255
664.5627, 39.43726
665.0448, 42.77368
665.5269, 44.07568
666.0090, 38.98779
666.4911, 26.16406
666.9733, 17.70239
667.4554, 14.62720
667.9375, 15.46924
668.4196, 19.72192
668.9017, 27.29663
669.3839, 30.29956
669.8660, 27.25195
670.3481, 22.85962
670.8302, 21.96436
671.3123, 23.90234
671.7944, 28.31128
672.2766, 41.08740
672.7587, 46.47998
673.2408, 21.48877
673.7229, 16.89722
674.2050, 35.89355
674.6871, 5.171387
675.1693, 23.10303
675.6514, 33.99341
676.1335, 30.51367
676.6156, 28.53784
677.0977, 30.93237
677.5798, 28.00391
678.0620, 10.90112
678.5441, 17.47461
679.0262, 24.56567
679.5083, 9.403076
679.9904, 8.750000
680.4725, 13.88135
680.9547, 11.77051
681.4368, 11.81421
681.9189, 15.08374
682.4010, 20.62476
682.8831, 34.78979
683.3652, 47.46167
683.8474, 47.30371
684.3295, 17.23584
684.8116, 2.507324
685.2937, 2.184814
685.7758, 9.829346
686.2579, 25.37158
686.7401, 50.13525
687.2222, 62.05029
687.7043, 54.41553
688.1864, 34.15137
688.6685, 14.51318
689.1506, 4.090332
689.6328, 14.97925
690.1149, 10.70386
690.5970, 0.3632810
691.0791, 0.7290040
691.5612, 5.173340
692.0433, 6.945557
692.5255, 9.830078
693.0076, 27.33105
693.4897, 31.74805
693.9718, 22.91089
694.4539, 15.98315
694.9360, 13.38794
695.4182, 12.84644
695.9003, 13.31836
696.3824, 14.90015
696.8645, 17.42139
697.3466, 21.38550
697.8287, 25.02954
698.3109, 27.60449
698.7930, 28.53979
699.2751, 22.90259
699.7572, 7.479736
700.2393, 5.739258
700.7214, 5.8590001E-03
701.2036, 15.76001
701.6857, 26.59399
702.1678, 26.60815
702.6499, 21.63818
703.1320, 6.484375
703.6141, 12.01929
704.0963, 15.84424
704.5784, 10.23096
705.0605, 28.43066
705.5426, 28.39453
706.0247, 14.50903
706.5068, 6.917236
706.9890, 6.498291
707.4711, 5.373535
707.9532, 4.520508
708.4353, 17.32471
708.9174, 13.82007
709.3995, 4.200195
709.8817, 19.11108
710.3638, 14.26440
710.8459, 3.857178
711.3280, 1.541748
711.8101, 9.989990
712.2922, 14.80762
712.7744, 7.500732
713.2565, 1.504883
713.7386, 5.187500
714.2207, 1.437500
714.7028, 2.460693
715.1849, 7.032959
715.6671, 10.92065
716.1492, 12.13818
716.6313, 10.88623
717.1134, 10.72534
717.5955, 12.95850
718.0776, 14.29614
718.5598, 7.434082
719.0419, 1.888916
719.5240, 4.609619
720.0061, 11.17261
720.4882, 24.69312
720.9703, 20.97852
721.4525, 8.545898
721.9346, 6.860840
722.4167, 35.17529
722.8988, 52.26318
723.3809, 47.39746
723.8630, 25.86719
724.3452, 5.877930
724.8273, 13.94287
725.3094, 21.55396
725.7915, 3.251465
726.2736, 28.60571
726.7557, 40.02832
727.2379, 33.37476
727.7200, 26.87451
728.2021, 36.81494
728.6842, 48.57031
729.1663, 48.20776
729.6484, 34.16846
730.1306, 24.07886
730.6127, 26.09448
731.0948, 30.91309
731.5769, 32.55078
732.0590, 29.07788
732.5411, 30.64453
733.0233, 36.78735
733.5054, 44.90625
733.9875, 56.27637
734.4696, 69.13892
734.9517, 67.95044
735.4338, 49.12646
735.9160, 27.30957
736.3981, 13.42212
736.8802, 6.928955
737.3623, 8.798828
737.8444, 24.08325
738.3266, 36.38281
738.8087, 37.95972
739.2908, 33.29102
739.7729, 28.81274
740.2551, 22.55737
740.7372, 21.02197
741.2193, 26.64355
741.7014, 35.93848
742.1835, 41.57202
742.6656, 43.46729
743.1478, 44.48145
743.6299, 43.29736
744.1120, 44.41479
744.5941, 63.38867
745.0762, 91.93896
745.5583, 105.1221
746.0405, 73.75073
746.5226, 39.08521
747.0047, 23.54785
747.4868, 24.55859
747.9689, 28.28247
748.4510, 42.73071
748.9332, 46.24097
749.4153, 23.88940
749.8974, 19.55176
750.3795, 24.34082
750.8616, 13.93701
751.3438, 52.73071
751.8259, 62.36694
752.3080, 53.23584
752.7901, 50.21436
753.2722, 53.37842
753.7543, 55.47119
754.2365, 50.91235
754.7186, 43.86206
755.2007, 36.70728
755.6828, 29.00024
756.1649, 25.42383
756.6470, 28.10693
757.1292, 33.92603
757.6113, 42.92725
758.0934, 57.85474
758.5755, 59.75146
759.0576, 45.23853
759.5397, 28.20654
760.0219, 23.49609
760.5040, 28.26636
760.9861, 34.30786
761.4682, 39.68872
761.9503, 44.26147
762.4324, 52.12402
762.9146, 57.65186
763.3967, 55.04468
763.8788, 34.74072
764.3609, 19.50781
764.8430, 14.80151
765.3251, 16.14136
765.8073, 18.55688
766.2894, 21.96729
766.7715, 26.75928
767.2536, 34.47168
767.7357, 41.89380
768.2178, 43.89844
768.7000, 41.65527
769.1821, 40.65186
769.6642, 43.73364
770.1463, 47.42578
770.6284, 49.12549
771.1105, 48.93042
771.5927, 47.83496
772.0748, 46.56421
772.5569, 44.74902
773.0390, 39.24243
773.5211, 33.54224
774.0032, 40.61011
774.4854, 68.00464
774.9675, 77.81543
775.4496, 51.08057
775.9317, 6.254150
776.4138, 10.31226
776.8959, 2.488770
777.3781, 10.19141
777.8602, 24.73926
778.3423, 34.92212
778.8244, 32.13672
779.3065, 19.48853
779.7886, 11.45972
780.2708, 13.14600
780.7529, 20.39673
781.2350, 35.91992
781.7171, 57.56055
782.1992, 62.04565
782.6813, 43.98462
783.1635, 27.02148
783.6456, 27.31201
784.1277, 38.73877
784.6098, 38.18652
785.0919, 27.28052
785.5740, 21.61841
786.0562, 37.55298
786.5383, 56.52905
787.0204, 59.63306
787.5025, 45.95947
787.9846, 39.09448
788.4667, 55.45020
788.9489, 69.46997
789.4310, 68.75024
789.9131, 52.43164
790.3952, 44.99170
790.8773, 47.12109
791.3594, 49.52173
791.8416, 41.84082
792.3237, 29.21631
792.8058, 26.39014
793.2879, 33.87793
793.7700, 41.65234
794.2521, 45.01440
794.7343, 43.91943
795.2164, 36.28613
795.6985, 18.91748
796.1806, 11.09717
796.6627, 19.86743
797.1448, 31.34595
797.6270, 36.48291
798.1091, 35.10303
798.5912, 34.32495
799.0733, 34.73511
799.5554, 33.62598
800.0375, 25.39648
800.5197, 14.50781
801.0018, 9.150635
801.4839, 10.53247
801.9660, 17.23975
802.4481, 37.71191
802.9302, 57.38599
803.4124, 62.96143
803.8945, 43.36646
804.3766, 29.76758
804.8587, 22.37939
805.3408, 20.59546
805.8229, 26.85229
806.3051, 41.07544
806.7872, 43.53613
807.2693, 30.07812
807.7514, 17.34595
808.2335, 37.32251
808.7156, 70.43140
809.1978, 77.60181
809.6799, 40.44043
810.1620, 11.73560
810.6441, 23.08911
811.1262, 47.88989
811.6083, 59.24365
812.0905, 46.47607
812.5726, 44.61890
813.0547, 58.64697
813.5368, 75.24219
814.0189, 78.48926
814.5010, 70.19702
814.9832, 59.16357
815.4653, 45.73096
815.9474, 35.38525
816.4295, 35.40698
816.9116, 40.20728
817.3937, 43.01782
817.8759, 41.89307
818.3580, 39.75732
818.8401, 36.62476
819.3222, 33.06323
819.8043, 29.19580
820.2864, 24.45093
820.7686, 22.20410
821.2507, 23.15771
821.7328, 25.42969
822.2149, 25.90161
822.6970, 25.87427
823.1791, 29.26245
823.6613, 38.51929
824.1434, 45.93359
824.6255, 46.74609
825.1076, 42.60010
825.5897, 35.33789
826.0718, 13.62646
826.5540, 6.814697
827.0361, 22.30273
827.5182, 44.20312
828.0003, 53.57812
828.4824, 50.52051
828.9645, 45.72876
829.4467, 40.12207
829.9288, 35.79102
830.4109, 36.99219
830.8930, 40.51147
831.3751, 40.70142
831.8572, 32.84839
832.3394, 29.25073
832.8215, 41.60669
833.3036, 56.23877
833.7857, 57.05054
834.2678, 37.34668
834.7499, 22.54126
835.2321, 14.00854
835.7142, 10.55249
836.1963, 13.14575
836.6784, 19.97217
837.1605, 24.30493
837.6426, 24.50586
838.1248, 23.66577
838.6069, 23.05127
839.0890, 23.23071
839.5711, 24.75659
840.0532, 27.78589
840.5353, 32.69482
841.0175, 45.20605
841.4996, 53.63867
841.9817, 40.39087
842.4638, 3.635254
842.9459, 10.94312
843.4280, 3.851807
843.9102, 26.20972
844.3923, 32.35107
844.8744, 29.74902
845.3565, 32.05566
845.8386, 45.65234
846.3207, 50.47632
846.8029, 24.34302
847.2850, 5.066895
847.7671, 11.75659
848.2492, 19.15576
848.7313, 30.67212
849.2134, 16.30127
849.6956, 1.143311
850.1777, 2.577393
850.6598, 22.28345
851.1419, 43.49414
851.6240, 65.88062
852.1061, 75.38550
852.5883, 49.02319
853.0704, 12.55908
853.5525, 11.22290
854.0346, 16.63257
854.5167, 14.12720
854.9988, 1.699463
855.4810, 14.36914
855.9631, 33.34229
856.4452, 55.52417
856.9273, 57.91113
857.4094, 38.44727
857.8915, 18.76855
858.3737, 21.73096
858.8558, 33.91455
859.3379, 36.69995
859.8200, 27.00000
860.3021, 22.63110
860.7842, 40.60889
861.2664, 56.38916
861.7485, 53.41382
862.2306, 28.39844
862.7127, 21.59375
863.1948, 35.35571
863.6769, 49.06665
864.1591, 47.51416
864.6412, 37.81543
865.1233, 38.83301
865.6054, 50.19165
866.0875, 59.10425
866.5696, 56.97168
867.0518, 50.55469
867.5339, 40.47388
868.0160, 26.48242
868.4981, 28.70093
868.9802, 58.74414
869.4623, 80.16113
869.9445, 70.75439
870.4266, 38.90698
870.9087, 24.76978
871.3908, 26.67578
871.8729, 28.58569
872.3550, 17.58643
872.8372, 4.909668
873.3193, 1.842041
873.8014, 2.331055
874.2835, 3.882080
874.7656, 25.83472
875.2477, 44.03516
875.7299, 54.31104
876.2120, 56.97119
876.6941, 49.93262
877.1762, 33.24292
877.6583, 23.66016
878.1404, 35.26514
878.6226, 51.67993
879.1047, 45.97827
879.5869, 25.00513
880.0690, 9.442139
880.5511, 11.18164
881.0332, 14.30200
881.5153, 11.73657
881.9974, 8.256592
882.4796, 17.23413
882.9617, 43.28589
883.4438, 53.54126
883.9259, 34.97363
884.4080, 7.625488
884.8901, 5.077148
885.3723, 18.61353
885.8544, 27.49072
886.3365, 18.76050
886.8186, 13.46704
887.3007, 28.30762
887.7828, 48.88086
888.2650, 53.73291
888.7471, 32.64819
889.2292, 23.96826
889.7113, 34.36768
890.1934, 49.71973
890.6755, 50.88672
891.1577, 41.83496
891.6398, 34.59888
892.1219, 31.15601
892.6040, 30.72485
893.0861, 34.48608
893.5682, 39.97266
894.0504, 45.59985
894.5325, 54.30029
895.0146, 52.96997
895.4967, 34.82031
895.9788, 19.12500
896.4609, 28.06201
896.9431, 55.94043
897.4252, 65.75659
897.9073, 55.98438
898.3894, 41.03394
898.8715, 20.33765
899.3536, 6.831299
899.8358, 16.04248
900.3179, 51.73096
900.8000, 73.88916
901.2821, 76.87183
901.7642, 70.84961
902.2463, 57.69873
902.7285, 39.06079
903.2106, 24.51294
903.6927, 14.23511
904.1748, 10.85425
904.6569, 20.20776
905.1390, 33.75977
905.6212, 43.03882
906.1033, 50.00659
906.5854, 59.08960
907.0675, 82.05347
907.5496, 93.80420
908.0317, 85.42798
908.5139, 63.41089
908.9960, 45.27612
909.4781, 31.10938
909.9602, 22.67578
910.4423, 21.72314
910.9244, 25.06128
911.4066, 30.91846
911.8887, 37.52417
912.3708, 41.67212
912.8529, 45.11694
913.3350, 42.22559
913.8171, 22.51562
914.2993, 2.391846
914.7814, 9.225586
915.2635, 46.34302
915.7456, 64.00000
916.2277, 52.44434
916.7098, 32.12939
917.1920, 24.69092
917.6741, 24.74731
918.1562, 25.79419
918.6383, 28.46729
919.1204, 24.75049
919.6025, 0.3693850
920.0847, 21.44287
920.5668, 22.96631
921.0489, 1.4648000E-02
921.5310, 12.17896
922.0131, 12.32227
922.4952, 11.37598
922.9774, 19.40186
923.4595, 31.34497
923.9416, 39.96899
924.4237, 44.89404
924.9058, 48.49438
925.3879, 53.19434
925.8701, 55.02930
926.3522, 50.15332
926.8343, 40.29102
927.3164, 40.82275
927.7985, 52.93506
928.2806, 64.73535
928.7628, 72.32104
929.2449, 74.84131
929.7270, 67.16626
930.2091, 53.25317
930.6912, 43.84766
931.1733, 47.25171
931.6555, 50.94580
932.1376, 51.37671
932.6197, 49.39502
933.1018, 46.81030
933.5839, 43.75830
934.0660, 39.39038
934.5482, 33.77173
935.0303, 26.01978
935.5124, 7.084473
935.9945, 12.66724
936.4766, 13.08008
936.9587, 18.31421
937.4409, 47.23193
937.9230, 66.92236
938.4051, 76.52515
938.8872, 73.47925
939.3693, 54.66577
939.8514, 41.01440
940.3336, 32.95215
940.8157, 28.48853
941.2978, 25.17236
941.7799, 24.82202
942.2620, 32.97827
942.7441, 49.08423
943.2263, 59.76367
943.7084, 52.95386
944.1905, 46.64771
944.6726, 51.00098
945.1547, 62.64307
945.6368, 54.75244
946.1190, 25.37793
946.6011, 10.10498
947.0832, 37.88696
947.5653, 73.94019
948.0474, 63.46167
948.5295, 25.28174
949.0117, 3.227051
949.4938, 30.96167
949.9759, 52.75195
950.4580, 56.96362
950.9401, 50.89478
951.4222, 43.21118
951.9044, 33.75342
952.3865, 31.38818
952.8686, 39.17041
953.3507, 46.34277
953.8328, 40.46802
954.3149, 27.61572
954.7971, 12.52197
955.2792, 8.731445
955.7613, 11.26221
956.2434, 26.23926
956.7255, 61.60010
957.2076, 66.38013
957.6898, 41.75464
958.1719, 27.38745
958.6540, 23.05688
959.1361, 21.50879
959.6182, 17.72925
960.1003, 14.40698
960.5825, 13.52075
961.0646, 15.18311
961.5467, 19.64429
962.0288, 30.67676
962.5109, 38.71265
962.9930, 40.67749
963.4752, 38.73755
963.9573, 37.48218
964.4394, 36.93970
964.9215, 37.14014
965.4036, 37.58032
965.8857, 39.85742
966.3679, 50.91577
966.8500, 62.21118
967.3321, 61.77832
967.8142, 32.04858
968.2963, 22.38721
968.7784, 42.29224
969.2606, 63.64941
969.7427, 50.95728
970.2248, 15.58594
970.7069, 2.053223
971.1890, 1.068115
971.6711, 15.61841
972.1533, 51.62866
972.6354, 83.52246
973.1175, 89.95898
973.5996, 70.96631
974.0817, 58.09497
974.5638, 52.50391
975.0460, 48.93213
975.5281, 44.95874
976.0102, 41.80078
976.4923, 43.71680
976.9744, 48.73486
977.4565, 51.00024
977.9387, 42.31763
978.4208, 35.69824
978.9029, 41.09009
979.3850, 48.58862
979.8671, 47.24463
980.3492, 35.18457
980.8314, 30.64526
981.3135, 34.61426
981.7956, 40.91528
982.2777, 39.57690
982.7598, 36.84692
983.2419, 44.64819
983.7241, 66.99878
984.2062, 80.09644
984.6883, 67.94971
985.1704, 53.88892
985.6525, 49.61182
986.1346, 53.42896
986.6168, 45.32056
987.0989, 25.69507
987.5810, 7.359131
988.0631, 4.007568
988.5452, 9.331055
989.0273, 9.752441
989.5095, 4.795898
989.9916, 7.862061
990.4737, 41.76709
990.9558, 59.32739
991.4379, 50.62036
991.9200, 31.53101
992.4022, 28.14307
992.8843, 36.25513
993.3664, 36.11475
993.8485, 21.71558
994.3306, 9.129150
994.8127, 7.714600
995.2949, 14.24805
995.7770, 29.83472
996.2591, 56.81030
996.7412, 72.45728
997.2233, 74.44995
997.7054, 71.12817
998.1876, 67.64795
998.6697, 62.69165
999.1518, 49.65820
999.6339, 31.60889
1000.116, 20.55518
1000.598, 30.81030
1001.080, 38.47363
1001.562, 30.82861
1002.044, 17.48828
1002.527, 16.07812
1003.009, 27.30176
1003.491, 42.61597
1003.973, 62.78149
1004.455, 75.80298
1004.937, 61.59839
1005.419, 35.40405
1005.901, 15.70020
1006.384, 5.942139
1006.866, 2.527588
1007.348, 7.688232
1007.830, 14.55200
1008.312, 19.60327
1008.794, 23.07324
1009.276, 26.71265
1009.758, 30.35254
1010.240, 32.77148
1010.723, 29.58911
1011.205, 28.60645
1011.687, 40.57104
1012.169, 57.83179
1012.651, 58.92529
1013.133, 34.63281
1013.615, 19.11670
1014.097, 19.88428
1014.580, 26.93994
1015.062, 29.76270
1015.544, 28.95801
1016.026, 24.49414
1016.508, 15.31543
1016.990, 8.947266
1017.472, 5.857422
1017.954, 9.394287
1018.436, 23.76978
1018.919, 48.74780
1019.401, 65.29761
1019.883, 72.69507
1020.365, 75.88232
1020.847, 75.31177
1021.329, 73.39355
1021.811, 73.12744
1022.293, 73.35693
1022.776, 71.08691
1023.258, 61.47656
1023.740, 57.04443
1024.222, 61.24780
1024.704, 67.26929
1025.186, 65.14380
1025.668, 56.91040
1026.150, 47.97021
1026.632, 38.57471
1027.115, 35.15259
1027.597, 51.89673
1028.079, 67.14844
1028.561, 63.89111
1029.043, 43.47192
1029.525, 26.12891
1030.007, 11.35010
1030.489, 5.978027
1030.972, 19.05713
1031.454, 36.72363
1031.936, 38.92554
1032.418, 30.99414
1032.900, 24.34546
1033.382, 21.53076
1033.864, 22.49121
1034.346, 31.51392
1034.828, 38.37817
1035.311, 26.72876
1035.793, 0.7036130
1036.275, 9.124512
1036.757, 0.3222660
1037.239, 8.010498
1037.721, 7.657959
1038.203, 20.03857
1038.685, 1.812500
1039.167, 42.43604
1039.650, 59.99609
1040.132, 43.56445
1040.614, 32.54419
1041.096, 43.83008
1041.578, 61.21924
1042.060, 55.13940
1042.542, 36.92651
1043.024, 28.75806
1043.507, 47.33960
1043.989, 55.46265
1044.471, 36.51318
1044.953, 16.72632
1045.435, 21.95215
1045.917, 48.56885
1046.399, 46.72461
1046.881, 17.33423
1047.364, 7.449707
1047.846, 0.4011230
1048.328, 13.96753
1048.810, 12.82886
1049.292, 1.344971
1049.774, 1.799805
1050.256, 18.71045
1050.738, 32.18457
1051.220, 38.81567
1051.703, 40.09302
1052.185, 41.14111
1052.667, 39.93433
1053.149, 30.70972
1053.631, 8.954346
1054.113, 4.304199
1054.595, 2.793213
1055.077, 8.536377
1055.559, 33.51123
1056.042, 67.31616
1056.524, 74.11426
1057.006, 56.79395
1057.488, 38.96021
1057.970, 32.65259
1058.452, 30.73535
1058.934, 27.51807
1059.416, 26.11963
1059.899, 34.13599
1060.381, 58.63940
1060.863, 63.92236
1061.345, 43.10522
1061.827, 20.60107
1062.309, 25.89331
1062.791, 43.47437
1063.273, 50.17261
1063.755, 44.17627
1064.238, 37.26538
1064.720, 27.03589
1065.202, 24.57764
1065.684, 37.03076
1066.166, 56.69385
1066.648, 62.36084
1067.130, 55.53027
1067.612, 42.40625
1068.094, 20.65381
1068.577, 3.413818
1069.059, 0.7309570
1069.541, 4.976563
1070.023, 8.447021
1070.505, 10.48706
1070.987, 15.83154
1071.469, 25.17407
1071.951, 31.88623
1072.434, 23.06763
1072.916, 15.23218
1073.398, 38.27783
1073.880, 80.38696
1074.362, 99.40015
1074.844, 73.22192
1075.326, 44.41406
1075.808, 13.55566
1076.291, 10.39746
1076.773, 10.60889
1077.255, 5.751221
1077.737, 18.81274
1078.219, 25.53149
1078.701, 30.99902
1079.183, 41.76904
1079.665, 46.59473
1080.147, 36.97095
1080.630, 17.41992
1081.112, 16.78760
1081.594, 34.25366
1082.076, 43.61035
1082.558, 29.58325
1083.040, 14.17212
1083.522, 21.55835
1084.004, 37.50562
1084.486, 41.65771
1084.969, 23.76416
1085.451, 18.43408
1085.933, 27.97534
1086.415, 41.48706
1086.897, 55.70557
1087.379, 65.78784
1087.861, 59.12817
1088.343, 39.56104
1088.826, 23.95142
1089.308, 17.49536
1089.790, 17.81763
1090.272, 27.38159
1090.754, 39.60645
1091.236, 45.17725
1091.718, 44.46216
1092.200, 37.43799
1092.682, 23.59009
1093.165, 11.72876
1093.647, 5.575928
1094.129, 4.575928
1094.611, 12.20874
1095.093, 26.12573
1095.575, 32.06982
1096.057, 29.43433
1096.539, 30.11060
1097.022, 37.28271
1097.504, 47.06421
1097.986, 62.51440
1098.468, 75.85986
1098.950, 72.50317
1099.432, 37.61060
1099.914, 22.12158
1100.396, 30.66919
1100.879, 44.27588
1101.361, 50.80273
1101.843, 52.31079
1102.325, 51.64551
1102.807, 49.48657
1103.289, 48.16943
1103.771, 50.53491
1104.253, 50.88770
1104.735, 46.90698
1105.218, 41.84985
1105.700, 44.06665
1106.182, 50.76733
1106.664, 50.11475
1107.146, 40.90210
1107.628, 28.30713
1108.110, 4.731201
1108.592, 10.49805
1109.074, 0.4338380
1109.557, 28.18701
1110.039, 32.29297
1110.521, 12.40723
1111.003, 0.7426760
1111.485, 2.752197
1111.967, 13.72754
1112.449, 23.32349
1112.931, 33.50122
1113.414, 49.93262
1113.896, 78.28833
1114.378, 79.79175
1114.860, 48.11816
1115.342, 17.20068
1115.824, 7.671143
1116.306, 9.148438
1116.788, 4.881836
1117.271, 1.344482
1117.753, 1.087646
1118.235, 14.77441
1118.717, 27.90381
1119.199, 36.86768
1119.681, 43.52124
1120.163, 50.43091
1120.645, 56.40161
1121.127, 56.70825
1121.609, 51.80249
1122.092, 47.49048
1122.574, 50.17676
1123.056, 49.25952
1123.538, 38.03589
1124.020, 23.84668
1124.502, 23.84082
1124.984, 35.85742
1125.466, 40.06348
1125.949, 31.74707
1126.431, 24.99438
1126.913, 33.92017
1127.395, 44.45190
1127.877, 44.54468
1128.359, 35.95776
1128.841, 34.76221
1129.323, 41.42261
1129.806, 47.84302
1130.288, 52.64526
1130.770, 52.70020
1131.252, 39.34766
1131.734, 22.40234
1132.216, 13.88257
1132.698, 18.62549
1133.180, 21.70679
1133.662, 22.97656
1134.145, 22.42505
1134.627, 22.43018
1135.109, 21.46509
1135.591, 11.58789
1136.073, 2.647949
1136.555, 9.512695
1137.037, 3.360596
1137.519, 8.893066
1138.001, 31.37378
1138.484, 51.15796
1138.966, 50.54712
1139.448, 38.09302
1139.930, 32.70361
1140.412, 35.01929
1140.894, 39.96582
1141.376, 53.98145
1141.858, 58.19751
1142.341, 41.48218
1142.823, 19.53418
1143.305, 27.70068
1143.787, 57.25928
1144.269, 65.11157
1144.751, 41.64404
1145.233, 23.89795
1145.715, 45.59546
1146.198, 65.78931
1146.680, 59.31909
1147.162, 33.15942
1147.644, 21.27759
1148.126, 22.53906
1148.608, 21.70312
1149.090, 12.45581
1149.572, 3.628418
1150.054, 0.1186520
1150.536, 1.260010
1151.019, 9.407715
1151.501, 25.04980
1151.983, 34.54248
1152.465, 38.93335
1152.947, 36.58179
1153.429, 24.34619
1153.911, 11.59619
1154.393, 9.377441
1154.876, 12.25342
1155.358, 9.368408
1155.840, 7.690918
1156.322, 4.195313
1156.804, 24.43628
1157.286, 51.94482
1157.768, 55.94019
1158.250, 47.53027
1158.733, 34.84106
1159.215, 21.36182
1159.697, 19.08179
1160.179, 39.06201
1160.661, 48.04590
1161.143, 39.04199
1161.625, 27.28882
1162.107, 35.34741
1162.589, 50.38428
1163.072, 48.63428
1163.554, 29.41479
1164.036, 12.92188
1164.518, 1.191406
1165.000, 1.696777
1165.482, 19.27783
1165.964, 47.10815
1166.446, 52.80786
1166.928, 45.67236
1167.411, 45.46509
1167.893, 58.48462
1168.375, 58.54468
1168.857, 16.27051
1169.339, 13.65161
1169.821, 5.679932
1170.303, 25.85059
1170.785, 42.93628
1171.268, 47.76782
1171.750, 47.34180
1172.232, 41.39746
1172.714, 36.74731
1173.196, 39.71362
1173.678, 40.96655
1174.160, 31.25146
1174.642, 14.34033
1175.125, 19.95190
1175.607, 44.21997
1176.089, 64.92285
1176.571, 70.72900
1177.053, 71.68433
1177.535, 69.64819
1178.017, 66.59888
1178.499, 65.55005
1178.981, 66.39624
1179.464, 56.54980
1179.946, 36.91089
1180.428, 23.78931
1180.910, 29.61987
1181.392, 42.28882
1181.874, 66.16187
1182.356, 87.22583
1182.838, 80.37134
1183.320, 44.08691
1183.803, 24.84570
1184.285, 26.52759
1184.767, 36.55811
1185.249, 56.57983
1185.731, 71.42236
1186.213, 64.81812
1186.695, 44.34546
1187.177, 31.96362
1187.660, 28.34912
1188.142, 19.57324
1188.624, 1.594727
1189.106, 6.784668
1189.588, 23.87207
1190.070, 60.41479
1190.552, 74.92285
1191.034, 68.97095
1191.516, 64.69824
1191.999, 62.89844
1192.481, 52.82886
1192.963, 28.87329
1193.445, 6.561768
1193.927, 4.815918
1194.409, 9.678467
1194.891, 6.343506
1195.373, 6.638428
1195.855, 6.844238
1196.338, 6.761963
1196.820, 16.48071
1197.302, 12.97998
1197.784, 7.322998
1198.266, 13.22388
1198.748, 23.28442
1199.230, 27.37622
1199.712, 22.75586
1200.195, 23.33325
1200.677, 29.69897
1201.159, 37.30786
1201.641, 45.31470
1202.123, 51.25977
1202.605, 50.81421
1203.087, 46.83032
1203.569, 44.18701
1204.052, 44.73682
1204.534, 40.53784
1205.016, 29.45898
1205.498, 26.29565
1205.980, 56.55811
1206.462, 87.88257
1206.944, 73.56567
1207.426, 32.87061
1207.908, 12.24951
1208.391, 27.14185
1208.873, 25.91943
1209.355, 2.318359
1209.837, 15.28247
1210.319, 8.128418
1210.801, 42.27539
1211.283, 50.52368
1211.765, 39.20703
1212.247, 33.34497
1212.730, 34.11304
1213.212, 46.73853
1213.694, 75.54785
1214.176, 94.83740
1214.658, 64.72290
1215.140, 21.47046
1215.622, 7.923340
1216.104, 20.85547
1216.587, 35.82080
1217.069, 54.52539
1217.551, 62.67847
1218.033, 56.05835
1218.515, 46.53760
1218.997, 46.54272
1219.479, 51.55005
1219.961, 58.83911
1220.443, 67.20557
1220.926, 65.89502
1221.408, 50.74976
1221.890, 42.82983
1222.372, 49.18726
1222.854, 55.99878
1223.336, 39.02368
1223.818, 18.07886
1224.300, 17.73145
1224.782, 42.00537
1225.265, 67.12183
1225.747, 96.78540
1226.229, 107.0176
1226.711, 85.64697
1227.193, 54.25757
1227.675, 35.04468
1228.157, 26.77441
1228.639, 30.89453
1229.122, 49.09692
1229.604, 58.21655
1230.086, 57.38037
1230.568, 53.12793
1231.050, 46.04590
1231.532, 40.69897
1232.014, 43.63965
1232.496, 50.66675
1232.979, 56.49902
1233.461, 60.28003
1233.943, 69.83252
1234.425, 86.94312
1234.907, 89.78418
1235.389, 57.99072
1235.871, 23.83301
1236.353, 22.28540
1236.835, 35.60718
1237.318, 41.11597
1237.800, 37.34399
1238.282, 26.57202
1238.764, 8.177979
1239.246, 1.401367
1239.728, 10.66748
1240.210, 30.79590
1240.692, 59.75708
1241.175, 82.81494
1241.657, 77.27417
1242.139, 36.40356
1242.621, 8.983154
1243.103, 3.859619
1243.585, 1.038574
1244.067, 38.67969
1244.549, 72.40137
1245.031, 59.17090
1245.514, 28.86743
1245.996, 23.76025
1246.478, 49.17749
1246.960, 67.05469
1247.442, 76.72363
1247.924, 76.39160
1248.406, 51.62964
1248.888, 31.15479
1249.370, 35.85596
1249.853, 51.57300
1250.335, 61.77539
1250.817, 66.31860
1251.299, 61.93433
1251.781, 48.90210
1252.263, 33.58154
1252.745, 8.890137
1253.227, 5.355713
1253.710, 11.77856
1254.192, 38.85156
1254.674, 53.77979
1255.156, 56.85352
1255.638, 44.76001
1256.120, 19.23730
1256.602, 1.824463
1257.084, 9.525879
1257.567, 21.71118
1258.049, 35.90063
1258.531, 45.57935
1259.013, 34.23096
1259.495, 10.77222
1259.977, 12.95703
1260.459, 40.77368
1260.941, 61.04492
1261.423, 54.84570
1261.906, 42.75610
1262.388, 25.77881
1262.870, 11.31543
1263.352, 14.32471
1263.834, 26.88428
1264.316, 28.83423
1264.798, 19.54126
1265.280, 15.63403
1265.762, 26.58789
1266.245, 35.88208
1266.727, 39.86890
1267.209, 43.02612
1267.691, 54.40234
1268.173, 67.91919
1268.655, 72.86060
1269.137, 68.29663
1269.619, 52.27441
1270.102, 15.12500
1270.584, 1.608398
1271.066, 27.32349
1271.548, 56.63721
1272.030, 36.75146
1272.512, 0.1440430
1272.994, 16.67700
1273.476, 10.02637
1273.958, 2.102051
1274.441, 6.732666
1274.923, 14.35107
1275.405, 23.46753
1275.887, 28.14551
1276.369, 14.36401
1276.851, 0.6657710
1277.333, 9.502197
1277.815, 36.48584
1278.297, 49.38184
1278.780, 47.53833
1279.262, 42.13354
1279.744, 34.63818
1280.226, 30.36499
1280.708, 35.16016
1281.190, 43.59692
1281.672, 54.85059
1282.154, 65.91187
1282.637, 63.61450
1283.119, 49.42236
1283.601, 34.96655
1284.083, 21.54541
1284.565, 11.81763
1285.047, 32.15454
1285.529, 53.47974
1286.011, 52.52368
1286.494, 37.72656
1286.976, 34.38550
1287.458, 39.06860
1287.940, 41.58325
1288.422, 39.55933
1288.904, 37.61084
1289.386, 35.63403
1289.868, 37.30762
1290.350, 47.09985
1290.833, 57.75977
1291.315, 48.07227
1291.797, 28.40479
1292.279, 20.41382
1292.761, 29.80469
1293.243, 35.97412
1293.725, 37.61523
1294.207, 32.10352
1294.689, 15.37476
1295.172, 0.2497560
1295.654, 0.0000000E+00
##END=



