##NAMES=Aschamalmite
##RRUFFID=R060690
##IDEAL CHEMISTRY=Pb^2+^_6-3x_Bi^3+^_2+x_S^2-^_9_
##LOCALITY=Ascham Alp, Untersulzbach Valley, Salzburg, Austria
##OWNER=RRUFF
##SOURCE=Michael Scott
##DESCRIPTION=Lead gray metallic prismatic crystals in veins in quartz
##STATUS=The identification of this mineral is not yet confirmed.
##URL=rruff.info/R060690
140.812, 0.000
141.294, 11.234
141.776, 22.426
142.258, 31.466
142.740, 39.317
143.223, 46.981
143.705, 54.838
144.187, 63.468
144.669, 75.856
145.151, 95.974
145.633, 115.007
146.115, 128.392
146.598, 139.903
147.080, 157.426
147.562, 186.247
148.044, 223.346
148.526, 249.312
149.008, 257.058
149.490, 264.035
149.972, 277.052
150.454, 293.503
150.936, 306.826
151.419, 312.800
151.901, 312.161
152.383, 311.315
152.865, 310.717
153.347, 309.548
153.829, 309.668
154.311, 309.563
154.794, 303.355
155.276, 285.134
155.758, 257.146
156.240, 239.162
156.722, 235.998
157.204, 237.467
157.686, 238.855
158.168, 240.100
158.650, 242.773
159.133, 249.660
159.615, 259.170
160.097, 259.873
160.579, 239.112
161.061, 219.545
161.543, 220.038
162.025, 239.521
162.507, 259.183
162.990, 265.548
163.472, 259.577
163.954, 254.803
164.436, 250.884
164.918, 248.777
165.400, 250.475
165.882, 255.984
166.364, 260.474
166.846, 256.859
167.329, 248.751
167.811, 252.537
168.293, 279.375
168.775, 313.026
169.257, 341.164
169.739, 363.442
170.221, 375.960
170.703, 371.959
171.185, 354.853
171.668, 336.946
172.150, 313.924
172.632, 294.295
173.114, 290.904
173.596, 306.135
174.078, 321.829
174.560, 323.043
175.042, 313.868
175.525, 305.302
176.007, 298.077
176.489, 293.269
176.971, 292.953
177.453, 297.736
177.935, 304.020
178.417, 310.747
178.899, 317.125
179.381, 320.618
179.863, 319.743
180.346, 315.958
180.828, 309.989
181.310, 300.899
181.792, 293.832
182.274, 292.463
182.756, 295.851
183.238, 303.513
183.721, 320.391
184.203, 339.587
184.685, 350.719
185.167, 352.551
185.649, 350.185
186.131, 342.602
186.613, 333.305
187.095, 329.389
187.577, 338.929
188.059, 353.091
188.542, 356.268
189.024, 345.435
189.506, 334.647
189.988, 336.621
190.470, 344.910
190.952, 348.359
191.434, 338.630
191.917, 324.107
192.399, 319.851
192.881, 329.133
193.363, 336.728
193.845, 325.701
194.327, 307.132
194.809, 299.714
195.291, 318.352
195.773, 346.748
196.255, 357.410
196.738, 346.138
197.220, 333.801
197.702, 333.297
198.184, 339.843
198.666, 347.216
199.148, 354.488
199.630, 361.507
200.112, 368.389
200.595, 375.499
201.077, 380.955
201.559, 382.821
202.041, 382.446
202.523, 381.217
203.005, 378.949
203.487, 376.484
203.969, 374.659
204.452, 373.322
204.934, 373.462
205.416, 378.104
205.898, 383.921
206.380, 386.174
206.862, 382.277
207.344, 375.987
207.826, 372.188
208.308, 371.268
208.790, 369.696
209.273, 363.247
209.755, 356.029
210.237, 353.574
210.719, 357.957
211.201, 365.990
211.683, 377.394
212.165, 392.950
212.648, 400.279
213.130, 385.570
213.612, 363.047
214.094, 351.206
214.576, 354.989
215.058, 365.408
215.540, 376.480
216.022, 388.223
216.504, 395.615
216.986, 394.480
217.469, 388.955
217.951, 384.301
218.433, 380.758
218.915, 378.667
219.397, 377.345
219.879, 377.017
220.361, 381.715
220.844, 397.656
221.326, 415.566
221.808, 422.153
222.290, 413.943
222.772, 405.733
223.254, 407.801
223.736, 418.964
224.218, 433.704
224.700, 455.359
225.182, 474.060
225.665, 474.345
226.147, 452.215
226.629, 434.815
227.111, 444.536
227.593, 472.715
228.075, 487.750
228.557, 476.506
229.039, 456.884
229.522, 452.923
230.004, 465.417
230.486, 476.182
230.968, 475.950
231.450, 468.270
231.932, 459.555
232.414, 448.805
232.896, 442.873
233.378, 454.391
233.861, 482.288
234.343, 505.234
234.825, 512.839
235.307, 512.350
235.789, 517.197
236.271, 531.238
236.753, 542.578
237.235, 532.780
237.717, 504.011
238.200, 486.973
238.682, 498.120
239.164, 518.862
239.646, 525.036
240.128, 513.315
240.610, 502.060
241.092, 510.477
241.574, 537.120
242.057, 552.930
242.539, 547.756
243.021, 536.368
243.503, 530.320
243.985, 530.128
244.467, 531.866
244.949, 533.213
245.431, 534.054
245.913, 533.975
246.396, 531.917
246.878, 529.900
247.360, 528.704
247.842, 528.480
248.324, 529.716
248.806, 532.832
249.288, 537.665
249.770, 543.021
250.253, 552.901
250.735, 559.070
251.217, 556.619
251.699, 548.057
252.181, 539.071
252.663, 532.605
253.145, 527.539
253.627, 519.822
254.109, 502.507
254.592, 491.191
255.074, 492.662
255.556, 500.889
256.038, 507.451
256.520, 509.069
257.002, 507.740
257.484, 507.871
257.966, 517.322
258.449, 516.265
258.931, 492.111
259.413, 463.215
259.895, 450.365
260.377, 458.303
260.859, 472.258
261.341, 469.852
261.823, 439.161
262.306, 418.399
262.788, 411.783
263.270, 410.746
263.752, 409.151
264.234, 406.565
264.716, 407.273
265.198, 417.589
265.680, 442.514
266.162, 452.968
266.645, 435.787
267.127, 418.342
267.609, 412.757
268.091, 417.789
268.573, 426.591
269.055, 434.726
269.537, 442.146
270.019, 441.834
270.501, 417.826
270.984, 401.876
271.466, 407.181
271.948, 425.105
272.430, 439.718
272.912, 440.736
273.394, 432.802
273.876, 436.267
274.358, 465.865
274.841, 483.921
275.323, 474.245
275.805, 453.352
276.287, 438.788
276.769, 437.865
277.251, 445.923
277.733, 455.882
278.215, 470.177
278.698, 479.098
279.180, 477.169
279.662, 471.355
280.144, 465.798
280.626, 461.463
281.108, 458.800
281.590, 460.106
282.072, 465.981
282.554, 466.170
283.036, 454.164
283.519, 440.130
284.001, 430.591
284.483, 425.708
284.965, 422.831
285.447, 423.825
285.929, 426.319
286.411, 417.302
286.893, 388.828
287.376, 360.592
287.858, 349.454
288.340, 351.015
288.822, 351.086
289.304, 342.031
289.786, 328.858
290.268, 320.721
290.750, 319.208
291.233, 315.179
291.715, 299.627
292.197, 277.003
292.679, 258.863
293.161, 248.391
293.643, 241.753
294.125, 237.581
294.607, 235.384
295.089, 231.112
295.572, 221.529
296.054, 209.319
296.536, 202.056
297.018, 201.425
297.500, 202.306
297.982, 206.410
298.464, 210.179
298.946, 204.405
299.428, 184.390
299.911, 169.886
300.393, 183.241
300.875, 189.836
301.357, 190.031
301.839, 164.664
302.321, 172.314
302.803, 166.821
303.285, 160.752
303.767, 173.050
304.250, 151.405
304.732, 163.408
305.214, 161.981
305.696, 166.703
306.178, 158.114
306.660, 153.637
307.142, 162.476
307.625, 164.022
308.107, 153.980
308.589, 145.182
309.071, 132.588
309.553, 144.417
310.035, 152.456
310.517, 146.984
310.999, 135.810
311.481, 131.187
311.964, 139.405
312.446, 153.518
312.928, 155.877
313.410, 139.302
313.892, 124.994
314.374, 115.687
314.856, 109.566
315.338, 107.248
315.820, 108.312
316.303, 107.549
316.785, 95.323
317.267, 69.087
317.749, 55.116
318.231, 68.458
318.713, 82.903
319.195, 82.073
319.677, 68.178
320.159, 54.496
320.642, 50.956
321.124, 54.577
321.606, 55.207
322.088, 52.080
322.570, 47.266
323.052, 38.871
323.534, 29.918
324.016, 26.742
324.499, 35.022
324.981, 46.276
325.463, 51.506
325.945, 50.898
326.427, 48.219
326.909, 45.385
327.391, 41.019
327.873, 31.693
328.355, 12.647
328.838, 1.246
329.320, 0.064
329.802, 10.509
330.284, 19.815
330.766, 24.925
331.248, 27.080
331.730, 27.935
332.212, 27.738
332.694, 25.437
333.177, 17.367
333.659, 9.606
334.141, 9.145
334.623, 15.341
335.105, 19.972
335.587, 15.426
336.069, 1.196
336.552, 9.047
337.034, 13.530
337.516, 16.557
337.998, 20.669
338.480, 24.077
338.962, 22.606
339.444, 13.656
339.926, 0.850
340.408, 4.781
340.891, 0.301
341.373, 7.009
341.855, 17.879
342.337, 27.613
342.819, 31.179
343.301, 27.748
343.783, 21.462
344.265, 16.969
344.747, 14.499
345.230, 11.743
345.712, 7.442
346.194, 4.055
346.676, 4.614
347.158, 7.492
347.640, 7.429
348.122, 2.072
348.604, 16.000
349.086, 20.468
349.569, 12.992
350.051, 4.727
350.533, 0.225
351.015, 0.734
351.497, 2.491
351.979, 12.691
352.461, 22.719
352.944, 27.886
353.426, 28.349
353.908, 23.346
354.390, 10.068
354.872, 4.554
355.354, 6.545
355.836, 6.674
356.318, 16.352
356.800, 12.760
357.283, 6.354
357.765, 12.883
358.247, 33.235
358.729, 48.505
359.211, 38.484
359.693, 0.077
360.175, 20.454
360.657, 12.109
361.139, 0.393
361.622, 9.101
362.104, 14.620
362.586, 20.902
363.068, 30.496
363.550, 39.586
364.032, 35.557
364.514, 3.273
364.996, 17.571
365.478, 16.758
365.961, 9.104
366.443, 5.547
366.925, 8.473
367.407, 14.258
367.889, 20.772
368.371, 28.511
368.853, 28.577
369.335, 15.473
369.818, 0.543
370.300, 11.439
370.782, 20.659
371.264, 27.940
371.746, 35.361
372.228, 39.886
372.710, 33.832
373.192, 15.611
373.674, 0.194
374.157, 6.187
374.639, 4.942
375.121, 1.840
375.603, 17.922
376.085, 29.576
376.567, 24.228
377.049, 10.142
377.531, 5.411
378.013, 15.099
378.496, 30.186
378.978, 41.722
379.460, 50.098
379.942, 48.999
380.424, 25.887
380.906, 3.686
381.388, 1.604
381.871, 14.618
382.353, 22.583
382.835, 11.272
383.317, 14.157
383.799, 26.154
384.281, 9.254
384.763, 2.507
385.245, 2.520
385.727, 2.135
386.210, 4.157
386.692, 1.718
387.174, 1.366
387.656, 1.817
388.138, 13.660
388.620, 16.092
389.102, 1.687
389.584, 18.865
390.066, 24.918
390.549, 22.328
391.031, 18.772
391.513, 18.750
391.995, 19.976
392.477, 17.530
392.959, 10.866
393.441, 4.414
393.923, 1.438
394.405, 4.887
394.888, 2.026
395.370, 10.986
395.852, 19.815
396.334, 11.431
396.816, 5.151
397.298, 11.317
397.780, 2.387
398.262, 10.762
398.745, 16.341
399.227, 12.606
399.709, 11.706
400.191, 13.983
400.673, 18.639
401.155, 26.587
401.637, 36.611
402.119, 46.689
402.602, 55.847
403.084, 63.316
403.566, 66.472
404.048, 63.495
404.530, 58.864
405.012, 50.224
405.494, 41.991
405.976, 39.424
406.458, 42.173
406.940, 43.576
407.423, 32.259
407.905, 9.441
408.387, 6.016
408.869, 35.899
409.351, 62.362
409.833, 62.948
410.315, 48.306
410.797, 36.388
411.280, 33.734
411.762, 34.085
412.244, 29.727
412.726, 21.759
413.208, 19.355
413.690, 27.880
414.172, 39.681
414.654, 41.373
415.137, 31.478
415.619, 24.288
416.101, 24.755
416.583, 27.554
417.065, 28.267
417.547, 26.499
418.029, 23.268
418.511, 19.300
418.993, 14.777
419.476, 11.163
419.958, 10.999
420.440, 8.649
420.922, 0.664
421.404, 10.587
421.886, 12.880
422.368, 5.754
422.850, 3.360
423.332, 2.066
423.815, 12.493
424.297, 12.816
424.779, 14.924
425.261, 42.341
425.743, 56.681
426.225, 60.055
426.707, 57.846
427.189, 50.702
427.672, 40.993
428.154, 31.402
428.636, 21.904
429.118, 13.259
429.600, 5.267
430.082, 1.163
430.564, 3.850
431.046, 1.705
431.529, 1.372
432.011, 7.979
432.493, 15.333
432.975, 14.907
433.457, 6.986
433.939, 0.771
434.421, 4.341
434.903, 16.546
435.385, 21.469
435.867, 18.364
436.350, 8.690
436.832, 10.179
437.314, 34.184
437.796, 63.939
438.278, 97.967
438.760, 124.035
439.242, 121.800
439.724, 87.728
440.207, 61.041
440.689, 42.596
441.171, 32.983
441.653, 37.707
442.135, 50.480
442.617, 56.477
443.099, 45.340
443.581, 30.398
444.064, 28.618
444.546, 38.789
445.028, 48.896
445.510, 55.267
445.992, 58.725
446.474, 60.594
446.956, 61.453
447.438, 59.171
447.920, 49.564
448.403, 39.451
448.885, 34.706
449.367, 35.190
449.849, 37.794
450.331, 40.495
450.813, 43.469
451.295, 47.737
451.777, 55.225
452.259, 61.278
452.742, 68.573
453.224, 72.403
453.706, 66.100
454.188, 49.901
454.670, 33.865
455.152, 28.028
455.634, 31.536
456.116, 36.517
456.599, 44.872
457.081, 50.552
457.563, 45.842
458.045, 37.253
458.527, 35.896
459.009, 48.721
459.491, 59.635
459.973, 56.776
460.456, 43.723
460.938, 26.367
461.420, 5.343
461.902, 10.689
462.384, 9.755
462.866, 12.083
463.348, 25.449
463.830, 25.044
464.312, 22.279
464.795, 19.393
465.277, 18.259
465.759, 23.103
466.241, 36.059
466.723, 50.486
467.205, 51.829
467.687, 34.373
468.169, 24.066
468.651, 31.623
469.134, 39.469
469.616, 36.523
470.098, 25.592
470.580, 17.909
471.062, 22.026
471.544, 30.454
472.026, 30.309
472.508, 21.924
472.991, 17.769
473.473, 24.416
473.955, 36.118
474.437, 41.475
474.919, 38.515
475.401, 38.672
475.883, 50.375
476.365, 61.414
476.848, 58.678
477.330, 44.197
477.812, 30.876
478.294, 27.800
478.776, 32.535
479.258, 33.769
479.740, 27.462
480.222, 24.471
480.704, 30.247
481.186, 36.492
481.669, 34.971
482.151, 25.917
482.633, 18.291
483.115, 18.826
483.597, 26.336
484.079, 39.670
484.561, 61.591
485.043, 75.359
485.526, 66.044
486.008, 45.004
486.490, 38.207
486.972, 53.293
487.454, 65.457
487.936, 63.537
488.418, 54.113
488.900, 42.973
489.383, 32.029
489.865, 26.584
490.347, 32.401
490.829, 48.430
491.311, 56.268
491.793, 49.720
492.275, 42.055
492.757, 29.531
493.239, 19.716
493.722, 22.364
494.204, 38.906
494.686, 58.271
495.168, 71.299
495.650, 78.052
496.132, 77.643
496.614, 67.531
497.096, 57.060
497.578, 51.301
498.061, 49.283
498.543, 49.545
499.025, 54.768
499.507, 57.254
499.989, 49.877
500.471, 38.519
500.953, 32.531
501.435, 33.740
501.918, 38.559
502.400, 44.194
502.882, 50.733
503.364, 53.014
503.846, 45.126
504.328, 39.769
504.810, 40.229
505.292, 44.045
505.775, 49.893
506.257, 57.079
506.739, 61.639
507.221, 57.682
507.703, 46.509
508.185, 38.398
508.667, 34.786
509.149, 31.929
509.631, 27.047
510.113, 21.392
510.596, 17.778
511.078, 17.147
511.560, 17.157
512.042, 16.107
512.524, 15.243
513.006, 16.642
513.488, 20.595
513.971, 26.017
514.453, 32.394
514.935, 39.717
515.417, 42.036
515.899, 31.446
516.381, 25.510
516.863, 30.298
517.345, 39.675
517.827, 49.004
518.310, 56.716
518.792, 59.454
519.274, 49.424
519.756, 30.861
520.238, 22.453
520.720, 26.414
521.202, 36.210
521.684, 52.732
522.166, 71.040
522.649, 77.267
523.131, 64.402
523.613, 52.067
524.095, 45.716
524.577, 43.683
525.059, 46.491
525.541, 52.802
526.023, 56.196
526.505, 50.638
526.988, 37.468
527.470, 27.217
527.952, 17.866
528.434, 15.320
528.916, 29.701
529.398, 44.612
529.880, 42.227
530.362, 21.903
530.844, 5.223
531.327, 11.923
531.809, 30.584
532.291, 36.808
532.773, 29.667
533.255, 22.864
533.737, 23.190
534.219, 28.445
534.701, 33.991
535.184, 43.668
535.666, 45.515
536.148, 29.950
536.630, 12.754
537.112, 5.053
537.594, 6.692
538.076, 13.520
538.558, 23.874
539.041, 34.803
539.523, 37.449
540.005, 29.256
540.487, 22.651
540.969, 21.565
541.451, 21.252
541.933, 17.035
542.415, 9.820
542.898, 5.355
543.380, 7.048
543.862, 11.277
544.344, 16.006
544.826, 20.653
545.308, 24.895
545.790, 29.163
546.272, 27.938
546.754, 10.377
547.237, 33.962
547.719, 54.707
548.201, 32.261
548.683, 9.789
549.165, 3.852
549.647, 7.903
550.129, 10.512
550.611, 7.397
551.093, 2.722
551.576, 3.472
552.058, 8.037
552.540, 2.879
553.022, 17.250
553.504, 35.073
553.986, 35.655
554.468, 23.079
554.950, 18.546
555.432, 33.584
555.915, 41.809
556.397, 23.800
556.879, 0.916
557.361, 0.588
557.843, 24.530
558.325, 52.462
558.807, 68.027
559.289, 71.692
559.771, 64.006
560.254, 34.831
560.736, 16.740
561.218, 32.630
561.700, 54.161
562.182, 53.791
562.664, 30.917
563.146, 19.633
563.628, 55.594
564.111, 99.264
564.593, 97.347
565.075, 56.673
565.557, 19.795
566.039, 5.735
566.521, 4.869
567.003, 1.466
567.485, 20.143
567.968, 25.886
568.450, 5.534
568.932, 12.652
569.414, 11.578
569.896, 0.535
570.378, 2.662
570.860, 9.766
571.342, 29.267
571.825, 49.406
572.307, 68.743
572.789, 78.566
573.271, 76.192
573.753, 69.642
574.235, 64.217
574.717, 59.757
575.199, 55.084
575.681, 50.354
576.164, 45.348
576.646, 39.026
577.128, 33.031
577.610, 27.898
578.092, 24.423
578.574, 25.177
579.056, 33.586
579.538, 46.742
580.020, 53.289
580.503, 51.943
580.985, 49.021
581.467, 46.582
581.949, 42.870
582.431, 33.052
582.913, 17.637
583.395, 11.962
583.877, 31.681
584.359, 52.514
584.842, 54.805
585.324, 43.691
585.806, 30.893
586.288, 20.893
586.770, 15.559
587.252, 19.041
587.734, 33.366
588.216, 41.390
588.698, 41.569
589.181, 37.048
589.663, 24.595
590.145, 10.419
590.627, 3.426
591.109, 6.403
591.591, 9.035
592.073, 0.024
592.555, 11.912
593.038, 9.896
593.520, 6.112
594.002, 22.715
594.484, 32.684
594.966, 36.318
595.448, 33.933
595.930, 19.272
596.412, 9.505
596.894, 6.706
597.377, 6.280
597.859, 7.079
598.341, 8.147
598.823, 7.868
599.305, 5.266
599.787, 1.851
600.269, 1.889
600.752, 5.185
601.234, 3.501
601.716, 4.816
602.198, 12.317
602.680, 11.136
603.162, 3.002
603.644, 4.968
604.126, 31.291
604.608, 47.918
605.091, 41.848
605.573, 29.524
606.055, 24.058
606.537, 26.816
607.019, 33.315
607.501, 42.186
607.983, 50.801
608.465, 52.668
608.947, 47.693
609.430, 41.836
609.912, 35.400
610.394, 31.305
610.876, 34.404
611.358, 45.110
611.840, 50.172
612.322, 45.293
612.804, 39.299
613.286, 36.632
613.769, 34.246
614.251, 24.622
614.733, 8.058
615.215, 1.923
615.697, 14.255
616.179, 47.730
616.661, 49.912
617.143, 12.289
617.625, 13.945
618.108, 5.087
618.590, 19.116
619.072, 30.905
619.554, 29.559
620.036, 29.865
620.518, 37.139
621.000, 43.859
621.482, 46.255
621.965, 44.595
622.447, 38.514
622.929, 28.272
623.411, 18.194
623.893, 15.605
624.375, 19.995
624.857, 14.149
625.339, 7.170
625.821, 24.794
626.304, 30.700
626.786, 27.471
627.268, 17.552
627.750, 1.471
628.232, 13.821
628.714, 8.257
629.196, 0.707
629.679, 7.622
630.161, 22.458
630.643, 25.981
631.125, 10.164
631.607, 10.860
632.089, 13.764
632.571, 2.844
633.053, 11.981
633.535, 8.889
634.018, 7.461
634.500, 20.686
634.982, 37.413
635.464, 37.442
635.946, 12.769
636.428, 2.680
636.910, 12.663
637.392, 33.659
637.875, 37.182
638.357, 26.503
638.839, 15.656
639.321, 11.384
639.803, 10.871
640.285, 9.242
640.767, 6.241
641.249, 4.844
641.731, 5.124
642.214, 7.120
642.696, 12.647
643.178, 19.334
643.660, 22.912
644.142, 22.080
644.624, 21.249
645.106, 24.338
645.588, 26.229
646.070, 19.664
646.553, 7.513
647.035, 0.990
647.517, 1.120
647.999, 4.324
648.481, 12.017
648.963, 22.512
649.445, 28.103
649.927, 26.233
650.409, 23.730
650.892, 25.909
651.374, 29.793
651.856, 28.055
652.338, 15.193
652.820, 10.700
653.302, 5.461
653.784, 17.887
654.266, 31.645
654.748, 36.326
655.231, 4.751
655.713, 19.993
656.195, 16.472
656.677, 12.181
657.159, 34.012
657.641, 7.708
658.123, 29.115
658.606, 31.459
659.088, 42.528
659.570, 34.782
660.052, 32.351
660.534, 18.156
661.016, 11.851
661.498, 20.337
661.980, 32.902
662.462, 44.472
662.945, 53.215
663.427, 57.103
663.909, 55.323
664.391, 48.419
664.873, 33.150
665.355, 11.465
665.837, 4.279
666.319, 16.042
666.802, 27.360
667.284, 26.965
667.766, 19.815
668.248, 17.846
668.730, 24.361
669.212, 26.542
669.694, 17.322
670.176, 9.447
670.658, 12.418
671.141, 21.385
671.623, 28.145
672.105, 29.760
672.587, 26.217
673.069, 12.602
673.551, 6.147
674.033, 12.288
674.515, 4.725
674.997, 9.271
675.480, 29.366
675.962, 48.145
676.444, 50.630
676.926, 29.169
677.408, 15.095
677.890, 9.511
678.372, 9.416
678.854, 19.800
679.336, 32.220
679.819, 33.110
680.301, 19.773
680.783, 9.633
681.265, 20.895
681.747, 41.328
682.229, 51.527
682.711, 51.476
683.193, 44.197
683.675, 30.072
684.158, 14.864
684.640, 6.644
685.122, 6.047
685.604, 7.115
686.086, 10.381
686.568, 14.441
687.050, 19.744
687.532, 25.105
688.015, 30.502
688.497, 35.574
688.979, 36.494
689.461, 27.422
689.943, 16.914
690.425, 12.259
690.907, 12.293
691.389, 13.780
691.872, 16.007
692.354, 22.429
692.836, 39.190
693.318, 62.706
693.800, 65.407
694.282, 40.053
694.764, 15.445
695.246, 7.593
695.729, 21.064
696.211, 11.387
696.693, 16.641
697.175, 33.886
697.657, 27.614
698.139, 19.532
698.621, 19.770
699.103, 22.244
699.585, 17.181
700.068, 6.083
700.550, 1.402
701.032, 12.965
701.514, 32.186
701.996, 42.775
702.478, 44.811
702.960, 39.820
703.442, 24.583
703.924, 16.033
704.407, 31.270
704.889, 62.611
705.371, 76.106
705.853, 58.531
706.335, 43.191
706.817, 27.377
707.299, 17.768
707.781, 23.539
708.263, 37.850
708.746, 46.425
709.228, 43.725
709.710, 36.344
710.192, 26.352
710.674, 17.233
711.156, 19.039
711.638, 30.787
712.120, 37.516
712.602, 30.951
713.085, 18.594
713.567, 14.280
714.049, 19.457
714.531, 26.357
715.013, 42.626
715.495, 49.208
715.977, 29.115
716.459, 1.602
716.942, 11.274
717.424, 7.013
717.906, 1.064
718.388, 10.844
718.870, 20.365
719.352, 32.495
719.834, 41.989
720.316, 34.177
720.799, 8.213
721.281, 11.822
721.763, 0.760
722.245, 35.733
722.727, 54.128
723.209, 54.623
723.691, 55.442
724.173, 62.522
724.656, 68.302
725.138, 65.008
725.620, 53.073
726.102, 40.552
726.584, 21.517
727.066, 10.126
727.548, 11.524
728.030, 18.902
728.512, 30.855
728.995, 43.987
729.477, 51.075
729.959, 47.854
730.441, 40.402
730.923, 30.365
731.405, 21.560
731.887, 25.889
732.369, 42.370
732.851, 51.805
733.334, 42.147
733.816, 23.879
734.298, 21.052
734.780, 39.833
735.262, 43.664
735.744, 19.580
736.226, 2.069
736.708, 14.570
737.190, 38.715
737.673, 48.631
738.155, 41.032
738.637, 35.995
739.119, 39.656
739.601, 45.549
740.083, 53.542
740.565, 59.725
741.047, 57.268
741.529, 45.665
742.012, 32.697
742.494, 24.250
742.976, 19.417
743.458, 17.044
743.940, 16.822
744.422, 16.209
744.904, 14.703
745.386, 11.211
745.869, 3.184
746.351, 7.467
746.833, 6.174
747.315, 18.706
747.797, 34.417
748.279, 32.062
748.761, 25.677
749.243, 18.473
749.726, 13.590
750.208, 19.150
750.690, 43.046
751.172, 59.836
751.654, 53.835
752.136, 37.243
752.618, 16.157
753.100, 4.040
753.583, 10.990
754.065, 0.289
754.547, 16.665
755.029, 21.971
755.511, 17.478
755.993, 8.755
756.475, 4.789
756.957, 16.048
757.439, 25.331
757.922, 23.562
758.404, 6.162
758.886, 67.503
759.368, 99.843
759.850, 82.685
760.332, 62.294
760.814, 39.390
761.296, 20.361
761.778, 10.639
762.261, 9.345
762.743, 11.371
763.225, 16.372
763.707, 21.631
764.189, 27.261
764.671, 31.010
765.153, 28.235
765.635, 20.158
766.117, 11.684
766.600, 5.152
767.082, 4.115
767.564, 18.012
768.046, 45.201
768.528, 65.799
769.010, 79.732
769.492, 79.971
769.974, 57.895
770.456, 29.225
770.939, 19.741
771.421, 33.647
771.903, 43.288
772.385, 51.687
772.867, 52.053
773.349, 29.992
773.831, 8.509
774.313, 13.484
774.796, 41.833
775.278, 63.435
775.760, 63.644
776.242, 56.924
776.724, 49.133
777.206, 42.731
777.688, 44.849
778.170, 52.949
778.653, 51.974
779.135, 31.600
779.617, 7.609
780.099, 11.383
780.581, 38.892
781.063, 50.320
781.545, 41.313
782.027, 30.028
782.510, 23.484
782.992, 23.117
783.474, 34.324
783.956, 63.845
784.438, 69.138
784.920, 20.131
785.402, 14.045
785.884, 9.523
786.366, 10.072
786.849, 26.761
787.331, 38.623
787.813, 45.856
788.295, 49.019
788.777, 46.939
789.259, 34.318
789.741, 19.030
790.223, 10.108
790.705, 7.764
791.188, 7.621
791.670, 7.136
792.152, 9.462
792.634, 24.100
793.116, 45.353
793.598, 49.044
794.080, 34.046
794.562, 16.990
795.044, 4.098
795.527, 1.555
796.009, 6.824
796.491, 30.998
796.973, 41.604
797.455, 33.949
797.937, 21.671
798.419, 0.510
798.901, 16.981
799.383, 17.599
799.866, 3.981
800.348, 8.136
800.830, 20.372
801.312, 25.951
801.794, 15.868
802.276, 4.368
802.758, 5.415
803.240, 14.514
803.723, 17.560
804.205, 8.303
804.687, 0.840
805.169, 13.531
805.651, 32.724
806.133, 33.847
806.615, 20.501
807.097, 9.781
807.580, 7.682
808.062, 13.190
808.544, 27.212
809.026, 47.028
809.508, 57.826
809.990, 58.994
810.472, 54.936
810.954, 44.898
811.437, 33.442
811.919, 21.920
812.401, 12.500
812.883, 14.854
813.365, 44.306
813.847, 59.186
814.329, 49.685
814.811, 36.781
815.293, 24.547
815.776, 17.214
816.258, 24.100
816.740, 47.271
817.222, 61.214
817.704, 46.652
818.186, 28.558
818.668, 23.804
819.150, 27.193
819.632, 32.238
820.115, 36.611
820.597, 38.034
821.079, 34.908
821.561, 28.158
822.043, 15.737
822.525, 0.914
823.007, 3.590
823.489, 3.093
823.972, 11.079
824.454, 14.979
824.936, 17.993
825.418, 26.242
825.900, 40.303
826.382, 52.472
826.864, 65.342
827.346, 67.828
827.828, 51.450
828.311, 29.517
828.793, 15.487
829.275, 9.273
829.757, 5.740
830.239, 1.004
830.721, 3.176
831.203, 37.196
831.685, 66.429
832.167, 62.039
832.650, 37.105
833.132, 20.417
833.614, 19.395
834.096, 24.693
834.578, 41.101
835.060, 53.185
835.542, 43.148
836.024, 20.197
836.507, 1.051
836.989, 15.485
837.471, 19.209
837.953, 5.408
838.435, 15.753
838.917, 26.841
839.399, 30.034
839.881, 31.813
840.364, 33.599
840.846, 41.732
841.328, 61.560
841.810, 83.507
842.292, 87.769
842.774, 73.130
843.256, 52.563
843.738, 21.074
844.221, 2.703
844.703, 10.809
845.185, 29.172
845.667, 39.626
846.149, 42.082
846.631, 43.411
847.113, 45.509
847.595, 43.681
848.077, 30.800
848.560, 20.315
849.042, 21.764
849.524, 31.682
850.006, 42.999
850.488, 56.297
850.970, 63.495
851.452, 61.127
851.934, 52.269
852.416, 30.034
852.899, 6.944
853.381, 4.988
853.863, 25.178
854.345, 43.922
854.827, 43.441
855.309, 38.025
855.791, 48.563
856.273, 64.980
856.755, 64.408
857.238, 46.987
857.720, 28.790
858.202, 18.139
858.684, 14.277
859.166, 18.730
859.648, 29.685
860.130, 33.139
860.612, 28.599
861.094, 32.633
861.577, 53.366
862.059, 68.651
862.541, 52.992
863.023, 13.485
863.505, 3.475
863.987, 10.441
864.469, 22.202
864.951, 29.584
865.434, 32.757
865.916, 27.915
866.398, 20.695
866.880, 24.113
867.362, 42.645
867.844, 51.410
868.326, 41.537
868.808, 31.760
869.291, 29.577
869.773, 28.537
870.255, 20.143
870.737, 6.741
871.219, 0.596
871.701, 9.993
872.183, 17.736
872.665, 11.330
873.148, 3.537
873.630, 8.097
874.112, 19.666
874.594, 25.724
875.076, 22.822
875.558, 18.287
876.040, 16.597
876.522, 17.494
877.004, 22.774
877.487, 29.864
877.969, 31.602
878.451, 27.940
878.933, 26.543
879.415, 32.465
879.897, 40.806
880.379, 44.247
880.861, 42.958
881.343, 34.433
881.826, 19.082
882.308, 16.898
882.790, 36.914
883.272, 58.917
883.754, 60.282
884.236, 44.183
884.718, 28.641
885.200, 11.350
885.682, 7.560
886.165, 25.369
886.647, 42.228
887.129, 44.627
887.611, 37.439
888.093, 29.641
888.575, 19.033
889.057, 17.358
889.539, 33.688
890.021, 46.425
890.504, 43.390
890.986, 40.891
891.468, 60.183
891.950, 93.261
892.432, 103.264
892.914, 69.247
893.396, 42.196
893.878, 32.998
894.361, 33.483
894.843, 47.401
895.325, 63.665
895.807, 64.750
896.289, 48.610
896.771, 34.667
897.253, 34.445
897.735, 36.604
898.218, 33.180
898.700, 28.319
899.182, 26.865
899.664, 28.719
900.146, 32.209
900.628, 36.839
901.110, 39.549
901.592, 36.323
902.075, 30.177
902.557, 24.384
903.039, 19.644
903.521, 17.185
904.003, 17.331
904.485, 20.366
904.967, 27.299
905.449, 34.559
905.931, 33.756
906.414, 27.417
906.896, 28.838
907.378, 38.043
907.860, 39.280
908.342, 25.626
908.824, 9.365
909.306, 5.333
909.788, 11.751
910.270, 19.699
910.753, 29.775
911.235, 33.110
911.717, 27.081
912.199, 20.114
912.681, 18.393
913.163, 17.115
913.645, 3.849
914.127, 26.199
914.609, 32.764
915.092, 3.865
915.574, 19.741
916.056, 26.568
916.538, 25.745
917.020, 22.794
917.502, 18.830
917.984, 19.201
918.466, 27.370
918.948, 33.540
919.431, 37.032
919.913, 39.386
920.395, 39.815
920.877, 40.154
921.359, 40.624
921.841, 41.735
922.323, 50.949
922.805, 83.676
923.288, 104.404
923.770, 101.604
924.252, 87.725
924.734, 61.767
925.216, 34.260
925.698, 22.686
926.180, 30.845
926.662, 45.254
927.144, 73.245
927.627, 91.330
928.109, 79.491
928.591, 56.310
929.073, 38.241
929.555, 28.149
930.037, 27.320
930.519, 38.081
931.002, 46.482
931.484, 37.131
931.966, 26.209
932.448, 34.852
932.930, 51.341
933.412, 52.325
933.894, 36.383
934.376, 20.898
934.858, 14.813
935.341, 17.208
935.823, 30.387
936.305, 49.395
936.787, 71.793
937.269, 92.335
937.751, 96.118
938.233, 79.495
938.715, 54.676
939.197, 28.404
939.680, 6.786
940.162, 3.975
940.644, 14.680
941.126, 23.871
941.608, 29.564
942.090, 32.011
942.572, 31.309
943.054, 29.782
943.536, 30.245
944.019, 32.241
944.501, 35.947
944.983, 40.527
945.465, 34.387
945.947, 15.611
946.429, 5.618
946.911, 18.339
947.393, 41.450
947.875, 53.833
948.358, 55.916
948.840, 54.709
949.322, 50.117
949.804, 43.348
950.286, 34.304
950.768, 25.722
951.250, 19.959
951.732, 15.777
952.215, 8.778
952.697, 2.386
953.179, 5.898
953.661, 0.491
954.143, 8.308
954.625, 20.115
955.107, 30.810
955.589, 34.880
956.071, 34.980
956.554, 47.062
957.036, 82.446
957.518, 90.163
958.000, 54.606
958.482, 21.995
958.964, 10.678
959.446, 11.867
959.929, 15.413
960.411, 21.542
960.893, 35.232
961.375, 66.637
961.857, 83.335
962.339, 71.979
962.821, 61.655
963.303, 70.950
963.785, 86.148
964.268, 85.274
964.750, 66.593
965.232, 55.053
965.714, 55.196
966.196, 55.712
966.678, 59.788
967.160, 59.328
967.642, 44.950
968.125, 24.816
968.607, 13.004
969.089, 10.281
969.571, 12.999
970.053, 28.139
970.535, 38.804
971.017, 37.842
971.499, 34.829
971.981, 40.016
972.464, 47.205
972.946, 38.992
973.428, 7.112
973.910, 8.878
974.392, 4.645
974.874, 24.177
975.356, 58.055
975.838, 81.299
976.320, 59.812
976.803, 11.974
977.285, 6.451
977.767, 23.368
978.249, 45.391
978.731, 40.459
979.213, 34.277
979.695, 40.373
980.177, 48.590
980.659, 48.428
981.142, 40.986
981.624, 32.604
982.106, 22.665
982.588, 17.674
983.070, 24.596
983.552, 31.077
984.034, 28.161
984.516, 22.978
984.998, 26.033
985.481, 35.263
985.963, 37.271
986.445, 24.124
986.927, 14.088
987.409, 15.214
987.891, 19.678
988.373, 25.259
988.856, 29.664
989.338, 29.862
989.820, 26.259
990.302, 22.826
990.784, 22.015
991.266, 19.024
991.748, 9.931
992.230, 0.010
992.712, 11.039
993.195, 18.336
993.677, 12.364
994.159, 5.244
994.641, 17.472
995.123, 14.278
995.605, 12.489
996.087, 24.581
996.569, 36.052
997.052, 32.218
997.534, 22.682
998.016, 24.815
998.498, 38.922
998.980, 46.166
999.462, 31.739
999.944, 22.177
1000.426, 39.459
1000.908, 57.285
1001.391, 51.609
1001.873, 34.175
1002.355, 23.259
1002.837, 22.115
1003.319, 26.599
1003.801, 38.960
1004.283, 50.094
1004.765, 59.933
1005.247, 62.793
1005.730, 46.503
1006.212, 23.877
1006.694, 15.124
1007.176, 22.724
1007.658, 34.629
1008.140, 52.470
1008.622, 63.352
1009.104, 57.659
1009.586, 46.227
1010.069, 34.310
1010.551, 24.105
1011.033, 15.866
1011.515, 10.653
1011.997, 15.932
1012.479, 48.727
1012.961, 70.726
1013.443, 55.886
1013.926, 33.267
1014.408, 23.233
1014.890, 21.349
1015.372, 16.943
1015.854, 9.382
1016.336, 9.460
1016.818, 28.598
1017.300, 44.374
1017.782, 50.231
1018.265, 47.493
1018.747, 28.918
1019.229, 6.748
1019.711, 2.097
1020.193, 15.059
1020.675, 19.258
1021.157, 4.347
1021.639, 20.799
1022.122, 12.731
1022.604, 0.283
1023.086, 10.258
1023.568, 14.556
1024.050, 6.600
1024.532, 11.836
1025.014, 21.055
1025.496, 10.786
1025.978, 0.715
1026.461, 9.465
1026.943, 17.251
1027.425, 25.849
1027.907, 33.542
1028.389, 37.220
1028.871, 37.320
1029.353, 39.303
1029.835, 43.722
1030.318, 50.857
1030.800, 67.215
1031.282, 78.845
1031.764, 79.476
1032.246, 71.380
1032.728, 50.731
1033.210, 21.419
1033.692, 9.754
1034.174, 27.977
1034.656, 46.725
1035.139, 73.781
1035.621, 87.801
1036.103, 67.611
1036.585, 39.702
1037.067, 30.737
1037.549, 38.644
1038.031, 48.754
1038.513, 68.056
1038.996, 74.900
1039.478, 56.832
1039.960, 43.202
1040.442, 43.945
1040.924, 51.414
1041.406, 62.566
1041.888, 74.382
1042.370, 73.213
1042.853, 47.358
1043.335, 42.868
1043.817, 79.352
1044.299, 100.050
1044.781, 80.084
1045.263, 53.757
1045.745, 48.159
1046.227, 57.049
1046.709, 63.290
1047.192, 67.582
1047.674, 64.291
1048.156, 47.829
1048.638, 40.974
1049.120, 54.077
1049.602, 65.250
1050.084, 57.559
1050.566, 39.808
1051.048, 29.811
1051.531, 27.562
1052.013, 36.532
1052.495, 59.989
1052.977, 77.226
1053.459, 84.695
1053.941, 83.138
1054.423, 71.540
1054.905, 55.553
1055.388, 43.037
1055.870, 34.670
1056.352, 40.947
1056.834, 62.370
1057.316, 66.718
1057.798, 48.486
1058.280, 32.186
1058.762, 30.179
1059.245, 32.560
1059.727, 26.861
1060.209, 15.525
1060.691, 5.126
1061.173, 3.459
1061.655, 2.700
1062.137, 7.150
1062.619, 16.167
1063.101, 20.490
1063.583, 23.089
1064.066, 26.461
1064.548, 30.792
1065.030, 38.839
1065.512, 47.556
1065.994, 41.568
1066.476, 27.549
1066.958, 42.274
1067.440, 90.646
1067.923, 120.729
1068.405, 89.472
1068.887, 43.545
1069.369, 47.311
1069.851, 70.614
1070.333, 64.756
1070.815, 39.846
1071.297, 21.181
1071.780, 14.565
1072.262, 17.694
1072.744, 30.751
1073.226, 44.592
1073.708, 54.881
1074.190, 59.550
1074.672, 50.054
1075.154, 37.908
1075.636, 40.964
1076.119, 56.415
1076.601, 69.571
1077.083, 76.068
1077.565, 75.467
1078.047, 63.636
1078.529, 49.494
1079.011, 31.410
1079.493, 19.043
1079.976, 28.208
1080.458, 47.739
1080.940, 51.451
1081.422, 34.313
1081.904, 25.724
1082.386, 40.273
1082.868, 52.778
1083.350, 57.791
1083.833, 58.359
1084.315, 52.057
1084.797, 44.853
1085.279, 46.859
1085.761, 57.866
1086.243, 61.702
1086.725, 49.298
1087.207, 46.416
1087.689, 62.190
1088.172, 73.846
1088.654, 73.405
1089.136, 64.974
1089.618, 49.367
1090.100, 30.370
1090.582, 24.689
1091.064, 37.775
1091.546, 37.505
1092.028, 17.999
1092.511, 12.529
1092.993, 34.327
1093.475, 50.206
1093.957, 33.438
1094.439, 5.079
1094.921, 9.136
1095.403, 41.084
1095.885, 48.904
1096.368, 33.707
1096.850, 12.411
1097.332, 10.896
1097.814, 0.762
1098.296, 22.894
1098.778, 7.909
1099.260, 25.491
1099.742, 30.564
1100.224, 14.339
1100.707, 5.291
1101.189, 0.942
1101.671, 8.236
1102.153, 20.475
1102.635, 17.162
1103.117, 10.976
1103.599, 12.857
1104.081, 26.755
1104.563, 14.631
1105.046, 10.544
1105.528, 32.492
1106.010, 40.055
1106.492, 24.933
1106.974, 39.593
1107.456, 1.042
1107.938, 9.184
1108.420, 37.471
1108.903, 23.658
1109.385, 38.792
1109.867, 43.029
1110.349, 2.867
1110.831, 38.274
1111.313, 41.730
1111.795, 6.538
1112.277, 44.753
1112.760, 14.850
1113.242, 9.237
1113.724, 21.906
1114.206, 15.517
1114.688, 39.174
1115.170, 33.884
1115.652, 26.008
1116.134, 29.417
1116.616, 0.844
1117.099, 31.605
1117.581, 21.835
1118.063, 32.211
1118.545, 47.153
1119.027, 27.113
1119.509, 44.093
1119.991, 3.681
1120.473, 11.301
1120.955, 13.761
1121.438, 46.947
1121.920, 6.813
1122.402, 13.097
1122.884, 32.320
1123.366, 3.496
1123.848, 0.679
1124.330, 10.939
1124.812, 28.059
1125.295, 40.468
1125.777, 28.755
1126.259, 13.389
1126.741, 44.825
1127.223, 94.422
1127.705, 102.275
1128.187, 74.037
1128.669, 34.449
1129.151, 5.437
1129.634, 29.082
1130.116, 24.580
1130.598, 8.842
1131.080, 16.531
1131.562, 36.354
1132.044, 35.541
1132.526, 23.402
1133.008, 7.442
1133.490, 8.229
1133.973, 17.298
1134.455, 18.508
1134.937, 12.612
1135.419, 10.034
1135.901, 25.766
1136.383, 22.084
1136.865, 16.597
1137.347, 25.337
1137.830, 34.459
1138.312, 20.696
1138.794, 12.162
1139.276, 21.802
1139.758, 1.318
1140.240, 17.671
1140.722, 25.416
1141.204, 27.235
1141.687, 22.175
1142.169, 18.813
1142.651, 24.498
1143.133, 34.215
1143.615, 38.016
1144.097, 36.623
1144.579, 33.529
1145.061, 29.787
1145.543, 34.763
1146.026, 47.989
1146.508, 56.519
1146.990, 54.894
1147.472, 46.769
1147.954, 30.550
1148.436, 18.521
1148.918, 35.279
1149.400, 59.957
1149.882, 59.573
1150.365, 44.900
1150.847, 39.186
1151.329, 45.745
1151.811, 57.377
1152.293, 73.600
1152.775, 84.666
1153.257, 86.208
1153.739, 81.225
1154.222, 67.905
1154.704, 51.799
1155.186, 30.764
1155.668, 12.814
1156.150, 15.661
1156.632, 41.644
1157.114, 60.049
1157.596, 70.502
1158.078, 73.438
1158.561, 64.560
1159.043, 59.062
1159.525, 63.667
1160.007, 70.526
1160.489, 73.345
1160.971, 71.589
1161.453, 62.944
1161.935, 47.722
1162.417, 25.659
1162.900, 1.069
1163.382, 7.870
1163.864, 7.661
1164.346, 29.458
1164.828, 50.055
1165.310, 61.561
1165.792, 55.931
1166.274, 38.367
1166.757, 2.860
1167.239, 30.559
1167.721, 23.836
1168.203, 3.668
1168.685, 7.950
1169.167, 10.951
1169.649, 14.533
1170.131, 15.497
1170.614, 40.788
1171.096, 41.317
1171.578, 39.824
1172.060, 52.537
1172.542, 60.361
1173.024, 37.785
1173.506, 6.356
1173.988, 8.602
1174.470, 41.962
1174.953, 49.217
1175.435, 14.126
1175.917, 6.125
1176.399, 38.948
1176.881, 56.414
1177.363, 39.153
1177.845, 13.389
1178.327, 2.991
1178.809, 8.610
1179.292, 2.056
1179.774, 24.737
1180.256, 49.275
1180.738, 70.143
1181.220, 56.724
1181.702, 17.531
1182.184, 3.677
1182.666, 28.495
1183.149, 51.726
1183.631, 46.760
1184.113, 29.938
1184.595, 1.638
1185.077, 18.415
1185.559, 5.915
1186.041, 19.929
1186.523, 38.152
1187.005, 47.854
1187.488, 54.229
1187.970, 58.296
1188.452, 58.198
1188.934, 48.296
1189.416, 42.711
1189.898, 44.720
1190.380, 48.356
1190.862, 52.783
1191.344, 54.870
1191.827, 50.832
1192.309, 43.239
1192.791, 39.737
1193.273, 40.230
1193.755, 38.828
1194.237, 35.648
1194.719, 31.032
1195.201, 25.618
1195.684, 25.948
1196.166, 34.317
1196.648, 36.895
1197.130, 14.905
1197.612, 4.870
1198.094, 20.488
1198.576, 55.961
1199.058, 59.048
1199.541, 42.234
1200.023, 23.410
1200.505, 8.187
1200.987, 4.539
1201.469, 17.052
1201.951, 21.950
1202.433, 3.675
1202.915, 8.257
1203.397, 3.857
1203.880, 4.316
1204.362, 14.202
1204.844, 20.945
1205.326, 17.536
1205.808, 8.373
1206.290, 11.117
1206.772, 26.915
1207.254, 20.192
1207.736, 7.968
1208.219, 10.413
1208.701, 18.216
1209.183, 33.806
1209.665, 17.049
1210.147, 0.941
1210.629, 18.363
1211.111, 45.667
1211.593, 57.260
1212.076, 57.819
1212.558, 48.977
1213.040, 35.703
1213.522, 23.422
1214.004, 13.533
1214.486, 6.908
1214.968, 3.712
1215.450, 4.453
1215.932, 12.614
1216.415, 19.578
1216.897, 21.531
1217.379, 25.637
1217.861, 38.036
1218.343, 48.672
1218.825, 47.235
1219.307, 37.526
1219.789, 30.960
1220.271, 26.972
1220.754, 19.276
1221.236, 8.393
1221.718, 1.660
1222.200, 8.839
1222.682, 0.020
1223.164, 28.013
1223.646, 50.455
1224.128, 46.157
1224.611, 37.297
1225.093, 53.051
1225.575, 67.058
1226.057, 45.126
1226.539, 13.245
1227.021, 4.207
1227.503, 12.969
1227.985, 20.286
1228.468, 23.615
1228.950, 27.724
1229.432, 34.801
1229.914, 39.261
1230.396, 41.508
1230.878, 39.303
1231.360, 31.010
1231.842, 20.099
1232.324, 7.643
1232.807, 0.303
1233.289, 9.080
1233.771, 29.434
1234.253, 38.898
1234.735, 39.710
1235.217, 37.797
1235.699, 33.972
1236.181, 27.214
1236.663, 18.349
1237.146, 12.851
1237.628, 14.608
1238.110, 13.905
1238.592, 1.507
1239.074, 9.970
1239.556, 13.849
1240.038, 14.562
1240.520, 21.570
1241.003, 23.176
1241.485, 4.009
1241.967, 49.793
1242.449, 62.413
1242.931, 33.789
1243.413, 21.849
1243.895, 28.458
1244.377, 29.058
1244.859, 19.392
1245.342, 5.685
1245.824, 9.090
1246.306, 14.479
1246.788, 2.635
1247.270, 23.901
1247.752, 21.441
1248.234, 11.961
1248.716, 15.549
1249.198, 26.787
1249.681, 42.454
1250.163, 56.066
1250.645, 51.821
1251.127, 26.740
1251.609, 10.841
1252.091, 8.709
1252.573, 18.437
1253.055, 54.616
1253.538, 69.173
1254.020, 40.921
1254.502, 10.088
1254.984, 3.741
1255.466, 10.682
1255.948, 17.209
1256.430, 21.495
1256.912, 9.025
1257.395, 11.775
1257.877, 15.455
1258.359, 5.936
1258.841, 3.012
1259.323, 8.537
1259.805, 10.861
1260.287, 9.764
1260.769, 11.164
1261.251, 23.009
1261.734, 30.404
1262.216, 19.853
1262.698, 13.377
1263.180, 25.761
1263.662, 44.818
1264.144, 64.112
1264.626, 76.668
1265.108, 62.952
1265.590, 24.971
1266.073, 14.733
1266.555, 29.573
1267.037, 39.609
1267.519, 41.227
1268.001, 31.803
1268.483, 12.618
1268.965, 1.446
1269.447, 1.395
1269.930, 1.201
1270.412, 0.000
##END=



