##NAMES=Aschamalmite
##RRUFFID=R060690
##IDEAL CHEMISTRY=Pb^2+^_6-3x_Bi^3+^_2+x_S^2-^_9_
##LOCALITY=Ascham Alp, Untersulzbach Valley, Salzburg, Austria
##OWNER=RRUFF
##SOURCE=Michael Scott
##DESCRIPTION=Lead gray metallic prismatic crystals in veins in quartz
##STATUS=The identification of this mineral is not yet confirmed.
##URL=rruff.info/R060690
122.4870, 0.0000000E+00
122.9690, 6.575165
123.4510, 7.933167
123.9340, 8.176788
124.4160, 8.977203
124.8980, 9.895569
125.3800, 11.92596
125.8620, 18.31909
126.3440, 22.76154
126.8260, 21.70087
127.3080, 16.27124
127.7900, 9.908142
128.2730, 4.056946
128.7550, 0.4842530
129.2370, 2.917847
129.7190, 1.705444
130.2010, 1.900513
130.6830, 5.205811
131.1650, 8.187805
131.6480, 11.13214
132.1300, 15.80328
132.6120, 21.80933
133.0940, 24.10968
133.5760, 17.25616
134.0580, 2.874146
134.5400, 2.657471
135.0220, 2.006714
135.5040, 12.52704
135.9860, 22.25348
136.4690, 31.07483
136.9510, 39.50116
137.4330, 48.59253
137.9150, 58.72357
138.3970, 65.21552
138.8790, 67.78009
139.3610, 66.55151
139.8430, 61.36829
140.3260, 50.84509
140.8080, 39.45496
141.2900, 28.77094
141.7720, 16.62122
142.2540, 12.40869
142.7360, 20.12506
143.2180, 38.60010
143.7000, 50.80017
144.1820, 54.39886
144.6650, 54.14886
145.1470, 54.03467
145.6290, 53.28900
146.1110, 53.98438
146.5930, 58.15265
147.0750, 67.77753
147.5570, 69.33832
148.0390, 57.40344
148.5210, 39.70935
149.0040, 26.15771
149.4860, 15.70667
149.9680, 10.56787
150.4500, 12.13708
150.9320, 24.19623
151.4140, 34.75696
151.8960, 45.89410
152.3780, 55.44324
152.8610, 59.01807
153.3430, 51.19623
153.8250, 41.54370
154.3070, 33.90924
154.7890, 30.75739
155.2710, 26.67841
155.7530, 18.52936
156.2350, 8.239746
156.7170, 2.779785
157.2000, 6.375854
157.6820, 13.47766
158.1640, 20.66010
158.6460, 30.91254
159.1280, 37.47589
159.6100, 37.37939
160.0920, 31.02625
160.5740, 23.53528
161.0570, 11.82776
161.5390, 1.648926
162.0210, 1.642090
162.5030, 9.536926
162.9850, 23.11884
163.4670, 33.84674
163.9490, 41.24866
164.4310, 48.02942
164.9130, 58.82532
165.3960, 69.10687
165.8780, 72.69830
166.3600, 62.92450
166.8420, 48.35748
167.3240, 32.57123
167.8060, 14.43170
168.2880, 2.568909
168.7700, 7.196777
169.2530, 22.24628
169.7350, 35.08441
170.2170, 40.54712
170.6990, 40.03625
171.1810, 32.92480
171.6630, 15.71277
172.1450, 0.3912960
172.6270, 0.3446040
173.1090, 11.65362
173.5920, 20.93933
174.0740, 15.46265
174.5560, 4.076538
175.0380, 0.3330080
175.5200, 11.05023
176.0020, 24.76105
176.4840, 26.31555
176.9660, 17.39172
177.4490, 9.508240
177.9310, 13.01929
178.4130, 23.69275
178.8950, 32.71759
179.3770, 35.97162
179.8590, 37.43677
180.3410, 46.11780
180.8230, 62.55121
181.3050, 73.74615
181.7880, 59.77533
182.2700, 29.16602
182.7520, 9.694275
183.2340, 19.73535
183.7160, 45.84271
184.1980, 55.64795
184.6800, 47.72754
185.1620, 35.64368
185.6450, 34.81348
186.1270, 43.51233
186.6090, 51.42426
187.0910, 52.23975
187.5730, 48.39783
188.0550, 50.13379
188.5370, 58.99023
189.0190, 68.16785
189.5010, 65.89825
189.9840, 52.81903
190.4660, 42.74396
190.9480, 45.05969
191.4300, 57.79596
191.9120, 66.49359
192.3940, 70.16644
192.8760, 70.24561
193.3580, 67.79047
193.8400, 62.64252
194.3230, 58.59485
194.8050, 58.25519
195.2870, 61.50354
195.7690, 65.39764
196.2510, 70.38531
196.7330, 75.22546
197.2150, 76.77100
197.6970, 74.82178
198.1800, 71.12775
198.6620, 65.37457
199.1440, 57.19147
199.6260, 53.60016
200.1080, 56.64972
200.5900, 64.34167
201.0720, 69.84760
201.5540, 72.87396
202.0360, 74.89569
202.5190, 77.81073
203.0010, 82.20532
203.4830, 82.49603
203.9650, 76.09564
204.4470, 64.65723
204.9290, 58.28473
205.4110, 58.05182
205.8930, 59.97662
206.3760, 59.14404
206.8580, 53.56793
207.3400, 55.42120
207.8220, 72.24896
208.3040, 101.7930
208.7860, 109.1792
209.2680, 86.44250
209.7500, 55.78400
210.2320, 40.74670
210.7140, 45.24249
211.1970, 52.77637
211.6790, 62.00275
212.1610, 73.15338
212.6430, 72.05927
213.1250, 52.17743
213.6070, 28.82074
214.0890, 21.97107
214.5720, 38.67230
215.0540, 53.06952
215.5360, 55.87262
216.0180, 45.02966
216.5000, 44.11548
216.9820, 59.36475
217.4640, 78.30682
217.9460, 81.43164
218.4280, 60.16406
218.9110, 42.12311
219.3930, 36.87482
219.8750, 47.04352
220.3570, 57.41266
220.8390, 71.00055
221.3210, 82.56195
221.8030, 81.88348
222.2850, 61.21106
222.7670, 43.37244
223.2500, 37.55518
223.7320, 47.92499
224.2140, 55.52612
224.6960, 60.61810
225.1780, 62.88434
225.6600, 61.21112
226.1420, 52.96490
226.6240, 45.33600
227.1070, 41.37500
227.5890, 42.51312
228.0710, 43.10730
228.5530, 41.77472
229.0350, 40.33673
229.5170, 43.60638
229.9990, 54.44879
230.4810, 65.61499
230.9630, 74.90369
231.4450, 85.60583
231.9280, 86.27094
232.4100, 70.91736
232.8920, 46.57080
233.3740, 34.61548
233.8560, 40.85815
234.3380, 50.74182
234.8200, 58.45251
235.3030, 65.90613
235.7850, 66.18066
236.2670, 53.84216
236.7490, 34.55536
237.2310, 28.89227
237.7130, 45.32800
238.1950, 63.77875
238.6770, 74.06653
239.1590, 72.64099
239.6410, 70.49335
240.1240, 67.55212
240.6060, 64.17548
241.0880, 61.61920
241.5700, 59.54919
242.0520, 58.79053
242.5340, 60.12897
243.0160, 65.36060
243.4980, 68.80017
243.9810, 69.10779
244.4630, 67.23828
244.9450, 67.87506
245.4270, 73.19281
245.9090, 78.14807
246.3910, 79.41602
246.8730, 74.07452
247.3550, 71.22144
247.8370, 72.18274
248.3200, 76.23138
248.8020, 80.00238
249.2840, 84.74054
249.7660, 87.77094
250.2480, 86.70233
250.7300, 78.12860
251.2120, 71.86090
251.6940, 69.37726
252.1760, 70.25385
252.6590, 71.40100
253.1410, 73.09283
253.6230, 74.75830
254.1050, 76.97241
254.5870, 83.00391
255.0690, 81.10498
255.5510, 65.66650
256.0330, 40.74329
256.5160, 28.31549
256.9980, 34.44696
257.4800, 45.16345
257.9620, 50.22845
258.4440, 42.86713
258.9260, 38.88867
259.4080, 43.27704
259.8900, 53.67133
260.3720, 55.52173
260.8550, 41.76709
261.3370, 29.78107
261.8190, 33.68866
262.3010, 62.60370
262.7830, 80.25812
263.2650, 79.89697
263.7470, 65.24524
264.2290, 54.26074
264.7110, 47.35950
265.1940, 43.55847
265.6760, 43.02362
266.1580, 47.04486
266.6400, 49.43622
267.1220, 48.46753
267.6040, 45.44183
268.0860, 46.87427
268.5690, 54.71582
269.0510, 63.03473
269.5330, 67.27991
270.0150, 65.81189
270.4970, 64.72485
270.9790, 64.90662
271.4610, 66.12195
271.9430, 67.56287
272.4250, 69.64618
272.9080, 70.83295
273.3900, 68.87500
273.8720, 62.70251
274.3540, 61.19678
274.8360, 66.87274
275.3180, 76.91382
275.8000, 80.46606
276.2820, 75.75641
276.7640, 70.94775
277.2470, 73.91309
277.7290, 86.78326
278.2110, 90.81769
278.6930, 79.27533
279.1750, 59.39313
279.6570, 54.51477
280.1390, 66.96783
280.6210, 80.97461
281.1030, 85.07178
281.5860, 79.14545
282.0680, 74.85199
282.5500, 73.56061
283.0320, 74.40259
283.5140, 75.85022
283.9960, 78.03058
284.4780, 79.85242
284.9600, 81.23364
285.4430, 82.08282
285.9250, 80.20020
286.4070, 74.69196
286.8890, 66.64240
287.3710, 56.55103
287.8530, 44.48615
288.3350, 34.46350
288.8170, 28.73615
289.2990, 27.03198
289.7820, 29.03827
290.2640, 36.18994
290.7460, 44.24078
291.2280, 45.46838
291.7100, 40.41364
292.1920, 33.41382
292.6740, 24.82983
293.1560, 15.97754
293.6380, 12.35913
294.1210, 15.49835
294.6030, 20.92517
295.0850, 22.62268
295.5670, 21.06476
296.0490, 19.06329
296.5310, 17.45538
297.0130, 16.61694
297.4960, 18.35382
297.9780, 23.50110
298.4600, 28.03558
298.9420, 25.95642
299.4240, 18.88739
299.9060, 12.47955
300.3880, 10.34686
300.8700, 10.54816
301.3520, 9.554810
301.8350, 6.847168
302.3170, 5.031372
302.7990, 8.571533
303.2810, 15.09949
303.7630, 18.96527
304.2450, 14.78577
304.7270, 7.689026
305.2090, 4.390869
305.6910, 5.407410
306.1740, 6.200500
306.6560, 1.171448
307.1380, 6.375549
307.6200, 10.86542
308.1020, 8.665131
308.5840, 3.309204
309.0660, 2.669006
309.5480, 9.314087
310.0300, 16.02594
310.5130, 25.12585
310.9950, 33.75293
311.4770, 37.80511
311.9590, 29.18335
312.4410, 20.68356
312.9230, 25.17087
313.4050, 41.51599
313.8870, 48.35712
314.3700, 20.84525
314.8520, 15.67972
315.3340, 36.24142
315.8160, 16.15689
316.2980, 5.741425
316.7800, 11.11240
317.2620, 2.350006
317.7440, 3.190796
318.2260, 5.106354
318.7090, 17.19208
319.1910, 25.63065
319.6730, 26.23270
320.1550, 25.74030
320.6370, 25.20929
321.1190, 24.83374
321.6010, 25.44449
322.0830, 27.54468
322.5650, 30.47516
323.0480, 34.10892
323.5300, 42.13992
324.0120, 45.68625
324.4940, 41.64075
324.9760, 31.92844
325.4580, 22.23059
325.9400, 9.678314
326.4220, 5.6458000E-02
326.9050, 4.126068
327.3870, 0.6573180
327.8690, 4.989349
328.3510, 8.058746
328.8330, 10.66101
329.3150, 14.54828
329.7970, 24.49387
330.2790, 30.60690
330.7620, 28.27872
331.2440, 11.68436
331.7260, 4.265808
332.2080, 11.19769
332.6900, 24.50235
333.1720, 32.78668
333.6540, 36.68283
334.1360, 34.12656
334.6180, 21.75397
335.1000, 2.434021
335.5830, 16.90735
336.0650, 19.50363
336.5470, 14.90445
337.0290, 6.868378
337.5110, 7.283722
337.9930, 16.74420
338.4750, 17.78345
338.9570, 11.19980
339.4400, 6.442291
339.9220, 3.874634
340.4040, 2.252960
340.8860, 0.5465700
341.3680, 1.212463
341.8500, 3.556091
342.3320, 7.652618
342.8140, 11.94128
343.2970, 9.068359
343.7790, 2.083649
344.2610, 12.76440
344.7430, 15.23694
345.2250, 10.30350
345.7070, 7.015289
346.1890, 7.218475
346.6710, 8.931030
347.1530, 6.774658
347.6350, 1.104950
348.1180, 1.222961
348.6000, 8.502930
349.0820, 25.29330
349.5640, 33.25095
350.0460, 28.90976
350.5280, 20.94577
351.0100, 20.42200
351.4920, 25.74432
351.9750, 31.08688
352.4570, 31.36853
352.9390, 30.40845
353.4210, 35.63849
353.9030, 48.52069
354.3850, 59.26700
354.8670, 54.50046
355.3490, 41.78412
355.8320, 35.38287
356.3140, 52.43884
356.7960, 71.15088
357.2780, 69.15414
357.7600, 46.23843
358.2420, 25.99597
358.7240, 23.78659
359.2060, 31.30933
359.6880, 39.38126
360.1710, 44.97928
360.6530, 50.40341
361.1350, 59.21271
361.6170, 70.14319
362.0990, 74.67587
362.5810, 65.32370
363.0630, 51.04666
363.5450, 37.75775
364.0270, 24.07904
364.5100, 14.91690
364.9920, 14.22632
365.4740, 19.08133
365.9560, 21.27744
366.4380, 11.75058
366.9200, 5.470093
367.4020, 10.00705
367.8840, 35.84250
368.3660, 52.68658
368.8490, 53.91302
369.3310, 46.46765
369.8130, 41.71762
370.2950, 40.76892
370.7770, 41.24146
371.2590, 43.47806
371.7410, 48.60220
372.2240, 48.80536
372.7060, 38.78931
373.1880, 26.29626
373.6700, 23.83606
374.1520, 35.29739
374.6340, 45.42325
375.1160, 50.81015
375.5980, 51.66562
376.0800, 54.10837
376.5620, 58.89352
377.0450, 62.89651
377.5270, 65.04727
378.0090, 65.66055
378.4910, 60.62253
378.9730, 46.66217
379.4550, 28.96750
379.9370, 23.80258
380.4190, 32.11835
380.9020, 40.54483
381.3840, 39.57907
381.8660, 30.82202
382.3480, 23.52676
382.8300, 18.41724
383.3120, 15.28424
383.7940, 14.05664
384.2760, 14.43289
384.7590, 16.08133
385.2410, 21.58130
385.7230, 28.15894
386.2050, 29.24319
386.6870, 24.23834
387.1690, 19.99149
387.6510, 23.33145
388.1330, 31.72644
388.6150, 40.71933
389.0980, 51.38422
389.5800, 59.65857
390.0620, 61.92447
390.5440, 58.51044
391.0260, 52.32245
391.5080, 41.32053
391.9900, 30.20670
392.4720, 23.34595
392.9540, 23.28152
393.4370, 24.02283
393.9190, 25.65686
394.4010, 27.62274
394.8830, 27.48264
395.3650, 19.18414
395.8470, 12.34274
396.3290, 13.11475
396.8110, 26.57208
397.2930, 35.96216
397.7760, 36.12805
398.2580, 31.34833
398.7400, 27.93063
399.2220, 24.89145
399.7040, 24.68845
400.1860, 29.55878
400.6680, 40.61469
401.1510, 45.96408
401.6330, 42.84958
402.1150, 37.04697
402.5970, 33.05063
403.0790, 30.22937
403.5610, 30.55029
404.0430, 36.04437
404.5250, 45.35934
405.0070, 51.16299
405.4900, 50.93259
405.9720, 46.57990
406.4540, 36.27151
406.9360, 18.41980
407.4180, 13.26740
407.9000, 26.20435
408.3820, 45.41669
408.8640, 47.54630
409.3460, 32.57645
409.8280, 20.17001
410.3110, 22.62610
410.7930, 35.47760
411.2750, 42.73758
411.7570, 43.99603
412.2390, 42.72299
412.7210, 41.12451
413.2030, 39.69467
413.6850, 40.12845
414.1680, 45.78641
414.6500, 51.00089
415.1320, 35.48611
415.6140, 52.64392
416.0960, 61.86841
416.5780, 63.58521
417.0600, 35.31909
417.5420, 45.76868
418.0250, 40.70093
418.5070, 43.31622
418.9890, 35.18628
419.4710, 41.98718
419.9530, 45.37790
420.4350, 34.89343
420.9170, 22.03989
421.3990, 11.67712
421.8810, 4.030029
422.3640, 0.2431950
422.8460, 1.751099
423.3280, 6.970795
423.8100, 14.15121
424.2920, 25.95984
424.7740, 36.32199
425.2560, 46.00555
425.7380, 54.81522
426.2200, 57.60025
426.7030, 51.76627
427.1850, 42.21634
427.6670, 30.62161
428.1490, 13.59702
428.6310, 2.950592
429.1130, 0.3233950
429.5950, 2.532288
430.0770, 11.25119
430.5600, 29.04764
431.0420, 39.98169
431.5240, 33.75552
432.0060, 11.38065
432.4880, 0.5190730
432.9700, 3.552734
433.4520, 8.830078
433.9340, 5.780212
434.4170, 16.24823
434.8990, 29.38205
435.3810, 34.09827
435.8630, 5.188965
436.3450, 19.70102
436.8270, 16.81155
437.3090, 13.20996
437.7910, 33.83240
438.2730, 9.815369
438.7550, 30.05386
439.2380, 32.62491
439.7200, 43.28143
440.2020, 32.81366
440.6840, 20.59793
441.1660, 13.78644
441.6480, 31.17926
442.1300, 50.12131
442.6120, 55.74768
443.0950, 46.92508
443.5770, 37.86044
444.0590, 32.42557
444.5410, 29.69144
445.0230, 28.86737
445.5050, 32.16769
445.9870, 34.75674
446.4690, 35.62460
446.9520, 35.09918
447.4340, 34.44623
447.9160, 32.38605
448.3980, 31.55573
448.8800, 33.76425
449.3620, 41.90164
449.8440, 43.59387
450.3260, 33.91797
450.8080, 22.40247
451.2900, 23.91318
451.7730, 43.29877
452.2550, 58.54718
452.7370, 63.46930
453.2190, 59.40488
453.7010, 54.38220
454.1830, 48.52789
454.6650, 41.24759
455.1470, 28.42212
455.6300, 12.13144
456.1120, 6.712708
456.5940, 16.58963
457.0760, 32.42081
457.5580, 42.14285
458.0400, 46.42709
458.5220, 48.04987
459.0040, 47.00327
459.4870, 44.81461
459.9690, 45.55417
460.4510, 49.50208
460.9330, 47.69058
461.4150, 23.37808
461.8970, 6.633331
462.3790, 22.41537
462.8610, 5.229095
463.3430, 13.85663
463.8260, 20.51825
464.3080, 17.50787
464.7900, 14.28366
465.2720, 8.781586
465.7540, 7.689728
466.2360, 16.97903
466.7180, 47.03253
467.2000, 61.40723
467.6820, 42.05316
468.1650, 12.87729
468.6470, 1.868622
469.1290, 24.96118
469.6110, 40.85699
470.0930, 39.48798
470.5750, 23.24023
471.0570, 14.44022
471.5390, 15.95798
472.0220, 18.28094
472.5040, 15.38220
472.9860, 6.495636
473.4680, 5.302338
473.9500, 15.24927
474.4320, 27.88361
474.9140, 25.92813
475.3960, 11.23499
475.8780, 3.902222
476.3610, 19.95859
476.8430, 45.83478
477.3250, 53.85867
477.8070, 44.89075
478.2890, 32.55402
478.7710, 27.00760
479.2530, 25.06937
479.7350, 21.74796
480.2170, 14.02234
480.7000, 8.120880
481.1820, 11.82086
481.6640, 20.61121
482.1460, 24.44043
482.6280, 11.11234
483.1100, 1.502655
483.5920, 4.467987
484.0740, 3.810852
484.5560, 14.93393
485.0390, 34.75928
485.5210, 52.57785
486.0030, 58.94482
486.4850, 38.87213
486.9670, 28.29672
487.4490, 34.39975
487.9310, 51.66110
488.4140, 61.59509
488.8960, 63.87149
489.3780, 59.28006
489.8600, 43.47775
490.3420, 14.52112
490.8240, 6.235352
491.3060, 23.63156
491.7880, 47.76324
492.2700, 57.75696
492.7530, 54.24390
493.2350, 49.70203
493.7170, 48.18048
494.1990, 46.56195
494.6810, 39.34909
495.1630, 27.38678
495.6450, 19.10681
496.1270, 23.39197
496.6090, 33.39526
497.0920, 40.24875
497.5740, 42.93643
498.0560, 43.48517
498.5380, 42.17130
499.0200, 39.83270
499.5020, 37.58862
499.9840, 38.36594
500.4660, 36.74756
500.9480, 27.65140
501.4310, 13.03934
501.9130, 4.256409
502.3950, 5.028625
502.8770, 10.85410
503.3590, 21.36566
503.8410, 42.63239
504.3230, 52.20724
504.8050, 42.91925
505.2880, 27.02939
505.7700, 19.72971
506.2520, 22.79120
506.7340, 29.69977
507.2160, 41.51456
507.6980, 55.64743
508.1800, 60.19748
508.6620, 54.49866
509.1450, 44.25696
509.6270, 29.73135
510.1090, 13.06979
510.5910, 5.142181
511.0730, 7.917664
511.5550, 13.74924
512.0370, 14.74792
512.5190, 12.08164
513.0010, 8.864166
513.4840, 3.354126
513.9660, 0.8741760
514.4480, 0.7145080
514.9300, 6.847931
515.4120, 11.30432
515.8940, 7.778656
516.3760, 3.714874
516.8580, 4.410004
517.3410, 11.99100
517.8230, 20.06781
518.3050, 27.42957
518.7870, 34.51520
519.2690, 42.00366
519.7510, 54.40033
520.2330, 59.87518
520.7150, 56.60876
521.1970, 45.59689
521.6800, 37.74591
522.1620, 33.22488
522.6440, 31.52673
523.1260, 34.16254
523.6080, 41.80624
524.0900, 42.32086
524.5720, 33.48239
525.0540, 23.40585
525.5360, 23.93326
526.0190, 33.08151
526.5010, 39.17871
526.9830, 38.76685
527.4650, 33.24686
527.9470, 17.75278
528.4290, 3.681366
528.9110, 12.90244
529.3930, 16.18292
529.8750, 53.96634
530.3580, 72.83194
530.8400, 67.79584
531.3220, 55.71820
531.8040, 39.46442
532.2860, 22.33054
532.7680, 8.258514
533.2500, 7.609680
533.7320, 14.25629
534.2140, 3.565796
534.6970, 19.04529
535.1790, 33.25726
535.6610, 34.37411
536.1430, 33.31879
536.6250, 34.66241
537.1070, 39.23590
537.5890, 37.57040
538.0710, 27.00287
538.5540, 16.18234
539.0360, 14.83670
539.5180, 22.78888
540.0000, 32.19897
540.4820, 43.32794
540.9640, 51.96793
541.4460, 48.94943
541.9280, 36.40997
542.4110, 23.16541
542.8930, 12.70798
543.3750, 4.838959
543.8570, 0.2561650
544.3390, 2.569946
544.8210, 3.135376
545.3030, 3.215973
545.7850, 1.496796
546.2680, 3.610077
546.7500, 15.32281
547.2320, 25.44345
547.7140, 37.91190
548.1960, 46.34732
548.6780, 39.14359
549.1600, 13.08871
549.6420, 31.74652
550.1240, 39.36267
550.6060, 36.76672
551.0890, 6.633453
551.5710, 2.651276
552.0530, 4.310150
552.5350, 1.416504
553.0170, 5.163818
553.4990, 9.492950
553.9810, 10.76694
554.4630, 11.26279
554.9450, 15.34943
555.4280, 21.88794
555.9100, 24.28833
556.3920, 13.82050
556.8740, 4.872589
557.3560, 24.99554
557.8380, 8.986298
558.3200, 29.67191
558.8020, 41.44940
559.2840, 44.79880
559.7670, 14.47495
560.2490, 27.63303
560.7310, 23.36490
561.2130, 18.38165
561.6950, 37.65927
562.1770, 12.23172
562.6590, 31.12402
563.1410, 32.32419
563.6240, 41.62225
564.1060, 33.38608
564.5880, 30.56479
565.0700, 45.28336
565.5520, 50.28983
566.0340, 40.03506
566.5160, 49.84616
566.9980, 23.80411
567.4810, 32.13800
567.9630, 14.86572
568.4450, 11.77124
568.9270, 18.38562
569.4090, 17.98685
569.8910, 6.267975
570.3730, 5.091064
570.8550, 0.4823610
571.3380, 13.38348
571.8200, 23.01666
572.3020, 17.09286
572.7840, 11.24737
573.2660, 15.19669
573.7480, 27.31696
574.2300, 3.913025
574.7120, 33.12402
575.1940, 49.56287
575.6770, 53.91559
576.1590, 9.986176
576.6410, 28.40460
577.1230, 21.83694
577.6050, 14.24539
578.0870, 41.44617
578.5690, 4.545715
579.0510, 31.19513
579.5330, 32.47647
580.0160, 45.36780
580.4980, 33.11893
580.9800, 28.63406
581.4620, 49.29910
581.9440, 28.06708
582.4260, 36.32199
582.9080, 41.15485
583.3900, 42.46365
583.8720, 39.64835
584.3550, 26.98901
584.8370, 12.75162
585.3190, 5.317108
585.8010, 7.308655
586.2830, 13.12418
586.7650, 24.20004
587.2470, 36.72821
587.7290, 44.00012
588.2110, 38.16675
588.6940, 34.10568
589.1760, 36.07352
589.6580, 41.84528
590.1400, 42.74091
590.6220, 36.06433
591.1040, 30.05084
591.5860, 29.65030
592.0680, 35.51620
592.5510, 38.45062
593.0330, 38.22803
593.5150, 34.74152
593.9970, 24.86597
594.4790, 11.35751
594.9610, 3.322083
595.4430, 2.511627
595.9250, 5.740234
596.4070, 13.83588
596.8900, 23.21555
597.3720, 27.18024
597.8540, 16.16495
598.3360, 5.747742
598.8180, 4.712799
599.3000, 11.27899
599.7820, 16.84021
600.2650, 20.29504
600.7470, 21.68515
601.2290, 21.39041
601.7110, 19.14172
602.1930, 17.34088
602.6750, 16.31018
603.1570, 15.57715
603.6390, 13.91580
604.1210, 10.81430
604.6040, 13.86279
605.0860, 26.68243
605.5680, 39.64410
606.0500, 32.08487
606.5320, 9.035675
607.0140, 3.748474
607.4960, 12.41122
607.9780, 36.25391
608.4600, 41.29477
608.9430, 30.68253
609.4250, 20.45349
609.9070, 12.27704
610.3890, 11.04944
610.8710, 24.12372
611.3530, 55.40820
611.8350, 74.58777
612.3170, 64.35645
612.7990, 47.55426
613.2820, 40.80884
613.7640, 49.43362
614.2460, 58.34055
614.7280, 69.48859
615.2100, 78.31085
615.6920, 74.42023
616.1740, 56.18573
616.6560, 43.41132
617.1380, 45.07913
617.6210, 53.05698
618.1030, 45.07108
618.5850, 23.71930
619.0670, 7.970612
619.5490, 18.18610
620.0310, 35.33368
620.5130, 35.78748
620.9950, 17.77545
621.4770, 2.301514
621.9600, 1.683685
622.4420, 7.490082
622.9240, 12.81662
623.4060, 13.58533
623.8880, 19.16312
624.3700, 38.18311
624.8520, 58.77921
625.3340, 64.57553
625.8170, 48.05600
626.2990, 34.93359
626.7810, 30.09332
627.2630, 31.42328
627.7450, 34.48636
628.2270, 39.13379
628.7090, 39.72208
629.1910, 28.45572
629.6740, 11.32309
630.1560, 3.617798
630.6380, 4.771667
631.1200, 7.475708
631.6020, 5.562897
632.0840, 3.108337
632.5660, 4.658997
633.0480, 12.14725
633.5310, 19.61411
634.0130, 26.50027
634.4950, 30.94165
634.9770, 30.41217
635.4590, 15.52890
635.9410, 8.832764
636.4230, 16.29678
636.9050, 31.07745
637.3870, 36.10162
637.8700, 28.85114
638.3520, 22.42172
638.8340, 21.89050
639.3160, 25.19345
639.7980, 23.70154
640.2800, 17.73575
640.7620, 15.16516
641.2440, 29.56165
641.7260, 47.16132
642.2090, 44.74719
642.6910, 19.38419
643.1730, 3.975677
643.6550, 9.160400
644.1370, 6.291718
644.6190, 4.607483
645.1010, 8.572479
645.5830, 9.447815
646.0650, 1.932068
646.5480, 7.699188
647.0300, 10.33981
647.5120, 1.379639
647.9940, 3.575470
648.4760, 0.1522220
648.9580, 8.233246
649.4400, 10.67636
649.9220, 6.943024
650.4040, 3.516327
650.8870, 3.094299
651.3690, 5.356537
651.8510, 10.62097
652.3330, 18.63251
652.8150, 26.04620
653.2970, 31.52600
653.7790, 34.72797
654.2610, 34.24405
654.7440, 28.66531
655.2260, 25.41769
655.7080, 33.14514
656.1900, 40.72476
656.6720, 36.85751
657.1540, 6.276306
657.6360, 8.779694
658.1180, 2.009277
658.6010, 16.73126
659.0830, 32.30887
659.5650, 45.07483
660.0470, 50.55481
660.5290, 44.45392
661.0110, 33.30615
661.4930, 32.11407
661.9750, 39.36810
662.4580, 47.20325
662.9400, 55.83850
663.4220, 59.82474
663.9040, 49.35016
664.3860, 25.42065
664.8680, 8.053772
665.3500, 9.905487
665.8320, 18.29626
666.3140, 26.43420
666.7970, 34.16617
667.2790, 40.17026
667.7610, 44.24487
668.2430, 46.74420
668.7250, 48.64471
669.2070, 50.63928
669.6890, 46.17300
670.1710, 32.28479
670.6530, 17.62283
671.1350, 14.92407
671.6180, 22.06705
672.1000, 25.30118
672.5820, 14.52832
673.0640, 4.647522
673.5460, 17.20975
674.0280, 43.71710
674.5100, 60.74347
674.9920, 49.96982
675.4740, 35.15930
675.9570, 25.53876
676.4390, 21.53732
676.9210, 22.75189
677.4030, 35.52853
677.8850, 45.10614
678.3670, 42.85486
678.8490, 26.94156
679.3310, 18.80231
679.8140, 19.76910
680.2960, 23.66687
680.7780, 25.11975
681.2600, 24.65060
681.7420, 24.52353
682.2240, 25.42438
682.7060, 24.75327
683.1880, 16.38217
683.6700, 5.838104
684.1530, 1.442017
684.6350, 9.857941
685.1170, 19.48785
685.5990, 29.11188
686.0810, 36.88782
686.5630, 38.47162
687.0450, 28.76050
687.5280, 20.73428
688.0100, 17.73605
688.4920, 18.35284
688.9740, 16.44354
689.4560, 11.66229
689.9380, 6.815979
690.4200, 1.346619
690.9020, 2.855743
691.3840, 1.996918
691.8670, 15.18451
692.3490, 27.42712
692.8310, 31.84363
693.3130, 32.47888
693.7950, 33.37766
694.2770, 36.27811
694.7590, 37.56381
695.2410, 35.47668
695.7230, 31.28738
696.2060, 24.87793
696.6880, 11.72458
697.1700, 5.399109
697.6520, 7.596466
698.1340, 14.54358
698.6160, 22.57251
699.0980, 31.79224
699.5800, 38.85779
700.0620, 43.54416
700.5450, 44.76031
701.0270, 35.46826
701.5090, 20.49646
701.9910, 14.14651
702.4730, 35.30307
702.9550, 55.12863
703.4370, 50.56519
703.9190, 29.50134
704.4020, 15.71436
704.8840, 24.35703
705.3660, 34.24139
705.8480, 38.26480
706.3300, 37.27380
706.8120, 35.18036
707.2940, 30.69000
707.7760, 28.48727
708.2580, 34.38272
708.7410, 46.37952
709.2230, 44.63678
709.7050, 28.71460
710.1870, 14.67599
710.6690, 18.70801
711.1510, 32.37369
711.6330, 44.87607
712.1150, 55.20401
712.5970, 60.92163
713.0800, 58.90286
713.5620, 52.73578
714.0440, 45.89227
714.5260, 36.10242
715.0080, 29.52414
715.4900, 26.79193
715.9720, 26.93414
716.4550, 27.16476
716.9370, 27.37415
717.4190, 27.67914
717.9010, 28.27780
718.3830, 28.68311
718.8650, 27.06805
719.3470, 24.28363
719.8290, 23.44983
720.3110, 28.93167
720.7940, 34.36209
721.2760, 32.87918
721.7580, 26.70886
722.2400, 23.29913
722.7220, 28.57620
723.2040, 33.58185
723.6860, 33.62421
724.1680, 29.37265
724.6510, 30.68262
725.1330, 40.59515
725.6150, 49.01483
726.0970, 51.57812
726.5790, 48.23199
727.0610, 33.57645
727.5430, 7.021454
728.0250, 11.41495
728.5070, 2.329041
728.9900, 30.89636
729.4720, 50.49124
729.9540, 57.99365
730.4360, 58.84879
730.9180, 47.60446
731.4000, 36.06775
731.8820, 34.59604
732.3640, 58.87314
732.8460, 67.15591
733.3280, 50.47427
733.8110, 26.88022
734.2930, 16.87579
734.7750, 21.52597
735.2570, 28.76678
735.7390, 38.04309
736.2210, 46.22601
736.7030, 49.37061
737.1850, 47.78177
737.6670, 41.42554
738.1500, 23.74182
738.6320, 10.90970
739.1140, 19.48022
739.5960, 40.19928
740.0780, 54.40994
740.5600, 54.46417
741.0420, 50.76404
741.5240, 44.94238
742.0070, 37.23236
742.4890, 26.79892
742.9710, 11.01010
743.4530, 3.757751
743.9350, 13.89487
744.4170, 34.97357
744.8990, 47.53778
745.3810, 52.18961
745.8640, 54.91394
746.3460, 59.42081
746.8280, 63.73233
747.3100, 66.26636
747.7920, 66.92685
748.2740, 65.46454
748.7560, 61.08133
749.2380, 55.16556
749.7210, 48.57941
750.2030, 41.79071
750.6850, 28.95111
751.1670, 4.691101
751.6490, 14.40097
752.1310, 14.32834
752.6130, 2.881042
753.0950, 21.69266
753.5770, 42.23792
754.0600, 56.07071
754.5420, 49.89142
755.0240, 35.11423
755.5060, 26.21472
755.9880, 26.41760
756.4700, 30.86624
756.9520, 41.30640
757.4340, 53.05713
757.9160, 61.94440
758.3990, 71.31729
758.8810, 70.52576
759.3630, 56.81445
759.8450, 36.29913
760.3270, 12.87964
760.8090, 12.54306
761.2910, 21.61459
761.7730, 6.010651
762.2550, 14.83853
762.7380, 16.52524
763.2200, 6.322540
763.7020, 1.622681
764.1840, 0.1473080
764.6660, 2.138397
765.1480, 8.1298999E-02
765.6300, 3.396332
766.1120, 2.097382
766.5940, 4.653839
767.0770, 15.76266
767.5590, 33.48712
768.0410, 53.89511
768.5230, 67.76971
769.0050, 74.95700
769.4870, 72.65872
769.9690, 51.77911
770.4510, 28.37018
770.9340, 32.82184
771.4160, 56.82904
771.8980, 72.73199
772.3800, 57.83344
772.8620, 40.26056
773.3440, 34.27466
773.8260, 38.89880
774.3080, 41.22754
774.7910, 37.22406
775.2730, 36.75763
775.7550, 45.01831
776.2370, 60.30560
776.7190, 69.89264
777.2010, 73.83618
777.6830, 73.14545
778.1650, 64.77734
778.6480, 53.91687
779.1300, 49.01099
779.6120, 49.85083
780.0940, 51.72327
780.5760, 57.32245
781.0580, 59.09326
781.5400, 48.52380
782.0220, 20.89331
782.5040, 9.458313
782.9870, 22.36011
783.4690, 39.42596
783.9510, 50.53735
784.4330, 55.53839
784.9150, 52.53497
785.3970, 40.63110
785.8790, 31.31873
786.3610, 44.34491
786.8430, 64.22827
787.3260, 65.51483
787.8080, 43.68256
788.2900, 25.86987
788.7720, 29.31403
789.2540, 39.33978
789.7360, 45.09125
790.2180, 43.45624
790.7000, 42.93292
791.1820, 43.14722
791.6650, 45.07220
792.1470, 53.16577
792.6290, 66.04999
793.1110, 63.02185
793.5930, 40.27045
794.0750, 17.50665
794.5570, 16.17145
795.0390, 26.72400
795.5210, 36.25714
796.0040, 42.48602
796.4860, 46.43854
796.9680, 47.78168
797.4500, 47.31256
797.9320, 45.91406
798.4140, 43.88831
798.8960, 39.91010
799.3780, 32.67371
799.8600, 25.74994
800.3430, 21.22888
800.8250, 20.14050
801.3070, 31.63031
801.7890, 61.62842
802.2710, 87.97504
802.7530, 87.35645
803.2350, 70.46655
803.7180, 50.75140
804.2000, 25.06293
804.6820, 7.804138
805.1640, 6.237061
805.6460, 12.67871
806.1280, 20.54810
806.6100, 32.63916
807.0920, 33.58392
807.5740, 17.69043
808.0570, 0.8933720
808.5390, 3.054138
809.0210, 22.55072
809.5030, 32.78833
809.9850, 25.45135
810.4670, 14.89087
810.9490, 5.196350
811.4310, 0.6163330
811.9140, 1.889099
812.3960, 30.60181
812.8780, 44.54730
813.3600, 31.18976
813.8420, 7.746094
814.3240, 4.909241
814.8060, 25.39337
815.2880, 35.17737
815.7700, 24.35425
816.2530, 6.816162
816.7350, 1.618896
817.2170, 6.266541
817.6990, 12.15204
818.1810, 17.54059
818.6630, 23.13800
819.1450, 35.41809
819.6270, 49.20917
820.1090, 50.45233
820.5920, 26.94165
821.0740, 11.68304
821.5560, 9.549194
822.0380, 16.81873
822.5200, 29.62097
823.0020, 46.63739
823.4840, 55.31433
823.9660, 50.10071
824.4480, 39.99152
824.9310, 29.59650
825.4130, 22.06567
825.8950, 23.12396
826.3770, 53.05341
826.8590, 70.25500
827.3410, 51.15369
827.8230, 17.06555
828.3050, 2.932556
828.7870, 13.90869
829.2700, 26.77606
829.7520, 39.37042
830.2340, 48.13611
830.7160, 44.95990
831.1980, 32.60779
831.6800, 20.05377
832.1620, 7.061035
832.6440, 1.1353000E-02
833.1270, 8.825867
833.6090, 25.32849
834.0910, 35.61017
834.5730, 31.33209
835.0550, 27.94012
835.5370, 27.24139
836.0190, 27.76074
836.5010, 27.77527
836.9840, 27.32306
837.4660, 21.95294
837.9480, 8.592102
838.4300, 5.215698
838.9120, 10.01813
839.3940, 8.196228
839.8760, 4.506897
840.3580, 3.147400
840.8410, 3.216125
841.3230, 27.17578
841.8050, 53.73975
842.2870, 57.65784
842.7690, 26.48914
843.2510, 8.822571
843.7330, 13.89185
844.2150, 30.64679
844.6970, 44.67334
845.1800, 53.49670
845.6620, 48.81165
846.1440, 22.99664
846.6260, 0.9373170
847.1080, 4.484863
847.5900, 4.622070
848.0720, 15.88507
848.5540, 33.73914
849.0360, 43.69427
849.5190, 42.55750
850.0010, 35.99774
850.4830, 30.61011
850.9650, 26.38757
851.4470, 24.16211
851.9290, 23.84070
852.4110, 26.53729
852.8930, 40.47913
853.3750, 56.21692
853.8580, 56.45990
854.3400, 25.22693
854.8220, 3.890991
855.3040, 15.92828
855.7860, 39.26495
856.2680, 50.01776
856.7500, 43.48169
857.2320, 40.03668
857.7140, 41.36279
858.1970, 44.29498
858.6790, 46.43329
859.1610, 47.08575
859.6430, 42.78546
860.1250, 31.64117
860.6070, 23.57605
861.0890, 29.93805
861.5710, 39.96118
862.0540, 43.33734
862.5360, 34.69873
863.0180, 26.95819
863.5000, 17.67676
863.9820, 13.05859
864.4640, 23.86243
864.9460, 47.87939
865.4280, 52.00153
865.9110, 32.77240
866.3930, 13.93530
866.8750, 20.24988
867.3570, 36.00403
867.8390, 43.50775
868.3210, 39.50073
868.8030, 33.84796
869.2850, 25.89618
869.7670, 20.67584
870.2500, 20.55811
870.7320, 24.79315
871.2140, 24.52820
871.6960, 18.78442
872.1780, 16.03882
872.6600, 31.12219
873.1420, 50.05670
873.6240, 43.13837
874.1060, 10.95312
874.5890, 10.78973
875.0710, 6.984131
875.5530, 30.17627
876.0350, 38.84558
876.5170, 33.29980
876.9990, 32.36853
877.4810, 37.62445
877.9630, 42.47766
878.4450, 42.93298
878.9280, 40.49646
879.4100, 41.52399
879.8920, 44.80933
880.3740, 43.38599
880.8560, 26.83429
881.3380, 10.11023
881.8200, 1.513367
882.3020, 1.002686
882.7840, 6.635010
883.2670, 24.82941
883.7490, 35.70099
884.2310, 30.83362
884.7130, 16.40936
885.1950, 11.84125
885.6770, 16.08917
886.1590, 20.93115
886.6410, 23.06830
887.1240, 23.80853
887.6060, 18.30084
888.0880, 12.71625
888.5700, 20.82172
889.0520, 77.35132
889.5340, 105.3380
890.0160, 80.29266
890.4980, 31.29095
890.9810, 13.98792
891.4630, 28.11389
891.9450, 38.32996
892.4270, 35.10010
892.9090, 27.50635
893.3910, 23.12067
893.8730, 22.49005
894.3550, 26.94141
894.8380, 42.98846
895.3200, 53.80255
895.8020, 54.63080
896.2840, 49.49451
896.7660, 39.48572
897.2480, 22.67773
897.7300, 15.09680
898.2120, 18.39178
898.6940, 28.71240
899.1770, 52.33228
899.6590, 76.35712
900.1410, 75.34210
900.6230, 41.37720
901.1050, 9.581421
901.5870, 11.55328
902.0690, 19.98151
902.5510, 12.59460
903.0330, 14.88116
903.5160, 29.47705
903.9980, 29.07001
904.4800, 25.45392
904.9620, 28.07300
905.4440, 34.18726
905.9260, 35.09467
906.4080, 31.20508
906.8900, 30.39368
907.3720, 45.46234
907.8550, 57.20215
908.3370, 50.30811
908.8190, 26.74823
909.3010, 16.42334
909.7830, 23.60065
910.2650, 29.49811
910.7470, 24.03467
911.2290, 13.62744
911.7110, 15.32220
912.1940, 26.65723
912.6760, 37.48126
913.1580, 45.39087
913.6400, 48.44623
914.1220, 39.01471
914.6040, 24.49432
915.0860, 26.19208
915.5680, 56.94983
916.0510, 72.48883
916.5330, 61.02594
917.0150, 37.05304
917.4970, 22.86743
917.9790, 17.47882
918.4610, 18.33032
918.9430, 27.01807
919.4250, 35.85687
919.9070, 40.07788
920.3900, 41.44495
920.8720, 42.05920
921.3540, 43.72260
921.8360, 40.79614
922.3180, 30.50781
922.8000, 21.14557
923.2820, 23.94952
923.7640, 35.41827
924.2470, 39.59326
924.7290, 34.93060
925.2110, 28.10767
925.6930, 24.69678
926.1750, 20.54504
926.6570, 9.205750
927.1390, 12.52216
927.6210, 17.47418
928.1040, 1.506104
928.5860, 24.55579
929.0680, 44.06116
929.5500, 59.31757
930.0320, 63.35706
930.5140, 57.18250
930.9960, 48.39697
931.4780, 36.83740
931.9600, 29.13098
932.4430, 31.10858
932.9250, 40.43365
933.4070, 43.74408
933.8890, 36.27332
934.3710, 31.90863
934.8530, 34.71283
935.3350, 41.61932
935.8170, 42.66217
936.2990, 40.07593
936.7820, 42.31866
937.2640, 56.38715
937.7460, 67.18060
938.2280, 57.75592
938.7100, 41.05096
939.1920, 35.17200
939.6740, 53.11981
940.1560, 59.30841
940.6380, 47.60193
941.1210, 34.84924
941.6030, 45.13550
942.0850, 70.41949
942.5670, 74.98138
943.0490, 54.55316
943.5310, 32.88275
944.0130, 26.31415
944.4950, 25.51245
944.9770, 23.67749
945.4600, 19.92157
945.9420, 17.90839
946.4240, 18.60803
946.9060, 18.68359
947.3880, 15.53290
947.8700, 10.74115
948.3520, 6.793213
948.8340, 4.991150
949.3170, 11.91095
949.7990, 41.60461
950.2810, 70.83014
950.7630, 88.83844
951.2450, 95.34662
951.7270, 91.67529
952.2090, 75.21985
952.6910, 53.37054
953.1740, 23.61804
953.6560, 3.261597
954.1380, 5.141113
954.6200, 10.60864
955.1020, 25.76215
955.5840, 36.87750
956.0660, 42.83820
956.5480, 36.70178
957.0310, 29.09320
957.5130, 31.67950
957.9950, 50.62360
958.4770, 57.86353
958.9590, 51.62128
959.4410, 40.40857
959.9230, 28.66528
960.4050, 20.08734
960.8870, 23.51978
961.3700, 37.49823
961.8520, 47.05969
962.3340, 41.25250
962.8160, 32.69952
963.2980, 26.34961
963.7800, 22.34375
964.2620, 21.79584
964.7440, 25.39392
965.2260, 27.52606
965.7090, 25.57690
966.1910, 21.68378
966.6730, 17.66168
967.1550, 14.32861
967.6370, 13.51752
968.1190, 19.83746
968.6010, 23.67731
969.0830, 21.57928
969.5650, 17.12518
970.0480, 10.15015
970.5300, 0.6129150
971.0120, 17.63623
971.4940, 73.54047
971.9760, 121.0956
972.4580, 102.2229
972.9400, 56.81506
973.4220, 31.77838
973.9040, 35.95660
974.3870, 38.51685
974.8690, 28.65619
975.3510, 22.68652
975.8330, 29.80377
976.3150, 47.56360
976.7970, 58.07025
977.2790, 61.72601
977.7610, 64.87677
978.2440, 76.24438
978.7260, 83.87921
979.2080, 72.73792
979.6900, 50.43481
980.1720, 37.23456
980.6540, 44.33331
981.1360, 44.89923
981.6180, 33.08105
982.1010, 17.46545
982.5830, 11.94165
983.0650, 13.66705
983.5470, 15.69287
984.0290, 17.51538
984.5110, 16.96399
984.9930, 3.124207
985.4750, 10.93066
985.9570, 10.46417
986.4400, 5.956177
986.9220, 21.83148
987.4040, 39.54901
987.8860, 48.16943
988.3680, 33.18384
988.8500, 6.585327
989.3320, 8.756104
989.8140, 12.43268
990.2960, 3.192017
990.7790, 46.58148
991.2610, 78.68890
991.7430, 53.79950
992.2250, 2.606140
992.7070, 7.187134
993.1890, 29.11334
993.6710, 57.40594
994.1530, 66.25061
994.6350, 65.11041
995.1180, 62.23120
995.6000, 57.86914
996.0820, 51.90613
996.5640, 42.91315
997.0460, 36.81335
997.5280, 35.88361
998.0100, 36.20898
998.4920, 36.27643
998.9740, 35.82397
999.4570, 29.50061
999.9390, 17.69641
1000.421, 7.922302
1000.903, 4.546265
1001.385, 5.406311
1001.867, 12.16852
1002.349, 22.38379
1002.831, 25.25714
1003.314, 15.89172
1003.796, 9.820313
1004.278, 10.68506
1004.760, 15.03998
1005.242, 17.18390
1005.724, 18.04108
1006.206, 20.82434
1006.688, 27.62378
1007.171, 31.72437
1007.653, 29.34906
1008.135, 23.10999
1008.617, 13.04492
1009.099, 3.127991
1009.581, 1.599609
1010.063, 20.01581
1010.545, 41.02246
1011.027, 46.05322
1011.510, 42.63861
1011.992, 41.41150
1012.474, 42.00873
1012.956, 39.23328
1013.438, 21.84082
1013.920, 14.56671
1014.402, 28.36279
1014.884, 49.14307
1015.367, 43.92651
1015.849, 17.33423
1016.331, 12.07111
1016.813, 43.22015
1017.295, 71.19366
1017.777, 53.95276
1018.259, 23.23773
1018.741, 10.73413
1019.223, 24.84668
1019.706, 31.66241
1020.188, 28.97839
1020.670, 25.20447
1021.152, 24.92877
1021.634, 27.67133
1022.116, 34.76801
1022.598, 45.07281
1023.080, 50.29718
1023.563, 33.97937
1024.045, 26.67065
1024.527, 48.60309
1025.009, 80.82574
1025.491, 89.90448
1025.973, 74.87036
1026.455, 58.63239
1026.937, 43.97858
1027.419, 33.17383
1027.901, 26.80841
1028.384, 26.64386
1028.866, 39.24567
1029.348, 69.92761
1029.830, 81.02625
1030.312, 61.06818
1030.794, 39.40729
1031.276, 29.91968
1031.758, 29.65918
1032.241, 29.50580
1032.723, 29.48767
1033.205, 29.68964
1033.687, 30.65753
1034.169, 31.82910
1034.651, 35.67749
1035.133, 39.10602
1035.615, 35.41760
1036.098, 21.64734
1036.580, 18.29010
1037.062, 28.76007
1037.544, 39.22809
1038.026, 34.41223
1038.508, 22.03040
1038.990, 10.19275
1039.472, 0.1667480
1039.954, 5.252747
1040.437, 1.365234
1040.919, 4.513245
1041.401, 4.403076
1041.883, 18.03217
1042.365, 10.11108
1042.847, 15.07587
1043.329, 35.57318
1043.811, 43.30109
1044.293, 47.74658
1044.776, 53.70422
1045.258, 58.39905
1045.740, 58.65607
1046.222, 54.22931
1046.704, 44.06665
1047.186, 25.30908
1047.668, 12.93964
1048.150, 27.38007
1048.633, 51.42743
1049.115, 61.91498
1049.597, 58.99976
1050.079, 50.66193
1050.561, 29.11102
1051.043, 15.59076
1051.525, 14.98486
1052.007, 23.48914
1052.490, 38.96588
1052.972, 58.09790
1053.454, 61.01428
1053.936, 38.65692
1054.418, 19.14685
1054.900, 24.76306
1055.382, 39.67261
1055.864, 52.16345
1056.346, 62.21466
1056.828, 63.15118
1057.311, 53.57098
1057.793, 44.01910
1058.275, 39.93353
1058.757, 40.02222
1059.239, 44.21234
1059.721, 50.95563
1060.203, 56.35919
1060.685, 54.63507
1061.168, 59.24634
1061.650, 76.86688
1062.132, 93.65063
1062.614, 88.85510
1063.096, 67.65173
1063.578, 52.28107
1064.060, 45.10809
1064.542, 40.44727
1065.025, 35.72388
1065.507, 31.47467
1065.989, 27.84375
1066.471, 24.94916
1066.953, 23.51227
1067.435, 23.77063
1067.917, 26.61584
1068.399, 33.19342
1068.881, 40.37830
1069.364, 42.58295
1069.846, 43.75385
1070.328, 50.36096
1070.810, 69.87134
1071.292, 80.45679
1071.774, 80.69080
1072.256, 74.03815
1072.738, 58.47577
1073.220, 38.33167
1073.703, 31.10181
1074.185, 34.68018
1074.667, 38.57587
1075.149, 38.33276
1075.631, 36.50201
1076.113, 33.12518
1076.595, 29.24133
1077.077, 26.94873
1077.559, 26.29138
1078.042, 24.99536
1078.524, 23.01575
1079.006, 18.31738
1079.488, 2.140320
1079.970, 12.48157
1080.452, 11.33636
1080.934, 7.947693
1081.416, 19.39880
1081.899, 21.24115
1082.381, 20.39850
1082.863, 18.10052
1083.345, 16.42682
1083.827, 22.54932
1084.309, 31.35175
1084.791, 31.56049
1085.273, 9.258423
1085.755, 0.9515990
1086.238, 23.57227
1086.720, 47.72906
1087.202, 48.37244
1087.684, 29.00134
1088.166, 26.73474
1088.648, 39.72125
1089.130, 48.12189
1089.612, 37.03070
1090.094, 21.46259
1090.577, 2.172668
1091.059, 13.50909
1091.541, 8.095276
1092.023, 22.31964
1092.505, 42.88861
1092.987, 48.47888
1093.469, 45.69312
1093.951, 32.77551
1094.434, 20.28302
1094.916, 22.51978
1095.398, 41.43152
1095.880, 51.18042
1096.362, 47.70630
1096.844, 41.33624
1097.326, 33.99176
1097.808, 27.54352
1098.291, 27.16205
1098.773, 31.39465
1099.255, 39.05457
1099.737, 52.74493
1100.219, 56.64783
1100.701, 36.48932
1101.183, 17.13379
1101.665, 16.06848
1102.147, 31.41913
1102.630, 45.38092
1103.112, 57.29767
1103.594, 63.03790
1104.076, 51.06830
1104.558, 39.47473
1105.040, 45.04700
1105.522, 56.64166
1106.004, 51.44855
1106.486, 24.53723
1106.969, 16.48474
1107.451, 32.01947
1107.933, 55.70612
1108.415, 85.92395
1108.897, 107.8306
1109.379, 98.94525
1109.861, 61.43231
1110.343, 38.96179
1110.826, 39.73615
1111.308, 38.59448
1111.790, 26.97870
1112.272, 15.11389
1112.754, 24.93018
1113.236, 44.46228
1113.718, 49.85443
1114.200, 32.00842
1114.682, 18.56128
1115.165, 18.15204
1115.647, 19.57379
1116.129, 16.68530
1116.611, 11.44373
1117.093, 13.73291
1117.575, 21.44592
1118.057, 25.45483
1118.539, 18.64447
1119.021, 11.59802
1119.504, 8.407288
1119.986, 7.434448
1120.468, 6.372314
1120.950, 4.914978
1121.432, 12.16632
1121.914, 28.24341
1122.396, 39.94043
1122.878, 31.81018
1123.361, 21.36365
1123.843, 24.82898
1124.325, 36.43823
1124.807, 35.02222
1125.289, 15.46753
1125.771, 6.863586
1126.253, 15.41638
1126.735, 25.76996
1127.218, 17.97723
1127.700, 4.106323
1128.182, 2.246094
1128.664, 0.5562130
1129.146, 10.16309
1129.628, 32.89069
1130.110, 44.51495
1130.592, 33.57690
1131.074, 13.65967
1131.557, 10.67200
1132.039, 17.68622
1132.521, 18.83582
1133.003, 6.297424
1133.485, 3.092651
1133.967, 18.58252
1134.449, 37.84918
1134.931, 54.87445
1135.413, 69.09558
1135.896, 78.51276
1136.378, 82.63885
1136.860, 79.39874
1137.342, 60.61334
1137.824, 43.12494
1138.306, 31.49994
1138.788, 27.89612
1139.270, 37.61993
1139.752, 61.16058
1140.235, 67.66278
1140.717, 57.30664
1141.199, 43.87000
1141.681, 28.30127
1142.163, 21.09534
1142.645, 41.91077
1143.127, 73.07355
1143.609, 68.41931
1144.092, 21.25781
1144.574, 4.035461
1145.056, 1.791870
1145.538, 19.37146
1146.020, 41.47620
1146.502, 58.38898
1146.984, 56.69263
1147.466, 37.12732
1147.948, 25.29785
1148.431, 23.08203
1148.913, 22.40833
1149.395, 23.15942
1149.877, 24.02386
1150.359, 20.61841
1150.841, 16.60101
1151.323, 17.42755
1151.805, 25.15326
1152.287, 32.03992
1152.770, 37.94696
1153.252, 41.94556
1153.734, 43.67297
1154.216, 43.18634
1154.698, 42.21362
1155.180, 38.92627
1155.662, 28.34601
1156.144, 0.6032710
1156.627, 16.56335
1157.109, 13.20007
1157.591, 2.166870
1158.073, 7.933899
1158.555, 18.92841
1159.037, 48.55450
1159.519, 88.03955
1160.001, 101.1592
1160.484, 38.06567
1160.966, 9.870056
1161.448, 16.47607
1161.930, 2.244202
1162.412, 17.81232
1162.894, 40.85364
1163.376, 43.65765
1163.858, 26.57239
1164.340, 13.67828
1164.823, 26.76654
1165.305, 38.24231
1165.787, 34.34387
1166.269, 22.64697
1166.751, 15.63391
1167.233, 13.21753
1167.715, 15.49664
1168.197, 22.79156
1168.679, 30.85321
1169.162, 41.34149
1169.644, 47.00580
1170.126, 35.35303
1170.608, 14.61176
1171.090, 21.65643
1171.572, 56.97144
1172.054, 76.06409
1172.536, 63.63324
1173.019, 46.07996
1173.501, 43.44244
1173.983, 48.85175
1174.465, 58.33759
1174.947, 71.22687
1175.429, 77.55133
1175.911, 76.90631
1176.393, 73.85571
1176.875, 70.02747
1177.358, 65.09247
1177.840, 54.08643
1178.322, 44.11896
1178.804, 46.43237
1179.286, 65.55090
1179.768, 79.28180
1180.250, 87.57031
1180.732, 89.96643
1181.214, 83.01874
1181.697, 72.99146
1182.179, 65.97461
1182.661, 61.69647
1183.143, 60.08398
1183.625, 65.24036
1184.107, 62.16425
1184.589, 48.97687
1185.071, 34.72113
1185.554, 22.23700
1186.036, 15.84741
1186.518, 28.39868
1187.000, 53.25592
1187.482, 67.48169
1187.964, 61.72595
1188.446, 58.73181
1188.928, 62.78510
1189.411, 62.59113
1189.893, 36.89795
1190.375, 4.703674
1190.857, 0.4408570
1191.339, 18.22742
1191.821, 28.78796
1192.303, 18.59344
1192.785, 11.90167
1193.267, 12.39355
1193.750, 18.60376
1194.232, 31.76514
1194.714, 47.85229
1195.196, 64.35126
1195.678, 80.51532
1196.160, 75.86664
1196.642, 25.53760
1197.124, 6.056091
1197.606, 3.669800
1198.089, 29.63306
1198.571, 22.99414
1199.053, 1.136292
1199.535, 0.5161130
1200.017, 31.50275
1200.499, 53.44031
1200.981, 57.14087
1201.463, 51.95087
1201.945, 36.64307
1202.428, 19.82745
1202.910, 25.54700
1203.392, 44.74872
1203.874, 58.97980
1204.356, 64.84381
1204.838, 60.01288
1205.320, 35.63916
1205.802, 16.20184
1206.285, 16.61194
1206.767, 29.05713
1207.249, 35.67810
1207.731, 37.42773
1208.213, 36.19720
1208.695, 29.55957
1209.177, 26.37592
1209.659, 26.81329
1210.141, 31.23511
1210.624, 46.71313
1211.106, 67.87695
1211.588, 72.24475
1212.070, 63.99805
1212.552, 54.30511
1213.034, 52.65521
1213.516, 52.39221
1213.998, 54.41632
1214.480, 54.20203
1214.963, 44.45300
1215.445, 30.09631
1215.927, 27.76080
1216.409, 35.23462
1216.891, 42.76343
1217.373, 45.63623
1217.855, 49.91412
1218.337, 59.12640
1218.820, 65.66583
1219.302, 58.11182
1219.784, 42.32825
1220.266, 36.93719
1220.748, 40.14276
1221.230, 37.86694
1221.712, 4.892700
1222.194, 2.950867
1222.677, 34.21570
1223.159, 80.19342
1223.641, 85.28284
1224.123, 65.24585
1224.605, 58.57745
1225.087, 66.49030
1225.569, 70.65552
1226.051, 63.80359
1226.533, 51.49329
1227.016, 30.46680
1227.498, 11.42969
1227.980, 15.90955
1228.462, 32.58325
1228.944, 38.27539
1229.426, 30.75574
1229.908, 23.82452
1230.390, 16.91071
1230.872, 18.71631
1231.355, 33.58893
1231.837, 49.95465
1232.319, 44.89221
1232.801, 28.96741
1233.283, 23.63879
1233.765, 32.43359
1234.247, 39.11749
1234.729, 38.05939
1235.212, 39.43579
1235.694, 46.96014
1236.176, 56.86285
1236.658, 67.50171
1237.140, 74.11548
1237.622, 64.77026
1238.104, 34.68146
1238.586, 16.34412
1239.068, 15.58923
1239.551, 19.13196
1240.033, 23.05341
1240.515, 27.56323
1240.997, 35.91351
1241.479, 43.96320
1241.961, 42.43713
1242.443, 25.44531
1242.925, 25.95959
1243.407, 56.72205
1243.890, 76.08466
1244.372, 62.05341
1244.854, 36.55365
1245.336, 34.47021
1245.818, 41.84955
1246.300, 38.08868
1246.782, 14.31830
1247.264, 1.405762
1247.747, 9.681091
1248.229, 5.091858
1248.711, 22.73187
1249.193, 52.63214
1249.675, 55.55963
1250.157, 45.42169
1250.639, 43.69818
1251.121, 56.59174
1251.604, 53.33478
1252.086, 31.68866
1252.568, 14.43048
1253.050, 14.76532
1253.532, 23.44220
1254.014, 36.56476
1254.496, 49.39240
1254.978, 54.66400
1255.460, 48.01300
1255.943, 32.24286
1256.425, 27.87970
1256.907, 24.27338
1257.389, 23.13953
1257.871, 21.15686
1258.353, 10.57617
1258.835, 0.8963010
1259.317, 2.115479
1259.799, 17.42346
1260.281, 19.95227
1260.764, 9.815796
1261.246, 1.174255
1261.728, 11.26440
1262.210, 19.71240
1262.692, 12.33356
1263.174, 0.0000000E+00
##END=



