##NAMES=Aurichalcite
##RRUFFID=R050297
##IDEAL CHEMISTRY=Zn^2+^_5_(CO_3_)_2_(OH)_6_
##LOCALITY=79 mine, 4th level, Hayden, Gila County, Arizona, USA
##OWNER=RRUFF
##SOURCE=George Godas, John Callahan
##DESCRIPTION=Sprays of greenish blue lathlike crystals
##STATUS=The identification of this mineral has been confirmed by X-ray diffraction and chemical analysis
##URL=rruff.info/R050297
##MEASURED CHEMISTRY=(Zn_0.68_Cu_0.32_)_5_(CO_3_)_2_(OH)_6_
114.2187, 0.0000000E+00
114.7008, 8.3309999E-03
115.1829, 0.1941050
115.6650, 0.4203270
116.1471, 0.5843680
116.6293, 0.6740440
117.1114, 0.6491930
117.5935, 0.4250150
118.0756, 0.2532780
118.5577, 0.2292030
119.0398, 0.3018630
119.5220, 0.3365880
120.0041, 0.2308090
120.4862, 9.1761999E-02
120.9683, 0.1560600
121.4504, 0.5344140
121.9325, 0.9244210
122.4147, 1.041719
122.8968, 0.8606240
123.3789, 0.7169250
123.8610, 0.8462420
124.3431, 1.079922
124.8252, 1.267540
125.3074, 1.359894
125.7895, 1.383879
126.2716, 1.384109
126.7537, 1.322505
127.2358, 1.308877
127.7179, 1.376317
128.2001, 1.502195
128.6822, 1.665251
129.1643, 1.861646
129.6464, 2.085032
130.1285, 2.244658
130.6106, 2.215158
131.0928, 2.240539
131.5749, 2.442969
132.0570, 2.755560
132.5391, 3.036256
133.0212, 3.158370
133.5033, 3.107686
133.9855, 2.958543
134.4676, 2.521297
134.9497, 2.159481
135.4318, 2.131648
135.9139, 2.438451
136.3960, 2.837568
136.8782, 3.069119
137.3603, 3.103714
137.8424, 3.064749
138.3245, 2.934701
138.8066, 2.743562
139.2887, 2.494182
139.7709, 2.164660
140.2530, 1.870735
140.7351, 1.797217
141.2172, 1.920400
141.6993, 2.043362
142.1814, 2.098843
142.6636, 2.091033
143.1457, 2.025180
143.6278, 1.853210
144.1099, 1.679114
144.5920, 1.597724
145.0741, 1.609045
145.5563, 1.633236
146.0384, 1.601979
146.5205, 1.511429
147.0026, 1.407552
147.4847, 1.224723
147.9668, 1.135965
148.4490, 1.181084
148.9311, 1.348577
149.4132, 1.557613
149.8953, 1.619520
150.3774, 1.491487
150.8595, 1.370833
151.3417, 1.286959
151.8238, 1.243526
152.3059, 1.222896
152.7880, 1.168272
153.2701, 1.133034
153.7522, 1.212798
154.2344, 1.527608
154.7165, 1.958444
155.1986, 2.358228
155.6807, 2.727237
156.1628, 2.927475
156.6449, 2.866138
157.1271, 2.621334
157.6092, 2.591704
158.0913, 2.993327
158.5734, 3.324955
159.0555, 3.408790
159.5376, 3.310013
160.0198, 3.190460
160.5019, 3.119923
160.9840, 3.111079
161.4661, 3.182423
161.9482, 3.453384
162.4303, 3.681797
162.9125, 3.626259
163.3946, 3.298737
163.8767, 3.057644
164.3588, 3.216177
164.8409, 3.574790
165.3230, 3.796096
165.8052, 3.753112
166.2873, 3.570850
166.7694, 3.469331
167.2515, 3.510135
167.7336, 3.426505
168.2157, 2.892146
168.6979, 2.211461
169.1800, 1.759532
169.6621, 1.756202
170.1442, 2.034847
170.6263, 2.142871
171.1084, 1.993327
171.5906, 1.797483
172.0727, 1.578300
172.5548, 1.372869
173.0369, 1.230229
173.5190, 1.179172
174.0011, 1.216527
174.4833, 1.319177
174.9654, 1.644085
175.4475, 1.870499
175.9296, 1.947453
176.4117, 1.878301
176.8938, 1.656170
177.3760, 1.248839
177.8581, 0.6455780
178.3402, 0.2844150
178.8223, 0.3618640
179.3044, 0.4587470
179.7865, 0.4361820
180.2687, 0.3049500
180.7508, 0.1270190
181.2329, 6.6781998E-02
181.7150, 0.2868970
182.1971, 0.2746210
182.6792, 0.1937440
183.1614, 0.6733470
183.6435, 0.9322420
184.1256, 0.9530930
184.6077, 0.8123180
185.0898, 0.5247920
185.5719, 8.3950996E-02
186.0540, 0.1933040
186.5362, 0.2192170
187.0183, 0.1248980
187.5004, 1.1917000E-02
187.9825, 0.1889630
188.4646, 0.3162030
188.9467, 0.2576380
189.4289, 6.8755001E-02
189.9110, 5.9595998E-02
190.3931, 2.1234000E-02
190.8752, 9.6216001E-02
191.3573, 0.1609620
191.8394, 0.1590310
192.3216, 0.1157820
192.8037, 5.4504000E-02
193.2858, 2.8477000E-02
193.7679, 0.1517250
194.2500, 0.4554010
194.7321, 0.8198410
195.2143, 0.8145080
195.6964, 0.1932450
196.1785, 0.4369680
196.6606, 0.7856890
197.1427, 0.8991050
197.6248, 0.8630010
198.1070, 0.6330120
198.5891, 0.2492890
199.0712, 0.1537800
199.5533, 0.6954410
200.0354, 1.149960
200.5175, 1.173194
200.9997, 0.8889810
201.4818, 0.5935710
201.9639, 0.5255670
202.4460, 0.6904210
202.9281, 0.8153360
203.4102, 0.8844860
203.8924, 0.9250520
204.3745, 0.8863040
204.8566, 0.8159280
205.3387, 0.8318730
205.8208, 1.065362
206.3029, 1.563093
206.7851, 1.826452
207.2672, 1.738026
207.7493, 1.557678
208.2314, 1.341716
208.7135, 1.114860
209.1956, 0.8972020
209.6778, 0.7013910
210.1599, 0.5216830
210.6420, 0.4306570
211.1241, 0.4308920
211.6062, 0.4966270
212.0883, 0.6758580
212.5705, 0.9332890
213.0526, 1.138173
213.5347, 1.169796
214.0168, 1.003240
214.4989, 0.8120910
214.9810, 0.5368210
215.4632, 0.2839160
215.9453, 0.1105980
216.4274, 2.3510000E-02
216.9095, 2.4137000E-02
217.3916, 0.1407300
217.8737, 0.3755910
218.3559, 0.5421730
218.8380, 0.6275720
219.3201, 0.6506030
219.8022, 0.5983610
220.2843, 0.4704560
220.7664, 0.3587550
221.2486, 0.3474460
221.7307, 0.4182290
222.2128, 0.4885660
222.6949, 0.5808880
223.1770, 0.6499560
223.6591, 0.6084670
224.1413, 0.4324850
224.6234, 0.2992280
225.1055, 0.3924870
225.5876, 0.6174470
226.0697, 0.8086810
226.5518, 0.9052860
227.0340, 0.9535760
227.5161, 1.037941
227.9982, 1.184844
228.4803, 1.273882
228.9624, 1.202015
229.4445, 1.038797
229.9267, 0.8601420
230.4088, 0.6788180
230.8909, 0.5088800
231.3730, 0.3624900
231.8551, 0.2057410
232.3372, 0.1668780
232.8194, 0.4042710
233.3015, 0.7447790
233.7836, 0.9854090
234.2657, 1.029904
234.7478, 0.9477740
235.2299, 0.8945900
235.7121, 0.8910230
236.1942, 0.8736650
236.6763, 0.8078950
237.1584, 0.7280460
237.6405, 0.6712430
238.1227, 0.6542220
238.6048, 0.6689950
239.0869, 0.6700960
239.5690, 0.6350740
240.0511, 0.5989940
240.5332, 0.6063550
241.0154, 0.6057620
241.4975, 0.5482430
241.9796, 0.4119170
242.4617, 0.2488170
242.9438, 0.1910400
243.4259, 0.2788700
243.9081, 0.4020310
244.3902, 0.6993350
244.8723, 0.9791490
245.3544, 1.001722
245.8365, 0.6766840
246.3186, 0.1887240
246.8007, 2.8766001E-02
247.2829, 0.2575880
247.7650, 0.4880930
248.2471, 0.6640910
248.7292, 0.7816360
249.2113, 0.8039660
249.6934, 0.7249250
250.1756, 0.6080630
250.6577, 0.5833080
251.1398, 0.8047850
251.6219, 0.8809440
252.1040, 0.6561960
252.5861, 0.3537940
253.0683, 0.2292830
253.5504, 0.3802910
254.0325, 0.6327020
254.5146, 0.7042150
254.9967, 0.4063850
255.4788, 0.2747810
255.9610, 0.4929370
256.4431, 0.7684990
256.9252, 0.8254910
257.4073, 0.6108790
257.8894, 0.2903600
258.3716, 8.0789000E-02
258.8537, 5.2169999E-03
259.3358, 2.2891000E-02
259.8179, 0.2001210
260.3000, 0.4317510
260.7821, 0.6735220
261.2643, 0.9074270
261.7464, 1.031763
262.2285, 0.8951450
262.7106, 0.4058910
263.1927, 0.1210430
263.6748, 0.1824980
264.1570, 0.3671230
264.6391, 0.5128910
265.1212, 0.5977500
265.6033, 0.6429000
266.0854, 0.6642880
266.5675, 0.6587090
267.0497, 0.6297330
267.5318, 0.5570020
268.0139, 0.4742960
268.4960, 0.4045100
268.9781, 0.3501980
269.4602, 0.3112820
269.9424, 0.2868630
270.4245, 0.2797690
270.9066, 0.2954120
271.3887, 0.3631810
271.8708, 0.4322860
272.3529, 0.4667750
272.8351, 0.4663100
273.3172, 0.4421000
273.7993, 0.3932900
274.2814, 0.3234430
274.7635, 0.2512830
275.2456, 0.1657690
275.7278, 0.1132750
276.2099, 0.1165310
276.6920, 0.1820710
277.1741, 0.2736010
277.6562, 0.3964540
278.1383, 0.5182760
278.6204, 0.5864060
279.1025, 0.5893950
279.5847, 0.5555350
280.0668, 0.4582190
280.5489, 0.3299010
281.0310, 0.3560260
281.5131, 0.7286570
281.9952, 1.150476
282.4774, 1.169424
282.9595, 0.7170690
283.4416, 0.2873430
283.9237, 0.2238150
284.4058, 0.4429690
284.8879, 0.5995800
285.3701, 0.6064140
285.8522, 0.5276690
286.3343, 0.4033260
286.8164, 0.2536160
287.2985, 0.1652130
287.7806, 0.2192500
288.2628, 0.3877690
288.7449, 0.5543460
289.2270, 0.7386190
289.7091, 0.8494070
290.1912, 0.7644150
290.6733, 0.5410170
291.1555, 0.3700160
291.6376, 0.3659860
292.1197, 0.4740550
292.6018, 0.5725590
293.0839, 0.6622170
293.5660, 0.7262730
294.0482, 0.7938030
294.5303, 0.8293690
295.0124, 0.7410740
295.4945, 0.3518280
295.9766, 0.1064900
296.4587, 0.1525280
296.9409, 0.3475380
297.4230, 0.8164280
297.9051, 0.9429120
298.3872, 0.8783790
298.8693, 0.7570740
299.3514, 0.5835570
299.8336, 0.4245470
300.3157, 0.3576420
300.7978, 0.3832260
301.2799, 0.5070430
301.7620, 0.9352250
302.2441, 1.354789
302.7263, 1.435805
303.2084, 1.079529
303.6905, 0.6199330
304.1726, 0.3932630
304.6547, 0.4044470
305.1368, 0.4394160
305.6190, 0.4303770
306.1011, 0.4268560
306.5832, 0.4508180
307.0653, 0.5060920
307.5474, 0.6209730
308.0295, 0.8894600
308.5117, 1.286409
308.9938, 1.508368
309.4759, 1.455451
309.9580, 1.274615
310.4401, 1.025908
310.9222, 0.7352360
311.4044, 0.4887060
311.8865, 0.3434700
312.3686, 0.2882130
312.8507, 0.2772970
313.3328, 0.3289500
313.8149, 0.3941680
314.2971, 0.4370250
314.7792, 0.4729180
315.2613, 0.5346500
315.7434, 0.6583770
316.2255, 0.8023410
316.7076, 0.8792560
317.1898, 0.8833700
317.6719, 0.8394540
318.1540, 0.6852870
318.6361, 0.5167330
319.1182, 0.4604270
319.6003, 0.5829790
320.0825, 0.7463380
320.5646, 0.7298490
321.0467, 0.4910150
321.5288, 0.3381310
322.0109, 0.4461750
322.4930, 0.6352750
322.9752, 0.7694260
323.4573, 0.8265000
323.9394, 0.8721250
324.4215, 1.026790
324.9036, 1.284160
325.3857, 1.324878
325.8679, 0.9163230
326.3500, 0.4473930
326.8321, 0.1602140
327.3142, 5.4636002E-02
327.7963, 7.7869996E-02
328.2784, 0.2886260
328.7606, 0.6268310
329.2427, 0.7850750
329.7248, 0.6659450
330.2069, 0.5017510
330.6890, 0.4605990
331.1711, 0.4835010
331.6533, 0.4368010
332.1354, 0.1833580
332.6175, 0.1386180
333.0996, 0.2104940
333.5817, 5.2432999E-02
334.0638, 0.2913690
334.5460, 0.3035350
335.0281, 0.1982570
335.5102, 6.4075001E-02
335.9923, 0.1131660
336.4744, 0.2299050
336.9565, 0.1136390
337.4387, 0.2530810
337.9208, 0.5500000
338.4029, 0.6594340
338.8850, 0.6550030
339.3671, 0.5980150
339.8492, 0.4900350
340.3314, 0.3680050
340.8135, 0.2093780
341.2956, 3.7767000E-02
341.7777, 4.6686999E-02
342.2598, 0.4238690
342.7419, 0.7645600
343.2241, 0.6299190
343.7062, 0.1183800
344.1883, 0.2699140
344.6704, 0.2027810
345.1525, 0.1368570
345.6346, 0.3515170
346.1168, 0.3951200
346.5989, 0.3965960
347.0810, 0.4551560
347.5631, 0.5351750
348.0452, 0.5699430
348.5273, 0.5271070
349.0095, 0.4458040
349.4916, 0.3404990
349.9737, 0.2094430
350.4558, 0.1585940
350.9379, 0.3024630
351.4200, 0.5217880
351.9022, 0.6202130
352.3843, 0.5668960
352.8664, 0.4425230
353.3485, 0.2318120
353.8306, 3.0913999E-02
354.3127, 0.1728190
354.7949, 0.1136050
355.2770, 5.1853001E-02
355.7591, 0.2611210
356.2412, 0.5172730
356.7233, 0.6643370
357.2054, 0.5726760
357.6876, 0.3606800
358.1697, 0.1931010
358.6518, 8.4316000E-02
359.1339, 6.9776997E-02
359.6160, 0.2577250
360.0981, 0.6054440
360.5803, 0.8299210
361.0624, 0.8138730
361.5445, 0.7137960
362.0266, 0.5999890
362.5087, 0.4829960
362.9908, 0.4361420
363.4730, 0.5444810
363.9551, 0.7320320
364.4372, 0.7220850
364.9193, 0.3652510
365.4014, 9.6970998E-02
365.8835, 0.2070580
366.3657, 0.5217030
366.8478, 0.6662990
367.3299, 0.4958240
367.8120, 0.2037590
368.2941, 9.4354004E-02
368.7762, 0.1988890
369.2584, 0.3276230
369.7405, 0.4676560
370.2226, 0.6133310
370.7047, 0.7648990
371.1868, 0.9213750
371.6689, 1.071922
372.1511, 1.225345
372.6332, 1.380293
373.1153, 1.384302
373.5974, 1.058172
374.0795, 0.7721730
374.5616, 0.7166720
375.0438, 0.8480880
375.5259, 1.051820
376.0080, 1.287860
376.4901, 1.510833
376.9722, 1.550194
377.4543, 1.066626
377.9365, 0.8380550
378.4186, 1.195437
378.9007, 1.733318
379.3828, 1.990725
379.8649, 1.845695
380.3470, 1.511334
380.8292, 1.273791
381.3113, 1.142240
381.7934, 1.096867
382.2755, 1.264209
382.7576, 1.397151
383.2397, 1.280081
383.7219, 0.9817120
384.2040, 0.7590330
384.6861, 0.8236820
385.1682, 1.155390
385.6503, 1.439560
386.1324, 1.763493
386.6146, 1.932562
387.0967, 1.802534
387.5788, 1.532098
388.0609, 1.334140
388.5430, 1.298984
389.0251, 1.323155
389.5073, 1.167310
389.9894, 0.6304340
390.4715, 0.3364450
390.9536, 0.5203530
391.4357, 0.7875260
391.9178, 0.8369910
392.4000, 0.6650810
392.8821, 0.4840840
393.3642, 0.5000620
393.8463, 0.7123840
394.3284, 0.9526190
394.8105, 1.452981
395.2927, 1.728385
395.7748, 1.454959
396.2569, 0.8779850
396.7390, 0.4007770
397.2211, 0.2317410
397.7032, 0.2612270
398.1854, 0.2424420
398.6675, 0.1406730
399.1496, 9.6300997E-02
399.6317, 0.1888890
400.1138, 0.3306790
400.5959, 0.4853640
401.0780, 0.6435180
401.5602, 0.7401620
402.0423, 0.6652350
402.5244, 0.4556500
403.0065, 0.2866190
403.4886, 0.1261480
403.9707, 6.1244000E-02
404.4529, 0.2193760
404.9350, 0.5188340
405.4171, 0.7280190
405.8992, 0.7060660
406.3813, 0.5574620
406.8634, 0.4408070
407.3456, 0.3597000
407.8277, 0.2714460
408.3098, 0.1088680
408.7919, 4.8827000E-02
409.2740, 5.8341000E-02
409.7561, 0.1453690
410.2383, 0.3462070
410.7204, 0.3989660
411.2025, 0.3449550
411.6846, 0.3039170
412.1667, 0.3022530
412.6488, 0.3203450
413.1310, 0.3180820
413.6131, 0.2898320
414.0952, 0.2803970
414.5773, 0.3446870
415.0594, 0.3994100
415.5415, 0.3585570
416.0237, 0.2248420
416.5058, 4.4790000E-02
416.9879, 0.1963610
417.4700, 0.4437800
417.9521, 0.4009190
418.4342, 0.2776000
418.9164, 0.7828920
419.3985, 0.8047610
419.8806, 0.5468170
420.3627, 0.2417310
420.8448, 2.3503000E-02
421.3269, 0.1558130
421.8091, 4.8707001E-02
422.2912, 0.8398320
422.7733, 1.243386
423.2554, 1.014623
423.7375, 0.6450530
424.2196, 0.3481930
424.7018, 0.1633690
425.1839, 0.1026910
425.6660, 0.1906850
426.1481, 0.3949090
426.6302, 0.4931160
427.1123, 0.3280600
427.5945, 0.2476540
428.0766, 0.3764590
428.5587, 0.5665010
429.0408, 0.6523130
429.5229, 0.5897940
430.0050, 0.4854270
430.4872, 0.5277990
430.9693, 0.8021280
431.4514, 0.8662120
431.9335, 0.3626320
432.4156, 4.7021002E-02
432.8977, 1.0450000E-03
433.3799, 0.3677660
433.8620, 0.6601740
434.3441, 0.5949900
434.8262, 0.3181570
435.3083, 0.2847320
435.7904, 0.6153990
436.2726, 0.8546750
436.7547, 0.7328120
437.2368, 0.5022330
437.7189, 0.3830470
438.2010, 0.4201750
438.6831, 0.5019770
439.1653, 0.5261060
439.6474, 0.5090410
440.1295, 0.5514540
440.6116, 0.6988130
441.0937, 0.8492690
441.5758, 0.9122050
442.0580, 0.9074250
442.5401, 0.8854540
443.0222, 0.8481110
443.5043, 0.8080100
443.9864, 0.7570840
444.4685, 0.7027650
444.9507, 0.7287400
445.4328, 0.9115910
445.9149, 1.146875
446.3970, 1.164863
446.8791, 0.8791940
447.3612, 0.6663330
447.8434, 0.7119690
448.3255, 0.8470300
448.8076, 0.8502040
449.2897, 0.6883920
449.7718, 0.4910890
450.2539, 0.3755600
450.7361, 0.3452670
451.2182, 0.3411870
451.7003, 0.3317680
452.1824, 0.3776480
452.6645, 0.5994510
453.1466, 0.8708170
453.6288, 0.9499930
454.1109, 0.7305190
454.5930, 0.3772980
455.0751, 0.2221890
455.5572, 0.3801110
456.0393, 0.5204410
456.5215, 0.5964450
457.0036, 0.6969490
457.4857, 0.9597160
457.9678, 1.312234
458.4499, 1.508128
458.9320, 1.309788
459.4142, 0.8133650
459.8963, 0.6110810
460.3784, 0.9269140
460.8605, 1.139709
461.3426, 0.9905620
461.8247, 0.7244580
462.3069, 0.5871860
462.7890, 0.6398990
463.2711, 0.7425240
463.7532, 0.7374480
464.2353, 0.6354180
464.7174, 0.5972670
465.1996, 0.6793200
465.6817, 0.7665710
466.1638, 0.7735110
466.6459, 0.7200970
467.1280, 0.6628580
467.6101, 0.6335980
468.0923, 0.5995220
468.5744, 0.4861720
469.0565, 0.3096270
469.5386, 0.2631410
470.0207, 0.4804880
470.5028, 0.7930030
470.9850, 0.8885890
471.4671, 0.7434310
471.9492, 0.5975560
472.4313, 0.4980160
472.9134, 0.4385270
473.3955, 0.4077020
473.8777, 0.4283890
474.3598, 0.4367250
474.8419, 0.3595160
475.3240, 0.2092310
475.8061, 0.1788040
476.2882, 0.4873850
476.7704, 0.6444690
477.2525, 0.3974090
477.7346, 1.8549999E-02
478.2167, 0.1683470
478.6988, 7.9749003E-02
479.1809, 0.1436360
479.6631, 0.3692260
480.1452, 0.6108420
480.6273, 0.7199450
481.1094, 0.4786690
481.5915, 0.3376360
482.0736, 0.5108250
482.5558, 0.8582250
483.0379, 1.127386
483.5200, 1.198825
484.0021, 1.126204
484.4842, 0.9777700
484.9663, 0.7199760
485.4485, 0.5709870
485.9306, 0.6905700
486.4127, 0.8435820
486.8948, 0.8501520
487.3769, 0.7300420
487.8590, 0.6346730
488.3412, 0.6978620
488.8233, 0.8289820
489.3054, 0.8485450
489.7875, 0.7484560
490.2696, 0.5880300
490.7517, 0.2968890
491.2339, 3.4281999E-02
491.7160, 0.1344590
492.1981, 0.7609370
492.6802, 1.268732
493.1623, 1.289884
493.6444, 1.057966
494.1266, 0.9295200
494.6087, 0.9628270
495.0908, 0.9849970
495.5729, 0.8141630
496.0550, 0.4563360
496.5371, 0.3107760
497.0193, 0.5958020
497.5014, 0.8058300
497.9835, 0.7133300
498.4656, 0.4779060
498.9477, 0.3301140
499.4298, 0.3447840
499.9120, 0.4327690
500.3941, 0.4731370
500.8762, 0.4685130
501.3583, 0.4050290
501.8404, 0.1290210
502.3225, 4.8997998E-02
502.8047, 3.7838001E-02
503.2868, 0.2962260
503.7689, 0.5711120
504.2510, 0.8032710
504.7331, 0.9506270
505.2152, 0.8907770
505.6974, 0.5744170
506.1795, 0.3588340
506.6616, 0.3867890
507.1437, 0.4746310
507.6258, 0.4859400
508.1079, 0.4309410
508.5901, 0.3824580
509.0722, 0.3631920
509.5543, 0.3780850
510.0364, 0.4499620
510.5185, 0.5774970
511.0006, 0.7026870
511.4828, 0.8258380
511.9649, 0.9034010
512.4470, 0.8101330
512.9291, 0.4653070
513.4112, 0.2492490
513.8933, 0.3560960
514.3754, 0.5811690
514.8575, 0.7038700
515.3397, 0.7144580
515.8218, 0.7517570
516.3039, 0.9366260
516.7860, 1.230282
517.2681, 1.350199
517.7502, 1.086290
518.2324, 0.9080730
518.7145, 0.9528040
519.1966, 1.043736
519.6787, 0.9895430
520.1608, 0.7737200
520.6429, 0.5469440
521.1251, 0.4746380
521.6072, 0.5500670
522.0893, 0.5374360
522.5714, 0.3309930
523.0535, 0.2074480
523.5356, 0.3191170
524.0178, 0.5270850
524.4999, 0.6796050
524.9820, 0.7387320
525.4641, 0.7395920
525.9462, 0.6953820
526.4283, 0.6083900
526.9105, 0.5637860
527.3926, 0.6012130
527.8747, 0.6018470
528.3568, 0.4357130
528.8389, 0.1527170
529.3210, 7.9187997E-02
529.8032, 0.3680550
530.2853, 0.4601860
530.7674, 2.4327001E-02
531.2495, 0.7636530
531.7316, 1.057142
532.2137, 0.6966280
532.6959, 0.1444680
533.1780, 1.5838001E-02
533.6601, 0.3087010
534.1422, 0.4456860
534.6243, 0.2155090
535.1064, 3.7374001E-02
535.5886, 8.0964997E-02
536.0707, 0.2275420
536.5528, 0.4262950
537.0349, 0.6369830
537.5170, 0.7740150
537.9991, 0.6460770
538.4813, 0.1608960
538.9634, 0.1077400
539.4455, 3.3264000E-02
539.9276, 0.2149690
540.4097, 0.3025520
540.8918, 0.3021250
541.3740, 0.2154110
541.8561, 1.3218000E-02
542.3382, 0.2106760
542.8203, 9.7538002E-02
543.3024, 0.2862820
543.7845, 0.5445810
544.2667, 0.5487610
544.7488, 0.4619200
545.2309, 0.4642150
545.7130, 0.5435000
546.1951, 0.5846790
546.6772, 0.5221540
547.1594, 0.4613110
547.6415, 0.4570480
548.1236, 0.5098530
548.6057, 0.6507260
549.0878, 0.8984120
549.5699, 1.123787
550.0521, 1.089022
550.5342, 0.6429270
551.0163, 0.4021350
551.4984, 0.5128130
551.9805, 0.6476920
552.4626, 0.6833270
552.9448, 0.6336930
553.4269, 0.5387090
553.9090, 0.4008270
554.3911, 0.2709920
554.8732, 0.2348070
555.3553, 0.3026340
555.8375, 0.3979610
556.3196, 0.5659600
556.8017, 0.6939970
557.2838, 0.6982140
557.7659, 0.6098880
558.2480, 0.5151010
558.7302, 0.4336700
559.2123, 0.3714760
559.6944, 0.3292850
560.1765, 0.3067620
560.6586, 0.3398940
561.1407, 0.4509110
561.6229, 0.5608890
562.1050, 0.5543370
562.5871, 0.4028630
563.0692, 0.3481650
563.5513, 0.5378660
564.0334, 0.6790180
564.5156, 0.5156450
564.9977, 0.2195990
565.4798, 0.1424030
565.9619, 0.4195290
566.4440, 0.8249240
566.9261, 0.9952470
567.4083, 0.8725150
567.8904, 0.7490600
568.3725, 0.5542250
568.8546, 0.4361100
569.3367, 0.5253410
569.8188, 0.7053270
570.3010, 0.7776710
570.7831, 0.6585320
571.2652, 0.4729800
571.7473, 0.3556980
572.2294, 0.3018190
572.7115, 0.2645090
573.1937, 0.2285150
573.6758, 0.2297920
574.1579, 0.3412660
574.6400, 0.5213900
575.1221, 0.6149250
575.6042, 0.4940890
576.0864, 0.4191180
576.5685, 0.6275120
577.0506, 0.9458890
577.5327, 1.006959
578.0148, 0.7294880
578.4969, 0.3973140
578.9791, 0.3130210
579.4612, 0.4892300
579.9433, 0.6002380
580.4254, 0.5976240
580.9075, 0.5809210
581.3896, 0.6008120
581.8718, 0.5994490
582.3539, 0.4592830
582.8360, 0.1765850
583.3181, 4.3644998E-02
583.8002, 7.7936001E-02
584.2823, 0.4781340
584.7645, 0.6552590
585.2466, 0.5187080
585.7287, 0.4171540
586.2108, 0.6014850
586.6929, 0.8852720
587.1750, 0.9685600
587.6572, 0.7667280
588.1393, 0.5995210
588.6214, 0.7369970
589.1035, 0.9482460
589.5856, 0.9278570
590.0677, 0.6715450
590.5499, 0.4274220
591.0320, 0.3640630
591.5141, 0.4213920
591.9962, 0.3495480
592.4783, 0.1472630
592.9604, 0.3478110
593.4426, 1.2942000E-02
593.9247, 0.4581200
594.4068, 0.6805610
594.8889, 0.6803260
595.3710, 0.5917870
595.8531, 0.4867230
596.3353, 0.3780940
596.8174, 0.2888900
597.2995, 0.2503160
597.7816, 0.2093200
598.2637, 0.1239770
598.7458, 7.4718997E-02
599.2280, 0.1521330
599.7101, 0.3260410
600.1922, 0.4433700
600.6743, 0.4307430
601.1564, 0.4061900
601.6385, 0.4920110
602.1207, 0.6389850
602.6028, 0.6724270
603.0849, 0.5252830
603.5670, 0.3560260
604.0491, 0.3770300
604.5313, 0.6264620
605.0134, 0.8308420
605.4955, 1.100831
605.9776, 1.207106
606.4597, 0.9230760
606.9418, 0.5002090
607.4240, 0.2711140
607.9061, 0.3255370
608.3882, 0.4849590
608.8703, 0.6042740
609.3524, 0.6631850
609.8345, 0.5580940
610.3167, 0.1855910
610.7988, 2.7107000E-02
611.2809, 0.3095820
611.7630, 0.8523070
612.2451, 1.129311
612.7272, 1.062886
613.2094, 0.9190720
613.6915, 0.7767810
614.1736, 0.6464070
614.6557, 0.5358800
615.1378, 0.4480880
615.6199, 0.4013850
616.1021, 0.4120080
616.5842, 0.4583060
617.0663, 0.4785950
617.5484, 0.4569380
618.0305, 0.4352640
618.5126, 0.3954070
618.9948, 0.3721750
619.4769, 0.3958860
619.9590, 0.4517520
620.4411, 0.5033920
620.9232, 0.5321560
621.4053, 0.5509840
621.8875, 0.5799780
622.3696, 0.6189170
622.8517, 0.6675700
623.3338, 0.7522850
623.8159, 0.7946080
624.2980, 0.6730320
624.7802, 0.4492140
625.2623, 0.3289840
625.7444, 0.3643250
626.2265, 0.4698810
626.7086, 0.6975860
627.1907, 0.9334080
627.6729, 0.9759490
628.1550, 0.8089470
628.6371, 0.6352360
629.1192, 0.6494320
629.6013, 0.8116730
630.0834, 0.7819490
630.5656, 0.3806790
631.0477, 8.5414000E-02
631.5298, 1.6864000E-02
632.0119, 1.5547000E-02
632.4940, 8.4546000E-02
632.9761, 0.2419890
633.4583, 0.3149150
633.9404, 0.1234790
634.4225, 0.1389270
634.9046, 9.7492002E-02
635.3867, 0.2182750
635.8688, 0.4077110
636.3510, 0.3191360
636.8331, 0.1236930
637.3152, 1.1029000E-02
637.7973, 1.1915000E-02
638.2794, 7.3640002E-03
638.7615, 6.8501003E-02
639.2437, 0.1714330
639.7258, 0.3679750
640.2079, 0.5855410
640.6900, 0.7299020
641.1721, 0.7691140
641.6542, 0.7365800
642.1364, 0.6301500
642.6185, 0.4582150
643.1006, 0.3664500
643.5827, 0.4052510
644.0648, 0.4127490
644.5469, 0.2514170
645.0291, 8.4660999E-02
645.5112, 7.7904001E-02
645.9933, 0.2413380
646.4754, 0.4136430
646.9575, 0.5759680
647.4396, 0.6731500
647.9218, 0.5722450
648.4039, 0.3346290
648.8860, 0.2427290
649.3681, 0.4246600
649.8502, 0.6832910
650.3323, 0.6959110
650.8145, 0.3898870
651.2966, 0.2029340
651.7787, 7.7793002E-02
652.2608, 8.6762004E-02
652.7429, 0.4612110
653.2250, 0.8884030
653.7072, 0.8926350
654.1893, 0.3790670
654.6714, 0.1302150
655.1535, 6.4075999E-02
655.6356, 0.3983560
656.1177, 0.6502680
656.5999, 0.6582460
657.0820, 0.5870370
657.5641, 0.4817640
658.0462, 0.3678810
658.5283, 0.2940150
659.0104, 0.2633420
659.4926, 0.2438320
659.9747, 0.1720750
660.4568, 0.1659140
660.9389, 0.3645050
661.4210, 0.6748930
661.9031, 0.9300410
662.3853, 1.061549
662.8674, 1.058780
663.3495, 0.8508680
663.8316, 0.4130320
664.3137, 0.1798580
664.7958, 0.2856190
665.2780, 0.3521210
665.7601, 6.3555002E-02
666.2422, 0.2840580
666.7243, 0.2956550
667.2064, 0.1120390
667.6885, 0.4774190
668.1707, 0.5583480
668.6528, 0.4981160
669.1349, 0.4602140
669.6170, 0.4425950
670.0991, 0.3869460
670.5812, 0.2596850
671.0634, 0.1412920
671.5455, 0.1876830
672.0276, 0.4664610
672.5097, 0.6513660
672.9918, 0.7046340
673.4739, 0.7009170
673.9561, 0.5985390
674.4382, 0.4782860
674.9203, 0.4635320
675.4024, 0.5843380
675.8845, 0.6895110
676.3666, 0.6093070
676.8488, 0.4393330
677.3309, 0.4224850
677.8130, 0.5655630
678.2951, 0.6244720
678.7772, 0.4510010
679.2593, 0.1917380
679.7415, 0.1220210
680.2236, 0.3304990
680.7057, 0.4610560
681.1878, 0.4243310
681.6699, 0.4077860
682.1520, 0.5425420
682.6342, 0.7354160
683.1163, 0.8319540
683.5984, 0.7898670
684.0805, 0.7092390
684.5626, 0.7303590
685.0447, 0.8152120
685.5269, 0.7229260
686.0090, 0.4117070
686.4911, 0.1545210
686.9732, 9.3117997E-02
687.4553, 0.1379450
687.9374, 0.1436040
688.4196, 0.1023200
688.9017, 9.5503002E-02
689.3838, 0.2075400
689.8659, 0.2832750
690.3480, 0.1321530
690.8301, 9.2524000E-02
691.3123, 6.4010002E-02
691.7944, 0.2993460
692.2765, 0.6798750
692.7586, 0.6923550
693.2407, 0.3664280
693.7228, 0.1954220
694.2050, 0.2091500
694.6871, 0.3049600
695.1692, 0.5629900
695.6513, 0.7962070
696.1334, 0.7566000
696.6155, 0.4464400
697.0977, 0.2422830
697.5798, 0.3237220
698.0619, 0.4843750
698.5440, 0.6022590
699.0261, 0.6787950
699.5082, 0.7152510
699.9904, 0.7159980
700.4725, 0.7194650
700.9546, 0.7741990
701.4367, 0.8738690
701.9188, 0.9254430
702.4009, 0.9477470
702.8831, 0.8839730
703.3652, 0.5379120
703.8473, 0.2406370
704.3294, 0.2996560
704.8115, 0.6691310
705.2936, 0.9757610
705.7758, 1.026982
706.2579, 1.002634
706.7400, 1.043257
707.2221, 1.122924
707.7042, 1.196510
708.1863, 1.250453
708.6685, 1.252786
709.1505, 1.158200
709.6326, 0.9921770
710.1147, 0.9640180
710.5969, 1.234269
711.0790, 1.345554
711.5611, 1.059214
712.0432, 0.7621470
712.5253, 0.7649410
713.0074, 0.9747400
713.4896, 1.027686
713.9717, 0.6875370
714.4538, 0.3155490
714.9359, 0.2446700
715.4180, 0.3840100
715.9001, 0.5691050
716.3823, 0.7632600
716.8644, 0.8297240
717.3465, 0.6346700
717.8286, 0.2830380
718.3107, 0.1783700
718.7928, 0.5231740
719.2750, 0.7157210
719.7571, 0.6498640
720.2392, 0.5298920
720.7213, 0.4007660
721.2034, 0.3036580
721.6855, 0.3145980
722.1677, 0.4757040
722.6498, 0.6544700
723.1319, 0.7352680
723.6140, 0.7563300
724.0961, 0.7744030
724.5782, 0.8130100
725.0604, 0.8740980
725.5425, 0.9329780
726.0246, 0.9769060
726.5067, 0.9673650
726.9888, 0.8381010
727.4709, 0.8598420
727.9531, 1.219505
728.4352, 1.516204
728.9173, 1.586848
729.3994, 1.523612
729.8815, 1.460710
730.3636, 1.426476
730.8458, 1.374159
731.3279, 1.253642
731.8100, 1.102752
732.2921, 0.9674190
732.7742, 0.8544980
733.2563, 0.8033820
733.7385, 0.8336020
734.2206, 0.8966450
734.7027, 0.9368500
735.1848, 0.9555550
735.6669, 0.9303080
736.1490, 0.7817290
736.6312, 0.6921550
737.1133, 0.7564770
737.5954, 0.8427780
738.0775, 0.8497010
738.5596, 0.7671250
739.0417, 0.6132410
739.5239, 0.3130630
740.0060, 4.8691999E-02
740.4881, 0.1000400
740.9702, 0.3605380
741.4523, 0.5018150
741.9344, 0.4555450
742.4166, 0.3146840
742.8987, 0.1218370
743.3808, 7.4529998E-02
743.8629, 7.3060002E-03
744.3450, 0.6351570
744.8271, 0.9634320
745.3093, 0.5878100
745.7914, 0.2396730
746.2735, 0.4240130
746.7556, 0.9050920
747.2377, 1.165155
747.7198, 1.019543
748.2020, 0.7245380
748.6841, 0.3713930
749.1662, 4.2133000E-02
749.6483, 0.1517690
750.1304, 0.1994630
750.6125, 3.7285000E-02
751.0947, 0.3950850
751.5768, 0.8834550
752.0589, 1.019683
752.5410, 0.7027930
753.0231, 0.5134810
753.5052, 0.5566710
753.9874, 0.5890440
754.4695, 0.5301670
754.9516, 0.4283460
755.4337, 0.3198620
755.9158, 0.2123370
756.3979, 0.1446700
756.8801, 0.1826090
757.3622, 0.2280400
757.8443, 0.1425010
758.3264, 4.6540000E-03
758.8085, 1.2823000E-02
759.2906, 0.1584220
759.7728, 0.3169050
760.2549, 0.2629360
760.7370, 4.1382000E-02
761.2191, 6.1461002E-02
761.7012, 1.4860000E-03
762.1833, 5.5520002E-02
762.6655, 6.0323998E-02
763.1476, 5.9482999E-02
763.6297, 7.0339002E-02
764.1118, 0.1048010
764.5939, 0.1852560
765.0760, 0.3629160
765.5582, 0.4692120
766.0403, 0.3453400
766.5224, 0.1541340
767.0045, 8.1265002E-02
767.4866, 0.1190830
767.9688, 0.1691100
768.4509, 0.1820910
768.9330, 0.1621540
769.4151, 8.2039997E-02
769.8972, 6.6568002E-02
770.3793, 2.6961001E-02
770.8615, 0.3143450
771.3436, 0.5420330
771.8257, 0.3967090
772.3078, 9.4258003E-02
772.7899, 4.8278000E-02
773.2720, 2.1005001E-02
773.7542, 2.1619000E-02
774.2363, 9.6978001E-02
774.7184, 0.1362280
775.2005, 3.9723001E-02
775.6826, 8.1129000E-02
776.1647, 4.4381998E-02
776.6469, 0.1525100
777.1290, 0.3220180
777.6111, 0.3007020
778.0932, 0.1801390
778.5753, 0.1907100
779.0574, 0.3251100
779.5396, 0.3556230
780.0217, 0.2047460
780.5038, 6.9518000E-02
780.9859, 0.1110940
781.4680, 0.2910350
781.9501, 0.4444120
782.4323, 0.5921980
782.9144, 0.6791000
783.3965, 0.7080250
783.8786, 0.6696990
784.3607, 0.5167280
784.8428, 0.3054350
785.3250, 0.1060450
785.8071, 6.0134999E-02
786.2892, 0.1213890
786.7713, 4.6263002E-02
787.2534, 0.3325990
787.7355, 0.5751600
788.2177, 0.7545690
788.6998, 0.7679120
789.1819, 0.5635040
789.6640, 0.3129570
790.1461, 0.2330700
790.6282, 0.3228410
791.1104, 0.3422600
791.5925, 0.2005770
792.0746, 0.1426850
792.5567, 0.3046550
793.0388, 0.4802110
793.5209, 0.5227810
794.0031, 0.4549940
794.4852, 0.3733520
794.9673, 0.2900640
795.4494, 0.2308370
795.9315, 0.2041610
796.4136, 0.2155040
796.8958, 0.3076780
797.3779, 0.4520290
797.8600, 0.5329060
798.3421, 0.4892620
798.8242, 0.3820030
799.3063, 0.3120810
799.7885, 0.2814040
800.2706, 0.2055530
800.7527, 4.0998001E-02
801.2348, 3.2271001E-02
801.7169, 0.1227250
802.1990, 0.3562950
802.6812, 0.4558440
803.1633, 0.4212380
803.6454, 0.4222860
804.1275, 0.5235440
804.6096, 0.6026880
805.0917, 0.6254200
805.5739, 0.5965290
806.0560, 0.4817750
806.5381, 0.3153410
807.0202, 0.2144910
807.5023, 0.2507740
807.9844, 0.3497970
808.4666, 0.4451090
808.9487, 0.5160300
809.4308, 0.4753760
809.9129, 0.3109970
810.3950, 0.2111970
810.8771, 0.3055090
811.3593, 0.4756150
811.8414, 0.4591160
812.3235, 0.1461220
812.8056, 6.3878998E-02
813.2877, 0.5309460
813.7698, 0.8300720
814.2520, 0.5671700
814.7341, 0.1815700
815.2162, 0.1808230
815.6983, 0.5629660
816.1804, 0.8299000
816.6625, 0.6914310
817.1447, 0.4586630
817.6268, 0.2809120
818.1089, 0.1958960
818.5910, 0.3435840
819.0731, 0.6777380
819.5552, 0.9126990
820.0374, 0.8536850
820.5195, 0.5988850
821.0016, 0.2747680
821.4837, 0.1285330
821.9658, 0.1621260
822.4479, 0.3365870
822.9301, 0.7120250
823.4122, 0.5686110
823.8943, 0.1837440
824.3764, 5.1582001E-02
824.8585, 0.2307670
825.3406, 0.3563850
825.8228, 0.3379210
826.3049, 0.3498710
826.7870, 0.5160650
827.2691, 0.6987540
827.7512, 0.7204130
828.2333, 0.6013810
828.7155, 0.5222640
829.1976, 0.6100040
829.6797, 0.7201350
830.1618, 0.6842730
830.6439, 0.5449270
831.1260, 0.3708460
831.6082, 0.1875410
832.0903, 0.1343660
832.5724, 0.3084660
833.0545, 0.5636000
833.5366, 0.5794000
834.0187, 0.3015180
834.5009, 0.2241970
834.9830, 0.4390230
835.4651, 0.6696960
835.9472, 0.8692880
836.4293, 0.9943600
836.9114, 0.9557550
837.3936, 0.7661540
837.8757, 0.6794780
838.3578, 0.9284810
838.8399, 1.044945
839.3220, 0.6679680
839.8041, 0.2105310
840.2863, 0.1188370
840.7684, 0.3403280
841.2505, 0.5599900
841.7326, 0.6308760
842.2147, 0.6095030
842.6968, 0.5163300
843.1790, 0.3922270
843.6611, 0.3724340
844.1432, 0.4546750
844.6253, 0.5056950
845.1074, 0.4557460
845.5895, 0.3782570
846.0717, 0.3633940
846.5538, 0.4111740
847.0359, 0.4530100
847.5180, 0.4767120
848.0001, 0.4995450
848.4822, 0.4759560
848.9644, 0.4952720
849.4465, 0.6886410
849.9286, 0.9736810
850.4107, 1.093437
850.8928, 0.9253110
851.3749, 0.7762900
851.8571, 0.7860380
852.3392, 0.8279070
852.8213, 0.7953730
853.3034, 0.7154380
853.7855, 0.6672800
854.2676, 0.6720670
854.7498, 0.6610390
855.2319, 0.5192250
855.7140, 0.3406070
856.1961, 0.3636490
856.6782, 0.5622940
857.1603, 0.7961670
857.6425, 1.042257
858.1246, 1.109382
858.6067, 0.7796370
859.0888, 0.2156120
859.5709, 6.4502999E-02
860.0530, 0.5392960
860.5352, 0.8617560
861.0173, 0.9688580
861.4994, 0.9653950
861.9815, 0.7692000
862.4636, 0.5584160
862.9457, 0.6280130
863.4279, 1.021905
863.9100, 1.254914
864.3921, 1.074123
864.8742, 0.8500050
865.3563, 0.7900760
865.8384, 0.7893220
866.3206, 0.7029170
866.8027, 0.5354620
867.2848, 0.3991860
867.7669, 0.3600050
868.2490, 0.3623540
868.7311, 0.3135220
869.2133, 0.2506420
869.6954, 0.3148550
870.1775, 0.5021730
870.6596, 0.6228620
871.1417, 0.5874550
871.6238, 0.4826820
872.1060, 0.4329990
872.5881, 0.4376410
873.0702, 0.3618020
873.5523, 0.1420820
874.0344, 4.9729999E-03
874.5165, 2.1980001E-02
874.9987, 0.1105510
875.4808, 0.2303380
875.9629, 0.3689910
876.4450, 0.4983430
876.9271, 0.6716080
877.4092, 0.7171240
877.8914, 0.5062570
878.3735, 0.2556940
878.8556, 3.4189001E-02
879.3377, 0.1174720
879.8198, 0.1104350
880.3019, 6.6164002E-02
880.7841, 0.2417840
881.2662, 0.3267140
881.7483, 0.3332210
882.2304, 0.1746280
882.7125, 2.9069999E-02
883.1946, 0.1026680
883.6768, 0.5703680
884.1589, 0.8796030
884.6410, 0.6958380
885.1231, 0.3004640
885.6052, 0.3140850
886.0873, 0.7545000
886.5695, 0.8470340
887.0516, 0.4656060
887.5337, 0.2052060
888.0158, 0.3304840
888.4979, 0.6272010
888.9800, 0.9010880
889.4622, 1.151262
889.9443, 1.124201
890.4264, 0.4925970
890.9085, 5.8485001E-02
891.3906, 1.1086000E-02
891.8727, 6.8014003E-02
892.3549, 7.7992000E-02
892.8370, 5.6722000E-02
893.3191, 6.3281000E-02
893.8012, 0.1156480
894.2833, 0.1514770
894.7654, 0.1079870
895.2476, 6.6243000E-02
895.7297, 0.1033030
896.2118, 0.1865810
896.6939, 0.2450160
897.1760, 0.2759010
897.6581, 0.3666520
898.1403, 0.6128970
898.6224, 0.8479830
899.1045, 0.7085780
899.5866, 0.3082100
900.0687, 0.1970830
900.5508, 0.4188250
901.0330, 0.5886210
901.5151, 0.5237980
901.9972, 0.3249970
902.4793, 0.1241600
902.9614, 7.8787997E-02
903.4435, 0.2195100
903.9257, 0.3554020
904.4078, 0.2592600
904.8899, 0.3307550
905.3720, 0.8941980
905.8541, 0.9874060
906.3362, 0.7377110
906.8184, 0.5214910
907.3005, 0.3435880
907.7826, 0.2036900
908.2647, 9.6816003E-02
908.7468, 3.3539999E-02
909.2289, 1.3579000E-02
909.7111, 4.3377001E-02
910.1932, 0.1808900
910.6753, 0.3987940
911.1574, 0.5010710
911.6395, 0.2957380
912.1216, 8.5368000E-02
912.6038, 0.1601520
913.0859, 0.3608570
913.5680, 0.4691560
914.0501, 0.4628530
914.5322, 0.4367690
915.0143, 0.4418820
915.4965, 0.4380350
915.9786, 0.3537270
916.4607, 0.2246410
916.9428, 0.2349870
917.4249, 0.3768840
917.9070, 0.4533240
918.3892, 0.4111260
918.8713, 0.3634390
919.3534, 0.4111890
919.8355, 0.5012430
920.3176, 0.4517930
920.7997, 0.1917000
921.2819, 5.8825001E-02
921.7640, 8.9254998E-02
922.2461, 0.1911230
922.7282, 0.4235610
923.2103, 0.6313260
923.6924, 0.5480670
924.1746, 0.1974430
924.6567, 5.4908998E-02
925.1388, 0.3530460
925.6209, 0.5601180
926.1030, 0.4841420
926.5851, 0.3810790
927.0673, 0.4037090
927.5494, 0.5322500
928.0315, 0.7444310
928.5136, 1.039170
928.9957, 1.236795
929.4778, 1.162056
929.9600, 1.033391
930.4421, 1.072810
930.9242, 1.155193
931.4063, 1.011642
931.8884, 0.6809860
932.3705, 0.5163590
932.8527, 0.7358490
933.3348, 1.038397
933.8169, 1.022849
934.2990, 0.7849540
934.7811, 0.5342790
935.2632, 0.3007350
935.7454, 0.2198480
936.2275, 0.3367670
936.7096, 0.5055020
937.1917, 0.5830850
937.6738, 0.5861190
938.1559, 0.5402820
938.6381, 0.4303530
939.1202, 0.3226600
939.6023, 0.2182260
940.0844, 0.1304490
940.5665, 4.2130999E-02
941.0486, 9.0049999E-03
941.5308, 0.1383830
942.0129, 0.4612170
942.4950, 0.6075180
942.9771, 0.4640070
943.4592, 0.3142650
943.9413, 0.1192620
944.4235, 6.1909999E-03
944.9056, 0.1065430
945.3877, 0.3349230
945.8698, 0.5151060
946.3519, 0.6306990
946.8340, 0.6709370
947.3162, 0.4932210
947.7983, 0.3998890
948.2804, 0.7206510
948.7625, 1.097402
949.2446, 1.057146
949.7267, 0.6523850
950.2089, 0.3091250
950.6910, 0.2201790
951.1731, 0.2194310
951.6552, 0.1615210
952.1373, 0.1282500
952.6194, 0.2814690
953.1016, 0.5359330
953.5837, 0.6618630
954.0658, 0.6056960
954.5479, 0.5179400
955.0300, 0.5349190
955.5121, 0.5679850
955.9943, 0.3702440
956.4763, 4.1368000E-02
956.9584, 3.8956001E-02
957.4406, 0.3848130
957.9227, 0.6828180
958.4048, 0.7512800
958.8869, 0.6919770
959.3690, 0.5661650
959.8511, 0.4029590
960.3333, 0.5038290
960.8154, 0.9377010
961.2975, 1.011439
961.7796, 0.4866680
962.2617, 6.1599999E-03
962.7438, 3.6899000E-02
963.2260, 0.2012270
963.7081, 0.3394430
964.1902, 0.3573790
964.6723, 0.3836950
965.1544, 0.3988250
965.6365, 0.4562740
966.1187, 0.6375290
966.6008, 0.7984170
967.0829, 0.8124110
967.5650, 0.7211040
968.0471, 0.6516580
968.5292, 0.6407520
969.0114, 0.5718930
969.4935, 0.3881910
969.9756, 0.1913070
970.4577, 6.5883003E-02
970.9398, 0.2501450
971.4219, 0.1313540
971.9041, 0.2170880
972.3862, 0.3829900
972.8683, 0.1250470
973.3504, 0.1086910
973.8325, 8.2263999E-02
974.3146, 6.6619001E-02
974.7968, 0.2664020
975.2789, 0.4612820
975.7610, 0.5953870
976.2431, 0.6522330
976.7252, 0.6134740
977.2073, 0.4045130
977.6895, 0.2058460
978.1716, 0.2389760
978.6537, 0.4054090
979.1358, 0.5699090
979.6179, 0.7062580
980.1000, 0.7834780
980.5822, 0.7926000
981.0643, 0.7698020
981.5464, 0.7445730
982.0285, 0.7207780
982.5106, 0.7226400
982.9927, 0.7382200
983.4749, 0.6919740
983.9570, 0.5766000
984.4391, 0.4382820
984.9212, 0.2976350
985.4033, 0.1876280
985.8854, 0.1722560
986.3676, 0.2348040
986.8497, 0.2240140
987.3318, 0.1307220
987.8139, 0.1758880
988.2960, 0.4364580
988.7781, 0.6791490
989.2603, 0.7522990
989.7424, 0.7077940
990.2245, 0.6412320
990.7066, 0.5400730
991.1887, 0.5310430
991.6708, 0.6787880
992.1530, 0.7580390
992.6351, 0.6901160
993.1172, 0.5780040
993.5993, 0.4913580
994.0814, 0.4233740
994.5635, 0.3461550
995.0457, 0.2177350
995.5278, 0.1993700
996.0099, 0.4491150
996.4920, 0.6017030
996.9741, 0.4474790
997.4562, 0.2586250
997.9384, 0.2754390
998.4205, 0.4528930
998.9026, 0.6249070
999.3847, 0.8295280
999.8668, 0.8865900
1000.349, 0.5889810
1000.831, 0.3381060
1001.313, 0.3758420
1001.795, 0.5259680
1002.277, 0.6106620
1002.760, 0.6157950
1003.242, 0.5662690
1003.724, 0.4390150
1004.206, 0.3386240
1004.688, 0.3426200
1005.170, 0.3622060
1005.652, 0.3082370
1006.134, 0.2345700
1006.616, 0.2403370
1007.099, 0.3250850
1007.581, 0.3946300
1008.063, 0.4046120
1008.545, 0.3797690
1009.027, 0.2889570
1009.509, 0.2136890
1009.991, 0.2662630
1010.473, 0.4087730
1010.956, 0.5572330
1011.438, 0.6858720
1011.920, 0.8010040
1012.402, 0.9272480
1012.884, 0.9936320
1013.366, 0.8587960
1013.848, 0.6268200
1014.330, 0.5225590
1014.812, 0.5096400
1015.295, 0.3600530
1015.777, 2.4334000E-02
1016.259, 0.2193380
1016.741, 9.9964000E-02
1017.223, 0.1845350
1017.705, 0.2705240
1018.187, 0.2089050
1018.669, 0.1223140
1019.151, 4.8668999E-02
1019.634, 0.2114150
1020.116, 0.6842200
1020.598, 1.095869
1021.080, 1.050777
1021.562, 0.6956970
1022.044, 0.4008560
1022.526, 0.1756270
1023.008, 0.1755950
1023.491, 0.4167060
1023.973, 0.6041160
1024.455, 0.6111200
1024.937, 0.5509400
1025.419, 0.5593540
1025.901, 0.6048160
1026.383, 0.5059660
1026.865, 0.2432480
1027.348, 0.1631950
1027.830, 0.3338090
1028.312, 0.4689950
1028.794, 0.4295320
1029.276, 0.3327810
1029.758, 0.3088350
1030.240, 0.3319860
1030.722, 0.2536170
1031.204, 2.4208000E-02
1031.687, 0.1111660
1032.169, 0.1110680
1032.651, 5.5521999E-02
1033.133, 4.7798999E-02
1033.615, 0.1404070
1034.097, 0.1252410
1034.579, 1.6310999E-02
1035.061, 3.8031999E-02
1035.543, 0.2414520
1036.026, 0.4493210
1036.508, 0.6863500
1036.990, 0.8562640
1037.472, 0.9244790
1037.954, 0.8863200
1038.436, 0.6769300
1038.918, 0.3098960
1039.400, 0.1985280
1039.883, 0.5617640
1040.365, 0.7721780
1040.847, 0.7210120
1041.329, 0.6071150
1041.811, 0.5052650
1042.293, 0.3949970
1042.775, 0.1895020
1043.257, 0.1019060
1043.740, 0.1285250
1044.222, 0.3226500
1044.704, 0.7089380
1045.186, 1.031163
1045.668, 1.252569
1046.150, 1.360530
1046.632, 1.375140
1047.114, 1.230403
1047.596, 0.9359200
1048.078, 0.7640570
1048.561, 0.7707930
1049.043, 0.8654220
1049.525, 1.159381
1050.007, 1.399850
1050.489, 1.465582
1050.971, 1.412821
1051.453, 1.284156
1051.935, 1.095299
1052.418, 0.9255810
1052.900, 0.7117620
1053.382, 0.6480070
1053.864, 0.8401530
1054.346, 1.111982
1054.828, 1.464645
1055.310, 1.784454
1055.792, 1.925721
1056.275, 1.908324
1056.757, 1.861861
1057.239, 1.806153
1057.721, 1.766462
1058.203, 1.696947
1058.685, 1.704998
1059.167, 1.955070
1059.649, 2.243285
1060.131, 2.284107
1060.614, 2.124945
1061.096, 2.094577
1061.578, 2.323120
1062.060, 2.565924
1062.542, 2.831710
1063.024, 2.983135
1063.506, 2.851090
1063.988, 2.626559
1064.470, 2.507161
1064.953, 2.501773
1065.435, 2.531455
1065.917, 2.553545
1066.399, 2.687785
1066.881, 3.224597
1067.363, 3.606014
1067.845, 3.341779
1068.327, 2.873384
1068.810, 2.671371
1069.292, 2.721879
1069.774, 2.814531
1070.256, 2.913508
1070.738, 2.926412
1071.220, 2.709825
1071.702, 2.517550
1072.184, 2.603376
1072.667, 2.714453
1073.149, 2.534196
1073.631, 2.166475
1074.113, 1.911853
1074.595, 1.887782
1075.077, 1.825669
1075.559, 1.547382
1076.041, 1.257614
1076.523, 0.9981370
1077.005, 0.8433250
1077.488, 0.9669850
1077.970, 1.221150
1078.452, 1.242181
1078.934, 0.9452270
1079.416, 0.7507900
1079.898, 0.9938820
1080.380, 1.196934
1080.862, 1.059355
1081.344, 0.8187120
1081.827, 0.6347050
1082.309, 0.5341230
1082.791, 0.5627680
1083.273, 0.7144430
1083.755, 0.8110840
1084.237, 0.7029010
1084.719, 0.6295860
1085.201, 0.8380480
1085.684, 0.9970060
1086.166, 0.6857280
1086.648, 0.2215990
1087.130, 0.1810800
1087.612, 0.5803440
1088.094, 0.8362040
1088.576, 0.6681920
1089.058, 0.4516040
1089.541, 0.2773580
1090.023, 0.1802960
1090.505, 0.2482890
1090.987, 0.3731680
1091.469, 0.3797810
1091.951, 0.3033130
1092.433, 0.3668580
1092.915, 0.7278420
1093.397, 0.9693870
1093.880, 0.8781040
1094.362, 0.6775360
1094.844, 0.3918180
1095.326, 0.1461020
1095.808, 0.1148580
1096.290, 0.2350580
1096.772, 0.2614130
1097.254, 9.5582001E-02
1097.736, 4.0938001E-02
1098.219, 0.3624240
1098.701, 0.6110600
1099.183, 0.4816530
1099.665, 0.2799560
1100.147, 0.3120020
1100.629, 0.4848180
1101.111, 0.5391920
1101.593, 0.4277460
1102.076, 0.3257320
1102.558, 0.3208860
1103.040, 0.2571770
1103.522, 4.0621001E-02
1104.004, 0.2906370
1104.486, 0.2774070
1104.968, 8.7683998E-02
1105.450, 0.1831880
1105.932, 0.5131440
1106.415, 0.6716330
1106.897, 0.4503260
1107.379, 0.2994930
1107.861, 0.3593020
1108.343, 0.4480990
1108.825, 0.4655130
1109.307, 0.4632400
1109.789, 0.5146240
1110.271, 0.6137640
1110.754, 0.7002660
1111.236, 0.8258870
1111.718, 0.8284310
1112.200, 0.5857230
1112.682, 0.3388590
1113.164, 6.5830998E-02
1113.646, 8.9729004E-02
1114.128, 7.5364999E-02
1114.611, 0.4600700
1115.093, 0.7387950
1115.575, 0.9334080
1116.057, 0.9345220
1116.539, 0.5090320
1117.021, 0.2461240
1117.503, 0.4010530
1117.985, 0.5800350
1118.468, 0.4691060
1118.950, 0.2475550
1119.432, 0.3023220
1119.914, 0.6798360
1120.396, 0.7484390
1120.878, 0.2704670
1121.360, 5.6079999E-03
1121.842, 0.1546240
1122.324, 0.3160770
1122.807, 0.2714950
1123.289, 0.1756900
1123.771, 0.2474710
1124.253, 0.4538100
1124.735, 0.5078960
1125.217, 0.3588830
1125.699, 0.2314250
1126.181, 0.1246750
1126.663, 8.1501000E-02
1127.146, 0.1395910
1127.628, 0.2068960
1128.110, 0.2032810
1128.592, 0.1385800
1129.074, 1.2909000E-02
1129.556, 0.1965380
1130.038, 0.1913110
1130.520, 6.4700000E-02
1131.003, 0.2959060
1131.485, 0.4523890
1131.967, 0.4802810
1132.449, 0.3216280
1132.931, 0.1101510
1133.413, 7.7836998E-02
1133.895, 0.1917830
1134.377, 0.2040980
1134.859, 0.1200090
1135.342, 9.8863997E-02
1135.824, 0.1614940
1136.306, 0.2716730
1136.788, 0.4149990
1137.270, 0.5556860
1137.752, 0.6652500
1138.234, 0.7231920
1138.716, 0.6417690
1139.198, 0.4637550
1139.681, 0.3530440
1140.163, 0.3266220
1140.645, 0.4627410
1141.127, 0.7522600
1141.609, 0.9120900
1142.091, 0.7329240
1142.573, 0.4324850
1143.055, 0.3131660
1143.538, 0.3057120
1144.020, 0.2398780
1144.502, 0.1581390
1144.984, 0.1475030
1145.466, 0.2138590
1145.948, 0.3552080
1146.430, 0.5653390
1146.912, 0.6508910
1147.395, 0.3052320
1147.877, 9.4921999E-02
1148.359, 0.1090160
1148.841, 8.1349999E-02
1149.323, 0.2511840
1149.805, 0.3946230
1150.287, 0.6079940
1150.769, 0.8796750
1151.251, 0.9824020
1151.734, 0.7094040
1152.216, 0.4627680
1152.698, 0.5732920
1153.180, 0.7628280
1153.662, 0.8032650
1154.144, 0.7491960
1154.626, 0.6302170
1155.108, 0.4912390
1155.590, 0.4260600
1156.073, 0.4547730
1156.555, 0.5886740
1157.037, 1.046498
1157.519, 1.324975
1158.001, 1.081523
1158.483, 0.7164610
1158.965, 0.5125510
1159.447, 0.4136160
1159.930, 0.2680010
1160.412, 6.6368997E-02
1160.894, 1.2237000E-02
1161.376, 0.2998830
1161.858, 0.4448160
1162.340, 0.2522210
1162.822, 0.1612780
1163.304, 0.4505930
1163.786, 0.7686350
1164.269, 0.7838340
1164.751, 0.5668440
1165.233, 0.3339880
1165.715, 1.7885000E-02
1166.197, 1.6293000E-02
1166.679, 0.4832230
1167.161, 0.8462300
1167.643, 1.029532
1168.125, 0.9525190
1168.608, 0.4576140
1169.090, 6.5904997E-02
1169.572, 1.0479000E-02
1170.054, 0.5806180
1170.536, 0.8206320
1171.018, 0.7161800
1171.500, 0.6036290
1171.982, 0.5212840
1172.465, 0.5202210
1172.947, 0.6242820
1173.429, 0.7264200
1173.911, 0.7368310
1174.393, 0.6903240
1174.875, 0.6233140
1175.357, 0.5584520
1175.839, 0.6269300
1176.322, 0.7843010
1176.804, 0.8288720
1177.286, 0.7424540
1177.768, 0.6321580
1178.250, 0.5489370
1178.732, 0.5170750
1179.214, 0.5866950
1179.696, 0.6831470
1180.178, 0.6964630
1180.661, 0.6750040
1181.143, 0.6874680
1181.625, 0.7294200
1182.107, 0.7916960
1182.589, 0.8584330
1183.071, 0.8815100
1183.553, 0.8456690
1184.035, 0.7312090
1184.517, 0.3872760
1185.000, 0.1194430
1185.482, 0.2194650
1185.964, 0.4454260
1186.446, 0.5794340
1186.928, 0.6081300
1187.410, 0.5071220
1187.892, 0.2829470
1188.374, 0.2355930
1188.857, 0.5972190
1189.339, 0.8625850
1189.821, 0.9152860
1190.303, 0.8636870
1190.785, 0.6717510
1191.267, 0.4721590
1191.749, 0.4077880
1192.231, 0.4532740
1192.714, 0.5208150
1193.196, 0.6473200
1193.678, 0.6433400
1194.160, 0.4110310
1194.642, 0.3325440
1195.124, 0.5378550
1195.606, 0.7530550
1196.088, 0.8315630
1196.570, 0.8028220
1197.052, 0.6821030
1197.535, 0.5103640
1198.017, 0.5404000
1198.499, 0.7629770
1198.981, 0.7646140
1199.463, 0.5259090
1199.945, 0.2134410
1200.427, 0.1172900
1200.909, 0.2518240
1201.392, 2.6225001E-02
1201.874, 0.3237530
1202.356, 0.4828940
1202.838, 0.5108630
1203.320, 0.4816680
1203.802, 0.4438790
1204.284, 0.5508990
1204.766, 0.7529320
1205.249, 0.8306460
1205.731, 0.7207530
1206.213, 0.5838340
1206.695, 0.4884920
1207.177, 0.4827250
1207.659, 0.7185410
1208.141, 0.9505030
1208.623, 1.008138
1209.105, 0.8989650
1209.588, 0.5009460
1210.070, 2.0018000E-02
1210.552, 0.1736270
1211.034, 0.1908660
1211.516, 0.4315420
1211.998, 0.2993350
1212.480, 0.1734990
1212.962, 9.0340003E-02
1213.444, 9.9877000E-02
1213.927, 0.3153640
1214.409, 0.5678620
1214.891, 0.6951330
1215.373, 0.6997680
1215.855, 0.5738830
1216.337, 0.2622850
1216.819, 6.4496003E-02
1217.301, 8.4279999E-03
1217.784, 9.7719999E-03
1218.266, 4.6158001E-02
1218.748, 0.2171890
1219.230, 0.5717780
1219.712, 0.8819110
1220.194, 0.8234850
1220.676, 0.5351280
1221.158, 0.4813540
1221.641, 0.6100850
1222.123, 0.6603220
1222.605, 0.6203020
1223.087, 0.4899690
1223.569, 0.2958110
1224.051, 0.2144480
1224.533, 0.3530910
1225.015, 0.5013600
1225.497, 0.3848120
1225.979, 0.2178920
1226.462, 0.2629800
1226.944, 0.3935460
1227.426, 0.5012740
1227.908, 0.5495350
1228.390, 0.4421250
1228.872, 0.2174880
1229.354, 0.2046320
1229.836, 0.6379390
1230.319, 0.9076950
1230.801, 0.6894260
1231.283, 0.4178420
1231.765, 0.1375010
1232.247, 1.4126000E-02
1232.729, 0.3612230
1233.211, 0.8575280
1233.693, 0.5643280
1234.176, 0.8731310
1234.658, 1.020524
1235.140, 1.015269
1235.622, 0.3856440
1236.104, 0.5733910
1236.586, 0.4404210
1237.068, 0.2990560
1237.550, 0.6161070
1238.032, 0.1026530
1238.515, 0.4222270
1238.997, 0.4161480
1239.479, 0.5662560
1239.961, 0.3935750
1240.443, 0.3269300
1240.925, 0.5929170
1241.407, 0.6823070
1241.889, 0.4913940
1242.371, 0.6803450
1242.854, 0.2042450
1243.336, 0.3209130
1243.818, 0.6647870
1244.300, 0.5120890
1244.782, 0.7310570
1245.264, 0.8160950
1245.746, 0.2751170
1246.228, 0.8362490
1246.711, 0.9280430
1247.193, 0.5374050
1247.675, 1.075763
1248.157, 0.7620600
1248.639, 0.7412890
1249.121, 0.9731870
1249.603, 0.4549240
1250.085, 4.3288000E-02
1250.568, 6.8833001E-02
1251.050, 3.8056999E-02
1251.532, 8.1909001E-02
1252.014, 0.2315930
1252.496, 0.3191150
1252.978, 0.3503530
1253.460, 0.3431000
1253.942, 0.2850920
1254.424, 0.3555380
1254.906, 0.5723990
1255.389, 0.6931330
1255.871, 0.6510710
1256.353, 0.4987900
1256.835, 0.2601830
1257.317, 6.0740001E-02
1257.799, 7.0974000E-02
1258.281, 0.2159050
1258.763, 0.4077000
1259.246, 0.6068530
1259.728, 0.7656780
1260.210, 0.8667800
1260.692, 0.8499990
1261.174, 0.7351460
1261.656, 0.6630000
1262.138, 0.7068670
1262.620, 0.6996230
1263.103, 0.4622980
1263.585, 0.2988670
1264.067, 0.4346230
1264.549, 0.5964460
1265.031, 0.5576530
1265.513, 0.4512760
1265.995, 0.4935470
1266.477, 0.6444880
1266.959, 0.6800780
1267.442, 0.5550790
1267.924, 0.5049880
1268.406, 0.5411340
1268.888, 0.5890640
1269.370, 0.6917620
1269.852, 0.6727930
1270.334, 0.4390770
1270.816, 0.1630030
1271.298, 1.3937000E-02
1271.781, 1.3197000E-02
1272.263, 0.1101400
1272.745, 0.3316380
1273.227, 0.5189000
1273.709, 0.6596970
1274.191, 0.7649070
1274.673, 0.8130640
1275.155, 0.6901920
1275.638, 0.3763910
1276.120, 0.1704710
1276.602, 0.3159330
1277.084, 0.4652000
1277.566, 0.3862160
1278.048, 0.3320160
1278.530, 0.5338310
1279.012, 0.7458370
1279.495, 0.7322270
1279.977, 0.5851960
1280.459, 0.4509570
1280.941, 0.3302540
1281.423, 0.1906730
1281.905, 4.6740002E-03
1282.387, 2.2817999E-02
1282.869, 0.1514020
1283.351, 0.3212980
1283.833, 0.4203130
1284.316, 0.3783230
1284.798, 0.1751680
1285.280, 9.6478000E-02
1285.762, 5.0693002E-02
1286.244, 0.0000000E+00
##END=



