##NAMES=Avdoninite
##RRUFFID=R070080
##IDEAL CHEMISTRY=K_2_Cu^2+^_5_Cl_8_(OH)_4_&#183;2H_2_O
##LOCALITY=main fracture, N breakthrough, Tolbachik Volcano, Kamchtka Peninsula, Russia
##OWNER=RRUFF
##SOURCE=Michael Scott
##DESCRIPTION=Bright apple-green crust, co-type material, associated with pale bluish green eriochalcite
##STATUS=The identification of this mineral is not yet confirmed.
##URL=rruff.info/R070080
164.2184, 0.0000000E+00
164.7005, 4.837021
165.1826, 16.17584
165.6647, 21.19614
166.1469, 15.70631
166.6290, 11.91093
167.1111, 12.18257
167.5932, 11.83522
168.0753, 9.644455
168.5574, 5.449265
169.0396, 1.107422
169.5217, 1.106186
170.0038, 1.009445
170.4859, 1.357651
170.9680, 9.562363
171.4501, 17.33766
171.9323, 19.00629
172.4144, 14.29684
172.8965, 8.584656
173.3786, 8.364273
173.8607, 16.31563
174.3428, 19.72014
174.8250, 13.40117
175.3071, 6.455612
175.7892, 5.535553
176.2713, 11.37567
176.7534, 20.33864
177.2355, 29.38028
177.7177, 38.76703
178.1998, 45.39557
178.6819, 47.66626
179.1640, 48.39914
179.6461, 49.68675
180.1282, 51.75426
180.6104, 53.40112
181.0925, 53.19937
181.5746, 50.92487
182.0567, 49.81371
182.5388, 53.16959
183.0209, 55.32468
183.5031, 51.11899
183.9852, 40.59828
184.4673, 28.07436
184.9494, 14.39046
185.4315, 1.197815
185.9136, 0.6921080
186.3958, 19.43858
186.8779, 43.00191
187.3600, 57.20691
187.8421, 61.85040
188.3242, 61.30492
188.8063, 56.57587
189.2885, 48.82089
189.7706, 43.86331
190.2527, 46.98758
190.7348, 48.85239
191.2169, 37.47107
191.6990, 14.59738
192.1812, 1.970566
192.6633, 18.89525
193.1454, 53.05559
193.6275, 67.90871
194.1096, 48.61472
194.5917, 26.60826
195.0739, 27.70074
195.5560, 51.37543
196.0381, 68.35837
196.5202, 68.72314
197.0023, 57.67288
197.4844, 53.10577
197.9666, 60.37933
198.4487, 68.39488
198.9308, 70.32593
199.4129, 66.52010
199.8950, 58.05368
200.3771, 39.49036
200.8593, 22.04785
201.3414, 23.61023
201.8235, 48.78534
202.3056, 71.97571
202.7877, 71.93832
203.2698, 53.40381
203.7520, 42.32997
204.2341, 49.89078
204.7162, 63.20477
205.1983, 67.14137
205.6804, 61.39328
206.1625, 52.55981
206.6447, 40.31677
207.1268, 27.09923
207.6089, 24.62657
208.0910, 42.38257
208.5731, 60.97598
209.0552, 58.17345
209.5374, 36.76358
210.0195, 20.25012
210.5016, 26.78130
210.9837, 48.31372
211.4658, 58.54597
211.9479, 49.32092
212.4301, 38.21791
212.9122, 42.29674
213.3943, 56.85886
213.8764, 66.31735
214.3585, 59.80783
214.8406, 43.59407
215.3228, 31.77451
215.8049, 24.72737
216.2870, 22.62163
216.7691, 29.75122
217.2512, 41.46700
217.7333, 48.78162
218.2155, 45.45241
218.6976, 36.97162
219.1797, 34.25703
219.6618, 39.72533
220.1439, 42.53261
220.6260, 30.26784
221.1082, 13.22307
221.5903, 5.602386
222.0724, 14.64659
222.5545, 30.38832
223.0366, 39.90363
223.5187, 42.57381
224.0009, 42.78737
224.4830, 43.83029
224.9651, 42.46732
225.4472, 33.25117
225.9293, 12.39223
226.4114, 8.100876
226.8936, 12.92838
227.3757, 1.266479
227.8578, 5.912552
228.3399, 5.177536
228.8220, 17.95781
229.3041, 14.57161
229.7863, 7.763885
230.2684, 30.50288
230.7505, 37.38647
231.2326, 29.50977
231.7147, 20.77675
232.1968, 10.33965
232.6790, 4.118805
233.1611, 9.000854
233.6432, 23.96149
234.1253, 37.18394
234.6074, 39.19196
235.0895, 32.48209
235.5717, 28.91049
236.0538, 32.62140
236.5359, 34.75708
237.0180, 24.92783
237.5001, 7.464462
237.9822, 3.369843
238.4644, 4.898071
238.9465, 24.28685
239.4286, 33.65117
239.9107, 28.16425
240.3928, 24.10515
240.8749, 37.12741
241.3571, 57.92030
241.8392, 70.41693
242.3213, 62.92938
242.8034, 47.77426
243.2855, 47.54781
243.7676, 65.46231
244.2498, 80.71356
244.7319, 79.37564
245.2140, 70.94264
245.6961, 66.52368
246.1782, 69.28050
246.6603, 72.51520
247.1425, 69.20862
247.6246, 59.39258
248.1067, 52.39105
248.5888, 52.99197
249.0709, 57.11464
249.5530, 60.44812
250.0352, 62.95486
250.5173, 63.53992
250.9994, 59.48055
251.4815, 52.05951
251.9636, 48.29712
252.4457, 51.05971
252.9279, 56.32246
253.4100, 60.93851
253.8921, 64.85930
254.3742, 65.79671
254.8563, 58.64415
255.3384, 48.12605
255.8206, 47.13715
256.3027, 60.96474
256.7848, 73.95778
257.2669, 67.64633
257.7490, 48.52591
258.2311, 35.26549
258.7133, 38.23576
259.1954, 47.63585
259.6775, 49.82573
260.1596, 43.72847
260.6417, 38.20427
261.1238, 39.00760
261.6060, 44.63930
262.0881, 51.38054
262.5702, 60.85158
263.0523, 69.13120
263.5344, 73.35107
264.0165, 73.63214
264.4987, 69.70064
264.9808, 57.29556
265.4629, 44.18881
265.9450, 47.21588
266.4271, 74.68398
266.9092, 96.07471
267.3914, 90.60907
267.8735, 67.66466
268.3556, 50.71124
268.8377, 46.90753
269.3198, 50.53136
269.8019, 55.80942
270.2841, 63.48695
270.7662, 66.05011
271.2483, 56.30377
271.7304, 42.58675
272.2125, 37.70497
272.6946, 44.05647
273.1768, 50.30934
273.6589, 43.92169
274.1410, 24.72157
274.6231, 12.63887
275.1052, 10.91893
275.5873, 14.99806
276.0695, 24.17404
276.5516, 37.25038
277.0337, 48.37907
277.5158, 53.37131
277.9979, 53.21478
278.4800, 54.70030
278.9622, 62.75525
279.4443, 66.91919
279.9264, 59.57910
280.4085, 45.81592
280.8906, 35.86154
281.3727, 34.13693
281.8549, 38.58525
282.3370, 45.04016
282.8191, 57.18140
283.3012, 64.70059
283.7833, 62.32381
284.2654, 56.32150
284.7476, 55.91489
285.2297, 63.65842
285.7118, 70.60732
286.1939, 64.68585
286.6760, 39.06433
287.1581, 23.75323
287.6403, 27.99382
288.1224, 34.16542
288.6045, 31.49895
289.0866, 20.86069
289.5687, 9.636826
290.0508, 3.546463
290.5330, 2.487274
291.0151, 2.464966
291.4972, 2.917328
291.9793, 4.939850
292.4614, 10.05151
292.9435, 16.67615
293.4257, 22.98573
293.9078, 28.15695
294.3899, 31.43013
294.8720, 30.29967
295.3541, 19.05467
295.8362, 12.40112
296.3184, 14.64297
296.8005, 19.06172
297.2826, 20.55086
297.7647, 17.79716
298.2468, 12.41208
298.7289, 5.039444
299.2111, 7.366997
299.6932, 10.54156
300.1753, 7.903717
300.6574, 24.05826
301.1395, 25.90527
301.6216, 15.83791
302.1038, 3.299301
302.5859, 5.690430
303.0680, 10.88789
303.5501, 9.427711
304.0322, 5.807251
304.5143, 17.91505
304.9965, 21.28612
305.4786, 19.23082
305.9607, 14.98666
306.4428, 9.226837
306.9249, 4.762939
307.4070, 7.923889
307.8892, 21.54356
308.3713, 32.74156
308.8534, 34.74458
309.3355, 35.60214
309.8176, 42.65300
310.2997, 56.49280
310.7819, 67.74319
311.2640, 65.92125
311.7461, 52.37378
312.2282, 42.30878
312.7103, 38.18231
313.1924, 36.81155
313.6746, 35.88551
314.1567, 35.60527
314.6388, 36.63567
315.1209, 38.59703
315.6030, 42.29929
316.0851, 50.53725
316.5673, 64.35188
317.0494, 76.24892
317.5315, 80.59914
318.0136, 80.78992
318.4957, 83.13100
318.9778, 90.46933
319.4600, 96.06915
319.9421, 90.89609
320.4242, 78.52985
320.9063, 76.04222
321.3884, 92.36656
321.8705, 115.1668
322.3527, 124.8096
322.8348, 121.0042
323.3169, 116.6236
323.7990, 114.0544
324.2811, 113.7023
324.7632, 116.8701
325.2454, 123.6637
325.7275, 131.1141
326.2096, 137.4258
326.6917, 142.0075
327.1738, 143.7571
327.6559, 137.8802
328.1381, 134.5923
328.6202, 144.3246
329.1023, 161.5898
329.5844, 169.8494
330.0665, 160.0300
330.5486, 138.3371
331.0308, 122.9345
331.5129, 117.8663
331.9950, 112.9977
332.4771, 110.2786
332.9592, 107.0601
333.4413, 100.4712
333.9235, 89.89985
334.4056, 76.10944
334.8877, 59.12717
335.3698, 36.52477
335.8519, 22.39374
336.3340, 8.732071
336.8162, 18.59249
337.2983, 24.23461
337.7804, 25.88519
338.2625, 11.57459
338.7446, 17.87484
339.2267, 15.91533
339.7089, 13.65489
340.1910, 22.87437
340.6731, 10.88593
341.1552, 19.90527
341.6373, 20.53885
342.1194, 25.01258
342.6016, 21.17932
343.0837, 19.91394
343.5658, 21.12447
344.0479, 30.11193
344.5300, 34.88705
345.0121, 30.39885
345.4943, 25.35542
345.9764, 25.36368
346.4585, 29.04411
346.9406, 31.34813
347.4227, 27.87300
347.9048, 21.42673
348.3870, 19.59119
348.8691, 23.73783
349.3512, 27.27739
349.8333, 26.27340
350.3154, 22.84753
350.7975, 19.85814
351.2797, 18.26502
351.7618, 15.77545
352.2439, 8.208298
352.7260, 2.354034
353.2081, 6.783012
353.6902, 1.186874
354.1724, 8.345428
354.6545, 14.07821
355.1366, 16.25680
355.6187, 18.47398
356.1008, 23.41405
356.5829, 27.57303
357.0651, 25.25996
357.5472, 17.17867
358.0293, 12.00658
358.5114, 15.77312
358.9935, 26.45969
359.4756, 29.03764
359.9578, 15.38132
360.4399, 4.391289
360.9220, 4.102646
361.4041, 9.300049
361.8862, 11.47507
362.3683, 7.128784
362.8505, 1.657738
363.3326, 4.374313
363.8147, 22.11201
364.2968, 29.92843
364.7789, 18.64995
365.2610, 7.022881
365.7432, 6.399712
366.2253, 14.94874
366.7074, 23.97677
367.1895, 27.10071
367.6716, 25.44531
368.1537, 26.16902
368.6359, 32.87950
369.1180, 36.34248
369.6001, 30.85643
370.0822, 23.64925
370.5643, 23.67814
371.0464, 33.26450
371.5286, 42.70834
372.0107, 37.80310
372.4928, 17.47847
372.9749, 3.467140
373.4570, 0.3709720
373.9391, 1.554573
374.4213, 3.205009
374.9034, 5.404015
375.3855, 8.679947
375.8676, 14.93674
376.3497, 21.51166
376.8318, 23.66644
377.3140, 21.11443
377.7961, 17.63665
378.2782, 14.84901
378.7603, 12.20478
379.2424, 8.289268
379.7245, 1.862274
380.2067, 2.283623
380.6888, 0.1036910
381.1709, 5.449013
381.6530, 9.296463
382.1351, 10.41766
382.6172, 9.153297
383.0994, 4.127983
383.5815, 5.349396
384.0636, 5.197487
384.5457, 19.16528
385.0278, 38.83429
385.5099, 33.05171
385.9921, 10.89765
386.4742, 4.791077
386.9563, 2.133675
387.4384, 11.03278
387.9205, 14.11743
388.4026, 6.785202
388.8848, 16.31004
389.3669, 5.552444
389.8490, 9.534698
390.3311, 18.27994
390.8132, 19.59547
391.2953, 18.05041
391.7775, 17.66634
392.2596, 18.27935
392.7417, 16.57217
393.2238, 9.946274
393.7059, 4.790161
394.1880, 3.799980
394.6702, 5.672150
395.1523, 7.002556
395.6344, 6.165039
396.1165, 4.780006
396.5986, 3.057053
397.0807, 1.009163
397.5629, 1.674423
398.0450, 6.029938
398.5271, 12.83692
399.0092, 23.87619
399.4913, 37.43534
399.9734, 44.55586
400.4556, 35.87115
400.9377, 22.38273
401.4198, 18.80164
401.9019, 24.69078
402.3840, 28.98122
402.8661, 25.08875
403.3483, 16.65926
403.8304, 13.77287
404.3125, 19.73635
404.7946, 23.07932
405.2767, 18.41076
405.7589, 10.90752
406.2410, 6.107376
406.7231, 5.060966
407.2052, 6.417664
407.6873, 9.045525
408.1694, 13.31258
408.6516, 18.46907
409.1337, 23.68166
409.6158, 29.94274
410.0979, 40.39554
410.5800, 50.99034
411.0621, 55.77014
411.5443, 53.13449
412.0264, 47.73149
412.5085, 44.89636
412.9906, 44.25987
413.4727, 49.64040
413.9548, 74.11709
414.4370, 93.19493
414.9191, 89.65804
415.4012, 70.74088
415.8833, 58.35305
416.3654, 67.79927
416.8475, 88.75311
417.3297, 100.0930
417.8118, 100.9015
418.2939, 99.62152
418.7760, 99.43546
419.2581, 98.60160
419.7402, 94.78495
420.2224, 87.55825
420.7045, 79.81158
421.1866, 72.44653
421.6687, 65.53365
422.1508, 58.82083
422.6329, 52.29450
423.1151, 47.51071
423.5972, 46.09169
424.0793, 47.69060
424.5614, 48.48872
425.0435, 47.80116
425.5256, 47.22906
426.0078, 47.57220
426.4899, 48.18272
426.9720, 48.35526
427.4541, 47.83489
427.9362, 46.37983
428.4183, 43.24489
428.9005, 37.38071
429.3826, 34.77121
429.8647, 38.82069
430.3468, 42.57847
430.8289, 43.34045
431.3110, 42.21271
431.7932, 41.37097
432.2753, 41.79391
432.7574, 43.05584
433.2395, 45.32246
433.7216, 49.35255
434.2037, 49.04663
434.6859, 37.35161
435.1680, 26.72196
435.6501, 27.75389
436.1322, 39.04790
436.6143, 50.97358
437.0964, 64.34975
437.5786, 73.13139
438.0607, 64.40420
438.5428, 39.08540
439.0249, 16.63824
439.5070, 5.807755
439.9891, 4.941292
440.4713, 11.76513
440.9534, 30.91350
441.4355, 44.52220
441.9176, 45.74194
442.3997, 42.52113
442.8818, 41.88445
443.3640, 44.54859
443.8461, 47.29666
444.3282, 47.14999
444.8103, 44.81252
445.2924, 42.66768
445.7745, 41.97050
446.2567, 38.95976
446.7388, 30.25074
447.2209, 21.74651
447.7030, 18.37031
448.1851, 20.58966
448.6672, 24.39046
449.1494, 25.97200
449.6315, 25.34468
450.1136, 23.03522
450.5957, 18.98659
451.0778, 13.27990
451.5599, 1.0818000E-02
452.0421, 13.32623
452.5242, 12.79966
453.0063, 10.38020
453.4884, 35.25583
453.9705, 42.82849
454.4526, 37.69707
454.9348, 36.18475
455.4169, 43.45366
455.8990, 49.11868
456.3811, 39.85302
456.8632, 14.18512
457.3453, 1.173233
457.8275, 0.6980210
458.3096, 4.858131
458.7917, 14.82205
459.2738, 25.18882
459.7559, 27.58023
460.2380, 18.60959
460.7202, 5.330917
461.2023, 0.5833970
461.6844, 8.993416
462.1665, 12.62756
462.6486, 6.059952
463.1307, 0.1900560
463.6129, 1.435387
464.0950, 6.801285
464.5771, 8.922791
465.0592, 3.055840
465.5413, 5.384010
466.0234, 6.934006
466.5056, 1.441010
466.9877, 8.232254
467.4698, 28.43324
467.9519, 44.60600
468.4340, 36.57825
468.9161, 8.064957
469.3983, 6.641045
469.8804, 20.15321
470.3625, 54.26957
470.8446, 57.02278
471.3267, 33.70880
471.8088, 16.99148
472.2910, 23.68558
472.7731, 41.39602
473.2552, 43.29147
473.7373, 14.79671
474.2194, 1.192886
474.7015, 5.317833
475.1837, 16.52766
475.6658, 19.05676
476.1479, 14.50296
476.6300, 14.23508
477.1121, 26.63169
477.5942, 45.49631
478.0764, 50.98055
478.5585, 35.82738
479.0406, 26.49986
479.5227, 34.95406
480.0048, 45.41788
480.4869, 48.34140
480.9691, 43.74213
481.4512, 36.79521
481.9333, 28.52503
482.4154, 20.59893
482.8975, 15.82034
483.3796, 14.19813
483.8618, 14.81136
484.3439, 17.48597
484.8260, 21.92089
485.3081, 28.82331
485.7902, 39.54092
486.2723, 46.08197
486.7545, 45.96962
487.2366, 42.66881
487.7187, 37.20206
488.2008, 30.83269
488.6829, 27.33344
489.1650, 29.56493
489.6472, 34.91157
490.1293, 33.73956
490.6114, 17.68283
491.0935, 11.20000
491.5756, 24.20498
492.0577, 39.78036
492.5399, 47.10712
493.0220, 46.53566
493.5041, 44.48377
493.9862, 44.85986
494.4683, 46.65704
494.9504, 47.59418
495.4326, 48.04770
495.9147, 50.30461
496.3968, 53.98159
496.8789, 56.51126
497.3610, 52.26807
497.8431, 40.17560
498.3253, 33.38826
498.8074, 39.81147
499.2895, 49.71663
499.7716, 55.29274
500.2537, 56.30932
500.7358, 54.20004
501.2180, 49.31686
501.7001, 43.53252
502.1822, 41.75811
502.6643, 47.03677
503.1464, 50.96915
503.6285, 53.14783
504.1107, 54.54160
504.5928, 55.21546
505.0749, 55.56976
505.5570, 56.58180
506.0391, 59.21837
506.5212, 62.04863
507.0034, 61.48602
507.4855, 57.06995
507.9676, 55.24136
508.4497, 60.43620
508.9318, 65.26599
509.4139, 60.65692
509.8961, 47.02261
510.3782, 35.87647
510.8603, 31.38107
511.3424, 29.73138
511.8245, 27.02620
512.3066, 25.16544
512.7888, 31.51183
513.2709, 49.52101
513.7530, 70.56406
514.2351, 80.64879
514.7172, 76.61353
515.1993, 71.48156
515.6815, 59.18692
516.1636, 52.48993
516.6457, 64.64999
517.1278, 83.72865
517.6099, 87.17616
518.0920, 64.40719
518.5742, 36.03101
519.0563, 33.52581
519.5384, 55.96292
520.0205, 67.69843
520.5026, 60.42176
520.9847, 49.92201
521.4669, 49.41496
521.9490, 54.20164
522.4311, 49.61451
522.9132, 22.35675
523.3953, 0.2271960
523.8774, 3.589531
524.3596, 20.58929
524.8417, 25.47272
525.3238, 13.18918
525.8059, 0.5378800
526.2880, 0.9615020
526.7701, 17.62048
527.2523, 26.57377
527.7344, 23.26388
528.2165, 18.71368
528.6986, 11.69391
529.1807, 6.054459
529.6628, 7.310165
530.1450, 15.63729
530.6271, 22.95096
531.1092, 21.30891
531.5913, 12.91216
532.0734, 3.904305
532.5555, 6.651680
533.0377, 11.06049
533.5198, 4.025940
534.0019, 10.66631
534.4840, 26.71069
534.9661, 46.57057
535.4482, 59.16493
535.9304, 56.87996
536.4125, 49.47793
536.8946, 45.27431
537.3767, 44.34335
537.8588, 43.39426
538.3409, 40.50941
538.8231, 36.22422
539.3052, 31.32349
539.7873, 22.91219
540.2694, 20.83492
540.7515, 38.04484
541.2336, 50.37233
541.7158, 39.90988
542.1979, 14.44857
542.6800, 4.729942
543.1621, 7.083290
543.6442, 0.6682430
544.1263, 7.351578
544.6085, 16.25403
545.0906, 21.91604
545.5727, 23.07899
546.0548, 21.40103
546.5369, 16.83655
547.0190, 9.376678
547.5012, 9.751274
547.9833, 27.87143
548.4654, 42.06828
548.9475, 43.64673
549.4296, 37.63002
549.9117, 28.34869
550.3939, 17.92888
550.8760, 10.79514
551.3581, 14.14838
551.8402, 26.39882
552.3223, 23.39091
552.8044, 7.141876
553.2866, 26.56507
553.7687, 7.842148
554.2508, 22.35648
554.7329, 39.58362
555.2150, 41.20818
555.6971, 35.84930
556.1793, 21.45284
556.6614, 6.054764
557.1435, 0.2131880
557.6256, 3.310822
558.1077, 8.842384
558.5898, 13.84582
559.0720, 18.13540
559.5541, 21.40816
560.0362, 24.27310
560.5183, 24.53445
561.0004, 18.11509
561.4825, 13.50568
561.9647, 16.42248
562.4468, 23.74737
562.9289, 29.47604
563.4110, 31.00553
563.8931, 30.28371
564.3752, 27.76022
564.8574, 24.30314
565.3395, 28.45487
565.8216, 44.40902
566.3037, 57.67052
566.7858, 55.52503
567.2679, 41.50637
567.7501, 33.38103
568.2322, 35.00738
568.7143, 36.82011
569.1964, 34.47314
569.6785, 32.06587
570.1606, 35.61258
570.6428, 44.31656
571.1249, 51.01954
571.6070, 50.20988
572.0891, 43.50401
572.5712, 35.44684
573.0533, 22.89153
573.5355, 18.80150
574.0176, 35.10513
574.4997, 52.36391
574.9818, 54.93226
575.4639, 45.50110
575.9460, 38.47110
576.4282, 45.89867
576.9103, 51.47016
577.3924, 32.70251
577.8745, 1.341606
578.3566, 8.471981
578.8387, 13.12852
579.3209, 40.85612
579.8030, 45.30006
580.2851, 25.03921
580.7672, 16.72430
581.2493, 36.14413
581.7314, 48.73521
582.2136, 41.88837
582.6957, 29.76589
583.1778, 26.61828
583.6599, 34.10055
584.1420, 43.49757
584.6241, 49.93865
585.1063, 53.01298
585.5884, 50.93197
586.0705, 43.70534
586.5526, 35.44608
587.0347, 26.15051
587.5168, 19.47883
587.9990, 22.50677
588.4811, 39.05871
588.9632, 48.29754
589.4453, 44.03532
589.9274, 38.45406
590.4095, 37.25972
590.8917, 38.17083
591.3738, 37.97219
591.8559, 35.12650
592.3380, 29.80684
592.8201, 20.46206
593.3022, 7.851639
593.7844, 2.509422
594.2665, 6.104698
594.7486, 12.54146
595.2307, 22.52642
595.7128, 31.70348
596.1949, 31.95248
596.6771, 19.27853
597.1592, 12.96360
597.6413, 25.99892
598.1234, 41.20298
598.6055, 42.14277
599.0876, 33.30098
599.5698, 29.44143
600.0519, 37.45066
600.5340, 49.82401
601.0161, 54.20691
601.4982, 49.46082
601.9803, 46.01910
602.4625, 43.09600
602.9446, 42.55828
603.4267, 50.56247
603.9088, 59.29014
604.3909, 55.49301
604.8730, 34.00774
605.3552, 14.31620
605.8373, 8.622986
606.3194, 10.15972
606.8015, 10.02235
607.2836, 7.918934
607.7657, 7.760899
608.2479, 11.92118
608.7300, 18.41258
609.2121, 22.38583
609.6942, 21.18100
610.1763, 24.01173
610.6584, 36.65226
611.1406, 45.68371
611.6227, 47.37600
612.1048, 44.18707
612.5869, 41.03693
613.0690, 39.56165
613.5511, 39.19082
614.0333, 38.32898
614.5154, 36.82611
614.9975, 35.16067
615.4796, 33.81034
615.9617, 34.29442
616.4438, 37.93062
616.9260, 42.48602
617.4081, 41.35176
617.8902, 28.43958
618.3723, 21.12252
618.8544, 13.97515
619.3365, 25.04683
619.8187, 31.90481
620.3008, 34.77463
620.7829, 21.71507
621.2650, 29.22410
621.7471, 28.48930
622.2292, 27.41618
622.7114, 37.81908
623.1935, 27.07373
623.6756, 37.29329
624.1577, 44.69873
624.6398, 50.99461
625.1219, 54.25470
625.6041, 51.09543
626.0862, 30.55101
626.5683, 22.73483
627.0504, 39.97803
627.5325, 58.68867
628.0146, 66.54845
628.4968, 64.95348
628.9789, 58.49008
629.4610, 48.73760
629.9431, 38.13899
630.4252, 28.01883
630.9073, 19.32407
631.3895, 18.22126
631.8716, 26.60475
632.3537, 33.45174
632.8358, 23.50910
633.3179, 33.34154
633.8000, 38.95992
634.2822, 40.59070
634.7643, 26.29183
635.2464, 32.56156
635.7285, 30.56695
636.2106, 27.68255
636.6927, 36.84578
637.1749, 24.86131
637.6570, 33.84153
638.1391, 34.45238
638.6212, 38.89298
639.1033, 35.03949
639.5854, 33.74731
640.0676, 40.75143
640.5497, 43.16103
641.0318, 28.23723
641.5139, 19.24485
641.9960, 15.17400
642.4781, 17.39465
642.9603, 20.54874
643.4424, 24.47188
643.9245, 28.97938
644.4066, 34.48147
644.8887, 40.37461
645.3708, 46.24463
645.8530, 51.90449
646.3351, 55.39385
646.8172, 53.19298
647.2993, 46.54521
647.7814, 41.28398
648.2635, 37.38528
648.7457, 37.90414
649.2278, 47.15910
649.7099, 58.74577
650.1920, 59.08525
650.6741, 43.64639
651.1563, 33.08595
651.6384, 35.47584
652.1205, 35.45650
652.6026, 21.38516
653.0847, 1.281246
653.5668, 12.54652
654.0490, 16.38705
654.5311, 14.43350
655.0132, 10.34872
655.4953, 3.880074
655.9774, 7.421638
656.4595, 24.08855
656.9417, 37.97313
657.4238, 46.79706
657.9059, 49.70464
658.3880, 43.75174
658.8701, 25.97323
659.3522, 15.30576
659.8344, 15.78064
660.3165, 18.44635
660.7986, 19.11655
661.2807, 20.69225
661.7628, 30.48223
662.2449, 47.73832
662.7271, 57.91155
663.2092, 42.39442
663.6913, 15.59924
664.1734, 11.41615
664.6555, 28.46717
665.1376, 44.02216
665.6198, 51.26618
666.1019, 54.16520
666.5840, 56.68196
667.0661, 58.81848
667.5482, 60.77435
668.0303, 62.66837
668.5125, 64.24712
668.9946, 72.50308
669.4767, 75.36362
669.9588, 56.22992
670.4409, 19.51300
670.9230, 11.22081
671.4052, 23.06658
671.8873, 21.22248
672.3694, 7.342651
672.8515, 15.05133
673.3336, 31.30384
673.8157, 38.34367
674.2979, 40.54656
674.7800, 40.90231
675.2621, 39.78698
675.7442, 39.45654
676.2263, 41.81797
676.7084, 41.82499
677.1906, 37.52325
677.6727, 32.55133
678.1548, 28.87100
678.6369, 26.27804
679.1190, 23.52684
679.6011, 19.44627
680.0833, 17.43024
680.5654, 22.56139
681.0475, 30.94289
681.5296, 35.82555
682.0117, 36.41678
682.4938, 31.82896
682.9760, 20.22620
683.4581, 8.540775
683.9402, 13.75274
684.4223, 44.64550
684.9044, 64.37507
685.3865, 71.32123
685.8687, 68.50058
686.3508, 48.78585
686.8329, 24.45281
687.3150, 12.81661
687.7971, 17.52046
688.2792, 25.66625
688.7614, 35.61689
689.2435, 42.87637
689.7256, 40.97971
690.2077, 32.83018
690.6898, 26.15083
691.1719, 23.75625
691.6541, 23.74980
692.1362, 24.26820
692.6183, 25.20451
693.1004, 24.39347
693.5825, 21.36819
694.0646, 17.69482
694.5468, 10.87557
695.0289, 6.415493
695.5110, 13.08082
695.9931, 29.85139
696.4752, 40.33779
696.9573, 39.45454
697.4395, 34.76616
697.9216, 26.67741
698.4037, 18.28587
698.8858, 12.91507
699.3679, 11.04131
699.8500, 11.50208
700.3322, 13.89508
700.8143, 17.30186
701.2964, 20.12100
701.7785, 22.32962
702.2606, 23.59795
702.7427, 24.18028
703.2249, 22.08830
703.7070, 13.25536
704.1891, 1.075897
704.6712, 0.5179630
705.1533, 25.93829
705.6354, 40.19327
706.1176, 32.92152
706.5997, 22.94303
707.0818, 20.14408
707.5639, 23.19132
708.0460, 28.43986
708.5281, 34.88434
709.0103, 40.44172
709.4924, 44.62362
709.9745, 46.17679
710.4566, 40.31622
710.9387, 28.07116
711.4208, 19.21637
711.9030, 19.45668
712.3851, 22.53036
712.8672, 17.08382
713.3493, 0.8573840
713.8314, 0.6588900
714.3135, 26.04726
714.7957, 45.10154
715.2778, 40.63231
715.7599, 28.64703
716.2420, 22.66065
716.7241, 23.18366
717.2062, 24.74811
717.6884, 28.10966
718.1705, 29.27924
718.6526, 21.23277
719.1347, 11.13773
719.6168, 11.02398
720.0989, 21.59926
720.5811, 33.54992
721.0632, 40.67437
721.5453, 43.03438
722.0274, 39.49702
722.5095, 29.65202
722.9916, 20.60307
723.4738, 11.37656
723.9559, 8.895035
724.4380, 22.91895
724.9201, 46.00597
725.4022, 51.90585
725.8843, 30.65623
726.3665, 16.08926
726.8486, 13.34900
727.3307, 15.39366
727.8128, 22.08052
728.2949, 29.45553
728.7770, 30.08559
729.2592, 22.30021
729.7413, 13.70332
730.2234, 9.603462
730.7055, 9.393875
731.1876, 13.47053
731.6697, 20.76691
732.1519, 24.67854
732.6340, 22.71639
733.1161, 21.49793
733.5982, 29.45487
734.0803, 45.19152
734.5624, 52.07166
735.0446, 44.55000
735.5267, 42.39315
736.0088, 61.26700
736.4909, 76.00805
736.9730, 60.88422
737.4551, 25.52711
737.9373, 7.223434
738.4194, 26.56647
738.9015, 42.41399
739.3836, 31.89413
739.8657, 12.54910
740.3478, 0.4454120
740.8300, 5.334320
741.3121, 3.647621
741.7942, 4.032425
742.2763, 14.67352
742.7584, 25.59588
743.2405, 36.10822
743.7227, 41.61917
744.2048, 41.66637
744.6869, 39.55755
745.1690, 37.70129
745.6511, 36.28362
746.1332, 35.47502
746.6154, 35.14921
747.0975, 36.28539
747.5796, 45.32784
748.0617, 47.56710
748.5438, 33.43095
749.0259, 16.06798
749.5081, 7.092812
749.9902, 6.534134
750.4723, 7.423164
750.9544, 5.068306
751.4365, 5.729691
751.9186, 16.56493
752.4008, 32.52565
752.8829, 47.18884
753.3650, 58.92783
753.8471, 66.28111
754.3292, 68.66031
754.8113, 66.28178
755.2935, 60.52618
755.7756, 51.31849
756.2577, 42.13768
756.7398, 32.22166
757.2219, 26.10110
757.7040, 27.34555
758.1862, 32.37887
758.6683, 34.66639
759.1504, 32.59909
759.6325, 35.24009
760.1146, 54.09039
760.5967, 63.71107
761.0789, 44.90335
761.5610, 20.12697
762.0431, 15.63438
762.5252, 30.61441
763.0073, 40.93319
763.4894, 29.07726
763.9716, 13.95510
764.4537, 16.49362
764.9358, 28.33318
765.4179, 32.27767
765.9000, 26.70939
766.3821, 19.83485
766.8643, 16.54475
767.3464, 16.96917
767.8285, 24.08715
768.3106, 39.39388
768.7927, 41.13740
769.2748, 22.27881
769.7570, 7.802711
770.2391, 12.93012
770.7212, 26.01528
771.2033, 26.90157
771.6854, 12.60743
772.1675, 5.343498
772.6497, 8.104591
773.1318, 15.29166
773.6139, 34.56293
774.0960, 50.84882
774.5781, 43.89880
775.0602, 17.33739
775.5424, 2.364311
776.0245, 1.694717
776.5066, 11.50164
776.9887, 7.804031
777.4708, 1.491203
777.9529, 0.8199920
778.4351, 14.57710
778.9172, 25.89256
779.3993, 27.04890
779.8814, 21.88368
780.3635, 15.03977
780.8456, 6.179848
781.3278, 9.082977
781.8099, 29.57371
782.2920, 40.78722
782.7741, 26.92853
783.2562, 5.017395
783.7383, 2.250710
784.2205, 6.648651
784.7026, 14.24066
785.1847, 20.87713
785.6668, 25.78174
786.1489, 26.94293
786.6310, 27.80943
787.1132, 33.80373
787.5953, 42.12296
788.0774, 42.94436
788.5595, 30.28491
789.0416, 15.60806
789.5237, 7.244728
790.0059, 2.423279
790.4880, 6.137390
790.9701, 16.16538
791.4522, 14.69900
791.9343, 3.300224
792.4164, 22.77939
792.8986, 20.74699
793.3807, 2.214775
793.8628, 1.936234
794.3449, 22.01202
794.8270, 34.25849
795.3091, 28.22569
795.7913, 17.95823
796.2734, 17.00508
796.7555, 24.56686
797.2376, 33.24630
797.7197, 47.95954
798.2018, 55.86576
798.6840, 53.44708
799.1661, 46.60473
799.6482, 36.50593
800.1303, 24.43858
800.6124, 10.89043
801.0945, 6.131516
801.5767, 13.22118
802.0588, 2.790230
802.5409, 23.76054
803.0230, 39.70692
803.5051, 48.66331
803.9872, 46.77554
804.4694, 34.55643
804.9515, 20.66460
805.4336, 10.87025
805.9157, 5.177567
806.3978, 4.772652
806.8799, 8.736702
807.3621, 11.62141
807.8442, 12.54900
808.3263, 18.40651
808.8084, 35.12997
809.2905, 55.81239
809.7726, 63.99379
810.2548, 58.14693
810.7369, 44.42496
811.2190, 11.67030
811.7011, 5.860268
812.1832, 18.41885
812.6653, 55.04915
813.1475, 63.01861
813.6296, 42.31572
814.1117, 30.81867
814.5938, 37.68778
815.0759, 46.09313
815.5580, 52.87045
816.0402, 58.02039
816.5223, 62.87409
817.0044, 66.17887
817.4865, 63.19817
817.9686, 49.95147
818.4507, 39.54588
818.9329, 44.24956
819.4150, 56.16749
819.8971, 68.40496
820.3792, 78.84672
820.8613, 80.47961
821.3434, 72.13860
821.8256, 60.15869
822.3077, 50.58898
822.7898, 43.00829
823.2719, 34.54232
823.7540, 25.24713
824.2361, 24.30842
824.7183, 34.83034
825.2004, 47.18408
825.6825, 53.43999
826.1646, 55.51978
826.6467, 58.79965
827.1288, 65.69051
827.6110, 67.34148
828.0931, 61.48511
828.5752, 53.52753
829.0573, 39.32262
829.5394, 27.90298
830.0215, 33.49480
830.5037, 58.04269
830.9858, 73.99877
831.4679, 70.57549
831.9500, 64.40736
832.4321, 60.52792
832.9142, 58.10667
833.3964, 55.88988
833.8785, 54.31791
834.3606, 55.16245
834.8427, 59.96576
835.3248, 63.32982
835.8069, 58.25220
836.2891, 50.76146
836.7712, 51.60741
837.2533, 57.90943
837.7354, 58.85823
838.2175, 51.15070
838.6996, 40.03823
839.1818, 28.79250
839.6639, 20.13915
840.1460, 26.55661
840.6281, 47.08297
841.1102, 56.92181
841.5923, 50.46014
842.0745, 40.80549
842.5566, 36.43389
843.0387, 35.05556
843.5208, 30.22776
844.0029, 18.90694
844.4850, 17.07266
844.9672, 34.40210
845.4493, 44.37136
845.9314, 32.16219
846.4135, 12.61516
846.8956, 0.5716400
847.3777, 7.233524
847.8599, 5.030899
848.3420, 17.89417
848.8241, 32.53745
849.3062, 27.28071
849.7883, 18.57007
850.2704, 16.90098
850.7526, 19.87444
851.2347, 19.92664
851.7168, 14.53573
852.1989, 10.77276
852.6810, 15.14574
853.1631, 20.95704
853.6453, 22.80331
854.1274, 20.97108
854.6095, 14.16253
855.0916, 3.854988
855.5737, 1.229439
856.0558, 7.727516
856.5380, 11.13402
857.0201, 20.45950
857.5022, 25.63913
857.9843, 26.89566
858.4664, 12.47977
858.9485, 17.93959
859.4307, 14.84283
859.9128, 12.22085
860.3949, 20.89011
860.8770, 8.752998
861.3591, 17.24284
861.8412, 7.930862
862.3234, 6.858559
862.8055, 18.09824
863.2876, 30.64983
863.7697, 35.60093
864.2518, 34.85868
864.7339, 35.70571
865.2161, 42.35488
865.6982, 41.62323
866.1803, 22.16094
866.6624, 8.815376
867.1445, 17.85110
867.6266, 32.32023
868.1088, 30.65315
868.5909, 12.72675
869.0730, 0.8549120
869.5551, 3.905777
870.0372, 7.863037
870.5193, 4.713257
871.0015, 2.301918
871.4836, 10.22146
871.9657, 23.78908
872.4478, 31.26871
872.9299, 28.59592
873.4120, 23.53094
873.8942, 15.63969
874.3763, 12.72729
874.8584, 31.50539
875.3405, 58.38544
875.8226, 65.55812
876.3047, 49.78928
876.7869, 27.32124
877.2690, 6.446419
877.7511, 6.936054
878.2332, 1.533272
878.7153, 24.24895
879.1974, 37.07809
879.6796, 38.93539
880.1617, 39.93134
880.6438, 44.41611
881.1259, 44.80392
881.6080, 28.83426
882.0901, 1.662132
882.5723, 3.761940
883.0544, 14.94958
883.5365, 31.59209
884.0186, 42.98308
884.5007, 44.34189
884.9828, 28.48331
885.4650, 5.593330
885.9471, 1.831558
886.4292, 25.83320
886.9113, 30.59352
887.3934, 0.5528030
887.8755, 20.99112
888.3577, 19.02097
888.8398, 5.633080
889.3219, 11.81663
889.8040, 31.99733
890.2861, 44.59512
890.7682, 49.03428
891.2504, 47.08522
891.7325, 32.00676
892.2146, 18.03262
892.6967, 12.75601
893.1788, 13.20113
893.6609, 14.32495
894.1431, 15.51403
894.6252, 20.54379
895.1073, 39.44747
895.5894, 51.94620
896.0715, 41.62379
896.5536, 24.53794
897.0358, 15.72448
897.5179, 15.35820
898.0000, 18.94148
898.4821, 25.11304
898.9642, 31.10639
899.4464, 35.71053
899.9285, 38.21886
900.4106, 26.66398
900.8927, 36.10714
901.3748, 41.36751
901.8569, 42.66991
902.3391, 28.16009
902.8212, 34.06812
903.3033, 31.79340
903.7854, 29.18306
904.2675, 37.96438
904.7496, 25.55202
905.2318, 33.53197
905.7139, 33.34211
906.1960, 37.43868
906.6781, 33.30622
907.1602, 31.72041
907.6423, 38.37045
908.1245, 40.46017
908.6066, 35.38357
909.0887, 27.13586
909.5708, 29.15336
910.0529, 32.78812
910.5350, 36.15359
911.0172, 38.05751
911.4993, 35.81581
911.9814, 29.25304
912.4635, 27.53228
912.9456, 32.42957
913.4277, 35.91870
913.9099, 36.85145
914.3920, 35.51129
914.8741, 29.86794
915.3562, 23.51823
915.8383, 27.94182
916.3204, 49.57390
916.8026, 63.19449
917.2847, 67.86288
917.7668, 65.90198
918.2489, 50.80535
918.7310, 34.84818
919.2131, 30.74781
919.6953, 36.62319
920.1774, 40.23980
920.6595, 38.70499
921.1416, 39.64048
921.6237, 47.12844
922.1058, 53.67152
922.5880, 57.11277
923.0701, 56.48683
923.5522, 48.60596
924.0343, 33.96303
924.5164, 23.45580
924.9985, 21.44509
925.4807, 22.62740
925.9628, 27.67313
926.4449, 32.70716
926.9270, 35.52750
927.4091, 35.48984
927.8912, 30.17580
928.3734, 18.97238
928.8555, 11.62112
929.3376, 13.05070
929.8197, 20.89684
930.3018, 40.27659
930.7839, 61.55203
931.2661, 66.43880
931.7482, 59.02873
932.2303, 55.83115
932.7124, 64.58214
933.1945, 73.56700
933.6766, 72.96463
934.1588, 67.64354
934.6409, 63.09662
935.1230, 59.27896
935.6051, 53.08896
936.0872, 46.17678
936.5693, 42.43914
937.0515, 45.45105
937.5336, 49.48640
938.0157, 43.04684
938.4978, 31.66793
938.9799, 31.52668
939.4620, 40.46528
939.9442, 46.24846
940.4263, 45.23715
940.9084, 44.07997
941.3905, 48.06045
941.8726, 53.56463
942.3547, 50.80437
942.8369, 42.48801
943.3190, 46.42425
943.8011, 62.23664
944.2832, 64.27366
944.7653, 42.03715
945.2474, 14.53541
945.7296, 1.534126
946.2117, 0.8943100
946.6938, 1.266426
947.1759, 5.217842
947.6580, 1.1116000E-02
948.1401, 16.79443
948.6223, 28.31274
949.1044, 25.24852
949.5865, 16.61688
950.0686, 16.00758
950.5507, 22.42262
951.0328, 21.63036
951.5150, 12.21329
951.9971, 5.239365
952.4792, 2.643402
952.9613, 1.839577
953.4434, 8.3961003E-02
953.9255, 1.604820
954.4077, 16.96571
954.8898, 48.81950
955.3719, 60.18798
955.8540, 43.99442
956.3361, 28.66628
956.8182, 18.84705
957.3004, 14.42726
957.7825, 17.67989
958.2646, 24.48198
958.7467, 23.27489
959.2288, 9.833923
959.7109, 6.838326
960.1931, 21.98604
960.6752, 32.57597
961.1573, 29.81528
961.6394, 24.25863
962.1215, 24.62276
962.6036, 29.30109
963.0858, 32.59378
963.5679, 36.17621
964.0500, 34.04994
964.5321, 18.66071
965.0142, 8.074005
965.4963, 11.49319
965.9785, 18.85802
966.4606, 20.59654
966.9427, 18.00792
967.4248, 17.65025
967.9069, 20.36654
968.3890, 23.95282
968.8712, 31.77067
969.3533, 36.27639
969.8354, 29.64101
970.3175, 21.81619
970.7996, 25.95060
971.2817, 40.08805
971.7639, 46.75320
972.2460, 38.97183
972.7281, 32.24537
973.2102, 31.55779
973.6923, 28.83000
974.1744, 15.41670
974.6566, 0.7728120
975.1387, 1.264816
975.6208, 8.627831
976.1029, 13.29651
976.5850, 3.854797
977.0671, 6.885368
977.5493, 29.01760
978.0314, 62.49869
978.5135, 68.94937
978.9956, 58.49355
979.4777, 42.45229
979.9598, 23.34199
980.4420, 14.01000
980.9241, 29.59718
981.4062, 38.65672
981.8883, 21.76550
982.3704, 5.233604
982.8525, 11.15674
983.3347, 27.37182
983.8168, 32.48944
984.2989, 23.94716
984.7810, 18.25105
985.2631, 19.62468
985.7452, 26.06567
986.2274, 50.59254
986.7095, 66.71802
987.1916, 41.42413
987.6737, 1.283264
988.1558, 16.11647
988.6379, 4.120293
989.1201, 19.28493
989.6022, 5.034576
990.0843, 4.807426
990.5664, 14.75461
991.0485, 35.08044
991.5306, 25.80144
992.0128, 1.607407
992.4949, 4.754250
992.9770, 12.84900
993.4591, 24.36832
993.9412, 11.96611
994.4233, 1.115860
994.9055, 8.779530
995.3876, 9.619110
995.8697, 0.3449330
996.3518, 16.11060
996.8339, 30.34103
997.3160, 41.22199
997.7982, 43.74196
998.2803, 27.40466
998.7624, 12.60036
999.2445, 8.683296
999.7266, 11.97295
1000.209, 25.35116
1000.691, 41.15186
1001.173, 42.86905
1001.655, 26.92113
1002.137, 15.80692
1002.619, 20.53794
1003.101, 28.79523
1003.584, 35.74552
1004.066, 41.58563
1004.548, 49.37928
1005.030, 55.16934
1005.512, 50.08356
1005.994, 31.82242
1006.476, 15.96061
1006.958, 9.580360
1007.440, 6.936577
1007.923, 6.644623
1008.405, 7.484444
1008.887, 8.446564
1009.369, 9.689583
1009.851, 11.96435
1010.333, 15.41823
1010.815, 18.46475
1011.297, 22.50756
1011.780, 23.35204
1012.262, 13.09621
1012.744, 4.081612
1013.226, 11.58627
1013.708, 26.75687
1014.190, 29.27110
1014.672, 15.35584
1015.154, 7.853897
1015.636, 24.06321
1016.119, 36.89575
1016.601, 30.92958
1017.083, 20.68743
1017.565, 15.88606
1018.047, 16.43127
1018.529, 22.30809
1019.011, 33.22826
1019.493, 39.45604
1019.976, 35.64739
1020.458, 29.49282
1020.940, 18.90923
1021.422, 11.81441
1021.904, 16.09519
1022.386, 26.98624
1022.868, 38.38615
1023.350, 49.03643
1023.832, 52.37064
1024.315, 40.09428
1024.797, 29.35660
1025.279, 26.42769
1025.761, 25.29823
1026.243, 21.58142
1026.725, 20.99389
1027.207, 16.85324
1027.689, 20.01969
1028.172, 22.08203
1028.654, 23.51084
1029.136, 21.67506
1029.618, 11.09060
1030.100, 2.555763
1030.582, 1.659729
1031.064, 6.569443
1031.546, 16.87385
1032.028, 31.69628
1032.510, 41.46461
1032.993, 44.40728
1033.475, 43.19362
1033.957, 35.21265
1034.439, 26.15035
1034.921, 17.10536
1035.403, 10.07093
1035.885, 4.308617
1036.367, 0.7076030
1036.850, 6.996429
1037.332, 42.47124
1037.814, 55.96490
1038.296, 21.58195
1038.778, 2.198540
1039.260, 17.06416
1039.742, 44.39557
1040.224, 43.01763
1040.707, 19.41308
1041.189, 7.936783
1041.671, 15.72929
1042.153, 18.53288
1042.635, 10.25559
1043.117, 8.030373
1043.599, 19.99746
1044.081, 36.14952
1044.563, 51.16551
1045.046, 62.05138
1045.528, 56.63631
1046.010, 25.82141
1046.492, 13.82222
1046.974, 29.15808
1047.456, 35.80032
1047.938, 19.14575
1048.420, 3.655724
1048.903, 9.050812
1049.385, 25.44305
1049.867, 31.45940
1050.349, 26.30562
1050.831, 15.01382
1051.313, 7.259052
1051.795, 15.09151
1052.277, 0.2884980
1052.760, 16.50588
1053.242, 19.67983
1053.724, 17.22130
1054.206, 20.65026
1054.688, 29.24253
1055.170, 32.23022
1055.652, 29.34966
1056.134, 27.79826
1056.616, 28.71732
1057.099, 32.46928
1057.581, 40.24517
1058.063, 41.64792
1058.545, 16.65707
1059.027, 36.35873
1059.509, 9.052322
1059.991, 43.85392
1060.473, 61.58595
1060.955, 38.66467
1061.438, 16.87955
1061.920, 13.00134
1062.402, 19.93626
1062.884, 30.03783
1063.366, 40.90945
1063.848, 42.89075
1064.330, 39.88998
1064.812, 43.76796
1065.294, 53.51811
1065.777, 62.39289
1066.259, 67.78436
1066.741, 66.18368
1067.223, 53.17175
1067.705, 40.69022
1068.187, 48.81865
1068.669, 61.88597
1069.151, 47.72099
1069.634, 18.77621
1070.116, 7.942261
1070.598, 18.69129
1071.080, 31.25059
1071.562, 35.91080
1072.044, 36.06620
1072.526, 31.93182
1073.008, 27.22674
1073.490, 22.73302
1073.973, 21.87814
1074.455, 33.95102
1074.937, 53.87743
1075.419, 63.09259
1075.901, 54.30202
1076.383, 45.68283
1076.865, 49.17682
1077.347, 52.44850
1077.830, 46.71794
1078.312, 38.77676
1078.794, 32.94099
1079.276, 30.84397
1079.758, 37.60194
1080.240, 54.51592
1080.722, 60.26021
1081.204, 36.00405
1081.687, 18.92112
1082.169, 26.63697
1082.651, 36.17894
1083.133, 29.94770
1083.615, 19.31309
1084.097, 24.11862
1084.579, 43.93575
1085.061, 51.36043
1085.543, 33.23370
1086.026, 23.93699
1086.508, 29.43660
1086.990, 35.66782
1087.472, 37.03242
1087.954, 38.20151
1088.436, 44.93938
1088.918, 54.75600
1089.400, 57.70462
1089.882, 51.80923
1090.365, 47.49793
1090.847, 45.39316
1091.329, 42.66846
1091.811, 38.93811
1092.293, 32.34713
1092.775, 19.90240
1093.257, 8.518322
1093.739, 13.58003
1094.221, 33.26193
1094.704, 44.53856
1095.186, 47.54780
1095.668, 49.40042
1096.150, 51.15571
1096.632, 47.05571
1097.114, 34.26275
1097.596, 22.61232
1098.078, 25.06824
1098.561, 36.59706
1099.043, 43.24162
1099.525, 46.09853
1100.007, 46.28421
1100.489, 44.22283
1100.971, 39.03476
1101.453, 31.58546
1101.935, 31.28638
1102.417, 48.48671
1102.900, 64.98502
1103.382, 56.83156
1103.864, 39.15418
1104.346, 31.99307
1104.828, 30.34713
1105.310, 20.67532
1105.792, 4.479603
1106.274, 2.230553
1106.757, 9.062912
1107.239, 17.51961
1107.721, 5.244263
1108.203, 6.236935
1108.685, 3.534840
1109.167, 6.001747
1109.649, 19.60547
1110.131, 34.15164
1110.614, 40.45854
1111.096, 36.94894
1111.578, 30.77682
1112.060, 14.07685
1112.542, 8.520531
1113.024, 29.34838
1113.506, 49.68829
1113.988, 57.57079
1114.470, 55.72164
1114.953, 42.58356
1115.435, 21.19642
1115.917, 15.98536
1116.399, 33.42702
1116.881, 50.99865
1117.363, 74.30840
1117.845, 76.64035
1118.327, 41.39175
1118.809, 6.232460
1119.292, 2.127308
1119.774, 12.99561
1120.256, 13.20505
1120.738, 2.597805
1121.220, 6.560452
1121.702, 39.44687
1122.184, 59.57904
1122.666, 61.05902
1123.148, 51.03467
1123.631, 32.83643
1124.113, 12.14281
1124.595, 8.646049
1125.077, 22.32796
1125.559, 7.833344
1126.041, 22.07183
1126.523, 39.58549
1127.005, 45.12278
1127.488, 48.02072
1127.970, 50.64109
1128.452, 49.50066
1128.934, 41.66005
1129.416, 32.60189
1129.898, 24.83055
1130.380, 19.85365
1130.862, 20.38377
1131.344, 23.53466
1131.827, 24.80768
1132.309, 25.34680
1132.791, 31.40926
1133.273, 46.02977
1133.755, 53.47315
1134.237, 44.40326
1134.719, 34.62206
1135.201, 25.70489
1135.684, 20.91681
1136.166, 27.45739
1136.648, 36.17894
1137.130, 31.78505
1137.612, 15.18132
1138.094, 11.00411
1138.576, 26.64542
1139.058, 34.02251
1139.541, 30.40923
1140.023, 22.80802
1140.505, 11.24995
1140.987, 3.718647
1141.469, 6.910213
1141.951, 17.79844
1142.433, 32.61507
1142.915, 49.88485
1143.397, 52.92184
1143.880, 43.64859
1144.362, 41.87138
1144.844, 49.29409
1145.326, 49.29279
1145.808, 34.77995
1146.290, 23.18742
1146.772, 35.64564
1147.254, 23.62122
1147.736, 43.50783
1148.219, 23.90384
1148.701, 21.84887
1149.183, 32.03808
1149.665, 39.78666
1150.147, 42.39834
1150.629, 44.60966
1151.111, 48.91800
1151.593, 50.89458
1152.075, 44.68955
1152.558, 39.87998
1153.040, 44.68446
1153.522, 50.59368
1154.004, 53.04328
1154.486, 49.49671
1154.968, 31.38078
1155.450, 4.432220
1155.932, 20.01140
1156.415, 4.368679
1156.897, 12.20733
1157.379, 32.37135
1157.861, 43.74442
1158.343, 39.81944
1158.825, 28.24957
1159.307, 13.93918
1159.789, 1.041302
1160.271, 4.017494
1160.754, 22.72760
1161.236, 35.90650
1161.718, 43.50040
1162.200, 45.05623
1162.682, 40.79150
1163.164, 33.72637
1163.646, 25.28642
1164.128, 22.14591
1164.611, 36.02694
1165.093, 54.36119
1165.575, 60.34076
1166.057, 55.57913
1166.539, 34.48537
1167.021, 9.724232
1167.503, 12.37026
1167.985, 41.69373
1168.468, 60.96812
1168.950, 53.14778
1169.432, 40.82018
1169.914, 30.95703
1170.396, 24.28240
1170.878, 24.77852
1171.360, 25.26320
1171.842, 14.86440
1172.324, 1.617882
1172.807, 4.362129
1173.289, 24.07847
1173.771, 40.22728
1174.253, 57.66279
1174.735, 57.18754
1175.217, 29.57265
1175.699, 7.074772
1176.181, 0.2671390
1176.663, 6.256855
1177.146, 28.23959
1177.628, 54.60303
1178.110, 65.70920
1178.592, 61.71351
1179.074, 44.66629
1179.556, 19.53693
1180.038, 16.31579
1180.520, 34.13611
1181.002, 42.22895
1181.485, 29.22890
1181.967, 15.37349
1182.449, 15.45088
1182.931, 21.70918
1183.413, 30.61531
1183.895, 41.64363
1184.377, 60.53167
1184.859, 76.65101
1185.342, 70.38127
1185.824, 47.26972
1186.306, 33.78693
1186.788, 38.34324
1187.270, 40.04987
1187.752, 30.39479
1188.234, 25.06863
1188.716, 31.20228
1189.198, 35.57651
1189.681, 29.14552
1190.163, 21.94208
1190.645, 28.72938
1191.127, 43.50102
1191.609, 34.56013
1192.091, 40.72121
1192.573, 42.40602
1193.055, 28.84354
1193.538, 36.77837
1194.020, 10.61881
1194.502, 9.449482
1194.984, 1.186802
1195.466, 14.85607
1195.948, 16.11719
1196.430, 11.46923
1196.912, 14.26440
1197.395, 19.37714
1197.877, 18.58730
1198.359, 14.29462
1198.841, 11.59286
1199.323, 11.71471
1199.805, 14.11070
1200.287, 17.04225
1200.769, 25.75568
1201.251, 68.30874
1201.734, 89.61973
1202.216, 43.52215
1202.698, 0.8542900
1203.180, 8.113876
1203.662, 38.70092
1204.144, 46.25567
1204.626, 33.77823
1205.108, 23.33557
1205.590, 14.07825
1206.073, 16.14252
1206.555, 30.60850
1207.037, 43.61709
1207.519, 51.55798
1208.001, 47.20244
1208.483, 25.05013
1208.965, 5.959949
1209.447, 20.42068
1209.929, 49.89508
1210.412, 70.69157
1210.894, 81.77940
1211.376, 77.13821
1211.858, 63.66656
1212.340, 55.00624
1212.822, 53.01302
1213.304, 51.41970
1213.786, 48.99776
1214.269, 43.88076
1214.751, 31.41323
1215.233, 21.73525
1215.715, 17.50558
1216.197, 18.54781
1216.679, 27.49546
1217.161, 38.71097
1217.643, 45.04724
1218.125, 46.39043
1218.608, 40.84122
1219.090, 27.73849
1219.572, 19.13229
1220.054, 14.36102
1220.536, 15.53270
1221.018, 21.36976
1221.500, 23.95440
1221.982, 18.81202
1222.465, 14.58743
1222.947, 22.36056
1223.429, 34.19370
1223.911, 43.55041
1224.393, 47.81358
1224.875, 40.12924
1225.357, 27.35047
1225.839, 20.43265
1226.322, 20.81380
1226.804, 26.53503
1227.286, 39.42715
1227.768, 48.97694
1228.250, 53.87819
1228.732, 54.03396
1229.214, 47.75393
1229.696, 39.40145
1230.178, 29.54581
1230.661, 21.48528
1231.143, 18.54967
1231.625, 20.96555
1232.107, 34.09593
1232.589, 29.42664
1233.071, 26.17046
1233.553, 28.65540
1234.035, 12.99529
1234.517, 8.612968
1235.000, 9.870583
1235.482, 14.30369
1235.964, 21.08941
1236.446, 34.77384
1236.928, 41.41104
1237.410, 20.80323
1237.892, 0.1886940
1238.374, 0.2934680
1238.856, 11.76304
1239.339, 25.37783
1239.821, 37.56685
1240.303, 39.38373
1240.785, 30.53186
1241.267, 29.59447
1241.749, 39.87772
1242.231, 33.73331
1242.713, 6.671017
1243.196, 0.6433260
1243.678, 28.45362
1244.160, 55.93838
1244.642, 37.60954
1245.124, 0.0000000E+00
##END=



