##NAMES=Awaruite
##RRUFFID=R061020
##IDEAL CHEMISTRY=Ni_3_Fe
##LOCALITY=Oregon, USA
##OWNER=RRUFF
##SOURCE=Michael Scott
##DESCRIPTION=Silver metallic massive pebbles with brownish-red oxidized coating, variety josephinite
##STATUS=The identification of this mineral has been confirmed by X-ray diffraction and chemical analysis
##URL=rruff.info/R061020
##MEASURED CHEMISTRY=light phase: (Ni_2.60_Fe_0.40_)_Σ=3_(Fe_0.93_Co_0.07_)_Σ=1_ ; the rim (dark phase) is a Ni-Fe-silicate
170.9127, 0.0000000E+00
171.3948, 34.04492
171.8769, 42.38965
172.3590, 27.67871
172.8412, 7.387695
173.3233, 0.1787110
173.8054, 2.465820
174.2875, 10.10352
174.7696, 13.53809
175.2517, 15.97266
175.7339, 13.66699
176.2160, 6.356445
176.6981, 0.7685550
177.1802, 4.625977
177.6623, 4.638672
178.1444, 0.5068360
178.6266, 19.70605
179.1087, 43.05176
179.5908, 48.99219
180.0729, 33.56348
180.5550, 14.14941
181.0371, 13.58105
181.5193, 28.54492
182.0014, 41.78223
182.4835, 39.06738
182.9656, 27.12598
183.4477, 26.62793
183.9298, 43.21875
184.4120, 64.16309
184.8941, 66.83887
185.3762, 52.65430
185.8583, 39.67285
186.3404, 44.19727
186.8225, 61.61914
187.3047, 70.36719
187.7868, 63.63770
188.2689, 49.90918
188.7510, 47.14648
189.2331, 55.50488
189.7152, 68.88867
190.1974, 86.25293
190.6795, 106.3838
191.1616, 117.6396
191.6437, 114.4863
192.1258, 101.5625
192.6080, 94.36035
193.0901, 93.66309
193.5722, 94.26367
194.0543, 90.67383
194.5364, 82.86230
195.0185, 75.81055
195.5007, 70.60547
195.9828, 67.22754
196.4649, 63.49609
196.9470, 57.52246
197.4291, 57.39453
197.9112, 79.14258
198.3934, 125.9170
198.8755, 161.9082
199.3576, 173.6553
199.8397, 161.7949
200.3218, 142.7168
200.8039, 111.0244
201.2861, 82.52734
201.7682, 87.77637
202.2503, 135.4834
202.7324, 172.4189
203.2145, 172.2412
203.6966, 130.3633
204.1788, 100.3057
204.6609, 83.05273
205.1430, 76.71094
205.6251, 82.30273
206.1072, 105.6162
206.5893, 121.3252
207.0715, 111.7881
207.5536, 68.60254
208.0357, 47.40332
208.5178, 55.71875
208.9999, 82.32617
209.4820, 101.3301
209.9642, 111.9375
210.4463, 116.9492
210.9284, 115.9766
211.4105, 105.9062
211.8926, 101.8018
212.3747, 105.8711
212.8569, 116.0654
213.3390, 127.3438
213.8211, 142.1289
214.3032, 152.7178
214.7853, 153.4512
215.2674, 141.2588
215.7496, 127.6689
216.2317, 110.4316
216.7138, 92.30957
217.1959, 88.03027
217.6780, 101.4453
218.1601, 122.6016
218.6423, 148.9229
219.1244, 193.4961
219.6065, 207.5820
220.0886, 169.3809
220.5707, 87.09180
221.0528, 56.51758
221.5350, 103.7139
222.0171, 166.7646
222.4992, 194.7861
222.9813, 172.3408
223.4634, 148.4980
223.9455, 129.2783
224.4277, 114.6621
224.9098, 107.6338
225.3919, 111.6787
225.8740, 119.3457
226.3561, 123.3057
226.8382, 119.4453
227.3204, 119.9414
227.8025, 127.6387
228.2846, 142.6494
228.7667, 160.3916
229.2488, 188.5303
229.7310, 212.5225
230.2131, 215.1973
230.6952, 184.0117
231.1773, 154.4229
231.6594, 134.2432
232.1415, 124.2773
232.6237, 116.8545
233.1058, 113.0918
233.5879, 110.9736
234.0700, 107.2441
234.5521, 97.81445
235.0342, 94.03809
235.5164, 101.1553
235.9985, 122.2949
236.4806, 136.7871
236.9627, 145.5898
237.4448, 146.8027
237.9269, 135.2197
238.4091, 97.01270
238.8912, 69.28906
239.3733, 65.42090
239.8554, 92.32715
240.3375, 111.4062
240.8196, 118.3076
241.3018, 120.1123
241.7839, 129.9199
242.2660, 160.0312
242.7481, 177.1035
243.2302, 163.4277
243.7123, 101.1064
244.1945, 78.69141
244.6766, 122.8789
245.1587, 191.7471
245.6408, 210.0254
246.1229, 145.1348
246.6050, 84.06641
247.0872, 59.29688
247.5693, 85.42969
248.0514, 99.18066
248.5335, 93.83398
249.0156, 79.52637
249.4977, 76.83008
249.9799, 92.81152
250.4620, 107.9551
250.9441, 114.4365
251.4262, 108.4873
251.9083, 106.1484
252.3904, 109.8496
252.8726, 115.8896
253.3547, 116.0781
253.8368, 107.8467
254.3189, 98.49707
254.8010, 91.48730
255.2831, 89.16699
255.7653, 81.05273
256.2474, 62.33984
256.7295, 41.34375
257.2116, 35.66016
257.6937, 51.12891
258.1758, 68.27734
258.6580, 78.95410
259.1401, 83.11914
259.6222, 80.84082
260.1043, 69.44141
260.5864, 53.04980
261.0685, 39.85547
261.5507, 28.12988
262.0328, 23.38086
262.5149, 29.05664
262.9970, 48.42383
263.4791, 67.74805
263.9612, 88.05176
264.4434, 107.8428
264.9255, 124.0908
265.4076, 136.5459
265.8897, 146.0488
266.3718, 153.2988
266.8539, 158.3682
267.3361, 160.5850
267.8182, 160.9482
268.3003, 157.5088
268.7824, 143.4863
269.2645, 113.8818
269.7466, 88.01367
270.2288, 74.69336
270.7109, 75.26855
271.1930, 83.40137
271.6751, 105.4102
272.1572, 128.9355
272.6393, 121.3369
273.1215, 72.19434
273.6036, 31.21875
274.0857, 30.69043
274.5678, 77.11816
275.0499, 96.68262
275.5320, 78.58203
276.0142, 45.92871
276.4963, 40.61133
276.9784, 71.08008
277.4605, 98.27344
277.9426, 97.77539
278.4247, 66.26074
278.9069, 58.09180
279.3890, 83.02539
279.8711, 119.5469
280.3532, 126.6162
280.8354, 95.46973
281.3175, 68.22754
281.7996, 68.57227
282.2817, 94.99219
282.7638, 114.7275
283.2459, 127.1680
283.7281, 133.3760
284.2102, 126.8516
284.6923, 105.5693
285.1744, 88.26855
285.6565, 88.31152
286.1386, 103.2314
286.6208, 115.8271
287.1029, 126.7197
287.5850, 132.0400
288.0671, 122.7559
288.5492, 99.70996
289.0313, 78.16895
289.5135, 67.98633
289.9956, 66.02051
290.4777, 54.51074
290.9598, 29.41797
291.4419, 9.461914
291.9240, 27.87109
292.4062, 79.22754
292.8883, 123.3955
293.3704, 139.7656
293.8525, 135.0352
294.3346, 127.6240
294.8167, 117.1084
295.2989, 106.7490
295.7810, 102.8574
296.2631, 103.9492
296.7452, 104.3672
297.2273, 99.79004
297.7094, 93.16797
298.1916, 91.80176
298.6737, 96.42578
299.1558, 98.96680
299.6379, 83.32422
300.1200, 58.24414
300.6021, 46.48145
301.0843, 72.88867
301.5664, 112.9785
302.0485, 128.1543
302.5306, 118.5693
303.0127, 105.2188
303.4948, 110.7725
303.9770, 124.9297
304.4591, 128.6123
304.9412, 97.52930
305.4233, 61.78223
305.9054, 54.43652
306.3875, 74.86230
306.8697, 100.1875
307.3518, 120.8584
307.8339, 134.5322
308.3160, 137.3291
308.7981, 119.4492
309.2802, 96.55566
309.7624, 77.80664
310.2445, 63.37207
310.7266, 55.51953
311.2087, 66.85254
311.6908, 82.08887
312.1729, 82.41016
312.6551, 49.14258
313.1372, 13.54785
313.6193, 13.98145
314.1014, 31.96191
314.5835, 30.70996
315.0656, 20.59570
315.5478, 79.63184
316.0299, 111.1924
316.5120, 82.38672
316.9941, 52.27246
317.4762, 46.98242
317.9583, 59.73438
318.4405, 64.32910
318.9226, 29.04688
319.4047, 2.544922
319.8868, 0.7119140
320.3689, 79.75195
320.8510, 137.7588
321.3332, 133.4473
321.8153, 86.75781
322.2974, 57.17090
322.7795, 72.26758
323.2616, 94.61523
323.7437, 107.7061
324.2259, 109.4062
324.7080, 102.6006
325.1901, 77.75684
325.6722, 44.85547
326.1543, 26.46484
326.6364, 31.41602
327.1186, 44.17969
327.6007, 63.03516
328.0828, 102.0020
328.5649, 115.2510
329.0470, 79.72168
329.5291, 25.04395
330.0113, 0.5273440
330.4934, 27.66113
330.9755, 57.08789
331.4576, 76.27539
331.9397, 84.34375
332.4218, 83.36426
332.9040, 61.37598
333.3861, 38.52148
333.8682, 70.94434
334.3503, 132.3887
334.8324, 148.1680
335.3145, 18.04492
335.7967, 50.74609
336.2788, 25.34961
336.7609, 3.906250
337.2430, 97.95703
337.7251, 41.78906
338.2072, 57.97266
338.6894, 62.11719
339.1715, 110.1689
339.6536, 47.48633
340.1357, 40.92383
340.6178, 7.332031
341.0999, 25.59961
341.5821, 33.49414
342.0642, 16.04688
342.5463, 11.04492
343.0284, 49.12988
343.5105, 91.75781
343.9926, 120.4697
344.4748, 134.8486
344.9569, 141.0312
345.4390, 146.2051
345.9211, 148.0488
346.4032, 128.9131
346.8853, 76.96777
347.3675, 19.97070
347.8496, 16.01562
348.3317, 58.37012
348.8138, 93.77539
349.2959, 78.25977
349.7780, 32.58398
350.2602, 0.1474610
350.7423, 13.40137
351.2244, 15.33984
351.7065, 14.39844
352.1887, 8.637695
352.6708, 7.576172
353.1529, 55.53906
353.6350, 106.9619
354.1171, 125.5947
354.5992, 106.7656
355.0814, 78.37598
355.5635, 56.14648
356.0456, 41.32227
356.5277, 33.69629
357.0098, 39.23047
357.4919, 42.42676
357.9741, 30.76367
358.4562, 4.200195
358.9383, 10.41016
359.4204, 13.64453
359.9025, 51.93262
360.3846, 79.66992
360.8668, 84.56348
361.3489, 81.95801
361.8310, 72.19043
362.3131, 57.24121
362.7952, 51.46582
363.2773, 67.97168
363.7595, 89.30762
364.2416, 104.6855
364.7237, 114.6328
365.2058, 116.1230
365.6879, 101.5820
366.1700, 77.04883
366.6522, 62.39844
367.1343, 76.05078
367.6164, 86.03516
368.0985, 76.96191
368.5806, 22.48047
369.0627, 1.001953
369.5449, 25.02539
370.0270, 76.99902
370.5091, 115.1113
370.9912, 140.7842
371.4733, 149.2090
371.9554, 133.6855
372.4376, 88.32715
372.9197, 61.07812
373.4018, 57.48730
373.8839, 63.74512
374.3660, 62.75293
374.8481, 51.24805
375.3303, 42.41211
375.8124, 40.25488
376.2945, 43.95410
376.7766, 45.59082
377.2587, 44.23535
377.7408, 43.28125
378.2230, 46.54004
378.7051, 53.95801
379.1872, 60.71289
379.6693, 67.13477
380.1514, 71.04492
380.6335, 59.04199
381.1157, 30.50684
381.5978, 15.28418
382.0799, 50.24121
382.5620, 118.2773
383.0441, 155.8594
383.5262, 149.2490
384.0084, 127.1162
384.4905, 129.4004
384.9726, 150.5322
385.4547, 166.4814
385.9368, 162.0684
386.4189, 146.2021
386.9011, 127.4639
387.3832, 105.0420
387.8653, 91.83105
388.3474, 108.5947
388.8295, 140.6348
389.3116, 162.7129
389.7938, 165.0381
390.2759, 152.8916
390.7580, 119.0303
391.2401, 63.31641
391.7222, 25.99121
392.2043, 38.59082
392.6865, 68.05859
393.1686, 84.51270
393.6507, 67.79004
394.1328, 52.41602
394.6149, 53.56738
395.0970, 66.60254
395.5792, 68.34277
396.0613, 44.86133
396.5434, 21.99902
397.0255, 14.08203
397.5076, 32.88867
397.9897, 48.80469
398.4719, 63.22656
398.9540, 71.65625
399.4361, 68.60938
399.9182, 34.97363
400.4003, 16.21777
400.8824, 30.25977
401.3646, 89.02051
401.8467, 127.0625
402.3288, 134.9287
402.8109, 126.0791
403.2930, 113.1562
403.7751, 93.37988
404.2573, 77.88184
404.7394, 68.92090
405.2215, 66.21875
405.7036, 70.10352
406.1857, 83.06445
406.6678, 92.94434
407.1500, 85.58105
407.6321, 61.47461
408.1142, 48.28906
408.5963, 50.58594
409.0784, 63.34961
409.5605, 78.13672
410.0427, 94.95898
410.5248, 111.7686
411.0069, 136.7354
411.4890, 159.4004
411.9711, 146.8438
412.4532, 92.77246
412.9354, 31.76074
413.4175, 11.35254
413.8996, 33.57129
414.3817, 26.73535
414.8638, 54.86523
415.3459, 140.5146
415.8281, 146.8213
416.3102, 78.77148
416.7923, 17.25781
417.2744, 27.89258
417.7565, 66.69824
418.2386, 90.93262
418.7208, 85.25684
419.2029, 68.58789
419.6850, 39.22656
420.1671, 3.522461
420.6492, 19.34766
421.1313, 17.37598
421.6135, 5.709961
422.0956, 11.13281
422.5777, 40.03125
423.0598, 55.79883
423.5420, 42.38477
424.0241, 17.63867
424.5062, 7.456055
424.9883, 18.82324
425.4704, 38.13965
425.9525, 70.74609
426.4347, 117.9219
426.9168, 127.2275
427.3989, 74.85938
427.8810, 18.23145
428.3631, 12.17285
428.8452, 76.91602
429.3274, 117.4414
429.8095, 114.8809
430.2916, 82.65332
430.7737, 55.69336
431.2558, 32.59277
431.7379, 23.73926
432.2201, 45.21875
432.7022, 92.03320
433.1843, 117.9766
433.6664, 118.1074
434.1485, 106.9062
434.6306, 99.86426
435.1128, 96.87109
435.5949, 97.48438
436.0770, 107.4492
436.5591, 118.4717
437.0412, 114.7725
437.5233, 97.01270
438.0055, 76.24121
438.4876, 51.87988
438.9697, 32.23438
439.4518, 30.22070
439.9339, 60.39648
440.4160, 92.48730
440.8982, 106.7705
441.3803, 107.5410
441.8624, 107.4209
442.3445, 117.5400
442.8266, 123.7588
443.3087, 115.5869
443.7909, 86.11328
444.2730, 62.78027
444.7551, 51.53418
445.2372, 49.71875
445.7193, 54.03125
446.2014, 76.88477
446.6836, 91.79688
447.1657, 88.21875
447.6478, 67.26855
448.1299, 65.60938
448.6120, 103.7988
449.0941, 137.3369
449.5763, 132.6270
450.0584, 69.93457
450.5405, 28.68359
451.0226, 15.19336
451.5047, 23.98340
451.9868, 50.35254
452.4690, 99.95117
452.9511, 135.8105
453.4332, 134.0605
453.9153, 100.5293
454.3974, 83.26074
454.8795, 83.46680
455.3617, 92.65137
455.8438, 110.5381
456.3259, 131.3760
456.8080, 133.0898
457.2901, 102.2129
457.7722, 56.88867
458.2544, 10.55566
458.7365, 32.74316
459.2186, 52.33496
459.7007, 12.89746
460.1828, 46.06934
460.6649, 82.07617
461.1471, 85.38379
461.6292, 78.26074
462.1113, 64.96777
462.5934, 51.01660
463.0755, 44.68555
463.5576, 61.34473
464.0398, 74.36328
464.5219, 69.23340
465.0040, 45.50391
465.4861, 30.90430
465.9682, 38.21289
466.4503, 50.39258
466.9325, 56.26367
467.4146, 36.43066
467.8967, 39.82227
468.3788, 84.39355
468.8609, 148.6758
469.3430, 180.0498
469.8252, 170.6436
470.3073, 144.4600
470.7894, 102.1094
471.2715, 40.80566
471.7536, 9.585938
472.2357, 15.65625
472.7179, 40.20312
473.2000, 65.14258
473.6821, 89.72070
474.1642, 98.58301
474.6463, 82.48730
475.1284, 55.44629
475.6106, 37.63965
476.0927, 30.11426
476.5748, 41.68066
477.0569, 99.62988
477.5390, 172.9287
478.0211, 212.6064
478.5033, 210.4922
478.9854, 191.7578
479.4675, 171.1836
479.9496, 147.7090
480.4317, 119.1631
480.9138, 74.39941
481.3960, 33.64746
481.8781, 5.743164
482.3602, 9.752930
482.8423, 16.56445
483.3244, 13.75098
483.8065, 4.534180
484.2887, 10.80371
484.7708, 43.93750
485.2529, 61.94336
485.7350, 53.91211
486.2171, 33.90234
486.6992, 25.34668
487.1814, 37.12402
487.6635, 43.45410
488.1456, 35.15625
488.6277, 13.17188
489.1098, 0.6210940
489.5919, 5.994141
490.0741, 3.935547
490.5562, 7.003906
491.0383, 26.89648
491.5204, 44.31055
492.0026, 57.81836
492.4847, 69.00977
492.9668, 81.82422
493.4489, 95.37305
493.9310, 105.1523
494.4131, 104.5107
494.8953, 100.2188
495.3774, 107.5918
495.8595, 126.8320
496.3416, 134.9844
496.8237, 97.22363
497.3058, 46.56348
497.7880, 23.07715
498.2701, 55.82324
498.7522, 90.00391
499.2343, 100.8975
499.7164, 93.65430
500.1985, 80.58398
500.6807, 43.90820
501.1628, 20.99609
501.6449, 34.83984
502.1270, 100.4238
502.6091, 136.2930
503.0912, 125.2871
503.5734, 95.88281
504.0555, 68.49219
504.5376, 33.38672
505.0197, 25.87500
505.5018, 63.46484
505.9839, 125.3105
506.4661, 145.6406
506.9482, 116.9336
507.4303, 83.86328
507.9124, 64.94336
508.3945, 60.08008
508.8766, 73.14453
509.3588, 107.0840
509.8409, 139.7129
510.3230, 141.4941
510.8051, 123.1523
511.2872, 114.9434
511.7693, 128.8770
512.2515, 152.7910
512.7336, 176.3633
513.2157, 195.3223
513.6978, 207.3672
514.1799, 208.4941
514.6620, 203.8867
515.1442, 195.0098
515.6263, 179.8535
516.1084, 170.9570
516.5905, 177.6016
517.0726, 188.4219
517.5547, 194.9062
518.0369, 191.6387
518.5190, 184.7422
519.0011, 168.4746
519.4832, 148.6309
519.9653, 147.3027
520.4474, 177.3477
520.9296, 204.1074
521.4117, 211.8730
521.8938, 198.3926
522.3759, 190.5391
522.8580, 187.2578
523.3401, 193.5137
523.8223, 226.6055
524.3044, 281.1602
524.7865, 292.2812
525.2686, 226.4941
525.7507, 141.8535
526.2328, 156.7871
526.7150, 250.5273
527.1971, 321.1484
527.6792, 278.8574
528.1613, 198.3809
528.6434, 164.4414
529.1255, 184.0195
529.6077, 214.5938
530.0898, 237.9824
530.5719, 256.0410
531.0540, 271.5527
531.5361, 300.1074
532.0182, 307.9922
532.5004, 263.4180
532.9825, 189.9102
533.4646, 155.2285
533.9467, 211.7285
534.4288, 256.5918
534.9109, 252.8555
535.3931, 191.7852
535.8752, 163.3301
536.3573, 176.6289
536.8394, 207.9746
537.3215, 243.8750
537.8036, 285.9785
538.2858, 298.8223
538.7679, 269.8809
539.2500, 225.4160
539.7321, 213.0664
540.2142, 230.0918
540.6964, 258.3613
541.1785, 309.9043
541.6606, 360.4180
542.1427, 357.4902
542.6248, 303.2930
543.1069, 248.7637
543.5891, 226.9297
544.0712, 224.9844
544.5533, 232.7832
545.0354, 258.7988
545.5175, 271.1992
545.9996, 238.1875
546.4818, 186.6777
546.9639, 161.0098
547.4460, 214.2676
547.9281, 248.0273
548.4102, 224.6113
548.8923, 148.3340
549.3745, 103.8535
549.8566, 98.68750
550.3387, 114.5273
550.8208, 151.3945
551.3029, 221.8242
551.7850, 239.2383
552.2672, 187.0840
552.7493, 115.8711
553.2314, 97.08789
553.7135, 128.3691
554.1956, 164.9883
554.6777, 200.9492
555.1599, 226.7383
555.6420, 218.1465
556.1241, 180.5273
556.6062, 142.3828
557.0883, 115.7559
557.5704, 101.0879
558.0526, 101.8125
558.5347, 119.9629
559.0168, 140.0195
559.4989, 167.6250
559.9810, 186.7520
560.4631, 181.4180
560.9453, 111.4805
561.4274, 59.37891
561.9095, 46.15234
562.3916, 59.95117
562.8737, 69.89844
563.3558, 66.82227
563.8380, 75.25195
564.3201, 113.0645
564.8022, 180.1484
565.2843, 200.1562
565.7664, 162.5996
566.2485, 112.5527
566.7307, 90.39062
567.2128, 92.22266
567.6949, 87.21484
568.1770, 70.82227
568.6591, 47.64453
569.1412, 12.03906
569.6234, 26.77344
570.1055, 44.70117
570.5876, 5.476563
571.0697, 40.06250
571.5518, 45.11914
572.0339, 16.34180
572.5161, 5.390625
572.9982, 0.5878910
573.4803, 15.37891
573.9624, 35.79492
574.4445, 65.85742
574.9266, 84.37305
575.4088, 86.63086
575.8909, 78.85352
576.3730, 64.76562
576.8551, 36.10547
577.3372, 21.48047
577.8193, 30.70117
578.3015, 53.28125
578.7836, 60.08008
579.2657, 49.87305
579.7478, 32.99609
580.2299, 7.025391
580.7120, 21.94141
581.1942, 31.21875
581.6763, 20.76172
582.1584, 1.951172
582.6405, 48.93164
583.1226, 98.05859
583.6047, 112.1934
584.0869, 72.97461
584.5690, 28.41602
585.0511, 0.1113280
585.5332, 13.12500
586.0153, 13.13086
586.4974, 20.49609
586.9796, 45.36719
587.4617, 42.51953
587.9438, 16.20703
588.4259, 5.164063
588.9080, 17.90625
589.3901, 35.10742
589.8723, 51.05469
590.3544, 67.99219
590.8365, 63.97461
591.3186, 32.07617
591.8007, 1.324219
592.2828, 0.6992190
592.7650, 28.57031
593.2471, 39.83984
593.7292, 18.12500
594.2113, 12.14844
594.6934, 23.44141
595.1755, 16.66992
595.6577, 5.486328
596.1398, 73.33789
596.6219, 131.6113
597.1040, 125.7695
597.5862, 62.21484
598.0683, 10.28125
598.5504, 4.099609
599.0325, 11.83203
599.5146, 13.88086
599.9968, 1.578125
600.4789, 3.707031
600.9610, 50.98047
601.4431, 102.3398
601.9252, 111.0703
602.4073, 58.37500
602.8895, 32.50391
603.3716, 56.54688
603.8537, 105.5059
604.3358, 119.0371
604.8179, 98.04297
605.3000, 77.04297
605.7822, 80.25781
606.2643, 92.42969
606.7464, 81.05078
607.2285, 48.00195
607.7106, 15.84766
608.1927, 2.423828
608.6749, 3.482422
609.1570, 15.93359
609.6391, 44.88672
610.1212, 54.77539
610.6033, 11.54492
611.0854, 48.52930
611.5676, 83.13281
612.0497, 57.40430
612.5318, 47.03320
613.0139, 70.34180
613.4960, 111.2695
613.9781, 116.5566
614.4603, 73.92773
614.9424, 39.44141
615.4245, 39.05078
615.9066, 65.85938
616.3887, 85.90625
616.8708, 99.16602
617.3530, 102.0117
617.8351, 79.01172
618.3172, 46.73633
618.7993, 38.90820
619.2814, 64.39844
619.7635, 90.05664
620.2457, 85.38477
620.7278, 68.58984
621.2099, 62.48633
621.6920, 86.09961
622.1741, 107.6211
622.6563, 118.8418
623.1384, 121.8887
623.6205, 123.8496
624.1026, 134.7871
624.5847, 129.4785
625.0668, 91.55469
625.5490, 24.82031
626.0311, 4.478516
626.5132, 9.267578
626.9953, 35.96094
627.4774, 56.00977
627.9595, 70.63672
628.4417, 87.88867
628.9238, 107.2402
629.4059, 121.5586
629.8880, 119.2598
630.3701, 108.3203
630.8522, 103.3848
631.3344, 109.7734
631.8165, 120.6016
632.2986, 137.3379
632.7807, 155.4453
633.2628, 165.4531
633.7449, 150.0469
634.2271, 142.6035
634.7092, 160.2910
635.1913, 198.3457
635.6734, 211.0098
636.1555, 186.0332
636.6376, 158.8301
637.1198, 149.7129
637.6019, 158.9473
638.0840, 155.2402
638.5661, 135.3672
639.0482, 114.1367
639.5303, 104.5020
640.0125, 106.1582
640.4946, 116.8418
640.9767, 137.6738
641.4588, 162.8750
641.9409, 194.0176
642.4230, 224.6152
642.9052, 243.1777
643.3873, 234.8848
643.8694, 225.0977
644.3515, 224.7480
644.8336, 230.6504
645.3157, 230.8320
645.7979, 222.2422
646.2800, 210.8828
646.7621, 194.4512
647.2442, 173.0918
647.7263, 175.8027
648.2084, 208.0449
648.6906, 245.3516
649.1727, 275.1738
649.6548, 295.5684
650.1369, 287.6484
650.6190, 246.0195
651.1011, 205.1055
651.5833, 203.3477
652.0654, 224.7402
652.5475, 246.5352
653.0296, 274.4590
653.5117, 284.0371
653.9938, 235.4180
654.4760, 162.2891
654.9581, 129.8047
655.4402, 200.1582
655.9223, 257.9492
656.4044, 277.8906
656.8865, 264.6719
657.3687, 243.3066
657.8508, 207.8398
658.3329, 180.0918
658.8150, 172.9863
659.2971, 184.3984
659.7792, 193.4121
660.2614, 199.9375
660.7435, 208.4336
661.2256, 229.2969
661.7077, 253.3301
662.1898, 265.1250
662.6719, 262.5449
663.1541, 247.6816
663.6362, 188.0781
664.1183, 126.5137
664.6004, 113.0234
665.0825, 228.4238
665.5646, 311.4961
666.0468, 314.9668
666.5289, 272.4473
667.0110, 246.5156
667.4931, 240.8809
667.9752, 242.5957
668.4573, 256.3457
668.9395, 274.2109
669.4216, 262.0820
669.9037, 219.1836
670.3858, 183.2168
670.8679, 186.2383
671.3500, 209.3691
671.8322, 212.5273
672.3143, 195.1406
672.7964, 182.9277
673.2785, 204.2129
673.7606, 232.1973
674.2427, 240.9785
674.7249, 218.7324
675.2070, 199.3535
675.6891, 204.8750
676.1712, 208.7656
676.6533, 181.2871
677.1354, 93.87500
677.6176, 40.77148
678.0997, 36.71094
678.5818, 64.55859
679.0639, 99.72461
679.5460, 141.9727
680.0281, 170.3398
680.5103, 173.0508
680.9924, 163.2656
681.4745, 155.5820
681.9566, 151.8828
682.4387, 157.7031
682.9208, 193.7715
683.4030, 229.7930
683.8851, 239.0840
684.3672, 222.3672
684.8493, 205.1816
685.3314, 185.4414
685.8135, 174.0273
686.2957, 181.5059
686.7778, 220.5996
687.2599, 219.7012
687.7420, 159.0254
688.2241, 95.46875
688.7062, 94.01562
689.1884, 149.8359
689.6705, 171.4375
690.1526, 139.7051
690.6347, 99.70312
691.1168, 113.1152
691.5989, 158.2344
692.0811, 190.3633
692.5632, 187.8398
693.0453, 177.4551
693.5274, 170.6973
694.0095, 167.3438
694.4916, 166.8203
694.9738, 173.4258
695.4559, 177.9805
695.9380, 179.3105
696.4201, 177.1797
696.9022, 167.1426
697.3843, 143.0508
697.8665, 130.7793
698.3486, 156.9746
698.8307, 208.4785
699.3128, 195.9004
699.7949, 119.9492
700.2770, 56.76562
700.7592, 87.46094
701.2413, 155.9160
701.7234, 185.8398
702.2055, 164.2988
702.6876, 139.6152
703.1697, 137.5078
703.6519, 142.4570
704.1340, 141.8633
704.6161, 134.3711
705.0982, 118.9297
705.5803, 83.65234
706.0624, 50.35352
706.5446, 54.25586
707.0267, 102.5566
707.5088, 133.7539
707.9909, 135.4258
708.4730, 117.5234
708.9551, 82.87695
709.4373, 40.37500
709.9194, 25.25391
710.4015, 79.62109
710.8836, 142.9141
711.3657, 167.8418
711.8478, 160.3418
712.3300, 140.5449
712.8121, 98.10938
713.2942, 58.13672
713.7763, 27.72266
714.2584, 7.244141
714.7405, 21.67969
715.2227, 95.46094
715.7048, 155.0449
716.1869, 149.4590
716.6690, 83.44922
717.1511, 57.78320
717.6332, 74.68945
718.1154, 97.71680
718.5975, 100.6074
719.0796, 87.07031
719.5617, 54.14648
720.0438, 4.482422
720.5259, 40.12695
721.0081, 1.962891
721.4902, 62.20312
721.9723, 107.9668
722.4544, 121.4902
722.9365, 121.2285
723.4186, 94.07031
723.9008, 64.16992
724.3829, 70.08594
724.8650, 124.1855
725.3471, 145.5234
725.8292, 107.3438
726.3113, 48.65625
726.7935, 50.93359
727.2756, 98.60352
727.7577, 130.1289
728.2398, 105.9180
728.7219, 68.41016
729.2040, 53.52344
729.6862, 55.56055
730.1683, 57.60547
730.6504, 54.77930
731.1325, 49.89258
731.6146, 46.60938
732.0967, 44.62109
732.5789, 40.21875
733.0610, 30.94336
733.5431, 24.90820
734.0252, 26.76172
734.5073, 35.56836
734.9894, 45.33594
735.4716, 56.12500
735.9537, 64.14648
736.4358, 71.04102
736.9179, 71.36523
737.4000, 52.47656
737.8821, 11.82227
738.3643, 17.13477
738.8464, 1.863281
739.3286, 18.53516
739.8107, 13.99023
740.2928, 47.26953
740.7749, 67.66016
741.2570, 29.04297
741.7391, 29.65039
742.2213, 77.71094
742.7034, 116.3770
743.1855, 115.7754
743.6676, 63.39258
744.1497, 2.205078
744.6318, 6.796875
745.1140, 22.97461
745.5961, 50.98633
746.0782, 58.68555
746.5603, 55.49414
747.0424, 45.31836
747.5245, 39.28320
748.0067, 55.84570
748.4888, 154.8887
748.9709, 205.8867
749.4530, 170.0605
749.9351, 80.74023
750.4172, 28.64062
750.8994, 18.33984
751.3815, 16.55273
751.8636, 10.27539
752.3457, 6.707031
752.8278, 31.35547
753.3099, 77.61133
753.7921, 111.9336
754.2742, 106.2129
754.7563, 89.08594
755.2384, 84.16211
755.7205, 90.15430
756.2026, 89.65039
756.6848, 68.90039
757.1669, 48.43945
757.6490, 34.46289
758.1311, 27.03125
758.6132, 32.20117
759.0953, 53.05273
759.5775, 75.50391
760.0596, 94.28906
760.5417, 107.7109
761.0238, 103.2832
761.5059, 80.81836
761.9880, 63.26172
762.4702, 80.51562
762.9523, 105.1621
763.4344, 104.0117
763.9165, 64.73438
764.3986, 40.08594
764.8807, 54.09766
765.3629, 81.63086
765.8450, 107.1094
766.3271, 139.8340
766.8092, 139.8906
767.2913, 97.20312
767.7734, 44.40234
768.2556, 20.30664
768.7377, 19.82422
769.2198, 14.44727
769.7019, 4.773438
770.1840, 10.80273
770.6661, 49.49414
771.1483, 129.9629
771.6304, 165.5293
772.1125, 102.2168
772.5946, 45.73828
773.0767, 25.20312
773.5588, 24.91016
774.0410, 22.42188
774.5231, 12.24609
775.0052, 17.01758
775.4873, 45.97461
775.9694, 82.53125
776.4515, 91.54492
776.9337, 78.51953
777.4158, 77.58789
777.8979, 109.1543
778.3800, 142.7148
778.8621, 155.8809
779.3442, 150.0586
779.8264, 131.6523
780.3085, 82.99609
780.7906, 43.88281
781.2727, 32.02539
781.7548, 38.05859
782.2369, 35.28516
782.7191, 15.51953
783.2012, 12.04297
783.6833, 42.87305
784.1654, 91.36133
784.6475, 106.6055
785.1296, 94.03516
785.6118, 87.38086
786.0939, 129.0488
786.5760, 168.0293
787.0581, 134.6406
787.5402, 48.41602
788.0223, 1.828125
788.5045, 53.97852
788.9866, 109.9141
789.4687, 122.3516
789.9508, 96.16992
790.4329, 89.02930
790.9150, 106.0508
791.3972, 125.1016
791.8793, 142.1641
792.3614, 152.0098
792.8435, 125.3945
793.3256, 66.32031
793.8077, 19.22852
794.2899, 29.00977
794.7720, 52.03125
795.2541, 44.73633
795.7362, 4.318359
796.2183, 14.59570
796.7004, 21.91602
797.1826, 65.27539
797.6647, 98.80664
798.1468, 121.3379
798.6289, 114.1230
799.1110, 74.70117
799.5931, 37.87500
800.0753, 35.43555
800.5574, 53.38867
801.0395, 56.82031
801.5216, 44.01367
802.0037, 19.12695
802.4858, 49.19141
802.9680, 104.3809
803.4501, 90.62109
803.9322, 19.44141
804.4143, 95.71094
804.8964, 117.0879
805.3785, 116.5254
805.8607, 113.8145
806.3428, 108.7500
806.8249, 95.78125
807.3070, 75.41797
807.7891, 60.75391
808.2712, 74.87891
808.7534, 99.49023
809.2355, 96.99609
809.7176, 59.45117
810.1997, 25.13281
810.6818, 15.20117
811.1639, 16.93750
811.6461, 21.21680
812.1282, 30.01953
812.6103, 32.95117
813.0924, 25.04102
813.5745, 19.28516
814.0566, 32.22266
814.5388, 61.81836
815.0209, 73.89844
815.5030, 63.44141
815.9851, 53.84570
816.4672, 69.99805
816.9493, 99.85547
817.4315, 130.7266
817.9136, 165.6719
818.3957, 181.2461
818.8778, 143.0977
819.3599, 99.69727
819.8420, 95.76562
820.3242, 153.4863
820.8063, 185.6406
821.2884, 189.9883
821.7705, 175.5879
822.2526, 142.6406
822.7347, 103.1875
823.2169, 100.6523
823.6990, 148.1387
824.1811, 191.7637
824.6632, 176.7266
825.1453, 140.9414
825.6274, 125.6836
826.1096, 153.8008
826.5917, 173.0508
827.0738, 180.5020
827.5559, 175.1680
828.0380, 153.1445
828.5201, 113.4648
829.0023, 81.75586
829.4844, 58.27344
829.9665, 52.86133
830.4486, 96.65430
830.9307, 161.7500
831.4128, 193.4551
831.8950, 173.7305
832.3771, 146.4609
832.8592, 127.5762
833.3413, 116.1172
833.8234, 112.1602
834.3055, 118.0449
834.7877, 126.2246
835.2698, 137.3535
835.7519, 150.0371
836.2340, 167.8164
836.7161, 187.6445
837.1982, 191.5156
837.6804, 175.9141
838.1625, 150.4844
838.6446, 109.8516
839.1267, 71.30664
839.6088, 58.81445
840.0909, 93.36328
840.5731, 114.1914
841.0552, 107.5020
841.5373, 88.89453
842.0194, 60.55859
842.5015, 12.91016
842.9836, 29.82227
843.4658, 130.2676
843.9479, 226.2930
844.4300, 197.1680
844.9121, 98.32227
845.3942, 40.53320
845.8763, 45.08008
846.3585, 67.23438
846.8406, 88.38281
847.3227, 108.3633
847.8048, 128.7812
848.2869, 158.0723
848.7690, 161.9629
849.2512, 127.9355
849.7333, 91.78906
850.2154, 93.26953
850.6975, 125.4844
851.1796, 140.1973
851.6617, 132.0352
852.1439, 116.6133
852.6260, 95.38477
853.1081, 79.36328
853.5902, 83.40234
854.0723, 117.0078
854.5544, 143.4316
855.0366, 154.9629
855.5187, 153.8340
856.0008, 135.2285
856.4829, 93.34766
856.9650, 87.61914
857.4471, 123.1230
857.9293, 158.7109
858.4114, 151.7285
858.8935, 122.6602
859.3756, 109.4844
859.8577, 115.8379
860.3398, 111.5332
860.8220, 72.66016
861.3041, 32.03711
861.7862, 17.03906
862.2683, 25.60547
862.7504, 18.01172
863.2325, 17.12109
863.7147, 37.50781
864.1968, 4.724609
864.6789, 86.20898
865.1610, 108.9688
865.6431, 74.43555
866.1252, 39.66602
866.6074, 50.14062
867.0895, 70.94531
867.5716, 71.89258
868.0537, 49.56836
868.5358, 46.54492
869.0179, 77.58008
869.5001, 112.0781
869.9822, 143.7617
870.4643, 169.6719
870.9464, 150.3887
871.4285, 87.23633
871.9106, 38.04102
872.3928, 50.92969
872.8749, 88.04688
873.3570, 114.3398
873.8391, 128.0527
874.3212, 125.6445
874.8033, 79.88477
875.2855, 47.35547
875.7676, 55.52930
876.2497, 90.52734
876.7318, 104.4844
877.2139, 96.65625
877.6960, 71.47266
878.1782, 12.36133
878.6603, 45.81641
879.1424, 26.70508
879.6245, 46.41016
880.1067, 102.5117
880.5888, 103.8828
881.0709, 87.28125
881.5530, 54.30273
882.0352, 15.49023
882.5173, 1.910156
882.9994, 6.419922
883.4815, 23.51562
883.9636, 46.41211
884.4457, 74.67578
884.9279, 121.2559
885.4100, 174.7949
885.8921, 191.4473
886.3742, 128.9609
886.8563, 67.68359
887.3384, 62.38086
887.8206, 89.24414
888.3027, 111.0293
888.7848, 135.4902
889.2669, 127.1172
889.7490, 64.65039
890.2311, 4.509766
890.7133, 4.162109
891.1954, 74.96875
891.6775, 106.5879
892.1596, 70.02539
892.6417, 29.33789
893.1238, 55.12305
893.6060, 102.4980
894.0881, 117.2949
894.5702, 59.34766
895.0523, 34.92773
895.5344, 78.68359
896.0165, 124.1719
896.4987, 100.6973
896.9808, 9.021484
897.4629, 26.17188
897.9450, 4.833984
898.4271, 44.16992
898.9092, 35.49414
899.3914, 7.763672
899.8735, 10.55469
900.3556, 17.64648
900.8377, 1.015625
901.3198, 80.45898
901.8019, 149.0352
902.2841, 160.2559
902.7662, 113.6992
903.2483, 107.0938
903.7304, 143.7812
904.2125, 177.9961
904.6946, 179.5117
905.1768, 158.1816
905.6589, 113.1094
906.1410, 51.42383
906.6231, 15.53906
907.1052, 47.62500
907.5873, 82.94531
908.0695, 100.3672
908.5516, 100.3535
909.0337, 78.50586
909.5158, 29.76953
909.9979, 0.5566410
910.4800, 14.96094
910.9622, 48.28125
911.4443, 44.95703
911.9264, 19.97070
912.4085, 12.86133
912.8906, 61.34766
913.3727, 106.4316
913.8549, 126.9434
914.3370, 131.3613
914.8191, 133.0410
915.3012, 131.4023
915.7833, 130.3242
916.2654, 131.7832
916.7476, 130.4219
917.2297, 108.9062
917.7118, 80.05859
918.1939, 75.91797
918.6760, 118.5703
919.1581, 147.8652
919.6403, 114.6680
920.1224, 67.31250
920.6045, 53.73438
921.0866, 87.37891
921.5687, 112.0059
922.0508, 131.5664
922.5330, 141.0215
923.0151, 134.6523
923.4972, 116.1230
923.9793, 87.74023
924.4614, 50.06445
924.9435, 26.10742
925.4257, 38.41602
925.9078, 60.75977
926.3899, 76.89258
926.8720, 86.64453
927.3541, 93.83789
927.8362, 96.18945
928.3184, 105.1035
928.8005, 140.5039
929.2826, 181.2246
929.7647, 155.1445
930.2468, 79.25977
930.7289, 31.91992
931.2111, 104.0273
931.6932, 162.8516
932.1753, 116.1855
932.6574, 2.603516
933.1395, 37.27734
933.6216, 24.48633
934.1038, 72.02734
934.5859, 73.72461
935.0680, 54.44336
935.5501, 58.23633
936.0322, 77.16016
936.5143, 87.32422
936.9965, 80.72266
937.4786, 80.12695
937.9607, 106.0918
938.4428, 135.8887
938.9249, 140.0137
939.4070, 99.52930
939.8892, 91.28320
940.3713, 125.8008
940.8534, 169.3379
941.3355, 191.1738
941.8176, 192.9941
942.2997, 170.3613
942.7819, 121.3945
943.2640, 88.51758
943.7461, 117.4902
944.2282, 151.5117
944.7103, 149.3438
945.1924, 109.6250
945.6746, 78.01562
946.1567, 52.68164
946.6388, 44.78320
947.1209, 78.49805
947.6030, 125.8184
948.0851, 113.4062
948.5673, 56.75391
949.0494, 16.18164
949.5315, 27.78320
950.0136, 54.15234
950.4957, 92.75586
950.9778, 132.7363
951.4600, 143.3984
951.9421, 115.7285
952.4242, 111.2598
952.9063, 156.2773
953.3884, 201.5137
953.8705, 145.3770
954.3527, 40.24023
954.8348, 8.490234
955.3169, 54.84961
955.7990, 119.0117
956.2811, 158.4668
956.7632, 170.0762
957.2454, 143.7695
957.7275, 66.83594
958.2096, 21.59375
958.6917, 12.67773
959.1738, 23.06055
959.6559, 47.28320
960.1381, 76.89453
960.6202, 101.8105
961.1023, 122.2266
961.5844, 137.1953
962.0665, 138.5957
962.5486, 129.0449
963.0308, 109.4531
963.5129, 84.53906
963.9950, 69.77344
964.4771, 65.22461
964.9592, 60.61914
965.4413, 39.75977
965.9235, 29.61133
966.4056, 90.53125
966.8877, 181.9492
967.3698, 219.4551
967.8519, 107.4609
968.3340, 36.18555
968.8162, 44.10938
969.2983, 84.61523
969.7804, 86.96680
970.2625, 55.72461
970.7446, 55.76172
971.2267, 100.8750
971.7089, 146.4707
972.1910, 155.0527
972.6731, 143.0312
973.1552, 124.1992
973.6373, 91.28125
974.1194, 77.81836
974.6016, 99.56445
975.0837, 113.9785
975.5658, 85.37695
976.0479, 28.75977
976.5300, 23.17773
977.0121, 55.02930
977.4943, 86.15625
977.9764, 80.19922
978.4585, 77.89258
978.9406, 126.6055
979.4227, 200.8359
979.9048, 204.4238
980.3870, 97.85742
980.8691, 28.90625
981.3512, 33.05469
981.8333, 75.24805
982.3154, 116.0898
982.7975, 147.0742
983.2797, 137.9746
983.7618, 60.69531
984.2439, 9.099609
984.7260, 56.71875
985.2081, 128.3145
985.6902, 157.3789
986.1724, 132.3496
986.6545, 127.4570
987.1366, 145.0449
987.6187, 166.6738
988.1008, 191.1582
988.5829, 203.7637
989.0651, 168.0781
989.5472, 92.39062
990.0293, 37.90234
990.5114, 38.99219
990.9935, 51.74219
991.4756, 75.06250
991.9578, 97.63672
992.4399, 79.89844
992.9220, 24.01953
993.4041, 3.554688
993.8862, 55.78906
994.3683, 115.8574
994.8505, 107.7520
995.3326, 72.02734
995.8147, 65.68945
996.2968, 142.0898
996.7789, 165.4355
997.2610, 110.8457
997.7432, 40.47852
998.2253, 3.095703
998.7074, 3.748047
999.1895, 14.93945
999.6716, 57.28125
1000.154, 89.77734
1000.636, 83.86719
1001.118, 67.69531
1001.600, 56.56250
1002.082, 51.23438
1002.564, 50.73242
1003.046, 58.38086
1003.529, 56.65234
1004.011, 32.24414
1004.493, 8.882813
1004.975, 45.78516
1005.457, 113.3652
1005.939, 145.8105
1006.421, 103.7871
1006.903, 59.74023
1007.385, 26.37891
1007.868, 7.853516
1008.350, 14.27148
1008.832, 49.65625
1009.314, 59.34375
1009.796, 40.22461
1010.278, 20.79688
1010.760, 30.06055
1011.242, 48.13867
1011.725, 47.52734
1012.207, 30.39453
1012.689, 26.76953
1013.171, 59.60352
1013.653, 74.15430
1014.135, 45.01367
1014.617, 1.228516
1015.099, 9.367188
1015.581, 63.63477
1016.064, 107.7500
1016.546, 128.2578
1017.028, 125.7832
1017.510, 87.58984
1017.992, 33.41016
1018.474, 18.63477
1018.956, 82.38672
1019.438, 90.27930
1019.921, 32.13672
1020.403, 36.94727
1020.885, 74.00977
1021.367, 89.66016
1021.849, 96.08594
1022.331, 95.09375
1022.813, 87.91406
1023.295, 56.85938
1023.778, 42.48828
1024.260, 64.42383
1024.742, 106.7598
1025.224, 121.9668
1025.706, 112.5938
1026.188, 114.6055
1026.670, 146.8750
1027.152, 168.0879
1027.634, 113.5176
1028.117, 40.52734
1028.599, 22.30469
1029.081, 110.0938
1029.563, 128.5938
1030.045, 47.98242
1030.527, 25.36328
1031.009, 5.736328
1031.491, 100.3008
1031.974, 149.8477
1032.456, 156.2734
1032.938, 130.1641
1033.420, 12.76562
1033.902, 60.82617
1034.384, 2.798828
1034.866, 131.9727
1035.348, 169.6641
1035.830, 110.6465
1036.313, 57.04102
1036.795, 26.44336
1037.277, 19.81055
1037.759, 64.20508
1038.241, 119.8477
1038.723, 132.2207
1039.205, 74.79883
1039.687, 56.52344
1040.169, 106.9160
1040.652, 150.5820
1041.134, 139.8418
1041.616, 93.15430
1042.098, 71.48047
1042.580, 71.02344
1043.062, 73.26953
1043.544, 64.33008
1044.026, 61.24805
1044.509, 81.06250
1044.991, 107.2129
1045.473, 108.6387
1045.955, 78.21289
1046.437, 88.09766
1046.919, 156.2812
1047.401, 209.9570
1047.883, 129.7246
1048.365, 20.02148
1048.848, 23.66406
1049.330, 164.8398
1049.812, 239.0684
1050.294, 191.8555
1050.776, 129.5566
1051.258, 84.84180
1051.740, 58.51367
1052.222, 62.96289
1052.704, 88.86523
1053.187, 102.1250
1053.669, 79.44922
1054.151, 56.25781
1054.633, 41.20312
1055.115, 39.96289
1055.597, 61.69922
1056.079, 113.3438
1056.561, 146.2422
1057.044, 160.0801
1057.526, 160.5215
1058.008, 144.6426
1058.490, 122.9961
1058.972, 98.08008
1059.454, 74.03906
1059.936, 78.83789
1060.418, 142.7246
1060.901, 188.3652
1061.383, 196.9062
1061.865, 180.5156
1062.347, 149.6875
1062.829, 113.4727
1063.311, 102.1602
1063.793, 131.7188
1064.275, 150.9590
1064.757, 116.5801
1065.240, 78.52344
1065.722, 77.69531
1066.204, 114.7402
1066.686, 116.0176
1067.168, 80.69922
1067.650, 41.60742
1068.132, 2.683594
1068.614, 17.32812
1069.096, 15.16992
1069.579, 77.49609
1070.061, 116.9375
1070.543, 123.3477
1071.025, 112.6816
1071.507, 79.23828
1071.989, 45.64258
1072.471, 32.79688
1072.953, 40.66797
1073.436, 81.82422
1073.918, 155.5078
1074.400, 197.5137
1074.882, 141.9668
1075.364, 90.11328
1075.846, 84.15039
1076.328, 109.5039
1076.810, 123.8164
1077.292, 129.3984
1077.775, 110.1406
1078.257, 32.93750
1078.739, 10.67969
1079.221, 118.9297
1079.703, 285.4277
1080.185, 316.9551
1080.667, 166.1699
1081.149, 90.81055
1081.631, 103.4551
1082.114, 133.3652
1082.596, 130.4590
1083.078, 114.5684
1083.560, 126.2168
1084.042, 152.9297
1084.524, 153.8809
1085.006, 75.30664
1085.488, 28.83984
1085.971, 39.19922
1086.453, 72.11719
1086.935, 81.16797
1087.417, 71.50195
1087.899, 65.44727
1088.381, 64.07227
1088.863, 57.56445
1089.345, 13.92773
1089.828, 16.26758
1090.310, 6.173828
1090.792, 67.13867
1091.274, 92.45117
1091.756, 78.11914
1092.238, 64.01758
1092.720, 56.92383
1093.202, 50.63867
1093.684, 25.28516
1094.167, 3.822266
1094.649, 23.38477
1095.131, 118.3359
1095.613, 155.3984
1096.095, 122.7441
1096.577, 69.94727
1097.059, 14.06055
1097.541, 30.13281
1098.024, 20.38086
1098.506, 28.62500
1098.988, 65.86914
1099.470, 67.35938
1099.952, 61.66406
1100.434, 46.75586
1100.916, 35.81641
1101.398, 58.75195
1101.880, 104.0039
1102.363, 98.59961
1102.845, 34.85352
1103.327, 5.580078
1103.809, 57.27148
1104.291, 129.0371
1104.773, 155.2109
1105.255, 144.2832
1105.737, 124.4629
1106.219, 95.06250
1106.702, 80.65430
1107.184, 94.25781
1107.666, 108.2793
1108.148, 79.10938
1108.630, 44.78516
1109.112, 56.83594
1109.594, 139.3008
1110.076, 180.2324
1110.559, 172.0215
1111.041, 149.5820
1111.523, 129.4375
1112.005, 110.4727
1112.487, 92.88867
1112.969, 74.98438
1113.451, 51.76953
1113.933, 3.646484
1114.416, 23.25977
1114.898, 24.24023
1115.380, 3.005859
1115.862, 51.90039
1116.344, 122.0879
1116.826, 120.6152
1117.308, 52.59766
1117.790, 0.3789060
1118.272, 1.222656
1118.755, 31.32812
1119.237, 98.87891
1119.719, 175.8359
1120.201, 188.5957
1120.683, 142.7832
1121.165, 119.5938
1121.647, 137.5703
1122.129, 165.4629
1122.611, 203.0430
1123.094, 221.4668
1123.576, 173.7969
1124.058, 65.41211
1124.540, 43.08398
1125.022, 117.2637
1125.504, 172.7324
1125.986, 152.1562
1126.468, 107.0098
1126.951, 101.8828
1127.433, 114.9609
1127.915, 114.3926
1128.397, 84.17188
1128.879, 63.36719
1129.361, 50.12695
1129.843, 51.51172
1130.325, 80.56055
1130.807, 124.1777
1131.290, 161.5234
1131.772, 190.9863
1132.254, 207.0605
1132.736, 202.8145
1133.218, 191.0078
1133.700, 169.8613
1134.182, 147.2402
1134.664, 138.6250
1135.146, 136.0703
1135.629, 99.14258
1136.111, 27.71289
1136.593, 11.47070
1137.075, 51.31836
1137.557, 118.2520
1138.039, 160.1797
1138.521, 174.7305
1139.003, 137.0020
1139.486, 58.27930
1139.968, 33.12891
1140.450, 92.56641
1140.932, 152.3594
1141.414, 138.5352
1141.896, 112.6953
1142.378, 128.7480
1142.860, 182.7363
1143.343, 202.4512
1143.825, 187.6543
1144.307, 161.2598
1144.789, 123.2988
1145.271, 94.68164
1145.753, 101.0820
1146.235, 126.9629
1146.717, 159.4531
1147.199, 200.7148
1147.682, 197.7617
1148.164, 148.4336
1148.646, 112.3574
1149.128, 161.4707
1149.610, 224.4902
1150.092, 185.5293
1150.574, 86.89258
1151.056, 35.55273
1151.538, 88.63477
1152.021, 112.8320
1152.503, 91.39258
1152.985, 66.68359
1153.467, 92.37695
1153.949, 139.5254
1154.431, 149.4355
1154.913, 125.9062
1155.395, 119.3613
1155.878, 181.5469
1156.360, 218.6777
1156.842, 206.0078
1157.324, 171.0742
1157.806, 156.1621
1158.288, 154.8633
1158.770, 146.9902
1159.252, 128.3496
1159.734, 126.0938
1160.217, 193.9824
1160.699, 226.6211
1161.181, 163.0332
1161.663, 53.95898
1162.145, 43.63281
1162.627, 113.9512
1163.109, 209.3691
1163.591, 340.7109
1164.073, 406.7773
1164.556, 281.6191
1165.038, 138.4062
1165.520, 91.37500
1166.002, 129.5684
1166.484, 149.9062
1166.966, 153.2148
1167.448, 147.4746
1167.930, 131.5371
1168.413, 118.5234
1168.895, 127.1406
1169.377, 137.0898
1169.859, 117.0273
1170.341, 58.37109
1170.823, 68.95508
1171.305, 148.6621
1171.787, 196.2207
1172.270, 91.74414
1172.752, 15.02539
1173.234, 11.81445
1173.716, 102.7871
1174.198, 100.8477
1174.680, 28.16016
1175.162, 38.78516
1175.644, 95.87305
1176.126, 238.1406
1176.609, 265.1289
1177.091, 249.2207
1177.573, 254.3770
1178.055, 271.8008
1178.537, 264.2285
1179.019, 226.7891
1179.501, 182.2578
1179.983, 131.2305
1180.465, 90.01562
1180.948, 82.90430
1181.430, 90.81250
1181.912, 92.98438
1182.394, 87.72656
1182.876, 86.57617
1183.358, 90.62109
1183.840, 96.78516
1184.322, 106.6602
1184.805, 112.6133
1185.287, 91.03320
1185.769, 65.02148
1186.251, 72.48828
1186.733, 127.5547
1187.215, 159.2461
1187.697, 153.8320
1188.179, 160.5566
1188.661, 216.0215
1189.144, 272.2324
1189.626, 215.5859
1190.108, 110.2656
1190.590, 71.59375
1191.072, 163.3320
1191.554, 225.2012
1192.036, 241.8691
1192.518, 248.0684
1193.000, 269.9102
1193.483, 291.3965
1193.965, 279.3516
1194.447, 240.6074
1194.929, 193.9785
1195.411, 131.2148
1195.893, 78.05859
1196.375, 29.59375
1196.857, 3.343750
1197.340, 31.97070
1197.822, 86.19141
1198.304, 90.42773
1198.786, 59.96680
1199.268, 53.37891
1199.750, 126.4062
1200.232, 172.4355
1200.714, 171.8965
1201.197, 156.8145
1201.679, 173.4844
1202.161, 198.4551
1202.643, 166.8125
1203.125, 84.20508
1203.607, 10.09570
1204.089, 65.13086
1204.571, 73.82422
1205.053, 25.17969
1205.536, 141.2812
1206.018, 121.1562
1206.500, 23.22852
1206.982, 0.7089840
1207.464, 60.88477
1207.946, 99.61914
1208.428, 35.11523
1208.910, 0.4531250
1209.392, 37.71680
1209.875, 104.9102
1210.357, 121.4570
1210.839, 109.5898
1211.321, 136.2070
1211.803, 216.3535
1212.285, 259.5215
1212.767, 200.3242
1213.249, 143.2207
1213.732, 117.8730
1214.214, 115.9766
1214.696, 128.6855
1215.178, 148.2441
1215.660, 152.0820
1216.142, 129.9727
1216.624, 118.9961
1217.106, 151.3301
1217.589, 163.2480
1218.071, 116.2539
1218.553, 40.29297
1219.035, 1.326172
1219.517, 4.982422
1219.999, 50.41016
1220.481, 219.4609
1220.963, 306.1738
1221.445, 216.3750
1221.927, 112.4102
1222.410, 79.91016
1222.892, 98.12109
1223.374, 128.6289
1223.856, 157.2812
1224.338, 141.4883
1224.820, 18.26953
1225.302, 53.38867
1225.784, 41.00195
1226.267, 5.195313
1226.749, 72.49805
1227.231, 140.2148
1227.713, 131.8203
1228.195, 70.43945
1228.677, 26.17188
1229.159, 34.32031
1229.641, 51.89844
1230.124, 80.90234
1230.606, 102.2480
1231.088, 100.6895
1231.570, 83.70508
1232.052, 62.93945
1232.534, 41.43555
1233.016, 39.56836
1233.498, 112.0977
1233.980, 129.8887
1234.463, 56.91602
1234.945, 15.60742
1235.427, 27.13086
1235.909, 123.4824
1236.391, 134.5762
1236.873, 76.93555
1237.355, 39.92383
1237.837, 58.73438
1238.320, 89.95508
1238.802, 136.0176
1239.284, 175.2891
1239.766, 178.2207
1240.248, 160.6719
1240.730, 153.3320
1241.212, 153.4277
1241.694, 133.1152
1242.177, 60.13281
1242.659, 32.31055
1243.141, 74.98438
1243.623, 130.1738
1244.105, 118.9277
1244.587, 83.51953
1245.069, 86.63672
1245.551, 125.5391
1246.033, 143.5215
1246.516, 121.1309
1246.998, 122.6016
1247.480, 167.7695
1247.962, 211.0664
1248.444, 185.6758
1248.926, 136.0254
1249.408, 105.4570
1249.890, 122.4355
1250.372, 129.6914
1250.855, 124.1758
1251.337, 106.6211
1251.819, 67.14062
1252.301, 45.62109
1252.783, 104.5176
1253.265, 184.4766
1253.747, 227.5801
1254.229, 229.3066
1254.712, 209.9551
1255.194, 165.3906
1255.676, 129.6738
1256.158, 109.0781
1256.640, 106.6328
1257.122, 160.4160
1257.604, 215.0898
1258.086, 198.9707
1258.568, 124.2148
1259.051, 91.37891
1259.533, 99.59766
1260.015, 89.71875
1260.497, 69.38867
1260.979, 57.38672
1261.461, 87.23633
1261.943, 122.7051
1262.425, 131.5020
1262.907, 119.1875
1263.390, 123.2480
1263.872, 143.1875
1264.354, 170.0352
1264.836, 204.6621
1265.318, 222.8750
1265.800, 168.8281
1266.282, 119.4004
1266.764, 132.2734
1267.247, 187.6328
1267.729, 185.4727
1268.211, 137.0625
1268.693, 95.66406
1269.175, 81.95703
1269.657, 69.17578
1270.139, 32.74805
1270.621, 9.681641
1271.104, 18.35938
1271.586, 54.69531
1272.068, 130.8555
1272.550, 222.0664
1273.032, 252.2500
1273.514, 164.5957
1273.996, 108.7793
1274.478, 129.6816
1274.960, 156.9355
1275.443, 152.4219
1275.925, 130.4609
1276.407, 133.7871
1276.889, 143.9277
1277.371, 115.4023
1277.853, 2.943359
1278.335, 47.24805
1278.817, 8.800781
1279.299, 85.02539
1279.782, 151.0879
1280.264, 196.1543
1280.746, 189.7363
1281.228, 155.0977
1281.710, 129.8633
1282.192, 119.4316
1282.674, 127.1328
1283.156, 160.0645
1283.639, 179.4688
1284.121, 156.0137
1284.603, 120.7129
1285.085, 95.16797
1285.567, 83.99609
1286.049, 97.27734
1286.531, 120.0723
1287.013, 138.6641
1287.495, 130.6973
1287.978, 116.8203
1288.460, 104.6016
1288.942, 95.05273
1289.424, 92.65234
1289.906, 90.10938
1290.388, 81.15625
1290.870, 66.39453
1291.352, 54.99609
1291.834, 46.58594
1292.317, 36.25586
1292.799, 8.982422
1293.281, 0.6250000
1293.763, 0.0000000E+00
##END=



