##NAMES=Baotite
##RRUFFID=R060251
##IDEAL CHEMISTRY=Ba_4_(Ti^4+^,Nb^5+^,W^6+^)_8_O_16_(SiO_3_)_4_Cl
##LOCALITY=Baiyun-Obo mine, Inner Mongolia, China
##OWNER=RRUFF
##SOURCE=William W. Pinch
##DESCRIPTION=Brownish-purple colored cleavage fragments associated with clear brewsterite and blue richterite
##STATUS=The identification of this mineral has been confirmed by single-crystal X-ray diffraction.
##URL=rruff.info/R060251
223.7631, 0.0000000E+00
224.2452, 0.3662110
224.7273, 7.057129
225.2094, 16.94043
225.6915, 25.30957
226.1736, 31.39600
226.6558, 35.89697
227.1379, 39.43164
227.6200, 41.52979
228.1021, 44.04980
228.5842, 47.73291
229.0663, 51.02100
229.5485, 52.32568
230.0306, 51.90967
230.5127, 51.67188
230.9948, 53.41455
231.4769, 57.42432
231.9590, 63.71533
232.4412, 74.67969
232.9233, 85.35840
233.4054, 93.09912
233.8875, 97.58008
234.3696, 99.22656
234.8517, 97.44824
235.3339, 91.71729
235.8160, 90.62109
236.2981, 97.34668
236.7802, 106.2329
237.2623, 114.3677
237.7444, 121.7734
238.2266, 125.9536
238.7087, 126.8179
239.1908, 126.0513
239.6729, 122.4458
240.1550, 111.8555
240.6371, 99.87549
241.1193, 86.39795
241.6014, 71.22510
242.0835, 58.65381
242.5656, 52.31885
243.0477, 50.95117
243.5298, 48.47217
244.0120, 43.09082
244.4941, 37.17822
244.9762, 33.03223
245.4583, 30.74316
245.9404, 28.88574
246.4225, 26.31299
246.9047, 23.61523
247.3868, 22.10547
247.8689, 22.84814
248.3510, 24.11035
248.8331, 24.51465
249.3152, 24.14697
249.7974, 21.77734
250.2795, 14.02490
250.7616, 4.645020
251.2437, 0.7163090
251.7258, 0.4394530
252.2079, 3.768066
252.6901, 4.324707
253.1722, 1.774414
253.6543, 1.274902
254.1364, 4.906250
254.6185, 7.885254
255.1006, 8.548340
255.5828, 5.989746
256.0649, 2.558594
256.5470, 1.410645
257.0291, 3.007813
257.5112, 3.838379
257.9933, 3.059570
258.4755, 0.6889650
258.9576, 4.038086
259.4397, 11.99512
259.9218, 20.11768
260.4039, 25.43750
260.8860, 27.94531
261.3682, 32.17139
261.8503, 42.14600
262.3324, 51.91553
262.8145, 58.08350
263.2966, 58.79541
263.7787, 56.17920
264.2609, 52.51904
264.7430, 47.71143
265.2251, 44.86279
265.7072, 44.37793
266.1893, 45.13232
266.6714, 47.38623
267.1536, 50.69092
267.6357, 53.72705
268.1178, 55.08789
268.5999, 54.71094
269.0820, 53.61377
269.5641, 52.37939
270.0463, 50.19824
270.5284, 45.95752
271.0105, 40.12012
271.4926, 34.53174
271.9747, 31.12549
272.4568, 30.19434
272.9390, 28.79150
273.4211, 25.60010
273.9032, 23.08838
274.3853, 22.33594
274.8674, 23.05127
275.3495, 24.25293
275.8317, 25.12451
276.3138, 25.63574
276.7959, 26.69141
277.2780, 28.59863
277.7601, 30.77441
278.2422, 34.09033
278.7244, 37.52246
279.2065, 38.94287
279.6886, 36.50146
280.1707, 30.75195
280.6528, 27.56641
281.1349, 28.96436
281.6171, 31.08496
282.0992, 34.86572
282.5813, 38.63867
283.0634, 39.84766
283.5455, 36.86572
284.0276, 30.61963
284.5098, 25.26758
284.9919, 21.00000
285.4740, 17.56641
285.9561, 14.46191
286.4382, 12.31592
286.9203, 12.11572
287.4025, 14.31641
287.8846, 18.09717
288.3667, 21.24902
288.8488, 22.92090
289.3309, 25.15039
289.8130, 29.66357
290.2952, 33.91895
290.7773, 35.35693
291.2594, 33.18896
291.7415, 28.82617
292.2236, 24.84766
292.7057, 22.34766
293.1879, 18.37744
293.6700, 10.72803
294.1521, 3.289063
294.6342, 0.8852540
295.1163, 1.268066
295.5984, 0.5058590
296.0806, 2.514160
296.5627, 1.710734
297.0448, 5.955566
297.5269, 1.520020
298.0090, 2.648926
298.4911, 2.961426
298.9733, 0.3125000
299.4554, 4.366699
299.9375, 6.501953
300.4196, 6.614258
300.9017, 5.288086
301.3839, 0.5380860
301.8660, 4.683594
302.3481, 3.251953
302.8302, 2.275391
303.3123, 7.572266
303.7944, 9.428711
304.2766, 7.901367
304.7587, 5.744629
305.2408, 5.612288
305.7229, 2.015625
306.2050, 2.834473
306.6871, 1.822266
307.1693, 0.1494140
307.6514, 2.702148
308.1335, 5.440430
308.6156, 6.444336
309.0977, 2.882324
309.5798, 0.8491210
310.0620, 2.130371
310.5441, 4.801758
311.0262, 6.514160
311.5083, 6.212402
311.9904, 4.522461
312.4725, 2.978027
312.9547, 0.2163090
313.4368, 0.2412110
313.9189, 4.747559
314.4010, 10.86670
314.8831, 16.00195
315.3652, 19.63037
315.8474, 23.24219
316.3295, 29.25342
316.8116, 40.38623
317.2937, 46.02783
317.7758, 42.55811
318.2579, 37.27246
318.7401, 34.16016
319.2222, 33.71143
319.7043, 34.64990
320.1864, 35.81299
320.6685, 37.19141
321.1506, 38.80664
321.6328, 41.39160
322.1149, 43.46729
322.5970, 44.21533
323.0791, 43.96436
323.5612, 43.59521
324.0433, 43.73828
324.5255, 43.27393
325.0076, 44.40723
325.4897, 42.90088
325.9718, 42.19873
326.4539, 42.54785
326.9360, 44.04346
327.4182, 47.62598
327.9003, 53.88477
328.3824, 60.68066
328.8645, 61.87598
329.3466, 50.71680
329.8287, 42.78809
330.3109, 40.71240
330.7930, 40.92920
331.2751, 40.18262
331.7572, 37.55371
332.2393, 34.33691
332.7214, 32.46240
333.2036, 32.09717
333.6857, 32.87549
334.1678, 36.20752
334.6499, 39.35986
335.1320, 38.98877
335.6141, 36.00781
336.0963, 35.49854
336.5784, 43.66943
337.0605, 62.56689
337.5426, 72.47900
338.0247, 66.20020
338.5068, 58.58398
338.9890, 53.65771
339.4711, 51.32275
339.9532, 50.77148
340.4353, 51.88623
340.9174, 53.85400
341.3995, 51.21729
341.8817, 36.20020
342.3638, 26.01416
342.8459, 26.32861
343.3280, 31.59082
343.8101, 35.42578
344.2922, 35.12158
344.7744, 32.06152
345.2565, 29.18164
345.7386, 26.86377
346.2207, 23.95312
346.7028, 18.76611
347.1849, 14.12988
347.6671, 13.11133
348.1492, 15.74121
348.6313, 18.53564
349.1134, 16.95898
349.5955, 9.866699
350.0776, 3.460938
350.5598, 3.569336
351.0419, 8.723145
351.5240, 9.937012
352.0061, 8.163086
352.4882, 6.295898
352.9703, 6.508789
353.4525, 8.347168
353.9346, 8.340332
354.4167, 4.837891
354.8988, 1.727539
355.3809, 1.263184
355.8630, 1.742676
356.3452, 2.3925999E-02
356.8273, 6.034180
357.3094, 13.69824
357.7915, 16.96533
358.2736, 13.93994
358.7557, 11.37451
359.2379, 10.03857
359.7200, 9.856934
360.2021, 11.69385
360.6842, 15.77246
361.1663, 20.23438
361.6484, 22.90381
362.1306, 23.48486
362.6127, 25.74316
363.0948, 33.95215
363.5769, 39.77783
364.0590, 36.93896
364.5411, 27.33301
365.0233, 18.59082
365.5054, 16.33057
365.9875, 19.11523
366.4696, 20.89648
366.9517, 20.54395
367.4338, 21.38330
367.9160, 25.06592
368.3981, 31.01221
368.8802, 39.04736
369.3623, 50.64648
369.8444, 62.17627
370.3265, 68.22900
370.8087, 68.42578
371.2908, 66.36523
371.7729, 62.41846
372.2550, 57.32812
372.7371, 51.55225
373.2192, 44.95850
373.7014, 39.16455
374.1835, 36.33545
374.6656, 35.65234
375.1477, 32.81934
375.6298, 25.59521
376.1119, 18.49756
376.5941, 16.89307
377.0762, 19.75244
377.5583, 21.35742
378.0404, 18.38428
378.5225, 13.44043
379.0046, 10.01025
379.4868, 8.280273
379.9689, 8.232422
380.4510, 10.63770
380.9331, 14.72217
381.4152, 18.05469
381.8973, 20.98242
382.3795, 22.49658
382.8616, 20.46143
383.3437, 16.00391
383.8258, 13.79492
384.3079, 16.00439
384.7900, 21.00293
385.2722, 25.61768
385.7543, 29.44922
386.2364, 34.22998
386.7185, 41.73340
387.2006, 49.88818
387.6827, 56.35596
388.1649, 60.66211
388.6470, 62.76123
389.1291, 62.61426
389.6112, 59.96094
390.0933, 55.14502
390.5754, 45.14209
391.0576, 35.67041
391.5397, 30.08252
392.0218, 28.08203
392.5039, 27.94189
392.9860, 28.72510
393.4681, 30.41309
393.9503, 32.92676
394.4324, 38.27588
394.9145, 41.91162
395.3966, 42.98730
395.8787, 42.08350
396.3608, 39.71191
396.8430, 36.06445
397.3251, 31.32080
397.8072, 25.47900
398.2893, 17.05176
398.7714, 11.71680
399.2535, 10.28955
399.7357, 10.70654
400.2178, 12.34570
400.6999, 14.83643
401.1820, 17.97363
401.6641, 22.01904
402.1462, 26.60596
402.6284, 27.17773
403.1105, 18.61475
403.5926, 12.00537
404.0747, 9.771973
404.5568, 10.33105
405.0389, 12.14160
405.5211, 14.59082
406.0032, 17.10352
406.4853, 18.58936
406.9674, 18.76855
407.4495, 18.84424
407.9316, 20.32080
408.4138, 20.51074
408.8959, 16.04932
409.3780, 8.175781
409.8601, 2.393555
410.3422, 4.143555
410.8243, 12.23340
411.3065, 17.72168
411.7886, 19.79248
412.2707, 20.82520
412.7528, 21.86816
413.2349, 22.44336
413.7170, 21.61621
414.1992, 18.44287
414.6813, 15.25586
415.1634, 15.87207
415.6455, 20.53906
416.1276, 24.25439
416.6097, 25.85254
417.0919, 25.52100
417.5740, 22.88184
418.0561, 17.90967
418.5382, 14.16211
419.0203, 14.07031
419.5024, 16.51758
419.9846, 19.31738
420.4667, 22.36133
420.9488, 25.27734
421.4309, 27.88574
421.9130, 30.11133
422.3951, 31.69092
422.8773, 32.74219
423.3594, 32.98633
423.8415, 31.39746
424.3236, 28.60791
424.8057, 27.10840
425.2878, 28.07373
425.7700, 30.62109
426.2521, 33.16699
426.7342, 36.18604
427.2163, 37.90674
427.6984, 37.68164
428.1805, 36.21631
428.6627, 33.68896
429.1448, 30.34521
429.6269, 27.47168
430.1090, 26.21240
430.5911, 26.61182
431.0732, 28.06689
431.5554, 32.08350
432.0375, 35.33350
432.5196, 36.25439
433.0017, 35.74951
433.4838, 35.50146
433.9659, 36.29492
434.4481, 37.37402
434.9302, 36.85986
435.4123, 32.40625
435.8944, 30.71826
436.3765, 34.34521
436.8586, 38.44873
437.3408, 40.27539
437.8229, 39.48145
438.3050, 36.69971
438.7871, 31.71143
439.2692, 24.84082
439.7513, 21.81250
440.2335, 25.64258
440.7156, 29.16504
441.1977, 29.73486
441.6798, 29.03906
442.1619, 29.37402
442.6440, 31.66650
443.1262, 34.53955
443.6083, 35.86816
444.0904, 35.44092
444.5725, 34.96240
445.0546, 34.21484
445.5367, 33.63867
446.0189, 34.23145
446.5010, 35.74805
446.9831, 36.82520
447.4652, 36.82812
447.9473, 35.89844
448.4294, 33.49658
448.9116, 29.20801
449.3937, 26.99316
449.8758, 30.45898
450.3579, 37.24219
450.8400, 41.48193
451.3221, 41.30566
451.8043, 42.09668
452.2864, 49.16016
452.7685, 58.92383
453.2506, 63.35156
453.7327, 60.16553
454.2148, 53.21338
454.6970, 46.44238
455.1791, 39.79883
455.6612, 34.03564
456.1433, 28.54834
456.6254, 24.48193
457.1075, 22.39160
457.5897, 22.24512
458.0718, 23.76562
458.5539, 26.87305
459.0360, 31.26123
459.5181, 36.01807
460.0002, 43.80420
460.4824, 48.31689
460.9645, 46.80664
461.4466, 44.17969
461.9287, 44.41016
462.4108, 47.68164
462.8929, 51.56885
463.3751, 54.11279
463.8572, 55.39062
464.3393, 54.05078
464.8214, 48.65869
465.3035, 42.23193
465.7856, 33.18701
466.2678, 24.44922
466.7499, 20.02148
467.2320, 21.53955
467.7141, 25.95020
468.1962, 28.99121
468.6783, 30.49219
469.1605, 32.98340
469.6426, 38.09131
470.1247, 42.44922
470.6068, 42.46094
471.0889, 39.19336
471.5710, 37.21582
472.0532, 39.45801
472.5353, 43.73047
473.0174, 46.72021
473.4995, 48.47070
473.9816, 50.33008
474.4637, 53.90869
474.9459, 57.32666
475.4280, 57.05762
475.9101, 52.51562
476.3922, 46.03564
476.8743, 35.87158
477.3564, 25.33398
477.8386, 19.77930
478.3207, 20.04395
478.8028, 22.40527
479.2849, 23.69922
479.7670, 23.93115
480.2491, 24.27393
480.7313, 24.62598
481.2134, 25.21875
481.6955, 26.17627
482.1776, 27.42188
482.6597, 29.06885
483.1418, 31.11328
483.6240, 32.88721
484.1061, 33.30029
484.5882, 32.29395
485.0703, 29.96777
485.5524, 24.92822
486.0345, 19.94043
486.5167, 16.02734
486.9988, 13.16992
487.4809, 10.99658
487.9630, 9.351563
488.4451, 8.504395
488.9272, 9.441406
489.4094, 12.84717
489.8915, 15.84131
490.3736, 17.89893
490.8557, 19.08203
491.3378, 19.05664
491.8199, 17.89893
492.3021, 16.78613
492.7842, 15.99658
493.2663, 15.88965
493.7484, 17.82471
494.2305, 22.35596
494.7126, 26.64209
495.1948, 28.87744
495.6769, 29.63135
496.1590, 30.64746
496.6411, 32.96143
497.1232, 33.70703
497.6053, 31.00098
498.0875, 25.94678
498.5696, 20.04980
499.0517, 13.68945
499.5338, 7.452637
500.0159, 1.837891
500.4980, 3.189941
500.9802, 6.434570
501.4623, 8.458496
501.9444, 8.389648
502.4265, 5.356445
502.9086, 9.917559
503.3907, 7.062988
503.8729, 16.05811
504.3550, 24.20898
504.8371, 26.47510
505.3192, 20.69580
505.8013, 15.01465
506.2834, 8.241699
506.7656, 2.742676
507.2477, 0.7998050
507.7298, 2.166504
508.2119, 0.8217770
508.6940, 4.156250
509.1761, 10.86475
509.6583, 16.02832
510.1404, 19.90332
510.6225, 20.42432
511.1046, 14.44824
511.5867, 6.993652
512.0688, 2.438477
512.5510, 0.8330080
513.0331, 0.1943360
513.5152, 0.6772460
513.9973, 1.013672
514.4794, 1.092773
514.9615, 5.630371
515.4437, 8.937012
515.9258, 8.753906
516.4079, 6.068359
516.8900, 3.837891
517.3721, 2.440430
517.8542, 0.6391600
518.3364, 3.072754
518.8185, 6.596191
519.3006, 7.598633
519.7827, 5.938965
520.2648, 3.098633
520.7469, 0.2915040
521.2291, 2.517090
521.7112, 5.828125
522.1933, 11.87012
522.6754, 15.59375
523.1575, 15.55029
523.6396, 13.32910
524.1218, 10.10059
524.6039, 6.298340
525.0860, 2.475586
525.5681, 1.912109
526.0502, 6.732910
526.5323, 5.866211
527.0145, 5.320313
527.4966, 6.243689
527.9787, 3.909146
528.4608, 5.593262
528.9429, 0.5371090
529.4250, 1.131348
529.9072, 0.6171880
530.3893, 2.760254
530.8714, 7.676758
531.3535, 9.283203
531.8356, 6.125488
532.3177, 1.905762
532.7999, 0.2426760
533.2820, 0.2783200
533.7641, 0.4599610
534.2462, 1.707520
534.7283, 3.924316
535.2104, 8.704102
535.6926, 14.29053
536.1747, 17.36621
536.6568, 16.91016
537.1389, 15.23633
537.6210, 15.34521
538.1031, 17.62256
538.5853, 18.95459
539.0674, 18.57715
539.5495, 18.22510
540.0316, 19.35205
540.5137, 20.70703
540.9958, 20.02881
541.4780, 16.28857
541.9601, 11.47070
542.4422, 8.693848
542.9243, 7.740234
543.4064, 7.155273
543.8885, 5.107422
544.3707, 5.379395
544.8528, 12.82129
545.3349, 24.40820
545.8170, 32.09961
546.2991, 32.32080
546.7813, 28.81836
547.2634, 23.62158
547.7455, 17.39990
548.2276, 12.95654
548.7097, 11.38916
549.1918, 11.05518
549.6740, 9.556152
550.1561, 6.323242
550.6382, 5.928711
551.1203, 11.08643
551.6024, 16.54785
552.0845, 18.45166
552.5667, 18.39355
553.0488, 20.71631
553.5309, 27.16357
554.0130, 35.25781
554.4951, 40.66602
554.9772, 43.03662
555.4594, 43.69971
555.9415, 41.43701
556.4236, 38.56787
556.9057, 35.44727
557.3878, 32.45215
557.8699, 30.08203
558.3521, 28.37695
558.8342, 27.31445
559.3163, 27.16943
559.7984, 28.04248
560.2805, 29.47119
560.7626, 32.07959
561.2448, 33.95996
561.7269, 33.20947
562.2090, 30.26953
562.6911, 26.73389
563.1732, 21.70312
563.6553, 17.28662
564.1375, 14.60889
564.6196, 13.59424
565.1017, 14.32959
565.5838, 16.89258
566.0659, 19.96191
566.5480, 21.18896
567.0302, 19.43262
567.5123, 20.49365
567.9944, 26.92969
568.4765, 32.97070
568.9586, 37.07715
569.4407, 39.21240
569.9229, 39.16748
570.4050, 36.88428
570.8871, 33.57715
571.3692, 31.10156
571.8513, 29.59766
572.3334, 26.93799
572.8156, 21.26123
573.2977, 16.95361
573.7798, 17.36328
574.2619, 20.74805
574.7440, 23.98291
575.2261, 26.40381
575.7083, 28.36670
576.1904, 29.10938
576.6725, 29.52930
577.1546, 33.17188
577.6367, 41.26318
578.1188, 47.83057
578.6010, 46.58398
579.0831, 37.46973
579.5652, 30.32959
580.0473, 24.33008
580.5294, 20.84619
581.0115, 21.34326
581.4937, 23.96484
581.9758, 27.55371
582.4579, 31.34180
582.9400, 33.22803
583.4221, 29.98828
583.9042, 21.89062
584.3864, 18.17871
584.8685, 21.79932
585.3506, 25.31543
585.8327, 26.60547
586.3148, 26.42871
586.7969, 25.25439
587.2791, 23.19434
587.7612, 20.79297
588.2433, 18.05225
588.7254, 15.33154
589.2075, 13.69189
589.6896, 13.20361
590.1718, 12.15967
590.6539, 8.919434
591.1360, 5.008789
591.6181, 5.247559
592.1002, 13.34082
592.5823, 17.75195
593.0645, 14.79785
593.5466, 9.250977
594.0287, 3.693359
594.5108, 0.9169920
594.9929, -0.8422350
595.4750, -0.9774266
595.9572, 0.6059570
596.4393, 2.872070
596.9214, 7.992676
597.4035, 12.03076
597.8856, 16.40381
598.3677, 17.95801
598.8499, 12.57324
599.3320, 13.80366
599.8141, 5.439941
600.2962, 7.835449
600.7783, 6.092773
601.2604, 0.3041990
601.7426, 10.20312
602.2247, 17.06445
602.7068, 18.77002
603.1889, 17.54053
603.6710, 15.50000
604.1531, 12.40137
604.6353, 11.12549
605.1174, 14.11768
605.5995, 16.20508
606.0816, 14.68018
606.5637, 11.00928
607.0458, 7.144531
607.5280, 3.789063
608.0101, 0.9995120
608.4922, 1.389648
608.9743, 3.370605
609.4564, 2.219727
609.9385, 3.964355
610.4207, 10.15186
610.9028, 15.23682
611.3849, 19.00781
611.8670, 21.17236
612.3491, 21.66455
612.8312, 20.73584
613.3134, 17.81348
613.7955, 13.83838
614.2776, 10.05811
614.7597, 6.657227
615.2418, 4.937500
615.7239, 5.897461
616.2061, 8.818359
616.6882, 11.82373
617.1703, 16.41797
617.6524, 18.30420
618.1345, 15.28760
618.6166, 11.27734
619.0988, 8.087402
619.5809, 6.229004
620.0630, 6.413086
620.5451, 9.210449
621.0272, 13.06006
621.5093, 14.33643
621.9915, 12.38574
622.4736, 12.53760
622.9557, 16.86523
623.4378, 21.56885
623.9199, 24.17139
624.4020, 25.16650
624.8842, 26.04834
625.3663, 27.65039
625.8484, 27.67822
626.3305, 22.08252
626.8126, 14.74512
627.2947, 14.58594
627.7769, 23.22217
628.2590, 33.85596
628.7411, 40.74316
629.2232, 44.09033
629.7053, 46.49902
630.1874, 50.07812
630.6696, 49.80615
631.1517, 40.56934
631.6338, 30.61914
632.1159, 27.59619
632.5980, 31.37744
633.0801, 35.94287
633.5623, 36.97754
634.0444, 36.24609
634.5265, 38.51904
635.0086, 44.22070
635.4907, 47.04248
635.9728, 44.31445
636.4550, 39.10938
636.9371, 34.50391
637.4192, 30.41455
637.9013, 27.75098
638.3834, 26.21631
638.8655, 26.54346
639.3477, 30.56494
639.8298, 36.34766
640.3119, 40.29980
640.7940, 41.46387
641.2761, 41.91650
641.7582, 44.33936
642.2404, 48.78223
642.7225, 51.36377
643.2046, 52.18066
643.6867, 50.75586
644.1688, 44.21777
644.6509, 37.29004
645.1331, 35.39355
645.6152, 38.90967
646.0973, 42.07324
646.5794, 40.62305
647.0615, 37.02393
647.5436, 35.20801
648.0258, 35.10938
648.5079, 34.86963
648.9900, 33.50342
649.4721, 32.29785
649.9542, 33.62598
650.4363, 38.91748
650.9185, 41.53516
651.4006, 40.57812
651.8827, 38.14648
652.3648, 33.80273
652.8469, 28.91699
653.3290, 25.14014
653.8112, 23.13379
654.2933, 23.07910
654.7754, 26.23975
655.2575, 31.92334
655.7396, 34.23828
656.2217, 32.01025
656.7039, 29.97559
657.1860, 29.58740
657.6681, 30.72461
658.1502, 34.04639
658.6323, 40.13330
659.1144, 46.70459
659.5966, 54.24023
660.0787, 60.31836
660.5608, 62.44678
661.0429, 61.43457
661.5250, 59.38477
662.0071, 57.19727
662.4893, 55.68262
662.9714, 56.74561
663.4535, 61.53760
663.9356, 62.75488
664.4177, 56.87305
664.8998, 52.05908
665.3820, 52.23242
665.8641, 54.67725
666.3462, 55.69141
666.8283, 54.43262
667.3104, 53.69189
667.7925, 56.26025
668.2747, 59.94434
668.7568, 62.43750
669.2389, 63.31201
669.7210, 60.34668
670.2031, 51.71143
670.6852, 40.48438
671.1674, 32.83398
671.6495, 29.80762
672.1316, 27.82666
672.6137, 27.92236
673.0958, 27.87842
673.5779, 26.43604
674.0601, 24.38281
674.5422, 23.03857
675.0243, 22.85498
675.5064, 22.94873
675.9885, 23.06592
676.4706, 22.76904
676.9528, 19.61084
677.4349, 12.98096
677.9170, 7.597168
678.3991, 5.940918
678.8812, 6.989746
679.3633, 9.156738
679.8455, 13.55225
680.3276, 15.27441
680.8097, 12.59180
681.2918, 8.291016
681.7739, 1.613281
682.2560, 4.885742
682.7382, 5.956543
683.2203, 0.2412110
683.7024, 8.759766
684.1845, 13.35059
684.6666, 14.08643
685.1487, 13.85352
685.6309, 11.90820
686.1130, 11.11475
686.5951, 13.86182
687.0772, 17.94531
687.5593, 20.74219
688.0414, 22.64941
688.5236, 20.45166
689.0057, 18.07887
689.4878, 14.59641
689.9699, 8.611328
690.4520, 6.751465
690.9341, 2.244141
691.4163, 3.319336
691.8984, 8.192871
692.3805, 9.840820
692.8626, 8.133789
693.3447, 5.193848
693.8268, 6.402693
694.3090, 4.666016
694.7911, 6.365723
695.2732, 6.608398
695.7553, 6.516602
696.2374, 6.213379
696.7195, 5.602051
697.2017, 4.702637
697.6838, 3.459961
698.1659, 2.213867
698.6480, 0.6142580
699.1301, 2.572266
699.6122, 7.784668
700.0944, 14.06396
700.5765, 20.58350
701.0586, 27.55859
701.5407, 30.90723
702.0228, 29.53955
702.5049, 26.01904
702.9871, 18.76025
703.4692, 11.37305
703.9513, 7.231445
704.4334, 6.547852
704.9155, 7.140137
705.3976, 7.284668
705.8798, 8.531738
706.3619, 14.62451
706.8440, 23.61865
707.3261, 27.82715
707.8082, 24.79395
708.2903, 20.16846
708.7725, 20.03076
709.2546, 24.31836
709.7367, 29.43945
710.2188, 38.02979
710.7009, 43.65625
711.1830, 44.98486
711.6652, 43.44629
712.1473, 38.83447
712.6294, 32.12939
713.1115, 26.68652
713.5936, 24.50684
714.0757, 24.04248
714.5579, 23.49854
715.0400, 23.09229
715.5221, 24.06494
716.0042, 26.82959
716.4863, 28.80664
716.9684, 27.35596
717.4506, 23.25879
717.9327, 21.86621
718.4148, 26.60596
718.8969, 29.25684
719.3790, 29.08740
719.8611, 27.07080
720.3433, 22.26416
720.8254, 16.19873
721.3075, 12.36328
721.7896, 12.45215
722.2717, 14.68457
722.7538, 17.63916
723.2360, 21.10449
723.7181, 24.79785
724.2002, 28.70898
724.6823, 31.26465
725.1644, 31.08545
725.6465, 29.22949
726.1287, 28.90527
726.6108, 31.02344
727.0929, 32.96826
727.5750, 36.20752
728.0571, 37.80615
728.5392, 34.95410
729.0214, 29.91357
729.5035, 26.00146
729.9856, 24.23145
730.4677, 25.20166
730.9498, 31.52490
731.4319, 40.53125
731.9141, 46.46436
732.3962, 48.99756
732.8783, 47.25488
733.3604, 40.14551
733.8425, 30.41406
734.3246, 22.17236
734.8068, 14.99219
735.2889, 11.40576
735.7710, 14.05811
736.2531, 16.78613
736.7352, 17.60840
737.2173, 17.63037
737.6995, 17.53320
738.1816, 17.71240
738.6637, 19.63135
739.1458, 25.40088
739.6279, 32.78174
740.1100, 38.90674
740.5922, 43.61279
741.0743, 44.81738
741.5564, 41.22900
742.0385, 36.57764
742.5206, 34.95654
743.0027, 31.08398
743.4849, 34.63232
743.9670, 26.30664
744.4491, 21.18652
744.9312, 21.26025
745.4133, 23.93311
745.8954, 29.48877
746.3776, 36.08154
746.8597, 38.51172
747.3418, 32.56689
747.8239, 25.96240
748.3060, 27.16162
748.7881, 34.24414
749.2703, 43.67041
749.7524, 54.52588
750.2345, 61.97607
750.7166, 62.97656
751.1987, 58.14844
751.6808, 48.28271
752.1630, 27.61182
752.6451, 14.96436
753.1272, 17.33789
753.6093, 20.30957
754.0914, 18.60059
754.5735, 14.15674
755.0557, 9.410156
755.5378, 4.763184
756.0199, 2.298340
756.5020, 4.475586
756.9841, 8.800781
757.4662, 12.49268
757.9484, 15.42334
758.4305, 17.90234
758.9126, 20.02734
759.3947, 21.46973
759.8768, 21.53174
760.3589, 20.16309
760.8411, 20.87402
761.3232, 24.22070
761.8053, 28.56152
762.2874, 36.40576
762.7695, 42.76904
763.2516, 42.23193
763.7338, 36.11475
764.2159, 32.10400
764.6980, 32.80225
765.1801, 36.18896
765.6622, 41.38135
766.1443, 48.24561
766.6265, 58.10986
767.1086, 70.12451
767.5907, 79.95361
768.0728, 84.84863
768.5549, 84.85449
769.0370, 78.59375
769.5192, 64.38574
770.0013, 55.28711
770.4834, 53.57520
770.9655, 54.90479
771.4476, 59.12451
771.9297, 63.81738
772.4119, 64.53076
772.8940, 60.15234
773.3761, 55.58398
773.8582, 51.77979
774.3403, 48.53613
774.8224, 45.23633
775.3046, 42.52637
775.7867, 42.17432
776.2688, 44.46680
776.7509, 46.75244
777.2330, 45.37549
777.7151, 41.97266
778.1973, 43.66211
778.6794, 50.90918
779.1615, 58.80957
779.6436, 67.41309
780.1257, 73.17725
780.6078, 71.11719
781.0900, 61.69922
781.5721, 56.09180
782.0542, 57.24707
782.5363, 58.01123
783.0184, 58.73633
783.5005, 57.34082
783.9827, 49.37061
784.4648, 38.18066
784.9469, 32.45605
785.4290, 36.41064
785.9111, 43.53125
786.3932, 46.97412
786.8754, 47.86621
787.3575, 49.19727
787.8396, 51.16309
788.3217, 52.98926
788.8038, 54.63379
789.2859, 55.11768
789.7681, 52.05322
790.2502, 43.73389
790.7323, 41.44141
791.2144, 48.60547
791.6965, 57.70361
792.1786, 69.62012
792.6608, 80.82812
793.1429, 88.02100
793.6250, 91.11182
794.1071, 92.13818
794.5892, 91.76514
795.0714, 89.98877
795.5535, 87.39941
796.0356, 83.21729
796.5177, 75.41650
796.9998, 64.09375
797.4819, 51.31934
797.9641, 37.92676
798.4462, 25.81494
798.9283, 21.12012
799.4104, 24.97510
799.8925, 27.96387
800.3746, 29.16650
800.8568, 29.67822
801.3389, 30.20361
801.8210, 30.33887
802.3031, 29.09180
802.7852, 25.91113
803.2673, 24.18994
803.7495, 24.13721
804.2316, 26.19629
804.7137, 32.13037
805.1958, 39.71582
805.6779, 46.96631
806.1600, 52.85352
806.6422, 54.77344
807.1243, 48.90723
807.6064, 39.67041
808.0885, 35.69336
808.5706, 36.67627
809.0527, 39.43750
809.5349, 43.64697
810.0170, 48.40771
810.4991, 53.42139
810.9812, 58.07812
811.4633, 59.97363
811.9454, 58.96631
812.4276, 55.47168
812.9097, 46.57080
813.3918, 38.18555
813.8739, 32.38135
814.3560, 28.92871
814.8381, 27.28613
815.3203, 27.36084
815.8024, 29.23682
816.2845, 33.91992
816.7666, 39.51465
817.2487, 45.61182
817.7308, 50.91211
818.2130, 52.21533
818.6951, 48.92041
819.1772, 43.65527
819.6593, 38.43359
820.1414, 33.71436
820.6235, 30.90479
821.1057, 29.86133
821.5878, 32.87305
822.0699, 42.95947
822.5520, 51.65332
823.0341, 53.53613
823.5162, 49.41943
823.9984, 41.55273
824.4805, 27.54980
824.9626, 15.86426
825.4447, 8.026367
825.9268, 2.128418
826.4089, 4.347656
826.8911, 8.973145
827.3732, 6.492676
827.8553, 3.580078
828.3374, 12.89697
828.8195, 14.62012
829.3016, 12.13086
829.7838, 9.694336
830.2659, 7.379883
830.7480, 5.424805
831.2301, 3.875000
831.7122, 2.890137
832.1943, 2.625000
832.6765, 2.962402
833.1586, 3.626465
833.6407, 4.754395
834.1228, 5.549316
834.6049, 4.797363
835.0870, 5.338379
835.5692, 10.98682
836.0513, 17.96631
836.5334, 20.22510
837.0155, 16.59814
837.4976, 13.54102
837.9797, 12.79346
838.4619, 12.90869
838.9440, 13.92432
839.4261, 15.09766
839.9082, 15.86182
840.3903, 15.58643
840.8724, 12.67188
841.3546, 11.85060
841.8367, 10.38435
842.3188, 7.388184
842.8009, 6.857910
843.2830, 4.692871
843.7651, 3.874276
844.2473, 1.483887
844.7294, 2.416992
845.2115, 1.655762
845.6936, 0.5288090
846.1757, 4.667969
846.6578, 5.134766
847.1400, 5.553452
847.6221, 3.731445
848.1042, 6.102539
848.5863, 7.371094
849.0684, 7.425293
849.5505, 6.532715
850.0327, 6.136230
850.5148, 5.451172
850.9969, 6.726563
851.4790, 14.43213
851.9611, 22.37012
852.4432, 22.84570
852.9254, 16.87354
853.4075, 10.38379
853.8896, 6.390625
854.3717, 4.371094
854.8538, 2.948730
855.3359, 2.594238
855.8181, 7.156738
856.3002, 16.50049
856.7823, 21.95898
857.2644, 19.72607
857.7465, 13.85596
858.2286, 8.846191
858.7108, 4.789551
859.1929, 4.516113
859.6750, 11.22803
860.1571, 15.43604
860.6392, 13.55127
861.1213, 10.71436
861.6035, 10.13379
862.0856, 11.00049
862.5677, 11.06982
863.0498, 9.274414
863.5319, 9.025879
864.0140, 14.96289
864.4962, 19.59570
864.9783, 14.61865
865.4604, 5.405273
865.9425, 2.037109
866.4246, 6.569824
866.9067, 12.46729
867.3889, 14.90430
867.8710, 14.74902
868.3531, 12.94531
868.8352, 9.831055
869.3173, 6.573730
869.7994, 3.392090
870.2816, 1.623535
870.7637, 2.321289
871.2458, 4.694824
871.7279, 6.986328
872.2100, 9.440430
872.6921, 10.54150
873.1743, 8.726563
873.6564, 8.369629
874.1385, 11.79980
874.6206, 17.03857
875.1027, 22.89502
875.5848, 29.16748
876.0670, 31.32520
876.5491, 25.62793
877.0312, 19.78271
877.5133, 16.19727
877.9954, 13.52295
878.4775, 10.05713
878.9597, 6.491699
879.4418, 4.870117
879.9239, 6.063477
880.4060, 8.627930
880.8881, 11.75195
881.3702, 15.19189
881.8524, 18.87305
882.3345, 22.55371
882.8166, 24.87939
883.2987, 25.57324
883.7808, 27.02930
884.2629, 31.51758
884.7451, 38.17285
885.2272, 45.07275
885.7093, 52.80518
886.1914, 56.50098
886.6735, 55.22949
887.1556, 50.46436
887.6378, 41.51270
888.1199, 30.77100
888.6020, 23.21826
889.0841, 19.18994
889.5662, 17.12891
890.0483, 18.89355
890.5305, 20.16406
891.0126, 19.21729
891.4947, 17.61914
891.9768, 16.69678
892.4589, 16.51758
892.9410, 16.62891
893.4232, 16.80469
893.9053, 17.43604
894.3874, 20.73145
894.8695, 23.19385
895.3516, 19.72168
895.8337, 12.13770
896.3159, 5.333984
896.7980, 1.170410
897.2801, 0.2753910
897.7622, 1.535645
898.2443, 5.814941
898.7264, 11.27002
899.2086, 17.58936
899.6907, 22.85303
900.1728, 26.80518
900.6549, 26.81055
901.1370, 20.08105
901.6191, 9.695801
902.1013, 4.418945
902.5834, 6.373535
903.0655, 3.838867
903.5476, 7.588867
904.0297, 5.734974
904.5118, 12.20117
904.9940, 4.291016
905.4761, 0.2475590
905.9582, 0.1909180
906.4403, 4.692871
906.9224, 19.94434
907.4045, 30.88428
907.8867, 33.56445
908.3688, 31.55225
908.8509, 25.34424
909.3330, 17.10791
909.8151, 10.35547
910.2972, 6.148438
910.7794, 2.685547
911.2615, 1.941406
911.7436, 5.755859
912.2257, 6.175781
912.7078, 4.461914
913.1899, 3.105957
913.6721, 2.431152
914.1542, 1.296875
914.6363, 1.280762
915.1184, 4.091309
915.6005, 4.163086
916.0826, 2.351074
916.5648, 4.233887
917.0469, 10.25732
917.5290, 15.68066
918.0111, 18.49170
918.4932, 19.44971
918.9753, 19.25732
919.4575, 18.07373
919.9396, 18.22705
920.4217, 20.83154
920.9038, 22.18115
921.3859, 21.97363
921.8680, 19.72852
922.3502, 12.13477
922.8323, 3.428223
923.3144, 3.595215
923.7965, 15.47852
924.2786, 24.86182
924.7607, 31.16748
925.2429, 33.46240
925.7250, 28.59229
926.2071, 21.57812
926.6892, 16.17139
927.1713, 13.15186
927.6534, 13.50244
928.1356, 19.31348
928.6177, 24.11426
929.0998, 22.69531
929.5819, 19.02197
930.0640, 15.32129
930.5461, 13.37158
931.0283, 17.03955
931.5104, 27.00537
931.9925, 39.05078
932.4746, 51.10400
932.9567, 60.88965
933.4388, 63.81055
933.9210, 60.82275
934.4031, 54.45312
934.8852, 45.38818
935.3673, 36.67480
935.8494, 29.86816
936.3315, 25.12988
936.8137, 23.15918
937.2958, 23.86572
937.7779, 23.64111
938.2600, 21.91992
938.7421, 22.28564
939.2242, 26.51172
939.7064, 30.68506
940.1885, 30.62549
940.6706, 28.36523
941.1527, 31.89893
941.6348, 47.01953
942.1169, 54.53662
942.5991, 48.80469
943.0812, 42.27539
943.5633, 39.26318
944.0454, 36.91064
944.5275, 31.48438
945.0096, 23.55273
945.4918, 18.03076
945.9739, 15.90625
946.4560, 16.43359
946.9381, 22.48779
947.4202, 28.20459
947.9023, 28.82227
948.3845, 26.00781
948.8666, 22.56689
949.3487, 19.38965
949.8308, 18.03223
950.3129, 20.83350
950.7950, 24.46338
951.2772, 24.90820
951.7593, 24.37402
952.2414, 27.31836
952.7235, 33.08594
953.2056, 37.01855
953.6877, 36.84863
954.1699, 34.78662
954.6520, 33.53906
955.1341, 32.69141
955.6162, 31.35986
956.0983, 29.48291
956.5804, 25.33643
957.0626, 18.57080
957.5447, 13.17480
958.0268, 12.13916
958.5089, 14.56689
958.9910, 19.49316
959.4731, 27.37695
959.9553, 29.17139
960.4374, 23.31787
960.9195, 18.35596
961.4016, 16.51611
961.8837, 17.00146
962.3658, 20.66455
962.8480, 26.75244
963.3301, 27.14941
963.8122, 18.01318
964.2943, 10.56738
964.7764, 3.456055
965.2585, 1.3672000E-02
965.7407, 2.791016
966.2228, 9.395020
966.7049, 18.64990
967.1870, 30.41064
967.6691, 36.84277
968.1512, 33.00049
968.6334, 29.36768
969.1155, 29.34277
969.5976, 28.96240
970.0797, 24.63721
970.5618, 18.72803
971.0439, 16.18701
971.5261, 18.08252
972.0082, 17.93457
972.4903, 10.38379
972.9724, 2.830078
973.4545, 0.1796880
973.9366, 0.5478520
974.4188, 0.3881840
974.9009, 1.800781
975.3830, 2.317383
975.8651, 1.353516
976.3472, 0.1240230
976.8293, 0.1513670
977.3115, 0.1606450
977.7936, 2.915039
978.2757, 7.090332
978.7578, 7.625977
979.2399, 3.912598
979.7220, 2.125488
980.2042, 9.536621
980.6863, 16.46143
981.1684, 20.04834
981.6505, 20.91357
982.1326, 20.58105
982.6147, 19.28467
983.0969, 18.43750
983.5790, 18.45166
984.0611, 18.34375
984.5432, 17.20459
985.0253, 15.55469
985.5074, 15.49854
985.9896, 17.17041
986.4717, 13.72217
986.9538, 3.451172
987.4359, 2.462891
987.9180, 0.9633790
988.4001, 7.987793
988.8823, 12.83105
989.3644, 15.68213
989.8465, 17.67041
990.3286, 18.97461
990.8107, 18.80615
991.2928, 16.70557
991.7750, 13.80127
992.2571, 9.195313
992.7392, 5.401855
993.2213, 5.794922
993.7034, 10.34717
994.1855, 16.42871
994.6677, 28.82764
995.1498, 35.38916
995.6319, 30.60547
996.1140, 25.07275
996.5961, 23.15430
997.0782, 23.97607
997.5604, 26.60645
998.0425, 30.97656
998.5246, 34.89160
999.0067, 38.17285
999.4888, 40.68018
999.9709, 43.70898
1000.453, 44.63525
1000.935, 38.76807
1001.417, 30.36328
1001.899, 28.22461
1002.382, 34.11035
1002.864, 38.33105
1003.346, 36.47412
1003.828, 32.39893
1004.310, 26.22266
1004.792, 20.55664
1005.274, 18.96045
1005.756, 20.09814
1006.238, 20.31250
1006.721, 18.44385
1007.203, 15.50098
1007.685, 10.52734
1008.167, 6.495605
1008.649, 7.683105
1009.131, 10.95850
1009.613, 10.99951
1010.095, 8.257813
1010.578, 6.898926
1011.060, 8.788086
1011.542, 11.25781
1012.024, 10.92236
1012.506, 10.02637
1012.988, 11.95410
1013.470, 16.10645
1013.952, 21.84277
1014.434, 28.36572
1014.917, 32.30566
1015.399, 31.63037
1015.881, 31.47852
1016.363, 41.61279
1016.845, 56.61523
1017.327, 61.01270
1017.809, 56.22314
1018.291, 48.63623
1018.773, 39.85645
1019.256, 30.74268
1019.738, 21.61230
1020.220, 14.95654
1020.702, 16.68457
1021.184, 25.20850
1021.666, 29.65625
1022.148, 30.07666
1022.630, 26.26562
1023.113, 17.96631
1023.595, 9.356934
1024.077, 2.953125
1024.559, 0.2124020
1025.041, 3.545898
1025.523, 14.34570
1026.005, 17.71533
1026.487, 12.62207
1026.969, 8.875977
1027.452, 9.195801
1027.934, 9.654785
1028.416, 6.809570
1028.898, 2.794434
1029.380, 2.805176
1029.862, 6.967285
1030.344, 14.15869
1030.826, 26.13574
1031.309, 34.92285
1031.791, 38.67090
1032.273, 38.21191
1032.755, 33.33008
1033.237, 25.45703
1033.719, 18.22705
1034.201, 11.19043
1034.683, 6.857910
1035.166, 3.419922
1035.648, 7.354492
1036.130, 25.71777
1036.612, 44.02295
1037.094, 51.08252
1037.576, 49.47900
1038.058, 46.20117
1038.540, 40.26270
1039.022, 36.03760
1039.505, 33.24707
1039.987, 32.58154
1040.469, 36.25098
1040.951, 39.89795
1041.433, 39.32715
1041.915, 36.22705
1042.397, 35.35303
1042.879, 36.59033
1043.361, 40.27686
1043.844, 51.56006
1044.326, 58.28809
1044.808, 57.72461
1045.290, 51.48535
1045.772, 35.58887
1046.254, 15.93799
1046.736, 7.770020
1047.218, 15.07568
1047.700, 21.58447
1048.183, 26.14160
1048.665, 29.06689
1049.147, 30.87598
1049.629, 30.72217
1050.111, 27.18311
1050.593, 21.75635
1051.075, 17.56299
1051.557, 14.99512
1052.040, 13.53955
1052.522, 14.46582
1053.004, 14.73486
1053.486, 11.60938
1053.968, 9.051758
1054.450, 11.55811
1054.932, 16.68359
1055.414, 18.40088
1055.896, 15.29053
1056.379, 14.75439
1056.861, 18.11475
1057.343, 24.16260
1057.825, 36.27100
1058.307, 46.84863
1058.789, 48.32910
1059.271, 44.08398
1059.753, 41.43604
1060.236, 41.68652
1060.718, 43.29346
1061.200, 47.09814
1061.682, 50.38623
1062.164, 53.16650
1062.646, 53.94775
1063.128, 49.16064
1063.610, 42.40332
1064.093, 40.44824
1064.575, 44.43994
1065.057, 48.92285
1065.539, 54.99854
1066.021, 57.06543
1066.503, 49.21924
1066.985, 39.82080
1067.467, 34.80469
1067.949, 33.37793
1068.432, 33.69336
1068.914, 35.58594
1069.396, 38.37207
1069.878, 43.20703
1070.360, 45.57422
1070.842, 40.02100
1071.324, 35.07861
1071.806, 39.47949
1072.288, 47.55713
1072.771, 49.24219
1073.253, 44.07812
1073.735, 40.68701
1074.217, 42.94775
1074.699, 46.50244
1075.181, 49.78076
1075.663, 53.08301
1076.145, 57.92334
1076.627, 62.01660
1077.110, 61.32812
1077.592, 56.66992
1078.074, 53.52148
1078.556, 54.00244
1079.038, 55.81104
1079.520, 57.44971
1080.002, 60.51416
1080.484, 66.40723
1080.967, 74.24023
1081.449, 84.15332
1081.931, 94.91504
1082.413, 102.4712
1082.895, 104.6494
1083.377, 107.4883
1083.859, 114.2319
1084.341, 121.9238
1084.823, 130.9497
1085.306, 138.2622
1085.788, 140.2666
1086.270, 137.7124
1086.752, 133.1182
1087.234, 126.7720
1087.716, 121.4033
1088.198, 121.2026
1088.680, 118.5278
1089.163, 107.0815
1089.645, 93.08252
1090.127, 81.74072
1090.609, 72.90186
1091.091, 64.06445
1091.573, 54.60352
1092.055, 50.39453
1092.537, 57.83203
1093.020, 65.52441
1093.502, 71.73535
1093.984, 73.14697
1094.466, 64.85791
1094.948, 50.87842
1095.430, 36.26318
1095.912, 22.45264
1096.394, 14.92139
1096.876, 19.71973
1097.359, 24.64648
1097.841, 27.14941
1098.323, 26.91895
1098.805, 21.09375
1099.287, 14.06738
1099.769, 12.59180
1100.251, 16.10010
1100.733, 16.43408
1101.215, 7.839844
1101.698, 4.131348
1102.180, 12.30762
1102.662, 22.10059
1103.144, 31.69727
1103.626, 37.74561
1104.108, 35.64697
1104.590, 27.12061
1105.072, 18.47754
1105.554, 9.761230
1106.037, 4.091309
1106.519, 1.475098
1107.001, 0.6992190
1107.483, 19.82129
1107.965, 41.72168
1108.447, 57.80518
1108.929, 67.29541
1109.411, 67.94189
1109.894, 57.81152
1110.376, 51.18066
1110.858, 55.06104
1111.340, 54.42432
1111.822, 44.29297
1112.304, 31.17529
1112.786, 16.15186
1113.268, 1.863281
1113.750, 7.749023
1114.233, 12.57666
1114.715, 14.63184
1115.197, 13.41455
1115.679, 10.29492
1116.161, 4.313965
1116.643, 2.202148
1117.125, 9.338379
1117.607, 15.64014
1118.090, 20.01172
1118.572, 22.19727
1119.054, 20.66211
1119.536, 12.50049
1120.018, 7.868652
1120.500, 8.461914
1120.982, 9.125977
1121.464, 7.987793
1121.947, 7.072754
1122.429, 8.001953
1122.911, 10.41455
1123.393, 13.78906
1123.875, 18.74902
1124.357, 20.07617
1124.839, 17.30566
1125.321, 12.38281
1125.803, 4.756348
1126.286, 2.502930
1126.768, 0.6829740
1127.250, 0.9193603
1127.732, 4.933105
1128.214, 8.575195
1128.696, 20.09961
1129.178, 30.36328
1129.660, 31.48096
1130.142, 21.24316
1130.625, 11.06104
1131.107, 5.440430
1131.589, 2.583008
1132.071, 0.9008790
1132.553, 7.7147998E-02
1133.035, -0.4519233
1133.517, 2.632324
1133.999, 1.287598
1134.481, 2.944336
1134.964, 6.253906
1135.446, 7.621094
1135.928, 8.699219
1136.410, 10.51367
1136.892, 13.70996
1137.374, 20.45557
1137.856, 29.41553
1138.338, 35.15137
1138.821, 37.95752
1139.303, 37.48242
1139.785, 34.71484
1140.267, 37.86816
1140.749, 50.45264
1141.231, 60.41064
1141.713, 53.73633
1142.195, 38.97607
1142.677, 29.71338
1143.160, 24.90137
1143.642, 23.01514
1144.124, 23.37891
1144.606, 24.18896
1145.088, 25.31836
1145.570, 29.70947
1146.052, 40.16699
1146.534, 51.14014
1147.017, 59.66602
1147.499, 63.10938
1147.981, 55.97266
1148.463, 42.44580
1148.945, 27.42188
1149.427, 13.57031
1149.909, 5.759277
1150.391, 6.073730
1150.874, 8.108398
1151.356, 5.805664
1151.838, 6.139160
1152.320, 15.69238
1152.802, 28.71289
1153.284, 42.19727
1153.766, 53.53174
1154.248, 59.28516
1154.730, 58.96631
1155.213, 54.42578
1155.695, 43.20117
1156.177, 33.19824
1156.659, 26.86865
1157.141, 22.66455
1157.623, 20.03418
1158.105, 18.84912
1158.587, 19.79004
1159.069, 22.12793
1159.552, 23.35840
1160.034, 23.07715
1160.516, 22.25635
1160.998, 18.54248
1161.480, 17.81445
1161.962, 25.43408
1162.444, 31.65918
1162.926, 30.03564
1163.408, 23.93750
1163.891, 18.20801
1164.373, 12.75049
1164.855, 9.564941
1165.337, 8.774902
1165.819, 9.726074
1166.301, 12.77295
1166.783, 16.66260
1167.265, 21.36768
1167.748, 25.47021
1168.230, 27.39990
1168.712, 28.02979
1169.194, 30.26221
1169.676, 34.26221
1170.158, 34.63721
1170.640, 31.17773
1171.122, 28.10205
1171.604, 25.70264
1172.087, 24.87207
1172.569, 26.19482
1173.051, 29.17578
1173.533, 33.46631
1174.015, 37.58740
1174.497, 37.81982
1174.979, 34.81787
1175.461, 30.75488
1175.944, 26.79541
1176.426, 28.26514
1176.908, 35.84814
1177.390, 41.53027
1177.872, 39.35889
1178.354, 35.39746
1178.836, 35.89795
1179.318, 39.69043
1179.801, 47.30127
1180.283, 55.80713
1180.765, 60.84131
1181.247, 61.78613
1181.729, 58.78418
1182.211, 52.00977
1182.693, 43.31201
1183.175, 31.59570
1183.657, 21.17383
1184.140, 14.08008
1184.622, 9.774414
1185.104, 9.406738
1185.586, 11.49170
1186.068, 13.91455
1186.550, 15.74805
1187.032, 16.86084
1187.514, 17.28320
1187.996, 16.83447
1188.479, 11.14648
1188.961, 10.37549
1189.443, 23.25049
1189.925, 36.65771
1190.407, 40.46387
1190.889, 38.73828
1191.371, 37.76465
1191.853, 37.70898
1192.335, 39.55566
1192.818, 44.69873
1193.300, 47.14600
1193.782, 45.48877
1194.264, 43.87354
1194.746, 43.92578
1195.228, 43.76074
1195.710, 41.27490
1196.192, 38.28271
1196.675, 40.02002
1197.157, 46.08301
1197.639, 47.25537
1198.121, 43.74316
1198.603, 41.48535
1199.085, 41.33545
1199.567, 40.24316
1200.049, 36.86377
1200.531, 32.48193
1201.014, 28.16309
1201.496, 24.10889
1201.978, 20.52979
1202.460, 17.59131
1202.942, 15.21924
1203.424, 13.91504
1203.906, 15.46484
1204.388, 19.50391
1204.871, 23.71533
1205.353, 27.17334
1205.835, 28.03955
1206.317, 22.74219
1206.799, 16.88623
1207.281, 15.41455
1207.763, 14.89502
1208.245, 10.30566
1208.728, 11.91406
1209.210, 5.939941
1209.692, 13.06787
1210.174, 18.02783
1210.656, 18.60156
1211.138, 17.06689
1211.620, 11.24805
1212.102, 6.866211
1212.584, 6.589844
1213.067, 7.854980
1213.549, 9.286133
1214.031, 10.82812
1214.513, 11.95947
1214.995, 12.71191
1215.477, 11.39551
1215.959, 6.827637
1216.441, 4.958496
1216.923, 6.918945
1217.406, 8.881348
1217.888, 9.705566
1218.370, 9.167969
1218.852, 6.782715
1219.334, 4.065430
1219.816, 4.779297
1220.298, 2.537598
1220.780, 1.712540
1221.262, 1.280273
1221.745, 1.108398
1222.227, 2.902523
1222.709, 2.845703
1223.191, 7.779785
1223.673, 12.63428
1224.155, 15.86816
1224.637, 18.87646
1225.119, 22.50195
1225.602, 27.21143
1226.084, 36.12939
1226.566, 44.86719
1227.048, 47.37109
1227.530, 43.41113
1228.012, 33.30762
1228.494, 17.32080
1228.976, 5.089844
1229.458, 2.553223
1229.941, 1.201660
1230.423, 2.815918
1230.905, 4.985840
1231.387, 0.2695310
1231.869, 5.557129
1232.351, 4.977539
1232.833, 0.4838870
1233.315, 0.2446290
1233.798, 5.284180
1234.280, 8.210449
1234.762, 7.817383
1235.244, 9.562988
1235.726, 14.96826
1236.208, 19.88965
1236.690, 22.47070
1237.172, 23.49609
1237.655, 23.87207
1238.137, 23.10449
1238.619, 19.48291
1239.101, 13.56787
1239.583, 6.950684
1240.065, 0.4848630
1240.547, 1.507813
1241.029, 0.7890630
1241.511, 2.834961
1241.994, 2.801758
1242.476, 2.218262
1242.958, 1.487305
1243.440, 2.300781
1243.922, 7.771973
1244.404, 14.19434
1244.886, 17.70117
1245.368, 19.75000
1245.850, 23.00391
1246.333, 26.97461
1246.815, 29.18311
1247.297, 28.98682
1247.779, 27.96289
1248.261, 27.12158
1248.743, 24.52588
1249.225, 17.25928
1249.707, 11.27197
1250.189, 8.509277
1250.672, 8.667969
1251.154, 12.28223
1251.636, 18.00684
1252.118, 22.00928
1252.600, 24.31152
1253.082, 21.28369
1253.564, 12.37207
1254.046, 7.196289
1254.529, 7.605469
1255.011, 11.27734
1255.493, 17.21094
1255.975, 21.67773
1256.457, 21.46777
1256.939, 18.01709
1257.421, 10.54541
1257.903, 3.307129
1258.385, 4.589844
1258.868, 12.19824
1259.350, 17.13721
1259.832, 19.42969
1260.314, 23.51611
1260.796, 30.09424
1261.278, 34.07080
1261.760, 31.81104
1262.242, 29.27539
1262.725, 27.76953
1263.207, 27.38086
1263.689, 29.75000
1264.171, 33.12500
1264.653, 37.78809
1265.135, 41.82520
1265.617, 40.54541
1266.099, 33.96436
1266.582, 28.63916
1267.064, 24.73828
1267.546, 21.27930
1268.028, 18.02100
1268.510, 16.53369
1268.992, 17.56543
1269.474, 17.57666
1269.956, 14.11768
1270.438, 8.797852
1270.921, 2.590820
1271.403, 2.529297
1271.885, 0.4760740
1272.367, 5.772949
1272.849, 9.683594
1273.331, 10.80127
1273.813, 9.314941
1274.295, 5.992188
1274.777, 3.349121
1275.260, 2.390625
1275.742, 2.342773
1276.224, 2.402832
1276.706, 3.739258
1277.188, 8.986816
1277.670, 13.39014
1278.152, 12.50830
1278.634, 7.371094
1279.116, 5.626953
1279.599, 6.466309
1280.081, 5.006348
1280.563, 0.2768550
1281.045, 0.2768550
1281.527, 9.770020
1282.009, 14.46924
1282.491, 11.18799
1282.973, 6.812500
1283.456, 0.8032230
1283.938, 0.5659180
1284.420, 3.083496
1284.902, 3.829590
1285.384, 0.0000000E+00
##END=



