##NAMES=Bayleyite
##RRUFFID=R070458
##IDEAL CHEMISTRY=Mg_2_(U^6+^O_2_)(CO_3_)_3_&#183;18H_2_O
##LOCALITY=Hideout mine (Hideout No. 1 mine), Deer Flats, White Canyon, White Canyon District, San Juan County, Utah, USA
##OWNER=RRUFF
##SOURCE=Michael Scott
##DESCRIPTION=Sprays of well-formed yellow to white acicular crystals
##STATUS=The identification of this mineral is not yet confirmed.
##URL=rruff.info/R070458
168.7490, 0.0000000E+00
169.2311, 19.82373
169.7132, 37.11182
170.1953, 32.75342
170.6774, 17.12354
171.1595, 6.799805
171.6417, 12.11377
172.1238, 25.81641
172.6059, 33.50830
173.0880, 17.35352
173.5701, 3.406250
174.0522, 3.714355
174.5344, 11.06641
175.0165, 14.51758
175.4986, 6.236816
175.9807, 7.873535
176.4628, 10.16504
176.9449, 6.744141
177.4271, 22.00000
177.9092, 20.37109
178.3913, 14.02588
178.8734, 20.83789
179.3555, 53.17139
179.8376, 101.1079
180.3197, 135.0874
180.8019, 147.5283
181.2840, 158.6177
181.7661, 172.2646
182.2482, 189.2998
182.7303, 212.4375
183.2124, 245.2773
183.6946, 281.4175
184.1767, 300.6870
184.6588, 290.0024
185.1409, 284.7661
185.6230, 298.8760
186.1051, 321.0952
186.5873, 338.9976
187.0694, 346.8447
187.5515, 346.9927
188.0336, 344.5459
188.5157, 333.2930
188.9978, 330.9521
189.4800, 346.7676
189.9621, 369.5278
190.4442, 389.0977
190.9263, 401.1680
191.4084, 405.7163
191.8905, 399.5205
192.3727, 364.4941
192.8548, 352.5601
193.3369, 389.5732
193.8190, 441.6968
194.3011, 476.2490
194.7832, 480.1572
195.2654, 465.0093
195.7475, 454.9897
196.2296, 451.5684
196.7117, 450.9751
197.1938, 461.5879
197.6759, 469.6763
198.1581, 459.5684
198.6402, 426.5532
199.1223, 384.7378
199.6044, 361.5850
200.0865, 369.8794
200.5686, 371.7695
201.0508, 365.1997
201.5329, 351.5483
202.0150, 328.5903
202.4971, 296.6294
202.9792, 263.4053
203.4613, 243.6909
203.9435, 250.6143
204.4256, 240.8975
204.9077, 192.1709
205.3898, 142.7905
205.8719, 123.5698
206.3540, 138.3228
206.8362, 163.0664
207.3183, 163.0908
207.8004, 124.0410
208.2825, 96.66699
208.7646, 84.22754
209.2467, 79.51953
209.7289, 82.72510
210.2110, 91.58057
210.6931, 98.92090
211.1752, 94.75391
211.6573, 73.70215
212.1395, 61.11621
212.6216, 62.56104
213.1037, 67.06836
213.5858, 69.42822
214.0679, 69.65039
214.5500, 70.83643
215.0322, 76.14697
215.5143, 86.04932
215.9964, 96.98535
216.4785, 106.7676
216.9606, 119.6201
217.4427, 139.5942
217.9249, 164.6045
218.4070, 188.9473
218.8891, 207.5933
219.3712, 220.3433
219.8533, 234.5771
220.3354, 251.9351
220.8176, 269.3198
221.2997, 285.0186
221.7818, 300.0903
222.2639, 316.9761
222.7460, 337.6304
223.2281, 361.6636
223.7103, 382.8638
224.1924, 395.7114
224.6745, 411.8613
225.1566, 436.5566
225.6387, 465.5806
226.1208, 492.2271
226.6030, 511.0737
227.0851, 525.5039
227.5672, 544.8662
228.0493, 577.3057
228.5314, 603.5381
229.0135, 618.4927
229.4957, 626.3643
229.9778, 631.8945
230.4599, 637.0273
230.9420, 642.8066
231.4241, 652.9077
231.9062, 670.0679
232.3884, 687.2212
232.8705, 708.6045
233.3526, 727.3057
233.8347, 736.7520
234.3168, 734.9863
234.7989, 726.2085
235.2811, 716.3516
235.7632, 704.4712
236.2453, 693.7378
236.7274, 687.3330
237.2095, 679.9683
237.6916, 665.3994
238.1738, 643.7686
238.6559, 623.1479
239.1380, 615.8008
239.6201, 626.4844
240.1022, 632.8745
240.5843, 640.9824
241.0665, 639.6890
241.5486, 619.1094
242.0307, 581.0625
242.5128, 537.5254
242.9949, 500.2959
243.4770, 469.7036
243.9592, 441.1064
244.4413, 409.9170
244.9234, 385.4829
245.4055, 376.6489
245.8876, 378.0952
246.3697, 376.3140
246.8519, 360.0557
247.3340, 331.2627
247.8161, 308.3569
248.2982, 293.4331
248.7803, 282.1655
249.2624, 272.7544
249.7446, 265.5225
250.2267, 261.9141
250.7088, 264.3140
251.1909, 269.0342
251.6730, 264.4404
252.1551, 245.2378
252.6373, 227.3037
253.1194, 216.9980
253.6015, 209.9644
254.0836, 200.4170
254.5657, 185.2041
255.0478, 170.8594
255.5300, 169.7783
256.0121, 186.1777
256.4942, 199.8340
256.9763, 201.8799
257.4584, 200.7163
257.9406, 204.2827
258.4227, 214.5093
258.9048, 221.3271
259.3869, 210.7871
259.8690, 181.8613
260.3511, 159.1558
260.8333, 151.1919
261.3154, 147.5566
261.7975, 138.7363
262.2796, 125.0923
262.7617, 116.4292
263.2438, 124.5244
263.7260, 145.4780
264.2081, 155.3579
264.6902, 145.2290
265.1723, 133.6514
265.6544, 137.1738
266.1365, 151.4360
266.6187, 162.3457
267.1008, 161.9766
267.5829, 154.7900
268.0650, 149.2544
268.5471, 147.2070
269.0292, 141.4873
269.5114, 115.6738
269.9935, 83.66602
270.4756, 71.91797
270.9577, 102.5698
271.4398, 144.8032
271.9219, 163.3584
272.4041, 156.3521
272.8862, 136.7612
273.3683, 103.7148
273.8504, 67.51904
274.3325, 17.90088
274.8146, 52.15186
275.2968, 70.71875
275.7789, 74.52441
276.2610, 18.57324
276.7431, 39.52441
277.2252, 29.62109
277.7073, 18.92432
278.1895, 51.33545
278.6716, 3.943359
279.1537, 35.06250
279.6358, 34.84570
280.1179, 48.97803
280.6000, 32.05469
281.0822, 24.72803
281.5643, 49.56250
282.0464, 58.02490
282.5285, 38.09326
283.0106, 53.15918
283.4927, 4.901855
283.9749, 13.40479
284.4570, 46.39355
284.9391, 28.31104
285.4212, 43.97852
285.9033, 46.49219
286.3854, 10.73975
286.8676, 36.24854
287.3497, 38.31250
287.8318, 5.918945
288.3139, 37.26465
288.7960, 0.7812500
289.2781, 9.827637
289.7603, 12.67725
290.2424, 29.59473
290.7245, 38.08350
291.2066, 27.57861
291.6887, 21.08057
292.1708, 26.83887
292.6530, 36.67285
293.1351, 39.96631
293.6172, 33.04590
294.0993, 20.36182
294.5814, 9.432129
295.0635, 1.479492
295.5457, 6.647949
296.0278, 0.1162110
296.5099, 7.567383
296.9920, 7.810547
297.4741, 0.4135740
297.9562, 9.052246
298.4384, 15.58887
298.9205, 19.73438
299.4026, 16.79102
299.8847, 0.3730470
300.3668, 16.51904
300.8489, 29.70215
301.3311, 39.90918
301.8131, 50.32324
302.2953, 63.96582
302.7774, 78.54102
303.2595, 80.83789
303.7416, 54.62939
304.2237, 40.46631
304.7058, 57.27246
305.1880, 84.42334
305.6701, 99.02051
306.1522, 92.36768
306.6343, 75.21875
307.1164, 63.84814
307.5985, 58.39111
308.0807, 58.45020
308.5628, 72.12012
309.0449, 85.69385
309.5270, 91.11426
310.0091, 87.63574
310.4912, 79.21338
310.9734, 64.84912
311.4555, 45.91797
311.9376, 39.37842
312.4197, 54.02637
312.9018, 70.49414
313.3839, 78.33643
313.8661, 78.64648
314.3482, 73.72217
314.8303, 61.05957
315.3124, 45.35156
315.7945, 34.83740
316.2766, 29.98291
316.7588, 27.74365
317.2409, 28.21387
317.7230, 29.81152
318.2051, 30.05811
318.6872, 28.96191
319.1693, 26.13379
319.6515, 15.88623
320.1336, 1.808594
320.6157, 2.679199
321.0978, 32.45020
321.5799, 67.84814
322.0620, 66.38721
322.5442, 22.43457
323.0263, 12.17871
323.5084, 20.58398
323.9905, 11.91797
324.4726, 6.662598
324.9547, 33.88818
325.4369, 57.64307
325.9190, 65.70654
326.4011, 56.18506
326.8832, 46.82471
327.3653, 40.24902
327.8474, 31.41650
328.3296, 11.25439
328.8117, 14.47852
329.2938, 27.77979
329.7759, 16.08789
330.2580, 14.13232
330.7401, 31.75830
331.2223, 31.35645
331.7044, 27.59424
332.1865, 17.71973
332.6686, 7.127930
333.1507, 2.575195
333.6328, 5.772949
334.1150, 11.52637
334.5971, 11.06445
335.0792, 1.603516
335.5613, 3.828125
336.0434, 13.97510
336.5255, 32.45410
337.0077, 44.90234
337.4898, 49.46094
337.9719, 43.87402
338.4540, 22.57861
338.9361, 11.05859
339.4182, 25.04980
339.9004, 1.677246
340.3825, 15.55225
340.8646, 6.497559
341.3467, 12.64795
341.8288, 19.94678
342.3109, 5.720703
342.7931, 15.94043
343.2752, 22.84521
343.7573, 12.57324
344.2394, 4.402832
344.7215, 3.324219
345.2036, 6.748047
345.6858, 15.86133
346.1679, 30.49561
346.6500, 39.19385
347.1321, 26.21045
347.6142, 2.249023
348.0963, 1.784180
348.5785, 22.70068
349.0606, 49.84961
349.5427, 56.42920
350.0248, 48.99951
350.5069, 46.66504
350.9890, 60.77490
351.4712, 74.82422
351.9533, 73.95410
352.4354, 60.35400
352.9175, 43.70508
353.3996, 24.79199
353.8817, 10.07910
354.3639, 19.76416
354.8460, 70.16113
355.3281, 105.5781
355.8102, 104.1699
356.2923, 84.95166
356.7744, 68.12109
357.2566, 58.73779
357.7387, 54.79150
358.2208, 53.43701
358.7029, 55.80322
359.1850, 53.99121
359.6671, 37.59033
360.1493, 27.83984
360.6314, 39.40771
361.1135, 64.91553
361.5956, 88.61035
362.0777, 101.6489
362.5598, 104.9106
363.0420, 101.3115
363.5241, 86.56396
364.0062, 71.44238
364.4883, 49.77393
364.9704, 32.82666
365.4525, 34.88672
365.9347, 56.95898
366.4168, 80.47705
366.8989, 81.10205
367.3810, 56.84570
367.8631, 43.68652
368.3452, 51.54346
368.8274, 60.69141
369.3095, 59.45166
369.7916, 51.62598
370.2737, 46.80469
370.7558, 51.18604
371.2379, 59.73096
371.7201, 63.01318
372.2022, 60.23682
372.6843, 60.15283
373.1664, 70.11670
373.6485, 82.50586
374.1306, 86.47607
374.6128, 81.08057
375.0949, 69.51514
375.5770, 44.20166
376.0591, 15.45508
376.5412, 8.152832
377.0233, 29.53223
377.5055, 55.49609
377.9876, 61.14258
378.4697, 43.89404
378.9518, 28.91504
379.4339, 10.08447
379.9160, 0.7597660
380.3982, 9.379883
380.8803, 33.16943
381.3624, 53.34473
381.8445, 61.38379
382.3266, 60.42627
382.8087, 57.97119
383.2909, 54.66943
383.7730, 48.66748
384.2551, 34.81543
384.7372, 21.62061
385.2193, 18.77637
385.7014, 26.11328
386.1836, 32.51221
386.6657, 22.29199
387.1478, 5.890137
387.6299, 15.93115
388.1120, 10.18457
388.5941, 34.26855
389.0763, 43.76807
389.5584, 43.52344
390.0405, 41.32861
390.5226, 40.19141
391.0047, 39.08594
391.4868, 35.25977
391.9690, 27.85303
392.4511, 26.74902
392.9332, 41.59912
393.4153, 56.78467
393.8974, 55.44482
394.3795, 37.04443
394.8617, 21.69824
395.3438, 22.66846
395.8259, 31.79199
396.3080, 35.52393
396.7901, 31.43799
397.2722, 24.25049
397.7544, 17.72705
398.2365, 12.14453
398.7186, 11.52930
399.2007, 19.09863
399.6828, 25.25879
400.1649, 26.06250
400.6471, 24.23730
401.1292, 22.41113
401.6113, 21.64160
402.0934, 24.43164
402.5755, 36.79639
403.0576, 68.42285
403.5398, 79.27832
404.0219, 47.15088
404.5040, 17.59961
404.9861, 20.62109
405.4682, 45.81885
405.9503, 64.00244
406.4325, 56.52197
406.9146, 30.67676
407.3967, 14.36914
407.8788, 10.97363
408.3609, 10.54688
408.8430, 9.121582
409.3252, 10.91895
409.8073, 24.37646
410.2894, 49.17236
410.7715, 66.93848
411.2536, 54.83057
411.7357, 19.77393
412.2179, 1.149902
412.7000, 3.416016
413.1821, 3.030273
413.6642, 17.60742
414.1463, 35.69434
414.6284, 47.20703
415.1106, 46.72607
415.5927, 43.62207
416.0748, 46.65723
416.5569, 52.94482
417.0390, 52.39795
417.5211, 38.99854
418.0033, 21.88916
418.4854, 12.95801
418.9675, 11.81982
419.4496, 22.60693
419.9317, 65.08203
420.4138, 103.4312
420.8960, 110.3892
421.3781, 90.90674
421.8602, 65.40674
422.3423, 46.00830
422.8244, 32.98145
423.3065, 27.78320
423.7887, 36.35400
424.2708, 43.78223
424.7529, 50.82617
425.2350, 54.71387
425.7171, 50.85449
426.1992, 39.83545
426.6814, 29.53564
427.1635, 29.09180
427.6456, 37.40088
428.1277, 41.36914
428.6098, 40.68457
429.0919, 36.20068
429.5741, 22.21729
430.0562, 6.431641
430.5383, 1.594727
431.0204, 14.16748
431.5025, 30.73047
431.9846, 40.75879
432.4668, 45.64795
432.9489, 51.98291
433.4310, 63.22900
433.9131, 69.83984
434.3952, 55.77246
434.8773, 18.00635
435.3595, 1.902832
435.8416, 8.759277
436.3237, 28.52100
436.8058, 50.99756
437.2879, 71.66553
437.7701, 80.61377
438.2522, 72.85938
438.7343, 56.04004
439.2164, 50.70264
439.6985, 68.83789
440.1806, 76.99609
440.6628, 67.49072
441.1449, 54.91943
441.6270, 44.95801
442.1091, 40.14453
442.5912, 45.03174
443.0733, 68.24512
443.5555, 101.8218
444.0376, 113.7666
444.5197, 98.92627
445.0018, 76.59717
445.4839, 40.67871
445.9660, 9.630371
446.4482, 3.776367
446.9303, 31.10400
447.4124, 57.02783
447.8945, 54.83252
448.3766, 37.27246
448.8587, 32.68066
449.3409, 45.62646
449.8230, 59.31396
450.3051, 60.00586
450.7872, 49.13672
451.2693, 43.09033
451.7514, 48.46875
452.2336, 50.62695
452.7157, 40.64453
453.1978, 26.03467
453.6799, 18.77100
454.1620, 21.83936
454.6441, 26.64209
455.1263, 20.34229
455.6084, 1.144043
456.0905, 10.48682
456.5726, 2.689941
457.0547, 18.45166
457.5368, 31.79980
458.0190, 43.05273
458.5011, 56.61475
458.9832, 77.51855
459.4653, 94.02441
459.9474, 82.62061
460.4295, 42.71826
460.9117, 18.53271
461.3938, 22.75195
461.8759, 39.59082
462.3580, 63.86279
462.8401, 91.70020
463.3222, 99.71582
463.8044, 59.19580
464.2865, 13.79102
464.7686, 7.020508
465.2507, 30.77393
465.7328, 50.03125
466.2149, 49.03027
466.6971, 37.70557
467.1792, 35.56055
467.6613, 50.15576
468.1434, 58.96191
468.6255, 57.30566
469.1076, 51.73291
469.5898, 46.95410
470.0719, 43.36768
470.5540, 39.91357
471.0361, 35.63037
471.5182, 32.36670
472.0003, 38.86328
472.4825, 64.29590
472.9646, 74.22461
473.4467, 41.07373
473.9288, 4.436035
474.4109, 9.193359
474.8930, 0.2973630
475.3752, 14.50781
475.8573, 27.79346
476.3394, 37.16504
476.8215, 33.07568
477.3036, 15.20264
477.7857, 5.457031
478.2679, 18.10498
478.7500, 43.06396
479.2321, 55.20850
479.7142, 49.17578
480.1963, 45.84082
480.6784, 54.96338
481.1606, 64.57520
481.6427, 61.31787
482.1248, 46.33447
482.6069, 31.87109
483.0890, 27.15674
483.5711, 30.47656
484.0533, 32.54932
484.5354, 35.58643
485.0175, 34.30713
485.4996, 17.99854
485.9817, 2.472656
486.4638, 4.000977
486.9460, 22.75879
487.4281, 43.61084
487.9102, 58.39551
488.3923, 66.04346
488.8744, 59.65234
489.3565, 35.99658
489.8387, 16.78662
490.3208, 12.46777
490.8029, 20.19287
491.2850, 33.64795
491.7671, 56.63770
492.2492, 74.51953
492.7314, 79.90771
493.2135, 79.44092
493.6956, 82.77441
494.1777, 88.87939
494.6598, 87.09717
495.1419, 67.04688
495.6241, 33.16943
496.1062, 13.89941
496.5883, 17.88232
497.0704, 25.45361
497.5525, 38.20850
498.0346, 51.23193
498.5168, 61.69824
498.9989, 67.94043
499.4810, 69.82861
499.9631, 66.26807
500.4452, 58.00195
500.9273, 47.75635
501.4095, 35.46143
501.8916, 20.72559
502.3737, 3.806152
502.8558, 25.51611
503.3379, 24.75146
503.8200, 4.797852
504.3022, 30.01416
504.7843, 36.28906
505.2664, 32.71094
505.7485, 26.36719
506.2306, 19.35010
506.7127, 17.27930
507.1949, 24.68896
507.6770, 38.93359
508.1591, 48.23730
508.6412, 46.47168
509.1233, 48.78320
509.6054, 66.35547
510.0876, 80.17285
510.5697, 71.59570
511.0518, 43.83301
511.5339, 17.51660
512.0161, 7.849609
512.4982, 10.01514
512.9803, 12.34570
513.4624, 15.48633
513.9445, 13.29199
514.4266, 1.651855
514.9088, 16.84326
515.3909, 13.26416
515.8730, 10.82520
516.3551, 30.34570
516.8372, 34.55859
517.3193, 33.26709
517.8015, 34.15625
518.2836, 37.77490
518.7657, 44.68506
519.2478, 55.92578
519.7299, 67.16260
520.2120, 67.13135
520.6942, 44.77295
521.1763, 32.35205
521.6584, 38.95898
522.1405, 45.81152
522.6226, 41.23828
523.1047, 28.51562
523.5869, 18.18506
524.0690, 16.65381
524.5511, 18.23438
525.0332, 9.625000
525.5153, 9.022949
525.9974, 11.33496
526.4796, 16.52686
526.9617, 50.27588
527.4438, 60.87988
527.9259, 51.57861
528.4080, 49.54395
528.8901, 69.75146
529.3723, 87.15039
529.8544, 82.52734
530.3365, 65.23926
530.8186, 54.54346
531.3007, 56.87500
531.7828, 63.43213
532.2650, 60.64697
532.7471, 46.81787
533.2292, 41.37012
533.7113, 54.28955
534.1934, 64.12402
534.6755, 63.25635
535.1577, 55.93115
535.6398, 46.29150
536.1219, 34.79297
536.6040, 28.16357
537.0861, 37.24707
537.5682, 56.40576
538.0504, 67.18945
538.5325, 66.99756
539.0146, 61.50049
539.4967, 53.44287
539.9788, 43.36084
540.4609, 34.16553
540.9431, 27.14355
541.4252, 19.04053
541.9073, 3.065918
542.3894, 10.33398
542.8715, 7.719238
543.3536, 9.483887
543.8358, 26.62500
544.3179, 32.10303
544.8000, 28.27734
545.2821, 25.18896
545.7642, 23.35400
546.2463, 20.77246
546.7285, 12.89893
547.2106, 7.276855
547.6927, 14.00488
548.1748, 31.48584
548.6569, 40.48828
549.1390, 25.07178
549.6211, 2.270020
550.1032, 12.08203
550.5853, 17.73682
551.0674, 14.11865
551.5496, 5.8594000E-02
552.0317, 18.83984
552.5138, 34.06250
552.9959, 46.20801
553.4780, 52.42920
553.9601, 54.01514
554.4423, 49.28662
554.9244, 28.01074
555.4065, 2.919922
555.8886, 4.295410
556.3707, 14.72168
556.8528, 40.81348
557.3350, 52.03076
557.8171, 49.60693
558.2992, 42.74072
558.7813, 30.98340
559.2634, 18.38818
559.7455, 2.879395
560.2277, 10.87549
560.7098, 8.495117
561.1919, 25.58936
561.6740, 54.29590
562.1561, 59.49316
562.6382, 54.29932
563.1204, 52.33936
563.6025, 54.83594
564.0846, 55.37988
564.5667, 48.34668
565.0488, 37.40381
565.5309, 39.00586
566.0131, 62.54785
566.4952, 74.83643
566.9773, 57.63721
567.4594, 37.42578
567.9415, 31.00977
568.4236, 36.78125
568.9058, 43.45068
569.3879, 47.50781
569.8700, 49.22900
570.3521, 46.65576
570.8342, 41.86035
571.3163, 41.97021
571.7985, 49.21533
572.2806, 61.43359
572.7627, 78.10693
573.2448, 102.9126
573.7269, 110.6104
574.2090, 88.16797
574.6912, 62.89453
575.1733, 30.59131
575.6554, 4.747070
576.1375, 4.101074
576.6196, 30.91748
577.1017, 62.54395
577.5839, 81.39258
578.0660, 88.61572
578.5481, 84.27637
579.0302, 66.36719
579.5123, 55.63867
579.9944, 65.44678
580.4766, 84.53564
580.9587, 90.33447
581.4408, 80.10693
581.9229, 71.31738
582.4050, 67.48633
582.8871, 64.74170
583.3693, 59.81104
583.8514, 53.84766
584.3335, 48.22900
584.8156, 42.06592
585.2977, 39.26025
585.7798, 50.24316
586.2620, 76.61719
586.7441, 88.19678
587.2262, 76.06201
587.7083, 62.43457
588.1904, 61.37695
588.6725, 66.77881
589.1547, 69.18848
589.6368, 67.50684
590.1189, 62.39600
590.6010, 50.03027
591.0831, 36.64209
591.5652, 30.82910
592.0474, 32.60156
592.5295, 36.19678
593.0116, 37.66797
593.4937, 38.70703
593.9758, 45.62012
594.4579, 63.87305
594.9401, 74.90088
595.4222, 74.78320
595.9043, 68.99658
596.3864, 56.11963
596.8685, 39.72070
597.3506, 28.01758
597.8328, 24.72266
598.3149, 25.81006
598.7970, 27.25049
599.2791, 30.27100
599.7612, 39.75244
600.2433, 56.06592
600.7255, 71.73877
601.2076, 80.70703
601.6897, 82.53516
602.1718, 78.95703
602.6539, 67.21338
603.1360, 53.48682
603.6182, 24.69775
604.1003, 4.746094
604.5824, 20.03760
605.0645, 63.10742
605.5466, 99.56055
606.0287, 109.1616
606.5109, 102.2471
606.9930, 90.04004
607.4751, 73.64551
607.9572, 62.27734
608.4393, 59.24561
608.9214, 61.66992
609.4036, 68.26904
609.8857, 78.35645
610.3678, 82.76465
610.8499, 74.87549
611.3320, 70.22852
611.8141, 79.83105
612.2963, 90.80615
612.7784, 83.73193
613.2605, 60.02295
613.7426, 39.33057
614.2247, 37.57422
614.7068, 49.27441
615.1890, 67.05811
615.6711, 91.86328
616.1532, 98.19824
616.6353, 68.99902
617.1174, 36.30420
617.5995, 41.38037
618.0817, 84.51123
618.5638, 108.9707
619.0459, 101.1367
619.5280, 87.78125
620.0101, 76.08545
620.4922, 66.44678
620.9744, 58.93799
621.4565, 53.45215
621.9386, 49.22510
622.4207, 44.45801
622.9028, 40.86230
623.3849, 46.95459
623.8671, 64.83252
624.3492, 80.75244
624.8313, 93.50732
625.3134, 99.22070
625.7955, 87.37158
626.2776, 59.86963
626.7598, 44.31348
627.2419, 52.78271
627.7240, 66.18555
628.2061, 83.13770
628.6882, 95.53467
629.1703, 86.09326
629.6525, 54.31738
630.1346, 25.43311
630.6167, 27.63965
631.0988, 53.46777
631.5809, 58.09180
632.0630, 34.17334
632.5452, 18.74561
633.0273, 30.52588
633.5094, 48.40430
633.9915, 42.55859
634.4736, 14.84570
634.9557, 7.589844
635.4379, 55.72559
635.9200, 98.05615
636.4021, 90.49219
636.8842, 58.69336
637.3663, 42.37793
637.8484, 50.44482
638.3306, 63.91309
638.8127, 63.55664
639.2948, 52.28564
639.7769, 48.95410
640.2590, 57.05908
640.7411, 61.69043
641.2233, 60.35645
641.7054, 52.87256
642.1875, 34.82617
642.6696, 7.673340
643.1517, 8.914551
643.6339, 6.660156
644.1160, 2.618652
644.5981, 16.76318
645.0802, 32.03662
645.5623, 44.08496
646.0444, 51.47266
646.5266, 52.58154
647.0087, 43.63721
647.4908, 28.46777
647.9729, 27.24414
648.4550, 44.46533
648.9371, 57.56836
649.4193, 59.52881
649.9014, 56.75586
650.3835, 57.18604
650.8656, 59.53418
651.3477, 53.75635
651.8298, 24.17236
652.3120, 1.996582
652.7941, 7.369629
653.2762, 26.12598
653.7583, 41.03516
654.2404, 48.46289
654.7225, 51.69385
655.2047, 52.77832
655.6868, 52.51221
656.1689, 54.34912
656.6510, 59.31445
657.1331, 58.85107
657.6152, 44.92432
658.0974, 34.09473
658.5795, 46.69922
659.0616, 76.75781
659.5437, 97.33154
660.0258, 104.2788
660.5079, 103.6606
660.9901, 89.67920
661.4722, 74.13867
661.9543, 71.71875
662.4364, 81.21924
662.9185, 89.86475
663.4006, 89.22412
663.8828, 82.38721
664.3649, 75.51562
664.8470, 68.61719
665.3291, 60.73389
665.8112, 49.94238
666.2933, 42.63379
666.7755, 47.35889
667.2576, 59.58740
667.7397, 59.68555
668.2218, 40.14453
668.7039, 20.87012
669.1860, 3.946289
669.6682, 19.20508
670.1503, 7.371094
670.6324, 24.39453
671.1145, 56.90869
671.5966, 81.89111
672.0787, 95.71582
672.5609, 87.28418
673.0430, 60.61328
673.5251, 45.66650
674.0072, 46.64209
674.4893, 51.41650
674.9714, 54.33545
675.4536, 55.00000
675.9357, 51.94727
676.4178, 41.78223
676.8999, 35.34082
677.3820, 34.89258
677.8641, 36.19189
678.3463, 36.32324
678.8284, 36.90283
679.3105, 42.50195
679.7926, 54.54297
680.2747, 64.09814
680.7568, 60.76758
681.2390, 49.15771
681.7211, 40.63330
682.2032, 35.41797
682.6853, 25.81836
683.1674, 6.012695
683.6495, 11.05762
684.1317, 2.088379
684.6138, 42.19238
685.0959, 63.14990
685.5780, 36.18262
686.0601, 15.45312
686.5422, 19.88623
687.0244, 33.24707
687.5065, 39.32764
687.9886, 35.90088
688.4707, 28.53711
688.9528, 18.34277
689.4349, 7.394043
689.9171, 3.311035
690.3992, 12.79590
690.8813, 17.37549
691.3634, 16.16846
691.8455, 14.30127
692.3276, 18.04004
692.8098, 25.67432
693.2919, 20.05615
693.7740, 9.801270
694.2561, 28.37988
694.7382, 15.38037
695.2203, 1.551270
695.7025, 15.74023
696.1846, 48.23682
696.6667, 60.52539
697.1488, 25.74805
697.6309, 5.058594
698.1130, 2.042969
698.5952, 24.63916
699.0773, 37.26367
699.5594, 5.879883
700.0415, 43.21729
700.5236, 64.40234
701.0057, 69.81592
701.4879, 14.29883
701.9700, 37.98975
702.4521, 30.08301
702.9342, 20.88086
703.4163, 55.67285
703.8984, 9.400879
704.3806, 43.49805
704.8627, 45.51318
705.3448, 62.21387
705.8269, 47.12061
706.3090, 41.84814
706.7911, 68.38135
707.2733, 77.30566
707.7554, 58.55713
708.2375, 76.19629
708.7196, 28.82178
709.2017, 38.50146
709.6838, 72.79639
710.1660, 55.65039
710.6481, 73.87598
711.1302, 78.63330
711.6123, 22.16895
712.0944, 72.17578
712.5765, 76.13916
713.0587, 32.93848
713.5408, 79.51562
714.0229, 42.72363
714.5050, 35.61230
714.9871, 50.84082
715.4692, 42.78320
715.9514, 71.44141
716.4335, 64.73096
716.9156, 54.86230
717.3977, 58.78516
717.8798, 23.63037
718.3619, 61.36133
718.8441, 49.18506
719.3262, 61.62598
719.8083, 79.64697
720.2904, 54.94727
720.7725, 75.47852
721.2546, 25.86914
721.7368, 35.10254
722.2189, 37.87061
722.7010, 78.14697
723.1831, 28.88525
723.6652, 36.92090
724.1473, 68.85352
724.6295, 66.66943
725.1116, 78.61377
725.5937, 48.73486
726.0758, 58.14795
726.5579, 44.06152
727.0400, 68.66309
727.5222, 99.10107
728.0043, 123.1748
728.4864, 135.8066
728.9685, 126.6006
729.4506, 95.25537
729.9327, 63.73975
730.4149, 55.45557
730.8970, 59.79004
731.3791, 47.68604
731.8612, 22.25049
732.3433, 16.76660
732.8254, 43.60059
733.3076, 75.15967
733.7897, 82.78613
734.2718, 68.39746
734.7539, 57.33105
735.2360, 46.93604
735.7181, 44.45020
736.2003, 61.00586
736.6824, 75.82959
737.1645, 71.23486
737.6466, 54.72461
738.1287, 48.62354
738.6108, 63.35889
739.0930, 78.22852
739.5751, 80.17725
740.0572, 76.99658
740.5393, 79.58740
741.0214, 85.71973
741.5035, 81.53857
741.9857, 61.96533
742.4678, 43.48145
742.9499, 57.01172
743.4320, 98.82715
743.9141, 111.6431
744.3962, 87.77734
744.8784, 75.65820
745.3605, 101.3584
745.8426, 136.3984
746.3247, 139.8706
746.8068, 106.9678
747.2889, 87.28857
747.7711, 84.09375
748.2532, 87.96680
748.7353, 105.0742
749.2174, 122.9819
749.6995, 130.6479
750.1816, 127.8823
750.6638, 120.6992
751.1459, 113.0112
751.6280, 103.3867
752.1101, 82.85107
752.5922, 59.53662
753.0743, 50.62744
753.5565, 56.55859
754.0386, 65.36035
754.5207, 70.18799
755.0028, 72.68213
755.4849, 74.74902
755.9670, 76.52783
756.4492, 85.95801
756.9313, 111.6406
757.4134, 122.3403
757.8955, 90.61670
758.3776, 46.84766
758.8597, 42.96338
759.3419, 83.71289
759.8240, 107.2910
760.3061, 97.55420
760.7882, 83.31738
761.2703, 69.36133
761.7524, 60.28076
762.2346, 62.90527
762.7167, 75.60498
763.1988, 88.38477
763.6809, 97.64160
764.1630, 100.8354
764.6451, 90.37500
765.1273, 72.38916
765.6094, 64.84131
766.0915, 68.70898
766.5736, 64.56348
767.0557, 38.12256
767.5378, 7.051758
768.0200, 17.95117
768.5021, 84.47852
768.9842, 106.3892
769.4663, 61.34229
769.9484, 15.94678
770.4305, 5.207031
770.9127, 8.140625
771.3948, 2.583984
771.8769, 28.68164
772.3590, 44.74219
772.8411, 40.11133
773.3232, 34.15381
773.8054, 38.34033
774.2875, 42.28564
774.7696, 29.11963
775.2517, 2.778320
775.7338, 12.09766
776.2159, 2.348633
776.6981, 24.45605
777.1802, 31.67871
777.6623, 27.59180
778.1444, 16.86230
778.6265, 1.683594
779.1086, 6.444336
779.5908, 0.3369140
780.0729, 11.05566
780.5550, 7.165527
781.0371, 15.88623
781.5192, 10.79834
782.0013, 37.58154
782.4835, 73.33838
782.9656, 68.73584
783.4477, 47.44238
783.9298, 38.85547
784.4119, 43.22607
784.8940, 46.83398
785.3762, 50.52246
785.8583, 51.57812
786.3404, 46.87256
786.8225, 41.12842
787.3046, 39.28613
787.7867, 40.16895
788.2689, 36.68018
788.7510, 21.56104
789.2331, 15.50635
789.7152, 50.03711
790.1973, 98.08203
790.6794, 116.4863
791.1616, 106.1084
791.6437, 85.08936
792.1258, 60.04102
792.6079, 39.93311
793.0900, 42.11133
793.5721, 63.02832
794.0543, 63.36768
794.5364, 38.31250
795.0185, 24.07764
795.5006, 34.53271
795.9827, 51.79688
796.4648, 60.03271
796.9470, 59.56592
797.4291, 53.69385
797.9112, 36.92627
798.3933, 24.81055
798.8754, 15.64795
799.3575, 9.607910
799.8397, 9.622070
800.3218, 13.81299
800.8039, 16.66162
801.2860, 15.93457
801.7681, 21.19482
802.2502, 45.93701
802.7324, 70.23682
803.2145, 70.75586
803.6966, 59.05127
804.1787, 59.51270
804.6608, 77.27393
805.1429, 98.76807
805.6251, 114.5332
806.1072, 122.5391
806.5893, 111.7578
807.0714, 86.78223
807.5535, 85.21680
808.0356, 115.3774
808.5178, 133.6768
808.9999, 106.9478
809.4820, 58.17871
809.9641, 46.97998
810.4462, 87.67432
810.9283, 111.6450
811.4105, 105.7935
811.8926, 105.6245
812.3747, 128.9849
812.8568, 161.2583
813.3389, 188.0020
813.8210, 209.0869
814.3032, 223.1240
814.7853, 240.1948
815.2674, 236.9561
815.7495, 180.0059
816.2316, 119.1797
816.7137, 104.2100
817.1959, 126.8359
817.6780, 149.0830
818.1601, 156.3706
818.6422, 153.5107
819.1243, 137.1323
819.6064, 117.4888
820.0886, 115.2695
820.5707, 124.9814
821.0528, 121.3521
821.5349, 95.97803
822.0170, 68.62012
822.4991, 61.92432
822.9813, 70.79541
823.4634, 73.39160
823.9455, 69.42578
824.4276, 64.75586
824.9097, 59.55908
825.3918, 58.23145
825.8740, 65.24219
826.3561, 77.99316
826.8382, 87.00439
827.3203, 92.80811
827.8024, 93.39893
828.2845, 84.93555
828.7667, 75.74463
829.2488, 63.35986
829.7309, 55.32910
830.2130, 64.38135
830.6951, 90.95898
831.1772, 111.7124
831.6594, 121.2822
832.1415, 123.6943
832.6236, 120.4253
833.1057, 111.1089
833.5878, 92.18799
834.0699, 67.45410
834.5521, 42.01660
835.0342, 17.07666
835.5163, 1.892578
835.9984, 10.85645
836.4805, 31.92432
836.9626, 48.39111
837.4448, 58.84717
837.9269, 60.30225
838.4090, 52.31787
838.8911, 42.68945
839.3732, 41.52539
839.8553, 46.31592
840.3375, 46.79004
840.8196, 42.83984
841.3017, 38.95312
841.7838, 34.50684
842.2659, 38.47852
842.7480, 60.54980
843.2302, 90.69189
843.7123, 103.9502
844.1944, 98.24902
844.6765, 81.45605
845.1586, 38.99854
845.6407, 7.193848
846.1229, 0.8598630
846.6050, 9.010742
847.0871, 29.80127
847.5692, 60.25537
848.0513, 68.35254
848.5334, 24.56152
849.0156, 7.916016
849.4977, 6.441406
849.9798, 7.717285
850.4619, 19.88086
850.9440, 30.97852
851.4261, 49.80664
851.9083, 80.35449
852.3904, 99.70459
852.8725, 84.40088
853.3546, 57.67285
853.8367, 45.91260
854.3188, 41.70947
854.8010, 24.67725
855.2831, 5.000000
855.7652, 26.37646
856.2473, 23.03320
856.7294, 4.726563
857.2115, 15.43311
857.6937, 33.53223
858.1758, 33.56104
858.6579, 14.83203
859.1400, 1.175781
859.6221, 3.979004
860.1042, 14.56543
860.5864, 21.74268
861.0685, 25.37158
861.5506, 21.47314
862.0327, 7.176270
862.5148, 3.755371
862.9969, 9.736816
863.4791, 9.006836
863.9612, 3.001465
864.4433, 22.38525
864.9254, 35.09326
865.4075, 42.27734
865.8896, 40.27881
866.3718, 17.80078
866.8539, 1.3184000E-02
867.3360, 4.5898002E-02
867.8181, 6.330566
868.3002, 5.458008
868.7823, 2.898438
869.2645, 7.721191
869.7466, 5.326660
870.2287, 5.9082001E-02
870.7108, 7.983398
871.1929, 16.93408
871.6750, 26.15381
872.1572, 34.65820
872.6393, 40.31982
873.1214, 42.33154
873.6035, 44.07666
874.0856, 48.90430
874.5677, 54.01953
875.0499, 58.11133
875.5320, 59.51562
876.0141, 51.71777
876.4962, 36.02881
876.9783, 26.76416
877.4604, 35.07812
877.9426, 48.74805
878.4247, 43.22705
878.9068, 26.24658
879.3889, 31.21094
879.8710, 58.05713
880.3531, 77.63672
880.8353, 77.88770
881.3174, 70.63916
881.7995, 70.97021
882.2816, 75.84766
882.7637, 62.18945
883.2458, 25.73779
883.7280, 3.897461
884.2101, 5.505859
884.6922, 13.68750
885.1743, 18.86719
885.6564, 22.16943
886.1385, 26.07080
886.6207, 30.77441
887.1028, 35.22852
887.5849, 41.38477
888.0670, 44.01855
888.5491, 37.26904
889.0313, 30.41650
889.5134, 35.68604
889.9955, 48.61426
890.4776, 48.01855
890.9597, 18.23291
891.4418, 0.7958980
891.9240, 11.34180
892.4061, 24.59912
892.8882, 26.08691
893.3703, 22.69580
893.8524, 26.52734
894.3345, 38.22217
894.8167, 44.63477
895.2988, 32.50830
895.7809, 23.49512
896.2630, 35.50000
896.7451, 51.56396
897.2272, 51.06104
897.7094, 39.34277
898.1915, 35.27881
898.6736, 45.98145
899.1557, 57.47559
899.6378, 57.34326
900.1199, 54.06494
900.6021, 60.87646
901.0842, 71.88086
901.5663, 71.46777
902.0484, 59.56885
902.5305, 52.21533
903.0126, 59.87793
903.4948, 73.84863
903.9769, 84.40283
904.4590, 90.58545
904.9411, 84.73828
905.4232, 68.90088
905.9053, 60.85547
906.3875, 66.31836
906.8696, 72.54102
907.3517, 68.19336
907.8338, 57.77002
908.3159, 53.80029
908.7980, 57.78613
909.2802, 65.13037
909.7623, 78.28418
910.2444, 74.01172
910.7265, 35.03369
911.2086, 8.842773
911.6907, 11.13525
912.1729, 27.38379
912.6550, 41.61865
913.1371, 22.47461
913.6192, 4.024902
914.1013, 9.460449
914.5834, 12.12549
915.0656, 4.232422
915.5477, 29.09131
916.0298, 39.02197
916.5119, 28.91602
916.9940, 22.29004
917.4761, 21.42578
917.9583, 22.67822
918.4404, 30.09619
918.9225, 34.85352
919.4046, 23.64111
919.8867, 3.326172
920.3688, 0.7299800
920.8510, 31.37939
921.3331, 50.34570
921.8152, 41.55957
922.2973, 31.80273
922.7794, 31.81396
923.2615, 38.54492
923.7437, 52.08301
924.2258, 69.73486
924.7079, 76.61768
925.1900, 63.01514
925.6721, 48.06982
926.1542, 35.20898
926.6364, 27.16846
927.1185, 29.97803
927.6006, 38.61133
928.0827, 42.17822
928.5648, 39.35303
929.0469, 42.14502
929.5291, 64.08008
930.0112, 87.05176
930.4933, 101.2617
930.9754, 106.2720
931.4575, 97.05029
931.9396, 78.63232
932.4218, 62.14600
932.9039, 51.94629
933.3860, 50.84424
933.8681, 73.49121
934.3502, 97.60986
934.8323, 84.86084
935.3145, 54.72266
935.7966, 52.72559
936.2787, 78.41602
936.7608, 93.23926
937.2429, 76.04980
937.7250, 52.27637
938.2072, 53.84424
938.6893, 71.52881
939.1714, 85.26855
939.6535, 95.68750
940.1356, 110.5249
940.6177, 129.9458
941.0999, 136.6782
941.5820, 116.7573
942.0641, 85.93115
942.5462, 72.54932
943.0283, 73.31836
943.5104, 71.91016
943.9926, 67.83984
944.4747, 64.23535
944.9568, 62.07568
945.4389, 60.13281
945.9210, 57.78271
946.4031, 53.74072
946.8853, 41.29443
947.3674, 20.53955
947.8495, 14.75781
948.3316, 26.79932
948.8137, 37.97559
949.2958, 41.01074
949.7780, 39.17188
950.2601, 33.82812
950.7422, 26.93018
951.2243, 30.76270
951.7064, 47.89453
952.1885, 58.90918
952.6707, 61.32031
953.1528, 60.03369
953.6349, 57.60352
954.1170, 51.66113
954.5991, 37.27490
955.0812, 15.28955
955.5634, 1.752930
956.0455, 5.955078
956.5276, 6.124512
957.0097, 55.86475
957.4918, 91.19092
957.9739, 76.41357
958.4561, 38.98682
958.9382, 23.39453
959.4203, 31.13672
959.9024, 39.41211
960.3845, 53.63477
960.8666, 56.93164
961.3488, 37.86621
961.8309, 19.75146
962.3130, 19.76611
962.7951, 28.73584
963.2772, 27.20752
963.7593, 11.26123
964.2415, 5.981445
964.7236, 28.33057
965.2057, 36.67725
965.6878, 3.120605
966.1699, 26.12451
966.6520, 11.44482
967.1342, 26.93799
967.6163, 40.93896
968.0984, 21.25000
968.5805, 10.27441
969.0626, 16.12158
969.5447, 21.59229
970.0269, 23.73877
970.5090, 23.68066
970.9911, 23.42236
971.4732, 23.09814
971.9553, 20.71924
972.4374, 16.70605
972.9196, 12.25537
973.4017, 4.282715
973.8838, 8.385742
974.3659, 16.85107
974.8480, 51.25049
975.3301, 88.15869
975.8123, 118.9302
976.2944, 114.2812
976.7765, 52.28076
977.2586, 11.22705
977.7407, 22.19678
978.2228, 40.77539
978.7050, 52.92334
979.1871, 60.33496
979.6692, 56.95557
980.1513, 49.01562
980.6334, 61.77148
981.1155, 113.9858
981.5977, 144.3613
982.0798, 114.4180
982.5619, 81.98535
983.0440, 79.11914
983.5261, 87.36182
984.0082, 87.77393
984.4904, 79.05469
984.9725, 64.53906
985.4546, 40.60645
985.9367, 4.869141
986.4188, 32.07031
986.9009, 52.85938
987.3831, 58.36523
987.8652, 2.808594
988.3473, 26.10449
988.8294, 17.80127
989.3115, 8.202637
989.7936, 42.60010
990.2758, 4.069336
990.7579, 29.62939
991.2400, 31.24805
991.7221, 47.55127
992.2042, 32.54883
992.6863, 27.52881
993.1685, 53.66650
993.6506, 62.19482
994.1327, 43.04932
994.6148, 60.29346
995.0969, 12.52441
995.5790, 21.80762
996.0612, 55.70752
996.5433, 38.16846
997.0254, 56.00146
997.5075, 60.36377
997.9896, 3.506836
998.4717, 26.56299
998.9539, 34.01807
999.4360, 67.13086
999.9181, 94.72900
1000.400, 83.68701
1000.882, 61.32861
1001.364, 66.93799
1001.847, 97.42432
1002.329, 118.5078
1002.811, 115.8276
1003.293, 110.7788
1003.775, 110.8667
1004.257, 114.7993
1004.739, 123.3403
1005.221, 134.1396
1005.703, 148.0957
1006.186, 161.8198
1006.668, 163.4805
1007.150, 145.2690
1007.632, 128.0190
1008.114, 124.3989
1008.596, 121.3525
1009.078, 108.2192
1009.560, 94.88916
1010.043, 94.29785
1010.525, 104.0835
1011.007, 110.5562
1011.489, 109.5474
1011.971, 107.6606
1012.453, 112.3149
1012.935, 112.6035
1013.417, 97.99170
1013.899, 77.56494
1014.382, 59.14502
1014.864, 45.43750
1015.346, 43.15918
1015.828, 58.49512
1016.310, 66.43604
1016.792, 46.99609
1017.274, 29.95654
1017.756, 38.07129
1018.239, 51.56201
1018.721, 45.65967
1019.203, 26.97070
1019.685, 21.06641
1020.167, 36.03613
1020.649, 52.54102
1021.131, 70.81836
1021.613, 81.21436
1022.095, 74.35156
1022.578, 61.87744
1023.060, 50.77783
1023.542, 43.76514
1024.024, 45.29932
1024.506, 61.28809
1024.988, 71.79688
1025.470, 74.32373
1025.952, 65.67578
1026.435, 30.81494
1026.917, 3.017090
1027.399, 17.08838
1027.881, 12.35986
1028.363, 13.43164
1028.845, 66.22266
1029.327, 89.77979
1029.809, 42.26514
1030.292, 8.267578
1030.774, 25.80957
1031.256, 48.38086
1031.738, 42.94141
1032.220, 21.62402
1032.702, 3.819824
1033.184, 9.596191
1033.666, 10.78271
1034.148, 15.66797
1034.630, 33.00391
1035.113, 32.77783
1035.595, 24.73486
1036.077, 4.412109
1036.559, 15.27539
1037.041, 11.34033
1037.523, 17.40723
1038.005, 34.79785
1038.487, 34.37988
1038.970, 32.41504
1039.452, 24.25049
1039.934, 22.15039
1040.416, 37.97266
1040.898, 57.07812
1041.380, 61.06006
1041.862, 51.30859
1042.344, 43.20068
1042.826, 37.46973
1043.309, 31.29932
1043.791, 18.87012
1044.273, 17.44727
1044.755, 41.13623
1045.237, 66.50098
1045.719, 68.94727
1046.201, 53.05811
1046.683, 39.20508
1047.166, 24.96777
1047.648, 23.00293
1048.130, 41.51953
1048.612, 45.71777
1049.094, 18.13477
1049.576, 10.14941
1050.058, 13.27881
1050.540, 2.900879
1051.022, 25.51416
1051.505, 56.73877
1051.987, 71.77197
1052.469, 69.01953
1052.951, 56.39795
1053.433, 32.36475
1053.915, 18.86328
1054.397, 33.09912
1054.879, 58.40283
1055.361, 63.88184
1055.844, 51.15723
1056.326, 36.32568
1056.808, 19.37012
1057.290, 20.40869
1057.772, 43.09424
1058.254, 63.49316
1058.736, 69.39111
1059.218, 62.47266
1059.701, 39.15527
1060.183, 9.559082
1060.665, 14.70654
1061.147, 46.52832
1061.629, 59.80811
1062.111, 51.22363
1062.593, 39.27197
1063.075, 31.36475
1063.557, 25.72803
1064.040, 22.28418
1064.522, 16.89844
1065.004, 8.445801
1065.486, 37.94336
1065.968, 23.75195
1066.450, 23.21338
1066.932, 58.13281
1067.414, 67.83496
1067.896, 55.73779
1068.379, 17.99854
1068.861, 17.11035
1069.343, 10.84912
1069.825, 12.64209
1070.307, 20.25928
1070.789, 18.34473
1071.271, 22.68750
1071.753, 34.93262
1072.236, 49.22607
1072.718, 64.11572
1073.200, 72.33301
1073.682, 67.23193
1074.164, 54.83594
1074.646, 28.36719
1075.128, 6.145508
1075.610, 13.89648
1076.093, 44.76660
1076.575, 78.53027
1077.057, 110.4136
1077.539, 128.1860
1078.021, 116.9404
1078.503, 102.9863
1078.985, 91.72607
1079.467, 88.73486
1079.949, 109.9551
1080.432, 136.5366
1080.914, 132.7227
1081.396, 96.72607
1081.878, 74.48535
1082.360, 84.66895
1082.842, 92.94531
1083.324, 91.37109
1083.806, 90.22900
1084.288, 100.2783
1084.771, 108.2139
1085.253, 94.05420
1085.735, 64.84521
1086.217, 51.14648
1086.699, 59.43018
1087.181, 63.02197
1087.663, 55.08643
1088.145, 57.96924
1088.628, 87.86572
1089.110, 109.0146
1089.592, 86.84277
1090.074, 48.58887
1090.556, 58.14941
1091.038, 117.8140
1091.520, 141.3184
1092.002, 123.3003
1092.484, 106.3955
1092.967, 97.65479
1093.449, 87.60547
1093.931, 69.73975
1094.413, 57.19971
1094.895, 71.95557
1095.377, 104.0854
1095.859, 112.6162
1096.341, 101.0889
1096.823, 98.77393
1097.306, 106.4058
1097.788, 104.7031
1098.270, 88.05615
1098.752, 69.05420
1099.234, 56.04248
1099.716, 53.35596
1100.198, 72.83398
1100.680, 104.7012
1101.163, 133.1421
1101.645, 155.7212
1102.127, 171.9497
1102.609, 178.9878
1103.091, 164.3145
1103.573, 121.0186
1104.055, 75.19189
1104.537, 37.86768
1105.020, 19.22412
1105.502, 42.80371
1105.984, 79.87305
1106.466, 96.66309
1106.948, 97.19531
1107.430, 95.59326
1107.912, 96.94824
1108.394, 104.6084
1108.876, 121.8633
1109.359, 139.1426
1109.841, 157.9307
1110.323, 170.2568
1110.805, 159.5366
1111.287, 147.6064
1111.769, 170.3311
1112.251, 218.6909
1112.733, 236.8564
1113.215, 199.4487
1113.698, 182.7646
1114.180, 195.7358
1114.662, 219.6294
1115.144, 265.1045
1115.626, 298.4565
1116.108, 286.8027
1116.590, 258.8975
1117.072, 270.6230
1117.555, 322.2632
1118.037, 362.7119
1118.519, 390.5742
1119.001, 414.5171
1119.483, 435.0688
1119.965, 454.9463
1120.447, 475.4214
1120.929, 494.6812
1121.411, 510.5645
1121.894, 524.2515
1122.376, 540.1299
1122.858, 556.1230
1123.340, 560.8096
1123.822, 556.6201
1124.304, 558.1968
1124.786, 567.4932
1125.268, 585.8550
1125.750, 615.2861
1126.233, 634.0176
1126.715, 604.1719
1127.197, 554.0479
1127.679, 518.5908
1128.161, 494.4673
1128.643, 479.6548
1129.125, 470.5288
1129.607, 464.5366
1130.090, 458.8989
1130.572, 435.1470
1131.054, 362.3057
1131.536, 307.7837
1132.018, 326.3062
1132.500, 352.9849
1132.982, 344.8750
1133.464, 319.0366
1133.947, 291.4302
1134.429, 266.4883
1134.911, 257.7749
1135.393, 279.6377
1135.875, 273.8105
1136.357, 203.9053
1136.839, 153.6865
1137.321, 147.0747
1137.803, 149.0640
1138.286, 141.4507
1138.768, 128.9668
1139.250, 117.5166
1139.732, 107.6216
1140.214, 105.3257
1140.696, 112.3994
1141.178, 113.8145
1141.660, 105.0117
1142.142, 97.42285
1142.625, 94.37842
1143.107, 90.56055
1143.589, 81.04199
1144.071, 72.52002
1144.553, 82.44336
1145.035, 100.9141
1145.517, 93.54248
1145.999, 69.12891
1146.482, 54.08838
1146.964, 51.42676
1147.446, 55.45508
1147.928, 63.59912
1148.410, 72.05908
1148.892, 78.39990
1149.374, 83.30859
1149.856, 89.93115
1150.339, 92.90527
1150.821, 85.23145
1151.303, 71.22656
1151.785, 50.70654
1152.267, 29.99658
1152.749, 32.96533
1153.231, 74.65088
1153.713, 102.7539
1154.195, 97.36182
1154.677, 88.22949
1155.160, 84.99023
1155.642, 79.45898
1156.124, 62.00879
1156.606, 43.06934
1157.088, 40.06787
1157.570, 50.92920
1158.052, 48.92236
1158.534, 28.09521
1159.017, 24.78369
1159.499, 45.80225
1159.981, 50.14355
1160.463, 22.30566
1160.945, 5.394043
1161.427, 33.46973
1161.909, 75.68506
1162.391, 74.16309
1162.874, 46.36426
1163.356, 61.94043
1163.838, 100.3662
1164.320, 85.53906
1164.802, 25.01367
1165.284, 16.75928
1165.766, 19.55664
1166.248, 6.536621
1166.730, 11.67725
1167.213, 28.14600
1167.695, 35.76074
1168.177, 40.53564
1168.659, 50.41748
1169.141, 58.71680
1169.623, 55.60596
1170.105, 43.46631
1170.587, 30.05420
1171.069, 15.81494
1171.552, 8.775391
1172.034, 16.02051
1172.516, 20.87402
1172.998, 19.49414
1173.480, 18.11328
1173.962, 18.75391
1174.444, 21.89941
1174.926, 29.65820
1175.409, 39.07910
1175.891, 38.23682
1176.373, 25.84033
1176.855, 22.45801
1177.337, 28.30127
1177.819, 34.04541
1178.301, 37.91748
1178.783, 42.14453
1179.266, 47.88916
1179.748, 44.80420
1180.230, 14.67334
1180.712, 17.05078
1181.194, 2.467285
1181.676, 41.77832
1182.158, 47.75146
1182.640, 29.21191
1183.122, 3.416016
1183.604, 19.63965
1184.087, 18.12207
1184.569, 19.81689
1185.051, 52.25000
1185.533, 58.28320
1186.015, 57.12598
1186.497, 51.77148
1186.979, 47.54688
1187.461, 51.97461
1187.944, 57.08496
1188.426, 50.55664
1188.908, 34.23096
1189.390, 19.44678
1189.872, 5.104492
1190.354, 4.392578
1190.836, 9.833008
1191.318, 6.483887
1191.801, 7.287598
1192.283, 28.02393
1192.765, 55.32568
1193.247, 75.41553
1193.729, 68.05518
1194.211, 45.48926
1194.693, 31.93213
1195.175, 29.56592
1195.657, 54.66309
1196.140, 93.85645
1196.622, 110.2129
1197.104, 98.01270
1197.586, 65.60010
1198.068, 8.825195
1198.550, 18.15137
1199.032, 45.79053
1199.514, 101.6216
1199.996, 78.45557
1200.479, 40.34326
1200.961, 38.69336
1201.443, 54.52393
1201.925, 55.46680
1202.407, 42.43896
1202.889, 36.22168
1203.371, 36.87695
1203.853, 46.74414
1204.336, 74.70215
1204.818, 79.48926
1205.300, 46.19336
1205.782, 17.71484
1206.264, 24.30078
1206.746, 44.08887
1207.228, 49.42285
1207.710, 54.02588
1208.193, 51.37158
1208.675, 45.41162
1209.157, 50.65771
1209.639, 62.25439
1210.121, 64.81494
1210.603, 52.79395
1211.085, 36.47168
1211.567, 17.41309
1212.049, 5.014160
1212.531, 9.405273
1213.014, 17.86133
1213.496, 29.50635
1213.978, 36.37207
1214.460, 22.51318
1214.942, 9.635742
1215.424, 6.203613
1215.906, 11.33154
1216.388, 21.18555
1216.871, 38.89795
1217.353, 39.33545
1217.835, 15.35107
1218.317, 6.806641
1218.799, 22.24414
1219.281, 30.44092
1219.763, 17.46094
1220.245, 5.416016
1220.728, 15.68896
1221.210, 34.80225
1221.692, 38.95752
1222.174, 36.17432
1222.656, 48.35010
1223.138, 64.04199
1223.620, 52.75293
1224.102, 24.40967
1224.584, 18.59619
1225.067, 43.68945
1225.549, 64.32568
1226.031, 62.27393
1226.513, 60.78076
1226.995, 79.52783
1227.477, 85.09619
1227.959, 43.99805
1228.441, 4.024902
1228.923, 0.3286130
1229.406, 15.71191
1229.888, 0.0000000E+00
##END=



