##NAMES=Bayldonite
##RRUFFID=R050670
##IDEAL CHEMISTRY=Cu^2+^_3_Pb^2+^O(As^5+^O_3_OH)_2_(OH)_2_
##LOCALITY=Tsumeb mine, Tsumeb, Otavi District, Oshikoto, Namibia
##OWNER=RRUFF
##SOURCE=University of Arizona Mineral Museum
##DESCRIPTION=Green botryoidal coating asociated with olivenite R050670, malachite balls and azurite
##STATUS=The identification of this mineral has been confirmed by X-ray diffraction and chemical analysis
##URL=rruff.info/R050670
##MEASURED CHEMISTRY=Pb_1.00_Cu_3.00_O(As_1.00_O_3_OH)_2_(OH)_2_
149.3972, 0.0000000E+00
149.8793, 3.5900001E-03
150.3615, 0.2625430
150.8436, 0.5749210
151.3257, 0.8946720
151.8078, 1.173916
152.2899, 1.185020
152.7720, 0.7410350
153.2542, 0.3022380
153.7363, 0.1326710
154.2184, 0.2024310
154.7005, 0.2150460
155.1826, 0.2007870
155.6647, 0.1753230
156.1469, 0.1968770
156.6290, 0.4008290
157.1111, 0.5244480
157.5932, 0.3782500
158.0753, 6.9049999E-02
158.5574, 2.3281001E-02
159.0396, 0.1114540
159.5217, 0.5272900
160.0038, 0.8840600
160.4859, 1.284500
160.9680, 1.547249
161.4501, 1.477299
161.9323, 1.143917
162.4144, 0.8619270
162.8965, 0.9728470
163.3786, 1.629246
163.8607, 1.883553
164.3428, 1.333317
164.8250, 0.7283520
165.3071, 0.7703320
165.7892, 1.570992
166.2713, 2.364140
166.7534, 2.145985
167.2355, 0.7343520
167.7177, 0.1316070
168.1998, 7.0675001E-02
168.6819, 0.7867470
169.1640, 1.309135
169.6461, 1.500881
170.1282, 1.548218
170.6104, 1.696556
171.0925, 1.936371
171.5746, 2.063087
172.0567, 1.920372
172.5388, 1.625523
173.0209, 1.455284
173.5031, 1.509903
173.9852, 1.614769
174.4673, 1.675648
174.9494, 1.861172
175.4315, 1.958965
175.9136, 1.808601
176.3958, 1.613155
176.8779, 1.549908
177.3600, 1.877377
177.8421, 2.159878
178.3242, 2.095676
178.8063, 1.707676
179.2885, 1.238632
179.7706, 1.061497
180.2527, 1.283840
180.7348, 1.335854
181.2169, 0.9595640
181.6990, 0.5682450
182.1812, 0.4016840
182.6633, 0.5033300
183.1454, 0.7488170
183.6275, 0.9847030
184.1096, 1.175838
184.5917, 1.280941
185.0738, 1.195393
185.5560, 1.133793
186.0381, 1.303688
186.5202, 1.740482
187.0023, 2.257683
187.4844, 2.550713
187.9665, 2.550907
188.4487, 2.369057
188.9308, 1.807835
189.4129, 1.176926
189.8950, 0.7637860
190.3771, 0.6647680
190.8592, 0.7740250
191.3414, 0.9042630
191.8235, 1.087914
192.3056, 1.229874
192.7877, 1.372135
193.2698, 1.452568
193.7519, 1.349770
194.2341, 0.9951480
194.7162, 0.5337140
195.1983, 0.2658920
195.6804, 0.1986310
196.1625, 0.2023580
196.6446, 0.2785450
197.1268, 0.3977470
197.6089, 0.5162960
198.0910, 0.6625670
198.5731, 0.7258220
199.0552, 0.4846840
199.5373, 0.1299710
200.0195, 0.6498910
200.5016, 0.8489490
200.9837, 0.7444800
201.4658, 0.4072420
201.9479, 0.3157540
202.4300, 1.092644
202.9122, 1.576027
203.3943, 1.751820
203.8764, 1.703686
204.3585, 1.395081
204.8406, 0.8461950
205.3227, 0.4259030
205.8048, 0.4002380
206.2870, 0.4786870
206.7691, 0.4323010
207.2512, 0.2653580
207.7333, 0.1202890
208.2154, 0.2579310
208.6975, 0.7632830
209.1797, 1.060123
209.6618, 0.8102840
210.1439, 0.4774250
210.6260, 0.2973980
211.1081, 0.3165890
211.5902, 0.4539990
212.0724, 0.6017150
212.5545, 0.7328490
213.0366, 0.9391560
213.5187, 1.431301
214.0008, 1.857811
214.4829, 1.996517
214.9651, 1.795525
215.4472, 1.392616
215.9293, 1.039314
216.4114, 0.7433430
216.8935, 0.5401570
217.3756, 0.2613370
217.8578, 0.1644400
218.3399, 0.5780450
218.8220, 1.500580
219.3041, 2.511265
219.7862, 2.949150
220.2683, 2.364799
220.7505, 2.052921
221.2326, 2.241959
221.7147, 2.528961
222.1968, 2.581497
222.6789, 2.325840
223.1610, 1.951046
223.6432, 1.736961
224.1253, 1.785290
224.6074, 1.799393
225.0895, 1.635460
225.5716, 1.496891
226.0537, 1.641487
226.5358, 2.113010
227.0180, 2.744335
227.5001, 3.349457
227.9822, 3.996151
228.4643, 4.341545
228.9464, 4.163082
229.4285, 3.764660
229.9107, 3.449745
230.3928, 3.285625
230.8749, 3.196903
231.3570, 3.073093
231.8391, 2.898104
232.3212, 2.870705
232.8034, 3.112188
233.2855, 3.478365
233.7676, 3.850574
234.2497, 4.234390
234.7318, 4.464333
235.2139, 4.213120
235.6961, 3.548346
236.1782, 3.018623
236.6603, 2.801746
237.1424, 2.788084
237.6245, 2.832874
238.1066, 2.936131
238.5888, 3.043781
239.0709, 3.046520
239.5530, 2.989876
240.0351, 3.057640
240.5172, 3.553783
240.9993, 4.172668
241.4815, 4.206404
241.9636, 3.360411
242.4457, 2.590048
242.9278, 2.806543
243.4099, 3.616928
243.8920, 4.223106
244.3742, 4.215494
244.8563, 3.787748
245.3384, 3.331526
245.8205, 2.770052
246.3026, 2.365341
246.7847, 2.328253
247.2668, 2.517496
247.7490, 2.729031
248.2311, 2.900055
248.7132, 3.023771
249.1953, 3.080360
249.6774, 3.064438
250.1595, 2.983580
250.6417, 2.859026
251.1238, 2.678366
251.6059, 2.391672
252.0880, 1.917974
252.5701, 1.393480
253.0522, 1.203686
253.5344, 1.578497
254.0165, 1.850485
254.4986, 0.9743021
254.9807, 1.840607
255.4628, 2.308123
255.9449, 2.398280
256.4271, 0.9808335
256.9092, 1.510139
257.3913, 1.259281
257.8734, 0.9764283
258.3555, 1.779733
258.8376, 0.5815725
259.3198, 1.367641
259.8019, 1.361645
260.2840, 1.718164
260.7661, 1.289695
261.2482, 1.103686
261.7303, 1.702913
262.2125, 1.867338
262.6946, 1.348504
263.1767, 1.728066
263.6588, 0.5024817
264.1409, 0.6854361
264.6230, 0.7158180
265.1052, 1.146702
265.5873, 1.287025
266.0694, 0.8222080
266.5515, 0.2977910
267.0336, 0.1793820
267.5157, 0.5374910
267.9979, 1.024536
268.4800, 1.087234
268.9621, 0.3583870
269.4442, 2.3824999E-02
269.9263, 0.4649750
270.4084, 0.9408650
270.8906, 0.8710860
271.3727, 0.2386630
271.8548, 0.4770370
272.3369, 0.6929110
272.8190, 0.2770480
273.3011, 0.2343960
273.7833, 1.230173
274.2654, 1.988720
274.7475, 1.848602
275.2296, 0.9545710
275.7117, 0.1218740
276.1938, 0.2210540
276.6760, 1.480589
277.1581, 2.253109
277.6402, 2.429008
278.1223, 2.344780
278.6044, 1.955076
279.0865, 1.401625
279.5686, 1.049389
280.0508, 1.235655
280.5329, 1.978382
281.0150, 2.358690
281.4971, 2.126034
281.9792, 1.866518
282.4613, 1.750994
282.9435, 1.779064
283.4256, 1.948263
283.9077, 2.293945
284.3898, 2.763533
284.8719, 2.839758
285.3540, 2.006140
285.8362, 1.418638
286.3183, 1.606491
286.8004, 1.495863
287.2825, 2.466824
287.7646, 3.038997
288.2467, 3.233814
288.7289, 1.921048
289.2110, 2.555012
289.6931, 2.408812
290.1752, 2.230617
290.6573, 3.138577
291.1394, 2.045075
291.6216, 2.935825
292.1037, 3.034487
292.5858, 3.495661
293.0679, 3.171854
293.5500, 3.090500
294.0321, 3.794386
294.5143, 4.063491
294.9964, 3.649315
295.4785, 4.133533
295.9606, 3.012609
296.4427, 3.300218
296.9248, 4.195551
297.4070, 3.830135
297.8891, 4.099428
298.3712, 4.280830
298.8533, 4.303505
299.3354, 4.176155
299.8175, 4.072746
300.2997, 4.211842
300.7818, 4.671217
301.2639, 4.897827
301.7460, 4.788925
302.2281, 4.537516
302.7102, 4.156647
303.1924, 3.693348
303.6745, 3.432940
304.1566, 3.694294
304.6387, 4.451979
305.1208, 4.930830
305.6029, 4.999559
306.0851, 4.950428
306.5672, 4.870281
307.0493, 4.782681
307.5314, 4.731966
308.0135, 4.734119
308.4956, 4.802179
308.9778, 4.992832
309.4599, 5.564701
309.9420, 5.920359
310.4241, 5.643066
310.9062, 5.035677
311.3883, 4.734995
311.8705, 5.044790
312.3526, 5.653675
312.8347, 5.846762
313.3168, 5.459225
313.7989, 5.129513
314.2810, 5.024460
314.7632, 5.034365
315.2453, 5.037216
315.7274, 5.020668
316.2095, 4.951147
316.6916, 4.723877
317.1737, 4.226053
317.6559, 3.867670
318.1380, 3.721073
318.6201, 3.750378
319.1022, 3.990122
319.5843, 4.431574
320.0664, 4.843067
320.5485, 5.007103
321.0306, 4.901695
321.5128, 4.799648
321.9949, 4.784145
322.4770, 4.703943
322.9591, 4.308355
323.4412, 3.697481
323.9233, 3.351168
324.4055, 2.903097
324.8876, 3.759731
325.3697, 4.217579
325.8518, 4.298064
326.3339, 2.870958
326.8160, 3.390594
327.2982, 3.130055
327.7803, 2.837533
328.2624, 3.631167
328.7445, 2.423333
329.2266, 3.199743
329.7087, 3.184076
330.1909, 3.530915
330.6730, 3.092774
331.1551, 3.491919
331.6372, 3.610155
332.1193, 2.317529
332.6014, 3.160430
333.0836, 3.604535
333.5657, 3.671288
334.0478, 2.230451
334.5299, 2.736355
335.0120, 2.462096
335.4941, 2.155842
335.9763, 2.935733
336.4584, 1.714168
336.9405, 2.476848
337.4226, 2.447450
337.9047, 2.780569
338.3868, 1.920429
338.8690, 1.626551
339.3511, 1.496239
339.8332, 1.493422
340.3153, 1.494089
340.7974, 1.419863
341.2795, 1.283569
341.7617, 1.168011
342.2438, 0.8702390
342.7259, 0.8210720
343.2080, 1.470634
343.6901, 2.345110
344.1722, 2.646910
344.6544, 2.034208
345.1365, 0.9627530
345.6186, 0.3799270
346.1007, 0.7414400
346.5828, 0.9320490
347.0649, 0.7833160
347.5471, 0.5533080
348.0292, 0.4689580
348.5113, 0.5726550
348.9934, 0.7740100
349.4755, 0.9878750
349.9576, 1.262550
350.4398, 1.323328
350.9219, 0.9126010
351.4040, 0.5519390
351.8861, 0.6323620
352.3682, 1.031710
352.8503, 1.303547
353.3325, 1.080032
353.8146, 0.4077720
354.2967, 2.2776000E-02
354.7788, 0.2503850
355.2609, 0.3925460
355.7430, 0.1944330
356.2252, 0.1489320
356.7073, 0.3485970
357.1894, 0.2657300
357.6715, 3.7440001E-03
358.1536, 0.2319870
358.6357, 0.5303380
359.1179, 0.5934330
359.5999, 0.1238440
360.0821, 0.3846380
360.5642, 0.4847220
361.0463, 0.1138060
361.5284, 0.4200940
362.0105, 0.7161850
362.4926, 0.6660020
362.9748, 0.8037510
363.4569, 1.490267
363.9390, 2.014767
364.4211, 1.984213
364.9032, 1.513134
365.3853, 0.9457400
365.8675, 0.5087830
366.3496, 0.2111230
366.8317, 0.1546590
367.3138, 0.6283070
367.7959, 0.9811800
368.2780, 1.015882
368.7602, 0.8754620
369.2423, 0.7231250
369.7244, 0.6272260
370.2065, 0.5840950
370.6886, 0.6182140
371.1707, 0.8260880
371.6529, 0.8585660
372.1350, 0.5164970
372.6171, 0.1035120
373.0992, 0.2909050
373.5813, 0.6045880
374.0634, 0.6608580
374.5456, 3.6423001E-02
375.0277, 1.332441
375.5098, 1.951204
375.9919, 1.136677
376.4740, 0.2442720
376.9561, 0.1390710
377.4383, 0.1136000
377.9204, 5.3796999E-02
378.4025, 0.2548350
378.8846, 0.4680560
379.3667, 0.6427500
379.8488, 0.7929020
380.3310, 0.8678610
380.8131, 0.8072050
381.2952, 0.6864340
381.7773, 0.5682510
382.2594, 0.4627550
382.7415, 0.3887710
383.2237, 0.3776740
383.7058, 0.4293500
384.1879, 0.4812070
384.6700, 0.5023630
385.1521, 0.5391250
385.6342, 0.6555330
386.1164, 0.8427120
386.5985, 0.9864710
387.0806, 0.9724750
387.5627, 0.8768600
388.0448, 0.8929500
388.5269, 1.076502
389.0091, 1.247536
389.4912, 1.225075
389.9733, 1.090572
390.4554, 1.029547
390.9375, 1.231920
391.4196, 1.381100
391.9018, 1.008579
392.3839, 0.1973650
392.8660, 0.2425580
393.3481, 0.1602730
393.8302, 1.027630
394.3123, 1.688593
394.7945, 2.162533
395.2766, 2.420919
395.7587, 2.333727
396.2408, 2.051826
396.7229, 1.848715
397.2050, 1.792345
397.6872, 1.717146
398.1693, 1.359537
398.6514, 0.6787780
399.1335, 0.3970870
399.6156, 0.9725890
400.0977, 1.614941
400.5798, 1.736179
401.0620, 1.414351
401.5441, 1.048487
402.0262, 0.8641410
402.5083, 0.8487570
402.9904, 0.9594480
403.4725, 1.313702
403.9547, 1.630135
404.4368, 1.927387
404.9189, 2.126606
405.4010, 2.125725
405.8831, 1.907600
406.3652, 1.556679
406.8474, 1.168333
407.3295, 0.6381170
407.8116, 0.4091000
408.2937, 0.7343670
408.7758, 1.099789
409.2579, 1.192205
409.7401, 1.057709
410.2222, 0.9245430
410.7043, 0.9573780
411.1864, 1.140568
411.6685, 1.335222
412.1506, 1.650463
412.6328, 1.837400
413.1149, 1.705442
413.5970, 1.495655
414.0791, 1.527414
414.5612, 1.896915
415.0433, 2.334242
415.5255, 2.354959
416.0076, 1.774790
416.4897, 1.353930
416.9718, 1.214945
417.4539, 1.179476
417.9360, 1.242588
418.4182, 1.354361
418.9003, 1.357992
419.3824, 1.019999
419.8645, 0.4528260
420.3466, 0.2075040
420.8287, 0.4100950
421.3109, 0.6818030
421.7930, 0.8810230
422.2751, 1.056425
422.7572, 1.255630
423.2393, 1.488344
423.7214, 1.758879
424.2036, 2.152594
424.6857, 2.656590
425.1678, 2.911377
425.6499, 2.716671
426.1320, 2.388762
426.6141, 2.201174
427.0963, 2.144617
427.5784, 2.158306
428.0605, 2.341112
428.5426, 2.529808
429.0247, 2.393616
429.5068, 1.890574
429.9890, 1.463381
430.4711, 1.388592
430.9532, 1.595860
431.4353, 1.857407
431.9174, 2.410234
432.3995, 2.746300
432.8817, 2.343643
433.3638, 1.507399
433.8459, 0.8977660
434.3280, 0.7279570
434.8101, 0.7691330
435.2922, 0.7470550
435.7744, 0.6577680
436.2565, 0.5314460
436.7386, 0.1836890
437.2207, 5.9608001E-02
437.7028, 0.1644440
438.1849, 0.7443520
438.6671, 1.207682
439.1492, 1.226303
439.6313, 0.8754960
440.1134, 0.5969750
440.5955, 0.3474010
441.0776, 0.2281780
441.5598, 0.3580570
442.0418, 0.5706880
442.5240, 0.7185670
443.0061, 0.7548070
443.4882, 0.6887420
443.9703, 0.4949210
444.4524, 9.8782003E-02
444.9345, 7.5359002E-02
445.4167, 0.1514840
445.8988, 0.4277130
446.3809, 0.6698380
446.8630, 0.8648110
447.3451, 1.027987
447.8272, 1.179258
448.3094, 1.270416
448.7915, 1.147541
449.2736, 0.7166250
449.7557, 0.3412860
450.2378, 5.8196999E-02
450.7199, 0.2762150
451.2021, 5.9030998E-02
451.6842, 0.9185810
452.1663, 1.645287
452.6484, 1.490034
453.1305, 0.7152580
453.6126, 0.6389810
454.0948, 1.590313
454.5769, 2.415676
455.0590, 2.193386
455.5411, 1.359921
456.0232, 0.6052250
456.5053, 6.9519999E-03
456.9875, 0.3753220
457.4696, 0.2593920
457.9517, 0.2250310
458.4338, 0.5282400
458.9159, 0.4207270
459.3980, 0.1512450
459.8802, 0.1317120
460.3623, 0.3976710
460.8444, 0.5097810
461.3265, 0.1451800
461.8086, 0.2371710
462.2907, 0.1436540
462.7729, 0.3842640
463.2550, 0.9091360
463.7371, 1.152964
464.2192, 1.146273
464.7013, 1.004293
465.1834, 0.4936290
465.6656, 0.1679990
466.1477, 0.2413940
466.6298, 0.4797310
467.1119, 0.6039680
467.5940, 0.5205520
468.0761, 0.4376010
468.5583, 0.6489200
469.0404, 1.247238
469.5225, 1.552450
470.0046, 1.348040
470.4867, 1.068466
470.9688, 0.7515510
471.4510, 0.4644470
471.9331, 0.2914770
472.4152, 0.2715190
472.8973, 0.3862400
473.3794, 0.6439210
473.8615, 1.105404
474.3437, 1.446802
474.8258, 1.615360
475.3079, 1.629494
475.7900, 1.421095
476.2721, 1.036034
476.7542, 0.6890740
477.2364, 0.4564650
477.7185, 0.3664860
478.2006, 0.5298040
478.6827, 0.9890420
479.1648, 1.469860
479.6469, 1.966169
480.1291, 2.320726
480.6112, 2.205946
481.0933, 1.379303
481.5754, 0.7265510
482.0575, 0.8830600
482.5396, 1.475054
483.0217, 1.803946
483.5038, 1.726551
483.9860, 1.503672
484.4681, 1.371078
484.9502, 1.333616
485.4323, 1.255003
485.9144, 1.143011
486.3965, 0.9851570
486.8787, 0.6345560
487.3608, 0.2594130
487.8429, 0.2149890
488.3250, 0.6421090
488.8071, 1.264713
489.2892, 1.585756
489.7714, 1.475052
490.2535, 1.375814
490.7356, 1.321083
491.2177, 1.245604
491.6998, 1.111219
492.1819, 0.9285180
492.6641, 0.6821800
493.1462, 0.3100610
493.6283, 1.5738999E-02
494.1104, 0.3227630
494.5925, 1.695629
495.0746, 2.719137
495.5568, 2.845778
496.0389, 2.664078
496.5210, 2.556479
497.0031, 2.553413
497.4852, 2.470427
497.9673, 2.096483
498.4495, 1.550737
498.9316, 1.171339
499.4137, 0.9915850
499.8958, 0.8723090
500.3779, 0.6744540
500.8600, 0.5113140
501.3422, 0.6421380
501.8243, 1.271496
502.3064, 1.774908
502.7885, 1.749147
503.2706, 1.416903
503.7527, 1.143532
504.2349, 1.007627
504.7170, 0.9601960
505.1991, 0.9825210
505.6812, 1.082523
506.1633, 1.025402
506.6454, 0.5846770
507.1276, 0.2554680
507.6097, 0.2418580
508.0918, 0.4475440
508.5739, 0.8228990
509.0560, 1.355452
509.5381, 1.746264
510.0203, 1.435818
510.5024, 4.1522998E-02
510.9845, 0.7411350
511.4666, 0.4946170
511.9487, 4.5883000E-02
512.4308, 0.4273590
512.9130, 0.8516100
513.3951, 1.144234
513.8772, 1.260166
514.3593, 1.237152
514.8414, 1.073360
515.3235, 0.7579770
515.8057, 0.6332950
516.2878, 0.9221190
516.7699, 1.253229
517.2520, 1.323750
517.7341, 1.152544
518.2162, 0.8981780
518.6984, 0.5038740
519.1805, 0.1288320
519.6626, 2.3951000E-02
520.1447, 0.1869750
520.6268, 0.2919060
521.1089, 0.1108060
521.5911, 0.1519680
522.0732, 7.7170998E-02
522.5553, 1.123768
523.0374, 1.634501
523.5195, 0.8721690
524.0016, 0.1402490
524.4838, 0.4832310
524.9659, 0.1916750
525.4480, 0.2039890
525.9301, 0.3718720
526.4122, 0.3479350
526.8943, 0.3025550
527.3765, 0.1270100
527.8586, 9.5403999E-02
528.3407, 0.3955100
528.8228, 0.7276520
529.3049, 0.8178440
529.7870, 0.6584930
530.2692, 0.4608290
530.7513, 0.3697430
531.2334, 0.3950610
531.7155, 0.6436200
532.1976, 1.251499
532.6797, 1.763134
533.1619, 2.034906
533.6440, 2.088787
534.1261, 1.816734
534.6082, 1.133192
535.0903, 0.6239990
535.5724, 0.8435590
536.0546, 1.473255
536.5367, 1.816854
537.0188, 1.775988
537.5009, 1.642324
537.9830, 1.601665
538.4651, 1.648573
538.9473, 1.736097
539.4294, 1.987564
539.9115, 2.125769
540.3936, 1.950872
540.8757, 1.669785
541.3578, 1.555845
541.8400, 1.656038
542.3221, 1.820465
542.8042, 1.888674
543.2863, 1.857325
543.7684, 1.928076
544.2505, 2.247746
544.7326, 2.493856
545.2147, 2.674803
545.6968, 2.716196
546.1790, 2.446997
546.6611, 1.852701
547.1432, 1.287266
547.6253, 1.195805
548.1074, 1.531628
548.5895, 1.740610
549.0717, 1.725647
549.5538, 1.745441
550.0359, 2.118292
550.5180, 2.582075
551.0001, 2.694729
551.4822, 2.245464
551.9644, 1.779863
552.4465, 1.647629
552.9286, 1.734585
553.4107, 1.816601
553.8928, 1.850451
554.3749, 1.873953
554.8571, 1.913885
555.3392, 1.971432
555.8213, 2.075779
556.3034, 2.357332
556.7855, 2.520903
557.2676, 2.470909
557.7498, 2.272045
558.2319, 1.945583
558.7140, 1.525755
559.1961, 1.145418
559.6782, 0.9161240
560.1603, 0.8388560
560.6425, 1.050009
561.1246, 1.942019
561.6067, 2.533579
562.0888, 2.340271
562.5709, 1.816236
563.0530, 1.469204
563.5352, 1.423433
564.0173, 1.462084
564.4994, 1.432320
564.9815, 1.338820
565.4636, 1.152100
565.9457, 0.8269730
566.4279, 0.6412220
566.9100, 0.8392560
567.3921, 1.321445
567.8742, 1.715780
568.3563, 2.149172
568.8384, 2.239599
569.3206, 1.585512
569.8027, 0.7733550
570.2848, 0.5703090
570.7669, 1.031590
571.2490, 1.551249
571.7311, 1.581476
572.2133, 1.184490
572.6954, 1.049740
573.1775, 1.496181
573.6596, 1.768330
574.1417, 1.667618
574.6238, 1.430990
575.1060, 1.267683
575.5881, 1.198576
576.0702, 1.103258
576.5523, 0.8316590
577.0344, 0.4560700
577.5165, 0.2828640
577.9987, 0.3662280
578.4808, 0.4164850
578.9629, 0.2564320
579.4450, 2.6283000E-02
579.9271, 1.8406000E-02
580.4092, 0.1579060
580.8914, 0.2372210
581.3735, 0.1328010
581.8556, 0.5240760
582.3377, 0.3594590
582.8198, 0.3403070
583.3019, 1.044958
583.7841, 1.463329
584.2662, 1.608992
584.7483, 1.513744
585.2304, 0.9307230
585.7125, 0.5071910
586.1946, 0.2922130
586.6768, 0.1824510
587.1589, 0.1519220
587.6410, 0.1817340
588.1231, 0.2210670
588.6052, 0.2357850
589.0873, 0.2339570
589.5695, 0.2294080
590.0516, 0.2211670
590.5337, 0.1920030
591.0158, 4.0759999E-02
591.4979, 5.2620000E-03
591.9800, 0.3183190
592.4622, 0.9159130
592.9443, 1.393621
593.4264, 1.606155
593.9085, 1.675808
594.3906, 1.694904
594.8727, 1.648743
595.3549, 1.466320
595.8370, 1.117214
596.3191, 0.7244380
596.8012, 0.4125980
597.2833, 0.1590350
597.7654, 0.1645700
598.2476, 0.6354350
598.7297, 1.085997
599.2118, 1.503193
599.6939, 1.837385
600.1760, 1.913401
600.6581, 1.759470
601.1403, 1.512730
601.6224, 1.222866
602.1045, 0.8976290
602.5866, 0.7555810
603.0687, 0.8759610
603.5508, 1.086254
604.0330, 1.294821
604.5151, 1.552639
604.9972, 1.937256
605.4793, 2.521101
605.9614, 2.921486
606.4435, 2.895313
606.9257, 2.598944
607.4078, 2.137764
607.8899, 1.569933
608.3720, 1.196629
608.8541, 1.234045
609.3362, 1.561905
609.8184, 1.799198
610.3005, 1.842312
610.7826, 1.947449
611.2647, 2.340467
611.7468, 2.597181
612.2289, 2.299168
612.7111, 1.628168
613.1932, 1.112749
613.6753, 1.072031
614.1574, 1.283812
614.6395, 1.350325
615.1216, 1.264977
615.6038, 1.093636
616.0859, 0.7061040
616.5680, 0.4412780
617.0501, 0.7067170
617.5322, 1.345732
618.0143, 1.833111
618.4965, 2.020962
618.9786, 2.077719
619.4607, 2.062746
619.9428, 1.996328
620.4249, 1.881327
620.9070, 1.729837
621.3892, 1.658623
621.8713, 1.829945
622.3534, 2.237711
622.8355, 2.372480
623.3176, 1.956070
623.7997, 1.616379
624.2819, 1.513805
624.7640, 1.482256
625.2461, 1.335896
625.7282, 1.074997
626.2103, 0.8865260
626.6924, 0.9242990
627.1745, 1.133255
627.6566, 1.447630
628.1387, 1.888309
628.6208, 2.109896
629.1030, 1.879322
629.5851, 1.489412
630.0672, 1.408903
630.5493, 1.653639
631.0314, 1.799706
631.5135, 1.637737
631.9957, 1.499697
632.4778, 1.681770
632.9599, 2.033689
633.4420, 2.220289
633.9241, 2.117479
634.4063, 1.885857
634.8884, 1.720987
635.3705, 1.608036
635.8526, 1.712990
636.3347, 2.345980
636.8168, 2.751804
637.2990, 2.528294
637.7811, 2.026051
638.2632, 1.640556
638.7453, 1.446884
639.2274, 1.366880
639.7095, 1.410246
640.1917, 1.539156
640.6738, 1.653469
641.1559, 1.717323
641.6380, 1.721575
642.1201, 1.657454
642.6022, 1.540024
643.0844, 1.405914
643.5665, 1.291330
644.0486, 1.072493
644.5307, 0.5459020
645.0128, 0.1115440
645.4949, 3.7376001E-02
645.9771, 0.2154830
646.4592, 0.3874650
646.9413, 0.4357410
647.4234, 0.5175670
647.9055, 1.019173
648.3876, 1.905958
648.8698, 2.171312
649.3519, 1.481619
649.8340, 0.7754190
650.3161, 0.6470530
650.7982, 0.8856700
651.2803, 1.100767
651.7625, 1.280523
652.2446, 1.377722
652.7267, 1.352226
653.2088, 1.248520
653.6909, 1.052416
654.1730, 0.8088190
654.6552, 0.7384150
655.1373, 1.012253
655.6194, 1.368063
656.1015, 0.9828620
656.5836, 0.8153480
657.0657, 1.626192
657.5479, 0.3961010
658.0300, 0.9752310
658.5121, 1.944473
658.9942, 2.421522
659.4763, 2.184519
659.9584, 0.9239060
660.4406, 0.2725940
660.9227, 0.2741870
661.4048, 0.5285630
661.8869, 1.169670
662.3690, 1.514683
662.8511, 1.695929
663.3333, 1.757170
663.8154, 1.702656
664.2975, 1.611649
664.7796, 1.455130
665.2617, 1.364182
665.7438, 1.397575
666.2260, 1.448761
666.7081, 1.375437
667.1902, 1.259981
667.6723, 1.359291
668.1544, 1.849070
668.6365, 2.421963
669.1187, 2.599440
669.6008, 2.393286
670.0829, 2.025919
670.5650, 1.438751
671.0471, 0.9390830
671.5292, 0.7850670
672.0114, 0.8952770
672.4935, 0.9502240
672.9756, 0.7956450
673.4577, 0.8481960
673.9398, 1.509832
674.4219, 2.241499
674.9041, 2.470844
675.3862, 2.244696
675.8683, 2.026497
676.3504, 2.120140
676.8325, 2.338583
677.3146, 2.028351
677.7968, 1.009119
678.2789, 0.4117680
678.7610, 0.5882950
679.2431, 0.9034020
679.7252, 0.9181790
680.2073, 0.7992800
680.6895, 0.9173980
681.1716, 1.468647
681.6537, 1.963675
682.1358, 2.031532
682.6179, 1.914722
683.1000, 2.057270
683.5822, 2.437304
684.0643, 2.536196
684.5464, 1.968723
685.0285, 1.048290
685.5106, 0.7072110
685.9927, 1.304230
686.4749, 1.640366
686.9570, 1.511923
687.4391, 1.276199
687.9212, 0.9887120
688.4033, 0.7171250
688.8854, 0.6071930
689.3676, 0.7403660
689.8497, 0.8793350
690.3318, 0.7519250
690.8139, 0.5074410
691.2960, 0.4881860
691.7781, 0.7067360
692.2603, 0.9509260
692.7424, 1.103722
693.2245, 1.165890
693.7066, 1.132885
694.1887, 0.9108980
694.6708, 0.7836170
695.1530, 0.7821370
695.6351, 0.8356300
696.1172, 0.9316160
696.5993, 1.053097
697.0814, 1.195715
697.5635, 1.362642
698.0457, 1.471722
698.5278, 1.395679
699.0099, 1.196226
699.4920, 1.096828
699.9741, 1.122477
700.4562, 1.064165
700.9384, 0.7440260
701.4205, 0.3615530
701.9026, 0.3678380
702.3847, 0.9909530
702.8668, 1.394140
703.3489, 1.599415
703.8311, 1.575886
704.3132, 1.068628
704.7953, 0.3906990
705.2774, 3.7347998E-02
705.7595, 0.1582780
706.2416, 0.4568200
706.7238, 0.6979730
707.2059, 0.8604010
707.6880, 0.7801990
708.1701, 0.4045960
708.6522, 0.1729160
709.1343, 0.2620850
709.6164, 0.5966760
710.0985, 1.186146
710.5806, 2.138229
711.0627, 2.560810
711.5449, 2.025909
712.0270, 1.350821
712.5091, 0.7645740
712.9912, 0.3491340
713.4733, 0.2435400
713.9554, 0.4470790
714.4376, 0.6521420
714.9197, 0.6436920
715.4018, 0.6059780
715.8839, 0.7678950
716.3660, 1.122765
716.8481, 1.343439
717.3303, 1.298452
717.8124, 1.120644
718.2945, 0.9241070
718.7766, 0.7398930
719.2587, 0.4938550
719.7408, 8.0476999E-02
720.2230, 0.4888150
720.7051, 0.6126900
721.1872, 0.4236350
721.6693, 0.3408340
722.1514, 1.539848
722.6335, 2.461668
723.1157, 2.540792
723.5978, 2.012655
724.0799, 1.394560
724.5620, 0.6398330
725.0441, 0.2831730
725.5262, 0.6151070
726.0084, 1.031452
726.4905, 1.023096
726.9726, 0.6848700
727.4547, 0.3845480
727.9368, 9.7747996E-02
728.4189, 8.4054999E-02
728.9011, 6.6892996E-02
729.3832, 1.8077999E-02
729.8653, 1.7418001E-02
730.3474, 3.6215000E-02
730.8295, 1.7410001E-02
731.3116, 0.2730730
731.7938, 0.6273690
732.2759, 0.9976160
732.7580, 1.388718
733.2401, 1.235962
733.7222, 0.1864320
734.2043, 0.5890180
734.6865, 0.2370200
735.1686, 0.7722430
735.6507, 1.404284
736.1328, 1.593485
736.6149, 1.623228
737.0970, 1.396921
737.5792, 1.165728
738.0613, 1.128166
738.5434, 1.211706
739.0255, 1.233553
739.5076, 1.136505
739.9897, 1.062656
740.4719, 1.254683
740.9540, 1.645390
741.4361, 1.732559
741.9182, 1.473764
742.4003, 1.110657
742.8824, 0.6640830
743.3646, 0.2312410
743.8467, 6.9426998E-02
744.3288, 0.2425190
744.8109, 0.2862740
745.2930, 0.2502380
745.7751, 2.6628001E-02
746.2573, 0.7978550
746.7394, 1.626043
747.2215, 1.586409
747.7036, 0.7027090
748.1857, 0.1504960
748.6678, 0.3167610
749.1500, 2.6159000E-02
749.6321, 0.2610450
750.1142, 0.5451740
750.5963, 0.7902130
751.0784, 0.9979970
751.5605, 1.143206
752.0427, 1.230162
752.5248, 1.238443
753.0069, 1.055962
753.4890, 0.3337900
753.9711, 2.2251001E-02
754.4532, 0.4148960
754.9354, 0.9773030
755.4175, 1.199932
755.8996, 1.151094
756.3817, 1.097660
756.8638, 1.153553
757.3459, 1.207708
757.8281, 1.152231
758.3102, 0.9859890
758.7923, 0.6297550
759.2744, 6.0837001E-02
759.7565, 0.3098370
760.2386, 0.2421020
760.7208, 5.3303000E-02
761.2029, 0.1947330
761.6850, 8.0339000E-02
762.1671, 0.2398610
762.6492, 1.019337
763.1313, 1.625704
763.6135, 1.757326
764.0956, 1.648832
764.5777, 1.535328
765.0598, 1.462284
765.5419, 1.380342
766.0240, 1.277168
766.5062, 1.125879
766.9883, 0.8425830
767.4704, 0.4752580
767.9525, 0.2403890
768.4346, 0.1905170
768.9167, 0.2508110
769.3989, 0.3778040
769.8810, 0.5469060
770.3631, 0.5900170
770.8452, 0.3402270
771.3273, 0.2698750
771.8094, 0.6392480
772.2916, 0.9675480
772.7737, 0.9690400
773.2558, 0.7424700
773.7379, 0.4733330
774.2200, 0.1583920
774.7021, 4.0011998E-02
775.1843, 0.5432420
775.6664, 1.183109
776.1485, 1.194176
776.6306, 0.6793610
777.1127, 0.2751100
777.5948, 0.2574710
778.0770, 0.4312840
778.5591, 0.5641770
779.0412, 0.6770630
779.5233, 0.7065870
780.0054, 0.5178910
780.4875, 0.4549810
780.9697, 0.7254790
781.4518, 1.099928
781.9339, 1.335651
782.4160, 1.447659
782.8981, 1.633390
783.3802, 2.136583
783.8624, 2.499489
784.3445, 2.312376
784.8266, 1.947607
785.3087, 1.935774
785.7908, 2.278893
786.2729, 2.573757
786.7551, 2.556496
787.2372, 2.368750
787.7193, 2.245813
788.2014, 2.187048
788.6835, 2.296272
789.1656, 2.611340
789.6478, 3.005713
790.1299, 3.483267
790.6120, 3.936621
791.0941, 4.036200
791.5762, 3.520069
792.0583, 3.425663
792.5404, 4.305145
793.0225, 5.166740
793.5046, 5.523472
793.9868, 5.584074
794.4689, 5.643799
794.9510, 5.772049
795.4331, 5.894295
795.9152, 5.990088
796.3973, 6.020529
796.8795, 5.755514
797.3616, 5.321745
797.8437, 5.476397
798.3258, 6.432623
798.8079, 7.373339
799.2900, 7.548304
799.7722, 7.109699
800.2543, 6.918991
800.7364, 7.209446
801.2185, 7.268740
801.7006, 6.719154
802.1827, 6.244715
802.6649, 6.309280
803.1470, 6.644583
803.6291, 6.738434
804.1112, 6.447268
804.5933, 6.094919
805.0754, 5.787926
805.5576, 5.542315
806.0397, 5.366821
806.5218, 5.260696
807.0039, 5.287834
807.4860, 5.439873
807.9681, 5.535818
808.4503, 5.364782
808.9324, 4.968231
809.4145, 4.527561
809.8966, 4.005564
810.3787, 3.670225
810.8608, 3.632553
811.3430, 3.724125
811.8251, 3.860279
812.3072, 4.010529
812.7893, 3.977766
813.2714, 3.657963
813.7535, 3.314314
814.2357, 2.827816
814.7178, 2.472366
815.1999, 2.619493
815.6820, 3.006838
816.1641, 2.992838
816.6462, 2.342646
817.1284, 1.822878
817.6105, 2.434494
818.0926, 3.533033
818.5747, 3.688478
819.0568, 3.030264
819.5389, 2.754440
820.0211, 3.302021
820.5032, 3.978504
820.9853, 3.940582
821.4674, 3.257830
821.9495, 3.043514
822.4316, 3.625454
822.9138, 3.952162
823.3959, 3.579596
823.8780, 3.162046
824.3601, 3.136486
824.8422, 3.398888
825.3243, 3.667257
825.8065, 3.880089
826.2886, 4.130915
826.7707, 4.593309
827.2528, 4.994663
827.7349, 4.925682
828.2170, 4.628592
828.6992, 4.715082
829.1813, 5.379141
829.6634, 6.148008
830.1455, 6.508354
830.6276, 6.567949
831.1097, 6.699057
831.5919, 6.898563
832.0740, 6.995043
832.5561, 6.913223
833.0382, 6.806602
833.5203, 6.819170
834.0024, 6.936415
834.4846, 7.049454
834.9667, 7.121077
835.4488, 7.249403
835.9309, 7.696522
836.4130, 7.933224
836.8951, 7.448780
837.3773, 6.638693
837.8594, 6.293104
838.3415, 6.657087
838.8236, 6.842037
839.3057, 6.120607
839.7878, 5.240614
840.2700, 4.948236
840.7521, 5.069628
841.2342, 5.213783
841.7163, 5.258698
842.1984, 5.197195
842.6805, 5.009085
843.1627, 4.684101
843.6448, 4.138823
844.1269, 3.366814
844.6090, 2.787575
845.0911, 2.469213
845.5732, 2.377033
846.0554, 2.536049
846.5375, 2.876230
847.0196, 3.221445
847.5017, 3.733221
847.9838, 3.861904
848.4659, 3.282867
848.9481, 2.711761
849.4302, 2.369188
849.9123, 2.211708
850.3944, 2.232731
850.8765, 2.401812
851.3586, 2.505226
851.8408, 2.256165
852.3229, 2.076361
852.8050, 2.512741
853.2871, 3.188183
853.7692, 3.449903
854.2513, 3.237179
854.7335, 2.872725
855.2156, 2.514492
855.6977, 2.143324
856.1798, 1.625549
856.6619, 0.9742050
857.1440, 0.6517240
857.6262, 0.7072890
858.1083, 0.9842700
858.5904, 1.517120
859.0725, 2.074167
859.5546, 2.326525
860.0367, 2.249895
860.5189, 2.145220
861.0010, 1.919226
861.4831, 1.831680
861.9652, 2.151316
862.4473, 2.358232
862.9294, 1.826225
863.4116, 0.8491590
863.8937, 0.3299810
864.3758, 0.6062260
864.8579, 1.052084
865.3400, 1.456898
865.8221, 1.700760
866.3043, 1.500519
866.7864, 1.058849
867.2685, 0.8695450
867.7506, 1.043066
868.2327, 1.257132
868.7148, 1.170160
869.1970, 0.8694130
869.6791, 0.5949150
870.1612, 0.3462160
870.6433, 0.3204880
871.1254, 0.6059890
871.6075, 0.9424690
872.0897, 1.163050
872.5718, 1.257010
873.0539, 1.167791
873.5360, 0.7163870
874.0181, 0.4929430
874.5002, 0.6691210
874.9823, 0.8812730
875.4644, 1.105408
875.9465, 1.249256
876.4286, 1.165813
876.9108, 0.8599360
877.3929, 0.5997100
877.8750, 0.5200520
878.3571, 0.4599290
878.8392, 0.2556930
879.3214, 9.0989999E-02
879.8035, 0.2232020
880.2856, 0.6061590
880.7677, 0.9198490
881.2498, 1.003410
881.7319, 0.9651090
882.2141, 0.8756790
882.6962, 0.7753540
883.1783, 0.8149470
883.6604, 0.9820940
884.1425, 1.081816
884.6246, 1.042442
885.1068, 0.9302520
885.5889, 0.7944850
886.0710, 0.6577970
886.5531, 0.7450900
887.0352, 1.225658
887.5173, 1.424335
887.9995, 1.117765
888.4816, 0.7066460
888.9637, 0.2474650
889.4458, 8.6197004E-02
889.9279, 0.1752050
890.4100, 1.320183
890.8922, 1.873192
891.3743, 1.030087
891.8564, 0.2537590
892.3385, 0.2940270
892.8206, 0.7016110
893.3027, 1.017876
893.7849, 1.156382
894.2670, 1.143032
894.7491, 0.9616640
895.2312, 0.6969950
895.7133, 0.3501130
896.1954, 1.0925000E-02
896.6776, 0.1450860
897.1597, 0.1388800
897.6418, 0.1009980
898.1239, 8.8647999E-02
898.6060, 0.1354220
899.0881, 0.3222220
899.5703, 0.5801320
900.0524, 0.6418110
900.5345, 0.5309430
901.0166, 0.2344210
901.4987, 0.3080020
901.9808, 0.7975600
902.4630, 1.006271
902.9451, 0.9850940
903.4272, 0.8923720
903.9093, 0.6613080
904.3914, 0.5118060
904.8735, 0.4270860
905.3557, 0.4481180
905.8378, 0.7039590
906.3199, 0.9959030
906.8020, 1.091379
907.2841, 0.9888440
907.7662, 0.8852230
908.2484, 0.7462270
908.7305, 0.7167700
909.2126, 1.021185
909.6947, 1.330530
910.1768, 1.334476
910.6589, 1.077734
911.1411, 0.6718830
911.6232, 0.1492210
912.1053, 0.1403940
912.5874, 0.3742280
913.0695, 1.139450
913.5516, 1.158333
914.0338, 0.6886200
914.5159, 0.6123810
914.9980, 1.112299
915.4801, 1.758265
915.9622, 2.262783
916.4443, 2.533802
916.9265, 2.274462
917.4086, 1.485735
917.8907, 0.7186410
918.3728, 5.6099001E-02
918.8549, 0.3747120
919.3370, 0.1271420
919.8192, 0.8521190
920.3013, 0.9239430
920.7834, 0.3001880
921.2655, 2.2136999E-02
921.7476, 9.8658003E-02
922.2297, 0.2793390
922.7119, 0.6960770
923.1940, 0.9272500
923.6761, 0.5015750
924.1582, 0.2231600
924.6403, 0.4695380
925.1224, 4.0987000E-02
925.6046, 0.3129940
926.0867, 0.3674450
926.5688, 0.3461690
927.0509, 0.2334440
927.5330, 0.1949250
928.0151, 0.5728550
928.4973, 1.247540
928.9794, 1.568661
929.4615, 1.086317
929.9436, 0.5346660
930.4257, 0.6549870
930.9078, 1.044102
931.3900, 1.088923
931.8721, 0.8480050
932.3542, 0.6578030
932.8363, 0.6341950
933.3184, 0.6708280
933.8005, 0.6692660
934.2827, 0.6434140
934.7648, 0.6668820
935.2469, 0.7206920
935.7290, 0.5203300
936.2111, 1.5280000E-03
936.6932, 0.1960560
937.1754, 0.4024070
937.6575, 1.277475
938.1396, 1.398716
938.6217, 0.6839660
939.1038, 0.3817200
939.5859, 0.6624580
940.0681, 0.8867530
940.5502, 0.7978800
941.0323, 0.7456380
941.5144, 1.152054
941.9965, 1.845072
942.4786, 2.066986
942.9608, 1.479002
943.4429, 1.144184
943.9250, 1.308157
944.4071, 1.491899
944.8892, 1.566135
945.3713, 1.517250
945.8535, 1.268934
946.3356, 0.8598160
946.8177, 0.5648250
947.2998, 0.4017960
947.7819, 0.4751830
948.2640, 1.144768
948.7462, 1.808113
949.2283, 1.736187
949.7104, 1.245441
950.1925, 1.148905
950.6746, 1.657646
951.1567, 2.116276
951.6389, 1.936167
952.1210, 1.501081
952.6031, 1.282198
953.0852, 1.194912
953.5673, 1.022552
954.0494, 0.7666190
954.5316, 0.6457690
955.0137, 0.7919140
955.4958, 0.9699020
955.9779, 0.8206120
956.4600, 0.3984830
956.9421, 0.1193430
957.4242, 0.7251800
957.9063, 0.9495370
958.3884, 0.6458230
958.8705, 0.1183830
959.3527, 0.4038180
959.8348, 0.8835370
960.3169, 1.243763
960.7990, 1.481506
961.2811, 1.623665
961.7632, 1.677343
962.2454, 1.603395
962.7275, 1.306484
963.2096, 0.9917160
963.6917, 0.9088550
964.1738, 1.032257
964.6559, 1.052620
965.1381, 0.8169120
965.6202, 0.7243560
966.1023, 0.9513910
966.5844, 1.133677
967.0665, 0.9574550
967.5486, 0.7308180
968.0308, 0.9624330
968.5129, 1.673574
968.9950, 2.115711
969.4771, 1.994106
969.9592, 1.749790
970.4413, 1.502842
970.9235, 1.282127
971.4056, 0.9954760
971.8877, 0.7476620
972.3698, 0.8557050
972.8519, 1.404444
973.3340, 1.758360
973.8162, 1.349594
974.2983, 0.8175090
974.7804, 0.7029300
975.2625, 0.7858310
975.7446, 0.7590690
976.2267, 0.5896070
976.7089, 0.3279840
977.1910, 3.6256999E-02
977.6731, 3.1404000E-02
978.1552, 0.7541290
978.6373, 1.753515
979.1194, 1.572989
979.6016, 0.6573300
980.0837, 0.5451760
980.5658, 1.449434
981.0479, 2.221590
981.5300, 2.070801
982.0121, 1.413483
982.4943, 0.9063640
982.9764, 0.6239720
983.4585, 0.9226510
983.9406, 1.761921
984.4227, 2.057133
984.9048, 1.425085
985.3870, 0.6903500
985.8691, 0.6265960
986.3512, 1.010082
986.8333, 1.088037
987.3154, 0.7944370
987.7975, 0.7534500
988.2797, 1.034441
988.7618, 1.441847
989.2439, 1.979107
989.7260, 2.440205
990.2081, 2.560118
990.6902, 2.377277
991.1724, 2.266180
991.6545, 2.296700
992.1366, 2.241005
992.6187, 2.127867
993.1008, 1.854826
993.5829, 1.204672
994.0651, 0.4689100
994.5472, 2.0754000E-02
995.0293, 0.1023410
995.5114, 0.1612640
995.9935, 1.458067
996.4756, 2.194742
996.9578, 1.514408
997.4399, 0.9097330
997.9220, 1.469940
998.4041, 2.526382
998.8862, 2.981934
999.3683, 2.703997
999.8505, 2.374880
1000.333, 2.081703
1000.815, 1.870848
1001.297, 1.724619
1001.779, 1.701988
1002.261, 2.015310
1002.743, 2.442066
1003.225, 2.545172
1003.707, 2.178185
1004.190, 1.700270
1004.672, 1.087225
1005.154, 0.6599710
1005.636, 0.7935120
1006.118, 1.126671
1006.600, 1.217991
1007.082, 1.102987
1007.564, 1.042582
1008.046, 1.132580
1008.529, 1.231178
1009.011, 1.219980
1009.493, 1.166880
1009.975, 1.151169
1010.457, 1.146025
1010.939, 1.096762
1011.421, 1.005018
1011.903, 0.8738900
1012.385, 0.7009030
1012.868, 0.6615700
1013.350, 1.065763
1013.832, 1.668346
1014.314, 2.050228
1014.796, 2.212076
1015.278, 2.205238
1015.760, 2.073702
1016.242, 1.843157
1016.725, 1.473421
1017.207, 1.118906
1017.689, 1.028276
1018.171, 1.157040
1018.653, 1.475115
1019.135, 1.911779
1019.617, 1.970135
1020.099, 1.550835
1020.581, 0.9821450
1021.064, 0.4604050
1021.546, 8.0115996E-02
1022.028, 4.1746002E-02
1022.510, 0.3213560
1022.992, 0.7019670
1023.474, 1.186579
1023.956, 1.593596
1024.438, 1.880583
1024.921, 2.000425
1025.403, 1.889082
1025.885, 1.665178
1026.367, 1.683298
1026.849, 1.991095
1027.331, 1.639671
1027.813, 0.4369160
1028.295, 0.3231430
1028.777, 0.2472060
1029.260, 0.2394330
1029.742, 0.8989070
1030.224, 1.567175
1030.706, 1.720215
1031.188, 1.223629
1031.670, 0.9294570
1032.152, 0.8594130
1032.634, 0.9483620
1033.116, 1.289753
1033.599, 1.561775
1034.081, 1.423311
1034.563, 1.052784
1035.045, 1.032110
1035.527, 1.526802
1036.009, 1.841881
1036.491, 1.904972
1036.973, 1.865343
1037.456, 1.742470
1037.938, 1.546278
1038.420, 1.166065
1038.902, 0.7408330
1039.384, 0.7866170
1039.866, 1.580542
1040.348, 2.065945
1040.830, 2.116730
1041.313, 2.035648
1041.795, 1.689430
1042.277, 1.425900
1042.759, 1.722208
1043.241, 2.318907
1043.723, 2.336027
1044.205, 1.380365
1044.687, 0.9198550
1045.169, 1.394056
1045.651, 1.869598
1046.134, 2.221785
1046.616, 2.359123
1047.098, 2.039009
1047.580, 1.458828
1048.062, 1.210865
1048.544, 1.474407
1049.026, 1.615450
1049.508, 1.484352
1049.991, 1.306955
1050.473, 1.153109
1050.955, 1.014936
1051.437, 0.7074390
1051.919, 0.3677830
1052.401, 0.4264810
1052.883, 1.062719
1053.365, 1.562979
1053.848, 1.805113
1054.330, 1.825869
1054.812, 1.428659
1055.294, 1.001822
1055.776, 0.8948920
1056.258, 1.049210
1056.740, 1.158064
1057.222, 1.183289
1057.704, 1.276854
1058.187, 1.732796
1058.669, 1.943819
1059.151, 1.477104
1059.633, 0.8073560
1060.115, 0.1166190
1060.597, 0.3766690
1061.079, 0.1634060
1061.561, 0.9426590
1062.043, 1.740168
1062.526, 1.604292
1063.008, 1.349377
1063.490, 1.211926
1063.972, 1.230244
1064.454, 1.591562
1064.936, 2.076408
1065.418, 2.205038
1065.900, 1.875353
1066.383, 1.618242
1066.865, 1.662836
1067.347, 1.795372
1067.829, 2.175600
1068.311, 2.366219
1068.793, 1.699738
1069.275, 0.6703890
1069.757, 0.2851660
1070.240, 0.7131000
1070.722, 1.099674
1071.204, 1.119717
1071.686, 0.9825360
1072.168, 0.7115590
1072.650, 0.3949410
1073.132, 4.4233002E-02
1073.614, 0.4119000
1074.096, 0.2890950
1074.578, 0.3237800
1075.061, 0.7338850
1075.543, 0.5022050
1076.025, 0.2588250
1076.507, 0.3194010
1076.989, 0.4741780
1077.471, 0.6478160
1077.953, 0.7559720
1078.435, 0.6160320
1078.918, 0.2708030
1079.400, 0.1257590
1079.882, 0.4739060
1080.364, 0.7534290
1080.846, 0.4794540
1081.328, 0.2719900
1081.810, 0.7684040
1082.292, 1.509739
1082.774, 1.884481
1083.257, 1.839857
1083.739, 1.598282
1084.221, 1.160711
1084.703, 0.7600880
1085.185, 0.4998820
1085.667, 0.3168600
1086.149, 9.4356999E-02
1086.631, 2.8749000E-02
1087.114, 0.1237950
1087.596, 0.5039560
1088.078, 1.051601
1088.560, 1.779612
1089.042, 2.050365
1089.524, 1.269903
1090.006, 0.5337640
1090.488, 0.5186390
1090.970, 0.8104000
1091.453, 1.137901
1091.935, 1.362692
1092.417, 1.140211
1092.899, 0.3057960
1093.381, 3.0462001E-02
1093.863, 1.123243
1094.345, 2.117006
1094.827, 2.002377
1095.309, 1.575846
1095.792, 1.452921
1096.274, 1.570196
1096.756, 1.783094
1097.238, 2.061844
1097.720, 2.036880
1098.202, 1.127495
1098.684, 0.5445100
1099.166, 1.011318
1099.649, 1.615351
1100.131, 1.722050
1100.613, 1.552265
1101.095, 1.517357
1101.577, 1.637644
1102.059, 1.584843
1102.541, 1.152067
1103.023, 0.7511160
1103.505, 0.3361070
1103.988, 0.1380810
1104.470, 0.4545250
1104.952, 0.9399220
1105.434, 1.225288
1105.916, 1.303951
1106.398, 1.317249
1106.880, 1.360710
1107.362, 1.161137
1107.844, 0.2458250
1108.327, 0.3705080
1108.809, 0.2112240
1109.291, 0.3408430
1109.773, 1.167057
1110.255, 2.001482
1110.737, 2.313473
1111.219, 1.933208
1111.701, 1.594358
1112.184, 1.487841
1112.666, 1.233065
1113.148, 0.3229900
1113.630, 0.3321590
1114.112, 0.1310040
1114.594, 1.150349
1115.076, 1.714296
1115.558, 1.795013
1116.041, 1.679216
1116.523, 1.228004
1117.005, 0.8092860
1117.487, 0.2911050
1117.969, 5.7652000E-02
1118.451, 0.4623580
1118.933, 1.089296
1119.415, 1.356243
1119.897, 1.288174
1120.380, 1.258904
1120.862, 1.326818
1121.344, 1.263418
1121.826, 0.8897090
1122.308, 0.7835040
1122.790, 1.326878
1123.272, 1.894276
1123.754, 1.863028
1124.236, 1.403067
1124.719, 1.047823
1125.201, 0.7307550
1125.683, 0.9706670
1126.165, 2.041296
1126.647, 2.574100
1127.129, 2.125511
1127.611, 1.451727
1128.093, 1.015753
1128.576, 0.8071100
1129.058, 0.8384460
1129.540, 1.096489
1130.022, 1.334814
1130.504, 1.569298
1130.986, 1.518120
1131.468, 1.087070
1131.950, 0.7511860
1132.432, 0.7386050
1132.915, 0.8773650
1133.397, 1.005152
1133.879, 1.087305
1134.361, 0.8689290
1134.843, 0.4166890
1135.325, 0.7097930
1135.807, 1.756372
1136.289, 2.440329
1136.771, 2.400463
1137.254, 1.855963
1137.736, 0.8960720
1138.218, 4.1237000E-02
1138.700, 7.9039996E-03
1139.182, 0.6826250
1139.664, 0.9198000
1140.146, 0.8291930
1140.628, 1.243807
1141.111, 2.184500
1141.593, 2.587519
1142.075, 1.884470
1142.557, 0.9845600
1143.039, 1.022150
1143.521, 1.444870
1144.003, 1.417368
1144.485, 1.028093
1144.968, 0.1444210
1145.450, 0.8990150
1145.932, 1.019438
1146.414, 2.2113999E-02
1146.896, 1.042212
1147.378, 1.137905
1147.860, 1.026653
1148.342, 1.526831
1148.824, 2.098789
1149.307, 2.039671
1149.789, 1.604523
1150.271, 1.255743
1150.753, 1.083771
1151.235, 1.055695
1151.717, 1.222439
1152.199, 1.254055
1152.681, 0.6938990
1153.163, 0.2585530
1153.646, 0.5990310
1154.128, 1.210114
1154.610, 1.401917
1155.092, 1.355869
1155.574, 1.584177
1156.056, 2.199055
1156.538, 2.472935
1157.020, 1.907370
1157.503, 1.392502
1157.985, 1.115000
1158.467, 1.037378
1158.949, 1.363348
1159.431, 1.725559
1159.913, 1.540947
1160.395, 0.8858930
1160.877, 0.5758930
1161.359, 0.9520470
1161.842, 1.067381
1162.324, 0.6435390
1162.806, 0.3776860
1163.288, 0.5534060
1163.770, 0.8165930
1164.252, 0.9070490
1164.734, 0.9028050
1165.216, 1.023144
1165.698, 1.309759
1166.181, 1.008392
1166.663, 0.1677880
1167.145, 0.6334060
1167.627, 2.2490000E-02
1168.109, 0.7120650
1168.591, 1.155600
1169.073, 1.416721
1169.555, 1.632784
1170.037, 1.773346
1170.520, 1.642269
1171.002, 1.251820
1171.484, 1.239840
1171.966, 1.672203
1172.448, 1.964073
1172.930, 1.964720
1173.412, 1.939957
1173.894, 2.070072
1174.377, 2.250261
1174.859, 2.362223
1175.341, 2.383785
1175.823, 2.195286
1176.305, 1.884560
1176.787, 1.767677
1177.269, 1.813145
1177.751, 1.634649
1178.234, 1.135862
1178.716, 0.8529360
1179.198, 1.298752
1179.680, 1.923738
1180.162, 2.253075
1180.644, 2.306366
1181.126, 1.951687
1181.608, 1.419804
1182.090, 1.082399
1182.573, 0.9769630
1183.055, 0.9558470
1183.537, 0.9668390
1184.019, 1.050194
1184.501, 1.317085
1184.983, 1.548819
1185.465, 1.628817
1185.947, 1.615620
1186.429, 1.430189
1186.912, 1.251814
1187.394, 1.526999
1187.876, 2.254026
1188.358, 2.471886
1188.840, 1.458967
1189.322, 0.8387050
1189.804, 1.003595
1190.286, 1.290680
1190.769, 1.606827
1191.251, 1.797562
1191.733, 1.615627
1192.215, 1.269659
1192.697, 1.352217
1193.179, 1.960133
1193.661, 2.148039
1194.143, 1.751072
1194.625, 1.540705
1195.108, 1.646292
1195.590, 1.912689
1196.072, 2.306406
1196.554, 2.636818
1197.036, 2.680092
1197.518, 2.432465
1198.000, 1.647339
1198.482, 0.4798260
1198.964, 0.5743560
1199.447, 1.786991
1199.929, 2.267736
1200.411, 1.663059
1200.893, 1.050903
1201.375, 1.057766
1201.857, 1.222187
1202.339, 0.8116740
1202.821, 0.2382300
1203.304, 0.1401580
1203.786, 0.3405490
1204.268, 0.6037520
1204.750, 0.7864690
1205.232, 0.7254410
1205.714, 0.4419960
1206.196, 0.2900890
1206.678, 0.4963070
1207.161, 0.7212850
1207.643, 0.7881410
1208.125, 0.7617820
1208.607, 0.5150090
1209.089, 0.3425960
1209.571, 0.8262880
1210.053, 1.554768
1210.535, 1.346394
1211.017, 4.8390999E-02
1211.500, 0.6663950
1211.982, 0.5268060
1212.464, 1.349066
1212.946, 1.374510
1213.428, 1.153973
1213.910, 0.6440010
1214.392, 0.2645380
1214.874, 0.5238380
1215.356, 1.164951
1215.839, 1.372690
1216.321, 1.081621
1216.803, 0.9998460
1217.285, 1.152473
1217.767, 1.358280
1218.249, 1.591965
1218.731, 1.831553
1219.213, 2.069906
1219.696, 2.280060
1220.178, 2.440758
1220.660, 2.525925
1221.142, 2.483501
1221.624, 2.314781
1222.106, 1.861300
1222.588, 1.296349
1223.070, 1.389299
1223.552, 2.094418
1224.035, 2.419292
1224.517, 1.879377
1224.999, 1.100554
1225.481, 0.4523720
1225.963, 0.1102750
1226.445, 0.5800480
1226.927, 1.155109
1227.409, 0.9066510
1227.891, 0.3130130
1228.374, 0.2455710
1228.856, 0.7369770
1229.338, 1.293219
1229.820, 1.923267
1230.302, 2.125175
1230.784, 1.362337
1231.266, 0.7375130
1231.748, 0.7655850
1232.231, 0.8405510
1232.713, 0.4468990
1233.195, 5.5370000E-03
1233.677, 0.1228940
1234.159, 0.7507550
1234.641, 1.139032
1235.123, 1.229603
1235.605, 1.385574
1236.088, 1.655783
1236.570, 1.743402
1237.052, 1.560341
1237.534, 1.286554
1238.016, 1.026588
1238.498, 0.8060490
1238.980, 0.6054520
1239.462, 0.5277330
1239.944, 1.090508
1240.427, 1.946024
1240.909, 1.972830
1241.391, 1.324821
1241.873, 0.7488440
1242.355, 0.4492420
1242.837, 0.3417240
1243.319, 0.4102290
1243.801, 0.5081960
1244.283, 0.5240670
1244.766, 0.5273670
1245.248, 0.6143930
1245.730, 0.6932330
1246.212, 0.6361540
1246.694, 0.4998590
1247.176, 0.3607620
1247.658, 0.2409320
1248.140, 0.2696270
1248.622, 0.5774970
1249.105, 0.7202850
1249.587, 0.9130080
1250.069, 0.8988570
1250.551, 0.4265020
1251.033, 0.1267030
1251.515, 0.5033300
1251.997, 1.067789
1252.479, 1.072943
1252.962, 0.6224880
1253.444, 0.2421170
1253.926, 6.4804003E-02
1254.408, 6.6570002E-03
1254.890, 0.4072590
1255.372, 0.8691430
1255.854, 1.274704
1256.336, 1.381584
1256.818, 1.051929
1257.301, 0.6520370
1257.783, 0.6822990
1258.265, 0.7758880
1258.747, 0.1572720
1259.229, 0.5088980
1259.711, 0.1181790
1260.193, 0.8523730
1260.675, 1.493746
1261.157, 1.673834
1261.640, 1.719582
1262.122, 1.720535
1262.604, 1.640150
1263.086, 1.329910
1263.568, 1.130087
1264.050, 1.351267
1264.532, 1.477272
1265.014, 1.049265
1265.497, 0.5166490
1265.979, 0.3926120
1266.461, 0.5959640
1266.943, 0.7863330
1267.425, 0.9447040
1267.907, 1.288542
1268.389, 1.866335
1268.871, 1.967808
1269.354, 1.469662
1269.836, 0.8589290
1270.318, 0.3295250
1270.800, 1.9424001E-02
1271.282, 3.4664001E-02
1271.764, 0.2624550
1272.246, 0.6985630
1272.728, 1.114357
1273.210, 0.7990970
1273.693, 0.4190060
1274.175, 0.4295830
1274.657, 0.7360000
1275.139, 0.7166100
1275.621, 0.2265130
1276.103, 1.2636000E-02
1276.585, 0.4935700
1277.067, 0.9756890
1277.549, 1.244040
1278.032, 1.351610
1278.514, 1.110580
1278.996, 0.8908200
1279.478, 1.266993
1279.960, 1.845730
1280.442, 1.872086
1280.924, 1.360262
1281.406, 0.9300140
1281.889, 0.6006320
1282.371, 0.5256020
1282.853, 0.7336430
1283.335, 0.9962410
1283.817, 1.241873
1284.299, 1.172287
1284.781, 0.5664690
1285.263, 5.0559998E-03
1285.745, 4.1177999E-02
1286.228, 0.0000000E+00
##END=



