##NAMES=Behoite
##RRUFFID=R130230
##IDEAL CHEMISTRY=Be(OH)_2_
##LOCALITY=Rode Ranch pegmatite, Llano County, Texas, USA
##OWNER=RRUFF
##SOURCE=Rock Currier
##DESCRIPTION=Colorless vitreous pseudo-octahedral crystals in a yellow crust on brown gadolinite
##STATUS=The identification of this mineral has been confirmed by single-crystal X-ray diffraction.
##URL=rruff.info/R130230
108.9161, 0.0000000E+00
109.3982, 7.097656
109.8804, 1.425781
110.3625, 0.4960940
110.8446, 12.76953
111.3267, 23.71094
111.8088, 31.81250
112.2909, 38.58594
112.7731, 43.69531
113.2552, 47.09766
113.7373, 49.57812
114.2194, 52.02344
114.7015, 52.28906
115.1836, 56.35156
115.6658, 69.52734
116.1479, 83.80078
116.6300, 90.93750
117.1121, 87.88672
117.5942, 77.93359
118.0763, 68.10938
118.5584, 58.46875
119.0406, 48.55469
119.5227, 34.85156
120.0048, 20.00000
120.4869, 12.01562
120.9690, 16.23828
121.4511, 28.28516
121.9333, 37.58203
122.4154, 42.16406
122.8975, 46.60938
123.3796, 55.40625
123.8617, 68.99609
124.3438, 81.48047
124.8260, 88.99219
125.3081, 93.79297
125.7902, 97.33203
126.2723, 99.49609
126.7544, 101.1172
127.2365, 104.3125
127.7187, 110.7109
128.2008, 116.0195
128.6829, 117.1562
129.1650, 117.1719
129.6471, 121.0664
130.1292, 133.2812
130.6114, 152.7734
131.0935, 162.2891
131.5756, 150.4961
132.0577, 139.5977
132.5398, 134.9883
133.0219, 136.0391
133.5041, 139.8711
133.9862, 144.4922
134.4683, 150.7227
134.9504, 151.8242
135.4325, 143.8555
135.9146, 134.9414
136.3968, 128.8984
136.8789, 126.3398
137.3610, 126.7266
137.8431, 129.9219
138.3252, 136.5430
138.8073, 142.3203
139.2895, 147.8477
139.7716, 152.0117
140.2537, 152.6484
140.7358, 148.5039
141.2179, 143.5547
141.7000, 142.2109
142.1821, 143.9023
142.6643, 149.2305
143.1464, 162.3828
143.6285, 180.3398
144.1106, 191.6523
144.5927, 190.7852
145.0748, 185.5742
145.5570, 181.9922
146.0391, 180.2188
146.5212, 181.8750
147.0033, 192.3945
147.4854, 213.7930
147.9675, 224.2148
148.4497, 204.6484
148.9318, 181.9062
149.4139, 171.1172
149.8960, 175.2812
150.3781, 186.0312
150.8602, 191.9609
151.3424, 193.8438
151.8245, 188.2852
152.3066, 168.8594
152.7887, 147.0273
153.2708, 131.8398
153.7529, 126.7656
154.2351, 128.5898
154.7172, 129.3555
155.1993, 125.8594
155.6814, 125.3750
156.1635, 129.4531
156.6456, 136.2930
157.1278, 144.5820
157.6099, 153.8359
158.0920, 162.9023
158.5741, 166.5625
159.0562, 162.3828
159.5383, 156.2070
160.0205, 145.0938
160.5026, 132.4883
160.9847, 127.4180
161.4668, 137.1797
161.9489, 157.2617
162.4310, 167.0117
162.9131, 158.4414
163.3953, 148.1055
163.8774, 144.8164
164.3595, 148.2266
164.8416, 154.9102
165.3237, 165.0117
165.8058, 176.6055
166.2880, 185.2461
166.7701, 187.3555
167.2522, 187.1953
167.7343, 188.1523
168.2164, 191.4766
168.6985, 190.4531
169.1807, 175.2148
169.6628, 154.5742
170.1449, 139.5312
170.6270, 136.0938
171.1091, 139.6641
171.5912, 139.8906
172.0734, 135.7734
172.5555, 129.8672
173.0376, 121.6992
173.5197, 113.1055
174.0018, 106.4102
174.4839, 102.6602
174.9661, 102.1211
175.4482, 106.6211
175.9303, 123.8789
176.4124, 137.9102
176.8945, 143.8828
177.3766, 143.8164
177.8588, 141.2969
178.3409, 138.5703
178.8230, 135.6133
179.3051, 134.2070
179.7872, 133.8047
180.2693, 135.2891
180.7515, 139.4023
181.2336, 145.5820
181.7157, 152.6328
182.1978, 159.4414
182.6799, 165.7617
183.1620, 172.7734
183.6441, 184.5742
184.1263, 193.0938
184.6084, 192.3789
185.0905, 183.4531
185.5726, 172.7188
186.0547, 165.4492
186.5368, 162.1016
187.0190, 163.2383
187.5011, 174.6055
187.9832, 186.4023
188.4653, 191.2383
188.9474, 188.4570
189.4296, 182.3945
189.9117, 175.9375
190.3938, 169.3789
190.8759, 165.5469
191.3580, 164.9688
191.8401, 167.2930
192.3223, 174.7422
192.8044, 189.1836
193.2865, 200.2500
193.7686, 192.5000
194.2507, 171.6641
194.7328, 154.8945
195.2150, 146.7422
195.6971, 146.0430
196.1792, 152.5977
196.6613, 170.6992
197.1434, 186.4062
197.6255, 187.6562
198.1077, 178.1641
198.5898, 166.8672
199.0719, 156.2461
199.5540, 147.1562
200.0361, 143.5039
200.5182, 148.0391
201.0004, 154.5547
201.4825, 161.3008
201.9646, 167.6367
202.4467, 171.8516
202.9288, 172.2617
203.4109, 168.8398
203.8930, 163.0664
204.3752, 146.1445
204.8573, 137.9180
205.3394, 154.6211
205.8215, 186.4531
206.3036, 210.3945
206.7857, 205.7930
207.2679, 170.7109
207.7500, 148.5938
208.2321, 148.0781
208.7142, 153.4883
209.1963, 163.7031
209.6784, 176.3281
210.1606, 187.7852
210.6427, 195.4414
211.1248, 199.5742
211.6069, 195.7852
212.0890, 170.3242
212.5711, 150.2031
213.0533, 150.2188
213.5354, 166.6016
214.0175, 184.2070
214.4996, 188.4883
214.9817, 176.1562
215.4638, 173.9414
215.9460, 191.7695
216.4281, 208.6797
216.9102, 212.0742
217.3923, 203.6055
217.8744, 194.6484
218.3565, 195.9141
218.8387, 209.0156
219.3208, 218.9492
219.8029, 224.2227
220.2850, 227.9766
220.7671, 232.5664
221.2492, 237.7969
221.7314, 240.7656
222.2135, 237.1641
222.6956, 226.7617
223.1777, 226.5938
223.6598, 245.9180
224.1419, 268.5469
224.6240, 283.8047
225.1062, 290.9961
225.5883, 292.1797
226.0704, 287.3320
226.5525, 277.0664
227.0346, 267.8711
227.5167, 263.6250
227.9989, 258.5430
228.4810, 246.1523
228.9631, 226.0273
229.4452, 205.5859
229.9273, 191.4609
230.4094, 181.3398
230.8916, 168.4219
231.3737, 144.8047
231.8558, 121.7383
232.3379, 115.3555
232.8200, 128.2773
233.3021, 139.1641
233.7843, 129.0586
234.2664, 108.9219
234.7485, 95.64844
235.2306, 97.55859
235.7127, 104.6250
236.1948, 101.1562
236.6770, 83.51953
237.1591, 70.28906
237.6412, 76.13281
238.1233, 90.23047
238.6054, 102.0508
239.0875, 109.7266
239.5697, 111.7891
240.0518, 102.0859
240.5339, 73.95312
241.0160, 55.64062
241.4981, 67.92188
241.9802, 90.76172
242.4624, 104.8555
242.9445, 102.2773
243.4266, 92.34375
243.9087, 91.71875
244.3908, 104.3789
244.8729, 115.0938
245.3550, 118.8359
245.8372, 119.2383
246.3193, 119.2500
246.8014, 119.8359
247.2835, 119.7695
247.7656, 116.5312
248.2477, 108.1953
248.7299, 100.9727
249.2120, 98.07812
249.6941, 95.95703
250.1762, 90.40625
250.6583, 79.87891
251.1404, 67.85156
251.6226, 60.67188
252.1047, 63.57422
252.5868, 59.53516
253.0689, 43.25000
253.5510, 23.45703
254.0331, 4.796875
254.5153, 10.92969
254.9974, 22.86328
255.4795, 29.23438
255.9616, 26.66016
256.4437, 25.16797
256.9258, 25.83984
257.4080, 26.60938
257.8901, 25.40625
258.3722, 22.18750
258.8543, 19.22266
259.3364, 20.10156
259.8185, 28.01172
260.3007, 31.64062
260.7828, 27.40625
261.2649, 22.71484
261.7470, 24.66406
262.2291, 32.51562
262.7112, 37.82031
263.1934, 29.69922
263.6755, 1.734375
264.1576, 15.79688
264.6397, 17.08984
265.1218, 14.89453
265.6039, 14.57812
266.0861, 17.19141
266.5682, 21.96094
267.0503, 27.86719
267.5324, 34.19531
268.0145, 47.17188
268.4966, 77.55078
268.9788, 103.5586
269.4609, 111.9531
269.9430, 105.3203
270.4251, 95.37109
270.9072, 91.25781
271.3893, 93.16406
271.8715, 97.38281
272.3536, 105.4648
272.8357, 113.7461
273.3178, 119.8281
273.7999, 124.6133
274.2820, 131.4375
274.7642, 143.2930
275.2463, 159.2461
275.7284, 167.5469
276.2105, 161.6406
276.6926, 156.9922
277.1747, 162.3906
277.6568, 172.9961
278.1389, 176.8555
278.6211, 166.4805
279.1032, 145.9922
279.5853, 133.3086
280.0674, 128.1953
280.5495, 129.1797
281.0316, 145.6484
281.5138, 167.0195
281.9959, 172.5586
282.4780, 151.9922
282.9601, 115.4648
283.4422, 88.67578
283.9243, 71.98828
284.4065, 62.07031
284.8886, 63.35156
285.3707, 69.80859
285.8528, 71.86719
286.3349, 65.99219
286.8170, 57.41797
287.2992, 54.71875
287.7813, 58.32031
288.2634, 65.55859
288.7455, 77.78516
289.2276, 92.71484
289.7097, 107.8867
290.1919, 122.7266
290.6740, 137.2109
291.1561, 151.8164
291.6382, 166.8555
292.1203, 178.6211
292.6024, 184.8555
293.0846, 188.6523
293.5667, 193.0234
294.0488, 198.3242
294.5309, 203.1953
295.0130, 206.8633
295.4951, 209.0039
295.9773, 207.6758
296.4594, 200.0117
296.9415, 190.6523
297.4236, 182.7695
297.9057, 176.4531
298.3878, 170.6523
298.8700, 164.1562
299.3521, 157.5156
299.8342, 154.2188
300.3163, 161.1836
300.7984, 164.9375
301.2805, 155.2305
301.7627, 134.5703
302.2448, 114.2422
302.7269, 99.97266
303.2090, 90.24609
303.6911, 80.10156
304.1732, 69.75391
304.6554, 59.57031
305.1375, 50.25000
305.6196, 40.80078
306.1017, 28.92188
306.5838, 12.64062
307.0659, 2.230469
307.5481, 3.316406
308.0302, 10.73047
308.5123, 27.73828
308.9944, 49.29688
309.4765, 70.00781
309.9586, 78.10547
310.4408, 68.38281
310.9229, 51.94531
311.4050, 43.92188
311.8871, 44.91406
312.3692, 47.80469
312.8513, 54.30078
313.3335, 60.77344
313.8156, 61.51172
314.2977, 55.12109
314.7798, 49.28125
315.2619, 51.79688
315.7440, 61.66016
316.2262, 68.57812
316.7083, 67.19531
317.1904, 66.12500
317.6725, 75.04688
318.1546, 92.91406
318.6367, 106.1836
319.1188, 103.1719
319.6010, 87.89453
320.0831, 81.47266
320.5652, 90.83984
321.0473, 102.4922
321.5294, 112.5234
322.0115, 119.1250
322.4937, 117.7070
322.9758, 104.5469
323.4579, 84.14844
323.9400, 67.60547
324.4221, 52.87109
324.9042, 45.10547
325.3864, 51.60938
325.8685, 65.68359
326.3506, 73.42578
326.8327, 69.45703
327.3148, 62.25781
327.7969, 66.96094
328.2791, 86.37891
328.7612, 99.79688
329.2433, 97.66016
329.7254, 90.29688
330.2075, 89.95703
330.6896, 98.77734
331.1718, 110.5898
331.6539, 118.5703
332.1360, 122.3945
332.6181, 132.6523
333.1002, 158.6406
333.5823, 184.3242
334.0645, 194.5586
334.5466, 190.9531
335.0287, 189.9531
335.5108, 203.3359
335.9929, 229.2773
336.4750, 252.4180
336.9572, 269.5469
337.4393, 287.4219
337.9214, 309.0938
338.4035, 333.6094
338.8856, 359.0547
339.3677, 384.8555
339.8499, 410.0039
340.3320, 431.3438
340.8141, 446.2227
341.2962, 462.3945
341.7783, 478.6289
342.2604, 497.8555
342.7426, 525.7422
343.2247, 563.8711
343.7068, 605.2930
344.1889, 640.7031
344.6710, 668.8477
345.1531, 693.2188
345.6353, 710.7148
346.1174, 726.6523
346.5995, 748.8203
347.0816, 775.8477
347.5637, 796.9844
348.0458, 803.8477
348.5280, 796.1758
349.0101, 766.8242
349.4922, 708.9297
349.9743, 640.7344
350.4564, 564.8828
350.9385, 485.3555
351.4207, 407.7109
351.9028, 335.1133
352.3849, 268.3672
352.8670, 210.6602
353.3491, 156.1445
353.8312, 117.9883
354.3134, 109.7891
354.7955, 114.2383
355.2776, 111.4648
355.7597, 94.57031
356.2418, 69.58594
356.7239, 45.79297
357.2061, 19.06250
357.6882, 3.179688
358.1703, 3.722656
358.6524, 9.578125
359.1345, 14.46484
359.6166, 17.03906
360.0987, 18.33984
360.5808, 19.55078
361.0630, 20.91797
361.5451, 18.25391
362.0272, 4.117188
362.5093, 6.296875
362.9914, 3.335938
363.4735, 6.714844
363.9557, 11.40234
364.4378, 2.714844
364.9199, 16.37891
365.4020, 31.18750
365.8841, 39.81250
366.3662, 44.85156
366.8484, 48.37109
367.3305, 47.79688
367.8126, 38.23828
368.2947, 18.78516
368.7768, 3.183594
369.2589, 16.43750
369.7411, 19.61328
370.2232, 17.26172
370.7053, 4.496094
371.1874, 9.234375
371.6695, 21.16016
372.1516, 29.95312
372.6338, 33.97266
373.1159, 30.59375
373.5980, 20.13672
374.0801, 11.87891
374.5622, 9.972656
375.0443, 5.218750
375.5265, 9.238281
376.0086, 27.43750
376.4907, 39.60547
376.9728, 40.03125
377.4549, 34.07812
377.9370, 33.18359
378.4192, 37.66406
378.9013, 46.60938
379.3834, 65.19141
379.8655, 84.94141
380.3476, 97.60547
380.8297, 101.7383
381.3119, 106.5000
381.7940, 122.5312
382.2761, 149.6367
382.7582, 174.5430
383.2403, 193.5508
383.7224, 212.6523
384.2046, 236.2344
384.6867, 263.3711
385.1688, 291.0703
385.6509, 314.1367
386.1330, 337.0195
386.6151, 372.7617
387.0973, 425.3906
387.5794, 475.4727
388.0615, 506.8516
388.5436, 529.9102
389.0257, 559.2422
389.5078, 598.3672
389.9900, 642.4023
390.4721, 688.4336
390.9542, 736.1523
391.4363, 782.7812
391.9184, 827.1875
392.4005, 870.3008
392.8827, 914.8086
393.3648, 961.3789
393.8469, 1003.383
394.3290, 1035.926
394.8111, 1063.203
395.2932, 1091.145
395.7754, 1120.914
396.2575, 1152.281
396.7396, 1189.656
397.2217, 1230.688
397.7038, 1253.984
398.1859, 1250.801
398.6681, 1236.871
399.1501, 1220.602
399.6323, 1202.004
400.1144, 1180.152
400.5965, 1154.812
401.0786, 1125.344
401.5607, 1089.629
402.0428, 1044.820
402.5250, 999.3867
403.0071, 955.9414
403.4892, 911.7773
403.9713, 862.9258
404.4534, 808.9375
404.9355, 753.9648
405.4177, 702.6602
405.8998, 655.6250
406.3819, 611.8242
406.8640, 575.2578
407.3461, 538.0078
407.8282, 491.8477
408.3104, 441.4844
408.7925, 398.7461
409.2746, 370.8906
409.7567, 355.5234
410.2388, 340.7930
410.7209, 333.3047
411.2031, 317.3750
411.6852, 282.0664
412.1673, 243.1602
412.6494, 216.9648
413.1315, 207.0430
413.6136, 203.3516
414.0958, 192.4922
414.5779, 172.2070
415.0600, 153.3047
415.5421, 137.1406
416.0242, 121.5312
416.5063, 104.9570
416.9885, 88.21094
417.4706, 72.80078
417.9527, 57.66016
418.4348, 46.30078
418.9169, 52.84375
419.3990, 87.35938
419.8812, 116.9688
420.3633, 129.3086
420.8454, 134.1523
421.3275, 140.0625
421.8096, 148.7344
422.2917, 154.4688
422.7739, 148.9258
423.2560, 132.8594
423.7381, 118.8555
424.2202, 106.3867
424.7023, 100.1953
425.1844, 107.1562
425.6666, 124.0820
426.1487, 138.2461
426.6308, 140.5078
427.1129, 137.6133
427.5950, 139.6836
428.0771, 146.6445
428.5593, 159.2383
429.0414, 182.7305
429.5235, 209.3594
430.0056, 222.5938
430.4877, 219.5898
430.9698, 211.4570
431.4520, 199.8320
431.9341, 187.9531
432.4162, 182.3984
432.8983, 185.4297
433.3804, 193.9219
433.8625, 204.8867
434.3447, 218.7695
434.8268, 228.1133
435.3089, 228.8438
435.7910, 228.0430
436.2731, 227.8750
436.7552, 229.7539
437.2374, 238.1797
437.7195, 256.8711
438.2016, 281.8594
438.6837, 298.0234
439.1658, 292.7266
439.6479, 294.7891
440.1301, 305.7422
440.6122, 325.2227
441.0943, 358.9297
441.5764, 404.9023
442.0585, 447.7969
442.5406, 469.5117
443.0227, 467.9609
443.5049, 461.6875
443.9870, 439.6172
444.4691, 424.6367
444.9512, 429.8750
445.4333, 446.0117
445.9154, 457.7383
446.3976, 457.1445
446.8797, 447.9531
447.3618, 437.8086
447.8439, 426.1992
448.3260, 414.8789
448.8081, 404.7852
449.2903, 394.3398
449.7724, 378.1758
450.2545, 358.0820
450.7366, 346.9922
451.2187, 363.7539
451.7008, 399.4258
452.1830, 413.7617
452.6651, 399.3281
453.1472, 379.9609
453.6293, 363.3320
454.1114, 352.0273
454.5935, 352.0312
455.0757, 367.8828
455.5578, 388.6797
456.0399, 409.1328
456.5220, 427.8320
457.0041, 437.8711
457.4862, 435.5781
457.9684, 427.6836
458.4505, 423.6680
458.9326, 423.8008
459.4147, 418.7383
459.8968, 403.3867
460.3789, 384.9316
460.8611, 371.2070
461.3432, 361.2793
461.8253, 346.4219
462.3074, 319.5273
462.7895, 285.4336
463.2716, 263.4258
463.7538, 264.7969
464.2359, 262.6973
464.7180, 252.0938
465.2001, 237.5078
465.6822, 219.7578
466.1643, 200.7871
466.6465, 189.9941
467.1286, 199.2734
467.6107, 231.4512
468.0928, 250.9043
468.5749, 250.2988
469.0570, 244.6797
469.5392, 232.5156
470.0213, 219.0703
470.5034, 212.9297
470.9855, 218.1172
471.4676, 227.3535
471.9497, 227.3613
472.4319, 215.5977
472.9140, 206.4922
473.3961, 207.5039
473.8782, 207.1484
474.3603, 196.0312
474.8424, 177.2266
475.3246, 163.1602
475.8067, 165.8945
476.2888, 176.8418
476.7709, 175.8574
477.2530, 161.2090
477.7351, 146.1113
478.2173, 134.1406
478.6994, 127.2676
479.1815, 128.8398
479.6636, 141.1387
480.1457, 152.5820
480.6278, 154.1270
481.1100, 152.2188
481.5920, 161.3105
482.0742, 184.3027
482.5563, 204.7480
483.0384, 206.2285
483.5205, 188.5762
484.0026, 174.0918
484.4847, 159.9492
484.9669, 152.2188
485.4490, 154.3027
485.9311, 162.6992
486.4132, 173.2305
486.8953, 184.5117
487.3774, 193.4121
487.8596, 194.4863
488.3417, 184.5039
488.8238, 175.0996
489.3059, 164.8652
489.7880, 156.6348
490.2701, 153.2051
490.7523, 153.0996
491.2344, 152.6953
491.7165, 149.7480
492.1986, 145.5547
492.6807, 143.5820
493.1628, 144.6758
493.6450, 145.9004
494.1271, 148.7969
494.6092, 150.1895
495.0913, 147.9434
495.5734, 141.9355
496.0555, 133.0410
496.5377, 119.3613
497.0198, 103.5957
497.5019, 93.44336
497.9840, 89.44531
498.4661, 87.95898
498.9482, 91.16602
499.4304, 94.16602
499.9125, 86.45312
500.3946, 61.76758
500.8767, 40.44336
501.3588, 32.63477
501.8409, 35.10547
502.3231, 44.59961
502.8052, 60.30078
503.2873, 72.91797
503.7694, 73.40820
504.2515, 61.54688
504.7336, 51.10938
505.2158, 38.66602
505.6979, 31.01758
506.1800, 33.21094
506.6621, 40.81055
507.1442, 47.38672
507.6263, 50.47852
508.1085, 51.66992
508.5906, 53.19141
509.0727, 54.77930
509.5548, 57.21484
510.0369, 65.21680
510.5190, 69.10742
511.0012, 59.90625
511.4833, 44.42188
511.9654, 35.60938
512.4475, 40.23242
512.9296, 53.45117
513.4117, 70.44727
513.8939, 93.51367
514.3760, 102.1289
514.8581, 80.90820
515.3402, 54.55664
515.8223, 44.79102
516.3044, 49.60156
516.7866, 53.70312
517.2687, 48.64844
517.7508, 40.67188
518.2329, 38.11328
518.7150, 40.75586
519.1971, 43.52930
519.6793, 44.23242
520.1614, 43.42188
520.6435, 42.76953
521.1256, 43.43945
521.6077, 40.81055
522.0898, 32.25781
522.5720, 21.32031
523.0541, 9.208984
523.5362, 2.673828
524.0183, 11.15039
524.5004, 14.00586
524.9825, 11.20312
525.4647, 1.853516
525.9468, 29.08398
526.4289, 44.49609
526.9110, 30.45508
527.3931, 8.128906
527.8752, 6.279297
528.3574, 10.41406
528.8395, 10.42773
529.3216, 11.16016
529.8037, 12.30664
530.2858, 11.94531
530.7679, 8.972656
531.2501, 6.949219
531.7322, 8.642578
532.2143, 11.54102
532.6964, 13.38086
533.1785, 13.84375
533.6606, 13.33008
534.1428, 10.91602
534.6249, 8.048828
535.1070, 9.033203
535.5891, 14.89258
536.0712, 18.83203
536.5533, 14.10742
537.0355, 2.923828
537.5176, 1.017578
537.9997, 12.19531
538.4818, 19.88086
538.9639, 12.30859
539.4460, 2.785156
539.9282, 19.02344
540.4103, 33.64648
540.8924, 40.50391
541.3745, 31.21875
541.8566, 5.035156
542.3387, 10.53320
542.8209, 8.371094
543.3029, 3.291016
543.7850, 2.988281
544.2672, 10.11133
544.7493, 19.63086
545.2314, 31.56445
545.7135, 39.94922
546.1956, 35.89062
546.6777, 20.65625
547.1599, 9.574219
547.6420, 4.117188
548.1241, 1.582031
548.6062, 1.759766
549.0883, 3.580078
549.5704, 5.033203
550.0526, 4.548828
550.5347, 6.478516
551.0168, 17.39062
551.4989, 31.98828
551.9810, 38.66797
552.4631, 34.90039
552.9453, 26.49609
553.4274, 18.01367
553.9095, 9.347656
554.3916, 3.433594
554.8737, 0.9101560
555.3558, 1.732422
555.8380, 2.835938
556.3201, 10.47656
556.8022, 20.75586
557.2843, 32.50195
557.7664, 39.82812
558.2485, 34.27148
558.7307, 15.25391
559.2128, 1.529297
559.6949, 5.982422
560.1770, 8.689453
560.6591, 3.220703
561.1412, 4.486328
561.6234, 6.136719
562.1055, 0.8613280
562.5876, 7.792969
563.0697, 6.294922
563.5518, 1.474609
564.0339, 8.667969
564.5161, 14.70117
564.9982, 18.81641
565.4803, 18.06641
565.9624, 15.07812
566.4445, 20.62500
566.9266, 43.42773
567.4088, 62.26758
567.8909, 69.22070
568.3730, 68.55273
568.8551, 62.84961
569.3372, 53.98828
569.8193, 48.23047
570.3015, 52.70508
570.7836, 66.41992
571.2657, 70.91602
571.7478, 49.61914
572.2299, 41.48047
572.7120, 63.00391
573.1942, 93.01953
573.6763, 112.7637
574.1584, 119.0234
574.6405, 119.1934
575.1226, 117.6016
575.6047, 114.9492
576.0869, 115.0273
576.5690, 118.7012
577.0511, 121.0645
577.5332, 118.9922
578.0153, 114.6484
578.4974, 111.8477
578.9796, 111.0430
579.4617, 109.9668
579.9438, 108.7832
580.4259, 106.3906
580.9080, 101.1816
581.3901, 93.32422
581.8723, 83.18945
582.3544, 70.58984
582.8365, 58.19336
583.3186, 53.90234
583.8007, 61.59570
584.2828, 71.52734
584.7650, 92.23438
585.2471, 107.9824
585.7292, 105.8438
586.2113, 88.88867
586.6934, 68.39648
587.1755, 49.06641
587.6577, 34.55273
588.1398, 36.26367
588.6219, 56.96875
589.1040, 75.59375
589.5861, 85.92188
590.0682, 93.10547
590.5504, 103.8984
591.0325, 117.6660
591.5146, 125.2109
591.9967, 118.6914
592.4788, 108.2539
592.9609, 99.80859
593.4431, 94.11328
593.9252, 95.24805
594.4073, 105.6680
594.8894, 118.6914
595.3715, 122.3477
595.8536, 109.8594
596.3358, 115.7617
596.8179, 167.9258
597.3000, 206.6777
597.7821, 201.8242
598.2642, 173.2227
598.7463, 148.2715
599.2285, 136.4453
599.7106, 131.6680
600.1927, 124.3652
600.6748, 115.6504
601.1569, 119.2793
601.6390, 142.0781
602.1212, 163.3438
602.6033, 168.9258
603.0854, 166.0664
603.5675, 166.0605
604.0496, 172.2480
604.5317, 175.1035
605.0139, 167.0645
605.4960, 153.9297
605.9781, 142.8418
606.4602, 135.2578
606.9423, 133.5312
607.4244, 141.1641
607.9066, 154.1953
608.3887, 154.0430
608.8708, 124.3027
609.3529, 105.0957
609.8350, 103.4688
610.3171, 108.2070
610.7993, 113.5469
611.2814, 118.1289
611.7635, 121.5840
612.2456, 123.5879
612.7277, 123.9609
613.2098, 122.8750
613.6920, 120.5547
614.1741, 115.6309
614.6562, 105.6309
615.1383, 95.18750
615.6204, 89.64062
616.1025, 87.99023
616.5847, 84.65234
617.0668, 75.42383
617.5489, 66.46875
618.0310, 61.63281
618.5131, 60.85352
618.9952, 65.87500
619.4774, 76.32422
619.9595, 81.29883
620.4416, 65.59570
620.9237, 27.01367
621.4058, 9.316406
621.8879, 30.80273
622.3701, 51.04688
622.8522, 65.74023
623.3343, 73.11523
623.8164, 67.88672
624.2985, 50.54688
624.7806, 35.11328
625.2628, 36.34180
625.7448, 47.74219
626.2269, 51.43555
626.7090, 46.46094
627.1912, 39.90820
627.6733, 32.29883
628.1554, 27.48438
628.6375, 36.22070
629.1196, 63.43164
629.6017, 78.70312
630.0839, 70.33789
630.5660, 54.96094
631.0481, 38.47461
631.5302, 24.70508
632.0123, 20.75391
632.4944, 29.92188
632.9766, 45.51953
633.4587, 57.66211
633.9408, 67.11719
634.4229, 68.32422
634.9050, 52.28711
635.3871, 39.83203
635.8693, 43.12500
636.3514, 54.41602
636.8335, 62.17383
637.3156, 63.53906
637.7977, 62.07031
638.2798, 59.02344
638.7620, 55.41992
639.2441, 52.81836
639.7262, 51.54102
640.2083, 51.49023
640.6904, 52.70117
641.1725, 54.98633
641.6547, 57.73242
642.1368, 65.16211
642.6189, 66.29688
643.1010, 55.05859
643.5831, 42.82812
644.0652, 35.95117
644.5474, 34.15039
645.0295, 35.21484
645.5116, 38.53320
645.9937, 41.79688
646.4758, 42.41797
646.9579, 40.39062
647.4401, 30.64062
647.9222, 7.962891
648.4043, 12.57617
648.8864, 16.79102
649.3685, 9.328125
649.8506, 4.468750
650.3328, 3.857422
650.8149, 4.585938
651.2970, 6.494141
651.7791, 8.316406
652.2612, 7.736328
652.7433, 4.994141
653.2255, 3.880859
653.7076, 8.111328
654.1897, 14.26953
654.6718, 8.126953
655.1539, 17.49219
655.6360, 37.55469
656.1182, 44.11133
656.6003, 47.53711
657.0824, 50.97656
657.5645, 55.50781
658.0466, 64.36523
658.5287, 83.03711
659.0109, 99.20117
659.4930, 97.89453
659.9751, 84.79492
660.4572, 76.53516
660.9393, 76.80469
661.4214, 77.16992
661.9036, 69.19531
662.3857, 54.31250
662.8678, 47.24023
663.3499, 57.41992
663.8320, 63.60352
664.3141, 60.16797
664.7963, 55.41602
665.2784, 55.36328
665.7605, 60.42383
666.2426, 69.02539
666.7247, 81.98047
667.2068, 95.02148
667.6890, 100.5566
668.1711, 98.63867
668.6532, 89.67383
669.1353, 69.56055
669.6174, 52.75781
670.0995, 56.87305
670.5817, 79.12891
671.0638, 89.85742
671.5459, 80.48828
672.0280, 69.25781
672.5101, 57.09961
672.9922, 48.71875
673.4744, 52.56250
673.9565, 66.91797
674.4386, 78.98633
674.9207, 78.24414
675.4028, 69.21484
675.8849, 67.10156
676.3671, 73.70312
676.8492, 79.00586
677.3313, 77.26562
677.8134, 78.13672
678.2955, 95.33398
678.7776, 122.3652
679.2598, 135.3125
679.7419, 122.5977
680.2240, 102.5430
680.7061, 76.90234
681.1882, 54.43945
681.6703, 53.23633
682.1525, 73.97852
682.6346, 96.17969
683.1167, 103.0625
683.5988, 97.58398
684.0809, 93.85938
684.5630, 91.60156
685.0452, 91.86914
685.5273, 93.70508
686.0094, 99.15234
686.4915, 115.4434
686.9736, 136.6562
687.4557, 144.8477
687.9379, 127.3398
688.4200, 105.0684
688.9021, 94.98438
689.3842, 94.44531
689.8663, 99.05664
690.3484, 108.5312
690.8306, 117.4668
691.3127, 121.8242
691.7948, 121.9570
692.2769, 117.8945
692.7590, 101.2598
693.2411, 94.43164
693.7233, 107.0801
694.2054, 121.8848
694.6875, 131.0293
695.1696, 133.7246
695.6517, 129.8359
696.1339, 118.0801
696.6160, 104.0430
697.0981, 92.21289
697.5802, 83.15430
698.0623, 78.70898
698.5444, 79.31836
699.0266, 83.27539
699.5087, 90.75000
699.9908, 99.56445
700.4729, 101.8105
700.9550, 88.95312
701.4371, 81.97461
701.9193, 83.75391
702.4014, 88.90820
702.8835, 97.61914
703.3656, 106.4707
703.8477, 107.6504
704.3298, 97.09180
704.8120, 86.46094
705.2941, 94.20508
705.7762, 115.7812
706.2583, 127.7266
706.7404, 127.9707
707.2225, 124.4883
707.7046, 119.2793
708.1867, 113.6562
708.6688, 112.7324
709.1509, 121.6992
709.6331, 122.4844
710.1152, 100.5938
710.5973, 83.25781
711.0794, 91.51758
711.5615, 113.9805
712.0436, 129.1406
712.5258, 129.9707
713.0079, 126.0801
713.4900, 128.2598
713.9721, 135.2441
714.4542, 142.0000
714.9363, 149.8184
715.4185, 147.2656
715.9006, 122.8496
716.3827, 91.90234
716.8648, 82.35547
717.3469, 98.32031
717.8290, 108.9922
718.3112, 107.9297
718.7933, 105.3164
719.2754, 106.6953
719.7575, 109.5137
720.2396, 109.7188
720.7217, 106.2734
721.2039, 100.5391
721.6860, 93.26758
722.1681, 84.85938
722.6502, 78.43750
723.1323, 74.88281
723.6144, 64.33398
724.0966, 38.19141
724.5787, 12.33008
725.0608, 9.087891
725.5429, 27.89258
726.0250, 37.46094
726.5071, 30.35742
726.9893, 20.99414
727.4714, 9.736328
727.9535, 2.074219
728.4356, 6.259766
728.9177, 21.52930
729.3998, 39.21289
729.8820, 53.55469
730.3641, 63.22852
730.8462, 62.62305
731.3283, 51.14648
731.8104, 48.19727
732.2925, 59.81055
732.7747, 73.30469
733.2568, 80.48633
733.7389, 82.72070
734.2210, 87.62109
734.7031, 94.19922
735.1852, 103.6113
735.6674, 124.0762
736.1495, 141.2695
736.6316, 140.4277
737.1137, 125.7578
737.5958, 112.1875
738.0779, 107.3008
738.5601, 103.8555
739.0422, 87.25586
739.5243, 60.02539
740.0064, 48.14648
740.4885, 57.22461
740.9706, 65.98047
741.4528, 62.26953
741.9349, 51.43359
742.4170, 45.50977
742.8991, 47.28516
743.3812, 44.01953
743.8633, 29.78906
744.3455, 15.76367
744.8276, 8.710938
745.3097, 5.636719
745.7918, 0.3417970
746.2739, 10.34570
746.7560, 15.38281
747.2382, 0.9160160
747.7203, 28.93359
748.2024, 33.94336
748.6845, 15.34766
749.1666, 1.894531
749.6487, 3.992188
750.1309, 12.80078
750.6130, 18.07031
751.0951, 19.35742
751.5772, 23.59570
752.0593, 33.19727
752.5414, 41.69141
753.0236, 48.16211
753.5057, 51.93359
753.9878, 48.21875
754.4699, 40.24219
754.9520, 41.09570
755.4341, 61.41016
755.9163, 86.61719
756.3984, 97.19336
756.8805, 94.91211
757.3626, 86.87695
757.8447, 74.00391
758.3268, 58.84570
758.8090, 42.24023
759.2911, 25.90820
759.7732, 15.14062
760.2553, 11.88477
760.7374, 11.89062
761.2195, 20.39648
761.7017, 27.44922
762.1838, 31.83398
762.6659, 30.92969
763.1480, 17.83984
763.6301, 9.833984
764.1122, 33.56445
764.5944, 38.47070
765.0765, 31.44531
765.5586, 20.70703
766.0407, 7.830078
766.5228, 1.861328
767.0049, 5.984375
767.4871, 8.232422
767.9692, 13.53125
768.4513, 21.73242
768.9334, 28.79102
769.4155, 31.90820
769.8976, 37.70508
770.3798, 49.69531
770.8619, 62.75000
771.3440, 73.90039
771.8261, 82.64062
772.3082, 88.19531
772.7903, 89.57422
773.2725, 88.75781
773.7546, 85.17383
774.2367, 81.33398
774.7188, 83.56641
775.2009, 90.99414
775.6830, 93.66406
776.1652, 84.61719
776.6473, 68.79492
777.1294, 57.76758
777.6115, 52.29297
778.0936, 46.83008
778.5757, 40.30078
779.0579, 35.37891
779.5400, 35.61914
780.0221, 37.56250
780.5042, 35.08008
780.9863, 26.79883
781.4684, 19.59180
781.9506, 15.31055
782.4327, 12.24609
782.9148, 8.753906
783.3969, 5.906250
783.8790, 6.441406
784.3611, 10.49805
784.8433, 13.73047
785.3254, 11.55078
785.8075, 5.675781
786.2896, 0.5332030
786.7717, 3.917969
787.2538, 0.6445310
787.7360, 15.67188
788.2181, 28.98047
788.7002, 21.33789
789.1823, 3.566406
789.6644, 13.91602
790.1465, 5.968750
790.6286, 17.16602
791.1107, 8.869141
791.5928, 1.507813
792.0750, 3.087891
792.5571, 2.246094
793.0392, 8.500000
793.5213, 13.58594
794.0034, 19.16992
794.4855, 29.71484
794.9677, 40.53906
795.4498, 40.87695
795.9319, 31.76953
796.4140, 23.91406
796.8961, 21.53125
797.3782, 23.65234
797.8604, 30.42578
798.3425, 42.29297
798.8246, 42.39258
799.3067, 19.91992
799.7888, 4.810547
800.2709, 10.95312
800.7531, 21.91211
801.2352, 27.63477
801.7173, 27.76758
802.1994, 22.80469
802.6815, 6.658203
803.1636, 5.246094
803.6458, 10.57617
804.1279, 4.070313
804.6100, 34.24219
805.0921, 94.31055
805.5742, 133.6289
806.0563, 128.0820
806.5385, 102.9668
807.0206, 100.4102
807.5027, 118.5000
807.9848, 123.3359
808.4669, 111.3574
808.9490, 96.78320
809.4312, 85.62891
809.9133, 75.65625
810.3954, 62.51172
810.8775, 44.71094
811.3596, 34.57617
811.8417, 38.74414
812.3239, 42.24023
812.8060, 40.26172
813.2881, 36.42773
813.7702, 31.25586
814.2523, 27.32617
814.7344, 33.38672
815.2166, 59.07422
815.6987, 85.11523
816.1808, 88.88672
816.6629, 78.28906
817.1450, 69.16602
817.6271, 63.75586
818.1093, 61.20508
818.5914, 60.93750
819.0735, 63.36523
819.5556, 70.70508
820.0377, 84.90039
820.5198, 88.37891
821.0020, 71.72461
821.4841, 60.52734
821.9662, 72.87305
822.4483, 89.96875
822.9304, 87.95117
823.4125, 67.75977
823.8947, 55.19336
824.3768, 61.13086
824.8589, 68.05273
825.3410, 65.99805
825.8231, 63.04297
826.3052, 72.88867
826.7874, 91.85742
827.2695, 100.8770
827.7516, 87.83789
828.2337, 67.68750
828.7158, 61.09570
829.1979, 65.54883
829.6801, 72.33203
830.1622, 80.64844
830.6443, 83.31836
831.1264, 75.33203
831.6085, 63.51367
832.0906, 59.34375
832.5728, 64.21289
833.0549, 65.55078
833.5370, 56.51953
834.0191, 53.48438
834.5012, 67.82812
834.9833, 82.96484
835.4655, 83.23438
835.9476, 71.11914
836.4297, 62.19922
836.9118, 62.69727
837.3939, 65.27344
837.8760, 65.69727
838.3582, 66.49023
838.8403, 73.33398
839.3224, 83.29883
839.8045, 85.69141
840.2866, 75.53516
840.7687, 63.48047
841.2509, 66.80469
841.7330, 81.88281
842.2151, 85.17578
842.6972, 75.27734
843.1793, 71.91016
843.6614, 83.86523
844.1436, 99.10352
844.6257, 102.4336
845.1078, 94.66406
845.5899, 97.31641
846.0720, 122.0078
846.5541, 138.6836
847.0363, 139.9473
847.5184, 135.8867
848.0005, 133.2852
848.4826, 131.0195
848.9647, 127.9199
849.4468, 123.6484
849.9290, 118.1992
850.4111, 108.2891
850.8932, 100.2402
851.3753, 105.1328
851.8574, 116.6035
852.3395, 118.2129
852.8217, 105.8594
853.3038, 89.92188
853.7859, 79.32617
854.2680, 74.52344
854.7501, 80.78711
855.2322, 98.19922
855.7144, 103.1484
856.1965, 88.93164
856.6786, 70.38672
857.1607, 56.76172
857.6428, 48.60547
858.1249, 47.86523
858.6071, 61.32227
859.0892, 65.85742
859.5713, 49.61523
860.0534, 38.43945
860.5355, 46.04492
861.0176, 60.39648
861.4998, 66.05664
861.9819, 62.52734
862.4640, 63.04297
862.9461, 80.51172
863.4282, 94.61328
863.9103, 86.60938
864.3925, 69.32617
864.8746, 61.88086
865.3567, 64.34375
865.8388, 63.99805
866.3209, 53.08203
866.8030, 38.71680
867.2852, 30.78125
867.7673, 28.92578
868.2494, 33.31445
868.7315, 44.31836
869.2136, 49.07422
869.6957, 40.66211
870.1779, 29.27930
870.6600, 29.26758
871.1421, 40.75586
871.6242, 47.57422
872.1063, 48.43164
872.5884, 46.83203
873.0705, 42.20508
873.5526, 36.21289
874.0347, 26.86719
874.5168, 17.30469
874.9990, 16.03125
875.4811, 28.86914
875.9632, 36.22656
876.4453, 25.16602
876.9274, 12.20898
877.4095, 9.658203
877.8917, 13.91406
878.3738, 18.65234
878.8559, 21.81250
879.3380, 22.78711
879.8201, 20.71484
880.3022, 16.75977
880.7844, 8.667969
881.2665, 0.1054690
881.7486, 10.00391
882.2307, 39.77930
882.7128, 59.06445
883.1949, 46.66602
883.6771, 20.63086
884.1592, 21.61719
884.6413, 55.40820
885.1234, 70.66602
885.6055, 60.15430
886.0876, 48.32422
886.5698, 43.05469
887.0519, 40.46094
887.5340, 35.06445
888.0161, 27.64258
888.4982, 25.28711
888.9803, 36.99219
889.4625, 42.47656
889.9446, 30.30859
890.4267, 19.25000
890.9088, 25.10547
891.3909, 41.12109
891.8730, 51.38672
892.3552, 51.75000
892.8373, 51.98438
893.3194, 63.05273
893.8015, 73.25195
894.2836, 69.76758
894.7657, 55.82422
895.2479, 34.58594
895.7300, 9.869141
896.2121, 4.773438
896.6942, 2.470703
897.1763, 19.98438
897.6584, 22.67969
898.1406, 12.56250
898.6227, 11.80469
899.1048, 23.26367
899.5869, 29.89258
900.0690, 21.56445
900.5511, 10.21484
901.0333, 15.33203
901.5154, 38.15430
901.9975, 46.47852
902.4796, 28.87891
902.9617, 18.63281
903.4438, 31.52734
903.9260, 44.39258
904.4081, 37.06250
904.8902, 18.27344
905.3723, 11.72656
905.8544, 25.55078
906.3365, 35.65820
906.8187, 29.84570
907.3008, 25.37695
907.7829, 37.64258
908.2650, 54.83984
908.7471, 58.12891
909.2292, 46.38672
909.7114, 35.84766
910.1935, 35.51562
910.6756, 40.99805
911.1577, 53.29492
911.6398, 65.95312
912.1219, 65.52930
912.6041, 52.80078
913.0862, 37.83984
913.5683, 25.55078
914.0504, 15.07422
914.5325, 4.136719
915.0146, 6.105469
915.4968, 9.455078
915.9789, 5.525391
916.4610, 0.9316410
916.9431, 9.898438
917.4252, 17.19922
917.9073, 18.65820
918.3895, 15.96875
918.8716, 14.94141
919.3537, 12.97266
919.8358, 19.86328
920.3179, 47.05078
920.8000, 65.47266
921.2822, 51.59961
921.7643, 29.78711
922.2464, 30.83008
922.7285, 54.09570
923.2106, 65.48438
923.6927, 48.82617
924.1749, 35.60938
924.6570, 38.70312
925.1391, 43.10938
925.6212, 34.74023
926.1033, 20.37695
926.5854, 17.13867
927.0676, 30.42383
927.5497, 42.84180
928.0318, 42.33984
928.5139, 36.88086
928.9960, 32.41992
929.4781, 28.65820
929.9603, 28.16016
930.4424, 30.21289
930.9245, 28.76953
931.4066, 19.15625
931.8887, 8.595703
932.3708, 10.49414
932.8530, 21.58203
933.3351, 28.45117
933.8172, 30.31445
934.2993, 28.37305
934.7814, 22.39648
935.2635, 19.36328
935.7457, 28.27734
936.2278, 45.88672
936.7099, 52.83594
937.1920, 45.93555
937.6741, 42.50000
938.1563, 46.16797
938.6384, 49.17188
939.1205, 47.16992
939.6026, 42.07422
940.0847, 36.58008
940.5668, 30.16211
941.0490, 26.30078
941.5311, 27.30469
942.0132, 27.90234
942.4953, 27.47461
942.9774, 26.30664
943.4595, 25.75000
943.9417, 24.65625
944.4238, 18.80664
944.9059, 4.458984
945.3880, 3.406250
945.8701, 10.01367
946.3522, 21.73047
946.8344, 10.43359
947.3165, 8.724609
947.7986, 11.83594
948.2807, 1.132813
948.7628, 9.201172
949.2449, 1.123047
949.7271, 14.52148
950.2092, 16.76367
950.6913, 12.61133
951.1734, 8.957031
951.6555, 5.941406
952.1376, 0.9843750
952.6198, 6.519531
953.1019, 12.68945
953.5840, 12.01758
954.0661, 9.228516
954.5482, 21.33789
955.0303, 44.20898
955.5124, 46.20117
955.9945, 22.87695
956.4766, 6.353516
956.9587, 14.79883
957.4409, 33.90625
957.9230, 39.68555
958.4051, 32.48828
958.8872, 39.57031
959.3693, 67.94336
959.8514, 79.04102
960.3336, 57.93359
960.8157, 32.93945
961.2978, 25.85352
961.7799, 30.48828
962.2620, 29.33008
962.7441, 19.39258
963.2263, 12.80859
963.7084, 10.52930
964.1905, 10.80078
964.6726, 13.76953
965.1547, 18.60938
965.6368, 27.32617
966.1190, 37.83203
966.6011, 40.56445
967.0832, 29.01367
967.5653, 20.59180
968.0474, 23.10742
968.5295, 25.17188
969.0117, 16.15625
969.4938, 5.085938
969.9759, 7.433594
970.4580, 22.62695
970.9401, 30.92188
971.4222, 18.09570
971.9044, 5.304688
972.3865, 9.351563
972.8686, 17.21484
973.3507, 15.06445
973.8328, 5.673828
974.3149, 3.285156
974.7971, 9.435547
975.2792, 13.88281
975.7613, 16.78516
976.2434, 19.21484
976.7255, 23.53711
977.2076, 28.18555
977.6898, 30.48828
978.1719, 29.71484
978.6540, 23.82227
979.1361, 11.85742
979.6182, 0.5234380
980.1003, 7.375000
980.5825, 8.943359
981.0646, 1.871094
981.5467, 11.79297
982.0288, 12.61523
982.5109, 3.316406
982.9930, 16.09375
983.4752, 12.04297
983.9573, 0.4726560
984.4394, 0.8496090
984.9215, 13.42578
985.4036, 12.22266
985.8857, 6.832031
986.3679, 14.39453
986.8500, 0.3046880
987.3321, 17.98438
987.8142, 22.42969
988.2963, 18.33789
988.7784, 21.45703
989.2606, 36.98438
989.7427, 39.95508
990.2248, 21.97656
990.7069, 7.460938
991.1890, 3.593750
991.6711, 6.435547
992.1533, 13.52148
992.6354, 24.30664
993.1175, 35.85547
993.5996, 55.29297
994.0817, 63.09375
994.5638, 45.82422
995.0460, 32.56641
995.5281, 39.61328
996.0102, 52.89453
996.4923, 56.34766
996.9744, 50.71484
997.4565, 48.33984
997.9387, 53.81250
998.4208, 58.75977
998.9029, 61.77344
999.3850, 62.89062
999.8671, 61.93164
1000.349, 59.17188
1000.831, 53.16992
1001.313, 44.77734
1001.796, 41.93945
1002.278, 54.31641
1002.760, 63.10938
1003.242, 50.28125
1003.724, 36.42773
1004.206, 43.61328
1004.688, 62.48242
1005.170, 70.15820
1005.653, 62.80859
1006.135, 58.21875
1006.617, 70.41797
1007.099, 83.37500
1007.581, 77.91797
1008.063, 66.87500
1008.545, 72.07812
1009.027, 87.87305
1009.509, 91.46289
1009.992, 75.88867
1010.474, 58.52539
1010.956, 55.27148
1011.438, 57.99805
1011.920, 53.48633
1012.402, 45.83008
1012.884, 45.90039
1013.366, 53.00391
1013.849, 56.85352
1014.331, 53.18359
1014.813, 49.94336
1015.295, 58.64648
1015.777, 72.18555
1016.259, 69.72852
1016.741, 55.49609
1017.223, 50.29492
1017.705, 56.33594
1018.188, 61.88477
1018.670, 60.75000
1019.152, 58.69922
1019.634, 64.98047
1020.116, 76.80664
1020.598, 79.45508
1021.080, 73.43945
1021.562, 71.76953
1022.044, 76.85938
1022.527, 79.45312
1023.009, 73.04883
1023.491, 67.70312
1023.973, 83.19141
1024.455, 116.8984
1024.937, 122.7207
1025.419, 96.47852
1025.901, 79.69531
1026.384, 81.95312
1026.866, 84.22656
1027.348, 72.80859
1027.830, 59.01172
1028.312, 65.66016
1028.794, 94.10156
1029.276, 106.9629
1029.758, 100.0391
1030.240, 92.20703
1030.723, 84.03516
1031.205, 83.30859
1031.687, 98.65234
1032.169, 120.6406
1032.651, 129.5371
1033.133, 123.0566
1033.615, 122.0742
1034.097, 126.6055
1034.579, 136.8496
1035.062, 159.1406
1035.544, 176.7637
1036.026, 174.0879
1036.508, 162.4199
1036.990, 167.5742
1037.472, 195.4141
1037.954, 204.4160
1038.436, 175.9160
1038.919, 158.4199
1039.401, 167.1211
1039.883, 181.1289
1040.365, 189.5996
1040.847, 193.5723
1041.329, 194.9551
1041.811, 192.4023
1042.293, 194.4766
1042.776, 211.3887
1043.258, 219.6855
1043.740, 207.9434
1044.222, 192.8496
1044.704, 186.1094
1045.186, 184.4082
1045.668, 180.4473
1046.150, 172.1328
1046.632, 173.3477
1047.115, 195.9453
1047.597, 213.9551
1048.079, 214.3555
1048.561, 214.1953
1049.043, 229.0215
1049.525, 250.3828
1050.007, 261.1465
1050.489, 258.5078
1050.971, 255.9062
1051.454, 252.0312
1051.936, 253.9180
1052.418, 269.3027
1052.900, 285.2070
1053.382, 293.3281
1053.864, 295.1250
1054.346, 292.7578
1054.828, 286.3320
1055.311, 283.1270
1055.793, 291.5781
1056.275, 294.8711
1056.757, 280.4434
1057.239, 265.3750
1057.721, 264.2832
1058.203, 271.1895
1058.685, 274.1270
1059.167, 271.3105
1059.650, 269.7852
1060.132, 276.1797
1060.614, 278.6172
1061.096, 267.8652
1061.578, 255.7441
1062.060, 251.5039
1062.542, 252.1016
1063.024, 251.1172
1063.506, 247.6113
1063.989, 246.0996
1064.471, 254.2578
1064.953, 255.9258
1065.435, 236.9609
1065.917, 216.3398
1066.399, 210.2148
1066.881, 211.4727
1067.363, 207.7109
1067.846, 197.5820
1068.328, 188.6035
1068.810, 188.1367
1069.292, 181.6758
1069.774, 148.4004
1070.256, 121.4824
1070.738, 139.1191
1071.220, 171.7188
1071.703, 170.7598
1072.185, 136.2910
1072.667, 113.5859
1073.149, 125.7324
1073.631, 136.8535
1074.113, 124.1211
1074.595, 110.6875
1075.077, 118.6250
1075.559, 132.9062
1076.042, 130.6680
1076.524, 113.0703
1077.006, 99.83789
1077.488, 98.95117
1077.970, 98.88086
1078.452, 87.66406
1078.934, 82.86914
1079.416, 109.1328
1079.898, 139.6777
1080.380, 137.9863
1080.863, 110.1855
1081.345, 89.31445
1081.827, 86.28711
1082.309, 86.84961
1082.791, 82.94531
1083.273, 82.45898
1083.755, 97.01562
1084.237, 111.8789
1084.720, 105.2734
1085.202, 86.10547
1085.684, 83.14648
1086.166, 105.7012
1086.648, 125.2656
1087.130, 129.7051
1087.612, 128.0977
1088.094, 123.2246
1088.577, 115.8027
1089.059, 103.5742
1089.541, 90.59570
1090.023, 86.51367
1090.505, 93.32617
1090.987, 96.44336
1091.469, 85.23438
1091.951, 76.50586
1092.433, 84.41406
1092.916, 91.84961
1093.398, 81.53711
1093.880, 62.33789
1094.362, 51.75586
1094.844, 52.92383
1095.326, 57.27539
1095.808, 60.00195
1096.290, 66.77148
1096.772, 91.44531
1097.255, 107.9336
1097.737, 85.81641
1098.219, 54.11914
1098.701, 57.19336
1099.183, 92.32227
1099.665, 112.8145
1100.147, 97.65430
1100.629, 88.64453
1101.112, 103.4590
1101.594, 117.1816
1102.076, 115.1523
1102.558, 110.4160
1103.040, 117.8262
1103.522, 132.1973
1104.004, 135.9121
1104.486, 121.8535
1104.969, 114.7812
1105.451, 122.5898
1105.933, 133.3418
1106.415, 146.8496
1106.897, 158.1152
1107.379, 164.5684
1107.861, 165.0469
1108.343, 153.9453
1108.825, 125.6094
1109.307, 118.1172
1109.790, 159.5645
1110.272, 186.1055
1110.754, 175.6445
1111.236, 156.7930
1111.718, 143.4629
1112.200, 134.5625
1112.682, 127.8555
1113.164, 123.4043
1113.647, 123.0703
1114.129, 136.6250
1114.611, 137.6836
1115.093, 111.3848
1115.575, 90.77539
1116.057, 95.19336
1116.539, 107.3906
1117.021, 106.6016
1117.504, 95.11523
1117.986, 90.56445
1118.468, 98.30664
1118.950, 99.66016
1119.432, 90.18555
1119.914, 82.82422
1120.396, 82.40820
1120.878, 83.38477
1121.360, 80.18164
1121.843, 75.45703
1122.325, 77.84375
1122.807, 89.80469
1123.289, 93.49023
1123.771, 86.21289
1124.253, 80.47656
1124.735, 79.94336
1125.217, 77.86523
1125.699, 68.41602
1126.182, 58.74219
1126.664, 62.56445
1127.146, 78.71484
1127.628, 84.29102
1128.110, 77.66016
1128.592, 75.33203
1129.074, 80.28320
1129.556, 81.29102
1130.039, 71.82422
1130.521, 65.14062
1131.003, 78.14258
1131.485, 103.0410
1131.967, 110.6133
1132.449, 102.0801
1132.931, 100.7461
1133.413, 107.6973
1133.896, 109.6699
1134.378, 102.6035
1134.860, 97.51758
1135.342, 104.4844
1135.824, 111.2227
1136.306, 85.56836
1136.788, 41.77734
1137.270, 42.75781
1137.752, 78.64648
1138.234, 97.39648
1138.717, 91.22656
1139.199, 83.28125
1139.681, 85.52539
1140.163, 88.05859
1140.645, 76.06445
1141.127, 60.45508
1141.609, 66.43164
1142.091, 82.38086
1142.574, 80.72070
1143.056, 63.83203
1143.538, 50.44531
1144.020, 46.28320
1144.502, 42.69141
1144.984, 31.67969
1145.466, 23.00781
1145.948, 32.47461
1146.431, 45.56445
1146.913, 42.02734
1147.395, 28.82617
1147.877, 19.72852
1148.359, 16.83203
1148.841, 16.90039
1149.323, 19.65625
1149.805, 17.75391
1150.287, 0.4394530
1150.770, 16.94531
1151.252, 14.25195
1151.734, 6.863281
1152.216, 11.70508
1152.698, 24.90820
1153.180, 28.21680
1153.662, 24.71094
1154.144, 20.57227
1154.626, 16.84570
1155.109, 14.52148
1155.591, 15.99219
1156.073, 17.63867
1156.555, 17.52930
1157.037, 16.33398
1157.519, 15.89258
1158.001, 15.83789
1158.483, 11.72461
1158.966, 3.031250
1159.448, 8.335938
1159.930, 10.81641
1160.412, 20.57031
1160.894, 5.291016
1161.376, 13.14453
1161.858, 19.08008
1162.340, 17.05273
1162.822, 16.19531
1163.305, 16.27734
1163.787, 16.64844
1164.269, 15.09766
1164.751, 20.78711
1165.233, 39.29297
1165.715, 50.35742
1166.197, 41.53320
1166.679, 28.39844
1167.161, 29.06641
1167.644, 40.72852
1168.126, 54.43945
1168.608, 70.27930
1169.090, 80.22461
1169.572, 83.41992
1170.054, 79.47070
1170.536, 67.69336
1171.018, 61.98438
1171.500, 72.14062
1171.983, 89.04883
1172.465, 99.69922
1172.947, 105.0703
1173.429, 107.9766
1173.911, 107.9180
1174.393, 109.4531
1174.875, 111.7812
1175.357, 114.5605
1175.840, 117.1504
1176.322, 117.9609
1176.804, 113.1133
1177.286, 109.3340
1177.768, 120.5098
1178.250, 135.6523
1178.732, 137.8789
1179.214, 131.7422
1179.697, 130.9102
1180.179, 137.1836
1180.661, 140.4141
1181.143, 141.3359
1181.625, 139.6797
1182.107, 137.8750
1182.589, 134.2812
1183.071, 119.9336
1183.553, 103.0762
1184.036, 94.78906
1184.518, 91.93555
1185.000, 92.35938
1185.482, 84.07031
1185.964, 77.35547
1186.446, 67.98828
1186.928, 58.60156
1187.410, 47.80078
1187.892, 41.99414
1188.375, 46.75000
1188.857, 52.25391
1189.339, 55.33789
1189.821, 56.62500
1190.303, 54.91797
1190.785, 47.89844
1191.267, 45.93555
1191.749, 51.29492
1192.232, 55.29297
1192.714, 55.44922
1193.196, 56.58594
1193.678, 60.93555
1194.160, 66.29102
1194.642, 70.43750
1195.124, 73.43945
1195.606, 81.53125
1196.089, 94.39062
1196.571, 97.10156
1197.053, 88.68555
1197.535, 84.46875
1198.017, 87.92383
1198.499, 86.20508
1198.981, 70.33203
1199.463, 54.41016
1199.945, 60.55469
1200.427, 78.19727
1200.910, 91.45703
1201.392, 99.73047
1201.874, 100.9141
1202.356, 94.91016
1202.838, 76.66211
1203.320, 48.53906
1203.802, 30.70508
1204.284, 38.87109
1204.767, 49.17773
1205.249, 41.94727
1205.731, 31.46680
1206.213, 30.46289
1206.695, 32.13086
1207.177, 26.96289
1207.659, 16.72266
1208.141, 8.203125
1208.624, 2.779297
1209.106, 0.2050780
1209.588, 0.3730470
1210.070, 0.0000000E+00
##END=



