##NAMES=Benavidesite
##RRUFFID=R070348
##IDEAL CHEMISTRY=Pb^2+^_4_Mn^2+^Sb^3+^_6_S^2-^_14_
##LOCALITY=Bear Basin Mines, Bear Basin, North Bend, King County, Washington, USA
##OWNER=RRUFF
##SOURCE=Michael Scott
##DESCRIPTION=Grey tabular crystals associated with quartz
##STATUS=The identification of this mineral is not yet confirmed.
##URL=rruff.info/R070348
150.9106, 0.0000000E+00
151.3928, 70.71094
151.8749, 132.3088
152.3570, 171.1013
152.8391, 205.9885
153.3212, 240.8542
153.8033, 272.5320
154.2855, 313.0171
154.7676, 336.8945
155.2497, 242.3079
155.7318, 152.1702
156.2139, 97.76196
156.6960, 64.81885
157.1782, 31.84229
157.6603, 3.832275
158.1424, 28.16113
158.6245, 20.55273
159.1066, 7.279053
159.5887, 28.95239
160.0709, 30.45679
160.5530, 24.58716
161.0351, 30.09009
161.5172, 49.01074
161.9993, 72.36694
162.4814, 98.46753
162.9636, 124.3572
163.4457, 144.3533
163.9278, 154.2727
164.4099, 157.4131
164.8920, 160.1226
165.3741, 163.1558
165.8563, 166.1035
166.3384, 166.9858
166.8205, 167.3572
167.3026, 169.6782
167.7847, 178.5000
168.2668, 188.9980
168.7490, 189.3467
169.2311, 179.2061
169.7132, 162.9878
170.1953, 139.7114
170.6774, 113.9390
171.1595, 91.83740
171.6417, 70.81250
172.1238, 52.57520
172.6059, 42.58350
173.0880, 44.43701
173.5701, 47.59521
174.0522, 48.14551
174.5344, 46.86182
175.0165, 44.39209
175.4986, 40.77148
175.9807, 36.43066
176.4628, 33.51611
176.9449, 35.33008
177.4271, 31.99316
177.9092, 16.36719
178.3913, 5.019531
178.8734, 23.85547
179.3555, 36.83691
179.8376, 44.00537
180.3197, 45.49609
180.8019, 40.83838
181.2840, 30.66846
181.7661, 8.154785
182.2482, 16.73779
182.7303, 30.67383
183.2124, 25.84766
183.6946, 8.138184
184.1767, 6.494629
184.6588, 20.32129
185.1409, 25.99463
185.6230, 19.62402
186.1051, 6.357422
186.5873, 9.874023
187.0694, 28.56396
187.5515, 45.41846
188.0336, 48.43701
188.5157, 28.98242
188.9978, 9.596680
189.4800, 5.641602
189.9621, 17.90283
190.4442, 30.51465
190.9263, 45.65088
191.4084, 57.15479
191.8905, 47.33594
192.3727, 3.424805
192.8548, 40.64014
193.3369, 48.81885
193.8190, 44.61914
194.3011, 44.45312
194.7832, 54.89941
195.2654, 69.71777
195.7475, 74.85059
196.2296, 64.61475
196.7117, 55.02441
197.1938, 42.79053
197.6759, 34.77832
198.1581, 38.64453
198.6402, 56.71826
199.1223, 82.29102
199.6044, 103.8066
200.0865, 122.8281
200.5686, 133.6948
201.0508, 132.6904
201.5329, 127.1709
202.0150, 120.4287
202.4971, 114.0562
202.9792, 111.1650
203.4613, 119.2422
203.9435, 149.9219
204.4256, 164.5508
204.9077, 153.1421
205.3898, 133.6792
205.8719, 113.4634
206.3540, 96.02002
206.8362, 86.80469
207.3183, 96.03809
207.8004, 134.5977
208.2825, 163.6587
208.7646, 178.9102
209.2467, 187.7417
209.7289, 193.6445
210.2110, 196.9834
210.6931, 195.7612
211.1752, 185.1416
211.6573, 158.7666
212.1395, 147.1138
212.6216, 161.4390
213.1037, 179.6997
213.5858, 191.4214
214.0679, 196.4316
214.5500, 200.3965
215.0322, 208.6572
215.5143, 221.3979
215.9964, 231.9780
216.4785, 238.2368
216.9606, 249.4619
217.4427, 273.0117
217.9249, 303.1582
218.4070, 325.7666
218.8891, 325.6079
219.3712, 301.3330
219.8533, 299.8862
220.3354, 345.9927
220.8176, 392.1621
221.2997, 428.1968
221.7818, 454.4243
222.2639, 473.7534
222.7460, 487.2026
223.2281, 495.5830
223.7103, 506.1343
224.1924, 520.7725
224.6745, 535.7900
225.1566, 548.2437
225.6387, 561.0244
226.1208, 580.5156
226.6030, 611.7788
227.0851, 649.1016
227.5672, 667.2217
228.0493, 643.3623
228.5314, 630.6938
229.0135, 641.1978
229.4957, 665.7832
229.9778, 696.1475
230.4599, 728.9126
230.9420, 760.7715
231.4241, 782.9019
231.9062, 787.2754
232.3884, 795.2842
232.8705, 810.9678
233.3526, 830.1343
233.8347, 848.1509
234.3168, 863.6396
234.7989, 881.0386
235.2811, 909.0278
235.7632, 953.9141
236.2453, 994.6699
236.7274, 1033.878
237.2095, 1066.143
237.6916, 1085.203
238.1738, 1091.106
238.6559, 1092.881
239.1380, 1101.809
239.6201, 1120.017
240.1022, 1137.959
240.5843, 1160.642
241.0665, 1178.502
241.5486, 1181.754
242.0307, 1173.194
242.5128, 1167.164
242.9949, 1180.021
243.4770, 1214.124
243.9592, 1241.137
244.4413, 1258.729
244.9234, 1270.565
245.4055, 1274.642
245.8876, 1273.709
246.3697, 1273.758
246.8519, 1278.659
247.3340, 1288.248
247.8161, 1301.198
248.2982, 1319.459
248.7803, 1338.687
249.2624, 1361.571
249.7446, 1384.097
250.2267, 1399.262
250.7088, 1401.633
251.1909, 1394.935
251.6730, 1389.333
252.1551, 1383.888
252.6373, 1381.654
253.1194, 1378.456
253.6015, 1380.488
254.0836, 1397.697
254.5657, 1436.253
255.0478, 1481.235
255.5300, 1510.249
256.0121, 1522.086
256.4942, 1521.890
256.9763, 1488.797
257.4584, 1456.956
257.9406, 1455.873
258.4227, 1492.551
258.9048, 1538.991
259.3869, 1566.942
259.8690, 1575.748
260.3511, 1581.466
260.8333, 1584.510
261.3154, 1587.464
261.7975, 1593.814
262.2796, 1603.160
262.7617, 1609.254
263.2438, 1604.821
263.7260, 1592.100
264.2081, 1584.287
264.6902, 1583.350
265.1723, 1586.867
265.6544, 1596.949
266.1365, 1610.630
266.6187, 1617.456
267.1008, 1607.973
267.5829, 1589.124
268.0650, 1576.603
268.5471, 1573.165
269.0292, 1568.341
269.5114, 1545.232
269.9935, 1516.591
270.4756, 1506.741
270.9577, 1537.534
271.4398, 1576.909
271.9219, 1586.695
272.4041, 1566.091
272.8862, 1542.313
273.3683, 1528.628
273.8504, 1520.149
274.3325, 1506.981
274.8146, 1485.886
275.2968, 1465.074
275.7789, 1453.042
276.2610, 1446.869
276.7431, 1433.067
277.2252, 1403.750
277.7073, 1368.866
278.1895, 1345.390
278.6716, 1334.939
279.1537, 1325.268
279.6358, 1311.958
280.1179, 1296.626
280.6000, 1283.184
281.0822, 1272.985
281.5643, 1261.264
282.0464, 1240.888
282.5285, 1211.198
283.0106, 1183.383
283.4927, 1160.049
283.9749, 1138.269
284.4570, 1109.278
284.9391, 1074.393
285.4212, 1055.529
285.9033, 1079.271
286.3854, 1143.274
286.8676, 1158.703
287.3497, 1083.005
287.8318, 1004.768
288.3139, 971.2681
288.7960, 970.4766
289.2781, 966.0781
289.7603, 937.3330
290.2424, 890.7832
290.7245, 854.6348
291.2066, 826.5376
291.6887, 810.6504
292.1708, 817.6953
292.6530, 833.7822
293.1351, 840.8457
293.6172, 832.6533
294.0993, 817.2920
294.5814, 809.1392
295.0635, 812.1216
295.5457, 815.4351
296.0278, 817.8452
296.5099, 821.4897
296.9920, 828.0747
297.4741, 837.6538
297.9562, 848.9014
298.4384, 859.8110
298.9205, 869.2847
299.4026, 886.5107
299.8847, 921.1699
300.3668, 953.6782
300.8489, 975.0386
301.3310, 988.9985
301.8131, 1003.656
302.2953, 1024.001
302.7774, 1051.549
303.2595, 1087.706
303.7416, 1131.486
304.2237, 1185.205
304.7058, 1263.323
305.1880, 1343.377
305.6701, 1399.076
306.1522, 1420.536
306.6343, 1426.600
307.1164, 1446.625
307.5985, 1481.699
308.0807, 1525.229
308.5628, 1584.975
309.0449, 1646.252
309.5270, 1701.540
310.0091, 1751.513
310.4912, 1799.058
310.9734, 1843.051
311.4555, 1884.171
311.9376, 1932.779
312.4197, 1995.953
312.9018, 2058.317
313.3839, 2107.719
313.8661, 2147.989
314.3482, 2189.917
314.8303, 2238.934
315.3124, 2292.876
315.7945, 2350.999
316.2766, 2415.410
316.7588, 2470.441
317.2409, 2499.176
317.7230, 2515.398
318.2051, 2542.412
318.6872, 2587.884
319.1693, 2635.962
319.6515, 2674.846
320.1336, 2706.276
320.6157, 2739.133
321.0978, 2778.475
321.5799, 2815.640
322.0620, 2836.813
322.5442, 2842.733
323.0263, 2838.624
323.5084, 2813.880
323.9905, 2785.195
324.4726, 2773.983
324.9547, 2783.719
325.4369, 2807.334
325.9190, 2843.695
326.4011, 2894.584
326.8832, 2917.132
327.3653, 2884.894
327.8474, 2850.207
328.3296, 2841.825
328.8117, 2855.939
329.2938, 2877.174
329.7759, 2897.434
330.2580, 2915.975
330.7401, 2928.579
331.2223, 2935.305
331.7044, 2936.470
332.1865, 2923.941
332.6686, 2909.280
333.1507, 2909.704
333.6328, 2928.990
334.1150, 2948.781
334.5971, 2938.914
335.0792, 2883.586
335.5613, 2842.110
336.0434, 2829.415
336.5255, 2815.339
337.0077, 2782.082
337.4898, 2732.946
337.9719, 2683.258
338.4540, 2647.470
338.9361, 2622.455
339.4182, 2579.435
339.9004, 2508.593
340.3825, 2433.875
340.8646, 2363.753
341.3467, 2293.546
341.8288, 2218.362
342.3109, 2136.491
342.7931, 2046.930
343.2752, 1944.055
343.7573, 1824.559
344.2394, 1714.502
344.7215, 1623.298
345.2036, 1541.374
345.6858, 1464.837
346.1679, 1392.646
346.6500, 1312.709
347.1321, 1207.776
347.6142, 1089.644
348.0963, 993.2256
348.5785, 927.5857
349.0606, 865.0908
349.5427, 775.9387
350.0248, 671.3359
350.5069, 586.4182
350.9890, 539.4114
351.4712, 504.2905
351.9533, 461.1016
352.4354, 410.9897
352.9175, 359.6521
353.3996, 308.1177
353.8817, 258.9077
354.3639, 220.3342
354.8460, 199.1902
355.3281, 172.3796
355.8102, 126.5598
356.2923, 76.31250
356.7744, 38.70850
357.2566, 17.23950
357.7387, 8.414063
358.2208, 11.07959
358.7029, 30.58423
359.1850, 29.98535
359.6671, 5.526367
360.1493, 43.05396
360.6314, 71.88574
361.1135, 91.07886
361.5956, 100.5549
362.0777, 99.62793
362.5598, 91.50952
363.0420, 88.31396
363.5241, 94.48242
364.0062, 98.53809
364.4883, 101.1985
364.9704, 100.2283
365.4525, 90.04199
365.9347, 70.93579
366.4168, 54.55908
366.8989, 58.48828
367.3810, 84.85352
367.8631, 96.52075
368.3452, 80.93042
368.8274, 63.59277
369.3095, 59.39478
369.7916, 63.66699
370.2737, 64.51123
370.7558, 53.96423
371.2379, 38.80334
371.7201, 30.90112
372.2022, 30.93555
372.6843, 31.52661
373.1664, 29.76392
373.6485, 26.65430
374.1306, 23.93127
374.6128, 21.89294
375.0949, 19.25269
375.5770, 13.09485
376.0591, 6.180908
376.5412, 5.822998
377.0233, 14.41687
377.5055, 22.57214
377.9876, 19.99963
378.4697, 5.234253
378.9518, 7.443848
379.4339, 18.77466
379.9160, 27.15332
380.3982, 30.84216
380.8803, 30.66638
381.3624, 28.54578
381.8445, 25.28748
382.3266, 21.89600
382.8087, 20.92126
383.2909, 21.78357
383.7730, 26.35071
384.2551, 39.90820
384.7372, 53.73254
385.2193, 58.54163
385.7014, 54.21814
386.1836, 49.97595
386.6657, 56.41077
387.1478, 74.28296
387.6299, 87.81836
388.1120, 96.78687
388.5941, 101.2493
389.0763, 94.95825
389.5584, 85.84375
390.0405, 87.74097
390.5226, 108.8104
391.0047, 136.3351
391.4868, 150.3108
391.9690, 149.7139
392.4511, 144.4614
392.9332, 129.8627
393.4153, 118.3757
393.8974, 124.4161
394.3795, 147.8309
394.8617, 168.7041
395.3438, 175.2458
395.8259, 173.7318
396.3080, 174.6068
396.7901, 178.9208
397.2722, 182.6515
397.7544, 182.1471
398.2365, 178.7217
398.7186, 179.0713
399.2007, 185.4631
399.6828, 193.0460
400.1649, 201.3257
400.6471, 209.2474
401.1292, 214.7390
401.6113, 217.1129
402.0934, 218.0631
402.5755, 219.8760
403.0576, 222.5126
403.5398, 226.2638
404.0219, 234.2345
404.5040, 240.2395
404.9861, 238.7670
405.4682, 232.6488
405.9503, 229.0560
406.4325, 232.6588
406.9146, 241.5948
407.3967, 249.5774
407.8788, 256.3893
408.3609, 262.7208
408.8430, 269.3774
409.3252, 275.2371
409.8073, 278.9111
410.2894, 280.3024
410.7715, 281.3738
411.2536, 283.0516
411.7357, 285.6493
412.2179, 291.9534
412.7000, 304.7616
413.1821, 314.9680
413.6642, 312.4745
414.1463, 303.0674
414.6284, 298.3660
415.1106, 302.7570
415.5927, 309.7186
416.0748, 315.8612
416.5569, 320.7844
417.0390, 322.5854
417.5211, 319.7577
418.0033, 314.2932
418.4854, 311.0624
418.9675, 311.6377
419.4496, 311.6699
419.9317, 310.2467
420.4138, 310.2533
420.8960, 314.1039
421.3781, 320.3081
421.8602, 325.8987
422.3423, 329.1234
422.8244, 330.1156
423.3065, 329.2183
423.7887, 328.1362
424.2708, 323.2368
424.7529, 307.1095
425.2350, 288.8551
425.7171, 278.8688
426.1992, 279.6194
426.6814, 283.9403
427.1635, 284.5834
427.6456, 281.2871
428.1277, 277.1644
428.6098, 272.8250
429.0919, 268.8810
429.5741, 264.6512
430.0562, 260.0782
430.5383, 255.9576
431.0204, 253.2601
431.5025, 249.9916
431.9846, 243.6281
432.4668, 235.0649
432.9489, 227.4573
433.4310, 221.6210
433.9131, 217.9727
434.3952, 217.4519
434.8773, 220.0194
435.3595, 219.1283
435.8416, 211.7704
436.3237, 205.2985
436.8058, 202.8529
437.2879, 204.3123
437.7701, 210.2054
438.2522, 221.1781
438.7343, 232.9252
439.2164, 234.2734
439.6985, 216.7611
440.1806, 203.5804
440.6628, 197.1714
441.1449, 193.2445
441.6270, 189.4558
442.1091, 186.0632
442.5912, 183.8182
443.0733, 182.3228
443.5555, 181.9548
444.0376, 186.9252
444.5197, 201.1783
445.0018, 211.8508
445.4839, 211.7830
445.9660, 206.1448
446.4482, 198.7805
446.9303, 189.5359
447.4124, 180.9209
447.8945, 175.6760
448.3766, 172.9714
448.8587, 169.6381
449.3409, 164.7144
449.8230, 160.3860
450.3051, 158.8076
450.7872, 159.4071
451.2693, 158.4270
451.7514, 154.4431
452.2336, 151.9934
452.7157, 152.9180
453.1978, 155.5360
453.6799, 158.1014
454.1620, 160.1222
454.6441, 161.4780
455.1263, 161.8484
455.6084, 160.9943
456.0905, 160.0005
456.5726, 158.4481
457.0547, 157.4459
457.5368, 159.1914
458.0190, 161.2750
458.5011, 159.1055
458.9832, 149.9956
459.4653, 139.3102
459.9474, 134.8208
460.4295, 136.6279
460.9117, 140.3582
461.3938, 148.4353
461.8759, 153.7522
462.3580, 145.9318
462.8401, 128.1066
463.3222, 117.7797
463.8044, 125.9459
464.2865, 138.8767
464.7686, 145.8379
465.2507, 147.1511
465.7328, 144.3539
466.2149, 137.3718
466.6971, 129.2972
467.1792, 126.5681
467.6613, 134.4452
468.1434, 136.3228
468.6255, 123.5986
469.1076, 112.4288
469.5898, 116.3398
470.0719, 131.0465
470.5540, 142.8445
471.0361, 143.2301
471.5182, 134.4530
472.0003, 122.2073
472.4825, 103.0833
472.9646, 90.28528
473.4467, 90.26709
473.9288, 95.16626
474.4109, 102.9938
474.8930, 112.4302
475.3752, 117.1844
475.8573, 109.4180
476.3394, 96.41101
476.8215, 90.71753
477.3036, 92.68945
477.7857, 97.39575
478.2679, 104.1349
478.7500, 110.6481
479.2321, 110.5967
479.7142, 100.3267
480.1963, 93.39001
480.6784, 95.25781
481.1606, 99.68994
481.6427, 101.5371
482.1248, 100.1880
482.6069, 96.83984
483.0890, 92.25354
483.5711, 86.66895
484.0533, 81.47461
484.5354, 75.61938
485.0175, 72.03540
485.4996, 71.96985
485.9817, 73.41113
486.4638, 74.80408
486.9460, 75.98206
487.4281, 63.38232
487.9102, 79.77588
488.3923, 88.53162
488.8744, 90.06616
489.3565, 62.71411
489.8387, 72.67163
490.3208, 67.66357
490.8029, 62.03345
491.2850, 77.21985
491.7671, 54.13965
492.2492, 69.36597
492.7314, 69.30469
493.2135, 76.01648
493.6956, 67.68457
494.1777, 63.99854
494.6598, 75.37317
495.1419, 78.43799
495.6241, 68.44556
496.1062, 75.78699
496.5883, 52.37524
497.0704, 55.98328
497.5525, 71.18738
498.0346, 62.07910
498.5168, 69.92920
498.9989, 71.44702
499.4810, 46.46375
499.9631, 49.83594
500.4452, 61.45374
500.9273, 60.51624
501.4095, 42.93396
501.8916, 30.51099
502.3737, 37.57141
502.8558, 52.49927
503.3379, 55.88733
503.8200, 44.26807
504.3022, 34.33740
504.7843, 33.52063
505.2664, 37.00867
505.7485, 39.99304
506.2306, 41.88647
506.7127, 42.86462
507.1949, 42.68567
507.6770, 42.20227
508.1591, 45.52039
508.6412, 63.74304
509.1233, 68.95154
509.6054, 43.49927
510.0876, 17.55859
510.5697, 16.89539
511.0518, 39.10657
511.5339, 61.69678
512.0161, 69.37793
512.4982, 65.29333
512.9803, 55.57556
513.4624, 38.62268
513.9445, 26.84021
514.4266, 26.20007
514.9088, 31.14062
515.3909, 34.37610
515.8730, 35.87390
516.3551, 36.41223
516.8372, 35.02686
517.3193, 33.46741
517.8015, 35.26819
518.2836, 38.86658
518.7657, 36.31519
519.2478, 22.40002
519.7299, 4.487549
520.2120, 0.9931640
520.6942, 23.76953
521.1763, 38.28857
521.6584, 40.99194
522.1405, 39.97998
522.6226, 39.00391
523.1047, 37.85938
523.5869, 35.05029
524.0690, 29.30005
524.5511, 21.86169
525.0332, 13.39734
525.5153, 4.244507
525.9974, 2.355957
526.4796, 13.94409
526.9617, 26.24731
527.4438, 21.59778
527.9259, 2.699707
528.4080, 6.121826
528.8901, 6.636353
529.3723, 21.93958
529.8544, 30.27881
530.3365, 32.65137
530.8186, 30.83398
531.3007, 25.67346
531.7828, 19.34338
532.2650, 14.05591
532.7471, 9.184814
533.2292, 8.900269
533.7113, 20.12573
534.1934, 28.00269
534.6755, 27.23035
535.1577, 20.85498
535.6398, 11.85437
536.1219, 0.5089110
536.6040, 8.502441
537.0861, 10.13025
537.5682, 5.918091
538.0504, 1.049927
538.5325, 11.28638
539.0146, 17.68799
539.4967, 13.21497
539.9788, 0.7962650
540.4609, 4.776001
540.9431, 0.7858890
541.4252, 6.394409
541.9073, 11.11133
542.3894, 14.05066
542.8715, 12.55090
543.3536, 7.695679
543.8358, 5.349365
544.3179, 11.13220
544.8000, 22.26306
545.2821, 25.67847
545.7642, 17.88098
546.2463, 12.09180
546.7285, 14.58167
547.2106, 18.12012
547.6926, 17.39160
548.1747, 12.33679
548.6569, 5.394287
549.1390, 7.850220
549.6211, 18.56494
550.1032, 13.59302
550.5853, 3.641724
551.0674, 18.30835
551.5496, 24.91272
552.0317, 24.68628
552.5138, 18.54443
552.9959, 2.097656
553.4780, 5.143555
553.9601, 7.157349
554.4423, 16.27637
554.9244, 9.339722
555.4065, 5.635742
555.8886, 15.94519
556.3707, 16.96741
556.8528, 12.45337
557.3350, 5.766113
557.8171, 2.843750
558.2992, 12.61609
558.7813, 25.07825
559.2634, 33.99622
559.7455, 33.43823
560.2277, 26.15967
560.7098, 21.90625
561.1919, 23.69849
561.6740, 23.61426
562.1561, 16.47339
562.6382, 7.985107
563.1204, 3.625366
563.6025, 4.020752
564.0846, 7.860718
564.5667, 14.77515
565.0488, 23.95093
565.5309, 32.17114
566.0131, 41.18591
566.4952, 43.09485
566.9773, 27.95325
567.4594, 12.42847
567.9415, 7.629272
568.4236, 12.23523
568.9058, 17.89075
569.3879, 24.63989
569.8700, 27.67261
570.3521, 16.26196
570.8342, 3.677734
571.3163, 9.183838
571.7985, 7.957275
572.2806, 29.03430
572.7627, 30.30835
573.2448, 8.634277
573.7269, 3.058716
574.2090, 2.369629
574.6912, 8.557983
575.1733, 12.93152
575.6554, 15.17432
576.1375, 14.12512
576.6196, 9.961060
577.1017, 6.519775
577.5839, 6.618896
578.0660, 10.21216
578.5481, 20.33630
579.0302, 38.75378
579.5123, 47.12390
579.9944, 32.72900
580.4766, 7.199707
580.9587, 7.689819
581.4408, 11.89514
581.9229, 9.356934
582.4050, 7.212769
582.8871, 23.37122
583.3693, 30.37500
583.8514, 29.18323
584.3335, 22.00476
584.8156, 9.778564
585.2977, 2.562744
585.7798, 6.445190
586.2620, 1.160034
586.7441, 3.729370
587.2262, 9.064209
587.7083, 11.64392
588.1904, 6.700684
588.6725, 1.409302
589.1547, 5.458862
589.6368, 3.634033
590.1189, 5.7983000E-02
590.6010, 3.914551
591.0831, 8.238892
591.5652, 14.68750
592.0474, 21.58582
592.5295, 24.33472
593.0116, 19.78754
593.4937, 10.53314
593.9758, 3.926697
594.4579, 1.479370
594.9401, 0.9315800
595.4222, 14.77472
595.9043, 28.70422
596.3864, 31.22321
596.8685, 25.14288
597.3506, 18.06250
597.8328, 11.64777
598.3149, 7.293884
598.7970, 7.256470
599.2791, 10.25800
599.7612, 13.51837
600.2433, 16.51648
600.7255, 18.20532
601.2076, 16.98138
601.6897, 13.63470
602.1718, 14.85358
602.6539, 27.73792
603.1360, 35.43579
603.6182, 34.61963
604.1003, 29.99274
604.5824, 23.06201
605.0645, 15.13910
605.5466, 9.673584
606.0287, 9.707886
606.5109, 11.78662
606.9930, 9.320557
607.4751, 3.060852
607.9572, 1.712036
608.4393, 8.584351
608.9214, 15.87805
609.4036, 14.76691
609.8857, 5.104553
610.3678, 1.982300
610.8499, 12.96283
611.3320, 20.42773
611.8141, 17.15552
612.2963, 10.24988
612.7784, 7.161560
613.2605, 8.384705
613.7426, 9.102051
614.2247, 5.244690
614.7068, 0.6253050
615.1890, 1.959839
615.6711, 1.404480
616.1532, 3.485107
616.6353, 2.016968
617.1174, 0.2219240
617.5995, 0.2714840
618.0817, 3.547852
618.5638, 4.818787
619.0459, 2.565918
619.5280, 0.1263430
620.0101, 2.798889
620.4922, 4.888672
620.9744, 5.010010
621.4565, 3.375183
621.9386, 2.883728
622.4207, 7.325317
622.9028, 14.48993
623.3849, 15.04309
623.8671, 7.929016
624.3492, 0.2099610
624.8313, 8.882629
625.3134, 16.05054
625.7955, 17.11230
626.2776, 12.51648
626.7598, 13.20239
627.2419, 27.26697
627.7240, 39.80438
628.2061, 42.83807
628.6882, 40.14862
629.1703, 35.77069
629.6525, 31.41620
630.1346, 28.19086
630.6167, 28.02527
631.0988, 30.52112
631.5809, 30.67987
632.0630, 28.11090
632.5452, 25.16705
633.0273, 20.78406
633.5094, 18.08838
633.9915, 22.63110
634.4736, 33.85376
634.9557, 39.78711
635.4379, 31.65375
635.9200, 24.56989
636.4021, 29.75397
636.8842, 40.30676
637.3663, 45.10236
637.8484, 41.70349
638.3306, 35.06995
638.8127, 29.19751
639.2948, 24.38251
639.7769, 23.07025
640.2590, 26.63611
640.7411, 29.59009
641.2233, 31.40637
641.7054, 30.98309
642.1875, 25.63373
642.6696, 15.99341
643.1517, 9.979187
643.6339, 9.518494
644.1160, 12.95886
644.5981, 22.43219
645.0802, 33.68958
645.5623, 40.32050
646.0444, 41.09821
646.5266, 39.39813
647.0087, 38.91217
647.4908, 38.48846
647.9729, 29.60345
648.4550, 8.131897
648.9371, 4.899780
649.4193, 0.2216800
649.9014, 10.57806
650.3835, 17.09863
650.8656, 19.84650
651.3477, 22.22961
651.8298, 26.25092
652.3120, 28.36169
652.7941, 25.70868
653.2762, 20.92255
653.7583, 16.48413
654.2404, 13.36218
654.7225, 13.03589
655.2047, 17.35913
655.6868, 24.51294
656.1689, 28.64044
656.6510, 29.60913
657.1331, 27.94373
657.6152, 21.41083
658.0974, 15.55469
658.5795, 17.04572
659.0616, 24.05170
659.5437, 28.34271
660.0258, 29.42291
660.5079, 27.40179
660.9901, 17.96533
661.4722, 8.215698
661.9543, 7.338501
662.4364, 14.34308
662.9185, 19.83862
663.4006, 16.77582
663.8828, 10.88367
664.3649, 17.91235
664.8470, 38.62079
665.3291, 45.27472
665.8112, 27.99335
666.2933, 9.586243
666.7755, 8.638123
667.2576, 20.59845
667.7397, 24.74744
668.2218, 13.50885
668.7039, 6.859009
669.1860, 12.11572
669.6682, 20.44232
670.1503, 26.32623
670.6324, 29.06018
671.1145, 28.59070
671.5966, 24.50525
672.0787, 19.90729
672.5609, 20.31281
673.0430, 24.69550
673.5251, 24.21460
674.0072, 16.79120
674.4893, 10.87018
674.9714, 11.55670
675.4536, 17.16223
675.9357, 23.49261
676.4178, 32.45868
676.8999, 37.58997
677.3820, 36.62866
677.8641, 33.78345
678.3463, 30.66425
678.8284, 27.54913
679.3105, 24.58789
679.7926, 21.92450
680.2747, 19.06641
680.7568, 13.07758
681.2390, 6.132019
681.7211, 6.609680
682.2032, 14.39789
682.6853, 20.17694
683.1674, 19.59094
683.6495, 15.85736
684.1317, 14.20905
684.6138, 15.70758
685.0959, 13.92493
685.5780, 4.311035
686.0601, 3.593323
686.5422, 8.796631
687.0244, 10.13342
687.5065, 5.287964
687.9886, 5.453369
688.4707, 16.77808
688.9528, 28.33972
689.4349, 36.93329
689.9171, 37.70953
690.3992, 32.48853
690.8813, 26.08118
691.3634, 19.85162
691.8455, 13.90839
692.3276, 8.169678
692.8098, 2.914124
693.2919, 0.8048710
693.7740, 2.761353
694.2561, 5.106750
694.7382, 8.397339
695.2203, 10.79565
695.7025, 10.09174
696.1846, 7.273926
696.6667, 6.133362
697.1488, 8.458191
697.6309, 11.28485
698.1130, 11.76477
698.5952, 12.64099
699.0773, 19.42114
699.5594, 30.65350
700.0415, 37.72424
700.5236, 34.82239
701.0057, 27.35571
701.4879, 27.40460
701.9700, 35.49841
702.4521, 40.45844
702.9342, 41.55670
703.4163, 38.49451
703.8984, 28.05133
704.3806, 14.52435
704.8627, 8.331909
705.3448, 11.66833
705.8269, 15.43341
706.3090, 18.57141
706.7911, 21.00079
707.2733, 24.61060
707.7554, 28.33789
708.2375, 30.29340
708.7196, 29.93848
709.2017, 27.37744
709.6838, 20.12683
710.1660, 11.37378
710.6481, 10.22290
711.1302, 16.38629
711.6123, 23.31140
712.0944, 29.25452
712.5765, 32.67078
713.0587, 31.10101
713.5408, 24.27344
714.0229, 19.14038
714.5050, 13.34064
714.9871, 12.68384
715.4692, 24.02332
715.9514, 36.04834
716.4335, 38.26367
716.9156, 32.19379
717.3977, 28.16241
717.8798, 32.78180
718.3619, 37.27606
718.8441, 32.17145
719.3262, 23.06885
719.8083, 20.30481
720.2904, 24.66644
720.7725, 29.74799
721.2546, 31.25745
721.7368, 30.77594
722.2189, 33.16937
722.7010, 39.66772
723.1831, 39.68927
723.6652, 28.37640
724.1473, 18.49792
724.6295, 18.73682
725.1116, 24.96521
725.5937, 28.22198
726.0758, 27.81958
726.5579, 26.29651
727.0400, 24.24463
727.5222, 21.57422
728.0043, 17.06042
728.4864, 12.63849
728.9685, 11.85931
729.4506, 15.63568
729.9327, 20.22089
730.4149, 20.67114
730.8970, 19.83929
731.3791, 25.94067
731.8612, 37.91089
732.3433, 45.74011
732.8254, 46.46173
733.3076, 43.27228
733.7897, 38.79138
734.2718, 33.26715
734.7539, 29.95270
735.2360, 32.36572
735.7181, 31.01178
736.2003, 21.83838
736.6824, 11.53510
737.1645, 1.393494
737.6466, 6.459412
738.1287, 6.450745
738.6108, 5.506165
739.0930, 18.90179
739.5751, 31.35510
740.0572, 40.04993
740.5393, 40.21271
741.0214, 33.26025
741.5035, 23.35150
741.9857, 12.46918
742.4678, 3.759277
742.9499, 3.113953
743.4320, 9.668640
743.9141, 12.39404
744.3962, 10.55298
744.8784, 9.330078
745.3605, 11.24585
745.8426, 15.04413
746.3247, 18.45105
746.8068, 21.46942
747.2889, 23.09106
747.7711, 22.11554
748.2532, 21.40881
748.7353, 23.86200
749.2174, 25.16278
749.6995, 18.91595
750.1816, 7.327576
750.6638, 0.4611210
751.1459, 4.361572
751.6280, 12.62311
752.1101, 22.61328
752.5922, 31.51941
753.0743, 31.90106
753.5565, 24.34619
754.0386, 18.22681
754.5207, 19.57892
755.0028, 24.08807
755.4849, 23.50153
755.9670, 16.89301
756.4492, 16.70941
756.9313, 26.46082
757.4134, 34.34210
757.8955, 34.24042
758.3776, 30.18164
758.8597, 28.00470
759.3419, 27.78717
759.8240, 28.17664
760.3061, 31.05182
760.7882, 32.14520
761.2703, 26.38318
761.7524, 20.32617
762.2346, 23.55188
762.7167, 34.51617
763.1988, 40.45154
763.6809, 31.39508
764.1630, 18.88397
764.6451, 17.02985
765.1273, 22.06769
765.6094, 24.52429
766.0915, 23.23712
766.5736, 21.84375
767.0557, 22.64368
767.5378, 24.40778
768.0200, 23.85730
768.5021, 19.95300
768.9842, 21.29877
769.4663, 32.76917
769.9484, 38.96387
770.4305, 26.63379
770.9127, 9.762329
771.3948, 11.10699
771.8769, 32.51312
772.3590, 46.01038
772.8411, 44.00958
773.3232, 38.91010
773.8054, 33.64386
774.2875, 28.80066
774.7696, 24.02448
775.2517, 19.91321
775.7338, 18.97546
776.2159, 24.09064
776.6981, 29.78632
777.1802, 29.97137
777.6623, 25.99841
778.1444, 18.75330
778.6265, 9.507935
779.1086, 6.236206
779.5908, 13.89722
780.0729, 26.69434
780.5550, 34.97882
781.0371, 38.96997
781.5192, 34.29016
782.0013, 15.56622
782.4835, 2.726868
782.9656, 7.493164
783.4477, 17.88043
783.9298, 18.14838
784.4119, 8.082458
784.8940, 0.5540160
785.3762, 11.64099
785.8583, 15.57916
786.3404, 6.820984
786.8225, 7.803589
787.3046, 27.22150
787.7867, 47.25067
788.2689, 57.86133
788.7510, 53.91418
789.2331, 42.82465
789.7152, 24.19098
790.1973, 5.794312
790.6794, 2.731812
791.1616, 12.50580
791.6437, 19.65381
792.1258, 17.54169
792.6079, 13.59052
793.0900, 19.52423
793.5721, 33.56653
794.0543, 36.56445
794.5364, 26.54315
795.0185, 17.32812
795.5006, 11.90302
795.9827, 10.53290
796.4648, 14.97742
796.9470, 23.99493
797.4291, 29.24298
797.9112, 27.76935
798.3933, 26.56903
798.8754, 26.26483
799.3575, 25.96832
799.8397, 24.73676
800.3218, 23.16113
800.8039, 22.32117
801.2860, 22.38800
801.7681, 24.73248
802.2502, 34.53210
802.7324, 42.99957
803.2145, 40.61151
803.6966, 31.38153
804.1787, 22.69940
804.6608, 16.78027
805.1429, 12.88611
805.6251, 10.47815
806.1072, 9.558655
806.5893, 11.34949
807.0714, 15.51892
807.5535, 15.00519
808.0356, 8.037476
808.5178, 4.942932
808.9999, 14.08356
809.4820, 28.92938
809.9641, 32.50714
810.4462, 21.34631
810.9283, 11.06067
811.4105, 0.7931520
811.8926, 7.823669
812.3747, 4.018127
812.8568, 3.651245
813.3389, 6.973694
813.8210, 5.854736
814.3032, 5.919189
814.7853, 7.389343
815.2674, 10.94495
815.7495, 21.46570
816.2316, 30.55786
816.7137, 27.86359
817.1959, 16.84100
817.6780, 9.651001
818.1601, 11.78870
818.6422, 17.10901
819.1243, 23.95081
819.6064, 28.60559
820.0886, 21.58472
820.5707, 6.761902
821.0528, 0.5722050
821.5349, 4.792908
822.0170, 14.70117
822.4991, 21.07184
822.9813, 24.07520
823.4634, 23.13379
823.9455, 17.89990
824.4276, 16.62610
824.9097, 22.22290
825.3918, 27.12610
825.8740, 25.32654
826.3561, 18.68542
826.8382, 13.12299
827.3203, 6.106201
827.8024, 6.167236
828.2845, 22.18121
828.7667, 34.30927
829.2488, 31.92462
829.7309, 24.13861
830.2130, 22.73743
830.6951, 28.34735
831.1772, 29.54028
831.6594, 18.41858
832.1415, 8.675354
832.6236, 7.510742
833.1057, 9.636902
833.5878, 9.434631
834.0699, 7.333740
834.5521, 6.701477
835.0342, 8.897949
835.5163, 13.71436
835.9984, 25.01447
836.4805, 36.57306
836.9626, 35.51465
837.4448, 25.09979
837.9269, 19.29999
838.4090, 22.67224
838.8911, 28.75208
839.3732, 31.06604
839.8553, 30.28973
840.3375, 29.55060
840.8196, 28.95203
841.3017, 27.32599
841.7838, 23.76862
842.2659, 22.68652
842.7480, 28.07910
843.2302, 36.03094
843.7123, 38.35553
844.1944, 33.74036
844.6765, 31.32471
845.1586, 31.97131
845.6407, 32.46979
846.1229, 32.50421
846.6050, 31.40588
847.0871, 28.44586
847.5692, 24.10028
848.0513, 19.86603
848.5334, 15.46710
849.0156, 11.97821
849.4977, 8.814514
849.9798, 7.411438
850.4619, 10.58807
850.9440, 15.95325
851.4261, 17.94073
851.9083, 14.60284
852.3904, 11.94550
852.8725, 16.12634
853.3546, 21.06409
853.8367, 18.44617
854.3188, 12.21167
854.8010, 11.49579
855.2831, 17.34802
855.7652, 23.03387
856.2473, 23.83575
856.7294, 21.70233
857.2115, 19.74615
857.6937, 18.15448
858.1758, 17.21338
858.6579, 16.89575
859.1400, 15.66052
859.6221, 12.60303
860.1042, 9.616516
860.5864, 9.589661
861.0685, 12.39648
861.5506, 14.76282
862.0327, 17.17963
862.5148, 17.09619
862.9969, 13.33600
863.4791, 7.907715
863.9612, 0.5110470
864.4433, 7.526123
864.9254, 5.669739
865.4075, 16.46631
865.8896, 26.79956
866.3718, 14.76239
866.8539, 4.185486
867.3360, 5.319031
867.8181, 10.88239
868.3002, 12.08307
868.7823, 8.741699
869.2645, 7.709839
869.7466, 13.21417
870.2287, 17.95862
870.7108, 17.49451
871.1929, 15.89978
871.6750, 17.70966
872.1572, 21.41327
872.6393, 22.93799
873.1214, 20.91949
873.6035, 16.97937
874.0856, 8.341003
874.5677, 1.631592
875.0499, 8.420898
875.5320, 21.68335
876.0141, 25.72040
876.4962, 18.67291
876.9783, 10.23401
877.4604, 6.542114
877.9426, 6.572510
878.4247, 10.28754
878.9068, 16.29706
879.3889, 19.78680
879.8710, 20.40424
880.3531, 17.76648
880.8353, 11.50049
881.3174, 5.671936
881.7995, 5.360474
882.2816, 9.693787
882.7637, 13.53625
883.2458, 17.05188
883.7280, 18.44678
884.2101, 16.76056
884.6922, 15.18079
885.1743, 16.03436
885.6564, 17.98285
886.1385, 17.74353
886.6207, 14.11896
887.1028, 13.74255
887.5849, 19.85547
888.0670, 23.96289
888.5491, 22.84265
889.0313, 19.74878
889.5134, 16.45288
889.9955, 13.41663
890.4776, 12.95728
890.9597, 18.64685
891.4418, 20.75299
891.9240, 14.87988
892.4061, 8.462585
892.8882, 4.148560
893.3703, 2.416870
893.8524, 4.715027
894.3345, 10.67706
894.8167, 14.51538
895.2988, 13.27704
895.7809, 10.13611
896.2630, 3.116028
896.7451, 2.172424
897.2272, 3.593506
897.7094, 15.74957
898.1915, 20.60553
898.6736, 13.23315
899.1557, 5.386902
899.6378, 8.503784
900.1199, 14.73682
900.6021, 13.77740
901.0842, 8.516479
901.5663, 5.959778
902.0484, 6.709900
902.5305, 5.436707
903.0126, 1.711243
903.4948, 8.976074
903.9769, 7.166260
904.4590, 1.099121
904.9411, 9.223450
905.4232, 16.27563
905.9053, 17.46906
906.3875, 11.31476
906.8696, 3.635864
907.3517, 0.5032350
907.8338, 0.9151610
908.3159, 4.152161
908.7980, 14.75708
909.2802, 24.01648
909.7623, 31.66058
910.2444, 33.38879
910.7265, 25.23065
911.2086, 16.29651
911.6907, 21.99609
912.1729, 42.20081
912.6550, 42.93213
913.1371, 14.79651
913.6192, 3.865662
914.1013, 3.864685
914.5834, 2.307434
915.0656, 7.686829
915.5477, 12.85236
916.0298, 19.75256
916.5119, 30.39337
916.9940, 35.11566
917.4761, 28.92975
917.9583, 23.91101
918.4404, 24.31140
918.9225, 25.63586
919.4046, 25.67761
919.8867, 23.77209
920.3688, 16.89728
920.8510, 1.624146
921.3331, 10.75952
921.8152, 0.1377560
922.2973, 11.84180
922.7794, 16.56342
923.2615, 17.77130
923.7437, 18.03668
924.2258, 18.55206
924.7079, 22.01355
925.1900, 34.10797
925.6721, 41.82349
926.1542, 37.05609
926.6364, 28.44550
927.1185, 21.36694
927.6006, 16.08167
928.0827, 11.28076
928.5648, 6.960449
929.0469, 6.047485
929.5291, 12.59741
930.0112, 20.33459
930.4933, 26.01593
930.9754, 29.25018
931.4575, 28.64380
931.9396, 25.21521
932.4218, 21.59668
932.9039, 18.76208
933.3860, 16.00165
933.8681, 11.58234
934.3502, 7.949463
934.8323, 8.963623
935.3145, 12.96954
935.7966, 17.47382
936.2787, 21.48700
936.7608, 23.37347
937.2429, 22.21722
937.7250, 19.24213
938.2072, 14.41357
938.6893, 9.481995
939.1714, 9.561340
939.6535, 13.29517
940.1356, 15.08270
940.6177, 13.73657
941.0999, 11.38043
941.5820, 9.456543
942.0641, 7.678894
942.5462, 5.088379
943.0283, 2.117004
943.5104, 1.134338
943.9926, 2.152954
944.4747, 3.663818
944.9568, 5.167358
945.4389, 8.963623
945.9210, 17.89575
946.4031, 28.78320
946.8853, 32.14941
947.3674, 28.02911
947.8495, 24.18683
948.3316, 21.18445
948.8137, 17.49969
949.2958, 12.38928
949.7780, 7.058044
950.2601, 2.522644
950.7422, 0.7940060
951.2243, 0.3517460
951.7064, 4.306091
952.1885, 10.27814
952.6707, 18.59186
953.1528, 22.86188
953.6349, 18.95618
954.1170, 12.34796
954.5991, 10.60651
955.0812, 11.15546
955.5634, 9.388794
956.0455, 2.190125
956.5276, 3.635437
957.0097, 21.78802
957.4918, 35.10907
957.9739, 28.64569
958.4561, 14.30768
958.9382, 12.80371
959.4203, 25.72302
959.9024, 27.96631
960.3845, 10.81018
960.8666, 0.4032590
961.3488, 2.115173
961.8309, 9.233154
962.3130, 22.29260
962.7951, 35.35168
963.2772, 36.21722
963.7593, 21.88983
964.2415, 12.18665
964.7236, 8.058411
965.2057, 7.131775
965.6878, 12.73395
966.1699, 17.88818
966.6520, 16.30365
967.1342, 11.36157
967.6163, 11.83972
968.0984, 21.09039
968.5805, 22.80438
969.0626, 7.774231
969.5447, 3.581055
970.0269, 4.895264
970.5090, 1.868103
970.9911, 3.392700
971.4732, 8.968750
971.9553, 10.76703
972.4374, 7.223083
972.9196, 4.881470
973.4017, 4.679810
973.8838, 5.729614
974.3659, 9.306702
974.8480, 12.69958
975.3301, 12.69232
975.8123, 10.54871
976.2944, 10.53949
976.7765, 14.77179
977.2586, 16.64209
977.7407, 10.15118
978.2228, 6.505066
978.7050, 14.41962
979.1871, 23.92181
979.6692, 27.52795
980.1513, 24.72882
980.6334, 17.94196
981.1155, 4.839722
981.5977, 3.206421
982.0798, 0.4301150
982.5619, 5.416321
983.0440, 12.66174
983.5261, 19.25183
984.0082, 23.13037
984.4904, 24.51410
984.9725, 24.70135
985.4546, 23.13330
985.9367, 22.32159
986.4188, 26.16614
986.9009, 27.62421
987.3831, 19.43872
987.8652, 8.740112
988.3473, 4.394653
988.8294, 5.911072
989.3115, 6.470947
989.7936, 2.399536
990.2758, 2.050476
990.7579, 13.02112
991.2400, 24.25897
991.7221, 30.02521
992.2042, 31.03674
992.6863, 26.52692
993.1685, 18.38281
993.6506, 13.49152
994.1327, 15.44910
994.6148, 17.67938
995.0969, 16.39746
995.5790, 14.60132
996.0612, 13.33209
996.5433, 13.17969
997.0254, 15.92920
997.5075, 20.56403
997.9896, 22.21460
998.4717, 17.77948
998.9539, 14.58685
999.4360, 17.14130
999.9181, 20.90356
1000.400, 23.83490
1000.882, 25.34229
1001.364, 24.31738
1001.847, 21.30725
1002.329, 18.52191
1002.811, 16.24341
1003.293, 15.77490
1003.775, 18.42450
1004.257, 22.30444
1004.739, 29.02197
1005.221, 34.28094
1005.703, 30.77692
1006.186, 20.45502
1006.668, 13.55188
1007.150, 14.67395
1007.632, 15.54797
1008.114, 9.385925
1008.596, 4.947021
1009.078, 10.28900
1009.560, 19.37415
1010.043, 28.00848
1010.525, 33.17059
1011.007, 25.65497
1011.489, 4.102570
1011.971, 21.51260
1012.453, 2.026184
1012.935, 26.60260
1013.417, 24.35114
1013.899, 12.42822
1014.382, 10.92755
1014.864, 18.82819
1015.346, 23.85938
1015.828, 21.28033
1016.310, 21.71692
1016.792, 36.43323
1017.274, 46.71429
1017.756, 39.00641
1018.239, 24.43109
1018.721, 12.08905
1019.203, 3.629395
1019.685, 0.7709050
1020.167, 1.177032
1020.649, 2.859711
1021.131, 17.65414
1021.613, 29.30896
1022.095, 29.95932
1022.578, 25.83286
1023.060, 21.82788
1023.542, 18.20612
1024.024, 13.24402
1024.506, 5.662567
1024.988, 3.288605
1025.470, 14.76840
1025.952, 23.07068
1026.435, 18.70880
1026.917, 11.65717
1027.399, 8.958221
1027.881, 10.01105
1028.363, 12.87079
1028.845, 17.68890
1029.327, 20.52701
1029.809, 19.05911
1030.292, 17.97656
1030.774, 20.08295
1031.256, 20.78067
1031.738, 15.32022
1032.220, 7.464355
1032.702, 2.584534
1033.184, 0.4875790
1033.666, 5.694305
1034.148, 31.50192
1034.630, 46.76981
1035.113, 37.68561
1035.595, 25.47934
1036.077, 21.45004
1036.559, 22.36530
1037.041, 22.96634
1037.523, 22.69717
1038.005, 22.97311
1038.487, 23.86942
1038.970, 25.78317
1039.452, 30.04877
1039.934, 33.40210
1040.416, 35.80301
1040.898, 34.89911
1041.380, 25.08313
1041.862, 7.950623
1042.344, 1.540283
1042.826, 10.90860
1043.309, 20.43204
1043.791, 33.03763
1044.273, 38.91385
1044.755, 30.50778
1045.237, 19.56320
1045.719, 18.45944
1046.201, 24.83377
1046.683, 27.99640
1047.166, 26.54431
1047.648, 24.60220
1048.130, 21.89645
1048.612, 19.88779
1049.094, 19.20810
1049.576, 18.82635
1050.058, 18.31628
1050.540, 16.86380
1051.022, 11.13138
1051.505, 6.1340000E-02
1051.987, 2.806488
1052.469, 4.396454
1052.951, 10.80972
1053.433, 13.91275
1053.915, 16.07623
1054.397, 19.06238
1054.879, 21.58289
1055.361, 20.85550
1055.844, 17.27380
1056.326, 15.71201
1056.808, 16.15045
1057.290, 16.14053
1057.772, 15.25839
1058.254, 14.43469
1058.736, 14.13104
1059.218, 14.48813
1059.701, 16.17255
1060.183, 18.27005
1060.665, 16.60886
1061.147, 12.29376
1061.629, 11.59488
1062.111, 14.94278
1062.593, 20.57025
1063.075, 27.54233
1063.557, 31.03735
1064.040, 25.45874
1064.522, 15.39569
1065.004, 7.096344
1065.486, 1.710114
1065.968, 3.961395
1066.450, 11.82285
1066.932, 17.39673
1067.414, 18.91739
1067.896, 21.19727
1068.379, 28.02975
1068.861, 34.97064
1069.343, 36.45325
1069.825, 33.96292
1070.307, 33.49734
1070.789, 32.44354
1071.271, 26.33185
1071.753, 16.36975
1072.236, 9.423645
1072.718, 8.344666
1073.200, 12.52484
1073.682, 28.82025
1074.164, 42.35760
1074.646, 38.21771
1075.128, 25.91513
1075.610, 14.52469
1076.093, 6.280975
1076.575, 3.045563
1077.057, 5.389252
1077.539, 8.335999
1078.021, 10.43671
1078.503, 12.24951
1078.985, 12.05499
1079.467, 13.21686
1079.949, 21.82709
1080.432, 31.93182
1080.914, 32.94391
1081.396, 24.10669
1081.878, 15.56305
1082.360, 5.613220
1082.842, 1.360291
1083.324, 10.98431
1083.806, 18.08960
1084.288, 11.14807
1084.771, 1.122314
1085.253, 1.540466
1085.735, 9.730042
1086.217, 12.14557
1086.699, 6.159912
1087.181, 1.184204
1087.663, 3.539856
1088.145, 5.421631
1088.628, 2.165527
1089.110, 0.9849240
1089.592, 0.3726200
1090.074, 3.726959
1090.556, 3.011108
1091.038, 2.038452
1091.520, 1.501343
1092.002, 6.117157
1092.484, 9.536621
1092.967, 6.272369
1093.449, 3.615601
1093.931, 5.631317
1094.413, 7.633148
1094.895, 2.811584
1095.377, 5.918396
1095.859, 6.083557
1096.341, 0.6386110
1096.823, 0.3613890
1097.306, 7.304138
1097.788, 14.54999
1098.270, 18.78967
1098.752, 21.75110
1099.234, 24.99670
1099.716, 26.74622
1100.198, 23.00714
1100.680, 16.62622
1101.163, 11.64648
1101.645, 8.903625
1102.127, 12.56439
1102.609, 20.59473
1103.091, 20.99622
1103.573, 7.601257
1104.055, 4.205811
1104.537, 0.3015750
1105.020, 10.00928
1105.502, 16.13507
1105.984, 20.43445
1106.466, 24.99188
1106.948, 29.81616
1107.430, 35.67511
1107.912, 42.24670
1108.394, 42.67780
1108.876, 26.52942
1109.359, 15.13147
1109.841, 19.22400
1110.323, 27.96393
1110.805, 38.88617
1111.287, 46.91620
1111.769, 44.00336
1112.251, 32.42810
1112.733, 25.40686
1113.215, 25.93262
1113.698, 26.51587
1114.180, 27.87909
1114.662, 27.62292
1115.144, 22.87091
1115.626, 19.76605
1116.108, 23.23474
1116.590, 30.28186
1117.072, 35.87256
1117.555, 40.01678
1118.037, 39.60144
1118.519, 33.61945
1119.001, 28.16229
1119.483, 23.42609
1119.965, 24.00763
1120.447, 32.97803
1120.929, 39.31445
1121.411, 30.01233
1121.894, 13.69659
1122.376, 13.78284
1122.858, 27.32190
1123.340, 41.75488
1123.822, 55.27325
1124.304, 61.28693
1124.786, 58.78253
1125.268, 51.53644
1125.750, 41.25183
1126.233, 34.74768
1126.715, 42.94385
1127.197, 56.81134
1127.679, 66.67017
1128.161, 71.76697
1128.643, 69.62378
1129.125, 62.18634
1129.607, 52.26843
1130.090, 41.62433
1130.572, 38.52026
1131.054, 51.73682
1131.536, 65.21344
1132.018, 71.83630
1132.500, 74.57404
1132.982, 73.76263
1133.464, 71.51526
1133.947, 69.14062
1134.429, 67.40930
1134.911, 68.59637
1135.393, 74.06812
1135.875, 78.66913
1136.357, 80.64728
1136.839, 83.84174
1137.321, 91.47388
1137.803, 96.52301
1138.286, 93.45966
1138.768, 87.37830
1139.250, 85.78577
1139.732, 88.22491
1140.214, 90.42548
1140.696, 92.41760
1141.178, 93.67224
1141.660, 93.85175
1142.142, 96.77319
1142.625, 103.7933
1143.107, 110.7525
1143.589, 114.5502
1144.071, 115.6934
1144.553, 113.4797
1145.035, 109.9077
1145.517, 114.1967
1145.999, 121.7665
1146.482, 115.3578
1146.964, 96.76874
1147.446, 82.63287
1147.928, 79.20819
1148.410, 81.76666
1148.892, 88.86261
1149.374, 96.85400
1149.856, 104.8945
1150.339, 109.6161
1150.821, 105.8937
1151.303, 98.00793
1151.785, 89.66809
1152.267, 83.25635
1152.749, 86.03949
1153.231, 103.9020
1153.713, 113.2150
1154.195, 100.8519
1154.677, 90.07318
1155.160, 88.73169
1155.642, 90.08612
1156.124, 90.05603
1156.606, 90.33130
1157.088, 94.17310
1157.570, 100.7214
1158.052, 97.88141
1158.534, 82.10773
1159.017, 74.28693
1159.499, 77.31104
1159.981, 76.23706
1160.463, 65.78357
1160.945, 57.47668
1161.427, 59.89032
1161.909, 67.84210
1162.391, 75.50275
1162.874, 81.39508
1163.356, 78.40930
1163.838, 70.44635
1164.320, 73.35724
1164.802, 84.31616
1165.284, 82.36206
1165.766, 62.89874
1166.248, 49.48621
1166.730, 60.25769
1167.213, 75.82916
1167.695, 84.64911
1168.177, 86.55688
1168.659, 76.10583
1169.141, 62.46545
1169.623, 55.60132
1170.105, 56.06860
1170.587, 62.10333
1171.069, 75.27808
1171.552, 81.34076
1172.034, 70.48615
1172.516, 63.82294
1172.998, 65.54388
1173.480, 70.88177
1173.962, 81.78290
1174.444, 89.73846
1174.926, 84.26562
1175.409, 69.93329
1175.891, 62.88098
1176.373, 63.71259
1176.855, 64.14325
1177.337, 64.26593
1177.819, 57.03320
1178.301, 41.50854
1178.783, 35.94476
1179.266, 49.28186
1179.748, 64.10925
1180.230, 61.43994
1180.712, 50.20850
1181.194, 41.32379
1181.676, 36.33246
1182.158, 41.95618
1182.640, 52.09271
1183.122, 52.06213
1183.604, 43.07385
1184.087, 40.44604
1184.569, 51.08533
1185.051, 57.86292
1185.533, 48.06653
1186.015, 39.61194
1186.497, 43.77191
1186.979, 47.57910
1187.461, 39.50122
1187.944, 27.12250
1188.426, 21.78125
1188.908, 22.32513
1189.390, 21.01166
1189.872, 15.37457
1190.354, 17.67493
1190.836, 30.61652
1191.318, 39.46686
1191.801, 40.77911
1192.283, 38.95544
1192.765, 36.28351
1193.247, 33.15918
1193.729, 29.97577
1194.211, 26.83679
1194.693, 22.96619
1195.175, 19.69049
1195.657, 22.12158
1196.140, 28.00317
1196.622, 31.19104
1197.104, 30.12219
1197.586, 23.84808
1198.068, 11.14740
1198.550, 1.782776
1199.032, 2.774658
1199.514, 7.689209
1199.996, 16.59723
1200.479, 24.11316
1200.961, 24.76636
1201.443, 22.17261
1201.925, 21.41071
1202.407, 22.68390
1202.889, 25.14929
1203.371, 30.59271
1203.853, 31.18201
1204.336, 25.58032
1204.818, 19.04889
1205.300, 11.98572
1205.782, 6.968079
1206.264, 5.422119
1206.746, 6.432373
1207.228, 9.431335
1207.710, 13.19452
1208.193, 14.69080
1208.675, 14.40955
1209.157, 12.95410
1209.639, 11.15771
1210.121, 11.63318
1210.603, 14.12305
1211.085, 15.83038
1211.567, 15.66339
1212.049, 14.02002
1212.531, 10.69128
1213.014, 6.558411
1213.496, 0.6500240
1213.978, 5.465759
1214.460, 2.434814
1214.942, 3.999268
1215.424, 8.658569
1215.906, 11.75256
1216.388, 14.66089
1216.871, 16.86761
1217.353, 23.10175
1217.835, 36.08917
1218.317, 40.67230
1218.799, 33.57776
1219.281, 26.60620
1219.763, 24.76379
1220.245, 22.27594
1220.728, 13.25708
1221.210, 2.871521
1221.692, 5.3406000E-02
1222.174, 2.502991
1222.656, 8.478394
1223.138, 15.71674
1223.620, 18.43768
1224.102, 18.83936
1224.584, 27.77490
1225.067, 46.36780
1225.549, 53.83752
1226.031, 34.94427
1226.513, 16.16620
1226.995, 1.640137
1227.477, 4.861206
1227.959, 2.394653
1228.441, 14.21893
1228.923, 26.37128
1229.406, 36.63293
1229.888, 35.08380
1230.370, 23.28302
1230.852, 19.13135
1231.334, 22.98090
1231.816, 24.87097
1232.298, 24.35803
1232.780, 30.30951
1233.263, 44.21692
1233.745, 48.88629
1234.227, 34.39020
1234.709, 16.71368
1235.191, 10.83307
1235.673, 9.310425
1236.155, 15.24664
1236.637, 21.99933
1237.120, 26.22742
1237.602, 27.32758
1238.084, 23.98029
1238.566, 17.13123
1239.048, 9.745605
1239.530, 4.8218001E-02
1240.012, 0.3580320
1240.494, 16.07880
1240.976, 25.95026
1241.458, 17.68811
1241.941, 5.902344
1242.423, 4.458984
1242.905, 0.0000000E+00
##END=



