##NAMES=Benjaminite
##RRUFFID=R070399
##IDEAL CHEMISTRY=Ag_3_Bi_7_S_12_
##LOCALITY=Outlaw Mine, Round Mountain District, Nye County, Nevada, USA
##OWNER=RRUFF
##SOURCE=Michael Scott
##DESCRIPTION=Black polished crystals embedded in epoxy, co-type specimen
##STATUS=The identification of this mineral is not yet confirmed.
##URL=rruff.info/R070399
158.1424, 0.0000000E+00
158.6245, 4.351288
159.1066, 3.864288
159.5887, 0.2933350
160.0709, 2.422699
160.5530, 9.714478
161.0351, 19.51785
161.5172, 32.63724
161.9993, 44.91983
162.4814, 53.89941
162.9636, 59.85992
163.4457, 62.97528
163.9278, 60.92804
164.4099, 56.23453
164.8920, 54.33572
165.3741, 55.95062
165.8563, 57.44742
166.3384, 56.64124
166.8205, 54.27048
167.3026, 51.65277
167.7847, 49.49564
168.2668, 48.12308
168.7490, 49.88150
169.2311, 41.35779
169.7132, 32.67084
170.1953, 29.45563
170.6774, 32.43594
171.1595, 33.92822
171.6417, 32.78912
172.1238, 31.52826
172.6059, 33.60901
173.0880, 41.31870
173.5701, 48.07581
174.0522, 51.81726
174.5344, 52.43393
175.0165, 49.17160
175.4986, 40.36948
175.9807, 28.82849
176.4628, 23.13922
176.9449, 27.98383
177.4271, 29.56650
177.9092, 19.34967
178.3913, 4.286987
178.8734, 6.037659
179.3555, 6.382568
179.8376, 0.3819890
180.3197, 6.303925
180.8019, 12.81854
181.2840, 15.52451
181.7661, 10.75613
182.2482, 2.773346
182.7303, 3.126251
183.2124, 4.213562
183.6946, 1.870056
184.1767, 0.1056820
184.6588, 1.770355
185.1409, 2.928558
185.6230, 2.161041
186.1051, 1.323151
186.5873, 2.998779
187.0694, 8.838501
187.5515, 16.61398
188.0336, 20.25162
188.5157, 17.27780
188.9978, 14.13351
189.4800, 11.16537
189.9621, 9.210602
190.4442, 9.615082
190.9263, 13.18658
191.4084, 18.22638
191.8905, 20.37823
192.3727, 17.63358
192.8548, 15.27328
193.3369, 14.39487
193.8190, 14.41501
194.3011, 13.65106
194.7832, 11.68442
195.2654, 10.37469
195.7475, 14.43005
196.2296, 29.71036
196.7117, 39.06140
197.1938, 37.45438
197.6759, 31.64386
198.1581, 27.18057
198.6402, 25.97037
199.1223, 26.60345
199.6044, 26.42801
200.0865, 24.67444
200.5686, 23.67902
201.0508, 22.11526
201.5329, 22.10789
202.0150, 26.80165
202.4971, 36.61966
202.9792, 47.18338
203.4613, 51.06131
203.9435, 44.80640
204.4256, 39.37514
204.9077, 34.41811
205.3898, 30.87776
205.8719, 30.17630
206.3540, 32.24654
206.8362, 34.95554
207.3183, 34.93839
207.8004, 30.00699
208.2825, 28.08026
208.7646, 32.08220
209.2467, 36.55324
209.7289, 38.89215
210.2110, 38.50922
210.6931, 35.74234
211.1752, 29.84239
211.6573, 18.24017
212.1395, 13.35236
212.6216, 22.23456
213.1037, 31.25336
213.5858, 32.88785
214.0679, 27.83548
214.5500, 22.34801
215.0322, 22.65009
215.5143, 29.53577
215.9964, 37.43390
216.4785, 50.58447
216.9606, 60.13055
217.4427, 60.62247
217.9249, 54.21870
218.4070, 47.11649
218.8891, 44.71948
219.3712, 47.21185
219.8533, 47.68915
220.3354, 43.57903
220.8176, 39.85771
221.2997, 38.50310
221.7818, 38.56940
222.2639, 38.01318
222.7460, 35.39339
223.2281, 30.84854
223.7103, 26.12077
224.1924, 18.93362
224.6745, 14.21469
225.1566, 13.16939
225.6387, 15.16762
226.1208, 20.38341
226.6030, 29.70860
227.0851, 40.50824
227.5672, 40.94458
228.0493, 18.91440
228.5314, 2.559235
229.0135, 1.832565
229.4957, 1.075668
229.9778, 6.754959
230.4599, 13.31261
230.9420, 19.74506
231.4241, 23.56816
231.9062, 23.95679
232.3884, 22.80630
232.8705, 17.59966
233.3526, 12.68869
233.8347, 12.72980
234.3168, 19.07857
234.7989, 27.89810
235.2811, 32.03435
235.7632, 28.41409
236.2453, 27.21671
236.7274, 31.71996
237.2095, 36.77524
237.6916, 39.04195
238.1738, 37.53171
238.6559, 34.12929
239.1380, 30.66127
239.6201, 26.46616
240.1022, 24.49727
240.5843, 27.17174
241.0665, 30.06880
241.5486, 30.37590
242.0307, 28.52196
242.5128, 27.69455
242.9949, 32.65613
243.4770, 44.43008
243.9592, 49.04720
244.4413, 37.47136
244.9234, 27.08330
245.4055, 24.96608
245.8876, 29.43542
246.3697, 35.19966
246.8519, 39.01443
247.3340, 40.92551
247.8161, 40.92290
248.2982, 36.30588
248.7803, 33.51544
249.2624, 36.48817
249.7446, 42.29610
250.2267, 46.26823
250.7088, 45.96045
251.1909, 42.18990
251.6730, 36.48648
252.1551, 26.00607
252.6373, 19.56165
253.1194, 21.89612
253.6015, 28.31631
254.0836, 35.03227
254.5657, 41.27951
255.0478, 44.89037
255.5300, 40.82298
256.0121, 25.91182
256.4942, 14.01884
256.9763, 9.517563
257.4584, 9.603607
257.9406, 13.70314
258.4227, 21.86026
258.9048, 31.16862
259.3869, 39.09016
259.8690, 45.04385
260.3511, 45.97993
260.8333, 37.78297
261.3154, 28.36656
261.7975, 23.59123
262.2796, 23.51437
262.7617, 24.43451
263.2438, 23.23557
263.7260, 20.20264
264.2081, 19.39294
264.6902, 23.88483
265.1723, 26.88478
265.6544, 20.62134
266.1365, 8.212128
266.6187, 0.2887730
267.1008, 6.389816
267.5829, 19.54144
268.0650, 23.39938
268.5471, 14.45035
269.0292, 6.457504
269.5114, 11.68636
269.9935, 24.14215
270.4756, 34.21506
270.9577, 39.99208
271.4398, 41.85591
271.9219, 38.58182
272.4041, 29.99278
272.8862, 22.77388
273.3683, 21.18974
273.8504, 22.64008
274.3325, 21.53990
274.8146, 15.21855
275.2968, 10.78450
275.7789, 15.99022
276.2610, 28.00531
276.7431, 34.57980
277.2252, 29.78033
277.7073, 19.64616
278.1895, 14.27734
278.6716, 14.17020
279.1537, 15.01642
279.6358, 15.56178
280.1179, 16.01736
280.6000, 17.02913
281.0822, 18.88623
281.5643, 20.21861
282.0464, 18.44498
282.5285, 13.08261
283.0106, 11.37198
283.4927, 17.28183
283.9749, 24.65916
284.4570, 27.65327
284.9391, 26.00072
285.4212, 23.50526
285.9033, 23.21509
286.3854, 25.07448
286.8676, 26.16727
287.3497, 25.91454
287.8318, 25.70340
288.3139, 26.54115
288.7960, 27.95950
289.2781, 28.77744
289.7603, 28.33105
290.2424, 26.78397
290.7245, 24.79550
291.2066, 19.87511
291.6887, 17.54761
292.1708, 21.63448
292.6530, 27.73346
293.1351, 29.97496
293.6172, 26.30762
294.0993, 19.60545
294.5814, 14.85683
295.0635, 12.31450
295.5457, 12.10777
296.0278, 14.77698
296.5099, 18.11082
296.9920, 22.11827
297.4741, 26.23311
297.9562, 28.43535
298.4384, 26.18239
298.9205, 18.50061
299.4026, 13.16994
299.8847, 11.12146
300.3668, 10.42055
300.8489, 10.31502
301.3311, 11.02518
301.8131, 13.60983
302.2953, 19.22594
302.7774, 26.77438
303.2595, 30.53049
303.7416, 28.49780
304.2237, 25.29254
304.7058, 20.40036
305.1880, 15.60586
305.6701, 12.97751
306.1522, 13.32765
306.6343, 15.30626
307.1164, 17.27455
307.5985, 19.87746
308.0807, 19.96262
308.5628, 14.26421
309.0449, 7.728577
309.5270, 2.630783
310.0091, 0.6070100
310.4912, 1.647278
310.9734, 1.748810
311.4555, 8.819351
311.9376, 10.90930
312.4197, 3.746170
312.9018, 2.846542
313.3839, 1.441010
313.8661, 5.311050
314.3482, 10.52094
314.8303, 11.05423
315.3124, 8.182426
315.7945, 2.466156
316.2766, 7.178162
316.7588, 13.13966
317.2409, 8.209419
317.7230, 2.149223
318.2051, 9.013962
318.6872, 10.97782
319.1693, 9.916344
319.6515, 5.107391
320.1336, 2.238800
320.6157, 6.586967
321.0978, 5.555122
321.5799, 1.469513
322.0620, 2.580200
322.5442, 6.892670
323.0263, 9.720139
323.5084, 9.829216
323.9905, 8.473358
324.4726, 7.169876
324.9547, 6.230087
325.4369, 5.455513
325.9190, 4.527000
326.4011, 3.414055
326.8832, 2.987679
327.3653, 3.279106
327.8474, 4.280716
328.3296, 6.996628
328.8117, 10.55803
329.2938, 12.24976
329.7759, 10.19431
330.2580, 5.557442
330.7401, 3.702049
331.2223, 7.769646
331.7044, 10.76168
332.1865, 11.78342
332.6686, 11.45926
333.1507, 9.514168
333.6328, 6.186668
334.1150, 3.740318
334.5971, 6.234550
335.0792, 17.16177
335.5613, 23.45364
336.0434, 22.81621
336.5255, 20.16860
337.0077, 16.44953
337.4898, 12.71898
337.9719, 11.20396
338.4540, 14.83546
338.9361, 22.44994
339.4182, 22.77934
339.9004, 8.139496
340.3825, 2.277222
340.8646, 0.4373320
341.3467, 7.597115
341.8288, 14.57784
342.3109, 18.01896
342.7931, 18.52782
343.2752, 16.09692
343.7573, 10.12315
344.2394, 5.389412
344.7215, 2.048370
345.2036, 1.369820
345.6858, 5.961311
346.1679, 15.68085
346.6500, 23.42443
347.1321, 22.75775
347.6142, 16.72420
348.0963, 14.37508
348.5785, 17.82513
349.0606, 21.09010
349.5427, 17.59028
350.0248, 9.875748
350.5069, 5.692245
350.9890, 11.09698
351.4712, 16.76141
351.9533, 13.08076
352.4354, 1.993896
352.9175, 6.122864
353.3996, 6.049530
353.8817, 0.3937230
354.3639, 4.543297
354.8460, 9.277367
355.3281, 12.50278
355.8102, 13.82404
356.2923, 13.52237
356.7744, 11.20648
357.2566, 6.962860
357.7387, 2.762680
358.2208, 0.8270340
358.7029, 1.515762
359.1850, 2.680038
359.6671, 4.710693
360.1493, 6.761230
360.6314, 8.517830
361.1135, 9.988541
361.5956, 11.38122
362.0777, 12.88523
362.5598, 14.19140
363.0420, 14.08307
363.5241, 11.23872
364.0062, 9.044739
364.4883, 6.436966
364.9704, 5.450577
365.4525, 9.776222
365.9347, 19.37598
366.4168, 27.73735
366.8989, 26.00399
367.3810, 13.36700
367.8631, 3.853310
368.3452, 2.269554
368.8274, 4.440491
369.3095, 1.164978
369.7916, 5.767281
370.2737, 12.28949
370.7558, 17.08290
371.2379, 19.91647
371.7201, 18.55789
372.2022, 12.23663
372.6843, 8.310364
373.1664, 11.93694
373.6485, 18.49774
374.1306, 19.93307
374.6128, 14.52454
375.0949, 10.52346
375.5770, 14.09501
376.0591, 21.23544
376.5412, 23.91974
377.0233, 19.94927
377.5055, 16.01355
377.9876, 20.13789
378.4697, 33.38637
378.9518, 39.74226
379.4339, 33.30620
379.9160, 25.27675
380.3982, 21.58576
380.8803, 21.75426
381.3624, 23.72564
381.8445, 26.59892
382.3266, 29.74835
382.8087, 31.29839
383.2909, 30.25455
383.7730, 28.73191
384.2551, 26.90852
384.7372, 24.55998
385.2193, 20.58843
385.7014, 15.36008
386.1836, 11.46384
386.6657, 12.59554
387.1478, 19.27230
387.6299, 20.99700
388.1120, 10.44006
388.5941, 2.344109
389.0763, 2.628845
389.5584, 8.292198
390.0405, 15.21873
390.5226, 22.56728
391.0047, 27.84824
391.4868, 25.50194
391.9690, 14.55705
392.4511, 7.119614
392.9332, 7.043839
393.4153, 10.76156
393.8974, 15.67366
394.3795, 21.66422
394.8617, 25.99696
395.3438, 28.03641
395.8259, 27.32999
396.3080, 20.97654
396.7901, 8.239273
397.2722, 1.294907
397.7544, 0.5543370
398.2365, 11.24487
398.7186, 17.29152
399.2007, 14.84127
399.6828, 12.03690
400.1649, 12.89201
400.6471, 15.24590
401.1292, 14.92779
401.6113, 10.52135
402.0934, 5.076035
402.5755, 3.168900
403.0576, 6.300308
403.5398, 8.649132
404.0219, 10.65066
404.5040, 11.60815
404.9861, 10.67973
405.4682, 8.414001
405.9503, 6.011971
406.4325, 4.167908
406.9146, 2.913513
407.3967, 2.393272
407.8788, 2.586304
408.3609, 3.548424
408.8430, 7.012344
409.3252, 10.19732
409.8073, 9.659920
410.2894, 4.966850
410.7715, 1.005798
411.2536, 4.656441
411.7357, 14.26138
412.2179, 18.46908
412.7000, 14.61602
413.1821, 9.747375
413.6642, 8.490288
414.1463, 9.693169
414.6284, 11.40879
415.1106, 13.27164
415.5927, 15.55124
416.0748, 19.74400
416.5569, 24.71616
417.0390, 26.13921
417.5211, 21.95138
418.0033, 15.89877
418.4854, 13.96211
418.9675, 18.33015
419.4496, 19.21174
419.9317, 11.31229
420.4138, 3.914940
420.8960, 3.780449
421.3781, 9.878075
421.8602, 17.59158
422.3423, 24.18834
422.8244, 29.59961
423.3065, 33.61688
423.7887, 37.18473
424.2708, 37.58836
424.7529, 30.82822
425.2350, 23.59467
425.7171, 22.43743
426.1992, 27.47046
426.6814, 32.61069
427.1635, 31.19500
427.6456, 23.97106
428.1277, 21.28532
428.6098, 26.50348
429.0919, 29.69069
429.5741, 21.21618
430.0562, 8.669678
430.5383, 4.495224
431.0204, 15.06599
431.5025, 26.87379
431.9846, 28.03720
432.4668, 21.19709
432.9489, 15.47535
433.4310, 12.99815
433.9131, 12.96780
434.3952, 15.33280
434.8773, 20.50437
435.3595, 23.19411
435.8416, 21.26591
436.3237, 18.45626
436.8058, 16.82415
437.2879, 16.39780
437.7701, 16.54738
438.2522, 16.96228
438.7343, 17.69739
439.2164, 18.86439
439.6985, 20.29021
440.1806, 22.52059
440.6628, 28.01704
441.1449, 32.24778
441.6270, 31.58474
442.1091, 26.67671
442.5912, 21.08537
443.0733, 17.67954
443.5555, 15.61637
444.0376, 10.78680
444.5197, 0.9964830
445.0018, 5.391731
445.4839, 2.167122
445.9660, 4.544540
446.4482, 9.379723
446.9303, 11.75789
447.4124, 11.84493
447.8945, 8.425812
448.3766, 2.988350
448.8587, 2.185150
449.3409, 7.011856
449.8230, 8.536835
450.3051, 2.825775
450.7872, 8.923523
451.2693, 14.51747
451.7514, 8.181404
452.2336, 2.890373
452.7157, 4.083488
453.1978, 8.445938
453.6799, 11.61755
454.1620, 12.24902
454.6441, 11.06467
455.1263, 8.413483
455.6084, 3.771111
456.0905, 2.052422
456.5726, 6.697472
457.0547, 10.78220
457.5368, 11.32302
458.0190, 10.13671
458.5011, 10.52267
458.9832, 14.11866
459.4653, 18.55556
459.9474, 20.41624
460.4295, 19.66715
460.9117, 18.21334
461.3938, 14.92728
461.8759, 13.09542
462.3580, 16.93079
462.8401, 25.24361
463.3222, 31.79790
463.8044, 36.04832
464.2865, 36.95744
464.7686, 32.05969
465.2507, 22.62699
465.7328, 12.98460
466.2149, 4.597107
466.6971, 1.520302
467.1792, 3.158371
467.6613, 2.111801
468.1434, 7.063896
468.6255, 11.68840
469.1076, 16.04500
469.5898, 20.53860
470.0719, 24.66167
470.5540, 27.59286
471.0361, 28.70948
471.5182, 28.84135
472.0003, 31.38779
472.4825, 38.57220
472.9646, 41.18249
473.4467, 30.72011
473.9288, 20.08076
474.4109, 20.13577
474.8930, 29.98571
475.3752, 36.49992
475.8573, 28.26321
476.3394, 13.45990
476.8215, 6.725716
477.3036, 8.471504
477.7857, 10.23509
478.2679, 7.317703
478.7500, 2.149940
479.2321, 0.8617400
479.7142, 4.802780
480.1963, 8.503891
480.6784, 10.28223
481.1606, 11.81312
481.6427, 15.66776
482.1248, 21.24238
482.6069, 24.45254
483.0890, 21.66402
483.5711, 14.61663
484.0533, 13.43053
484.5354, 24.49598
485.0175, 30.85111
485.4996, 28.28415
485.9817, 21.96648
486.4638, 14.76805
486.9460, 7.573265
487.4281, 1.921501
487.9102, 1.212776
488.3923, 1.881737
488.8744, 0.7627940
489.3565, 7.563629
489.8387, 12.74146
490.3208, 12.87894
490.8029, 9.696663
491.2850, 7.056496
491.7671, 5.136574
492.2492, 3.218498
492.7314, 0.3172990
493.2135, 3.187355
493.6956, 1.849869
494.1777, 3.458794
494.6598, 8.609505
495.1419, 10.27027
495.6241, 9.194832
496.1062, 10.46317
496.5883, 18.46527
497.0704, 22.51223
497.5525, 17.95573
498.0346, 11.71407
498.5168, 9.877907
498.9989, 12.81806
499.4810, 16.31067
499.9631, 16.58535
500.4452, 14.64105
500.9273, 14.48228
501.4095, 16.60944
501.8916, 18.36279
502.3737, 17.99863
502.8558, 16.64205
503.3379, 17.23029
503.8200, 20.25516
504.3022, 22.77438
504.7843, 23.50689
505.2664, 23.30316
505.7485, 23.32231
506.2306, 23.51385
506.7127, 22.28668
507.1949, 17.97490
507.6770, 12.18256
508.1591, 11.69616
508.6412, 23.12992
509.1233, 29.49596
509.6054, 25.96912
510.0876, 20.35043
510.5697, 18.08690
511.0518, 19.40810
511.5339, 21.67291
512.0161, 23.31197
512.4982, 24.32428
512.9803, 24.27911
513.4624, 22.79353
513.9445, 22.89706
514.4266, 28.10262
514.9088, 33.20282
515.3909, 30.30933
515.8730, 19.22036
516.3551, 11.19939
516.8372, 10.16759
517.3193, 12.34912
517.8015, 13.79193
518.2836, 14.49313
518.7657, 16.03828
519.2478, 19.58921
519.7299, 23.82696
520.2120, 25.62270
520.6942, 23.57457
521.1763, 22.37413
521.6584, 23.64683
522.1405, 24.16520
522.6226, 21.18755
523.1047, 16.01262
523.5869, 12.16758
524.0690, 11.68326
524.5511, 12.92184
525.0332, 14.16152
525.5153, 15.63957
525.9974, 13.78120
526.4796, 5.459831
526.9617, 2.662834
527.4438, 1.111351
527.9259, 8.651161
528.4080, 13.26314
528.8901, 5.216286
529.3723, 2.890228
529.8544, 2.852516
530.3365, 2.360741
530.8186, 7.023552
531.3007, 9.145119
531.7828, 9.577660
532.2650, 9.182922
532.7471, 7.545944
533.2292, 7.730827
533.7113, 13.01547
534.1934, 16.31486
534.6755, 13.46304
535.1577, 8.319016
535.6398, 5.865143
536.1219, 7.770576
536.6040, 10.92532
537.0861, 13.25712
537.5682, 14.49201
538.0504, 13.02003
538.5325, 8.257584
539.0146, 3.747902
539.4967, 1.446930
539.9788, 1.688362
540.4609, 5.076035
540.9431, 16.58210
541.4252, 24.39159
541.9073, 24.05981
542.3894, 20.31091
542.8715, 15.93422
543.3536, 12.34395
543.8358, 12.50447
544.3179, 19.90053
544.8000, 31.84624
545.2821, 35.67946
545.7642, 27.77193
546.2463, 21.48357
546.7285, 22.54294
547.2106, 24.84179
547.6927, 23.29388
548.1748, 18.09293
548.6569, 13.73941
549.1390, 12.32925
549.6211, 12.66930
550.1032, 13.99352
550.5853, 16.01780
551.0674, 17.84001
551.5496, 19.50296
552.0317, 20.50749
552.5138, 19.70707
552.9959, 16.11146
553.4780, 14.08422
553.9601, 14.73480
554.4423, 15.51980
554.9244, 12.93328
555.4065, 10.57310
555.8886, 16.19762
556.3707, 32.99098
556.8528, 49.12296
557.3350, 46.75277
557.8171, 28.97093
558.2992, 21.26373
558.7813, 29.14139
559.2634, 37.31391
559.7455, 34.89496
560.2277, 25.08077
560.7098, 18.72543
561.1919, 16.88073
561.6740, 16.75786
562.1561, 18.95058
562.6382, 21.54916
563.1204, 22.01434
563.6025, 20.39035
564.0846, 20.40792
564.5667, 25.96159
565.0488, 34.16730
565.5309, 32.46386
566.0131, 14.83461
566.4952, 2.512733
566.9773, 2.622993
567.4594, 6.473030
567.9415, 10.13128
568.4236, 13.05237
568.9058, 14.39392
569.3879, 12.58227
569.8700, 10.13340
570.3521, 9.949173
570.8342, 11.32185
571.3163, 12.21572
571.7985, 12.12291
572.2806, 9.949409
572.7627, 3.276253
573.2448, 9.286110
573.7269, 13.18470
574.2090, 1.431717
574.6912, 12.45959
575.1733, 12.27782
575.6554, 6.754196
576.1375, 1.266113
576.6196, 2.487526
577.1017, 2.957619
577.5839, 4.302444
578.0660, 15.93853
578.5481, 19.35546
579.0302, 13.37253
579.5123, 8.082649
579.9944, 8.144592
580.4766, 11.50904
580.9587, 14.58354
581.4408, 17.52515
581.9229, 19.71470
582.4050, 22.16746
582.8871, 22.82527
583.3693, 16.97466
583.8514, 8.650742
584.3335, 7.644623
584.8156, 18.37331
585.2977, 32.86143
585.7798, 37.37567
586.2620, 30.83779
586.7441, 25.88163
587.2262, 23.46002
587.7083, 21.72597
588.1904, 20.12231
588.6725, 18.32159
589.1547, 15.57380
589.6368, 10.36665
590.1189, 7.950439
590.6010, 15.64700
591.0831, 24.95734
591.5652, 22.22694
592.0474, 8.596916
592.5295, 2.191719
593.0116, 0.8386230
593.4937, 9.251457
593.9758, 18.13671
594.4579, 26.98882
594.9401, 31.74134
595.4222, 30.89417
595.9043, 26.74049
596.3864, 17.17669
596.8685, 5.228699
597.3506, 1.747589
597.8328, 0.2741470
598.3149, 5.674538
598.7970, 9.456070
599.2791, 12.34589
599.7612, 17.85130
600.2433, 26.70615
600.7255, 34.42397
601.2076, 37.50056
601.6897, 36.05138
602.1718, 31.16557
602.6539, 13.50815
603.1360, 4.725883
603.6182, 15.05946
604.1003, 27.75075
604.5824, 28.20226
605.0645, 18.27906
605.5466, 11.22315
606.0287, 16.96748
606.5109, 26.48019
606.9930, 24.66427
607.4751, 13.09559
607.9572, 4.392380
608.4393, 1.789017
608.9214, 2.205849
609.4036, 2.699844
609.8857, 3.279305
610.3678, 5.439575
610.8499, 12.69961
611.3320, 16.94057
611.8141, 12.40031
612.2963, 6.387108
612.7784, 8.302902
613.2605, 17.60158
613.7426, 23.98902
614.2247, 17.85288
614.7068, 4.824211
615.1890, 1.005280
615.6711, 0.6378780
616.1532, 3.302895
616.6353, 5.029816
617.1174, 7.392822
617.5995, 13.61121
618.0817, 23.79174
618.5638, 28.02107
619.0459, 22.26791
619.5280, 14.73547
620.0101, 4.661713
620.4922, 3.468178
620.9744, 2.716209
621.4565, 7.176018
621.9386, 18.81434
622.4207, 26.59585
622.9028, 30.36950
623.3849, 28.25481
623.8671, 19.03296
624.3492, 10.75514
624.8313, 4.527153
625.3134, 1.761810
625.7955, 5.557999
626.2776, 15.48572
626.7598, 24.82583
627.2419, 34.39911
627.7240, 41.27756
628.2061, 43.72018
628.6882, 42.56110
629.1703, 37.94181
629.6525, 30.49770
630.1346, 23.03370
630.6167, 17.68725
631.0988, 14.18420
631.5809, 15.55699
632.0630, 24.49489
632.5452, 32.56024
633.0273, 38.69327
633.5094, 41.76318
633.9915, 38.80917
634.4736, 30.09606
634.9557, 25.07201
635.4379, 31.29504
635.9200, 35.96761
636.4021, 27.76645
636.8842, 14.96240
637.3663, 12.38132
637.8484, 22.53409
638.3306, 33.93381
638.8127, 35.04769
639.2948, 27.45892
639.7769, 19.98949
640.2590, 11.48403
640.7411, 7.337051
641.2233, 11.55512
641.7054, 18.48476
642.1875, 22.66885
642.6696, 24.60150
643.1517, 25.59915
643.6339, 26.97696
644.1160, 25.83078
644.5981, 16.86695
645.0802, 6.214417
645.5623, 4.453819
646.0444, 12.88126
646.5266, 22.48335
647.0087, 24.84366
647.4908, 21.39481
647.9729, 18.93998
648.4550, 18.05574
648.9371, 15.58387
649.4193, 7.888237
649.9014, 1.454216
650.3835, 4.000557
650.8656, 14.29225
651.3477, 21.98370
651.8298, 25.58292
652.3120, 25.84766
652.7941, 20.79742
653.2762, 13.77376
653.7583, 9.438866
654.2404, 8.292793
654.7225, 7.330811
655.2047, 3.687828
655.6868, 1.080452
656.1689, 2.532581
656.6510, 0.2560880
657.1331, 3.137238
657.6152, 8.985886
658.0974, 13.08754
658.5795, 9.701569
659.0616, 0.7543950
659.5437, 5.073425
660.0258, 6.932690
660.5079, 5.691265
660.9901, 1.149086
661.4722, 9.175056
661.9543, 13.86417
662.4364, 14.93396
662.9185, 14.21575
663.4006, 12.50647
663.8828, 10.95274
664.3649, 12.75603
664.8470, 18.07690
665.3291, 21.25616
665.8112, 20.77620
666.2933, 19.63082
666.7755, 20.38606
667.2576, 22.31503
667.7397, 22.24771
668.2218, 18.55694
668.7039, 15.53333
669.1860, 13.46662
669.6682, 12.81506
670.1503, 14.80929
670.6324, 18.50254
671.1145, 21.39014
671.5966, 22.17411
672.0787, 22.19083
672.5609, 23.71774
673.0430, 26.25094
673.5251, 26.91338
674.0072, 24.98377
674.4893, 23.27480
674.9714, 23.70032
675.4536, 25.29971
675.9357, 25.42842
676.4178, 22.40676
676.8999, 21.63660
677.3820, 24.45855
677.8641, 28.33933
678.3463, 32.77570
678.8284, 37.02483
679.3105, 39.98405
679.7926, 41.00904
680.2747, 39.92307
680.7568, 35.13399
681.2390, 28.44208
681.7211, 24.13689
682.2032, 22.35099
682.6853, 22.13779
683.1674, 23.60210
683.6495, 24.65092
684.1317, 21.24783
684.6138, 11.40945
685.0959, 7.724586
685.5780, 15.48492
686.0601, 23.09074
686.5422, 29.26969
687.0244, 33.03665
687.5065, 32.05712
687.9886, 26.70124
688.4707, 22.91652
688.9528, 25.77496
689.4349, 30.62542
689.9171, 33.29893
690.3992, 33.53597
690.8813, 29.79055
691.3634, 21.76366
691.8455, 13.33181
692.3276, 8.406311
692.8098, 6.650383
693.2919, 4.943497
693.7740, 1.747482
694.2561, 2.085144
694.7382, 10.54415
695.2203, 19.56412
695.7025, 23.35757
696.1846, 23.22837
696.6667, 24.62645
697.1488, 32.29498
697.6309, 36.66002
698.1130, 30.49884
698.5952, 19.34542
699.0773, 8.516640
699.5594, 0.5062560
700.0415, 6.377636
700.5236, 8.244686
701.0057, 6.756527
701.4879, 2.506847
701.9700, 4.703331
702.4521, 10.94965
702.9342, 16.45942
703.4163, 19.40816
703.8984, 17.35603
704.3806, 12.51575
704.8627, 10.45395
705.3448, 12.62821
705.8269, 13.19371
706.3090, 7.479759
706.7911, 3.806801
707.2733, 9.838699
707.7554, 20.45052
708.2375, 26.51545
708.7196, 25.38554
709.2017, 22.33544
709.6838, 22.78083
710.1660, 25.00909
710.6481, 23.87444
711.1302, 19.59914
711.6123, 17.47456
712.0944, 19.77627
712.5765, 23.13353
713.0587, 22.97366
713.5408, 18.87932
714.0229, 18.13749
714.5050, 25.22927
714.9871, 30.00122
715.4692, 28.71483
715.9514, 26.19804
716.4335, 27.23154
716.9156, 30.95747
717.3977, 31.86980
717.8798, 26.60266
718.3619, 19.92297
718.8441, 13.86574
719.3262, 9.438438
719.8083, 9.772766
720.2904, 14.70689
720.7725, 21.38619
721.2546, 27.90453
721.7368, 32.89273
722.2189, 31.07678
722.7010, 20.56988
723.1831, 17.12431
723.6652, 26.03559
724.1473, 33.95890
724.6295, 32.87203
725.1116, 25.93922
725.5937, 19.38169
726.0758, 12.55836
726.5579, 9.419853
727.0400, 13.66309
727.5222, 17.39256
728.0043, 12.65249
728.4864, 5.295895
728.9685, 3.940540
729.4506, 10.42675
729.9327, 17.75124
730.4149, 17.93343
730.8970, 15.11220
731.3791, 21.61762
731.8612, 35.80375
732.3433, 40.43062
732.8254, 29.33504
733.3076, 15.07191
733.7897, 10.81621
734.2718, 15.60901
734.7539, 16.41504
735.2360, 9.705864
735.7181, 4.905033
736.2003, 4.337566
736.6824, 4.722839
737.1645, 3.667503
737.6466, 1.932678
738.1287, 2.032696
738.6108, 5.584614
739.0930, 8.726551
739.5751, 8.809017
740.0572, 7.643520
740.5393, 6.838276
741.0214, 6.744801
741.5035, 8.130001
741.9857, 11.36492
742.4678, 14.35441
742.9499, 13.39075
743.4320, 8.874779
743.9141, 6.443283
744.3962, 6.317226
744.8784, 7.488411
745.3605, 9.918594
745.8426, 12.97907
746.3247, 16.01569
746.8068, 19.13952
747.2889, 21.14476
747.7711, 19.78728
748.2532, 20.29223
748.7353, 26.82490
749.2174, 33.55617
749.6995, 34.50770
750.1816, 30.44282
750.6638, 26.95379
751.1459, 27.63846
751.6280, 27.98153
752.1101, 21.36904
752.5922, 12.31284
753.0743, 10.72408
753.5565, 16.60201
754.0386, 21.35178
754.5207, 19.74013
755.0028, 15.50985
755.4849, 16.56541
755.9670, 23.76083
756.4492, 28.03587
756.9313, 28.28271
757.4134, 27.92356
757.8955, 27.67147
758.3776, 27.88315
758.8597, 29.00938
759.3419, 31.23230
759.8240, 33.99804
760.3061, 40.99562
760.7882, 43.72652
761.2703, 36.16067
761.7524, 24.59835
762.2346, 13.92705
762.7167, 5.821766
763.1988, 2.437305
763.6809, 6.613438
764.1630, 13.13474
764.6451, 16.28372
765.1273, 17.03653
765.6094, 17.41475
766.0915, 17.84851
766.5736, 19.33272
767.0557, 22.69635
767.5378, 26.48497
768.0200, 27.74814
768.5021, 26.52002
768.9842, 21.80053
769.4663, 10.30850
769.9484, 2.419865
770.4305, 4.573517
770.9127, 11.51088
771.3948, 15.67537
771.8769, 16.83075
772.3590, 18.48418
772.8411, 25.01376
773.3232, 27.29412
773.8054, 16.42244
774.2875, 3.095428
774.7696, 1.219147
775.2517, 3.789524
775.7338, 12.16084
776.2159, 23.37424
776.6981, 30.74961
777.1802, 22.06270
777.6623, 4.962852
778.1444, 1.910290
778.6265, 2.624542
779.1086, 7.692657
779.5908, 7.119892
780.0729, 4.268101
780.5550, 5.321815
781.0371, 10.58679
781.5192, 17.97056
782.0013, 31.30799
782.4835, 36.15675
782.9656, 22.45894
783.4477, 1.905113
783.9298, 12.70133
784.4119, 21.51480
784.8940, 20.87799
785.3762, 0.4704020
785.8583, 16.29553
786.3404, 22.41597
786.8225, 22.89671
787.3046, 21.12592
787.7867, 17.59135
788.2689, 13.24950
788.7510, 7.442520
789.2331, 3.983292
789.7152, 8.017097
790.1973, 15.46492
790.6794, 20.78280
791.1616, 23.31287
791.6437, 22.28756
792.1258, 17.36613
792.6079, 12.35811
793.0900, 13.02224
793.5721, 18.60188
794.0543, 21.08836
794.5364, 19.79792
795.0185, 20.22518
795.5006, 25.29110
795.9827, 29.49453
796.4648, 25.95903
796.9470, 15.91322
797.4291, 12.74984
797.9112, 23.33739
798.3933, 31.03854
798.8754, 34.83036
799.3575, 35.86219
799.8397, 32.92665
800.3218, 28.24672
800.8039, 25.74631
801.2860, 26.47499
801.7681, 28.31744
802.2502, 32.72298
802.7324, 35.56149
803.2145, 30.55695
803.6966, 21.94640
804.1787, 18.60152
804.6608, 22.19917
805.1429, 26.43593
805.6251, 25.50750
806.1072, 22.39137
806.5893, 24.64713
807.0714, 31.24345
807.5535, 34.33260
808.0356, 32.53875
808.5178, 27.20227
808.9999, 18.02238
809.4820, 8.373894
809.9641, 8.031448
810.4462, 21.68387
810.9283, 26.94320
811.4105, 17.20807
811.8926, 9.900810
812.3747, 15.32724
812.8568, 24.17303
813.3389, 24.81146
813.8210, 17.19441
814.3032, 12.50058
814.7853, 15.16967
815.2674, 17.42184
815.7495, 16.74967
816.2316, 14.41010
816.7137, 10.68529
817.1959, 6.412273
817.6780, 3.155239
818.1601, 1.381004
818.6422, 1.672253
819.1243, 6.963520
819.6064, 13.25838
820.0886, 13.19907
820.5707, 8.272163
821.0528, 5.136894
821.5349, 6.126728
822.0170, 8.636719
822.4991, 9.867027
822.9813, 10.18095
823.4634, 11.45645
823.9455, 13.81394
824.4276, 14.70636
824.9097, 13.45522
825.3918, 11.08744
825.8740, 8.085373
826.3561, 5.026344
826.8382, 5.021656
827.3203, 11.11207
827.8024, 14.32339
828.2845, 12.39864
828.7667, 10.35859
829.2488, 9.334496
829.7309, 9.492653
830.2130, 11.54947
830.6951, 15.49673
831.1772, 18.37891
831.6594, 18.95558
832.1415, 18.98544
832.6236, 19.02507
833.1057, 19.34892
833.5878, 19.67496
834.0699, 20.00325
834.5521, 19.22897
835.0342, 16.62503
835.5163, 14.14445
835.9984, 12.63033
836.4805, 13.00210
836.9626, 17.40667
837.4448, 24.59335
837.9269, 30.69160
838.4090, 34.22451
838.8911, 33.74918
839.3732, 26.33227
839.8553, 14.87063
840.3375, 10.40154
840.8196, 13.27472
841.3017, 17.46619
841.7838, 21.31951
842.2659, 23.41321
842.7480, 24.31592
843.2302, 24.21957
843.7123, 18.22176
844.1944, 1.529507
844.6765, 4.911148
845.1586, 6.499500
845.6407, 16.82153
846.1229, 17.57784
846.6050, 15.85213
847.0871, 20.40479
847.5692, 30.32965
848.0513, 33.26576
848.5334, 20.12073
849.0156, 9.853645
849.4977, 9.411007
849.9798, 12.12019
850.4619, 13.15401
850.9440, 13.06777
851.4261, 14.68629
851.9083, 19.10036
852.3904, 21.81702
852.8725, 17.75795
853.3546, 12.34444
853.8367, 12.38512
854.3188, 15.20365
854.8010, 13.94164
855.2831, 8.089909
855.7652, 4.372261
856.2473, 8.374054
856.7294, 15.36128
857.2115, 16.20000
857.6937, 12.57056
858.1758, 13.23247
858.6579, 18.73564
859.1400, 20.06150
859.6221, 12.47165
860.1042, 2.760674
860.5864, 1.093746
861.0685, 7.088989
861.5506, 9.533321
862.0327, 7.440136
862.5148, 5.532478
862.9969, 4.441368
863.4791, 4.501354
863.9612, 5.964836
864.4433, 8.788841
864.9254, 12.86429
865.4075, 19.18842
865.8896, 24.70999
866.3718, 31.80751
866.8539, 35.34352
867.3360, 30.07054
867.8181, 22.50643
868.3002, 20.85951
868.7823, 25.13914
869.2645, 27.04059
869.7466, 20.97559
870.2287, 16.77361
870.7108, 20.32100
871.1929, 25.56192
871.6750, 26.99163
872.1572, 25.59271
872.6393, 25.15073
873.1214, 27.00659
873.6035, 27.76007
874.0856, 23.91861
874.5677, 18.55070
875.0499, 13.80370
875.5320, 10.59381
876.0141, 11.82242
876.4962, 17.05598
876.9783, 20.77126
877.4604, 18.81573
877.9426, 15.13068
878.4247, 17.21418
878.9068, 22.98974
879.3889, 24.28527
879.8710, 20.84364
880.3531, 16.61219
880.8353, 13.12638
881.3174, 10.63555
881.7995, 9.898911
882.2816, 10.25762
882.7637, 5.627796
883.2458, 5.918427
883.7280, 5.779873
884.2101, 13.74105
884.6922, 29.37582
885.1743, 24.14347
885.6564, 7.392159
886.1385, 0.6657640
886.6207, 1.451893
887.1028, 6.027935
887.5849, 17.36988
888.0670, 24.15075
888.5491, 21.42140
889.0313, 14.67775
889.5134, 6.243874
889.9955, 2.541599
890.4776, 5.399670
890.9597, 2.688137
891.4418, 8.383205
891.9240, 8.837074
892.4061, 7.628021
892.8882, 5.714256
893.3703, 3.804970
893.8524, 1.914154
894.3345, 0.3350870
894.8167, 1.939445
895.2988, 12.44349
895.7809, 21.16277
896.2630, 21.16533
896.7451, 16.47443
897.2272, 9.264805
897.7094, 1.850147
898.1915, 3.457787
898.6736, 6.163837
899.1557, 5.397839
899.6378, 0.7560920
900.1199, 9.364632
900.6021, 18.03617
901.0842, 25.94984
901.5663, 31.68950
902.0484, 35.00858
902.5305, 35.99028
903.0126, 35.32624
903.4948, 33.07212
903.9769, 28.33363
904.4590, 22.58755
904.9411, 21.97252
905.4232, 25.71321
905.9053, 25.50489
906.3875, 18.69711
906.8696, 12.17234
907.3517, 13.09285
907.8338, 18.47651
908.3159, 17.56219
908.7980, 10.27579
909.2802, 7.578468
909.7623, 10.91315
910.2444, 17.38796
910.7265, 25.66763
911.2086, 33.20913
911.6907, 35.95591
912.1729, 33.90733
912.6550, 27.39217
913.1371, 12.67659
913.6192, 7.179024
914.1013, 18.70269
914.5834, 31.73746
915.0656, 35.85295
915.5477, 34.89849
916.0298, 36.94530
916.5119, 45.53080
916.9940, 45.34011
917.4761, 27.98492
917.9583, 13.74828
918.4404, 6.478992
918.9225, 4.738380
919.4046, 11.05142
919.8867, 22.22906
920.3688, 26.44308
920.8510, 19.06108
921.3331, 13.10903
921.8152, 10.17250
922.2973, 9.356503
922.7794, 11.74899
923.2615, 15.04889
923.7437, 17.39413
924.2258, 18.27552
924.7079, 16.22299
925.1900, 7.911674
925.6721, 1.363804
926.1542, 0.3633920
926.6364, 1.933388
927.1185, 5.707642
927.6006, 9.527519
928.0827, 9.235199
928.5648, 4.415546
929.0469, 1.229584
929.5291, 4.831791
930.0112, 9.318794
930.4933, 9.661644
930.9754, 8.774128
931.4575, 11.04483
931.9396, 15.38046
932.4218, 16.97206
932.9039, 14.17188
933.3860, 12.32877
933.8681, 18.89556
934.3502, 26.70872
934.8323, 24.97002
935.3145, 17.88916
935.7966, 13.35996
936.2787, 12.76622
936.7608, 15.98161
937.2429, 23.25150
937.7250, 29.20865
938.2072, 24.27090
938.6893, 14.38299
939.1714, 15.19587
939.6535, 23.75705
940.1356, 26.68097
940.6177, 21.47413
941.0999, 15.90683
941.5820, 16.23717
942.0641, 19.17501
942.5462, 17.55881
943.0283, 12.33424
943.5104, 8.035461
943.9926, 4.882355
944.4747, 3.350166
944.9568, 3.555611
945.4389, 5.031834
945.9210, 7.267200
946.4031, 10.66364
946.8853, 17.73678
947.3674, 28.44761
947.8495, 32.63830
948.3316, 29.06508
948.8137, 26.25012
949.2958, 27.24912
949.7780, 28.20712
950.2601, 24.23569
950.7422, 16.86614
951.2243, 17.37676
951.7064, 28.48917
952.1885, 27.93039
952.6707, 9.445763
953.1528, 4.388615
953.6349, 1.226128
954.1170, 7.618477
954.5991, 5.712215
955.0812, 6.015026
955.5634, 6.362106
956.0455, 8.869156
956.5276, 22.17219
957.0097, 33.11867
957.4918, 39.10443
957.9739, 37.12154
958.4561, 30.49963
958.9382, 23.84595
959.4203, 16.80754
959.9024, 14.54976
960.3845, 17.82867
960.8666, 24.96801
961.3488, 43.54364
961.8309, 54.93893
962.3130, 41.27272
962.7951, 16.08412
963.2772, 6.699650
963.7593, 16.69366
964.2415, 23.38298
964.7236, 24.84459
965.2057, 25.79595
965.6878, 30.40459
966.1699, 31.44353
966.6520, 19.57246
967.1342, 1.777985
967.6163, 5.175949
968.0984, 2.318420
968.5805, 7.633320
969.0626, 10.88311
969.5447, 10.65889
970.0269, 1.139145
970.5090, 7.023849
970.9911, 2.190414
971.4732, 9.944691
971.9553, 12.85148
972.4374, 0.9259570
972.9196, 5.511501
973.4017, 1.883556
973.8838, 8.037464
974.3659, 4.326683
974.8480, 6.8034999E-02
975.3301, 5.818527
975.8123, 17.89350
976.2944, 21.11587
976.7765, 8.430252
977.2586, 2.631878
977.7407, 16.10892
978.2228, 28.59373
978.7050, 32.20121
979.1871, 29.79707
979.6692, 21.26240
980.1513, 9.576710
980.6334, 3.542713
981.1155, 6.525887
981.5977, 10.62003
982.0798, 15.86258
982.5619, 18.85921
983.0440, 16.14489
983.5261, 11.56016
984.0082, 8.617908
984.4904, 7.790668
984.9725, 9.148846
985.4546, 14.27067
985.9367, 17.11878
986.4188, 10.81566
986.9009, 6.254082
987.3831, 13.31617
987.8652, 23.69845
988.3473, 27.50421
988.8294, 24.84418
989.3115, 21.32865
989.7936, 18.31254
990.2758, 15.55998
990.7579, 11.54792
991.2400, 9.348892
991.7221, 12.70232
992.2042, 17.84357
992.6863, 20.93745
993.1685, 21.31158
993.6506, 18.48020
994.1327, 10.30719
994.6148, 6.120602
995.0969, 13.35535
995.5790, 22.84284
996.0612, 29.83979
996.5433, 33.89885
997.0254, 34.13569
997.5075, 31.30135
997.9896, 28.27000
998.4717, 25.64627
998.9539, 24.07866
999.4360, 25.77385
999.9181, 26.57574
1000.400, 22.42633
1000.882, 16.40865
1001.364, 11.63622
1001.847, 8.922359
1002.329, 9.694180
1002.811, 16.55327
1003.293, 20.27126
1003.775, 11.09763
1004.257, 3.171562
1004.739, 10.10922
1005.221, 21.53735
1005.703, 23.83329
1006.186, 17.24249
1006.668, 9.698914
1007.150, 2.629513
1007.632, 0.9517250
1008.114, 2.419582
1008.596, 7.411724
1009.078, 11.48951
1009.560, 14.57032
1010.043, 17.00714
1010.525, 18.61316
1011.007, 17.99633
1011.489, 14.47937
1011.971, 12.35138
1012.453, 16.73571
1012.935, 18.71459
1013.417, 9.493439
1013.899, 1.178391
1014.382, 2.111565
1014.864, 4.950455
1015.346, 10.31761
1015.828, 11.06050
1016.310, 11.20827
1016.792, 12.70298
1017.274, 13.52660
1017.756, 9.953445
1018.239, 7.218853
1018.721, 13.30443
1019.203, 24.76379
1019.685, 29.80254
1020.167, 24.23399
1020.649, 19.78368
1021.131, 20.42160
1021.613, 22.81815
1022.095, 27.74833
1022.578, 31.76508
1023.060, 30.51466
1023.542, 26.02560
1024.024, 24.06936
1024.506, 26.21650
1024.988, 27.48492
1025.470, 25.93287
1025.952, 24.03825
1026.435, 20.84845
1026.917, 18.41813
1027.399, 18.20551
1027.881, 20.06155
1028.363, 23.78065
1028.845, 30.74032
1029.327, 34.89322
1029.809, 34.95004
1030.292, 32.03129
1030.774, 20.31970
1031.256, 11.93657
1031.738, 17.90941
1032.220, 30.21155
1032.702, 37.14206
1033.184, 37.88479
1033.666, 34.43921
1034.148, 19.22894
1034.630, 11.23957
1035.113, 20.84463
1035.595, 30.47674
1036.077, 28.79098
1036.559, 22.02491
1037.041, 19.93054
1037.523, 22.83327
1038.005, 23.38425
1038.487, 18.25893
1038.970, 16.13051
1039.452, 21.39826
1039.934, 24.57149
1040.416, 19.15670
1040.898, 11.57338
1041.380, 10.60462
1041.862, 15.28182
1042.344, 14.39130
1042.826, 3.261478
1043.309, 3.119377
1043.791, 3.302189
1044.273, 0.2997060
1044.755, 6.393173
1045.237, 13.74677
1045.719, 19.59387
1046.201, 23.29678
1046.683, 21.01367
1047.166, 8.591496
1047.648, 5.282261
1048.130, 15.43755
1048.612, 22.02928
1049.094, 19.25214
1049.576, 13.19617
1050.058, 8.768379
1050.540, 5.106781
1051.022, 1.590927
1051.505, 12.84038
1051.987, 9.431839
1052.469, 12.24137
1052.951, 25.15666
1053.433, 21.98765
1053.915, 13.98800
1054.397, 7.625401
1054.879, 4.547928
1055.361, 9.214165
1055.844, 20.51823
1056.326, 24.50594
1056.808, 21.23802
1057.290, 19.70547
1057.772, 21.45844
1058.254, 23.20758
1058.736, 23.13463
1059.218, 23.45609
1059.701, 27.88271
1060.183, 34.39154
1060.665, 35.35223
1061.147, 31.91730
1061.629, 30.57774
1062.111, 31.61586
1062.593, 32.92304
1063.075, 33.70459
1063.557, 32.90910
1064.040, 27.66984
1064.522, 22.08393
1065.004, 28.06375
1065.486, 38.96579
1065.968, 36.44386
1066.450, 23.53768
1066.932, 15.26081
1067.414, 15.57364
1067.896, 20.26723
1068.379, 27.73706
1068.861, 33.76448
1069.343, 30.54701
1069.825, 24.61858
1070.307, 26.03738
1070.789, 31.29243
1071.271, 31.44891
1071.753, 26.86321
1072.236, 26.57439
1072.718, 36.08382
1073.200, 42.84897
1073.682, 31.87588
1074.164, 20.83235
1074.646, 29.54982
1075.128, 43.14594
1075.610, 41.37407
1076.093, 28.13229
1076.575, 18.90338
1077.057, 17.80531
1077.539, 19.02766
1078.021, 20.26886
1078.503, 23.01862
1078.985, 32.73671
1079.467, 39.50133
1079.949, 30.78156
1080.432, 16.19073
1080.914, 13.82188
1081.396, 24.83634
1081.878, 29.89601
1082.360, 20.14542
1082.842, 12.52245
1083.324, 8.075932
1083.806, 8.061794
1084.288, 18.96700
1084.771, 30.18967
1085.253, 28.14528
1085.735, 15.93084
1086.217, 8.820961
1086.699, 8.605938
1087.181, 9.064598
1087.663, 12.36584
1088.145, 11.20889
1088.628, 0.8016550
1089.110, 9.058369
1089.592, 1.085556
1090.074, 15.82327
1090.556, 26.00680
1091.038, 29.24900
1091.520, 31.66975
1092.002, 33.32478
1092.484, 33.84886
1092.967, 33.31488
1093.449, 30.25866
1093.931, 23.43252
1094.413, 16.26476
1094.895, 12.88024
1095.377, 12.96442
1095.859, 17.10059
1096.341, 24.31212
1096.823, 27.62299
1097.306, 27.63089
1097.788, 28.24827
1098.270, 30.60655
1098.752, 31.34959
1099.234, 27.26413
1099.716, 22.45192
1100.198, 25.60048
1100.680, 31.31466
1101.163, 26.02314
1101.645, 14.44495
1102.127, 9.528984
1102.609, 12.18498
1103.091, 15.35600
1103.573, 15.76013
1104.055, 16.09665
1104.537, 18.87292
1105.020, 22.27158
1105.502, 24.46104
1105.984, 26.42366
1106.466, 31.14339
1106.948, 36.11772
1107.430, 33.34550
1107.912, 22.08046
1108.394, 18.13266
1108.876, 36.59611
1109.359, 49.52163
1109.841, 42.21106
1110.323, 33.68678
1110.805, 36.10681
1111.287, 42.21360
1111.769, 42.07666
1112.251, 36.46736
1112.733, 33.95444
1113.215, 38.26304
1113.698, 38.12902
1114.180, 28.37072
1114.662, 22.03343
1115.144, 24.59576
1115.626, 27.66119
1116.108, 25.50183
1116.590, 21.30159
1117.072, 21.93169
1117.555, 27.44218
1118.037, 23.52772
1118.519, 7.311916
1119.001, 1.198059
1119.483, 1.592522
1119.965, 3.327385
1120.447, 1.565594
1120.929, 6.786457
1121.411, 5.845051
1121.894, 0.4589650
1122.376, 5.535618
1122.858, 11.98343
1123.340, 19.23308
1123.822, 26.45536
1124.304, 29.67274
1124.786, 27.97372
1125.268, 21.05037
1125.750, 8.268421
1126.233, 1.760323
1126.715, 4.964657
1127.197, 16.64019
1127.679, 16.85835
1128.161, 10.70586
1128.643, 3.765556
1129.125, 1.336498
1129.607, 0.5659680
1130.090, 9.904568
1130.572, 16.92461
1131.054, 13.86658
1131.536, 12.50254
1132.018, 23.87306
1132.500, 33.59933
1132.982, 27.87616
1133.464, 17.78365
1133.947, 17.41603
1134.429, 25.37128
1134.911, 32.11421
1135.393, 37.98664
1135.875, 37.54791
1136.357, 21.58202
1136.839, 12.47172
1137.321, 17.69099
1137.803, 25.29311
1138.286, 29.39175
1138.768, 30.96317
1139.250, 31.26973
1139.732, 30.39008
1140.214, 29.47908
1140.696, 29.00267
1141.178, 23.46382
1141.660, 11.66398
1142.142, 4.116421
1142.625, 4.197697
1143.107, 9.839939
1143.589, 20.18768
1144.071, 31.15392
1144.553, 35.64016
1145.035, 34.97243
1145.517, 32.24385
1145.999, 27.98453
1146.482, 22.15459
1146.964, 15.66773
1147.446, 15.31404
1147.928, 22.35224
1148.410, 27.83079
1148.892, 23.54919
1149.374, 17.91431
1149.856, 18.74752
1150.339, 21.50819
1150.821, 22.73266
1151.303, 22.16795
1151.785, 20.19383
1152.267, 16.63558
1152.749, 8.917553
1153.231, 7.744881
1153.713, 11.70629
1154.195, 17.74049
1154.677, 38.56108
1155.160, 29.83122
1155.642, 17.96229
1156.124, 20.68114
1156.606, 28.84029
1157.088, 28.84588
1157.570, 21.54575
1158.052, 17.21733
1158.534, 16.94458
1159.017, 14.17825
1159.499, 7.800697
1159.981, 3.954967
1160.463, 4.616863
1160.945, 7.238426
1161.427, 10.24657
1161.909, 12.68233
1162.391, 11.17544
1162.874, 8.464741
1163.356, 17.71400
1163.838, 33.07865
1164.320, 32.88419
1164.802, 19.17727
1165.284, 10.50065
1165.766, 12.38814
1166.248, 15.68034
1166.730, 14.57141
1167.213, 12.10448
1167.695, 10.75816
1168.177, 9.194679
1168.659, 3.362202
1169.141, 1.102367
1169.623, 4.446648
1170.105, 16.83340
1170.587, 25.74015
1171.069, 29.72017
1171.552, 27.24863
1172.034, 7.174545
1172.516, 2.530659
1172.998, 8.825516
1173.480, 22.35490
1173.962, 32.01196
1174.444, 37.26593
1174.926, 35.73362
1175.409, 30.78305
1175.891, 35.89962
1176.373, 52.53719
1176.855, 57.29200
1177.337, 50.12531
1177.819, 41.63320
1178.301, 33.81975
1178.783, 30.79647
1179.266, 35.08422
1179.748, 39.07576
1180.230, 33.20649
1180.712, 23.47722
1181.194, 20.01904
1181.676, 19.40009
1182.158, 13.46004
1182.640, 6.626305
1183.122, 11.98311
1183.604, 27.20163
1184.087, 34.41491
1184.569, 26.61940
1185.051, 17.26600
1185.533, 6.915733
1186.015, 3.980515
1186.497, 22.57146
1186.979, 39.05147
1187.461, 31.60894
1187.944, 15.63778
1188.426, 15.41911
1188.908, 27.58283
1189.390, 29.87838
1189.872, 17.23403
1190.354, 13.23530
1190.836, 19.78513
1191.318, 27.71239
1191.801, 36.10641
1192.283, 36.94996
1192.765, 24.77918
1193.247, 9.903534
1193.729, 5.150024
1194.211, 7.202961
1194.693, 8.837330
1195.175, 10.31231
1195.657, 12.14200
1196.140, 14.45724
1196.622, 18.98507
1197.104, 24.57911
1197.586, 24.16374
1198.068, 13.15330
1198.550, 4.082897
1199.032, 9.682312
1199.514, 14.86720
1199.996, 8.545399
1200.479, 1.785107
1200.961, 4.766247
1201.443, 12.08947
1201.925, 15.95903
1202.407, 16.03779
1202.889, 13.59344
1203.371, 5.438160
1203.853, 5.974392
1204.336, 19.40960
1204.818, 27.52282
1205.300, 25.82008
1205.782, 22.08006
1206.264, 19.92966
1206.746, 20.47671
1207.228, 25.55797
1207.710, 31.34940
1208.193, 27.24352
1208.675, 17.97446
1209.157, 20.71285
1209.639, 31.03088
1210.121, 33.37362
1210.603, 26.80398
1211.085, 21.02972
1211.567, 19.91463
1212.049, 17.85461
1212.531, 7.537640
1213.014, 0.5859110
1213.496, 3.131847
1213.978, 11.19274
1214.460, 29.27569
1214.942, 45.95886
1215.424, 43.16697
1215.906, 27.25158
1216.388, 23.93475
1216.871, 36.75696
1217.353, 39.19724
1217.835, 27.27662
1218.317, 23.11162
1218.799, 31.33973
1219.281, 35.45825
1219.763, 28.24766
1220.245, 20.33804
1220.728, 21.93447
1221.210, 26.56630
1221.692, 21.14306
1222.174, 11.46471
1222.656, 9.853504
1223.138, 13.02555
1223.620, 13.33449
1224.102, 11.53919
1224.584, 14.59641
1225.067, 23.35063
1225.549, 25.48599
1226.031, 9.545883
1226.513, 1.551174
1226.995, 4.755508
1227.477, 11.13564
1227.959, 9.905117
1228.441, 5.727039
1228.923, 0.3542370
1229.406, 4.968941
1229.888, 1.519630
1230.370, 9.095676
1230.852, 16.65680
1231.334, 21.03640
1231.816, 26.41533
1232.298, 32.80079
1232.780, 33.45785
1233.263, 27.27163
1233.745, 22.76673
1234.227, 24.86982
1234.709, 25.99039
1235.191, 20.37110
1235.673, 13.90195
1236.155, 10.16244
1236.637, 11.68402
1237.120, 13.02423
1237.602, 12.65058
1238.084, 11.78661
1238.566, 10.44588
1239.048, 7.963928
1239.530, 3.591774
1240.012, 2.100327
1240.494, 5.218658
1240.976, 6.737358
1241.458, 5.932846
1241.941, 3.700356
1242.423, 0.0000000E+00
##END=



