##NAMES=Benleonardite
##RRUFFID=R070545
##IDEAL CHEMISTRY=Ag_15_Cu(Sb,As)_2_S_7_Te_4_
##LOCALITY=Moctezuma mine, Moctezuma, Municipio de Moctezuma, Sonora, Mexico
##OWNER=RRUFF
##SOURCE=Michael Scott
##DESCRIPTION=Lead-grey to black-grey metallic massive associated with azurite, malachite and barite, co-type specimen
##STATUS=The identification of this mineral is not yet confirmed.
##URL=rruff.info/R070545
155.9408, 0.0000000E+00
156.4229, 1.338257
156.9050, 7.563538
157.3871, 11.13269
157.8692, 14.77594
158.3513, 17.94385
158.8335, 19.85779
159.3156, 19.91254
159.7977, 18.45795
160.2798, 14.35632
160.7619, 4.553955
161.2440, 0.4266970
161.7262, 6.045227
162.2083, 20.62476
162.6904, 34.58466
163.1725, 43.72968
163.6546, 47.82617
164.1367, 44.14868
164.6189, 25.82367
165.1010, 9.148743
165.5831, 2.867798
166.0652, 4.914124
166.5473, 7.620239
167.0294, 7.870544
167.5116, 6.593994
167.9937, 4.754639
168.4758, 2.398071
168.9579, 6.189514
169.4400, 1.173279
169.9221, 17.33966
170.4043, 32.07263
170.8864, 38.54767
171.3685, 39.35370
171.8506, 38.06732
172.3327, 35.27228
172.8148, 31.44202
173.2970, 25.41949
173.7791, 17.08569
174.2612, 11.77832
174.7433, 18.44147
175.2254, 31.18994
175.7076, 38.63763
176.1897, 29.46509
176.6718, 14.79065
177.1539, 10.20129
177.6360, 17.84357
178.1181, 26.29565
178.6003, 21.05713
179.0824, 6.422424
179.5645, 3.375000
180.0466, 5.694031
180.5287, 23.12885
181.0108, 27.43060
181.4930, 13.75427
181.9751, 3.858154
182.4572, 6.436401
182.9393, 3.980530
183.4214, 15.76709
183.9035, 21.57770
184.3857, 23.19476
184.8678, 25.50800
185.3499, 29.41382
185.8320, 33.81372
186.3141, 36.88635
186.7962, 38.67987
187.2784, 39.80859
187.7605, 40.79456
188.2426, 41.52161
188.7247, 41.29828
189.2068, 39.46613
189.6889, 37.09320
190.1711, 37.41211
190.6532, 40.64545
191.1353, 42.88995
191.6174, 37.53955
192.0995, 26.03253
192.5816, 22.59436
193.0638, 35.24323
193.5459, 57.01208
194.0280, 62.24011
194.5101, 48.84448
194.9922, 31.28662
195.4743, 23.96362
195.9565, 26.84070
196.4386, 31.27570
196.9207, 35.31256
197.4028, 38.98517
197.8849, 43.06793
198.3671, 48.30780
198.8492, 51.83630
199.3313, 48.24829
199.8134, 36.51007
200.2955, 28.24146
200.7776, 29.02936
201.2598, 38.31317
201.7419, 41.92029
202.2240, 38.10345
202.7061, 32.06995
203.1882, 32.20392
203.6703, 39.88000
204.1525, 46.46185
204.6346, 48.14508
205.1167, 44.48944
205.5988, 42.64496
206.0809, 43.43042
206.5630, 44.92688
207.0452, 42.66473
207.5273, 34.70935
208.0094, 29.74316
208.4915, 33.97540
208.9736, 50.46539
209.4557, 56.38385
209.9379, 47.32031
210.4200, 31.38312
210.9021, 26.94092
211.3842, 37.92694
211.8663, 49.90570
212.3484, 54.93750
212.8306, 50.48071
213.3127, 50.83868
213.7948, 59.10992
214.2769, 71.08722
214.7590, 73.23706
215.2411, 60.86938
215.7233, 48.68195
216.2054, 33.69293
216.6875, 49.29974
217.1696, 58.03632
217.6517, 60.27155
218.1338, 36.52167
218.6160, 46.33563
219.0981, 42.68591
219.5802, 38.50793
220.0623, 53.05432
220.5444, 33.09186
221.0265, 47.34113
221.5087, 47.94049
221.9908, 54.79401
222.4729, 48.11957
222.9550, 45.62921
223.4371, 56.67975
223.9192, 60.23944
224.4014, 52.02454
224.8835, 59.30347
225.3656, 38.91748
225.8477, 42.81531
226.3298, 57.08636
226.8119, 49.28040
227.2941, 56.82153
227.7762, 58.63531
228.2583, 34.39722
228.7404, 55.47766
229.2225, 56.96436
229.7046, 38.33240
230.1868, 57.87024
230.6689, 42.01904
231.1510, 38.80426
231.6331, 45.10278
232.1152, 41.49792
232.5974, 53.52557
233.0795, 50.50647
233.5616, 46.14648
234.0437, 47.65912
234.5258, 32.54260
235.0079, 48.28491
235.4901, 42.95245
235.9722, 48.10010
236.4543, 55.62506
236.9364, 46.36713
237.4185, 54.61719
237.9006, 61.59686
238.3828, 68.39001
238.8649, 72.65765
239.3470, 71.75726
239.8291, 62.47198
240.3112, 53.51855
240.7933, 46.10822
241.2755, 39.93030
241.7576, 37.61700
242.2397, 40.15228
242.7218, 45.53699
243.2039, 52.80804
243.6860, 65.36572
244.1682, 73.19727
244.6503, 72.27350
245.1324, 62.58142
245.6145, 56.09497
246.0966, 53.95343
246.5787, 53.92261
247.0609, 53.51593
247.5430, 51.48145
248.0251, 51.70068
248.5072, 56.82294
248.9893, 67.49286
249.4714, 69.84583
249.9536, 57.80627
250.4357, 43.35022
250.9178, 40.71375
251.3999, 56.28339
251.8820, 69.75171
252.3641, 76.76654
252.8463, 77.06293
253.3284, 74.23981
253.8105, 65.85516
254.2926, 56.94592
254.7747, 53.54492
255.2568, 58.27545
255.7390, 63.15265
256.2211, 67.15417
256.7032, 70.44788
257.1853, 69.01385
257.6674, 59.51227
258.1495, 49.05859
258.6317, 46.84668
259.1138, 57.92291
259.5959, 65.28796
260.0780, 62.96466
260.5601, 50.12439
261.0422, 45.09595
261.5244, 51.24030
262.0065, 61.39380
262.4886, 66.56396
262.9707, 64.56061
263.4528, 61.61578
263.9349, 58.51257
264.4171, 55.15887
264.8992, 54.75378
265.3813, 59.42554
265.8634, 63.92816
266.3455, 61.39752
266.8276, 48.75293
267.3098, 38.67548
267.7919, 34.53668
268.2740, 36.30847
268.7561, 38.63037
269.2382, 42.32928
269.7203, 45.13330
270.2025, 42.89093
270.6846, 32.89709
271.1667, 28.96375
271.6488, 37.03290
272.1309, 56.05359
272.6130, 66.37769
273.0952, 66.35944
273.5773, 61.20367
274.0594, 55.27625
274.5415, 48.18610
275.0236, 42.93433
275.5057, 40.71741
275.9879, 41.20593
276.4700, 41.08954
276.9521, 40.13702
277.4342, 39.26703
277.9163, 40.18604
278.3984, 43.11877
278.8806, 43.60986
279.3627, 39.97400
279.8448, 33.04993
280.3269, 26.93353
280.8090, 21.45490
281.2911, 17.51385
281.7733, 15.50775
282.2554, 15.71906
282.7375, 19.40393
283.2196, 27.88434
283.7017, 39.76233
284.1838, 48.73468
284.6660, 55.03284
285.1481, 57.92993
285.6302, 54.09436
286.1123, 43.95203
286.5944, 34.84039
287.0765, 27.44092
287.5587, 22.63544
288.0408, 24.68512
288.5229, 34.25787
289.0050, 44.66235
289.4871, 49.24786
289.9692, 48.35730
290.4514, 46.88910
290.9335, 46.47003
291.4156, 45.37366
291.8977, 36.74542
292.3798, 20.63434
292.8619, 8.135193
293.3441, 12.18958
293.8262, 28.21100
294.3083, 37.97516
294.7904, 36.58630
295.2726, 29.86487
295.7547, 27.98450
296.2368, 30.63049
296.7189, 32.58636
297.2010, 29.00403
297.6831, 22.05646
298.1653, 17.12018
298.6474, 15.92181
299.1295, 15.38849
299.6116, 10.11572
300.0937, 1.134460
300.5758, 6.357300
301.0580, 11.33698
301.5401, 12.03815
302.0222, 2.770752
302.5043, 21.22656
302.9864, 44.42865
303.4685, 46.66510
303.9507, 32.75427
304.4328, 18.91193
304.9149, 14.07983
305.3970, 14.82062
305.8791, 18.44366
306.3612, 26.60223
306.8434, 32.24878
307.3255, 22.65814
307.8076, 5.255371
308.2897, 4.962646
308.7718, 8.753937
309.2539, 28.74951
309.7361, 36.67810
310.2182, 29.39243
310.7003, 20.29041
311.1824, 17.42929
311.6645, 19.19089
312.1466, 22.72028
312.6288, 31.29065
313.1109, 38.03967
313.5930, 36.99310
314.0751, 27.05270
314.5572, 17.32932
315.0393, 12.66592
315.5215, 10.97339
316.0036, 9.589600
316.4857, 7.167816
316.9678, 5.126312
317.4499, 4.773712
317.9320, 6.271790
318.4142, 6.355743
318.8963, 7.2509997E-02
319.3784, 6.592041
319.8605, 7.989868
320.3426, 3.941223
320.8247, 15.24353
321.3069, 21.14600
321.7890, 21.53369
322.2711, 21.35065
322.7532, 22.03448
323.2353, 23.25534
323.7174, 24.72742
324.1996, 29.05209
324.6817, 30.76910
325.1638, 25.93387
325.6459, 16.07178
326.1280, 11.97400
326.6101, 23.67639
327.0923, 35.36798
327.5744, 38.42392
328.0565, 20.28229
328.5386, 8.198792
329.0207, 5.602966
329.5028, 10.13126
329.9850, 13.17050
330.4671, 14.52917
330.9492, 14.61694
331.4313, 13.17590
331.9134, 6.561371
332.3955, 5.639587
332.8777, 15.40598
333.3598, 29.47968
333.8419, 33.24518
334.3240, 19.93820
334.8061, 6.892517
335.2882, 0.3772280
335.7704, 1.785980
336.2525, 4.911560
336.7346, 11.41223
337.2167, 18.13699
337.6988, 19.76056
338.1809, 14.84604
338.6631, 8.914307
339.1452, 2.498199
339.6273, 4.660706
340.1094, 4.186798
340.5915, 7.019592
341.0736, 19.59009
341.5558, 19.51767
342.0379, 4.826691
342.5200, 4.084381
343.0021, 0.3127140
343.4842, 15.11707
343.9663, 26.62888
344.4485, 35.23444
344.9306, 38.12137
345.4127, 28.69186
345.8948, 8.544617
346.3769, 6.449982
346.8590, 12.15378
347.3412, 10.94260
347.8233, 6.872803
348.3054, 1.2210000E-03
348.7875, 7.522766
349.2696, 15.12881
349.7517, 22.10086
350.2339, 26.55914
350.7160, 27.95303
351.1981, 27.03665
351.6802, 24.10730
352.1623, 19.44836
352.6444, 14.50568
353.1266, 7.889282
353.6087, 2.030792
354.0908, 2.993225
354.5729, 13.11719
355.0550, 23.80768
355.5371, 26.75623
356.0193, 24.28952
356.5014, 21.57407
356.9835, 22.03571
357.4656, 22.88147
357.9477, 20.56985
358.4298, 14.23889
358.9120, 10.12985
359.3941, 15.49588
359.8762, 25.29385
360.3583, 32.01196
360.8404, 30.82559
361.3225, 27.61523
361.8047, 25.94980
362.2868, 25.70407
362.7689, 22.66110
363.2510, 8.226624
363.7331, 5.928223
364.2152, 10.42184
364.6974, 10.81134
365.1795, 26.12384
365.6616, 23.74207
366.1437, 7.734283
366.6258, 0.4846190
367.1079, 11.54538
367.5901, 25.17438
368.0722, 30.90137
368.5543, 19.70920
369.0364, 12.90369
369.5185, 14.83209
370.0006, 21.43243
370.4828, 23.49899
370.9649, 16.27286
371.4470, 9.917328
371.9291, 8.099792
372.4112, 12.65051
372.8933, 15.26349
373.3755, 14.24039
373.8576, 12.47052
374.3397, 15.18903
374.8218, 25.90991
375.3039, 32.59622
375.7861, 30.77777
376.2682, 20.70432
376.7503, 13.96149
377.2324, 11.15210
377.7145, 9.554657
378.1967, 5.240997
378.6788, 3.283386
379.1609, 4.013763
379.6430, 8.937683
380.1251, 29.32361
380.6072, 35.72974
381.0894, 26.86459
381.5715, 16.56262
382.0536, 16.48798
382.5357, 24.47470
383.0178, 27.33630
383.4999, 22.31650
383.9821, 14.18726
384.4642, 8.570007
384.9463, 5.680939
385.4284, 7.235687
385.9105, 18.90543
386.3926, 34.41147
386.8748, 42.21741
387.3569, 41.26904
387.8390, 36.08960
388.3211, 28.23804
388.8032, 19.31354
389.2853, 12.82532
389.7675, 9.861420
390.2496, 10.04153
390.7317, 15.22452
391.2138, 24.94260
391.6959, 32.12433
392.1780, 30.18958
392.6602, 24.69653
393.1423, 21.38162
393.6244, 24.10751
394.1065, 26.92947
394.5886, 27.03088
395.0707, 25.12204
395.5529, 23.78305
396.0350, 23.53885
396.5171, 24.27588
396.9992, 26.52371
397.4813, 33.02026
397.9634, 34.90390
398.4456, 26.58810
398.9277, 13.61356
399.4098, 6.252441
399.8919, 10.61426
400.3740, 14.81943
400.8561, 16.81128
401.3383, 16.12708
401.8204, 15.34467
402.3025, 13.52451
402.7846, 12.37766
403.2667, 14.03275
403.7488, 20.75955
404.2310, 24.29886
404.7131, 22.68146
405.1952, 17.44562
405.6773, 15.46341
406.1594, 17.99045
406.6415, 20.91104
407.1237, 20.83954
407.6058, 17.39902
408.0879, 16.40671
408.5700, 19.61462
409.0521, 23.50751
409.5342, 18.87598
410.0164, 5.830536
410.4985, 3.459564
410.9806, 0.1068730
411.4627, 12.22107
411.9448, 20.46487
412.4269, 24.32422
412.9091, 25.68320
413.3912, 25.15958
413.8733, 23.65460
414.3554, 23.64658
414.8375, 26.68369
415.3196, 31.09106
415.8018, 36.35605
416.2839, 41.94415
416.7660, 44.27612
417.2481, 38.70505
417.7302, 29.59302
418.2123, 21.36795
418.6945, 14.89432
419.1766, 9.930389
419.6587, 7.307434
420.1408, 6.153412
420.6229, 4.586548
421.1050, 1.634552
421.5872, 6.275024
422.0693, 4.071564
422.5514, 9.020966
423.0335, 18.15585
423.5156, 17.84579
423.9977, 13.04251
424.4799, 8.897156
424.9620, 6.232300
425.4441, 5.065247
425.9262, 5.657440
426.4083, 7.914948
426.8904, 10.37888
427.3726, 12.29156
427.8547, 15.62103
428.3368, 22.54529
428.8189, 38.27820
429.3010, 42.48553
429.7831, 28.92621
430.2653, 7.366058
430.7474, 0.8527830
431.2295, 7.527313
431.7116, 17.17966
432.1937, 22.32968
432.6758, 23.11728
433.1580, 21.16409
433.6401, 15.63202
434.1222, 10.58646
434.6043, 11.50140
435.0864, 17.64594
435.5685, 23.69321
436.0507, 29.02737
436.5328, 32.12396
437.0149, 29.71149
437.4970, 22.95892
437.9791, 16.43954
438.4612, 13.22083
438.9434, 12.61151
439.4255, 13.97415
439.9076, 17.81415
440.3897, 21.77206
440.8718, 23.81586
441.3539, 24.50531
441.8361, 24.77875
442.3182, 25.60916
442.8003, 25.79083
443.2824, 23.75122
443.7645, 19.39334
444.2466, 17.10797
444.7288, 21.32788
445.2109, 26.87485
445.6930, 29.40814
446.1751, 26.21210
446.6572, 22.15738
447.1393, 17.10306
447.6215, 11.51358
448.1036, 7.368652
448.5857, 4.361664
449.0678, 3.150513
449.5499, 4.459412
450.0320, 9.769287
450.5142, 12.49030
450.9963, 11.10410
451.4784, 8.547668
451.9605, 8.943268
452.4426, 13.00208
452.9247, 17.65109
453.4069, 22.63644
453.8890, 27.66470
454.3711, 30.88470
454.8532, 32.18198
455.3353, 32.46716
455.8174, 32.10538
456.2996, 31.21295
456.7817, 30.59732
457.2638, 30.47040
457.7459, 30.43796
458.2281, 30.12744
458.7102, 29.40408
459.1923, 27.76242
459.6744, 23.78189
460.1565, 19.28983
460.6386, 15.95172
461.1208, 13.79373
461.6029, 14.91895
462.0850, 24.50305
462.5671, 36.76608
463.0492, 44.94333
463.5313, 46.73041
464.0135, 44.58502
464.4956, 36.59366
464.9777, 25.01962
465.4598, 17.12714
465.9419, 18.21805
466.4240, 20.80023
466.9062, 20.88416
467.3883, 15.91806
467.8704, 15.04056
468.3525, 23.31436
468.8346, 33.77734
469.3167, 38.55225
469.7989, 35.65918
470.2810, 29.76059
470.7631, 19.12720
471.2452, 5.377716
471.7273, 0.6783450
472.2094, 8.055725
472.6916, 17.23465
473.1737, 21.56540
473.6558, 20.79791
474.1379, 21.71240
474.6200, 25.64511
475.1021, 29.20175
475.5843, 25.04813
476.0664, 14.23917
476.5485, 6.833160
477.0306, 9.512817
477.5127, 17.16266
477.9948, 19.45004
478.4770, 16.64905
478.9591, 13.19772
479.4412, 13.42746
479.9233, 15.25397
480.4054, 14.78018
480.8875, 9.292389
481.3697, 4.589081
481.8518, 4.780914
482.3339, 8.489746
482.8160, 12.96024
483.2981, 22.10934
483.7802, 27.53079
484.2624, 22.74106
484.7445, 6.445526
485.2266, 5.762665
485.7087, 10.27719
486.1908, 10.14783
486.6729, 7.496460
487.1551, 0.4538880
487.6372, 6.756317
488.1193, 11.29401
488.6014, 13.36230
489.0835, 14.69495
489.5656, 14.98911
490.0478, 14.95779
490.5299, 14.94675
491.0120, 14.95477
491.4941, 14.29678
491.9762, 12.73898
492.4583, 11.22141
492.9405, 10.58643
493.4226, 10.90067
493.9047, 12.21973
494.3868, 15.29654
494.8689, 18.58929
495.3510, 19.44290
495.8332, 18.07925
496.3153, 15.82413
496.7974, 12.97803
497.2795, 9.899414
497.7616, 6.297028
498.2437, 1.871338
498.7259, 2.5390999E-02
499.2080, 5.125275
499.6901, 13.28763
500.1722, 19.91779
500.6543, 24.55142
501.1364, 26.41003
501.6186, 23.42554
502.1007, 16.97665
502.5828, 12.58829
503.0649, 12.60873
503.5470, 13.67279
504.0291, 14.46744
504.5113, 14.55936
504.9934, 15.33243
505.4755, 17.32196
505.9576, 19.51129
506.4397, 20.81128
506.9218, 21.01660
507.4040, 20.92374
507.8861, 20.50089
508.3682, 19.93692
508.8503, 21.01059
509.3324, 24.09549
509.8145, 25.19525
510.2967, 19.64600
510.7788, 9.660980
511.2609, 5.046783
511.7430, 6.806335
512.2252, 9.778717
512.7073, 7.566833
513.1894, 2.591705
513.6715, 0.1654970
514.1536, 3.518188
514.6357, 8.470947
515.1179, 11.21268
515.6000, 12.50388
516.0821, 15.02148
516.5642, 24.32071
517.0463, 32.03134
517.5284, 31.92365
518.0106, 21.10727
518.4927, 12.21829
518.9748, 9.158569
519.4569, 8.805725
519.9390, 8.016449
520.4211, 4.255005
520.9033, 3.612549
521.3854, 8.597839
521.8675, 17.16864
522.3496, 21.19678
522.8317, 19.37979
523.3138, 16.25980
523.7960, 13.69922
524.2781, 11.68192
524.7602, 9.677704
525.2423, 7.353516
525.7244, 6.324249
526.2065, 10.72714
526.6887, 18.84140
527.1708, 21.36673
527.6529, 13.63739
528.1350, 3.088226
528.6171, 1.037811
529.0992, 0.4076840
529.5814, 4.316620
530.0635, 10.67013
530.5456, 17.67264
531.0277, 24.61331
531.5098, 31.48798
531.9919, 35.72855
532.4741, 35.11240
532.9562, 31.91785
533.4383, 28.10339
533.9204, 24.34610
534.4025, 19.69553
534.8846, 11.50009
535.3668, 2.706573
535.8489, 2.5847999E-02
536.3310, 7.059723
536.8131, 14.11392
537.2952, 18.76456
537.7773, 20.99542
538.2595, 19.99084
538.7416, 14.41098
539.2237, 9.055756
539.7058, 8.384521
540.1879, 12.20230
540.6700, 16.79752
541.1522, 22.11481
541.6343, 26.09787
542.1164, 23.49930
542.5985, 16.09558
543.0806, 10.59985
543.5627, 14.23471
544.0449, 19.27933
544.5270, 14.04947
545.0091, 0.3816530
545.4912, 8.761353
545.9733, 0.4739380
546.4554, 13.59390
546.9376, 18.19528
547.4197, 7.583923
547.9018, 0.1280210
548.3839, 4.901337
548.8660, 14.22720
549.3481, 17.63977
549.8303, 7.730377
550.3124, 0.3065800
550.7945, 2.118073
551.2766, 0.1108700
551.7587, 3.649384
552.2408, 10.47604
552.7230, 15.95664
553.2051, 17.18808
553.6872, 14.02994
554.1693, 11.82025
554.6514, 10.52402
555.1335, 10.35760
555.6157, 12.53424
556.0978, 16.26196
556.5799, 18.34058
557.0620, 17.28516
557.5441, 15.35339
558.0262, 15.07767
558.5084, 16.18073
558.9905, 17.79654
559.4726, 22.51730
559.9547, 25.30087
560.4368, 20.11304
560.9189, 6.943207
561.4011, 1.076996
561.8832, 4.814545
562.3653, 14.67987
562.8474, 21.37195
563.3295, 24.20068
563.8116, 23.13763
564.2938, 15.28543
564.7759, 5.034760
565.2580, 0.3840030
565.7401, 0.9596250
566.2222, 2.450928
566.7043, 1.838623
567.1865, 8.1479996E-03
567.6686, 2.610626
568.1507, 10.20178
568.6328, 16.26758
569.1149, 14.16467
569.5970, 6.949158
570.0792, 4.699493
570.5613, 8.692474
571.0434, 14.02017
571.5255, 15.02319
572.0076, 13.98322
572.4897, 14.26895
572.9719, 18.85968
573.4540, 23.01254
573.9361, 23.64386
574.4182, 22.01132
574.9003, 20.82706
575.3824, 22.21487
575.8646, 22.91696
576.3467, 21.53186
576.8288, 17.85907
577.3109, 13.83954
577.7930, 8.226440
578.2751, 3.758484
578.7573, 2.808411
579.2394, 6.431824
579.7215, 8.723602
580.2036, 9.068115
580.6857, 8.481964
581.1678, 8.309326
581.6500, 8.575104
582.1321, 9.625366
582.6142, 11.82852
583.0963, 14.68906
583.5784, 18.26459
584.0605, 22.11349
584.5427, 23.95502
585.0248, 20.81107
585.5069, 15.92703
585.9890, 11.71924
586.4711, 8.297852
586.9532, 6.904327
587.4354, 9.798828
587.9175, 13.93518
588.3996, 16.68762
588.8817, 17.45993
589.3638, 17.02185
589.8459, 14.65530
590.3281, 11.36102
590.8102, 9.238770
591.2923, 9.310364
591.7744, 7.980225
592.2565, 3.135956
592.7386, 3.915863
593.2208, 4.963531
593.7029, 0.4376830
594.1850, 7.195618
594.6671, 12.49194
595.1492, 16.21625
595.6313, 17.94577
596.1135, 17.62460
596.5956, 15.50806
597.0777, 9.499969
597.5598, 2.472473
598.0419, 1.167847
598.5240, 1.694458
599.0062, 5.655365
599.4883, 8.533691
599.9704, 10.71075
600.4525, 13.05515
600.9346, 18.83688
601.4167, 21.52243
601.8989, 17.64450
602.3810, 7.471802
602.8631, 1.264343
603.3452, 0.4732970
603.8273, 0.5428160
604.3094, 2.261230
604.7916, 4.613220
605.2737, 8.865509
605.7558, 15.75040
606.2379, 22.30219
606.7200, 25.34656
607.2021, 25.19363
607.6843, 22.65390
608.1664, 16.68906
608.6485, 10.50510
609.1306, 8.094177
609.6127, 8.395721
610.0948, 8.716736
610.5770, 6.274323
611.0591, 4.874390
611.5412, 7.810089
612.0233, 14.93652
612.5054, 19.67752
612.9875, 19.43484
613.4697, 17.42807
613.9518, 14.96906
614.4339, 11.10999
614.9160, 10.03033
615.3981, 13.04431
615.8802, 17.02097
616.3624, 19.02966
616.8445, 19.13300
617.3266, 15.17438
617.8087, 4.583801
618.2908, 6.535126
618.7729, 5.078674
619.2551, 6.128662
619.7372, 15.15891
620.2193, 14.61078
620.7014, 9.932434
621.1835, 4.806000
621.6656, 0.1322330
622.1478, 1.410492
622.6299, 7.585724
623.1120, 17.06741
623.5941, 20.27859
624.0762, 14.02823
624.5583, 9.945038
625.0405, 9.510864
625.5226, 11.40991
626.0047, 15.58917
626.4868, 25.30374
626.9689, 27.15286
627.4510, 16.96362
627.9332, 1.969666
628.4153, 3.070129
628.8974, 1.694366
629.3795, 5.131897
629.8616, 1.647766
630.3438, 4.329498
630.8259, 2.984955
631.3080, 4.475494
631.7901, 11.56219
632.2722, 14.97455
632.7543, 15.80963
633.2365, 14.11368
633.7186, 9.716248
634.2007, 6.675323
634.6828, 8.340729
635.1649, 10.74139
635.6470, 11.08063
636.1292, 5.676239
636.6113, 2.536285
637.0934, 1.722412
637.5755, 3.166992
638.0576, 8.280182
638.5397, 18.77713
639.0219, 23.50711
639.5040, 17.53732
639.9861, 6.241547
640.4682, 2.533966
640.9503, 5.785034
641.4324, 10.48361
641.9146, 14.87936
642.3967, 18.43823
642.8788, 20.86887
643.3609, 22.02472
643.8430, 20.86475
644.3251, 12.35916
644.8073, 4.413147
645.2894, 3.471466
645.7715, 13.08255
646.2536, 20.26669
646.7357, 23.89319
647.2178, 24.00024
647.7000, 19.46356
648.1821, 6.090729
648.6642, 0.2217100
649.1463, 3.886963
649.6284, 12.95013
650.1105, 16.99585
650.5927, 15.88242
651.0748, 14.60150
651.5569, 15.21478
652.0390, 16.62613
652.5211, 17.38834
653.0032, 17.66760
653.4854, 18.17477
653.9675, 19.83676
654.4496, 21.49435
654.9317, 22.57086
655.4138, 22.99649
655.8959, 21.88855
656.3781, 17.60745
656.8602, 13.11371
657.3423, 10.00900
657.8244, 7.693420
658.3065, 8.973053
658.7886, 16.57587
659.2708, 24.31854
659.7529, 24.54388
660.2350, 16.65405
660.7171, 9.586884
661.1992, 4.288086
661.6813, 1.248383
662.1635, 2.198608
662.6456, 6.171967
663.1277, 9.793427
663.6099, 10.94534
664.0920, 11.74466
664.5741, 14.29767
665.0562, 18.13010
665.5383, 21.53946
666.0204, 25.45224
666.5026, 27.36185
666.9847, 24.92334
667.4668, 17.32880
667.9489, 13.51746
668.4310, 16.25150
668.9131, 18.89142
669.3953, 16.57907
669.8774, 8.133820
670.3595, 4.905396
670.8416, 8.201202
671.3237, 12.43588
671.8058, 10.41836
672.2880, 4.170013
672.7701, 0.5281070
673.2522, 1.550079
673.7343, 3.698120
674.2164, 2.393768
674.6985, 0.1740110
675.1807, 1.344971
675.6628, 13.01617
676.1449, 21.93527
676.6270, 22.42133
677.1091, 17.24442
677.5912, 15.52969
678.0734, 21.06873
678.5555, 24.92871
679.0376, 23.94913
679.5197, 18.67950
680.0018, 14.93463
680.4839, 12.95203
680.9661, 12.38593
681.4482, 14.65167
681.9303, 18.18393
682.4124, 17.23123
682.8945, 11.45056
683.3766, 6.113678
683.8588, 5.521088
684.3409, 7.612823
684.8230, 10.84268
685.3051, 16.43488
685.7872, 18.65842
686.2693, 11.33490
686.7515, 1.562958
687.2336, 2.773773
687.7157, 2.619446
688.1978, 5.774811
688.6799, 5.018463
689.1620, 3.011597
689.6442, 5.436920
690.1263, 12.78989
690.6084, 18.07996
691.0905, 19.05096
691.5726, 16.52972
692.0547, 9.373596
692.5369, 0.7915340
693.0190, 6.170532
693.5011, 2.558167
693.9832, 13.56461
694.4653, 17.22290
694.9474, 13.62723
695.4296, 8.711456
695.9117, 0.2604980
696.3938, 5.471313
696.8759, 4.192413
697.3580, 5.810547
697.8401, 13.20798
698.3223, 17.82336
698.8044, 20.25076
699.2865, 20.62683
699.7686, 18.97699
700.2507, 16.13129
700.7328, 11.74091
701.2150, 8.095276
701.6971, 8.280121
702.1792, 11.14725
702.6613, 14.49197
703.1434, 18.61386
703.6255, 21.27914
704.1077, 19.06750
704.5898, 14.88297
705.0719, 13.40332
705.5540, 20.61740
706.0361, 24.78458
706.5182, 22.34030
707.0004, 15.71982
707.4825, 10.99066
707.9646, 8.224182
708.4467, 7.343689
708.9288, 8.999512
709.4109, 12.32263
709.8931, 14.30701
710.3752, 14.97754
710.8573, 14.80655
711.3394, 14.22458
711.8215, 12.89297
712.3036, 9.465912
712.7858, 4.078979
713.2679, 0.6373290
713.7500, 3.288116
714.2321, 6.887329
714.7142, 7.983551
715.1964, 5.016846
715.6785, 3.177917
716.1606, 2.444092
716.6427, 2.869415
717.1248, 4.931549
717.6069, 8.871735
718.0891, 11.77475
718.5712, 13.27118
719.0533, 14.06741
719.5354, 15.78558
720.0175, 17.50171
720.4996, 16.11331
720.9818, 8.877747
721.4639, 2.459717
721.9460, 2.855621
722.4281, 7.224945
722.9102, 11.32574
723.3923, 16.09204
723.8745, 17.97803
724.3566, 13.75735
724.8387, 6.456390
725.3208, 4.067352
725.8029, 8.461456
726.2850, 12.41147
726.7672, 13.37000
727.2493, 12.45248
727.7314, 14.30215
728.2135, 18.53943
728.6956, 20.88760
729.1777, 16.46805
729.6599, 10.22748
730.1420, 7.880219
730.6241, 9.320251
731.1062, 12.35294
731.5883, 19.20557
732.0704, 24.67755
732.5526, 25.22485
733.0347, 19.44492
733.5168, 14.79984
733.9989, 11.44766
734.4810, 8.957214
734.9631, 7.085114
735.4453, 5.857147
735.9274, 5.463867
736.4095, 5.411713
736.8916, 5.498077
737.3737, 4.686707
737.8558, 4.364838
738.3380, 8.618469
738.8201, 20.04715
739.3022, 28.69125
739.7843, 25.04092
740.2664, 16.30173
740.7485, 10.60480
741.2307, 12.14233
741.7128, 13.93881
742.1949, 15.99811
742.6770, 17.79541
743.1591, 18.38885
743.6412, 17.51120
744.1234, 16.92679
744.6055, 17.27094
745.0876, 17.46930
745.5697, 15.67581
746.0518, 12.28897
746.5339, 9.465240
747.0161, 7.612793
747.4982, 7.231750
747.9803, 11.05850
748.4624, 16.95880
748.9445, 18.53540
749.4266, 8.166321
749.9088, 0.7057190
750.3909, 3.722504
750.8730, 1.947784
751.3551, 2.054169
751.8372, 9.262787
752.3193, 14.19839
752.8015, 13.23495
753.2836, 8.070984
753.7657, 5.602600
754.2478, 5.395477
754.7299, 6.358795
755.2120, 8.074524
755.6942, 10.07208
756.1763, 11.59909
756.6584, 12.65277
757.1405, 15.43521
757.6226, 26.85562
758.1047, 35.32166
758.5869, 31.71535
759.0690, 11.88454
759.5511, 1.997223
760.0332, 4.810486
760.5153, 11.98984
760.9974, 18.87372
761.4796, 25.05319
761.9617, 24.52953
762.4438, 16.33751
762.9259, 7.742584
763.4080, 5.842957
763.8901, 7.922958
764.3723, 10.61702
764.8544, 13.80260
765.3365, 15.74164
765.8186, 15.10454
766.3007, 13.21031
766.7828, 11.35922
767.2650, 9.333771
767.7471, 7.917679
768.2292, 7.191666
768.7113, 6.957809
769.1934, 7.316086
769.6755, 8.167160
770.1577, 7.819763
770.6398, 3.993866
771.1219, 1.157822
771.6040, 6.197083
772.0861, 15.79518
772.5682, 24.02867
773.0504, 31.38768
773.5325, 33.82581
774.0146, 25.28725
774.4967, 11.58202
774.9788, 4.809982
775.4609, 9.364853
775.9431, 13.00325
776.4252, 13.64835
776.9073, 12.29872
777.3894, 10.83157
777.8715, 9.219040
778.3536, 6.755890
778.8358, 2.091705
779.3179, 1.563766
779.8000, 2.349792
780.2821, 10.96417
780.7642, 16.20085
781.2463, 10.64232
781.7285, 4.818558
782.2106, 3.779327
782.6927, 6.701920
783.1748, 7.902893
783.6569, 6.941360
784.1390, 4.976395
784.6212, 1.750549
785.1033, 2.096893
785.5854, 3.542313
786.0675, 2.660843
786.5496, 0.6798250
787.0317, 2.205048
787.5139, 5.426041
787.9960, 8.551743
788.4781, 11.45428
788.9602, 13.62785
789.4423, 14.84486
789.9244, 15.28282
790.4066, 14.67894
790.8887, 13.08571
791.3708, 12.54750
791.8529, 14.34897
792.3350, 14.18384
792.8171, 6.739075
793.2993, 5.570023
793.7814, 3.342285
794.2635, 13.14334
794.7456, 28.41765
795.2277, 29.38602
795.7098, 24.67924
796.1920, 24.29503
796.6741, 28.97638
797.1562, 30.07570
797.6383, 19.90044
798.1204, 9.220703
798.6025, 4.439285
799.0847, 6.540558
799.5668, 7.137497
800.0489, 5.907974
800.5310, 4.560822
801.0131, 4.278534
801.4952, 4.929504
801.9774, 6.418930
802.4595, 8.744537
802.9416, 10.25481
803.4237, 8.526840
803.9058, 6.062714
804.3879, 5.374832
804.8701, 7.094086
805.3522, 9.003754
805.8343, 10.86087
806.3164, 12.57632
806.7985, 14.27890
807.2806, 16.21631
807.7628, 16.11115
808.2449, 12.99028
808.7270, 11.40399
809.2091, 18.62720
809.6912, 29.88618
810.1733, 32.61818
810.6555, 24.72202
811.1376, 16.23410
811.6197, 13.16728
812.1018, 13.09058
812.5839, 14.08095
813.0660, 16.37636
813.5482, 18.42711
814.0303, 20.56009
814.5124, 21.90372
814.9945, 20.97025
815.4766, 17.56538
815.9587, 17.73407
816.4409, 22.44827
816.9230, 26.83003
817.4051, 25.27716
817.8872, 20.16876
818.3693, 14.16963
818.8514, 6.656631
819.3336, 3.523376
819.8157, 13.63200
820.2978, 25.55728
820.7799, 28.27740
821.2620, 15.68283
821.7441, 8.418839
822.2263, 7.932770
822.7084, 9.892303
823.1905, 10.30173
823.6726, 9.275024
824.1547, 6.903625
824.6368, 2.716217
825.1190, 0.5539550
825.6011, 8.132263
826.0832, 17.58893
826.5653, 18.29752
827.0474, 3.003937
827.5295, 6.627426
828.0117, 1.250732
828.4938, 8.505875
828.9760, 15.29303
829.4581, 19.28757
829.9402, 18.65297
830.4223, 12.15976
830.9044, 5.304108
831.3865, 5.230652
831.8687, 9.213638
832.3508, 10.66817
832.8329, 8.220505
833.3150, 4.874191
833.7971, 1.107742
834.2792, 1.881058
834.7614, 3.230331
835.2435, 4.203445
835.7256, 1.019409
836.2077, 16.49016
836.6898, 31.33266
837.1719, 35.44055
837.6541, 29.59683
838.1362, 23.61285
838.6183, 18.20793
839.1004, 14.10124
839.5825, 13.48924
840.0646, 15.10179
840.5468, 18.06631
841.0289, 23.31981
841.5110, 25.23213
841.9931, 18.43245
842.4752, 10.07957
842.9573, 5.266937
843.4395, 4.700607
843.9216, 5.727371
844.4037, 8.666443
844.8858, 12.29419
845.3679, 16.36441
845.8500, 20.10526
846.3322, 20.73228
846.8143, 17.72920
847.2964, 15.21313
847.7785, 16.10394
848.2606, 18.63374
848.7427, 21.80173
849.2249, 26.36571
849.7070, 28.26352
850.1891, 27.01288
850.6712, 23.73242
851.1533, 17.51218
851.6354, 9.069565
852.1176, 5.813141
852.5997, 7.789078
853.0818, 11.39064
853.5639, 14.90414
854.0460, 17.57156
854.5281, 18.63274
855.0103, 18.01633
855.4924, 15.56493
855.9745, 5.682632
856.4566, 1.293091
856.9387, 2.216339
857.4208, 17.50198
857.9030, 26.06314
858.3851, 27.04401
858.8672, 25.40747
859.3493, 23.81454
859.8314, 22.41814
860.3135, 21.86502
860.7957, 22.06340
861.2778, 21.72121
861.7599, 19.90569
862.2420, 17.45828
862.7241, 14.51678
863.2062, 11.06699
863.6884, 8.597382
864.1705, 6.550797
864.6526, 6.665405
865.1347, 10.81802
865.6168, 17.82571
866.0989, 22.08885
866.5811, 23.71750
867.0632, 23.56972
867.5453, 20.74490
868.0274, 17.55328
868.5095, 15.47517
868.9916, 14.65253
869.4738, 15.69841
869.9559, 22.91927
870.4380, 27.06450
870.9201, 24.40024
871.4022, 16.79333
871.8843, 12.75612
872.3665, 12.42020
872.8486, 11.99013
873.3307, 8.580078
873.8128, 5.169479
874.2949, 7.232895
874.7770, 12.94165
875.2592, 17.18716
875.7413, 16.72632
876.2234, 15.73485
876.7055, 15.31097
877.1876, 15.37776
877.6697, 16.17857
878.1519, 18.35974
878.6340, 17.85542
879.1161, 12.01285
879.5982, 5.599991
880.0803, 8.863708
880.5624, 18.57663
881.0446, 26.06750
881.5267, 27.34869
882.0088, 26.67387
882.4909, 24.89159
882.9730, 22.87216
883.4551, 22.45557
883.9373, 26.54427
884.4194, 25.45398
884.9015, 14.59152
885.3836, 2.001785
885.8657, 3.099350
886.3478, 14.29677
886.8300, 20.93387
887.3121, 19.15187
887.7942, 15.21764
888.2763, 12.50380
888.7584, 11.11977
889.2405, 11.31314
889.7227, 14.53046
890.2048, 16.81454
890.6869, 18.74048
891.1690, 18.82147
891.6511, 14.63756
892.1332, 6.449493
892.6154, 0.6078340
893.0975, 6.372986
893.5796, 8.345261
894.0617, 0.6009520
894.5438, 9.003235
895.0259, 10.14487
895.5081, 0.3650210
895.9902, 4.977432
896.4723, 6.552460
896.9544, 18.18213
897.4365, 21.30437
897.9186, 16.02628
898.4008, 12.61838
898.8829, 11.12737
899.3650, 10.21304
899.8471, 8.789368
900.3292, 7.459824
900.8113, 6.729050
901.2935, 6.711365
901.7756, 8.031754
902.2577, 14.03731
902.7398, 18.01497
903.2219, 16.50201
903.7040, 10.70937
904.1862, 7.078629
904.6683, 5.676666
905.1504, 6.330002
905.6325, 10.63495
906.1146, 15.25391
906.5967, 12.85622
907.0789, 6.001205
907.5610, 1.861496
908.0431, 5.375000
908.5252, 10.36084
909.0073, 14.72951
909.4894, 18.60921
909.9716, 22.03610
910.4537, 25.43649
910.9358, 26.58867
911.4179, 25.13976
911.9000, 21.15762
912.3821, 10.89812
912.8643, 1.273010
913.3464, 4.549957
913.8285, 7.997879
914.3106, 19.82416
914.7927, 22.84766
915.2748, 21.86131
915.7570, 22.28906
916.2391, 25.54343
916.7212, 26.00861
917.2033, 22.70030
917.6854, 19.30412
918.1675, 21.17075
918.6497, 25.61360
919.1318, 24.11006
919.6139, 15.59515
920.0960, 10.19897
920.5781, 18.56660
921.0602, 28.43338
921.5424, 30.24165
922.0245, 22.75587
922.5066, 19.90381
922.9887, 23.49597
923.4708, 26.45917
923.9529, 24.45461
924.4351, 19.11400
924.9172, 11.67366
925.3993, 3.528229
925.8814, 1.786118
926.3635, 20.30475
926.8456, 36.73601
927.3278, 34.96767
927.8099, 19.32127
928.2920, 11.79207
928.7741, 15.32764
929.2562, 19.81499
929.7383, 23.52628
930.2205, 25.74838
930.7026, 24.55725
931.1847, 20.55345
931.6668, 15.39156
932.1489, 7.730713
932.6310, 2.355179
933.1132, 4.054260
933.5953, 8.921982
934.0774, 11.54314
934.5595, 11.30521
935.0416, 9.372665
935.5237, 4.890350
936.0059, 0.9547420
936.4880, 2.556747
936.9701, 7.497055
937.4522, 8.303787
937.9343, 3.639587
938.4164, 0.2768250
938.8986, 4.174255
939.3807, 9.679718
939.8628, 13.00484
940.3449, 14.09685
940.8270, 10.57819
941.3091, 0.3576810
941.7913, 7.561722
942.2734, 0.7786710
942.7555, 14.01114
943.2376, 19.21587
943.7197, 16.12111
944.2018, 12.09935
944.6840, 9.730759
945.1661, 8.924423
945.6482, 10.35278
946.1303, 13.40846
946.6124, 15.72757
947.0945, 17.00294
947.5767, 18.77844
948.0588, 22.02438
948.5409, 24.91061
949.0230, 22.47461
949.5051, 17.04214
949.9872, 14.95850
950.4694, 20.53169
950.9515, 24.57762
951.4336, 21.30702
951.9157, 16.23831
952.3978, 14.56085
952.8799, 17.25752
953.3621, 20.25150
953.8442, 23.71033
954.3263, 25.84071
954.8084, 22.82574
955.2905, 16.73116
955.7726, 10.44806
956.2548, 4.240219
956.7369, 1.770782
957.2190, 10.09282
957.7011, 17.58983
958.1832, 17.18671
958.6653, 9.549759
959.1475, 4.446609
959.6296, 1.907318
960.1117, 2.189621
960.5938, 7.736877
961.0759, 14.14580
961.5580, 12.88039
962.0402, 6.626144
962.5223, 2.619064
963.0044, 5.574173
963.4865, 9.029114
963.9686, 13.20041
964.4507, 15.90230
964.9329, 11.81886
965.4150, 0.1602020
965.8971, 4.861649
966.3792, 9.0103000E-02
966.8613, 7.337051
967.3434, 8.279297
967.8256, 6.171768
968.3077, 5.520981
968.7898, 7.707901
969.2719, 8.883759
969.7540, 6.918640
970.2361, 5.340805
970.7183, 6.284439
971.2004, 9.571609
971.6825, 13.26958
972.1646, 17.02405
972.6467, 19.37433
973.1288, 16.99664
973.6110, 14.64621
974.0931, 18.58182
974.5752, 26.97577
975.0573, 30.65207
975.5394, 25.01964
976.0215, 19.38533
976.5037, 15.23396
976.9858, 12.39206
977.4679, 10.67729
977.9500, 9.951584
978.4321, 9.529922
978.9142, 9.024734
979.3964, 9.286911
979.8785, 13.59215
980.3606, 17.65927
980.8427, 15.70004
981.3248, 2.158813
981.8069, 3.225555
982.2891, 1.717056
982.7712, 9.105743
983.2533, 12.30002
983.7354, 12.66914
984.2175, 14.82228
984.6996, 18.59967
985.1818, 19.93466
985.6639, 11.93840
986.1460, 5.274826
986.6281, 7.917633
987.1102, 17.24123
987.5923, 21.45207
988.0745, 19.95201
988.5566, 16.71225
989.0387, 12.18266
989.5208, 7.984116
990.0029, 7.724197
990.4850, 9.489395
990.9672, 9.306931
991.4493, 2.882645
991.9314, 0.4639430
992.4135, 3.516205
992.8957, 9.601532
993.3778, 13.68729
993.8599, 15.32401
994.3420, 16.01561
994.8242, 15.82991
995.3063, 14.51003
995.7884, 10.26968
996.2705, 5.867737
996.7526, 4.739563
997.2347, 6.948441
997.7169, 7.410904
998.1990, 2.847046
998.6811, 1.002945
999.1632, 5.324142
999.6453, 12.74942
1000.127, 16.77777
1000.610, 17.38657
1001.092, 15.51402
1001.574, 8.551407
1002.056, 4.092224
1002.538, 10.66483
1003.020, 20.96336
1003.502, 24.83537
1003.984, 17.98111
1004.466, 15.15184
1004.949, 17.26552
1005.431, 20.47307
1005.913, 20.49374
1006.395, 18.44383
1006.877, 16.09433
1007.359, 13.66086
1007.841, 12.09309
1008.323, 13.16916
1008.806, 13.74878
1009.288, 11.46510
1009.770, 7.569244
1010.252, 9.455292
1010.734, 17.34561
1011.216, 20.61589
1011.698, 12.78159
1012.180, 3.035294
1012.662, 2.846817
1013.145, 7.594833
1013.627, 9.994614
1014.109, 4.826599
1014.591, 2.937485
1015.073, 6.219055
1015.555, 10.31871
1016.037, 10.47629
1016.519, 7.658340
1017.002, 7.152374
1017.484, 9.139709
1017.966, 10.94224
1018.448, 10.95445
1018.930, 10.11017
1019.412, 9.101181
1019.894, 7.810867
1020.376, 4.875946
1020.858, 0.4952240
1021.341, 4.032684
1021.823, 4.909866
1022.305, 2.325714
1022.787, 8.765228
1023.269, 23.49911
1023.751, 31.98616
1024.233, 30.32097
1024.715, 25.67818
1025.198, 15.54102
1025.680, 7.186157
1026.162, 7.730820
1026.644, 17.13968
1027.126, 22.58183
1027.608, 23.84290
1028.090, 23.05310
1028.572, 20.27812
1029.054, 17.31398
1029.536, 15.43884
1030.019, 14.68999
1030.501, 15.05914
1030.983, 17.33798
1031.465, 18.85622
1031.947, 19.29227
1032.429, 18.24640
1032.911, 13.53195
1033.393, 6.978363
1033.876, 2.919312
1034.358, 2.655731
1034.840, 4.129730
1035.322, 8.960464
1035.804, 13.02162
1036.286, 12.66620
1036.768, 7.509247
1037.250, 8.014786
1037.733, 14.36435
1038.215, 20.69769
1038.697, 23.65106
1039.179, 24.46609
1039.661, 23.98190
1040.143, 22.64178
1040.625, 20.28152
1041.107, 15.16554
1041.589, 12.37962
1042.072, 13.51662
1042.554, 15.61928
1043.036, 13.77287
1043.518, 9.352753
1044.000, 5.812653
1044.482, 3.518234
1044.964, 4.287338
1045.446, 14.27994
1045.928, 22.95555
1046.411, 22.06636
1046.893, 12.53801
1047.375, 9.702698
1047.857, 13.96638
1048.339, 18.39787
1048.821, 20.87595
1049.303, 20.52544
1049.785, 13.11642
1050.268, 2.875717
1050.750, 2.714676
1051.232, 1.836823
1051.714, 6.405777
1052.196, 11.29095
1052.678, 14.97972
1053.160, 15.13208
1053.642, 12.81497
1054.125, 12.10252
1054.607, 13.12259
1055.089, 13.37825
1055.571, 9.464630
1056.053, 6.417511
1056.535, 8.496185
1057.017, 13.49384
1057.499, 12.49184
1057.981, 4.855423
1058.464, 1.719681
1058.946, 8.165909
1059.428, 15.13861
1059.910, 10.66245
1060.392, 1.001175
1060.874, 6.260864
1061.356, 10.50359
1061.838, 8.733643
1062.320, 1.434967
1062.803, 12.52589
1063.285, 19.85893
1063.767, 24.07957
1064.249, 26.88260
1064.731, 28.33055
1065.213, 28.69868
1065.695, 26.68872
1066.177, 25.30556
1066.660, 26.92450
1067.142, 29.17210
1067.624, 28.42862
1068.106, 24.61440
1068.588, 19.22665
1069.070, 12.06680
1069.552, 7.393539
1070.034, 11.75343
1070.516, 18.70360
1070.999, 22.19666
1071.481, 21.44308
1071.963, 21.17619
1072.445, 22.37157
1072.927, 21.51385
1073.409, 16.03760
1073.891, 9.536133
1074.373, 10.19576
1074.855, 15.29195
1075.338, 18.61983
1075.820, 17.80508
1076.302, 15.91373
1076.784, 13.34065
1077.266, 10.36908
1077.748, 5.805908
1078.230, 2.0873999E-02
1078.713, 2.631470
1079.195, 13.11732
1079.677, 22.15623
1080.159, 24.55759
1080.641, 22.86272
1081.123, 15.72743
1081.605, 5.703812
1082.087, 5.3589001E-02
1082.569, 0.5355070
1083.052, 0.1909940
1083.534, 1.605957
1084.016, 4.466187
1084.498, 12.07297
1084.980, 20.53429
1085.462, 24.11707
1085.944, 21.79582
1086.426, 18.38480
1086.908, 13.09924
1087.391, 9.761032
1087.873, 10.86343
1088.355, 14.13971
1088.837, 11.30893
1089.319, 4.880890
1089.801, 3.940887
1090.283, 15.98405
1090.765, 25.97868
1091.248, 26.54826
1091.730, 22.64528
1092.212, 17.42766
1092.694, 10.49138
1093.176, 8.732285
1093.658, 11.89980
1094.140, 14.98877
1094.622, 14.85471
1095.104, 13.11964
1095.587, 8.937393
1096.069, 4.115799
1096.551, 4.578339
1097.033, 13.67339
1097.515, 17.82848
1097.997, 13.79427
1098.479, 7.958847
1098.961, 8.307358
1099.443, 11.70024
1099.926, 13.55515
1100.408, 13.25208
1100.890, 12.16357
1101.372, 8.412796
1101.854, 7.454330
1102.336, 12.89297
1102.818, 20.84262
1103.300, 19.62454
1103.783, 11.55733
1104.265, 4.644806
1104.747, 1.373230
1105.229, 1.8294999E-02
1105.711, 0.4120790
1106.193, 1.902191
1106.675, 3.900986
1107.157, 6.404221
1107.640, 9.421555
1108.122, 12.91602
1108.604, 15.83598
1109.086, 18.56844
1109.568, 20.17867
1110.050, 18.79797
1110.532, 16.13597
1111.014, 16.48134
1111.496, 22.59460
1111.979, 22.01222
1112.461, 12.31969
1112.943, 2.464172
1113.425, 3.760101
1113.907, 9.421997
1114.389, 9.523056
1114.871, 3.734985
1115.353, 1.545242
1115.835, 6.254379
1116.318, 12.39613
1116.800, 20.01019
1117.282, 26.43306
1117.764, 25.29514
1118.246, 19.37074
1118.728, 16.03677
1119.210, 18.18188
1119.692, 18.17365
1120.175, 8.837601
1120.657, 0.9801790
1121.139, 1.205582
1121.621, 7.796799
1122.103, 10.36763
1122.585, 9.439743
1123.067, 8.662628
1123.549, 9.399506
1124.031, 11.10822
1124.514, 14.26965
1124.996, 17.74440
1125.478, 20.29156
1125.960, 21.94398
1126.442, 22.25092
1126.924, 21.17947
1127.406, 19.22076
1127.888, 14.02148
1128.370, 10.43541
1128.853, 15.96179
1129.335, 26.87172
1129.817, 30.51007
1130.299, 22.96686
1130.781, 17.67778
1131.263, 16.55377
1131.745, 16.95177
1132.227, 16.54602
1132.710, 15.43851
1133.192, 12.65611
1133.674, 8.330261
1134.156, 8.216965
1134.638, 17.86433
1135.120, 23.92006
1135.602, 21.92009
1136.084, 15.46974
1136.567, 10.09865
1137.049, 6.159119
1137.531, 4.460602
1138.013, 5.216858
1138.495, 8.139374
1138.977, 18.03821
1139.459, 24.61612
1139.941, 21.48981
1140.423, 10.98055
1140.906, 4.508423
1141.388, 1.631836
1141.870, 0.3922730
1142.352, 0.9194030
1142.834, 0.5890960
1143.316, 10.94102
1143.798, 21.46782
1144.280, 22.66675
1144.762, 13.41293
1145.245, 11.33939
1145.727, 16.45169
1146.209, 20.16737
1146.691, 14.14017
1147.173, 7.489838
1147.655, 7.548691
1148.137, 11.64499
1148.619, 13.57454
1149.102, 13.39468
1149.584, 9.532181
1150.066, 1.241425
1150.548, 5.973862
1151.030, 7.239471
1151.512, 4.729675
1151.994, 1.298340
1152.476, 9.792648
1152.958, 13.46783
1153.441, 10.77959
1153.923, 6.684708
1154.405, 1.078384
1154.887, 2.241653
1155.369, 5.949860
1155.851, 17.75162
1156.333, 20.61160
1156.815, 11.56772
1157.297, 5.443100
1157.780, 4.697083
1158.262, 4.943726
1158.744, 4.432739
1159.226, 4.017242
1159.708, 6.774033
1160.190, 10.78059
1160.672, 11.15375
1161.154, 3.998001
1161.637, 1.344223
1162.119, 9.395752
1162.601, 17.50204
1163.083, 19.62354
1163.565, 16.93770
1164.047, 11.79428
1164.529, 5.308899
1165.011, 1.402161
1165.494, 3.751266
1165.976, 6.290726
1166.458, 7.709335
1166.940, 8.405899
1167.422, 8.741806
1167.904, 8.665482
1168.386, 6.722473
1168.868, 3.356232
1169.350, 2.606018
1169.833, 12.52744
1170.315, 19.01448
1170.797, 11.24498
1171.279, 0.9227750
1171.761, 2.912842
1172.243, 4.714935
1172.725, 7.450043
1173.207, 3.922592
1173.689, 1.227249
1174.172, 7.031326
1174.654, 12.91585
1175.136, 12.23439
1175.618, 7.629700
1176.100, 6.236542
1176.582, 8.124542
1177.064, 8.659973
1177.546, 6.728943
1178.029, 4.930115
1178.511, 5.844406
1178.993, 7.583603
1179.475, 8.794113
1179.957, 9.394348
1180.439, 8.754791
1180.921, 6.713943
1181.403, 5.412109
1181.885, 5.574997
1182.368, 6.515274
1182.850, 7.644196
1183.332, 9.082428
1183.814, 11.34088
1184.296, 14.65613
1184.778, 15.70779
1185.260, 14.11395
1185.742, 13.40117
1186.224, 16.57997
1186.707, 19.34386
1187.189, 14.57469
1187.671, 7.111420
1188.153, 4.248245
1188.635, 8.404907
1189.117, 12.48537
1189.599, 16.82191
1190.081, 19.39667
1190.564, 18.53275
1191.046, 15.43753
1191.528, 9.707230
1192.010, 3.268433
1192.492, 0.4614720
1192.974, 3.515335
1193.456, 6.953979
1193.938, 11.21594
1194.421, 13.74358
1194.903, 10.36482
1195.385, 5.677994
1195.867, 7.001068
1196.349, 12.75371
1196.831, 16.59328
1197.313, 16.45016
1197.795, 16.52756
1198.277, 17.42157
1198.760, 17.98254
1199.242, 15.66083
1199.724, 12.96257
1200.206, 15.50249
1200.688, 22.18770
1201.170, 23.30203
1201.652, 12.89429
1202.134, 7.018066
1202.616, 9.531235
1203.099, 14.72107
1203.581, 15.48563
1204.063, 13.56633
1204.545, 10.68707
1205.027, 7.110001
1205.509, 8.135971
1205.991, 19.18990
1206.473, 23.76649
1206.956, 15.02855
1207.438, 2.898560
1207.920, 5.191666
1208.402, 14.13211
1208.884, 16.10274
1209.366, 7.613831
1209.848, 5.681503
1210.330, 16.06226
1210.813, 23.88503
1211.295, 23.03827
1211.777, 17.14079
1212.259, 11.58734
1212.741, 7.007996
1213.223, 5.569687
1213.705, 8.533905
1214.187, 10.62384
1214.669, 11.51184
1215.151, 10.78650
1215.634, 6.797226
1216.116, 2.646805
1216.598, 7.801895
1217.080, 16.91550
1217.562, 17.88129
1218.044, 9.4727002E-02
1218.526, 6.581863
1219.008, 4.950729
1219.491, 18.01459
1219.973, 22.90332
1220.455, 22.32640
1220.937, 20.56514
1221.419, 18.16550
1221.901, 16.49802
1222.383, 17.46675
1222.865, 15.96339
1223.348, 10.47839
1223.830, 5.863098
1224.312, 6.781174
1224.794, 10.65027
1225.276, 12.85544
1225.758, 13.55966
1226.240, 13.24071
1226.722, 9.245468
1227.204, 9.601852
1227.687, 16.80667
1228.169, 22.55345
1228.651, 15.45862
1229.133, 3.821640
1229.615, 4.195389
1230.097, 13.73997
1230.579, 18.76135
1231.061, 11.06763
1231.543, 9.213287
1232.026, 16.63249
1232.508, 24.04631
1232.990, 19.84297
1233.472, 10.67816
1233.954, 6.846222
1234.436, 7.828140
1234.918, 8.733612
1235.400, 8.207230
1235.883, 8.876007
1236.365, 11.24139
1236.847, 14.23895
1237.329, 18.60823
1237.811, 21.62665
1238.293, 17.84180
1238.775, 8.247864
1239.257, 3.252960
1239.740, 4.220505
1240.222, 8.542252
1240.704, 17.13004
1241.186, 23.74156
1241.668, 18.65453
1242.150, 9.292480
1242.632, 3.776474
1243.114, 2.676544
1243.596, 3.273163
1244.079, 5.954742
1244.561, 8.033875
1245.043, 8.936279
1245.525, 9.115356
1246.007, 8.513321
1246.489, 7.853256
1246.971, 8.138931
1247.453, 9.338760
1247.936, 9.321152
1248.418, 7.672775
1248.900, 8.233810
1249.382, 12.89970
1249.864, 16.24855
1250.346, 9.985718
1250.828, 1.572113
1251.310, 1.740326
1251.792, 3.6942001E-02
1252.275, 3.419724
1252.757, 8.549957
1253.239, 12.15570
1253.721, 13.12164
1254.203, 13.07536
1254.685, 12.08882
1255.167, 12.01157
1255.649, 13.61639
1256.131, 16.19633
1256.614, 11.92769
1257.096, 1.337952
1257.578, 2.313187
1258.060, 7.401520
1258.542, 18.08226
1259.024, 21.95836
1259.506, 22.11887
1259.988, 20.87856
1260.471, 18.40697
1260.953, 14.82744
1261.435, 10.55917
1261.917, 8.888962
1262.399, 12.02887
1262.881, 15.01453
1263.363, 15.22690
1263.845, 14.29489
1264.328, 12.94841
1264.810, 11.41058
1265.292, 10.82179
1265.774, 11.00635
1266.256, 11.45992
1266.738, 12.98235
1267.220, 12.23442
1267.702, 5.298935
1268.184, 0.6840520
1268.667, 1.687851
1269.149, 1.306671
1269.631, 7.128433
1270.113, 13.96756
1270.595, 16.55225
1271.077, 9.890274
1271.559, 5.796143
1272.041, 6.385452
1272.523, 7.639816
1273.006, 7.221313
1273.488, 5.854980
1273.970, 4.565796
1274.452, 3.242859
1274.934, 4.174927
1275.416, 8.393997
1275.898, 11.30289
1276.380, 12.35081
1276.863, 13.53827
1277.345, 17.80959
1277.827, 21.32632
1278.309, 15.71622
1278.791, 5.817566
1279.273, 0.3683320
1279.755, 0.1239470
1280.237, 4.435654
1280.719, 13.27844
1281.202, 18.36450
1281.684, 10.66942
1282.166, 1.423004
1282.648, 3.308044
1283.130, 10.64493
1283.612, 14.72438
1284.094, 15.03574
1284.576, 11.20850
1285.058, 2.729889
1285.541, 0.4858400
1286.023, 14.19980
1286.505, 27.33151
1286.987, 23.75369
1287.469, 13.02647
1287.951, 6.241379
1288.433, 2.035492
1288.915, 0.7397920
1289.398, 0.7728270
1289.880, 1.028961
1290.362, 0.0000000E+00
##END=



