##NAMES=Bergslagite
##RRUFFID=R060243
##IDEAL CHEMISTRY=CaBe(As^5+^O_4_)(OH)
##LOCALITY=Langban mine dump, Langban, Filipstad, Varmland, Sweden
##OWNER=RRUFF
##SOURCE=Michael Scott
##DESCRIPTION=Colorless crystalline crust with reddish-brown massive tilasite and black aegirine
##STATUS=The identification of this mineral is confirmed by single-crystal X-ray diffraction and chemical analysis.
##URL=rruff.info/R060243
##MEASURED CHEMISTRY=Ca_1.00_Be_1.00_As_1.00_O_4_(OH) ; Be not analyzed but estimated by stoichiometry
119.8634, 0.0000000E+00
120.3455, 60.36841
120.8276, 124.0006
121.3097, 193.2513
121.7919, 266.6390
122.2740, 356.3998
122.7561, 440.0216
123.2382, 459.0905
123.7203, 423.5060
124.2024, 403.0789
124.6846, 423.3623
125.1667, 389.5435
125.6488, 343.1224
126.1309, 276.4451
126.6130, 222.2856
127.0951, 182.3679
127.5773, 141.9116
128.0594, 79.49927
128.5415, 3.758301
129.0236, 58.90234
129.5057, 64.34814
129.9878, 53.43066
130.4700, 45.27490
130.9521, 40.82227
131.4342, 30.41504
131.9163, 4.704102
132.3984, 38.28906
132.8805, 83.56934
133.3627, 141.9409
133.8448, 192.8906
134.3269, 230.0957
134.8090, 250.9131
135.2911, 254.7554
135.7732, 234.0547
136.2554, 176.0752
136.7375, 133.9985
137.2196, 103.5908
137.7017, 92.74902
138.1838, 103.9263
138.6659, 138.4707
139.1481, 203.5635
139.6302, 308.0122
140.1123, 465.1426
140.5944, 645.2607
141.0765, 828.8398
141.5586, 1042.229
142.0408, 1304.847
142.5229, 1619.362
143.0050, 1973.101
143.4871, 2346.605
143.9692, 2748.110
144.4513, 3155.171
144.9335, 3563.803
145.4156, 3979.755
145.8977, 4411.434
146.3798, 4859.899
146.8619, 5310.129
147.3440, 5731.180
147.8261, 6115.906
148.3083, 6477.777
148.7904, 6828.404
149.2725, 7148.708
149.7546, 7428.816
150.2367, 7664.695
150.7188, 7849.328
151.2010, 7966.885
151.6831, 7997.994
152.1652, 7985.686
152.6473, 7919.898
153.1294, 7815.474
153.6115, 7690.952
154.0937, 7553.035
154.5758, 7391.361
155.0579, 7179.029
155.5400, 6891.976
156.0221, 6608.860
156.5042, 6333.963
156.9864, 6072.168
157.4685, 5831.723
157.9506, 5616.246
158.4327, 5419.924
158.9148, 5235.966
159.3969, 5071.035
159.8791, 4898.148
160.3612, 4680.023
160.8433, 4453.963
161.3254, 4294.595
161.8075, 4237.854
162.2896, 4229.065
162.7718, 4167.152
163.2539, 4042.945
163.7360, 3920.459
164.2181, 3820.885
164.7002, 3738.369
165.1823, 3662.100
165.6645, 3592.180
166.1466, 3520.732
166.6287, 3435.137
167.1108, 3336.039
167.5929, 3228.740
168.0750, 3112.682
168.5572, 2989.986
169.0393, 2865.092
169.5214, 2735.938
170.0035, 2610.428
170.4856, 2501.068
170.9677, 2409.221
171.4499, 2315.834
171.9320, 2212.125
172.4141, 2099.377
172.8962, 1979.352
173.3783, 1845.189
173.8604, 1714.285
174.3426, 1603.367
174.8247, 1511.742
175.3068, 1436.158
175.7889, 1382.689
176.2710, 1345.834
176.7531, 1299.770
177.2353, 1221.033
177.7174, 1143.943
178.1995, 1136.391
178.6816, 1195.832
179.1637, 1258.076
179.6458, 1276.951
180.1280, 1261.861
180.6101, 1269.340
181.0922, 1332.068
181.5743, 1389.828
182.0564, 1382.465
182.5385, 1318.277
183.0207, 1265.602
183.5028, 1277.535
183.9849, 1342.947
184.4670, 1390.002
184.9491, 1388.688
185.4312, 1396.291
185.9134, 1448.752
186.3955, 1539.604
186.8776, 1647.600
187.3597, 1765.305
187.8418, 1892.166
188.3239, 2027.998
188.8061, 2178.541
189.2882, 2334.143
189.7703, 2485.035
190.2524, 2632.529
190.7345, 2786.287
191.2166, 2961.100
191.6988, 3151.652
192.1809, 3314.652
192.6630, 3439.240
193.1451, 3549.131
193.6272, 3670.746
194.1093, 3792.504
194.5915, 3881.305
195.0736, 3895.539
195.5557, 3853.834
196.0378, 3858.049
196.5199, 3937.221
197.0020, 4022.098
197.4842, 4084.701
197.9663, 4128.074
198.4484, 4156.699
198.9305, 4169.422
199.4126, 4169.873
199.8947, 4176.102
200.3769, 4187.428
200.8590, 4206.330
201.3411, 4230.836
201.8232, 4262.488
202.3053, 4304.184
202.7874, 4360.633
203.2696, 4426.596
203.7517, 4488.646
204.2338, 4553.984
204.7159, 4599.734
205.1980, 4601.844
205.6801, 4588.445
206.1623, 4597.893
206.6444, 4650.367
207.1265, 4732.672
207.6086, 4817.688
208.0907, 4919.691
208.5728, 4992.584
209.0549, 5006.873
209.5371, 4995.480
210.0192, 4994.307
210.5013, 5019.596
210.9834, 5054.477
211.4655, 5061.875
211.9476, 5024.682
212.4298, 5001.453
212.9119, 5029.453
213.3940, 5065.641
213.8761, 5071.938
214.3582, 5035.723
214.8403, 4970.029
215.3225, 4891.527
215.8046, 4797.131
216.2867, 4699.445
216.7688, 4599.795
217.2509, 4498.787
217.7330, 4398.797
218.2152, 4300.174
218.6973, 4196.617
219.1794, 4078.559
219.6615, 3943.014
220.1436, 3806.188
220.6257, 3672.984
221.1079, 3537.574
221.5900, 3384.994
222.0721, 3217.469
222.5542, 3067.656
223.0363, 2986.035
223.5184, 2985.266
224.0006, 2945.941
224.4827, 2839.000
224.9648, 2702.371
225.4469, 2541.648
225.9290, 2363.566
226.4111, 2186.805
226.8933, 2032.871
227.3754, 1902.293
227.8575, 1759.406
228.3396, 1590.883
228.8217, 1422.152
229.3038, 1258.078
229.7860, 1102.387
230.2681, 962.8984
230.7502, 850.8672
231.2323, 762.4844
231.7144, 668.1328
232.1965, 568.8711
232.6787, 460.8047
233.1608, 334.0508
233.6429, 199.0547
234.1250, 75.32812
234.6071, 24.46875
235.0892, 105.9219
235.5714, 190.9805
236.0535, 293.9922
236.5356, 371.4727
237.0177, 398.9062
237.4998, 396.4922
237.9819, 386.7227
238.4641, 375.2617
238.9462, 368.2344
239.4283, 381.4023
239.9104, 425.4453
240.3925, 458.6250
240.8746, 458.1094
241.3568, 443.9766
241.8389, 435.9531
242.3210, 442.3789
242.8031, 446.0391
243.2852, 424.8594
243.7673, 377.3828
244.2495, 313.3594
244.7316, 226.4609
245.2137, 128.1797
245.6958, 22.21094
246.1779, 91.32422
246.6600, 201.2148
247.1422, 280.1445
247.6243, 329.3828
248.1064, 436.6875
248.5885, 664.1836
249.0706, 915.5430
249.5527, 1099.207
250.0349, 1219.547
250.5170, 1375.262
250.9991, 1656.508
251.4812, 2039.254
251.9633, 2391.055
252.4454, 2674.410
252.9276, 2965.891
253.4097, 3317.766
253.8918, 3723.434
254.3739, 4158.582
254.8560, 4600.781
255.3382, 5066.238
255.8203, 5596.648
256.3024, 6202.922
256.7845, 6844.379
257.2666, 7515.523
257.7487, 8197.418
258.2308, 8860.254
258.7130, 9485.105
259.1951, 10093.01
259.6772, 10715.12
260.1593, 11355.54
260.6414, 11978.12
261.1235, 12551.01
261.6057, 13098.60
262.0878, 13677.18
262.5699, 14308.22
263.0520, 14939.28
263.5341, 15503.59
264.0162, 16013.86
264.4984, 16594.01
264.9805, 17300.57
265.4626, 18097.01
265.9447, 18910.14
266.4268, 19733.81
266.9089, 20586.30
267.3911, 21481.22
267.8732, 22408.98
268.3553, 23343.17
268.8374, 24273.08
269.3195, 25213.82
269.8016, 26209.87
270.2838, 27256.25
270.7659, 28287.20
271.2480, 29244.62
271.7301, 30192.30
272.2122, 31239.69
272.6943, 32415.75
273.1765, 33601.52
273.6586, 34681.99
274.1407, 35656.97
274.6228, 36627.05
275.1049, 37615.33
275.5870, 38596.79
276.0692, 39542.46
276.5513, 40458.48
277.0334, 41393.18
277.5155, 42395.81
277.9976, 43452.66
278.4797, 44429.12
278.9619, 45296.82
279.4440, 46125.54
279.9261, 46974.28
280.4082, 47808.21
280.8903, 48521.46
281.3724, 49057.20
281.8546, 49470.67
282.3367, 49925.17
282.8188, 50508.44
283.3009, 51007.29
283.7830, 51412.56
284.2651, 51712.36
284.7473, 51881.94
285.2294, 51915.31
285.7115, 51856.33
286.1936, 51773.56
286.6757, 51697.88
287.1578, 51510.33
287.6400, 51203.00
288.1221, 50801.89
288.6042, 50315.69
289.0863, 49748.36
289.5684, 49111.16
290.0505, 48417.45
290.5327, 47672.01
291.0148, 46816.46
291.4969, 45794.30
291.9790, 44723.41
292.4611, 43636.56
292.9432, 42531.10
293.4254, 41379.53
293.9075, 40163.33
294.3896, 38891.52
294.8717, 37653.29
295.3538, 36493.27
295.8359, 35300.25
296.3181, 34049.10
296.8002, 32763.48
297.2823, 31471.60
297.7644, 30176.54
298.2465, 28908.46
298.7286, 27726.60
299.2108, 26659.48
299.6929, 25590.54
300.1750, 24496.68
300.6571, 23407.09
301.1392, 22331.64
301.6213, 21269.42
302.1035, 20248.10
302.5856, 19293.91
303.0677, 18407.48
303.5498, 17554.25
304.0319, 16754.62
304.5140, 15968.20
304.9962, 15169.20
305.4783, 14369.69
305.9604, 13597.33
306.4425, 12864.17
306.9246, 12174.60
307.4067, 11543.65
307.8889, 10988.98
308.3710, 10454.54
308.8531, 9909.918
309.3352, 9373.430
309.8173, 8874.508
310.2994, 8425.863
310.7816, 8007.641
311.2637, 7604.625
311.7458, 7217.121
312.2279, 6834.930
312.7100, 6441.168
313.1921, 6064.328
313.6743, 5739.441
314.1564, 5470.020
314.6385, 5220.828
315.1206, 4974.660
315.6027, 4732.863
316.0848, 4494.820
316.5670, 4255.992
317.0491, 4029.340
317.5312, 3828.719
318.0133, 3652.648
318.4954, 3508.211
318.9775, 3432.895
319.4597, 3362.621
319.9418, 3226.930
320.4239, 3032.781
320.9060, 2851.914
321.3881, 2736.762
321.8702, 2676.492
322.3524, 2605.887
322.8345, 2507.949
323.3166, 2423.074
323.7987, 2371.812
324.2808, 2340.301
324.7629, 2305.445
325.2451, 2258.629
325.7272, 2207.344
326.2093, 2163.074
326.6914, 2119.582
327.1735, 2102.047
327.6556, 2123.266
328.1378, 2160.363
328.6199, 2201.551
329.1020, 2242.828
329.5841, 2278.457
330.0662, 2297.504
330.5483, 2294.535
331.0305, 2342.551
331.5126, 2513.570
331.9947, 2660.594
332.4768, 2721.133
332.9589, 2731.152
333.4410, 2756.402
333.9232, 2833.863
334.4053, 2945.723
334.8874, 3040.508
335.3695, 3109.441
335.8516, 3177.781
336.3337, 3252.949
336.8159, 3328.070
337.2980, 3396.629
337.7801, 3457.391
338.2622, 3515.641
338.7443, 3580.113
339.2264, 3651.531
339.7086, 3710.766
340.1907, 3761.766
340.6728, 3791.047
341.1549, 3789.125
341.6370, 3760.469
342.1191, 3720.785
342.6013, 3676.289
343.0834, 3626.715
343.5655, 3563.953
344.0476, 3480.828
344.5297, 3421.820
345.0118, 3427.887
345.4940, 3469.082
345.9761, 3493.715
346.4582, 3494.848
346.9403, 3481.215
347.4224, 3462.750
347.9045, 3435.816
348.3867, 3383.266
348.8688, 3295.023
349.3509, 3190.785
349.8330, 3104.477
350.3151, 3043.902
350.7972, 2952.488
351.2794, 2783.090
351.7615, 2601.594
352.2436, 2479.539
352.7257, 2418.668
353.2078, 2356.371
353.6899, 2236.480
354.1721, 2061.660
354.6542, 1934.758
355.1363, 1887.086
355.6184, 1841.883
356.1005, 1774.836
356.5826, 1694.551
357.0648, 1611.941
357.5469, 1531.180
358.0290, 1462.387
358.5111, 1430.301
358.9932, 1463.957
359.4753, 1482.645
359.9575, 1467.543
360.4396, 1452.750
360.9217, 1471.887
361.4038, 1519.195
361.8859, 1554.484
362.3680, 1537.613
362.8502, 1470.539
363.3322, 1410.020
363.8144, 1367.457
364.2965, 1315.883
364.7786, 1261.238
365.2607, 1189.383
365.7428, 1076.215
366.2249, 908.0625
366.7071, 709.7930
367.1892, 512.4141
367.6713, 313.3047
368.1534, 134.0273
368.6355, 17.75391
369.1176, 149.4258
369.5998, 268.5195
370.0819, 374.8984
370.5640, 477.5938
371.0461, 591.4805
371.5282, 703.5586
372.0103, 789.9297
372.4925, 849.1211
372.9746, 875.1875
373.4567, 852.3164
373.9388, 787.8242
374.4209, 732.6719
374.9030, 689.3633
375.3852, 655.3789
375.8673, 648.8281
376.3494, 651.0742
376.8315, 611.0195
377.3136, 503.8398
377.7957, 359.6484
378.2779, 236.0586
378.7600, 149.3516
379.2421, 53.11328
379.7242, 53.73438
380.2063, 169.9180
380.6884, 293.5703
381.1706, 425.5273
381.6527, 566.2422
382.1348, 716.1836
382.6169, 875.1445
383.0990, 1046.371
383.5811, 1243.281
384.0633, 1437.066
384.5454, 1631.059
385.0275, 1814.914
385.5096, 1976.664
385.9917, 2111.773
386.4738, 2225.121
386.9560, 2323.133
387.4381, 2404.168
387.9202, 2475.797
388.4023, 2532.520
388.8844, 2585.488
389.3665, 2636.895
389.8487, 2689.250
390.3308, 2750.977
390.8129, 2855.840
391.2950, 2966.070
391.7771, 2993.414
392.2592, 2926.723
392.7414, 2848.992
393.2235, 2817.598
393.7056, 2797.488
394.1877, 2715.258
394.6698, 2537.223
395.1519, 2358.574
395.6341, 2230.559
396.1162, 2135.746
396.5983, 2037.887
397.0804, 1927.289
397.5625, 1822.355
398.0446, 1747.738
398.5268, 1711.312
399.0089, 1665.203
399.4910, 1607.457
399.9731, 1542.668
400.4552, 1459.152
400.9373, 1371.027
401.4195, 1308.797
401.9016, 1290.125
402.3837, 1305.637
402.8658, 1326.672
403.3479, 1349.184
403.8300, 1385.246
404.3122, 1453.016
404.7943, 1520.465
405.2764, 1559.828
405.7585, 1571.375
406.2406, 1579.520
406.7227, 1603.656
407.2049, 1643.719
407.6870, 1699.875
408.1691, 1777.680
408.6512, 1863.098
409.1333, 1950.867
409.6154, 2041.371
410.0976, 2133.992
410.5797, 2225.059
411.0618, 2327.137
411.5439, 2458.879
412.0260, 2615.641
412.5081, 2764.738
412.9903, 2893.387
413.4724, 3020.617
413.9545, 3170.152
414.4366, 3340.691
414.9187, 3515.242
415.4008, 3676.586
415.8830, 3852.871
416.3651, 4091.625
416.8472, 4376.379
417.3293, 4623.449
417.8114, 4779.527
418.2935, 4873.234
418.7757, 5000.973
419.2578, 5175.023
419.7399, 5369.195
420.2220, 5597.711
420.7041, 5835.797
421.1862, 6057.398
421.6684, 6262.137
422.1505, 6474.312
422.6326, 6722.594
423.1147, 7006.703
423.5968, 7262.410
424.0789, 7461.469
424.5611, 7669.375
425.0432, 7921.664
425.5253, 8180.250
426.0074, 8390.477
426.4895, 8528.078
426.9716, 8644.789
427.4538, 8817.109
427.9359, 9040.988
428.4180, 9204.094
428.9001, 9254.172
429.3822, 9288.676
429.8643, 9405.312
430.3465, 9589.059
430.8286, 9770.547
431.3107, 9964.348
431.7928, 10131.59
432.2749, 10221.57
432.7570, 10245.32
433.2392, 10256.96
433.7213, 10277.30
434.2034, 10305.92
434.6855, 10346.97
435.1676, 10422.69
435.6497, 10480.25
436.1319, 10512.91
436.6140, 10524.93
437.0961, 10517.66
437.5782, 10494.63
438.0603, 10462.66
438.5424, 10427.14
439.0246, 10387.00
439.5067, 10334.68
439.9888, 10249.49
440.4709, 10183.91
440.9530, 10168.58
441.4352, 10161.31
441.9173, 10128.06
442.3994, 10060.30
442.8815, 9956.395
443.3636, 9799.094
443.8457, 9597.848
444.3279, 9411.805
444.8100, 9239.953
445.2921, 9096.008
445.7742, 9023.527
446.2563, 8984.852
446.7384, 8897.762
447.2206, 8719.402
447.7027, 8527.961
448.1848, 8374.988
448.6669, 8249.930
449.1490, 8127.918
449.6311, 7998.543
450.1133, 7869.250
450.5954, 7752.785
451.0775, 7661.262
451.5596, 7530.973
452.0417, 7308.383
452.5238, 7102.984
453.0060, 6979.559
453.4881, 6909.512
453.9702, 6834.152
454.4523, 6725.633
454.9344, 6598.195
455.4165, 6481.426
455.8987, 6386.180
456.3808, 6271.652
456.8629, 6092.863
457.3450, 5929.129
457.8271, 5824.336
458.3092, 5772.453
458.7914, 5742.156
459.2735, 5720.055
459.7556, 5706.387
460.2377, 5702.133
460.7198, 5707.820
461.2019, 5718.727
461.6841, 5743.906
462.1662, 5763.336
462.6483, 5737.574
463.1304, 5655.234
463.6125, 5589.590
464.0946, 5589.922
464.5768, 5598.609
465.0589, 5560.406
465.5410, 5471.598
466.0231, 5349.934
466.5052, 5205.836
466.9873, 5040.586
467.4695, 4863.426
467.9516, 4662.535
468.4337, 4462.320
468.9158, 4253.242
469.3979, 4052.566
469.8800, 3880.336
470.3622, 3734.391
470.8443, 3595.988
471.3264, 3446.723
471.8085, 3289.445
472.2906, 3134.035
472.7727, 2969.473
473.2549, 2834.578
473.7370, 2801.816
474.2191, 2784.816
474.7012, 2663.750
475.1833, 2393.305
475.6654, 2169.285
476.1476, 2167.922
476.6297, 2284.559
477.1118, 2308.723
477.5939, 2208.973
478.0760, 2084.301
478.5581, 2009.820
479.0403, 1980.809
479.5224, 1938.715
480.0045, 1872.426
480.4866, 1809.391
480.9687, 1764.707
481.4508, 1722.004
481.9330, 1654.574
482.4151, 1560.176
482.8972, 1471.781
483.3793, 1430.535
483.8614, 1438.805
484.3435, 1413.410
484.8257, 1322.883
485.3078, 1244.109
485.7899, 1203.566
486.2720, 1186.863
486.7541, 1180.027
487.2362, 1181.176
487.7183, 1178.910
488.2004, 1169.160
488.6826, 1148.344
489.1647, 1096.875
489.6468, 1005.473
490.1289, 914.5391
490.6110, 854.6992
491.0931, 824.6797
491.5753, 802.8984
492.0574, 793.6055
492.5395, 787.3242
493.0216, 793.4727
493.5037, 795.6680
493.9858, 758.4727
494.4680, 678.4180
494.9501, 605.9648
495.4322, 606.5156
495.9143, 687.3711
496.3964, 724.1523
496.8785, 688.4375
497.3607, 640.3281
497.8428, 583.8633
498.3249, 529.4805
498.8070, 489.2148
499.2891, 466.8672
499.7712, 455.1328
500.2534, 469.8047
500.7355, 494.6797
501.2176, 444.7422
501.6997, 295.9180
502.1818, 121.2227
502.6639, 45.73828
503.1461, 196.5703
503.6282, 305.3516
504.1103, 353.6133
504.5924, 383.2227
505.0745, 396.7266
505.5566, 406.4922
506.0388, 438.9414
506.5209, 495.1523
507.0030, 536.4336
507.4851, 519.8633
507.9672, 445.5273
508.4493, 388.5547
508.9315, 361.1211
509.4136, 335.8086
509.8957, 320.0312
510.3778, 296.4688
510.8599, 243.1133
511.3420, 156.3633
511.8242, 61.19922
512.3063, 13.63672
512.7884, 77.83594
513.2705, 175.4961
513.7526, 317.4453
514.2347, 446.8438
514.7169, 521.5703
515.1990, 562.6758
515.6811, 629.8867
516.1632, 729.6602
516.6453, 841.5312
517.1274, 941.5977
517.6096, 1060.719
518.0917, 1255.973
518.5738, 1517.734
519.0559, 1762.270
519.5380, 1918.520
520.0201, 2005.301
520.5023, 2140.344
520.9844, 2353.570
521.4665, 2564.449
521.9486, 2774.805
522.4307, 2969.258
522.9128, 3114.201
523.3950, 3220.305
523.8771, 3361.527
524.3592, 3615.568
524.8413, 3930.346
525.3234, 4200.680
525.8055, 4426.137
526.2877, 4629.496
526.7698, 4807.020
527.2519, 4984.004
527.7340, 5209.602
528.2161, 5492.656
528.6982, 5777.178
529.1804, 6068.254
529.6625, 6348.889
530.1446, 6598.383
530.6267, 6826.176
531.1088, 7054.301
531.5909, 7294.229
532.0731, 7545.656
532.5552, 7814.633
533.0373, 8115.367
533.5194, 8388.084
534.0015, 8593.662
534.4836, 8803.348
534.9658, 9061.527
535.4479, 9352.172
535.9300, 9634.426
536.4121, 9889.848
536.8942, 10135.63
537.3763, 10390.03
537.8585, 10649.94
538.3406, 10894.10
538.8227, 11113.07
539.3048, 11335.72
539.7869, 11599.52
540.2690, 11911.97
540.7512, 12164.76
541.2333, 12328.90
541.7154, 12475.07
542.1975, 12627.46
542.6796, 12773.76
543.1617, 12899.22
543.6439, 12998.96
544.1260, 13074.81
544.6081, 13133.07
545.0902, 13172.14
545.5723, 13159.17
546.0544, 13068.82
546.5366, 12985.71
547.0187, 12965.18
547.5008, 12965.88
547.9829, 12932.74
548.4650, 12854.60
548.9471, 12775.69
549.4293, 12727.63
549.9114, 12683.62
550.3935, 12599.56
550.8756, 12480.52
551.3577, 12380.34
551.8398, 12333.26
552.3220, 12322.27
552.8041, 12297.54
553.2862, 12276.86
553.7683, 12209.90
554.2504, 12043.21
554.7325, 11885.52
555.2147, 11810.61
555.6968, 11794.44
556.1789, 11763.29
556.6610, 11679.26
557.1431, 11574.03
557.6252, 11486.87
558.1074, 11413.21
558.5895, 11346.63
559.0716, 11294.26
559.5537, 11225.91
560.0358, 11103.35
560.5179, 10923.75
561.0001, 10758.70
561.4822, 10639.82
561.9643, 10506.02
562.4464, 10324.97
562.9285, 10122.45
563.4106, 9927.428
563.8928, 9746.184
564.3749, 9572.000
564.8570, 9404.066
565.3391, 9242.074
565.8212, 9055.332
566.3033, 8831.967
566.7855, 8613.176
567.2676, 8408.449
567.7497, 8218.986
568.2318, 8053.768
568.7139, 7916.852
569.1960, 7774.938
569.6782, 7609.766
570.1603, 7431.084
570.6424, 7236.008
571.1245, 7032.908
571.6066, 6857.215
572.0887, 6728.709
572.5709, 6626.178
573.0530, 6511.750
573.5351, 6384.396
574.0172, 6244.121
574.4993, 6063.059
574.9814, 5897.723
575.4636, 5782.551
575.9457, 5695.340
576.4278, 5598.016
576.9099, 5476.258
577.3920, 5348.115
577.8741, 5238.340
578.3563, 5138.998
578.8384, 5008.318
579.3205, 4834.736
579.8026, 4680.977
580.2847, 4597.148
580.7668, 4567.098
581.2490, 4518.518
581.7311, 4470.268
582.2132, 4378.992
582.6953, 4205.363
583.1774, 4012.844
583.6595, 3845.107
584.1417, 3707.283
584.6238, 3587.443
585.1059, 3481.186
585.5880, 3382.334
586.0701, 3276.566
586.5522, 3163.109
587.0344, 3044.840
587.5165, 2910.531
587.9986, 2787.064
588.4807, 2716.910
588.9628, 2681.826
589.4449, 2604.475
589.9271, 2419.438
590.4092, 2248.277
590.8913, 2159.504
591.3734, 2118.305
591.8555, 2079.855
592.3376, 2031.662
592.8198, 1972.412
593.3019, 1899.816
593.7840, 1815.230
594.2661, 1729.992
594.7482, 1648.561
595.2303, 1558.062
595.7125, 1433.504
596.1946, 1315.051
596.6767, 1236.535
597.1588, 1196.590
597.6409, 1169.650
598.1230, 1162.363
598.6052, 1148.922
599.0873, 1092.891
599.5694, 1008.473
600.0515, 940.7168
600.5336, 904.5371
601.0157, 884.0332
601.4979, 862.3848
601.9800, 841.6797
602.4621, 797.1113
602.9442, 685.4824
603.4263, 604.5293
603.9084, 601.7422
604.3906, 622.3730
604.8727, 610.3398
605.3548, 556.6133
605.8369, 489.8184
606.3190, 414.4316
606.8011, 344.6094
607.2833, 314.0938
607.7654, 319.0898
608.2475, 309.9199
608.7296, 265.6309
609.2117, 199.3672
609.6938, 129.3223
610.1760, 50.54883
610.6581, 10.34961
611.1402, 37.88867
611.6223, 66.28125
612.1044, 126.6289
612.5865, 187.2148
613.0687, 189.1992
613.5508, 121.2676
614.0329, 63.40234
614.5150, 119.4297
614.9971, 245.3281
615.4792, 290.8730
615.9614, 247.4883
616.4435, 186.9395
616.9256, 134.2402
617.4077, 92.71289
617.8898, 70.66992
618.3719, 75.15234
618.8541, 75.91602
619.3362, 58.20117
619.8183, 50.49414
620.3004, 81.63281
620.7825, 128.6445
621.2646, 157.3613
621.7468, 155.6289
622.2289, 123.7422
622.7110, 43.76758
623.1931, 72.25195
623.6752, 140.5879
624.1573, 148.5410
624.6395, 157.0117
625.1216, 192.8594
625.6037, 249.3438
626.0858, 314.3398
626.5679, 387.9961
627.0500, 467.5117
627.5322, 544.6074
628.0143, 634.8164
628.4964, 766.4961
628.9785, 914.7988
629.4606, 1024.482
629.9427, 1075.121
630.4249, 1112.730
630.9070, 1193.541
631.3891, 1315.861
631.8712, 1466.729
632.3533, 1660.713
632.8354, 1832.115
633.3176, 1927.938
633.7997, 1993.879
634.2818, 2122.002
634.7639, 2330.424
635.2460, 2520.705
635.7281, 2653.709
636.2103, 2779.967
636.6924, 2933.941
637.1745, 3108.375
637.6566, 3279.910
638.1387, 3440.172
638.6208, 3606.152
639.1030, 3812.730
639.5851, 4057.785
640.0672, 4245.336
640.5493, 4349.373
641.0314, 4472.619
641.5135, 4670.637
641.9957, 4911.080
642.4778, 5137.924
642.9599, 5348.041
643.4420, 5558.693
643.9241, 5779.244
644.4063, 5996.016
644.8884, 6192.727
645.3705, 6379.402
645.8526, 6574.883
646.3347, 6786.234
646.8168, 7009.680
647.2990, 7255.266
647.7811, 7518.238
648.2632, 7719.881
648.7453, 7848.234
649.2274, 7952.941
649.7095, 8039.469
650.1917, 8125.178
650.6738, 8239.654
651.1559, 8386.010
651.6380, 8531.740
652.1201, 8681.805
652.6022, 8820.400
653.0844, 8935.281
653.5665, 9033.328
654.0486, 9122.510
654.5307, 9206.740
655.0128, 9293.738
655.4949, 9400.596
655.9771, 9519.316
656.4592, 9596.654
656.9413, 9626.311
657.4234, 9646.604
657.9055, 9668.621
658.3876, 9691.270
658.8698, 9718.992
659.3519, 9753.824
659.8340, 9760.945
660.3161, 9722.834
660.7982, 9672.166
661.2803, 9617.367
661.7625, 9561.496
662.2446, 9505.902
662.7267, 9451.908
663.2088, 9403.752
663.6909, 9371.766
664.1730, 9344.902
664.6552, 9287.826
665.1373, 9199.895
665.6194, 9088.062
666.1015, 8940.533
666.5836, 8798.426
667.0657, 8714.961
667.5479, 8692.980
668.0300, 8631.250
668.5121, 8487.639
668.9942, 8357.436
669.4763, 8279.590
669.9584, 8214.691
670.4406, 8119.246
670.9227, 7997.023
671.4048, 7888.879
671.8868, 7824.588
672.3690, 7773.213
672.8511, 7672.252
673.3332, 7531.135
673.8153, 7426.891
674.2974, 7382.752
674.7795, 7334.662
675.2617, 7220.430
675.7438, 7054.924
676.2259, 6940.492
676.7080, 6943.926
677.1901, 6902.512
677.6722, 6782.031
678.1544, 6629.559
678.6365, 6464.430
679.1186, 6299.078
679.6007, 6154.025
680.0828, 6045.506
680.5649, 5947.916
681.0471, 5823.980
681.5292, 5682.277
682.0113, 5559.217
682.4934, 5461.152
682.9755, 5376.062
683.4576, 5295.121
683.9398, 5217.627
684.4219, 5148.232
684.9040, 5103.949
685.3861, 5038.469
685.8682, 4918.031
686.3503, 4804.869
686.8325, 4731.850
687.3146, 4681.936
687.7967, 4621.812
688.2788, 4538.711
688.7609, 4470.336
689.2430, 4458.648
689.7252, 4467.797
690.2073, 4445.594
690.6894, 4399.434
691.1715, 4368.258
691.6536, 4364.699
692.1357, 4360.799
692.6179, 4316.801
693.1000, 4231.471
693.5821, 4182.664
694.0642, 4186.502
694.5463, 4191.514
695.0284, 4180.523
695.5106, 4160.979
695.9927, 4141.223
696.4748, 4121.555
696.9569, 4098.438
697.4390, 4064.768
697.9211, 4033.967
698.4033, 4019.465
698.8854, 4011.037
699.3675, 3998.102
699.8496, 3975.660
700.3317, 3931.172
700.8138, 3846.674
701.2960, 3740.984
701.7781, 3674.494
702.2602, 3649.201
702.7423, 3631.941
703.2244, 3625.232
703.7065, 3603.473
704.1887, 3534.354
704.6708, 3428.113
705.1529, 3354.861
705.6350, 3355.086
706.1171, 3330.229
706.5992, 3252.119
707.0814, 3156.525
707.5635, 3058.365
708.0456, 2966.768
708.5277, 2901.172
709.0098, 2875.071
709.4919, 2845.420
709.9741, 2755.809
710.4562, 2625.322
710.9383, 2507.667
711.4204, 2407.318
711.9025, 2317.120
712.3846, 2232.939
712.8668, 2155.569
713.3489, 2086.459
713.8310, 2023.277
714.3131, 1977.022
714.7952, 1986.316
715.2773, 1964.617
715.7595, 1861.145
716.2416, 1728.789
716.7237, 1628.388
717.2058, 1566.771
717.6879, 1509.404
718.1700, 1444.889
718.6522, 1374.664
719.1343, 1291.936
719.6164, 1206.200
720.0985, 1142.154
720.5806, 1103.363
721.0627, 1064.465
721.5449, 1000.006
722.0270, 919.0020
722.5091, 858.7812
722.9912, 823.5029
723.4733, 786.4814
723.9554, 744.5791
724.4376, 696.1123
724.9197, 642.5273
725.4018, 581.1943
725.8839, 500.8896
726.3660, 361.5566
726.8481, 266.4600
727.3303, 264.6895
727.8124, 287.1611
728.2945, 297.4824
728.7766, 287.2334
729.2587, 244.0898
729.7408, 160.2275
730.2230, 78.23633
730.7051, 45.73438
731.1872, 48.48535
731.6693, 59.07129
732.1514, 73.69824
732.6335, 67.52148
733.1157, 27.17480
733.5978, 27.95703
734.0799, 69.84766
734.5620, 98.01855
735.0441, 116.6572
735.5262, 116.9326
736.0084, 121.0889
736.4905, 133.4961
736.9726, 153.0059
737.4547, 185.7451
737.9368, 228.1973
738.4189, 254.6650
738.9011, 241.4150
739.3832, 227.5879
739.8653, 245.7139
740.3474, 271.9795
740.8295, 266.9082
741.3116, 233.3740
741.7938, 212.0078
742.2759, 231.7461
742.7580, 268.0947
743.2401, 270.2920
743.7222, 240.6367
744.2043, 227.8584
744.6865, 242.0488
745.1686, 247.5938
745.6507, 218.3613
746.1328, 172.8916
746.6149, 153.1123
747.0970, 169.8955
747.5792, 183.3086
748.0613, 212.5459
748.5434, 216.5762
749.0255, 152.8730
749.5076, 70.92480
749.9897, 33.99707
750.4719, 49.62988
750.9540, 70.35352
751.4361, 77.84668
751.9182, 71.05859
752.4003, 37.50391
752.8824, 8.874023
753.3646, 35.70996
753.8467, 37.59961
754.3288, 33.35352
754.8109, 37.32324
755.2930, 48.54980
755.7751, 65.86719
756.2573, 90.67578
756.7394, 109.3301
757.2215, 115.3828
757.7036, 126.1406
758.1857, 157.1094
758.6678, 199.5498
759.1500, 228.2852
759.6321, 236.7168
760.1142, 249.6758
760.5963, 283.1963
761.0784, 306.6777
761.5605, 285.7432
762.0427, 253.8154
762.5248, 264.1709
763.0069, 326.0332
763.4890, 391.1777
763.9711, 424.6943
764.4532, 444.7676
764.9354, 478.8184
765.4175, 519.0801
765.8996, 535.7900
766.3817, 524.1396
766.8638, 520.1729
767.3459, 557.2227
767.8281, 623.3232
768.3102, 672.9688
768.7923, 700.5947
769.2744, 741.0039
769.7565, 802.9629
770.2386, 870.4131
770.7208, 945.4482
771.2029, 1015.161
771.6850, 1040.782
772.1671, 990.3438
772.6492, 984.4756
773.1313, 1076.684
773.6135, 1173.735
774.0956, 1233.056
774.5777, 1265.254
775.0598, 1285.661
775.5419, 1299.109
776.0240, 1311.480
776.5062, 1314.294
776.9883, 1327.674
777.4704, 1388.504
777.9525, 1479.242
778.4346, 1554.998
778.9167, 1605.712
779.3989, 1642.356
779.8810, 1670.581
780.3631, 1697.399
780.8452, 1750.632
781.3273, 1837.787
781.8094, 1889.130
782.2916, 1882.645
782.7737, 1875.891
783.2558, 1901.078
783.7379, 1947.462
784.2200, 1993.961
784.7021, 2043.159
785.1843, 2084.621
785.6664, 2115.461
786.1485, 2141.588
786.6306, 2166.993
787.1127, 2187.463
787.5948, 2193.343
788.0770, 2184.788
788.5591, 2179.854
789.0412, 2195.663
789.5233, 2212.949
790.0054, 2206.929
790.4875, 2191.460
790.9697, 2194.243
791.4518, 2214.906
791.9339, 2235.968
792.4160, 2248.592
792.8981, 2246.498
793.3802, 2212.602
793.8624, 2148.002
794.3445, 2090.422
794.8266, 2042.151
795.3087, 1995.097
795.7908, 1944.306
796.2729, 1896.091
796.7551, 1866.483
797.2372, 1862.242
797.7193, 1817.558
798.2014, 1682.740
798.6835, 1573.341
799.1656, 1524.313
799.6478, 1496.396
800.1299, 1471.515
800.6120, 1438.044
801.0941, 1366.709
801.5762, 1223.453
802.0583, 1097.653
802.5405, 1047.498
803.0226, 1027.157
803.5047, 998.9316
803.9868, 960.0586
804.4689, 913.2080
804.9510, 857.8350
805.4332, 794.6113
805.9153, 724.0791
806.3974, 646.3936
806.8795, 553.0918
807.3616, 449.4326
807.8438, 375.1367
808.3259, 340.6914
808.8080, 323.1338
809.2901, 301.7578
809.7722, 280.1387
810.2543, 277.3613
810.7365, 303.1074
811.2186, 316.8965
811.7007, 309.6064
812.1828, 296.7178
812.6649, 284.2109
813.1470, 273.3193
813.6292, 267.1309
814.1113, 267.5371
814.5934, 264.8271
815.0755, 241.9717
815.5576, 233.5195
816.0397, 253.0498
816.5219, 297.2910
817.0040, 373.9160
817.4861, 474.6328
817.9682, 557.9688
818.4503, 593.5947
818.9324, 616.6162
819.4146, 662.0742
819.8967, 717.2422
820.3788, 752.4902
820.8609, 772.5977
821.3430, 815.8105
821.8251, 903.1045
822.3073, 1004.971
822.7894, 1078.872
823.2715, 1127.791
823.7536, 1163.774
824.2357, 1183.271
824.7178, 1240.704
825.2000, 1357.902
825.6821, 1510.294
826.1642, 1680.603
826.6463, 1864.223
827.1284, 2004.874
827.6105, 2067.896
828.0927, 2156.014
828.5748, 2314.802
829.0569, 2463.705
829.5390, 2578.923
830.0211, 2649.049
830.5032, 2644.071
830.9854, 2543.312
831.4675, 2442.535
831.9496, 2373.008
832.4317, 2300.384
832.9138, 2210.480
833.3959, 2102.479
833.8781, 1966.498
834.3602, 1808.171
834.8423, 1661.557
835.3244, 1533.042
835.8065, 1444.761
836.2886, 1419.913
836.7708, 1451.095
837.2529, 1525.206
837.7350, 1640.943
838.2171, 1801.741
838.6992, 2008.979
839.1813, 2266.044
839.6635, 2582.267
840.1456, 2952.927
840.6277, 3361.621
841.1098, 3809.290
841.5919, 4272.170
842.0740, 4738.686
842.5562, 5243.938
843.0383, 5826.264
843.5204, 6482.274
844.0025, 7202.261
844.4846, 8001.437
844.9667, 8830.750
845.4489, 9641.202
845.9310, 10546.41
846.4131, 11665.13
846.8952, 12892.68
847.3773, 14079.49
847.8594, 15228.46
848.3416, 16318.96
848.8237, 17515.60
849.3058, 18448.62
849.7879, 19012.79
850.2700, 19218.01
850.7521, 19073.47
851.2343, 18583.83
851.7164, 17742.57
852.1985, 16486.25
852.6806, 15037.97
853.1627, 13434.47
853.6448, 11813.96
854.1270, 10296.63
854.6091, 8907.811
855.0912, 7651.600
855.5733, 6535.188
856.0554, 5549.557
856.5375, 4698.646
857.0197, 3970.430
857.5018, 3343.815
857.9839, 2816.503
858.4660, 2395.555
858.9481, 2080.449
859.4302, 1838.418
859.9124, 1650.652
860.3945, 1504.341
860.8766, 1373.653
861.3587, 1258.377
861.8408, 1160.908
862.3229, 1075.481
862.8051, 1031.455
863.2872, 1052.847
863.7693, 1097.407
864.2514, 1116.308
864.7335, 1110.941
865.2156, 1119.162
865.6978, 1135.257
866.1799, 1174.293
866.6620, 1264.653
867.1441, 1348.713
867.6262, 1381.870
868.1083, 1393.168
868.5905, 1433.762
869.0726, 1511.295
869.5547, 1603.167
870.0368, 1707.566
870.5189, 1819.783
871.0010, 1948.935
871.4832, 2076.944
871.9653, 2185.445
872.4474, 2273.295
872.9295, 2343.132
873.4116, 2385.583
873.8937, 2441.908
874.3759, 2602.762
874.8580, 2757.171
875.3401, 2750.730
875.8222, 2612.905
876.3043, 2441.181
876.7864, 2269.222
877.2686, 2088.871
877.7507, 1886.685
878.2328, 1677.050
878.7149, 1486.438
879.1970, 1314.705
879.6791, 1158.608
880.1613, 1018.220
880.6434, 896.5811
881.1255, 796.0283
881.6076, 715.7217
882.0897, 658.0977
882.5718, 623.6914
883.0540, 581.6279
883.5361, 528.0000
884.0182, 489.9766
884.5003, 475.2705
884.9824, 480.9512
885.4645, 509.7227
885.9467, 554.7227
886.4288, 581.4355
886.9109, 581.2539
887.3930, 582.0674
887.8751, 577.7383
888.3572, 585.1064
888.8394, 615.3418
889.3215, 658.8193
889.8036, 709.3369
890.2857, 768.0264
890.7678, 799.8662
891.2499, 767.3916
891.7321, 755.7969
892.2142, 802.3896
892.6963, 858.5518
893.1784, 890.4443
893.6605, 904.6631
894.1426, 916.0254
894.6248, 924.2490
895.1069, 952.4385
895.5890, 1032.158
896.0711, 1111.713
896.5532, 1158.724
897.0353, 1183.327
897.5175, 1193.687
897.9996, 1196.903
898.4817, 1208.875
898.9638, 1239.597
899.4459, 1274.416
899.9280, 1301.097
900.4102, 1323.193
900.8923, 1341.252
901.3744, 1360.025
901.8565, 1395.015
902.3386, 1447.819
902.8207, 1493.271
903.3029, 1505.375
903.7850, 1503.318
904.2671, 1525.332
904.7492, 1563.793
905.2313, 1587.208
905.7134, 1594.356
906.1956, 1616.464
906.6777, 1670.383
907.1598, 1727.328
907.6419, 1743.411
908.1240, 1726.113
908.6061, 1727.233
909.0883, 1747.421
909.5704, 1766.223
910.0525, 1777.450
910.5346, 1801.486
911.0167, 1857.660
911.4988, 1926.911
911.9810, 1960.788
912.4631, 1954.477
912.9452, 1936.415
913.4273, 1889.954
913.9094, 1882.614
914.3915, 1959.891
914.8737, 2045.310
915.3558, 2059.226
915.8379, 2014.585
916.3200, 1995.772
916.8021, 2011.688
917.2842, 2037.486
917.7664, 2073.936
918.2484, 2119.253
918.7305, 2191.494
919.2126, 2261.075
919.6948, 2286.629
920.1769, 2267.206
920.6590, 2262.953
921.1411, 2286.471
921.6232, 2314.821
922.1053, 2344.012
922.5875, 2378.560
923.0696, 2417.054
923.5517, 2465.018
924.0338, 2536.364
924.5159, 2634.663
924.9980, 2718.548
925.4802, 2760.574
925.9623, 2804.726
926.4444, 2876.907
926.9265, 2958.077
927.4086, 3029.812
927.8907, 3093.791
928.3729, 3160.694
928.8550, 3230.911
929.3371, 3299.592
929.8192, 3359.564
930.3013, 3429.059
930.7834, 3525.954
931.2656, 3639.916
931.7477, 3759.021
932.2298, 3880.019
932.7119, 3997.851
933.1940, 4107.274
933.6761, 4214.956
934.1583, 4328.263
934.6404, 4447.729
935.1225, 4569.079
935.6046, 4690.599
936.0867, 4809.995
936.5688, 4928.918
937.0510, 5057.545
937.5331, 5202.315
938.0152, 5355.187
938.4973, 5520.468
938.9794, 5682.617
939.4615, 5782.729
939.9437, 5834.971
940.4258, 5925.199
940.9079, 6081.357
941.3900, 6253.845
941.8721, 6396.852
942.3542, 6524.164
942.8364, 6666.531
943.3185, 6825.008
943.8006, 7000.706
944.2827, 7184.926
944.7648, 7325.781
945.2469, 7400.900
945.7291, 7458.006
946.2112, 7547.420
946.6933, 7659.354
947.1754, 7766.139
947.6575, 7868.181
948.1396, 7974.555
948.6218, 8087.508
949.1039, 8195.083
949.5860, 8290.467
950.0681, 8370.319
950.5502, 8430.643
951.0323, 8475.494
951.5145, 8556.812
951.9966, 8685.556
952.4787, 8762.851
952.9608, 8757.615
953.4429, 8743.541
953.9250, 8774.994
954.4072, 8820.677
954.8893, 8812.081
955.3714, 8743.327
955.8535, 8675.371
956.3356, 8604.444
956.8177, 8543.246
957.2999, 8507.477
957.7820, 8456.566
958.2641, 8347.716
958.7462, 8207.149
959.2283, 8119.896
959.7104, 8121.332
960.1926, 8063.773
960.6747, 7909.244
961.1568, 7764.996
961.6389, 7657.197
962.1210, 7580.270
962.6031, 7546.043
963.0853, 7539.830
963.5674, 7490.420
964.0495, 7367.643
964.5316, 7260.073
965.0137, 7168.316
965.4958, 7090.934
965.9780, 7044.462
966.4601, 7000.883
966.9422, 6923.014
967.4243, 6818.695
967.9064, 6744.129
968.3885, 6734.583
968.8707, 6701.613
969.3528, 6635.193
969.8349, 6550.912
970.3170, 6451.369
970.7991, 6339.826
971.2813, 6223.980
971.7634, 6101.869
972.2455, 5949.549
972.7276, 5741.551
973.2097, 5536.508
973.6918, 5350.551
974.1740, 5160.006
974.6561, 4950.463
975.1382, 4730.564
975.6203, 4520.100
976.1024, 4317.332
976.5845, 4077.594
977.0667, 3722.188
977.5488, 3428.885
978.0309, 3284.291
978.5130, 3165.979
978.9951, 3010.521
979.4772, 2826.246
979.9594, 2625.428
980.4415, 2411.590
980.9236, 2207.656
981.4057, 2000.916
981.8878, 1831.422
982.3699, 1742.598
982.8521, 1664.746
983.3342, 1541.260
983.8163, 1398.631
984.2984, 1294.201
984.7805, 1233.043
985.2626, 1136.855
985.7448, 923.2129
986.2269, 743.0352
986.7090, 694.8105
987.1911, 663.4082
987.6732, 550.5352
988.1553, 394.8438
988.6375, 279.4980
989.1196, 217.4219
989.6017, 136.3340
990.0838, 7.048828
990.5659, 153.0566
991.0480, 268.8359
991.5302, 382.5703
992.0123, 536.0527
992.4944, 698.1680
992.9765, 804.4121
993.4586, 844.1270
993.9407, 882.0605
994.4229, 952.2520
994.9050, 1019.146
995.3871, 1058.711
995.8692, 1096.271
996.3513, 1149.459
996.8334, 1220.795
997.3156, 1323.221
997.7977, 1457.186
998.2798, 1561.322
998.7619, 1587.928
999.2440, 1605.160
999.7261, 1639.396
1000.208, 1685.504
1000.690, 1767.449
1001.172, 1847.838
1001.655, 1838.633
1002.137, 1728.539
1002.619, 1661.812
1003.101, 1745.039
1003.583, 1832.887
1004.065, 1846.855
1004.547, 1834.719
1005.029, 1836.152
1005.512, 1845.742
1005.994, 1853.836
1006.476, 1856.398
1006.958, 1839.527
1007.440, 1771.398
1007.922, 1717.676
1008.404, 1743.570
1008.886, 1766.027
1009.368, 1701.535
1009.851, 1590.277
1010.333, 1519.719
1010.815, 1502.867
1011.297, 1458.223
1011.779, 1317.938
1012.261, 1189.789
1012.743, 1142.660
1013.225, 1104.184
1013.708, 1030.832
1014.190, 918.4375
1014.672, 745.7539
1015.154, 521.1797
1015.636, 344.2344
1016.118, 299.5938
1016.600, 240.5234
1017.082, 97.53516
1017.564, 73.33594
1018.047, 222.1992
1018.529, 376.6758
1019.011, 582.0430
1019.493, 839.7383
1019.975, 1097.520
1020.457, 1341.676
1020.939, 1579.367
1021.421, 1795.402
1021.904, 2020.711
1022.386, 2264.605
1022.868, 2538.867
1023.350, 2886.125
1023.832, 3290.328
1024.314, 3641.723
1024.796, 3865.957
1025.278, 4112.105
1025.760, 4408.566
1026.243, 4750.949
1026.725, 5171.840
1027.207, 5609.246
1027.689, 5976.871
1028.171, 6283.953
1028.653, 6632.312
1029.135, 7051.191
1029.617, 7487.453
1030.099, 7944.602
1030.582, 8405.352
1031.064, 8845.871
1031.546, 9299.438
1032.028, 9788.812
1032.510, 10323.77
1032.992, 10918.77
1033.474, 11609.55
1033.956, 12284.86
1034.439, 12932.35
1034.921, 13554.78
1035.403, 14071.96
1035.885, 14629.99
1036.367, 15372.76
1036.849, 16255.48
1037.331, 17121.80
1037.813, 17955.95
1038.296, 18795.06
1038.778, 19596.06
1039.260, 20457.75
1039.742, 21460.73
1040.224, 22491.23
1040.706, 23455.27
1041.188, 24385.52
1041.670, 25351.55
1042.152, 26358.12
1042.635, 27420.19
1043.117, 28558.39
1043.599, 29684.85
1044.081, 30747.98
1044.563, 31863.10
1045.045, 33097.90
1045.527, 34427.12
1046.009, 35842.91
1046.491, 37347.84
1046.974, 38785.13
1047.456, 40097.59
1047.938, 41520.15
1048.420, 43109.02
1048.902, 44744.17
1049.384, 46358.40
1049.866, 48015.28
1050.348, 49820.66
1050.830, 51765.62
1051.313, 53721.25
1051.795, 55690.91
1052.277, 57712.53
1052.759, 59786.89
1053.241, 61865.75
1053.723, 63901.13
1054.205, 66046.09
1054.687, 68497.82
1055.170, 71163.05
1055.652, 73730.17
1056.134, 76190.97
1056.616, 78733.10
1057.098, 81371.91
1057.580, 84157.08
1058.062, 87106.09
1058.544, 90209.00
1059.026, 93494.88
1059.509, 96882.59
1059.991, 100171.1
1060.473, 103395.4
1060.955, 106808.6
1061.437, 110398.4
1061.919, 114024.2
1062.401, 117675.1
1062.883, 121552.0
1063.365, 125834.1
1063.848, 130288.3
1064.330, 134466.8
1064.812, 138601.7
1065.294, 143263.6
1065.776, 148340.8
1066.258, 153341.2
1066.740, 158229.4
1067.222, 163245.0
1067.705, 168544.5
1068.187, 174029.6
1068.669, 179554.6
1069.151, 185277.2
1069.633, 191565.5
1070.115, 198123.9
1070.597, 204404.2
1071.079, 210438.5
1071.562, 216475.4
1072.044, 222574.1
1072.526, 228844.3
1073.008, 235385.3
1073.490, 242018.4
1073.972, 248723.8
1074.454, 255370.5
1074.936, 261897.9
1075.418, 268306.3
1075.901, 274755.8
1076.383, 281205.1
1076.865, 287317.4
1077.347, 292877.4
1077.829, 298424.0
1078.311, 304594.2
1078.793, 310404.2
1079.275, 315034.3
1079.757, 319106.8
1080.240, 323125.4
1080.722, 327240.7
1081.204, 331816.9
1081.686, 337241.0
1082.168, 341848.2
1082.650, 345064.4
1083.132, 347744.8
1083.614, 350078.6
1084.097, 352035.1
1084.579, 353302.5
1085.061, 354259.7
1085.543, 355801.5
1086.025, 358061.4
1086.507, 359771.1
1086.989, 360843.5
1087.471, 361528.8
1087.953, 361815.5
1088.436, 361779.1
1088.918, 361397.0
1089.400, 360791.8
1089.882, 360116.0
1090.364, 359362.2
1090.846, 358509.9
1091.328, 357616.2
1091.810, 356312.6
1092.292, 354559.0
1092.775, 352487.9
1093.257, 350092.9
1093.739, 347713.4
1094.221, 345732.9
1094.703, 343730.0
1095.185, 340374.3
1095.667, 335887.8
1096.149, 332948.6
1096.632, 331436.1
1097.114, 329440.0
1097.596, 326577.3
1098.078, 323385.4
1098.560, 320150.1
1099.042, 316799.6
1099.524, 313210.3
1100.006, 309455.2
1100.489, 305669.8
1100.971, 301852.6
1101.453, 298028.7
1101.935, 294169.6
1102.417, 290163.3
1102.899, 285981.7
1103.381, 281736.0
1103.863, 277539.8
1104.345, 273287.6
1104.828, 268921.9
1105.310, 264435.4
1105.792, 259850.9
1106.274, 255185.7
1106.756, 250405.3
1107.238, 245557.5
1107.720, 240898.9
1108.202, 236634.1
1108.684, 232201.7
1109.167, 227224.0
1109.649, 222167.5
1110.131, 217219.9
1110.613, 212365.0
1111.095, 207622.6
1111.577, 202933.8
1112.059, 198199.0
1112.541, 193364.9
1113.024, 188614.8
1113.506, 184008.4
1113.988, 179451.8
1114.470, 174996.6
1114.952, 170528.5
1115.434, 165917.1
1115.916, 161356.5
1116.398, 157101.1
1116.880, 153105.8
1117.363, 148965.9
1117.845, 144609.8
1118.327, 140493.2
1118.809, 136659.5
1119.291, 132933.3
1119.773, 129266.4
1120.255, 125637.9
1120.737, 122030.7
1121.219, 118491.5
1121.702, 115150.3
1122.184, 111964.3
1122.666, 108724.8
1123.148, 105473.2
1123.630, 102473.3
1124.112, 99754.74
1124.594, 97056.12
1125.076, 94281.41
1125.559, 91534.23
1126.041, 88904.19
1126.523, 86343.66
1127.005, 83718.24
1127.487, 81174.23
1127.969, 79044.10
1128.451, 77160.57
1128.933, 75149.21
1129.416, 72954.44
1129.898, 70760.98
1130.380, 68626.45
1130.862, 66611.38
1131.344, 64833.71
1131.826, 63102.82
1132.308, 61205.09
1132.790, 59362.62
1133.272, 57853.84
1133.755, 56543.23
1134.237, 55045.01
1134.719, 53291.94
1135.201, 51697.59
1135.683, 50448.77
1136.165, 49161.73
1136.647, 47727.27
1137.129, 46321.19
1137.611, 45018.78
1138.094, 43769.59
1138.576, 42536.05
1139.058, 41314.76
1139.540, 40089.67
1140.022, 38860.34
1140.504, 37621.94
1140.986, 36417.98
1141.468, 35294.92
1141.951, 34274.36
1142.433, 33196.84
1142.915, 31950.10
1143.397, 30705.45
1143.879, 29710.80
1144.361, 28884.47
1144.843, 27979.60
1145.325, 27007.50
1145.807, 26026.29
1146.290, 25048.59
1146.772, 24086.18
1147.254, 23145.59
1147.736, 22274.23
1148.218, 21508.80
1148.700, 20795.28
1149.182, 20143.48
1149.664, 19454.52
1150.146, 18600.35
1150.629, 17668.70
1151.111, 16728.55
1151.593, 15840.68
1152.075, 15120.88
1152.557, 14610.21
1153.039, 14053.58
1153.521, 13313.34
1154.003, 12600.85
1154.486, 12011.55
1154.968, 11412.30
1155.450, 10673.75
1155.932, 9925.180
1156.414, 9322.750
1156.896, 8836.484
1157.378, 8347.492
1157.860, 7857.625
1158.343, 7357.117
1158.825, 6840.047
1159.307, 6317.289
1159.789, 5786.305
1160.271, 5291.664
1160.753, 4865.195
1161.235, 4460.578
1161.717, 4007.047
1162.199, 3532.570
1162.682, 3138.234
1163.164, 2798.336
1163.646, 2363.633
1164.128, 1858.602
1164.610, 1467.000
1165.092, 1217.609
1165.574, 936.3828
1166.056, 507.3672
1166.538, 114.0547
1167.021, 7.656250
1167.503, 76.21875
1167.985, 331.5156
1168.467, 642.1172
1168.949, 847.5234
1169.431, 965.1562
1169.913, 1073.242
1170.395, 1188.984
1170.878, 1296.641
1171.360, 1423.430
1171.842, 1495.055
1172.324, 1460.586
1172.806, 1421.266
1173.288, 1441.242
1173.770, 1441.969
1174.252, 1352.781
1174.734, 1199.672
1175.217, 1042.352
1175.699, 880.1406
1176.181, 737.2422
1176.663, 625.9297
1177.145, 404.2266
1177.627, 47.55469
1178.109, 287.4844
1178.591, 537.0859
1179.073, 741.5781
1179.556, 922.9375
1180.038, 1131.617
1180.520, 1481.562
1181.002, 1914.195
1181.484, 2302.422
1181.966, 2673.594
1182.448, 3103.758
1182.930, 3578.734
1183.413, 4000.539
1183.895, 4350.188
1184.377, 4566.242
1184.859, 4530.039
1185.341, 4443.289
1185.823, 4362.203
1186.305, 4244.602
1186.787, 4106.109
1187.270, 3899.227
1187.752, 3686.211
1188.234, 3568.117
1188.716, 3464.289
1189.198, 3395.227
1189.680, 3270.508
1190.162, 2962.180
1190.644, 2769.156
1191.126, 2748.039
1191.609, 2629.172
1192.091, 2385.016
1192.573, 2130.023
1193.055, 1903.898
1193.537, 1712.609
1194.019, 1562.523
1194.501, 1387.258
1194.983, 1113.047
1195.465, 726.8906
1195.948, 442.7734
1196.430, 293.1250
1196.912, 134.6484
1197.394, 0.0000000E+00
##END=



