##NAMES=Berzelianite
##RRUFFID=R060260
##IDEAL CHEMISTRY=Cu_2-x_Se (x &#8776; 0.12)
##LOCALITY=Bukov mine, near Tisnova, Western Moravia, Czechoslovakia
##OWNER=RRUFF
##SOURCE=Michael Scott
##DESCRIPTION=Black tarnished metallic coating
##STATUS=The identification of this mineral is confirmed by single-crystal X-ray diffraction and chemical analysis.
##URL=rruff.info/R060260
##MEASURED CHEMISTRY=(Cu_1.77_[box]_0.23_)_Î£=2_Se_1.00_ ; trace amounts of S
93.46167, 0.0000000E+00
93.94379, 2.901215
94.42590, 4.178497
94.90802, 4.748825
95.39014, 5.146454
95.87225, 5.097046
96.35437, 4.966873
96.83649, 5.583344
97.31860, 6.970001
97.80072, 7.062943
98.28284, 6.532791
98.76495, 5.099152
99.24707, 3.489120
99.72919, 1.539001
100.2113, 0.1364900
100.6934, 0.4108280
101.1755, 0.2723690
101.6577, 0.2324830
102.1398, 0.6535490
102.6219, 0.7140200
103.1040, 1.259354
103.5861, 2.716660
104.0682, 4.125778
104.5504, 5.309219
105.0325, 6.549026
105.5146, 7.235992
105.9967, 7.548050
106.4788, 7.449753
106.9609, 7.273895
107.4431, 7.121597
107.9252, 6.760010
108.4073, 5.994965
108.8894, 4.751129
109.3715, 3.380234
109.8536, 2.491791
110.3358, 2.026474
110.8179, 1.790985
111.3000, 1.931641
111.7821, 2.426651
112.2642, 2.734894
112.7463, 2.333221
113.2285, 1.790146
113.7106, 1.754196
114.1927, 2.528214
114.6748, 3.509125
115.1569, 3.395126
115.6390, 1.400238
116.1212, 0.1423490
116.6033, 3.5186999E-02
117.0854, 0.4579620
117.5675, 0.8655850
118.0496, 1.093140
118.5317, 1.066940
119.0139, 1.106140
119.4960, 1.244919
119.9781, 1.206161
120.4602, 0.9935000
120.9423, 0.7892150
121.4244, 0.8837740
121.9066, 1.342941
122.3887, 2.302643
122.8708, 2.834442
123.3529, 2.745667
123.8350, 2.505783
124.3171, 2.302811
124.7993, 2.169586
125.2814, 2.081406
125.7635, 1.992813
126.2456, 1.885971
126.7277, 1.975861
127.2098, 2.513748
127.6920, 3.128738
128.1741, 3.422653
128.6562, 3.314926
129.1383, 3.007858
129.6204, 2.594910
130.1025, 2.086227
130.5847, 1.695908
131.0668, 1.546509
131.5489, 1.566788
132.0310, 1.579361
132.5131, 1.490341
132.9952, 1.460480
133.4774, 1.802505
133.9595, 2.494553
134.4416, 2.962662
134.9237, 2.529678
135.4058, 1.017975
135.8879, 7.4326001E-02
136.3701, 0.1829990
136.8522, 3.2039999E-03
137.3343, 0.2721410
137.8164, 0.5494690
138.2985, 0.7140960
138.7806, 0.5054780
139.2628, 0.6388850
139.7449, 1.159622
140.2270, 0.4186710
140.7091, 0.6992030
141.1912, 1.339386
141.6733, 1.116653
142.1555, 0.3003690
142.6376, 0.1943210
143.1197, 8.1130996E-02
143.6018, 0.2277220
144.0839, 1.6724000E-02
144.5660, 0.4377900
145.0482, 0.6987150
145.5303, 0.5831600
146.0124, 0.1340480
146.4945, 0.2220760
146.9766, 0.6124730
147.4587, 0.8285370
147.9409, 0.6026000
148.4230, 1.5807999E-02
148.9051, 0.3807220
149.3872, 0.1261750
149.8693, 0.6784360
150.3514, 1.244720
150.8336, 1.628937
151.3157, 2.140915
151.7978, 2.162720
152.2799, 1.607986
152.7620, 1.117111
153.2441, 1.296341
153.7263, 1.872299
154.2084, 2.424011
154.6905, 2.818375
155.1726, 3.092102
155.6547, 3.335983
156.1368, 3.559982
156.6190, 3.732483
157.1011, 3.818527
157.5832, 3.834946
158.0653, 3.820862
158.5474, 3.791138
159.0295, 3.787399
159.5117, 3.840088
159.9938, 3.890976
160.4759, 4.024750
160.9580, 4.293976
161.4401, 4.687088
161.9222, 5.168045
162.4044, 5.780716
162.8865, 6.632858
163.3686, 6.935577
163.8507, 5.974640
164.3328, 5.111481
164.8149, 5.072098
165.2971, 5.809494
165.7792, 6.745361
166.2613, 7.212585
166.7434, 7.061264
167.2255, 6.792007
167.7076, 6.132782
168.1898, 5.547989
168.6719, 5.455826
169.1540, 5.912354
169.6361, 6.552597
170.1182, 6.845764
170.6003, 6.569580
171.0825, 6.470016
171.5646, 6.955612
172.0467, 7.505524
172.5288, 7.360825
173.0109, 6.229355
173.4930, 4.823502
173.9752, 4.360962
174.4573, 4.961884
174.9394, 5.594742
175.4215, 6.021637
175.9036, 6.244247
176.3857, 6.242813
176.8679, 5.935745
177.3500, 5.512268
177.8321, 5.122208
178.3142, 4.710052
178.7963, 4.657761
179.2784, 5.560196
179.7606, 7.257477
180.2427, 8.313370
180.7248, 7.920090
181.2069, 7.063568
181.6890, 6.687973
182.1711, 6.881088
182.6533, 7.074570
183.1354, 6.552032
183.6175, 5.167313
184.0996, 4.237274
184.5817, 4.487503
185.0638, 5.049774
185.5460, 5.546646
186.0281, 5.879227
186.5102, 5.986771
186.9923, 5.677826
187.4744, 4.647385
187.9565, 4.021530
188.4387, 4.148941
188.9208, 4.546051
189.4029, 4.906570
189.8850, 5.129791
190.3671, 5.276810
190.8492, 5.498123
191.3314, 6.039566
191.8135, 6.235291
192.2956, 5.732300
192.7777, 5.053436
193.2598, 4.691498
193.7419, 4.830894
194.2241, 5.259163
194.7062, 5.437515
195.1883, 5.100342
195.6704, 4.770348
196.1525, 4.606606
196.6346, 4.405884
197.1168, 3.732735
197.5989, 2.406960
198.0810, 0.9135890
198.5631, 0.4709010
199.0452, 1.859085
199.5273, 3.098846
200.0095, 4.034103
200.4916, 4.588531
200.9737, 4.528580
201.4558, 3.569839
201.9379, 2.200516
202.4200, 1.925041
202.9022, 3.378792
203.3843, 4.619293
203.8664, 4.841087
204.3485, 4.303497
204.8306, 3.712807
205.3127, 3.287239
205.7949, 3.084457
206.2770, 3.260063
206.7591, 4.078918
207.2412, 4.673119
207.7233, 4.273735
208.2054, 3.051033
208.6876, 2.119614
209.1697, 2.065552
209.6518, 2.443451
210.1339, 2.520370
210.6160, 2.162216
211.0981, 1.825493
211.5803, 2.058174
212.0624, 2.860817
212.5445, 3.222672
213.0266, 2.167366
213.5087, 0.8967510
213.9908, 0.6630020
214.4730, 1.782402
214.9551, 3.188660
215.4372, 3.657944
215.9193, 3.038437
216.4014, 2.470360
216.8836, 2.427780
217.3657, 2.440231
217.8478, 2.143784
218.3299, 1.446503
218.8120, 0.7519450
219.2941, 0.6734390
219.7763, 1.414513
220.2584, 2.108276
220.7405, 2.649269
221.2226, 3.063026
221.7047, 3.370331
222.1868, 3.575073
222.6690, 3.640678
223.1511, 3.482224
223.6332, 2.989853
224.1153, 2.515854
224.5974, 1.866768
225.0795, 1.373924
225.5617, 1.434387
226.0438, 2.112503
226.5259, 2.957726
227.0080, 3.123749
227.4901, 1.973793
227.9722, 1.311317
228.4544, 1.692368
228.9365, 2.218658
229.4186, 2.030525
229.9007, 0.9418030
230.3828, 0.4147720
230.8649, 0.9126590
231.3471, 0.2095490
231.8292, 1.027359
232.3113, 1.370323
232.7934, 1.543541
233.2755, 1.875282
233.7576, 2.429985
234.2398, 2.916435
234.7219, 2.820953
235.2040, 1.536499
235.6861, 0.7460710
236.1682, 0.6887820
236.6503, 0.9805150
237.1325, 1.318047
237.6146, 1.615959
238.0967, 1.920044
238.5788, 2.326126
239.0609, 2.982155
239.5430, 3.353020
240.0252, 3.243637
240.5073, 2.926651
240.9894, 2.628693
241.4715, 2.400146
241.9536, 2.258713
242.4357, 2.253624
242.9179, 2.428474
243.4000, 2.556931
243.8821, 2.566399
244.3642, 2.546150
244.8463, 2.624321
245.3284, 2.830734
245.8106, 2.996712
246.2927, 2.861534
246.7748, 2.411140
247.2569, 2.136528
247.7390, 2.369865
248.2211, 2.700096
248.7033, 2.494125
249.1854, 1.588165
249.6675, 0.7078320
250.1496, 0.7470170
250.6317, 1.549454
251.1138, 2.098244
251.5960, 1.898705
252.0781, 1.458565
252.5602, 1.515778
253.0423, 2.214630
253.5244, 2.942284
254.0065, 3.155167
254.4887, 2.973000
254.9708, 2.657616
255.4529, 2.120491
255.9350, 1.545296
256.4171, 1.258072
256.8992, 1.345634
257.3813, 1.408485
257.8635, 0.9525830
258.3456, 0.2904050
258.8277, 1.1101000E-02
259.3098, 0.4487690
259.7919, 1.208260
260.2740, 1.639503
260.7562, 1.722656
261.2383, 1.607094
261.7204, 1.150627
262.2025, 0.5801320
262.6846, 0.1767350
263.1667, 2.2072000E-02
263.6489, 7.2044000E-02
264.1310, 0.3477780
264.6131, 0.9370650
265.0952, 1.382660
265.5773, 1.274902
266.0594, 0.9937590
266.5416, 0.9538650
267.0237, 1.335182
267.5058, 1.800407
267.9879, 1.809113
268.4700, 1.293251
268.9521, 0.9083480
269.4343, 1.064728
269.9164, 1.352470
270.3985, 1.415932
270.8806, 1.144058
271.3627, 0.8419340
271.8448, 1.052490
272.3270, 1.982857
272.8091, 2.378540
273.2912, 1.111702
273.7733, 0.2262650
274.2554, 0.7003170
274.7375, 0.1855770
275.2197, 0.7573170
275.7018, 1.554207
276.1839, 2.213722
276.6660, 2.644295
277.1481, 2.707191
277.6302, 2.614922
278.1124, 2.370995
278.5945, 2.016357
279.0766, 1.719849
279.5587, 1.743668
280.0408, 2.158386
280.5229, 2.251305
281.0051, 1.521065
281.4872, 0.8561860
281.9693, 0.6973110
282.4514, 0.9640200
282.9335, 1.289375
283.4156, 1.383514
283.8978, 1.246048
284.3799, 1.024178
284.8620, 0.5867690
285.3441, 0.1875990
285.8262, 0.1310580
286.3083, 0.3052670
286.7905, 0.2350230
287.2726, 0.2061230
287.7547, 0.9616620
288.2368, 1.500671
288.7189, 1.574173
289.2010, 1.756134
289.6832, 2.416946
290.1653, 3.200180
290.6474, 3.549301
291.1295, 3.138596
291.6116, 2.182777
292.0938, 1.537735
292.5759, 1.390732
293.0580, 1.311455
293.5401, 1.256638
294.0222, 1.207954
294.5043, 1.147659
294.9865, 1.067535
295.4686, 0.9714740
295.9507, 0.8332900
296.4328, 0.4327850
296.9149, 0.4205250
297.3970, 1.120468
297.8792, 2.037025
298.3613, 2.840820
298.8434, 3.406494
299.3255, 3.650406
299.8076, 3.362732
300.2897, 2.208855
300.7719, 1.274170
301.2540, 0.4682010
301.7361, 4.3442000E-02
302.2182, 4.8520002E-03
302.7003, 0.5428770
303.1824, 1.172218
303.6646, 1.294441
304.1467, 0.6333390
304.6288, 0.4791180
305.1109, 1.520065
305.5930, 2.439369
306.0751, 2.431992
306.5573, 1.656731
307.0394, 0.8928220
307.5215, 0.8972470
308.0036, 1.746674
308.4857, 2.304825
308.9678, 2.451447
309.4500, 2.402885
309.9321, 2.067863
310.4142, 1.583717
310.8963, 1.210419
311.3784, 1.141594
311.8605, 1.318634
312.3427, 1.284286
312.8248, 0.7567900
313.3069, 0.3359990
313.7890, 6.3979998E-02
314.2711, 2.2575000E-02
314.7532, 0.1317440
315.2354, 0.5592420
315.7175, 1.192665
316.1996, 1.899055
316.6817, 3.190567
317.1638, 3.683418
317.6459, 2.584633
318.1281, 1.066833
318.6102, 0.2014310
319.0923, 0.3184810
319.5744, 0.9449540
320.0565, 1.329758
320.5386, 1.357033
321.0208, 1.404549
321.5029, 1.678741
321.9850, 1.837898
322.4671, 1.593971
322.9492, 0.9573900
323.4313, 0.2092510
323.9135, 0.4259800
324.3956, 1.030090
324.8777, 1.075729
325.3598, 1.2695000E-02
325.8419, 1.098625
326.3240, 1.913124
326.8062, 2.432800
327.2883, 2.812813
327.7704, 3.181755
328.2525, 3.537422
328.7346, 3.717201
329.2167, 3.860588
329.6989, 3.535835
330.1810, 2.108742
330.6631, 0.2869420
331.1452, 0.8529050
331.6273, 0.6979220
332.1094, 0.3441930
332.5916, 1.081970
333.0737, 1.335381
333.5558, 1.532967
334.0379, 1.745186
334.5200, 1.945526
335.0021, 2.144646
335.4843, 2.343773
335.9664, 2.460098
336.4485, 2.312904
336.9306, 1.758949
337.4127, 1.367233
337.8948, 1.256668
338.3770, 1.263962
338.8591, 1.323830
339.3412, 1.411606
339.8233, 1.521797
340.3055, 1.747643
340.7876, 2.143982
341.2697, 2.071198
341.7518, 0.6571430
342.2339, 0.3650820
342.7160, 2.5886999E-02
343.1982, 1.365974
343.6803, 2.489830
344.1624, 2.567650
344.6445, 1.810959
345.1266, 1.237129
345.6087, 0.9365690
346.0909, 0.6610260
346.5730, 0.1062470
347.0551, 0.4088290
347.5372, 0.3817830
348.0193, 0.4866490
348.5014, 1.651062
348.9836, 2.032394
349.4657, 1.337799
349.9478, 0.8395540
350.4299, 1.091721
350.9120, 1.529739
351.3941, 1.751328
351.8763, 1.683304
352.3584, 1.519455
352.8405, 1.460625
353.3226, 1.511086
353.8047, 1.528107
354.2868, 1.414330
354.7690, 1.288658
355.2511, 1.121017
355.7332, 0.9669340
356.2153, 1.043976
356.6974, 1.821671
357.1795, 3.002258
357.6617, 3.290085
358.1438, 2.270729
358.6259, 1.184784
359.1080, 0.5932390
359.5901, 0.4505920
360.0722, 0.7163540
360.5544, 1.581253
361.0365, 2.550171
361.5186, 2.730118
362.0007, 1.990074
362.4828, 1.472984
362.9649, 1.935402
363.4471, 2.698212
363.9292, 2.956680
364.4113, 2.544144
364.8934, 2.012779
365.3755, 1.757957
365.8576, 1.749512
366.3398, 1.838753
366.8219, 2.083038
367.3040, 2.281075
367.7861, 2.184975
368.2682, 1.832909
368.7503, 1.511871
369.2325, 1.344498
369.7146, 1.313858
370.1967, 1.389847
370.6788, 1.589615
371.1609, 1.752411
371.6430, 1.675804
372.1252, 1.455261
372.6073, 1.425461
373.0894, 1.675011
373.5715, 2.090706
374.0536, 2.859512
374.5357, 3.846954
375.0179, 4.135773
375.5000, 2.972313
375.9821, 1.113831
376.4642, 0.4251330
376.9463, 1.417358
377.4284, 2.244919
377.9106, 2.056442
378.3927, 1.300705
378.8748, 0.7023700
379.3569, 0.4621120
379.8390, 0.4357220
380.3211, 0.4386140
380.8033, 0.4492420
381.2854, 0.6501460
381.7675, 1.317955
382.2496, 1.941277
382.7317, 2.127243
383.2138, 1.935234
383.6960, 1.592430
384.1781, 1.282318
384.6602, 1.035255
385.1423, 0.7098850
385.6244, 4.2511001E-02
386.1065, 0.3362730
386.5887, 1.3824000E-02
387.0708, 0.7501910
387.5529, 1.230576
388.0350, 1.159523
388.5171, 0.8654020
388.9992, 1.057320
389.4814, 2.765633
389.9635, 3.531036
390.4456, 2.419601
390.9277, 0.9265520
391.4098, 0.2863240
391.8919, 0.6460490
392.3741, 1.333054
392.8562, 1.641449
393.3383, 1.494148
393.8204, 1.573845
394.3025, 2.408226
394.7846, 2.911301
395.2668, 2.330582
395.7489, 1.186394
396.2310, 0.5033650
396.7131, 0.9166260
397.1952, 2.070511
397.6773, 2.735497
398.1595, 2.730499
398.6416, 2.492401
399.1237, 1.754326
399.6058, 1.030426
400.0879, 0.8613050
400.5700, 1.375763
401.0522, 1.997520
401.5343, 1.943741
402.0164, 1.054840
402.4985, 0.4415130
402.9806, 0.3089600
403.4627, 0.3167340
403.9449, 0.3418500
404.4270, 0.3861690
404.9091, 0.4876630
405.3912, 0.7839280
405.8733, 1.171890
406.3554, 1.307716
406.8376, 1.131554
407.3197, 0.9401550
407.8018, 0.6468350
408.2839, 0.4893650
408.7660, 0.9059910
409.2481, 2.141823
409.7303, 3.209160
410.2124, 2.747948
410.6945, 0.8976520
411.1766, 8.8340998E-02
411.6587, 0.7575450
412.1408, 1.983543
412.6230, 2.181465
413.1051, 1.476509
413.5872, 0.7527240
414.0693, 0.2960660
414.5514, 8.1580997E-02
415.0335, 0.1948320
415.5157, 0.6829530
415.9978, 0.9899670
416.4799, 0.5172810
416.9620, 0.3691640
417.4441, 0.5344390
417.9262, 0.5330810
418.4084, 1.706482
418.8905, 2.458809
419.3726, 2.823753
419.8547, 2.803421
420.3368, 2.330406
420.8189, 1.702011
421.3011, 1.424438
421.7832, 1.601158
422.2653, 1.669220
422.7474, 1.536392
423.2295, 1.294189
423.7116, 0.9693910
424.1938, 0.5908200
424.6759, 0.2193370
425.1580, 0.1627430
425.6401, 0.5206760
426.1222, 0.1909180
426.6043, 1.649200
427.0865, 3.109734
427.5686, 3.690880
428.0507, 3.623466
428.5328, 3.120201
429.0149, 2.278374
429.4970, 1.380768
429.9792, 0.9457400
430.4613, 1.265144
430.9434, 1.415985
431.4255, 1.058350
431.9076, 0.8548200
432.3897, 1.441025
432.8719, 2.578835
433.3540, 3.430367
433.8361, 3.289520
434.3182, 2.296371
434.8003, 1.433502
435.2824, 0.4421690
435.7646, 2.7534001E-02
436.2467, 0.9037250
436.7288, 2.109634
437.2109, 2.519608
437.6930, 1.773689
438.1751, 0.7122190
438.6573, 0.4314960
439.1394, 0.9960330
439.6215, 1.488365
440.1036, 1.964211
440.5857, 2.113052
441.0678, 1.435471
441.5500, 0.2083210
442.0321, 0.5384220
442.5142, 0.1422420
442.9963, 1.458633
443.4784, 1.864220
443.9605, 1.226845
444.4427, 0.6321030
444.9248, 0.6696930
445.4069, 1.010750
445.8890, 1.075142
446.3711, 0.7420430
446.8532, 0.3994290
447.3354, 0.1624680
447.8175, 7.9231001E-02
448.2996, 0.3355030
448.7817, 1.016403
449.2638, 1.750076
449.7459, 2.157188
450.2281, 2.213066
450.7102, 2.143288
451.1923, 1.748238
451.6744, 1.413322
452.1565, 1.439651
452.6386, 1.739807
453.1208, 2.021011
453.6029, 2.128838
454.0850, 2.133148
454.5671, 2.240898
455.0492, 2.822296
455.5313, 2.975594
456.0135, 2.181625
456.4956, 1.298721
456.9777, 1.157661
457.4598, 1.761971
457.9419, 2.372849
458.4240, 2.232979
458.9062, 1.325546
459.3883, 0.8642880
459.8704, 1.418625
460.3525, 1.789215
460.8346, 1.656738
461.3167, 1.216721
461.7989, 0.6306690
462.2810, 5.0011002E-02
462.7631, 0.5737380
463.2452, 0.4002910
463.7273, 0.6584630
464.2094, 1.261772
464.6916, 0.6643600
465.1737, 0.1160350
465.6558, 0.3895260
466.1379, 1.350983
466.6200, 2.435890
467.1021, 3.671440
467.5843, 4.677422
468.0664, 4.417915
468.5485, 2.683784
469.0306, 1.184692
469.5127, 0.8067700
469.9948, 1.110443
470.4770, 1.464073
470.9591, 1.925735
471.4412, 2.138802
471.9233, 1.501450
472.4054, 0.5947110
472.8875, 0.6632770
473.3697, 1.974060
473.8518, 3.517670
474.3339, 4.508759
474.8160, 4.867996
475.2981, 4.630768
475.7802, 3.189850
476.2624, 1.838966
476.7445, 1.088539
477.2266, 0.8764800
477.7087, 1.169472
478.1908, 1.964706
478.6729, 2.905899
479.1551, 3.334511
479.6372, 2.961899
480.1193, 2.732155
480.6014, 2.870438
481.0835, 2.930176
481.5656, 2.478584
482.0478, 1.717369
482.5299, 1.227631
483.0120, 1.428207
483.4941, 2.140350
483.9762, 2.775040
484.4583, 3.467552
484.9405, 3.780540
485.4226, 3.448471
485.9047, 2.865593
486.3868, 2.196480
486.8689, 1.517014
487.3510, 1.086693
487.8332, 1.318878
488.3153, 2.038078
488.7974, 2.327431
489.2795, 1.976219
489.7616, 1.633072
490.2437, 1.783592
490.7259, 2.178452
491.2080, 2.471672
491.6901, 2.649857
492.1722, 2.618324
492.6543, 2.114357
493.1364, 1.332390
493.6186, 0.8524090
494.1007, 0.8530040
494.5828, 1.111473
495.0649, 1.424927
495.5470, 1.801842
496.0291, 2.129761
496.5113, 2.546402
496.9934, 2.789680
497.4755, 2.568962
497.9576, 2.048515
498.4397, 1.638405
498.9218, 1.544899
499.4040, 1.598991
499.8861, 1.372063
500.3682, 0.5850910
500.8503, 0.2314680
501.3324, 0.6941450
501.8145, 1.202545
502.2967, 1.097977
502.7788, 0.5784530
503.2609, 0.4127960
503.7430, 1.211594
504.2251, 2.682365
504.7072, 3.736626
505.1894, 4.438820
505.6715, 4.559464
506.1536, 3.429787
506.6357, 2.120728
507.1178, 1.500854
507.5999, 1.663849
508.0821, 2.036415
508.5642, 2.361710
509.0463, 2.567780
509.5284, 2.363861
510.0105, 1.641708
510.4926, 0.9050520
510.9748, 0.3917620
511.4569, 0.1194080
511.9390, 0.1270070
512.4211, 0.6199110
512.9032, 1.024628
513.3853, 0.8653640
513.8674, 0.4804920
514.3495, 0.5759660
514.8317, 1.307495
515.3138, 1.998978
515.7959, 1.914925
516.2780, 0.9818270
516.7601, 0.3544850
517.2422, 3.1197000E-02
517.7244, 4.2656001E-02
518.2065, 0.3591160
518.6886, 0.9176560
519.1707, 1.156860
519.6528, 0.9172210
520.1349, 0.4596560
520.6171, 0.1370930
521.0992, 9.5670000E-03
521.5813, 5.4871000E-02
522.0634, 0.6371770
522.5455, 1.061996
523.0276, 0.9870450
523.5098, 0.5976330
523.9919, 0.2337420
524.4740, 1.2062000E-02
524.9561, 6.4804003E-02
525.4382, 0.2180710
525.9203, 0.8876950
526.4025, 1.325783
526.8846, 1.291908
527.3667, 1.105682
527.8488, 1.066925
528.3309, 1.155418
528.8130, 1.246704
529.2952, 1.306831
529.7773, 1.350105
530.2594, 1.460182
530.7415, 1.586937
531.2236, 1.454659
531.7057, 0.8854370
532.1879, 0.1537780
532.6700, 0.2285920
533.1521, 0.2311480
533.6342, 0.1078490
534.1163, 1.394585
534.5984, 2.506119
535.0806, 2.547234
535.5627, 1.752426
536.0448, 0.8994670
536.5269, 0.4506760
537.0090, 0.3540340
537.4911, 0.5191350
537.9733, 1.220284
538.4554, 1.573097
538.9375, 1.299461
539.4196, 0.8104780
539.9017, 0.1708680
540.3839, 0.5002820
540.8660, 0.8529970
541.3481, 0.4888000
541.8302, 0.2527540
542.3123, 0.5432280
542.7944, 0.2721560
543.2766, 0.1939700
543.7587, 0.8165820
544.2408, 1.636848
544.7229, 1.888969
545.2050, 1.512634
545.6871, 1.159538
546.1693, 1.091904
546.6514, 1.133209
547.1335, 1.038361
547.6156, 0.8313750
548.0977, 0.7869340
548.5798, 1.102745
549.0620, 1.653366
549.5441, 2.013245
550.0262, 2.138420
550.5083, 2.089424
550.9904, 1.587677
551.4725, 1.122009
551.9547, 1.232353
552.4368, 1.777885
552.9189, 2.071365
553.4010, 1.514412
553.8831, 0.4086150
554.3652, 5.6671001E-02
554.8474, 0.8496250
555.3295, 1.414368
555.8116, 1.125191
556.2937, 0.6715090
556.7758, 0.5311660
557.2579, 0.7321620
557.7401, 1.033577
558.2222, 1.409576
558.7043, 1.748642
559.1864, 1.834770
559.6685, 1.657204
560.1506, 1.423424
560.6328, 1.215385
561.1149, 1.028290
561.5970, 0.7979430
562.0791, 0.3778760
562.5612, 0.3674090
563.0433, 1.351173
563.5255, 2.413834
564.0076, 2.753120
564.4897, 2.422379
564.9718, 1.953987
565.4539, 1.681816
565.9360, 1.538902
566.4182, 1.265015
566.9003, 0.5230940
567.3824, 0.3056180
567.8645, 1.316490
568.3466, 2.272995
568.8287, 2.191261
569.3109, 1.272919
569.7930, 0.4597470
570.2751, 0.3310700
570.7572, 0.6760480
571.2393, 1.190247
571.7214, 1.914673
572.2036, 2.246124
572.6857, 1.689041
573.1678, 0.9842000
573.6499, 1.180084
574.1320, 2.247108
574.6141, 2.868027
575.0963, 2.345848
575.5784, 1.499352
576.0605, 0.9844130
576.5426, 0.7632060
577.0247, 0.5900650
577.5068, 0.3540650
577.9890, 0.1192020
578.4711, 1.3000000E-04
578.9532, 1.5419000E-02
579.4353, 0.1353380
579.9174, 0.8545760
580.3995, 1.323654
580.8817, 0.8108060
581.3638, 0.1876910
581.8459, 0.6927030
582.3280, 0.2212220
582.8101, 0.7682270
583.2922, 1.706421
583.7744, 2.624252
584.2565, 2.914772
584.7386, 2.130249
585.2207, 1.219658
585.7029, 0.7033920
586.1850, 0.5764620
586.6671, 0.9096530
587.1492, 2.148277
587.6313, 3.274330
588.1135, 3.420715
588.5956, 2.904533
589.0777, 2.476280
589.5598, 2.329926
590.0419, 2.173004
590.5240, 1.636101
591.0062, 0.7005460
591.4883, 0.2070390
591.9704, 0.4062350
592.4525, 0.6642300
592.9346, 0.8539580
593.4167, 1.007332
593.8989, 1.203476
594.3810, 1.443359
594.8631, 1.607918
595.3452, 1.536682
595.8273, 1.258591
596.3094, 1.122643
596.7916, 1.206612
597.2737, 1.259125
597.7558, 1.265594
598.2379, 1.145813
598.7200, 0.7181020
599.2021, 4.8827998E-02
599.6843, 0.3635860
600.1664, 0.1840210
600.6485, 0.3123860
601.1306, 0.8212510
601.6127, 1.296852
602.0948, 1.604668
602.5770, 1.636810
603.0591, 1.502480
603.5412, 1.504761
604.0233, 1.749077
604.5054, 1.963211
604.9875, 2.391167
605.4697, 2.576553
605.9518, 1.880753
606.4339, 0.6982730
606.9160, 0.1127170
607.3981, 0.8069310
607.8802, 2.051651
608.3624, 2.295113
608.8445, 1.368378
609.3266, 0.7763600
609.8087, 0.8410720
610.2908, 1.187500
610.7729, 1.771339
611.2551, 2.421661
611.7372, 2.582832
612.2193, 1.725372
612.7014, 0.8372120
613.1835, 0.6581800
613.6656, 0.9592360
614.1478, 1.309586
614.6299, 1.598358
615.1120, 1.719292
615.5941, 1.505737
616.0762, 0.9647290
616.5583, 0.8108670
617.0405, 1.505997
617.5226, 1.944031
618.0047, 1.844215
618.4868, 1.478043
618.9689, 0.9825670
619.4510, 0.4465260
619.9332, 8.8698998E-02
620.4153, 0.1592100
620.8974, 0.5496370
621.3795, 0.8440400
621.8616, 1.026436
622.3438, 1.236443
622.8259, 1.592560
623.3080, 1.941986
623.7901, 2.037155
624.2722, 1.863091
624.7543, 1.806198
625.2365, 2.174301
625.7186, 2.528816
626.2007, 2.422409
626.6828, 1.990486
627.1649, 1.648186
627.6470, 1.567635
628.1292, 1.617645
628.6113, 1.563499
629.0934, 1.312233
629.5755, 1.338280
630.0576, 2.139030
630.5397, 2.683281
631.0219, 2.485352
631.5040, 1.917427
631.9861, 1.494438
632.4682, 1.361107
632.9503, 1.327118
633.4324, 1.184952
633.9146, 1.006798
634.3967, 1.021042
634.8788, 1.248047
635.3609, 1.688187
635.8430, 2.540993
636.3251, 3.496590
636.8073, 3.531929
637.2894, 2.084808
637.7715, 1.288574
638.2536, 2.027298
638.7357, 2.977234
639.2178, 2.956940
639.7000, 2.233879
640.1821, 2.029953
640.6642, 3.009651
641.1463, 4.454193
641.6284, 4.812195
642.1105, 3.815636
642.5927, 2.886703
643.0748, 2.000069
643.5569, 1.404945
644.0390, 1.379768
644.5211, 1.690941
645.0032, 1.866714
645.4854, 1.784752
645.9675, 1.581909
646.4496, 1.178261
646.9317, 0.7687300
647.4138, 0.8169780
647.8959, 1.356537
648.3781, 1.861053
648.8602, 1.926918
649.3423, 1.646713
649.8244, 1.464149
650.3065, 1.516685
650.7886, 1.460480
651.2708, 0.9449620
651.7529, 0.6097340
652.2350, 1.180008
652.7171, 2.313492
653.1992, 2.985870
653.6813, 2.606857
654.1635, 1.637741
654.6456, 0.4558330
655.1277, 0.8557970
655.6098, 1.066727
656.0919, 0.3897630
656.5740, 2.026833
657.0562, 2.542572
657.5383, 2.045029
658.0204, 1.758804
658.5025, 1.862328
658.9846, 1.952805
659.4667, 1.829697
659.9489, 1.690079
660.4310, 1.854576
660.9131, 2.266296
661.3952, 2.463905
661.8773, 2.050636
662.3594, 1.282959
662.8416, 1.032799
663.3237, 1.427391
663.8058, 1.888100
664.2879, 2.545341
664.7700, 2.987495
665.2521, 2.748695
665.7343, 2.051033
666.2164, 1.692688
666.6985, 2.281845
667.1806, 2.758263
667.6627, 1.918549
668.1448, 0.5539320
668.6270, 0.3965380
669.1091, 1.711205
669.5912, 3.165047
670.0733, 3.536423
670.5554, 2.973038
671.0375, 2.495995
671.5197, 2.222336
672.0018, 1.847900
672.4839, 1.223778
672.9660, 0.5996700
673.4481, 5.4970000E-02
673.9302, 0.3431930
674.4124, 0.4584120
674.8945, 0.2056960
675.3766, 0.3449710
675.8587, 1.469833
676.3408, 2.906616
676.8229, 3.244522
677.3051, 2.033295
677.7872, 0.6403270
678.2693, 0.3083110
678.7514, 0.9389420
679.2335, 1.365013
679.7156, 1.648476
680.1978, 1.670158
680.6799, 1.164070
681.1620, 0.5767820
681.6441, 0.2638240
682.1262, 0.2322390
682.6083, 0.3240360
683.0905, 0.4488300
683.5726, 0.6188430
684.0547, 0.8691640
684.5368, 1.198608
685.0189, 1.585487
685.5010, 2.120789
685.9832, 2.486519
686.4653, 2.312279
686.9474, 1.710075
687.4295, 1.293785
687.9116, 1.253426
688.3937, 1.159882
688.8759, 0.6950680
689.3580, 0.2468030
689.8401, 0.2663120
690.3222, 0.7198260
690.8043, 1.268471
691.2864, 1.715149
691.7686, 2.032387
692.2507, 2.162132
692.7328, 2.108704
693.2149, 1.816711
693.6970, 1.109268
694.1791, 0.4068830
694.6613, 0.1937480
695.1434, 0.5589520
695.6255, 0.2592320
696.1076, 1.286980
696.5897, 2.444412
697.0718, 2.223763
697.5540, 1.352364
698.0361, 0.4781800
698.5182, 0.1916890
699.0003, 0.3683620
699.4824, 0.1650770
699.9645, 1.089462
700.4467, 1.604889
700.9288, 1.634644
701.4109, 1.515541
701.8930, 1.001984
702.3751, 0.6718750
702.8572, 0.9725800
703.3394, 1.579117
703.8215, 1.952133
704.3036, 1.925484
704.7857, 1.915504
705.2678, 2.279884
705.7499, 2.741371
706.2321, 2.895988
706.7142, 2.755859
707.1963, 2.576004
707.6784, 2.563797
708.1605, 2.562309
708.6426, 2.355484
709.1248, 1.905350
709.6069, 1.667458
710.0890, 1.913261
710.5711, 2.056206
711.0532, 1.726189
711.5353, 1.259117
712.0175, 1.163391
712.4996, 1.552498
712.9817, 1.784950
713.4638, 1.406395
713.9459, 0.8953780
714.4280, 0.6678160
714.9102, 0.7285390
715.3923, 1.069954
715.8744, 1.724701
716.3565, 2.341522
716.8386, 2.349121
717.3207, 1.614456
717.8029, 1.237778
718.2850, 1.614845
718.7671, 1.867577
719.2492, 1.655769
719.7313, 1.319931
720.2134, 1.203156
720.6956, 1.347702
721.1777, 1.535561
721.6598, 1.620888
722.1419, 1.718277
722.6240, 2.186165
723.1061, 2.834129
723.5883, 2.703758
724.0704, 1.456665
724.5525, 0.2819210
725.0346, 0.5843730
725.5167, 2.295601
725.9988, 2.849197
726.4810, 0.9685130
726.9631, 0.2320480
727.4452, 6.0120001E-03
727.9273, 0.7020800
728.4094, 1.212921
728.8915, 1.502464
729.3737, 1.750771
729.8558, 2.094757
730.3379, 2.343842
730.8200, 2.218590
731.3021, 1.830704
731.7842, 1.523460
732.2664, 1.368950
732.7485, 1.187416
733.2306, 0.7915730
733.7127, 0.2851720
734.1948, 0.1858750
734.6769, 0.8847810
735.1591, 1.277992
735.6412, 0.9492570
736.1233, 0.7172320
736.6054, 1.210022
737.0875, 2.051819
737.5696, 2.447716
738.0518, 2.066216
738.5339, 1.719124
739.0160, 2.384117
739.4981, 3.391731
739.9802, 3.353043
740.4623, 2.300774
740.9445, 1.349060
741.4266, 1.053413
741.9087, 1.161377
742.3908, 1.234772
742.8729, 1.264465
743.3550, 1.298683
743.8372, 1.365410
744.3193, 1.401352
744.8014, 1.330215
745.2835, 1.254097
745.7656, 1.312294
746.2477, 1.514107
746.7299, 1.685059
747.2120, 1.741081
747.6941, 1.707588
748.1762, 1.462296
748.6583, 1.143333
749.1404, 1.315292
749.6226, 2.126587
750.1047, 2.873802
750.5868, 2.789642
751.0689, 1.968117
751.5510, 1.445923
752.0331, 1.405960
752.5153, 1.291885
752.9974, 0.8938290
753.4795, 0.5487590
753.9616, 0.5583340
754.4437, 0.7642440
754.9258, 0.7158050
755.4080, 9.0294003E-02
755.8901, 0.4593580
756.3722, 0.4297260
756.8543, 9.6977003E-02
757.3364, 0.2125550
757.8185, 0.4068150
758.3007, 0.4723280
758.7828, 0.3956830
759.2649, 0.2304990
759.7470, 2.4155000E-02
760.2291, 0.3296200
760.7112, 0.1643520
761.1934, 0.9545140
761.6755, 1.942848
762.1576, 2.154037
762.6397, 2.013985
763.1218, 2.187408
763.6039, 2.835892
764.0861, 2.791138
764.5682, 0.5918350
765.0503, 1.474487
765.5324, 1.280281
766.0145, 0.3198620
766.4966, 1.610260
766.9788, 2.071739
767.4609, 2.102798
767.9430, 2.044113
768.4251, 1.925102
768.9072, 1.955261
769.3893, 2.219185
769.8715, 2.145592
770.3536, 1.340370
770.8357, 0.5173420
771.3178, 0.4630280
771.7999, 1.010010
772.2820, 1.289459
772.7642, 0.9810940
773.2463, 0.7674100
773.7284, 0.9972990
774.2105, 1.270653
774.6926, 1.111397
775.1747, 0.6689220
775.6569, 0.5401230
776.1390, 1.060707
776.6211, 1.634377
777.1032, 1.202621
777.5853, 2.3848999E-02
778.0674, 0.3171390
778.5496, 0.3794710
779.0317, 1.136681
779.5138, 1.489464
779.9959, 1.620834
780.4780, 1.873192
780.9601, 2.345642
781.4423, 2.520683
781.9244, 2.123993
782.4065, 1.777199
782.8886, 1.678017
783.3707, 1.728699
783.8528, 1.838089
784.3350, 1.980980
784.8171, 2.131317
785.2992, 2.441437
785.7813, 2.644814
786.2634, 2.271698
786.7455, 1.500366
787.2277, 0.9122470
787.7098, 0.6242220
788.1919, 0.4235000
788.6740, 0.1164700
789.1561, 0.1847990
789.6382, 2.6337000E-02
790.1204, 0.8528140
790.6025, 1.557991
791.0846, 2.031677
791.5667, 2.331497
792.0488, 2.477379
792.5309, 2.472366
793.0131, 2.273254
793.4952, 1.837158
793.9773, 1.482483
794.4594, 1.305000
794.9415, 1.318428
795.4236, 1.752266
795.9058, 2.354309
796.3879, 2.435677
796.8700, 1.839722
797.3521, 1.298065
797.8342, 1.676735
798.3163, 2.717026
798.7985, 2.985039
799.2806, 2.320648
799.7627, 1.837463
800.2448, 1.909996
800.7269, 2.015137
801.2090, 1.585480
801.6912, 0.7706380
802.1733, 0.3912050
802.6554, 0.7936940
803.1375, 1.081497
803.6196, 0.8432160
804.1017, 0.6576460
804.5839, 1.018791
805.0660, 1.750969
805.5481, 2.559547
806.0302, 3.343552
806.5123, 3.645279
806.9944, 2.533409
807.4766, 0.7318420
807.9587, 5.6892000E-02
808.4408, 0.4909590
808.9229, 1.200233
809.4050, 1.954117
809.8871, 2.386017
810.3693, 1.918442
810.8514, 0.5692830
811.3335, 0.1051640
811.8156, 1.308357
812.2977, 2.088173
812.7798, 1.697075
813.2620, 1.200005
813.7441, 1.371269
814.2262, 2.010002
814.7083, 2.426003
815.1904, 2.416672
815.6725, 2.153152
816.1547, 1.314728
816.6368, 0.5592120
817.1189, 0.8240130
817.6010, 1.876030
818.0831, 2.885574
818.5652, 3.512047
819.0474, 3.741318
819.5295, 3.453072
820.0116, 2.709236
820.4937, 1.948952
820.9758, 1.051888
821.4579, 1.006027
821.9401, 2.649193
822.4222, 4.323769
822.9043, 3.918739
823.3864, 1.631363
823.8685, 0.5707090
824.3506, 1.571159
824.8328, 2.429031
825.3149, 2.909012
825.7970, 3.057228
826.2791, 2.633957
826.7612, 1.957314
827.2433, 1.760490
827.7255, 2.361786
828.2076, 3.048096
828.6897, 3.192123
829.1718, 3.041451
829.6539, 2.980904
830.1360, 3.014999
830.6182, 3.024902
831.1003, 2.964645
831.5824, 2.961304
832.0645, 3.221664
832.5466, 3.694733
833.0287, 3.643417
833.5109, 2.755119
833.9930, 2.309723
834.4751, 2.903748
834.9572, 3.612267
835.4393, 3.553688
835.9214, 2.999565
836.4036, 2.808006
836.8857, 3.297966
837.3678, 3.603439
837.8499, 3.327118
838.3320, 2.988525
838.8141, 2.876610
839.2963, 2.945908
839.7784, 3.196114
840.2605, 3.597992
840.7426, 3.883507
841.2247, 3.610817
841.7068, 3.152435
842.1890, 3.495743
842.6711, 4.417747
843.1532, 4.497475
843.6353, 3.339508
844.1174, 2.124741
844.5995, 1.964996
845.0817, 2.544075
845.5638, 2.338562
846.0459, 0.7492520
846.5280, 8.8630997E-02
847.0101, 1.300919
847.4922, 2.449661
847.9744, 2.285515
848.4565, 1.556168
848.9386, 1.462234
849.4207, 2.190514
849.9028, 2.528717
850.3849, 1.515999
850.8671, 0.7221600
851.3492, 1.390648
851.8313, 2.683128
852.3134, 3.580284
852.7955, 3.836815
853.2776, 3.498528
853.7598, 2.370995
854.2419, 1.181595
854.7240, 1.044144
855.2061, 1.759888
855.6882, 2.731812
856.1703, 3.863716
856.6525, 4.687798
857.1346, 4.948143
857.6167, 4.694458
858.0988, 3.892456
858.5809, 2.337204
859.0630, 1.637436
859.5452, 2.281425
860.0273, 2.940628
860.5094, 3.291840
860.9915, 3.352036
861.4736, 2.936699
861.9557, 2.199524
862.4379, 2.046616
862.9200, 3.283173
863.4021, 4.218475
863.8842, 4.035843
864.3663, 3.501060
864.8484, 3.269554
865.3306, 3.258690
865.8127, 2.980980
866.2948, 2.257423
866.7769, 1.787514
867.2590, 2.749779
867.7411, 4.261017
868.2233, 4.229477
868.7054, 2.913673
869.1875, 1.925476
869.6696, 1.727791
870.1517, 1.943474
870.6339, 2.102554
871.1160, 2.239960
871.5981, 2.715515
872.0802, 3.805244
872.5623, 4.310829
873.0444, 3.853508
873.5266, 3.261719
874.0087, 2.881470
874.4908, 2.730164
874.9729, 2.892075
875.4550, 3.481506
875.9371, 3.720627
876.4193, 3.388412
876.9014, 2.843948
877.3835, 1.788277
877.8656, 0.8530810
878.3477, 1.073814
878.8298, 2.182579
879.3120, 2.621750
879.7941, 1.296120
880.2762, 0.1000520
880.7583, 0.3495560
881.2404, 1.727234
881.7225, 2.378510
882.2047, 2.319008
882.6868, 2.427704
883.1689, 3.084602
883.6510, 3.814011
884.1331, 4.000130
884.6152, 3.711250
885.0974, 3.439667
885.5795, 3.182198
886.0616, 2.963112
886.5437, 2.760750
887.0258, 2.678558
887.5079, 2.878731
887.9901, 3.268913
888.4722, 3.415756
888.9543, 3.274788
889.4364, 2.899361
889.9185, 1.945839
890.4006, 1.204208
890.8828, 1.091553
891.3649, 1.299492
891.8470, 1.508415
892.3291, 1.663506
892.8112, 1.709610
893.2933, 1.540802
893.7755, 1.301620
894.2576, 1.202789
894.7397, 1.081619
895.2218, 0.4539410
895.7039, 0.4174730
896.1860, 0.4466860
896.6682, 0.9242710
897.1503, 2.488701
897.6324, 2.686699
898.1145, 1.933846
898.5966, 1.350380
899.0787, 1.011467
899.5609, 1.158035
900.0430, 1.911964
900.5251, 2.468559
901.0072, 1.952545
901.4893, 0.6804500
901.9714, 0.2761000
902.4536, 1.064987
902.9357, 1.501022
903.4178, 1.328949
903.8999, 1.021454
904.3820, 0.8121110
904.8641, 0.6279530
905.3463, 0.2806320
905.8284, 0.2854230
906.3105, 0.5405350
906.7926, 0.1418460
907.2747, 0.1857910
907.7568, 0.1665730
908.2390, 8.3701998E-02
908.7211, 0.2594600
909.2032, 0.5938420
909.6853, 0.7574080
910.1674, 0.6147230
910.6495, 0.3709790
911.1317, 1.9096000E-02
911.6138, 0.2503280
912.0959, 0.1496810
912.5780, 0.1937330
913.0601, 0.4404680
913.5422, 0.5132520
914.0244, 0.6543270
914.5065, 1.136971
914.9886, 1.708565
915.4707, 1.852097
915.9528, 1.602158
916.4349, 1.059349
916.9171, 0.2312930
917.3992, 0.3257450
917.8813, 0.3015750
918.3634, 0.1378170
918.8455, 0.7708440
919.3276, 1.614723
919.8098, 2.256233
920.2919, 2.737473
920.7740, 2.901642
921.2561, 2.507339
921.7382, 2.051765
922.2203, 2.046219
922.7025, 2.319496
923.1846, 2.180092
923.6667, 1.344833
924.1488, 0.7198790
924.6309, 0.3058470
925.1130, 0.2137450
925.5952, 0.9737550
926.0773, 1.794518
926.5594, 1.503929
927.0415, 0.1422040
927.5236, 0.8394170
928.0057, 0.7137530
928.4879, 0.2195210
928.9700, 0.5538480
929.4521, 1.152603
929.9342, 0.7603000
930.4163, 0.1516040
930.8984, 7.0366003E-02
931.3806, 1.518639
931.8627, 3.103065
932.3448, 3.060295
932.8269, 2.023148
933.3090, 1.108917
933.7911, 0.3519900
934.2733, 8.7127998E-02
934.7554, 0.1779940
935.2375, 0.1085430
935.7196, 0.8553620
936.2017, 1.685173
936.6838, 1.647102
937.1660, 0.6678390
937.6481, 0.3736880
938.1302, 0.8941350
938.6123, 1.611893
939.0944, 2.515945
939.5765, 3.115013
940.0587, 2.748489
940.5408, 1.610558
941.0229, 1.136253
941.5050, 1.697647
941.9871, 2.240761
942.4692, 3.114067
942.9514, 3.526596
943.4335, 2.853516
943.9156, 1.714561
944.3977, 0.8103030
944.8798, 0.1910550
945.3619, 0.1600270
945.8441, 0.2989040
946.3262, 9.9335000E-02
946.8083, 0.9304580
947.2904, 1.929169
947.7725, 2.123283
948.2546, 1.706993
948.7368, 1.207153
949.2189, 0.7780760
949.7010, 0.4329150
950.1831, 4.1161001E-02
950.6652, 0.2308580
951.1473, 0.6264110
951.6295, 1.927986
952.1116, 2.565063
952.5937, 2.452255
953.0758, 2.214401
953.5579, 2.197792
954.0400, 2.093620
954.5222, 1.159645
955.0043, 0.1560970
955.4864, 0.2452240
955.9685, 0.7535250
956.4506, 1.429085
956.9327, 1.359268
957.4149, 1.005348
957.8970, 0.7512510
958.3791, 0.5739590
958.8612, 0.3715740
959.3433, 0.1289830
959.8254, 0.1005630
960.3076, 0.3418880
960.7897, 0.6222150
961.2718, 0.8418500
961.7539, 1.072090
962.2360, 1.481560
962.7181, 2.039635
963.2003, 1.944511
963.6824, 0.4978180
964.1645, 0.1897050
964.6466, 0.8715590
965.1287, 1.818108
965.6108, 1.172882
966.0930, 1.9264000E-02
966.5751, 0.2232130
967.0572, 2.029442
967.5393, 2.846992
968.0214, 1.477058
968.5035, 0.3315430
968.9857, 0.1033710
969.4678, 0.2812420
969.9499, 0.7570420
970.4320, 1.290146
970.9141, 1.296860
971.3962, 0.5379940
971.8784, 0.2259520
972.3605, 1.429001
972.8426, 2.712479
973.3247, 3.137680
973.8068, 3.023811
974.2889, 2.768761
974.7711, 2.429222
975.2532, 1.807373
975.7353, 0.8291320
976.2174, 9.7824000E-02
976.6995, 0.3148500
977.1816, 0.9387820
977.6638, 1.149239
978.1459, 1.058014
978.6280, 1.023804
979.1101, 1.128235
979.5922, 1.292686
980.0743, 1.485161
980.5565, 1.599174
981.0386, 1.358604
981.5207, 0.8988570
982.0028, 0.7834320
982.4849, 0.9875260
982.9670, 0.8828130
983.4492, 0.2542720
983.9313, 3.9963000E-02
984.4134, 0.9838330
984.8955, 2.649704
985.3776, 2.458076
985.8597, 0.3917390
986.3419, 0.5879820
986.8240, 0.1269610
987.3061, 0.5346910
987.7882, 0.9233700
988.2703, 1.116531
988.7524, 1.210526
989.2346, 1.251236
989.7167, 1.625687
990.1988, 2.514267
990.6809, 3.234886
991.1630, 3.947754
991.6451, 4.021935
992.1273, 2.667519
992.6094, 0.8957820
993.0915, 0.2911450
993.5736, 0.9155500
994.0557, 1.315491
994.5378, 1.101585
995.0200, 1.236023
995.5021, 2.424072
995.9842, 3.328400
996.4663, 2.972092
996.9484, 1.970917
997.4305, 1.270393
997.9127, 0.9369580
998.3948, 0.9915160
998.8769, 1.995956
999.3590, 2.641396
999.8411, 2.047722
1000.323, 1.388100
1000.805, 1.910126
1001.287, 2.975098
1001.770, 3.024635
1002.252, 1.658318
1002.734, 0.5801850
1003.216, 0.6071850
1003.698, 0.9817890
1004.180, 1.670746
1004.662, 2.209595
1005.144, 1.763908
1005.627, 0.7390750
1006.109, 0.4392240
1006.591, 1.357735
1007.073, 2.148216
1007.555, 1.486916
1008.037, 0.6233440
1008.519, 1.093269
1009.001, 2.072334
1009.483, 1.869698
1009.966, 0.6804430
1010.448, 0.1080630
1010.930, 0.9322200
1011.412, 2.022987
1011.894, 2.272034
1012.376, 2.049232
1012.858, 1.831017
1013.340, 1.630981
1013.823, 1.387993
1014.305, 1.102287
1014.787, 0.9759370
1015.269, 1.124870
1015.751, 1.488960
1016.233, 2.215385
1016.715, 3.027931
1017.197, 2.973549
1017.679, 2.241966
1018.162, 1.737656
1018.644, 1.665695
1019.126, 1.971977
1019.608, 2.653336
1020.090, 3.431961
1020.572, 3.833855
1021.054, 3.891823
1021.536, 3.918861
1022.018, 3.884003
1022.501, 3.307159
1022.983, 1.996597
1023.465, 0.8865050
1023.947, 0.6779560
1024.429, 1.007339
1024.911, 1.041779
1025.393, 0.7651900
1025.875, 0.9226840
1026.358, 1.576118
1026.840, 2.191711
1027.322, 2.705154
1027.804, 2.787605
1028.286, 2.051338
1028.768, 0.9404450
1029.250, 0.6561660
1029.732, 1.371948
1030.214, 1.506310
1030.697, 0.7980650
1031.179, 0.4732210
1031.661, 1.111137
1032.143, 1.558640
1032.625, 0.6497120
1033.107, 0.9064180
1033.589, 0.9917760
1034.071, 0.8653110
1034.553, 2.047562
1035.036, 2.401497
1035.518, 2.395340
1036.000, 1.906380
1036.482, 1.453941
1036.964, 1.534042
1037.446, 1.925743
1037.928, 1.880104
1038.410, 0.9268490
1038.893, 1.253967
1039.375, 4.489174
1039.857, 6.391464
1040.339, 4.907722
1040.821, 2.868080
1041.303, 2.544075
1041.785, 3.291138
1042.267, 3.259232
1042.750, 2.090843
1043.232, 1.433395
1043.714, 1.459778
1044.196, 1.573776
1044.678, 1.993195
1045.160, 2.235962
1045.642, 1.629829
1046.124, 0.6378630
1046.606, 0.4067460
1047.089, 1.159607
1047.571, 2.006264
1048.053, 3.292488
1048.535, 4.068298
1049.017, 3.780792
1049.499, 3.167061
1049.981, 2.614624
1050.463, 2.238358
1050.945, 2.154602
1051.428, 2.461800
1051.910, 2.747383
1052.392, 3.209839
1052.874, 3.273773
1053.356, 2.132690
1053.838, 1.110092
1054.320, 1.688667
1054.802, 3.005127
1055.285, 3.062416
1055.767, 1.474457
1056.249, 0.4538800
1056.731, 0.8194050
1057.213, 1.447876
1057.695, 2.207863
1058.177, 2.872627
1058.659, 3.330963
1059.141, 3.546967
1059.624, 3.451157
1060.106, 3.032196
1060.588, 2.514145
1061.070, 1.750252
1061.552, 1.191765
1062.034, 0.9270400
1062.516, 1.025597
1062.998, 1.868210
1063.480, 2.964279
1063.963, 3.524254
1064.445, 3.422539
1064.927, 3.069794
1065.409, 2.296402
1065.891, 1.689339
1066.373, 1.468552
1066.855, 1.503166
1067.337, 1.934731
1067.820, 2.411156
1068.302, 2.181015
1068.784, 1.287590
1069.266, 1.126411
1069.748, 2.943932
1070.230, 4.357704
1070.712, 3.990967
1071.194, 3.161781
1071.677, 2.638321
1072.159, 2.428535
1072.641, 2.479897
1073.123, 2.748367
1073.605, 3.126343
1074.087, 3.753479
1074.569, 4.056480
1075.051, 3.629059
1075.533, 2.928207
1076.016, 2.032135
1076.498, 1.221313
1076.980, 0.8732450
1077.462, 0.9420390
1077.944, 1.034584
1078.426, 0.9408800
1078.908, 1.146538
1079.390, 2.560043
1079.873, 3.586205
1080.355, 2.549553
1080.837, 0.9811630
1081.319, 0.7730180
1081.801, 1.712257
1082.283, 2.513573
1082.765, 2.812927
1083.247, 2.904640
1083.729, 2.669701
1084.212, 2.567024
1084.694, 3.273109
1085.176, 3.913452
1085.658, 3.324646
1086.140, 1.975296
1086.622, 1.129898
1087.104, 1.097542
1087.586, 1.310966
1088.068, 1.814377
1088.551, 2.134163
1089.033, 1.770538
1089.515, 1.449043
1089.997, 2.041710
1090.479, 3.065506
1090.961, 3.497330
1091.443, 3.219055
1091.925, 2.839279
1092.408, 2.453575
1092.890, 2.031464
1093.372, 1.428848
1093.854, 0.9101260
1094.336, 0.6142430
1094.818, 0.5641860
1095.300, 0.8314900
1095.782, 1.380615
1096.265, 1.956200
1096.747, 2.691826
1097.229, 3.044411
1097.711, 2.471825
1098.193, 1.874107
1098.675, 2.070122
1099.157, 2.326096
1099.639, 1.393066
1100.121, 0.3528370
1100.604, 0.9349210
1101.086, 0.5743710
1101.568, 1.642410
1102.050, 1.094337
1102.532, 0.6160740
1103.014, 1.065681
1103.496, 1.802193
1103.978, 2.396133
1104.460, 2.751907
1104.943, 2.693649
1105.425, 2.100426
1105.907, 1.663925
1106.389, 1.787697
1106.871, 1.696785
1107.353, 0.4936370
1107.835, 0.3207020
1108.317, 0.8082580
1108.800, 2.800957
1109.282, 3.712494
1109.764, 3.370766
1110.246, 3.114578
1110.728, 3.426132
1111.210, 3.296524
1111.692, 2.273560
1112.174, 1.148628
1112.656, 3.5629001E-02
1113.139, 0.8025820
1113.621, 0.9838640
1114.103, 0.5521010
1114.585, 4.5469999E-03
1115.067, 0.8954700
1115.549, 1.467110
1116.031, 1.346100
1116.513, 1.424126
1116.995, 2.319092
1117.478, 3.157379
1117.960, 3.125046
1118.442, 2.440765
1118.924, 1.769989
1119.406, 1.045082
1119.888, 0.6138990
1120.370, 0.6443860
1120.852, 0.6240920
1121.335, 0.4699250
1121.817, 0.1778720
1122.299, 0.3961940
1122.781, 0.9465030
1123.263, 0.8456570
1123.745, 7.4317999E-02
1124.227, 0.3284450
1124.709, 0.2669140
1125.192, 0.1358030
1125.674, 0.1194310
1126.156, 8.4572002E-02
1126.638, 0.5630950
1127.120, 1.231415
1127.602, 1.114334
1128.084, 0.4763950
1128.566, 0.7932660
1129.048, 2.276451
1129.531, 2.620476
1130.013, 1.510139
1130.495, 0.9278340
1130.977, 1.569656
1131.459, 2.415726
1131.941, 2.666016
1132.423, 2.467842
1132.905, 2.008904
1133.387, 1.332314
1133.870, 1.175041
1134.352, 1.516006
1134.834, 1.726509
1135.316, 1.689644
1135.798, 1.870422
1136.280, 2.546936
1136.762, 3.154587
1137.244, 2.883842
1137.727, 2.104797
1138.209, 1.634491
1138.691, 1.474678
1139.173, 1.499153
1139.655, 1.668411
1140.137, 1.862007
1140.619, 2.038940
1141.101, 2.262711
1141.583, 2.632805
1142.066, 2.922745
1142.548, 2.643021
1143.030, 2.102531
1143.512, 2.100662
1143.994, 2.354240
1144.476, 1.683258
1144.958, 0.2197950
1145.440, 0.2859800
1145.922, 1.098648
1146.405, 2.932602
1146.887, 4.388687
1147.369, 5.083298
1147.851, 4.057533
1148.333, 2.316902
1148.815, 1.267616
1149.297, 0.8847730
1149.779, 0.5456620
1150.262, 0.1150510
1150.744, 0.1968310
1151.226, 1.649101
1151.708, 2.854546
1152.190, 2.259872
1152.672, 1.485512
1153.154, 2.075783
1153.636, 3.291306
1154.119, 4.104050
1154.601, 4.360863
1155.083, 4.140213
1155.565, 3.275467
1156.047, 2.611679
1156.529, 2.509392
1157.011, 2.556458
1157.493, 2.660751
1157.975, 2.731873
1158.458, 2.848114
1158.940, 2.941170
1159.422, 2.393166
1159.904, 1.051003
1160.386, 0.7217710
1160.868, 2.770081
1161.350, 3.973923
1161.832, 3.356018
1162.314, 2.673149
1162.797, 2.771721
1163.279, 3.011238
1163.761, 2.606895
1164.243, 1.761887
1164.725, 1.461609
1165.207, 1.899452
1165.689, 2.183731
1166.171, 2.370445
1166.654, 2.389305
1167.136, 2.150406
1167.618, 1.984932
1168.100, 2.133774
1168.582, 2.435448
1169.064, 2.630249
1169.546, 2.719368
1170.028, 2.694496
1170.510, 2.546806
1170.993, 2.344658
1171.475, 2.193039
1171.957, 1.977699
1172.439, 1.689415
1172.921, 1.478828
1173.403, 1.482445
1173.885, 1.657524
1174.367, 2.121864
1174.849, 2.646469
1175.332, 2.190712
1175.814, 1.038589
1176.296, 0.8197860
1176.778, 1.686943
1177.260, 2.562836
1177.742, 2.931564
1178.224, 2.932045
1178.706, 2.722900
1179.189, 2.475174
1179.671, 2.400299
1180.153, 2.409592
1180.635, 2.415787
1181.117, 2.461769
1181.599, 2.721336
1182.081, 3.091103
1182.563, 3.101212
1183.046, 2.443893
1183.528, 1.691223
1184.010, 0.9259110
1184.492, 0.5231020
1184.974, 0.9383320
1185.456, 1.652649
1185.938, 2.334213
1186.420, 2.804680
1186.902, 2.637810
1187.385, 1.712738
1187.867, 1.280457
1188.349, 1.898811
1188.831, 2.551704
1189.313, 3.284393
1189.795, 3.733467
1190.277, 3.563637
1190.759, 3.148399
1191.241, 2.725952
1191.724, 2.384903
1192.206, 2.539726
1192.688, 3.451065
1193.170, 3.747894
1193.652, 3.377037
1194.134, 2.391457
1194.616, 0.4058910
1195.098, 0.7745900
1195.581, 5.5107001E-02
1196.063, 1.621277
1196.545, 2.205276
1197.027, 1.997452
1197.509, 1.741936
1197.991, 1.454926
1198.473, 1.428215
1198.955, 1.662521
1199.438, 1.969635
1199.920, 2.278366
1200.402, 2.413033
1200.884, 2.255608
1201.366, 1.860779
1201.848, 0.9712220
1202.330, 0.1135560
1202.812, 0.6102520
1203.294, 1.732414
1203.776, 2.021713
1204.259, 1.578781
1204.741, 1.300201
1205.223, 1.426102
1205.705, 1.563965
1206.187, 1.437523
1206.669, 1.405243
1207.151, 1.914192
1207.633, 2.397499
1208.116, 2.334152
1208.598, 2.053818
1209.080, 1.944916
1209.562, 1.970695
1210.044, 1.931648
1210.526, 1.786865
1211.008, 1.658470
1211.490, 1.551926
1211.973, 1.494781
1212.455, 1.605965
1212.937, 1.583710
1213.419, 1.028908
1213.901, 0.5587390
1214.383, 0.8947220
1214.865, 1.773575
1215.347, 2.320976
1215.829, 2.525955
1216.312, 2.419228
1216.794, 1.917053
1217.276, 1.643791
1217.758, 1.712547
1218.240, 1.802467
1218.722, 1.754860
1219.204, 1.640015
1219.686, 1.410988
1220.168, 1.230026
1220.651, 1.611649
1221.133, 2.327423
1221.615, 2.274475
1222.097, 1.663979
1222.579, 1.596390
1223.061, 2.184937
1223.543, 2.728249
1224.025, 2.890259
1224.508, 2.974792
1224.990, 3.450569
1225.472, 3.719475
1225.954, 2.668457
1226.436, 1.518242
1226.918, 2.241814
1227.400, 3.583076
1227.882, 2.966309
1228.365, 0.6130910
1228.847, 0.7677690
1229.329, 0.2314300
1229.811, 0.4300460
1230.293, 0.7472310
1230.775, 1.076744
1231.257, 2.012405
1231.739, 2.476517
1232.221, 0.9958190
1232.703, 0.7685620
1233.186, 0.3044590
1233.668, 1.881218
1234.150, 2.204933
1234.632, 0.2202680
1235.114, 0.8166890
1235.596, 0.9629970
1236.078, 1.974716
1236.560, 1.343781
1237.043, 1.065994
1237.525, 2.418930
1238.007, 3.775818
1238.489, 2.751114
1238.971, 0.5446930
1239.453, 0.7239690
1239.935, 2.477081
1240.417, 3.171906
1240.900, 2.774796
1241.382, 2.021439
1241.864, 1.146423
1242.346, 0.8614500
1242.828, 1.539993
1243.310, 2.118164
1243.792, 1.341995
1244.274, 0.6021730
1244.756, 1.185760
1245.239, 2.192520
1245.721, 3.098587
1246.203, 3.616867
1246.685, 3.157761
1247.167, 1.949982
1247.649, 1.361282
1248.131, 1.919617
1248.613, 2.105392
1249.095, 1.085251
1249.578, 0.7035370
1250.060, 1.708572
1250.542, 2.723526
1251.024, 3.090408
1251.506, 3.075500
1251.988, 2.993927
1252.470, 2.798233
1252.952, 2.155502
1253.435, 1.034744
1253.917, 0.8229520
1254.399, 1.506561
1254.881, 2.204559
1255.363, 2.725632
1255.845, 2.842545
1256.327, 2.460815
1256.809, 2.036118
1257.292, 2.031479
1257.774, 1.986404
1258.256, 1.754959
1258.738, 1.374817
1259.220, 0.8339690
1259.702, 0.3045200
1260.184, 0.9253080
1260.666, 2.051468
1261.148, 2.992828
1261.630, 3.289108
1262.113, 3.179520
1262.595, 2.360428
1263.077, 1.735184
1263.559, 1.700714
1264.041, 1.739471
1264.523, 1.578476
1265.005, 1.399643
1265.487, 1.323975
1265.970, 1.377701
1266.452, 1.628342
1266.934, 2.080460
1267.416, 2.572327
1267.898, 3.219604
1268.380, 2.733246
1268.862, 0.8862460
1269.344, 3.2683998E-02
1269.827, 0.7255550
1270.309, 1.628815
1270.791, 1.548386
1271.273, 1.212463
1271.755, 1.816696
1272.237, 2.756638
1272.719, 3.053726
1273.201, 2.760681
1273.683, 1.464890
1274.166, 0.1484220
1274.648, 0.2564390
1275.130, 1.111160
1275.612, 1.715302
1276.094, 0.4001010
1276.576, 0.2903590
1277.058, 1.326569
1277.540, 2.821747
1278.022, 3.368759
1278.505, 3.358978
1278.987, 2.447876
1279.469, 1.404541
1279.951, 1.099838
1280.433, 1.000031
1280.915, 1.437805
1281.397, 1.775711
1281.879, 1.934464
1282.362, 1.534775
1282.844, 1.307632
1283.326, 1.395569
1283.808, 1.521088
1284.290, 1.535049
1284.772, 1.334885
1285.254, 0.8043670
1285.736, 0.0000000E+00
##END=



