##NAMES=Berzeliite
##RRUFFID=R061084
##IDEAL CHEMISTRY=NaCa_2_Mg_2_(As^5+^O_4_)_3_
##LOCALITY=Jakobsberg mine, Nordmark, Filipstad, Varmland, Sweden
##OWNER=RRUFF
##SOURCE=Michael Scott
##DESCRIPTION=Light yellow irregular shaped crystal, associated with colorless tilasite and adelite, R060687
##STATUS=The identification of this mineral is confirmed by single-crystal X-ray diffraction and chemical analysis.
##URL=rruff.info/R061084
##MEASURED CHEMISTRY=(Na_0.92_Ca_0.08_)Ca_2.03_(Mg_1.91_Mn_0.11_)[(As_0.96_Si_0.03_P_0.01_)O_4_]_3_
157.2041, 0.0000000E+00
157.6862, 16.90625
158.1683, 27.10107
158.6504, 4.780762
159.1325, 7.090088
159.6146, 4.613281
160.0968, 9.977051
160.5789, 31.90283
161.0610, 67.91089
161.5431, 128.7039
162.0252, 212.4331
162.5073, 298.7542
162.9895, 374.7915
163.4716, 440.0361
163.9537, 499.9592
164.4358, 549.6428
164.9179, 597.9360
165.4000, 653.2356
165.8822, 715.5371
166.3643, 777.0322
166.8464, 832.2388
167.3285, 881.4673
167.8106, 929.1345
168.2927, 986.6758
168.7749, 1035.866
169.2570, 1057.564
169.7391, 1050.174
170.2212, 1029.167
170.7033, 1001.883
171.1854, 970.1404
171.6676, 938.9951
172.1497, 918.9971
172.6318, 894.3372
173.1139, 838.7188
173.5960, 745.9810
174.0781, 661.0181
174.5603, 623.8330
175.0424, 621.7578
175.5245, 621.7617
176.0066, 622.4187
176.4887, 619.3633
176.9708, 606.5974
177.4530, 583.1672
177.9351, 553.4045
178.4172, 504.5269
178.8993, 450.1116
179.3814, 428.2808
179.8635, 479.3918
180.3457, 555.8706
180.8278, 588.5540
181.3099, 567.7600
181.7920, 538.0486
182.2741, 526.4246
182.7562, 530.1279
183.2384, 547.3442
183.7205, 600.4451
184.2026, 654.6265
184.6847, 692.8669
185.1668, 722.0996
185.6489, 732.5073
186.1311, 753.0095
186.6132, 779.0613
187.0953, 798.9858
187.5774, 808.0786
188.0595, 811.8213
188.5416, 813.8438
189.0238, 811.8135
189.5059, 815.9785
189.9880, 855.4077
190.4701, 904.6260
190.9522, 913.7749
191.4343, 833.3618
191.9165, 719.9690
192.3986, 662.8457
192.8807, 671.9216
193.3628, 700.6113
193.8449, 736.4106
194.3270, 770.6560
194.8092, 786.0933
195.2913, 765.7295
195.7734, 729.6157
196.2555, 710.1631
196.7376, 710.9790
197.2197, 714.1523
197.7019, 713.0381
198.1840, 706.7583
198.6661, 691.8896
199.1482, 660.5447
199.6303, 624.6416
200.1124, 607.4456
200.5946, 615.8494
201.0767, 612.6135
201.5588, 554.0540
202.0409, 474.2603
202.5230, 419.8506
203.0051, 417.8394
203.4873, 435.0383
203.9694, 425.6052
204.4515, 384.9739
204.9336, 341.1118
205.4157, 310.1084
205.8978, 284.4224
206.3800, 254.0442
206.8621, 212.5515
207.3442, 169.6401
207.8263, 142.7109
208.3084, 136.1348
208.7905, 118.6665
209.2727, 52.61304
209.7548, 25.93823
210.2369, 50.26709
210.7190, 3.376465
211.2011, 63.99780
211.6832, 60.12964
212.1654, 0.5700680
212.6475, 41.45581
213.1296, 13.54443
213.6117, 53.81934
214.0938, 101.7715
214.5760, 111.7510
215.0581, 101.7358
215.5402, 106.3689
216.0223, 126.4780
216.5044, 150.4795
216.9865, 175.4297
217.4687, 198.3987
217.9508, 214.7449
218.4329, 222.2798
218.9150, 229.7776
219.3971, 246.4482
219.8792, 271.5222
220.3614, 291.9763
220.8435, 301.5071
221.3256, 307.7737
221.8077, 317.0715
222.2898, 329.7698
222.7719, 344.9331
223.2541, 357.7698
223.7362, 370.5190
224.2183, 399.2283
224.7004, 459.2073
225.1825, 525.8486
225.6646, 561.8799
226.1468, 561.2573
226.6289, 566.0503
227.1110, 601.3186
227.5931, 661.3137
228.0752, 728.8184
228.5573, 804.9465
229.0395, 878.0742
229.5216, 925.8577
230.0037, 945.1465
230.4858, 982.2844
230.9679, 1075.451
231.4500, 1200.304
231.9322, 1297.017
232.4143, 1345.774
232.8964, 1381.450
233.3785, 1447.961
233.8606, 1543.125
234.3427, 1635.914
234.8249, 1713.786
235.3070, 1784.370
235.7891, 1861.174
236.2712, 1948.720
236.7533, 2034.324
237.2354, 2099.177
237.7176, 2145.706
238.1997, 2201.203
238.6818, 2291.369
239.1639, 2383.960
239.6460, 2435.200
240.1281, 2438.972
240.6103, 2434.972
241.0924, 2462.962
241.5745, 2519.965
242.0566, 2551.318
242.5387, 2549.250
243.0208, 2522.430
243.5030, 2470.824
243.9851, 2396.625
244.4672, 2317.512
244.9493, 2244.133
245.4314, 2177.763
245.9135, 2120.736
246.3957, 2082.725
246.8778, 2045.325
247.3599, 2002.417
247.8420, 1952.077
248.3241, 1886.796
248.8062, 1797.220
249.2884, 1689.669
249.7705, 1602.884
250.2526, 1550.170
250.7347, 1500.402
251.2168, 1449.087
251.6989, 1391.947
252.1811, 1317.132
252.6632, 1216.032
253.1453, 1098.488
253.6274, 998.4443
254.1095, 928.0774
254.5916, 858.0210
255.0738, 779.3750
255.5559, 699.0107
256.0380, 627.9053
256.5201, 570.6045
257.0022, 521.2805
257.4843, 467.1104
257.9665, 401.3079
258.4486, 341.0696
258.9307, 286.9644
259.4128, 238.6362
259.8949, 196.5266
260.3770, 160.5200
260.8592, 129.2339
261.3413, 102.1003
261.8234, 90.38281
262.3055, 55.14771
262.7876, 34.55835
263.2697, 122.9612
263.7519, 170.1553
264.2340, 173.1560
264.7161, 154.2715
265.1982, 134.6248
265.6803, 109.4543
266.1624, 106.3704
266.6446, 151.1301
267.1267, 191.7478
267.6088, 198.8838
268.0909, 181.1680
268.5730, 164.5728
269.0551, 177.1748
269.5373, 219.4441
270.0194, 247.0630
270.5015, 248.8918
270.9836, 243.4290
271.4657, 227.2332
271.9478, 208.4749
272.4300, 199.7195
272.9121, 210.4602
273.3942, 232.3977
273.8763, 230.9636
274.3584, 188.7207
274.8405, 148.4839
275.3227, 117.9854
275.8048, 95.38721
276.2869, 81.98779
276.7690, 80.12402
277.2511, 76.99219
277.7332, 45.13477
278.2154, 27.35156
278.6975, 93.70117
279.1796, 138.4751
279.6617, 176.8394
280.1438, 216.4810
280.6259, 259.4155
281.1081, 311.3481
281.5902, 389.0967
282.0723, 496.8394
282.5544, 574.0356
283.0365, 576.6353
283.5186, 575.2197
284.0008, 620.8799
284.4829, 712.5903
284.9650, 812.4414
285.4471, 894.6655
285.9292, 962.8228
286.4113, 1035.006
286.8935, 1115.550
287.3756, 1196.057
287.8577, 1263.544
288.3398, 1324.062
288.8219, 1400.075
289.3040, 1510.035
289.7862, 1637.133
290.2683, 1755.592
290.7504, 1862.395
291.2325, 1970.326
291.7146, 2092.479
292.1967, 2221.870
292.6789, 2341.105
293.1610, 2444.256
293.6431, 2538.234
294.1252, 2628.298
294.6073, 2714.114
295.0894, 2790.201
295.5716, 2845.479
296.0537, 2895.269
296.5358, 2980.987
297.0179, 3118.975
297.5000, 3262.163
297.9821, 3392.997
298.4643, 3514.543
298.9464, 3632.291
299.4285, 3746.666
299.9106, 3861.064
300.3927, 3984.402
300.8748, 4121.090
301.3570, 4253.619
301.8391, 4371.540
302.3212, 4488.890
302.8033, 4626.789
303.2854, 4787.288
303.7675, 4941.647
304.2497, 5053.278
304.7318, 5101.184
305.2139, 5207.567
305.6960, 5407.213
306.1781, 5625.721
306.6602, 5823.966
307.1424, 6005.359
307.6245, 6196.400
308.1066, 6418.142
308.5887, 6668.265
309.0708, 6908.977
309.5529, 7127.951
310.0351, 7349.688
310.5172, 7569.368
310.9993, 7796.212
311.4814, 8037.992
311.9635, 8296.815
312.4456, 8579.796
312.9278, 8912.870
313.4099, 9327.546
313.8920, 9727.898
314.3741, 10070.17
314.8562, 10413.26
315.3383, 10805.59
315.8205, 11257.21
316.3026, 11738.22
316.7847, 12227.47
317.2668, 12728.89
317.7489, 13198.30
318.2310, 13598.25
318.7132, 13997.81
319.1953, 14424.61
319.6774, 14881.94
320.1595, 15382.93
320.6416, 15957.36
321.1237, 16579.94
321.6059, 17156.33
322.0880, 17684.67
322.5701, 18188.15
323.0522, 18670.71
323.5343, 19142.31
324.0164, 19621.58
324.4986, 20127.63
324.9807, 20628.58
325.4628, 21097.66
325.9449, 21535.77
326.4270, 21929.65
326.9091, 22267.73
327.3913, 22551.90
327.8734, 22801.03
328.3555, 23019.21
328.8376, 23202.06
329.3197, 23355.21
329.8018, 23471.06
330.2840, 23536.18
330.7661, 23544.89
331.2482, 23500.87
331.7303, 23406.29
332.2124, 23253.60
332.6945, 23086.28
333.1767, 22939.10
333.6588, 22755.58
334.1409, 22469.34
334.6230, 22086.16
335.1051, 21680.68
335.5873, 21314.31
336.0694, 20991.56
336.5515, 20654.09
337.0336, 20282.45
337.5157, 19920.20
337.9979, 19584.02
338.4800, 19264.26
338.9621, 18938.22
339.4442, 18592.95
339.9263, 18239.46
340.4084, 17913.14
340.8906, 17610.99
341.3727, 17340.36
341.8548, 17114.12
342.3369, 16907.06
342.8190, 16696.55
343.3011, 16477.93
343.7833, 16267.52
344.2654, 16083.57
344.7475, 15927.29
345.2296, 15784.54
345.7117, 15674.38
346.1938, 15556.09
346.6760, 15403.89
347.1581, 15224.98
347.6402, 15046.65
348.1223, 14880.76
348.6044, 14726.91
349.0865, 14582.49
349.5687, 14445.53
350.0508, 14323.41
350.5329, 14233.50
351.0150, 14157.77
351.4971, 14068.57
351.9792, 13959.45
352.4614, 13849.00
352.9435, 13757.45
353.4256, 13678.36
353.9077, 13580.58
354.3898, 13450.51
354.8719, 13303.68
355.3541, 13166.92
355.8362, 13045.23
356.3183, 12910.66
356.8004, 12749.94
357.2825, 12576.81
357.7646, 12411.15
358.2468, 12253.79
358.7289, 12087.37
359.2110, 11891.40
359.6931, 11663.31
360.1752, 11450.03
360.6573, 11276.80
361.1395, 11089.19
361.6216, 10856.69
362.1037, 10593.71
362.5858, 10328.88
363.0679, 10076.78
363.5500, 9832.532
364.0322, 9584.232
364.5143, 9319.564
364.9964, 9069.537
365.4785, 8844.457
365.9606, 8627.361
366.4427, 8405.016
366.9249, 8174.886
367.4070, 7942.674
367.8891, 7714.542
368.3712, 7489.426
368.8533, 7271.362
369.3354, 7064.241
369.8176, 6858.546
370.2997, 6645.425
370.7818, 6429.818
371.2639, 6225.917
371.7460, 6040.920
372.2281, 5871.541
372.7103, 5716.386
373.1924, 5579.167
373.6745, 5429.494
374.1566, 5246.847
374.6387, 5046.700
375.1208, 4852.780
375.6030, 4661.715
376.0851, 4488.522
376.5672, 4349.406
377.0493, 4231.979
377.5314, 4111.601
378.0135, 3982.487
378.4957, 3848.200
378.9778, 3712.433
379.4599, 3575.519
379.9420, 3436.767
380.4241, 3292.741
380.9063, 3149.499
381.3884, 3011.730
381.8705, 2879.031
382.3526, 2745.998
382.8347, 2608.447
383.3168, 2470.206
383.7990, 2354.228
384.2811, 2262.770
384.7632, 2193.427
385.2453, 2174.229
385.7274, 2162.024
386.2095, 2106.776
386.6917, 1998.200
387.1738, 1878.589
387.6559, 1807.972
388.1380, 1795.863
388.6201, 1767.701
389.1022, 1707.855
389.5844, 1644.031
390.0665, 1583.478
390.5486, 1528.826
391.0307, 1486.836
391.5128, 1465.531
391.9949, 1455.812
392.4771, 1440.868
392.9592, 1420.360
393.4413, 1397.130
393.9234, 1371.690
394.4055, 1344.333
394.8876, 1315.906
395.3698, 1286.719
395.8519, 1255.756
396.3340, 1214.729
396.8161, 1173.214
397.2982, 1153.242
397.7803, 1160.900
398.2625, 1176.298
398.7446, 1179.039
399.2267, 1167.084
399.7088, 1150.366
400.1909, 1131.406
400.6730, 1105.524
401.1552, 1071.613
401.6373, 1028.739
402.1194, 973.4609
402.6015, 903.5601
403.0836, 822.9473
403.5657, 744.3828
404.0479, 662.4683
404.5300, 591.3506
405.0121, 542.0996
405.4942, 495.7529
405.9763, 435.3525
406.4584, 359.6958
406.9406, 283.9980
407.4227, 228.7754
407.9048, 192.3892
408.3869, 132.6382
408.8690, 34.10547
409.3511, 62.37402
409.8333, 138.0825
410.3154, 197.3643
410.7975, 246.0693
411.2796, 282.8901
411.7617, 314.5718
412.2438, 350.6377
412.7260, 389.3833
413.2081, 417.7388
413.6902, 430.5059
414.1723, 432.3999
414.6544, 429.0317
415.1365, 420.5698
415.6187, 409.4424
416.1008, 396.6611
416.5829, 381.1230
417.0650, 364.6030
417.5471, 345.5312
418.0292, 315.8940
418.5114, 268.6611
418.9935, 205.6807
419.4756, 144.2412
419.9577, 91.29248
420.4398, 30.77002
420.9219, 47.10449
421.4041, 130.1299
421.8862, 201.3296
422.3683, 257.5464
422.8504, 315.6328
423.3325, 400.4219
423.8146, 515.2871
424.2968, 626.4277
424.7789, 729.4346
425.2610, 832.3945
425.7431, 935.2700
426.2252, 1041.273
426.7073, 1157.054
427.1895, 1286.524
427.6716, 1426.116
428.1537, 1571.185
428.6358, 1722.117
429.1179, 1870.719
429.6000, 2008.158
430.0822, 2147.907
430.5643, 2317.605
431.0464, 2524.968
431.5285, 2722.943
432.0106, 2890.322
432.4927, 3047.445
432.9749, 3213.503
433.4570, 3390.242
433.9391, 3572.895
434.4212, 3756.872
434.9033, 3942.544
435.3854, 4141.175
435.8676, 4358.742
436.3497, 4580.566
436.8318, 4817.259
437.3139, 5050.401
437.7960, 5253.445
438.2781, 5420.118
438.7603, 5588.454
439.2424, 5818.263
439.7245, 6119.153
440.2066, 6378.204
440.6887, 6563.577
441.1708, 6739.628
441.6530, 6944.550
442.1351, 7165.951
442.6172, 7372.171
443.0993, 7543.608
443.5814, 7704.821
444.0635, 7889.353
444.5457, 8094.130
445.0278, 8289.771
445.5099, 8465.080
445.9920, 8626.029
446.4741, 8782.283
446.9562, 8939.455
447.4384, 9069.727
447.9205, 9165.715
448.4026, 9235.911
448.8847, 9273.606
449.3668, 9287.851
449.8489, 9310.017
450.3311, 9362.913
450.8132, 9439.770
451.2953, 9507.676
451.7774, 9589.200
452.2595, 9627.201
452.7416, 9592.477
453.2238, 9530.522
453.7059, 9481.420
454.1880, 9450.865
454.6701, 9412.817
455.1522, 9340.251
455.6343, 9235.977
456.1165, 9123.672
456.5986, 8993.727
457.0807, 8874.635
457.5628, 8807.436
458.0449, 8754.735
458.5270, 8652.479
459.0092, 8464.146
459.4913, 8271.568
459.9734, 8132.553
460.4555, 8031.634
460.9376, 7934.798
461.4197, 7835.766
461.9019, 7723.727
462.3840, 7584.101
462.8661, 7410.617
463.3482, 7252.766
463.8303, 7118.147
464.3124, 6991.049
464.7946, 6872.134
465.2767, 6755.119
465.7588, 6625.884
466.2409, 6476.952
466.7230, 6326.737
467.2051, 6214.540
467.6873, 6161.707
468.1694, 6070.431
468.6515, 5902.973
469.1336, 5721.115
469.6157, 5553.231
470.0978, 5397.830
470.5800, 5240.407
471.0621, 5071.886
471.5442, 4900.612
472.0263, 4740.461
472.5084, 4591.158
472.9905, 4433.402
473.4727, 4256.109
473.9548, 4071.124
474.4369, 3903.345
474.9190, 3755.737
475.4011, 3607.078
475.8832, 3439.966
476.3654, 3281.584
476.8475, 3156.212
477.3296, 3062.329
477.8117, 2988.268
478.2938, 2928.208
478.7759, 2870.657
479.2581, 2785.248
479.7402, 2650.830
480.2223, 2531.753
480.7044, 2433.792
481.1865, 2354.058
481.6686, 2294.307
482.1508, 2252.729
482.6329, 2222.026
483.1150, 2197.974
483.5971, 2175.283
484.0792, 2142.016
484.5613, 2095.115
485.0435, 2055.757
485.5256, 2037.785
486.0077, 2036.071
486.4898, 2035.655
486.9719, 2037.460
487.4540, 2030.955
487.9362, 2004.396
488.4183, 1973.953
488.9004, 1958.299
489.3825, 1959.600
489.8646, 1972.985
490.3467, 1998.086
490.8289, 2034.200
491.3110, 2048.906
491.7931, 2017.312
492.2752, 1987.699
492.7573, 1966.368
493.2394, 1953.029
493.7216, 1944.713
494.2037, 1940.945
494.6858, 1947.423
495.1679, 1979.705
495.6500, 2028.921
496.1321, 2043.883
496.6143, 2012.180
497.0964, 1977.342
497.5785, 1961.287
498.0606, 1961.545
498.5427, 1974.449
499.0248, 2006.690
499.5070, 2039.063
499.9891, 2064.434
500.4712, 2083.252
500.9533, 2098.743
501.4355, 2110.855
501.9176, 2109.004
502.3997, 2079.207
502.8818, 2020.733
503.3639, 1984.471
503.8460, 1996.034
504.3282, 2000.784
504.8103, 1998.258
505.2924, 1978.967
505.7745, 1922.943
506.2566, 1827.175
506.7387, 1732.748
507.2209, 1693.235
507.7030, 1699.286
508.1851, 1671.614
508.6672, 1593.157
509.1493, 1514.183
509.6314, 1476.922
510.1136, 1459.836
510.5957, 1412.237
511.0778, 1312.570
511.5599, 1209.993
512.0420, 1120.673
512.5241, 1045.091
513.0062, 988.5552
513.4883, 950.6079
513.9705, 915.6123
514.4526, 867.9326
514.9347, 807.5273
515.4168, 757.8735
515.8989, 729.7681
516.3810, 700.0488
516.8632, 653.4526
517.3453, 609.3887
517.8274, 595.1187
518.3095, 615.1138
518.7916, 633.2324
519.2737, 606.2617
519.7559, 547.2524
520.2380, 513.6870
520.7201, 513.2080
521.2022, 520.4517
521.6843, 529.2964
522.1664, 532.1313
522.6486, 508.3208
523.1307, 433.9009
523.6128, 375.2651
524.0949, 372.1362
524.5770, 386.0703
525.0591, 366.5723
525.5413, 311.7524
526.0234, 262.6982
526.5055, 256.3135
526.9876, 286.1372
527.4697, 295.8804
527.9518, 271.3511
528.4340, 250.6367
528.9161, 248.2783
529.3982, 247.5347
529.8803, 233.5708
530.3624, 204.8330
530.8445, 171.4937
531.3267, 131.9761
531.8088, 94.72510
532.2909, 80.76465
532.7730, 90.96289
533.2551, 102.4424
533.7372, 109.5200
534.2194, 104.5757
534.7015, 61.80176
535.1836, 61.09912
535.6657, 127.6118
536.1478, 84.23193
536.6299, 11.60010
537.1121, 40.66309
537.5942, 67.12109
538.0763, 76.89697
538.5584, 75.66162
539.0405, 61.97998
539.5226, 25.18359
540.0048, 47.60498
540.4869, 93.45020
540.9690, 84.64355
541.4511, 59.45020
541.9332, 41.79004
542.4153, 32.59619
542.8975, 33.71973
543.3796, 58.97607
543.8617, 84.03467
544.3438, 79.79199
544.8259, 55.52539
545.3080, 44.66504
545.7902, 60.19873
546.2723, 87.71143
546.7544, 105.8228
547.2365, 111.7529
547.7186, 119.2598
548.2007, 142.1528
548.6829, 151.7583
549.1650, 125.5693
549.6471, 82.69580
550.1292, 53.51953
550.6113, 49.72412
551.0934, 55.87549
551.5756, 60.45898
552.0577, 61.26074
552.5398, 39.24268
553.0219, 14.66357
553.5040, 69.56738
553.9861, 103.3198
554.4683, 118.8848
554.9504, 135.3101
555.4325, 158.5488
555.9146, 175.0894
556.3967, 166.7676
556.8788, 157.1655
557.3610, 179.6274
557.8431, 234.6143
558.3252, 289.7861
558.8073, 315.6646
559.2894, 317.7334
559.7715, 332.9497
560.2537, 371.4121
560.7358, 399.9033
561.2179, 399.2358
561.7000, 392.4800
562.1821, 395.3652
562.6642, 409.3760
563.1464, 433.9995
563.6285, 473.1616
564.1106, 518.9058
564.5927, 567.8623
565.0748, 616.2695
565.5569, 648.3506
566.0391, 655.8252
566.5212, 649.2822
567.0033, 647.2021
567.4854, 647.0088
567.9675, 658.5439
568.4496, 692.5981
568.9318, 724.8501
569.4139, 734.2466
569.8960, 737.1328
570.3781, 766.5583
570.8602, 839.0039
571.3423, 921.0825
571.8245, 969.7314
572.3066, 991.2151
572.7887, 1026.665
573.2708, 1087.753
573.7529, 1140.433
574.2350, 1153.841
574.7172, 1134.874
575.1993, 1131.577
575.6814, 1160.876
576.1635, 1183.140
576.6456, 1176.167
577.1277, 1165.945
577.6099, 1184.837
578.0920, 1231.573
578.5741, 1273.455
579.0562, 1280.671
579.5383, 1264.421
580.0204, 1271.248
580.5026, 1309.023
580.9847, 1340.229
581.4668, 1353.776
581.9489, 1356.604
582.4310, 1356.585
582.9132, 1353.549
583.3953, 1345.068
583.8774, 1324.805
584.3596, 1303.778
584.8417, 1292.537
585.3238, 1286.870
585.8059, 1274.993
586.2880, 1252.757
586.7701, 1228.162
587.2523, 1212.302
587.7344, 1205.541
588.2165, 1205.875
588.6986, 1226.156
589.1807, 1236.164
589.6628, 1223.640
590.1450, 1196.906
590.6271, 1163.099
591.1092, 1122.191
591.5913, 1087.714
592.0734, 1076.905
592.5555, 1074.874
593.0377, 1052.069
593.5198, 1006.840
594.0019, 961.5234
594.4840, 926.0273
594.9661, 897.5720
595.4482, 878.5781
595.9304, 881.2996
596.4125, 871.3438
596.8946, 839.9006
597.3767, 805.4312
597.8588, 775.0767
598.3409, 746.7561
598.8231, 717.3071
599.3052, 684.3296
599.7873, 651.3262
600.2694, 623.5520
600.7515, 598.9409
601.2336, 566.1743
601.7158, 521.8809
602.1979, 483.0032
602.6800, 465.8572
603.1621, 466.8831
603.6442, 456.0476
604.1263, 429.3643
604.6085, 396.1318
605.0906, 355.1274
605.5727, 311.2136
606.0548, 261.1882
606.5369, 210.6685
607.0190, 178.1072
607.5012, 183.3015
607.9833, 205.9224
608.4654, 201.0442
608.9475, 167.7297
609.4296, 130.5564
609.9117, 93.64355
610.3939, 62.15820
610.8760, 42.06079
611.3581, 31.54468
611.8402, 25.90137
612.3223, 29.58740
612.8044, 32.97559
613.2866, 30.70142
613.7687, 26.80640
614.2508, 27.48389
614.7329, 33.53711
615.2150, 39.73950
615.6971, 42.38452
616.1793, 40.90991
616.6614, 29.05884
617.1435, 2.799072
617.6256, 12.37622
618.1077, 0.9218750
618.5898, 20.17383
619.0720, 27.33081
619.5541, 20.15991
620.0362, 10.14673
620.5183, 8.115967
621.0004, 21.61865
621.4825, 22.26880
621.9647, 12.39502
622.4468, 6.818604
622.9289, 33.93530
623.4110, 58.17139
623.8931, 64.29517
624.3752, 52.97876
624.8574, 43.31641
625.3395, 31.74561
625.8216, 32.11597
626.3037, 60.10303
626.7858, 98.25049
627.2679, 117.4819
627.7501, 112.7622
628.2322, 114.7461
628.7143, 133.0405
629.1964, 159.6174
629.6785, 197.4351
630.1606, 237.5867
630.6428, 258.6626
631.1249, 251.7900
631.6070, 234.4045
632.0891, 231.5613
632.5712, 243.6917
633.0533, 264.2539
633.5355, 298.7720
634.0176, 330.4363
634.4997, 354.8264
634.9818, 369.0696
635.4639, 363.1960
635.9460, 325.8674
636.4282, 309.0334
636.9103, 349.9043
637.3924, 402.5806
637.8745, 422.9897
638.3566, 418.7979
638.8387, 421.8572
639.3209, 447.6199
639.8030, 483.8528
640.2851, 512.2095
640.7672, 533.2397
641.2493, 539.4011
641.7314, 522.0151
642.2136, 505.1924
642.6957, 499.7476
643.1778, 504.6829
643.6599, 519.6724
644.1420, 548.0649
644.6241, 576.2119
645.1063, 599.8274
645.5884, 621.1633
646.0705, 648.5115
646.5526, 675.7734
647.0347, 682.2100
647.5168, 656.5933
647.9990, 617.8870
648.4811, 595.0835
648.9632, 587.8125
649.4453, 603.7002
649.9274, 655.6416
650.4095, 706.1328
650.8917, 734.3411
651.3738, 745.9773
651.8559, 751.3403
652.3380, 749.0266
652.8201, 745.2246
653.3022, 729.5581
653.7844, 722.7927
654.2665, 756.8037
654.7486, 815.7832
655.2307, 854.7681
655.7128, 851.6501
656.1949, 821.6064
656.6771, 779.4189
657.1592, 724.0723
657.6413, 696.0603
658.1234, 703.7046
658.6055, 725.0645
659.0876, 757.6482
659.5698, 793.3359
660.0519, 811.8735
660.5340, 805.9971
661.0161, 799.8491
661.4982, 797.9780
661.9803, 799.3943
662.4625, 805.5664
662.9446, 815.2214
663.4267, 823.8445
663.9088, 828.0413
664.3909, 831.4673
664.8730, 845.8477
665.3552, 870.8938
665.8373, 878.2874
666.3194, 859.3459
666.8015, 848.2246
667.2836, 868.7742
667.7657, 905.7810
668.2479, 922.9744
668.7300, 912.7283
669.2121, 912.0122
669.6942, 929.9155
670.1763, 950.3877
670.6584, 968.3809
671.1406, 979.3748
671.6227, 972.7957
672.1048, 945.9619
672.5869, 927.0027
673.0690, 953.4844
673.5511, 1011.244
674.0333, 1055.899
674.5154, 1083.785
674.9975, 1083.777
675.4796, 1045.290
675.9617, 992.8225
676.4438, 965.2537
676.9260, 967.3484
677.4081, 974.3396
677.8902, 995.3298
678.3723, 1006.814
678.8544, 996.4048
679.3365, 977.1760
679.8187, 961.6318
680.3008, 952.5530
680.7829, 954.0571
681.2650, 984.8345
681.7471, 1022.544
682.2292, 1023.820
682.7114, 992.1123
683.1935, 956.3740
683.6756, 926.7668
684.1577, 903.9556
684.6398, 889.6987
685.1219, 884.8663
685.6041, 885.0872
686.0862, 900.1714
686.5683, 907.5452
687.0504, 890.7900
687.5325, 871.3695
688.0146, 878.4628
688.4968, 911.3821
688.9789, 923.5222
689.4610, 875.7513
689.9431, 814.3459
690.4252, 777.8079
690.9073, 760.7432
691.3895, 753.3499
691.8716, 751.5989
692.3537, 745.1514
692.8358, 720.5081
693.3179, 682.3323
693.8000, 667.5714
694.2822, 687.3174
694.7643, 696.3000
695.2464, 676.1528
695.7285, 648.9736
696.2106, 638.7065
696.6927, 641.2825
697.1749, 631.6680
697.6570, 586.6736
698.1391, 551.6907
698.6212, 565.5505
699.1033, 587.2358
699.5854, 557.6475
700.0676, 482.4983
700.5497, 424.0549
701.0318, 428.8359
701.5139, 463.9585
701.9960, 460.4275
702.4781, 420.0605
702.9603, 395.7749
703.4424, 401.4229
703.9245, 403.6060
704.4066, 373.8569
704.8887, 321.1533
705.3708, 284.7856
705.8530, 276.7871
706.3351, 266.9878
706.8172, 252.1655
707.2993, 237.2312
707.7814, 223.2393
708.2635, 211.8857
708.7457, 206.3813
709.2278, 208.3735
709.7099, 213.4531
710.1920, 219.7437
710.6741, 225.5771
711.1563, 230.3223
711.6384, 232.6682
712.1205, 222.3843
712.6026, 193.1309
713.0847, 153.8799
713.5668, 118.9844
714.0490, 85.65601
714.5311, 71.62695
715.0132, 88.65356
715.4953, 108.2151
715.9774, 131.8726
716.4595, 145.9160
716.9417, 125.7466
717.4238, 66.72412
717.9059, 26.26001
718.3880, 43.46069
718.8701, 67.82031
719.3522, 64.52466
719.8344, 40.97241
720.3165, 6.053467
720.7986, 34.37256
721.2807, 60.52002
721.7628, 46.29150
722.2449, 6.472900
722.7271, 1.362793
723.2092, 34.63696
723.6913, 56.11914
724.1734, 50.71191
724.6555, 34.45020
725.1376, 18.29053
725.6198, 3.131104
726.1019, 5.912109
726.5840, 43.89038
727.0661, 74.36572
727.5482, 92.51562
728.0303, 99.78613
728.5125, 89.23975
728.9946, 68.86938
729.4767, 59.84473
729.9588, 74.32056
730.4409, 95.37744
730.9230, 114.4221
731.4052, 126.0051
731.8873, 110.0684
732.3694, 69.34448
732.8515, 42.21729
733.3336, 51.89819
733.8157, 82.40845
734.2979, 102.0649
734.7800, 110.5703
735.2621, 107.7561
735.7442, 82.43677
736.2263, 64.74976
736.7084, 76.15259
737.1906, 99.05420
737.6727, 108.3572
738.1548, 100.6208
738.6369, 97.53223
739.1190, 110.2336
739.6011, 122.4753
740.0833, 128.6060
740.5654, 126.2861
741.0475, 109.9512
741.5296, 80.03955
742.0117, 48.60083
742.4938, 26.58105
742.9760, 9.246094
743.4581, 16.11279
743.9402, 47.79297
744.4223, 72.62598
744.9044, 88.00439
745.3865, 87.83691
745.8687, 59.66138
746.3508, 11.98364
746.8329, 7.678955
747.3150, 77.98706
747.7971, 135.1729
748.2792, 162.8125
748.7614, 183.7034
749.2435, 206.6033
749.7256, 232.4573
750.2077, 263.0652
750.6898, 300.4653
751.1719, 337.4385
751.6541, 375.2778
752.1362, 407.6780
752.6183, 418.3992
753.1004, 418.2761
753.5825, 440.7107
754.0646, 498.9741
754.5468, 563.8691
755.0289, 595.8337
755.5110, 600.1768
755.9931, 601.1118
756.4752, 596.7354
756.9573, 622.5432
757.4395, 703.9648
757.9216, 791.0220
758.4037, 813.9214
758.8858, 766.5005
759.3679, 759.0635
759.8500, 832.5886
760.3322, 892.9504
760.8143, 918.5793
761.2964, 932.6323
761.7785, 956.2537
762.2606, 985.8650
762.7427, 1000.781
763.2249, 982.0762
763.7070, 966.6995
764.1891, 978.6431
764.6712, 1008.805
765.1533, 1051.815
765.6354, 1101.830
766.1176, 1144.935
766.5997, 1173.532
767.0818, 1189.404
767.5639, 1188.189
768.0460, 1172.236
768.5281, 1174.560
769.0103, 1198.067
769.4924, 1232.948
769.9745, 1280.277
770.4566, 1327.083
770.9387, 1351.824
771.4208, 1351.126
771.9030, 1346.423
772.3851, 1328.326
772.8672, 1320.797
773.3493, 1331.289
773.8314, 1352.809
774.3135, 1384.337
774.7957, 1421.465
775.2778, 1447.635
775.7599, 1464.347
776.2420, 1461.395
776.7241, 1401.835
777.2062, 1330.479
777.6884, 1323.877
778.1705, 1375.487
778.6526, 1416.330
779.1347, 1407.053
779.6168, 1371.509
780.0989, 1341.221
780.5811, 1314.966
781.0632, 1298.759
781.5453, 1293.511
782.0274, 1309.925
782.5095, 1364.748
782.9916, 1421.175
783.4738, 1412.374
783.9559, 1318.356
784.4380, 1254.157
784.9201, 1239.988
785.4022, 1231.905
785.8843, 1226.063
786.3665, 1219.615
786.8486, 1211.291
787.3307, 1199.395
787.8128, 1178.428
788.2949, 1134.591
788.7770, 1095.708
789.2592, 1084.481
789.7413, 1084.092
790.2234, 1072.293
790.7055, 1050.120
791.1876, 1034.622
791.6697, 1036.317
792.1519, 1037.769
792.6340, 1007.298
793.1161, 956.8955
793.5982, 935.0996
794.0803, 943.6602
794.5624, 945.4697
795.0446, 922.8032
795.5267, 892.1978
796.0088, 878.5576
796.4909, 883.0537
796.9730, 881.5186
797.4551, 876.6685
797.9373, 860.0991
798.4194, 812.3887
798.9015, 769.1724
799.3836, 771.0508
799.8657, 808.4243
800.3478, 825.4463
800.8300, 774.5610
801.3121, 755.8105
801.7942, 821.3057
802.2763, 908.0342
802.7584, 964.4033
803.2405, 998.1733
803.7227, 1039.698
804.2048, 1100.207
804.6869, 1170.843
805.1690, 1257.090
805.6511, 1341.311
806.1332, 1373.115
806.6154, 1373.397
807.0975, 1433.297
807.5796, 1582.609
808.0617, 1760.029
808.5438, 1902.006
809.0259, 2012.731
809.5081, 2109.717
809.9902, 2189.282
810.4723, 2283.139
810.9544, 2397.542
811.4365, 2528.759
811.9186, 2674.229
812.4008, 2832.614
812.8829, 3000.141
813.3650, 3169.703
813.8471, 3359.649
814.3292, 3576.029
814.8113, 3805.625
815.2935, 4052.551
815.7756, 4304.153
816.2577, 4536.180
816.7398, 4742.729
817.2219, 4979.966
817.7040, 5296.811
818.1862, 5625.242
818.6683, 5923.281
819.1504, 6198.301
819.6325, 6459.945
820.1146, 6711.205
820.5967, 6953.224
821.0789, 7183.530
821.5610, 7406.893
822.0431, 7623.712
822.5252, 7838.648
823.0073, 8068.403
823.4894, 8315.054
823.9716, 8555.022
824.4537, 8777.484
824.9358, 8977.881
825.4179, 9139.399
825.9000, 9256.091
826.3821, 9432.959
826.8643, 9698.833
827.3464, 9937.587
827.8285, 10100.50
828.3106, 10235.77
828.7927, 10386.23
829.2748, 10551.82
829.7570, 10744.07
830.2391, 11008.39
830.7212, 11233.62
831.2033, 11360.07
831.6854, 11485.33
832.1675, 11674.88
832.6497, 11910.34
833.1318, 12144.15
833.6139, 12362.90
834.0960, 12592.08
834.5781, 12862.36
835.0602, 13132.11
835.5424, 13375.75
836.0245, 13587.85
836.5066, 13751.96
836.9887, 13871.87
837.4708, 13995.23
837.9529, 14171.26
838.4351, 14358.30
838.9172, 14483.14
839.3993, 14556.90
839.8814, 14623.96
840.3635, 14689.81
840.8456, 14731.82
841.3278, 14737.75
841.8099, 14701.86
842.2920, 14608.19
842.7741, 14454.49
843.2562, 14277.92
843.7383, 14080.60
844.2205, 13856.12
844.7026, 13599.79
845.1847, 13321.04
845.6668, 13030.92
846.1489, 12730.30
846.6310, 12388.80
847.1132, 11973.32
847.5953, 11563.38
848.0774, 11179.90
848.5595, 10788.35
849.0416, 10356.05
849.5237, 9901.108
850.0059, 9468.461
850.4880, 9075.980
850.9701, 8665.929
851.4522, 8194.526
851.9343, 7721.532
852.4164, 7289.522
852.8986, 6883.667
853.3807, 6482.550
853.8628, 6082.635
854.3449, 5703.699
854.8270, 5351.372
855.3091, 5036.052
855.7913, 4797.559
856.2734, 4600.548
856.7555, 4370.141
857.2376, 4102.684
857.7197, 3838.834
858.2018, 3598.083
858.6840, 3380.407
859.1661, 3188.684
859.6482, 3021.156
860.1303, 2860.381
860.6124, 2706.574
861.0945, 2553.745
861.5767, 2399.447
862.0588, 2246.665
862.5409, 2093.989
863.0230, 1946.110
863.5051, 1824.529
863.9872, 1737.248
864.4694, 1647.054
864.9515, 1549.112
865.4336, 1455.559
865.9157, 1364.814
866.3978, 1282.311
866.8799, 1230.793
867.3621, 1224.477
867.8442, 1193.725
868.3263, 1118.344
868.8084, 1038.831
869.2905, 958.6807
869.7726, 882.2480
870.2548, 815.5220
870.7369, 760.7090
871.2190, 716.5435
871.7011, 678.9780
872.1832, 652.5635
872.6653, 660.7739
873.1475, 665.1812
873.6296, 618.5005
874.1117, 543.5684
874.5938, 491.9087
875.0759, 479.2402
875.5580, 480.7588
876.0402, 478.3193
876.5223, 473.8882
877.0044, 472.2422
877.4865, 469.3154
877.9686, 455.5815
878.4507, 432.8979
878.9329, 417.2207
879.4150, 418.0190
879.8971, 426.6436
880.3792, 434.2144
880.8613, 440.3369
881.3434, 431.3589
881.8256, 404.2397
882.3077, 378.8535
882.7898, 364.6611
883.2719, 354.9053
883.7540, 337.1011
884.2361, 316.5303
884.7183, 339.1172
885.2004, 423.1309
885.6825, 463.0840
886.1646, 430.9028
886.6467, 387.0718
887.1288, 361.5627
887.6110, 352.1279
888.0931, 357.0852
888.5752, 383.2444
889.0573, 394.2754
889.5394, 391.1868
890.0215, 371.2542
890.5037, 302.2847
890.9858, 243.1157
891.4679, 260.3137
891.9500, 333.8237
892.4321, 369.6072
892.9142, 330.3164
893.3964, 297.2297
893.8785, 293.1682
894.3606, 294.6411
894.8427, 288.6938
895.3248, 279.0608
895.8069, 277.3318
896.2891, 283.6118
896.7712, 271.7031
897.2533, 205.8645
897.7354, 145.7749
898.2175, 133.5371
898.6996, 145.2354
899.1818, 160.6174
899.6639, 172.0916
900.1460, 171.3159
900.6281, 154.9226
901.1102, 134.5618
901.5923, 114.5425
902.0745, 100.3979
902.5566, 103.1482
903.0387, 118.7356
903.5208, 136.9653
904.0029, 155.2646
904.4850, 175.2881
904.9672, 199.5422
905.4493, 222.5469
905.9314, 230.7864
906.4135, 228.1526
906.8956, 233.2549
907.3777, 246.4893
907.8599, 259.8145
908.3420, 271.6963
908.8241, 279.4900
909.3062, 277.0815
909.7883, 266.6987
910.2704, 263.8242
910.7526, 269.0774
911.2347, 279.8484
911.7169, 300.0813
912.1990, 301.9084
912.6811, 260.5593
913.1632, 206.0564
913.6453, 205.0720
914.1274, 271.4424
914.6096, 286.5840
915.0917, 225.5229
915.5738, 175.5845
916.0559, 166.1289
916.5380, 169.2925
917.0201, 161.0176
917.5023, 143.3801
917.9844, 128.9304
918.4665, 125.7800
918.9486, 107.1616
919.4307, 63.10254
919.9128, 16.91772
920.3950, 33.77661
920.8771, 74.62793
921.3592, 80.02490
921.8413, 52.51709
922.3234, 51.19043
922.8055, 113.6223
923.2877, 160.5388
923.7698, 157.6550
924.2519, 149.2615
924.7340, 168.0586
925.2161, 201.3704
925.6982, 227.6555
926.1804, 242.6306
926.6625, 240.7214
927.1446, 202.1812
927.6267, 165.0576
928.1088, 160.5242
928.5909, 161.3215
929.0731, 135.1499
929.5552, 87.47510
930.0373, 45.63037
930.5194, 20.13013
931.0015, 0.1235350
931.4836, 28.49243
931.9658, 47.97705
932.4479, 31.03125
932.9300, 2.233643
933.4121, 19.28979
933.8942, 13.25513
934.3763, 12.50977
934.8585, 62.77563
935.3406, 109.5723
935.8227, 114.2800
936.3048, 100.0767
936.7869, 112.7927
937.2690, 141.4214
937.7512, 135.1462
938.2333, 82.82788
938.7154, 41.21606
939.1975, 68.91260
939.6796, 126.2329
940.1617, 137.6714
940.6439, 118.7590
941.1260, 117.6118
941.6081, 136.6116
942.0902, 154.3228
942.5723, 162.6775
943.0544, 165.3560
943.5366, 163.8384
944.0187, 159.3818
944.5008, 159.8713
944.9829, 165.4099
945.4650, 175.6072
945.9471, 190.4287
946.4293, 206.1182
946.9114, 221.2422
947.3935, 233.4771
947.8756, 237.3904
948.3577, 231.0122
948.8398, 211.9678
949.3220, 179.2214
949.8041, 169.7708
950.2862, 195.1833
950.7683, 231.2666
951.2504, 263.9895
951.7325, 292.7991
952.2147, 312.3708
952.6968, 320.6438
953.1789, 328.0137
953.6610, 339.4668
954.1431, 334.3501
954.6252, 297.2698
955.1074, 254.9592
955.5895, 236.7161
956.0716, 242.1433
956.5537, 262.0195
957.0358, 306.3184
957.5179, 324.8784
958.0001, 301.4568
958.4822, 285.1462
958.9643, 299.2053
959.4464, 327.6116
959.9285, 352.4622
960.4106, 372.0906
960.8928, 378.0972
961.3749, 367.7197
961.8570, 354.1821
962.3391, 330.1147
962.8212, 311.7747
963.3033, 305.0828
963.7855, 310.3010
964.2676, 337.7092
964.7497, 392.3071
965.2318, 406.2163
965.7139, 333.3579
966.1960, 290.2937
966.6782, 309.2827
967.1603, 342.1067
967.6424, 365.5488
968.1245, 382.2341
968.6066, 400.2009
969.0887, 422.2056
969.5709, 424.4482
970.0530, 375.9341
970.5351, 348.8269
971.0172, 364.8313
971.4993, 399.6125
971.9814, 459.1099
972.4636, 519.4185
972.9457, 523.4360
973.4278, 450.3708
973.9099, 394.6262
974.3920, 375.6213
974.8741, 370.1121
975.3563, 360.9458
975.8384, 372.7126
976.3205, 448.0730
976.8026, 551.4424
977.2847, 593.2488
977.7668, 541.0935
978.2490, 502.9517
978.7311, 507.4583
979.2132, 523.2031
979.6953, 551.4871
980.1774, 574.6218
980.6595, 573.0493
981.1417, 546.8145
981.6238, 505.7734
982.1059, 439.9565
982.5880, 396.3530
983.0701, 411.1650
983.5522, 423.5298
984.0344, 405.5010
984.5165, 367.3174
984.9986, 306.6724
985.4807, 235.5337
985.9628, 203.3896
986.4449, 244.8164
986.9271, 276.5254
987.4092, 261.0996
987.8913, 237.5366
988.3734, 221.8501
988.8555, 215.4136
989.3376, 229.9282
989.8198, 256.4800
990.3019, 251.2192
990.7840, 181.4604
991.2661, 115.8218
991.7482, 82.32031
992.2303, 66.36084
992.7125, 63.90332
993.1946, 68.35449
993.6767, 71.86279
994.1588, 74.12158
994.6409, 81.94922
995.1230, 98.59619
995.6052, 120.3076
996.0873, 154.0298
996.5694, 180.3921
997.0515, 186.7607
997.5336, 181.3779
998.0157, 168.1113
998.4979, 150.7769
998.9800, 151.1650
999.4621, 197.9346
999.9442, 229.7217
1000.426, 196.6138
1000.908, 156.5352
1001.391, 156.5103
1001.873, 179.3555
1002.355, 199.4277
1002.837, 210.6807
1003.319, 209.9331
1003.801, 191.8462
1004.283, 168.1006
1004.765, 126.8662
1005.247, 98.96924
1005.730, 132.3892
1006.212, 184.6074
1006.694, 177.1494
1007.176, 105.4434
1007.658, 55.58545
1008.140, 82.22656
1008.622, 109.1562
1009.104, 93.76367
1009.587, 71.18750
1010.069, 77.14062
1010.551, 90.82764
1011.033, 67.22021
1011.515, 5.616699
1011.997, 31.08984
1012.479, 3.434570
1012.961, 31.96240
1013.443, 11.20020
1013.926, 16.85010
1014.408, 21.13770
1014.890, 10.04590
1015.372, 2.602051
1015.854, 12.12012
1016.336, 10.91650
1016.818, 13.55176
1017.300, 32.17139
1017.783, 21.52637
1018.265, 13.61328
1018.747, 40.90479
1019.229, 81.28564
1019.711, 100.5630
1020.193, 95.62354
1020.675, 85.90137
1021.157, 67.90137
1021.639, 59.74609
1022.122, 70.99707
1022.604, 89.31152
1023.086, 108.4536
1023.568, 132.3853
1024.050, 168.2627
1024.532, 212.8896
1025.014, 247.1313
1025.496, 266.7285
1025.979, 275.8052
1026.461, 271.3140
1026.943, 261.0645
1027.425, 250.7949
1027.907, 239.2607
1028.389, 221.0112
1028.871, 195.2925
1029.353, 167.1406
1029.835, 135.0703
1030.318, 103.8193
1030.800, 59.41211
1031.282, 36.96387
1031.764, 59.79980
1032.246, 107.4512
1032.728, 176.9766
1033.210, 256.8350
1033.692, 273.2939
1034.174, 158.6611
1034.657, 83.35840
1035.139, 92.23145
1035.621, 114.0098
1036.103, 124.1924
1036.585, 130.8057
1037.067, 150.7256
1037.549, 177.8555
1038.031, 175.7920
1038.514, 117.9395
1038.996, 82.12402
1039.478, 100.7227
1039.960, 99.16211
1040.442, 18.97461
1040.924, 57.79297
1041.406, 39.73730
1041.888, 43.63672
1042.370, 74.09180
1042.853, 30.70215
1043.335, 2.936523
1043.817, 20.69238
1044.299, 47.32324
1044.781, 99.39844
1045.263, 142.0225
1045.745, 138.3613
1046.227, 110.6934
1046.709, 124.7012
1047.192, 191.7998
1047.674, 245.6660
1048.156, 275.2178
1048.638, 317.0234
1049.120, 385.1982
1049.602, 455.3613
1050.084, 511.2324
1050.566, 558.3086
1051.049, 607.4512
1051.531, 658.8564
1052.013, 706.0176
1052.495, 747.2979
1052.977, 801.3320
1053.459, 876.5234
1053.941, 938.2393
1054.423, 956.3545
1054.906, 976.3701
1055.388, 1083.250
1055.870, 1263.572
1056.352, 1387.819
1056.834, 1454.603
1057.316, 1550.007
1057.798, 1687.345
1058.280, 1805.488
1058.762, 1871.132
1059.245, 1940.716
1059.727, 2091.224
1060.209, 2296.495
1060.691, 2465.584
1061.173, 2604.507
1061.655, 2752.597
1062.137, 2913.883
1062.619, 3076.540
1063.101, 3236.859
1063.584, 3396.890
1064.066, 3554.324
1064.548, 3719.961
1065.030, 3926.080
1065.512, 4157.634
1065.994, 4366.079
1066.476, 4560.908
1066.958, 4798.470
1067.441, 5088.844
1067.923, 5373.455
1068.405, 5605.373
1068.887, 5836.762
1069.369, 6131.479
1069.851, 6470.134
1070.333, 6848.690
1070.815, 7240.947
1071.297, 7563.285
1071.780, 7829.202
1072.262, 8178.786
1072.744, 8698.898
1073.226, 9235.296
1073.708, 9643.408
1074.190, 10024.62
1074.672, 10466.85
1075.154, 10951.78
1075.636, 11459.53
1076.119, 11984.20
1076.601, 12531.39
1077.083, 13101.86
1077.565, 13687.58
1078.047, 14270.17
1078.529, 14890.56
1079.011, 15576.15
1079.494, 16303.09
1079.976, 17042.90
1080.458, 17808.11
1080.940, 18623.81
1081.422, 19494.79
1081.904, 20396.42
1082.386, 21297.36
1082.868, 22257.54
1083.350, 23317.37
1083.833, 24410.40
1084.315, 25484.40
1084.797, 26579.78
1085.279, 27770.03
1085.761, 29051.46
1086.243, 30385.38
1086.725, 31754.17
1087.207, 33198.14
1087.689, 34732.25
1088.172, 36340.91
1088.654, 38012.65
1089.136, 39767.91
1089.618, 41626.37
1090.100, 43584.93
1090.582, 45610.77
1091.064, 47713.25
1091.546, 49825.10
1092.029, 51925.52
1092.511, 54142.71
1092.993, 56511.82
1093.475, 58990.18
1093.957, 61543.23
1094.439, 64160.40
1094.921, 66815.88
1095.403, 69513.51
1095.885, 72249.70
1096.368, 75032.85
1096.850, 77791.39
1097.332, 80526.92
1097.814, 83316.71
1098.296, 86214.27
1098.778, 89177.54
1099.260, 92192.30
1099.742, 95205.05
1100.224, 98070.16
1100.707, 100816.2
1101.189, 103485.3
1101.671, 106098.3
1102.153, 108664.0
1102.635, 111183.0
1103.117, 113586.4
1103.599, 115865.9
1104.081, 117974.7
1104.564, 119802.9
1105.046, 121477.2
1105.528, 123172.1
1106.010, 124806.1
1106.492, 126239.1
1106.974, 127443.0
1107.456, 128428.9
1107.938, 129175.4
1108.421, 129828.1
1108.903, 130572.9
1109.385, 131110.3
1109.867, 131224.9
1110.349, 131075.6
1110.831, 130827.8
1111.313, 130438.7
1111.795, 129760.5
1112.277, 128753.2
1112.760, 127678.1
1113.242, 126658.1
1113.724, 125437.9
1114.206, 123959.8
1114.688, 122284.1
1115.170, 120344.0
1115.652, 118307.1
1116.134, 116428.3
1116.616, 114658.6
1117.099, 112537.2
1117.581, 109930.5
1118.063, 107421.1
1118.545, 105055.3
1119.027, 102673.0
1119.509, 100219.4
1119.991, 97763.31
1120.473, 95344.39
1120.956, 92918.52
1121.438, 90349.66
1121.920, 87652.43
1122.402, 85135.13
1122.884, 82772.33
1123.366, 80378.04
1123.848, 77935.79
1124.330, 75529.54
1124.813, 73206.91
1125.295, 70950.74
1125.777, 68762.42
1126.259, 66618.27
1126.741, 64440.36
1127.223, 62280.54
1127.705, 60272.54
1128.187, 58380.09
1128.669, 56470.89
1129.151, 54520.94
1129.634, 52572.77
1130.116, 50641.41
1130.598, 48794.10
1131.080, 47113.18
1131.562, 45513.90
1132.044, 43927.94
1132.526, 42382.41
1133.008, 40926.45
1133.491, 39540.75
1133.973, 38131.52
1134.455, 36660.03
1134.937, 35308.64
1135.419, 34197.00
1135.901, 33092.39
1136.383, 31926.08
1136.865, 30754.66
1137.348, 29595.78
1137.830, 28477.16
1138.312, 27445.25
1138.794, 26493.98
1139.276, 25537.18
1139.758, 24550.14
1140.240, 23648.23
1140.722, 22854.46
1141.204, 22070.50
1141.687, 21263.78
1142.169, 20477.27
1142.651, 19742.06
1143.133, 19042.70
1143.615, 18328.80
1144.097, 17613.22
1144.579, 16967.44
1145.061, 16383.88
1145.543, 15803.89
1146.026, 15217.61
1146.508, 14656.92
1146.990, 14134.10
1147.472, 13631.81
1147.954, 13132.87
1148.436, 12643.17
1148.918, 12172.71
1149.400, 11713.19
1149.883, 11245.15
1150.365, 10782.07
1150.847, 10351.46
1151.329, 9954.609
1151.811, 9577.046
1152.293, 9215.821
1152.775, 8858.369
1153.257, 8501.325
1153.740, 8148.302
1154.222, 7786.875
1154.704, 7442.242
1155.186, 7141.904
1155.668, 6868.477
1156.150, 6583.953
1156.632, 6284.932
1157.114, 6019.725
1157.596, 5818.932
1158.078, 5580.303
1158.561, 5279.693
1159.043, 4980.850
1159.525, 4700.389
1160.007, 4445.965
1160.489, 4228.182
1160.971, 4034.261
1161.453, 3837.272
1161.935, 3637.165
1162.418, 3398.854
1162.900, 3131.699
1163.382, 2933.326
1163.864, 2813.125
1164.346, 2693.799
1164.828, 2539.379
1165.310, 2367.379
1165.792, 2184.338
1166.275, 2009.996
1166.757, 1885.056
1167.239, 1774.255
1167.721, 1610.021
1168.203, 1426.376
1168.685, 1311.161
1169.167, 1255.559
1169.649, 1152.127
1170.131, 948.8359
1170.614, 759.1602
1171.096, 621.2744
1171.578, 516.9229
1172.060, 472.4033
1172.542, 424.4922
1173.024, 314.8799
1173.506, 176.0234
1173.988, 61.76758
1174.470, 27.69043
1174.953, 99.49023
1175.435, 147.7861
1175.917, 194.1104
1176.399, 235.7529
1176.881, 292.1338
1177.363, 373.5693
1177.845, 449.4746
1178.327, 497.3018
1178.810, 524.8076
1179.292, 540.8643
1179.774, 549.9678
1180.256, 563.8027
1180.738, 587.0898
1181.220, 658.0586
1181.702, 758.4785
1182.184, 793.7432
1182.667, 739.8750
1183.149, 676.5127
1183.631, 654.4473
1184.113, 648.1631
1184.595, 652.6572
1185.077, 646.1045
1185.559, 601.0098
1186.041, 539.9375
1186.523, 498.3779
1187.005, 464.5303
1187.488, 393.8389
1187.970, 274.1104
1188.452, 167.1396
1188.934, 82.20410
1189.416, 9.915039
1189.898, 26.92969
1190.380, 93.46191
1190.862, 229.0752
1191.345, 381.5459
1191.827, 503.9336
1192.309, 601.4580
1192.791, 678.3398
1193.273, 736.3789
1193.755, 846.6426
1194.237, 1004.177
1194.719, 1145.596
1195.202, 1264.043
1195.684, 1401.236
1196.166, 1574.909
1196.648, 1779.530
1197.130, 2028.780
1197.612, 2264.391
1198.094, 2397.367
1198.576, 2494.570
1199.058, 2632.896
1199.541, 2795.375
1200.023, 2942.471
1200.505, 3078.666
1200.987, 3239.736
1201.469, 3439.770
1201.951, 3625.979
1202.433, 3767.795
1202.915, 3922.574
1203.397, 4109.166
1203.880, 4304.350
1204.362, 4505.246
1204.844, 4703.154
1205.326, 4892.740
1205.808, 5069.600
1206.290, 5210.768
1206.772, 5312.037
1207.254, 5466.045
1207.737, 5672.293
1208.219, 5908.416
1208.701, 6166.732
1209.183, 6400.730
1209.665, 6590.965
1210.147, 6786.311
1210.629, 7044.279
1211.111, 7310.209
1211.594, 7499.477
1212.076, 7671.594
1212.558, 7891.004
1213.040, 8154.947
1213.522, 8478.449
1214.004, 8827.660
1214.486, 9094.637
1214.968, 9257.090
1215.450, 9474.396
1215.932, 9856.240
1216.415, 10187.73
1216.897, 10383.02
1217.379, 10590.33
1217.861, 10876.78
1218.343, 11190.47
1218.825, 11490.03
1219.307, 11772.17
1219.789, 12028.39
1220.272, 12257.37
1220.754, 12505.24
1221.236, 12770.86
1221.718, 13048.62
1222.200, 13337.04
1222.682, 13618.07
1223.164, 13874.32
1223.646, 14082.54
1224.129, 14234.58
1224.611, 14362.74
1225.093, 14485.32
1225.575, 14599.82
1226.057, 14732.09
1226.539, 14842.34
1227.021, 14832.29
1227.503, 14761.42
1227.985, 14795.57
1228.468, 14944.82
1228.950, 15015.25
1229.432, 14950.29
1229.914, 14916.76
1230.396, 14955.32
1230.878, 15008.14
1231.360, 15041.86
1231.842, 15108.68
1232.324, 15238.12
1232.807, 15374.64
1233.289, 15425.11
1233.771, 15424.36
1234.253, 15523.93
1234.735, 15673.41
1235.217, 15673.69
1235.699, 15567.18
1236.181, 15565.96
1236.664, 15690.97
1237.146, 15749.10
1237.628, 15636.44
1238.110, 15516.44
1238.592, 15499.91
1239.074, 15478.64
1239.556, 15394.98
1240.038, 15287.32
1240.521, 15172.10
1241.003, 15059.81
1241.485, 14979.42
1241.967, 14911.75
1242.449, 14757.95
1242.931, 14499.94
1243.413, 14267.82
1243.895, 14066.49
1244.377, 13825.64
1244.859, 13533.35
1245.342, 13213.95
1245.824, 12879.04
1246.306, 12557.65
1246.788, 12283.88
1247.270, 12020.19
1247.752, 11730.02
1248.234, 11413.71
1248.716, 11064.73
1249.199, 10696.60
1249.681, 10321.06
1250.163, 9946.141
1250.645, 9580.629
1251.127, 9226.523
1251.609, 8867.176
1252.091, 8472.691
1252.573, 8113.758
1253.056, 7820.756
1253.538, 7502.174
1254.020, 7127.523
1254.502, 6730.404
1254.984, 6327.742
1255.466, 5950.297
1255.948, 5654.355
1256.430, 5410.469
1256.912, 5136.559
1257.395, 4833.135
1257.877, 4483.160
1258.359, 4106.076
1258.841, 3743.400
1259.323, 3410.121
1259.805, 3128.008
1260.287, 2911.109
1260.769, 2671.531
1261.251, 2327.568
1261.734, 2008.955
1262.216, 1761.102
1262.698, 1552.225
1263.180, 1391.029
1263.662, 1233.172
1264.144, 1034.971
1264.626, 818.2168
1265.108, 634.2637
1265.591, 482.6660
1266.073, 347.2324
1266.555, 230.8965
1267.037, 162.5547
1267.519, 134.9512
1268.001, 76.53711
1268.483, 20.64453
1268.965, 70.67773
1269.448, 18.56445
1269.930, 59.88477
1270.412, 91.87695
1270.894, 28.69531
1271.376, 42.91797
1271.858, 0.0000000E+00
##END=



