##NAMES=Betekhtinite
##RRUFFID=R070087
##IDEAL CHEMISTRY=(Cu,Fe)_21_Pb_2_S_15_
##LOCALITY=Dzhezkazgan deposit, central Kazakhstan
##OWNER=RRUFF
##SOURCE=Michael Scott
##DESCRIPTION=Aggregate of black bladed to prismatic crystals associated with quartz
##STATUS=The identification of this mineral has been confirmed by X-ray diffraction and chemical analysis
##URL=rruff.info/R070087
##MEASURED CHEMISTRY=(Cu_20.15_Fe_0.85_)_Σ=21_(Pb_1.80_Ag_0.11_Fe_0.09_)_Σ=2_S_15.00_
157.9509, 0.0000000E+00
158.4330, 5.300415
158.9152, 7.167236
159.3973, 1.321533
159.8794, 1.233643
160.3615, 0.7619020
160.8436, 0.8814090
161.3257, 2.155823
161.8079, 3.069885
162.2900, 6.897278
162.7721, 18.35681
163.2542, 28.30212
163.7363, 33.13049
164.2184, 34.45886
164.7006, 35.78259
165.1827, 39.67517
165.6648, 46.20898
166.1469, 53.16876
166.6290, 61.84625
167.1111, 69.63708
167.5933, 74.88788
168.0754, 78.55688
168.5575, 82.87958
169.0396, 89.86420
169.5217, 99.55396
170.0038, 105.7155
170.4860, 105.8995
170.9681, 105.3177
171.4502, 105.3866
171.9323, 105.9429
172.4144, 106.2946
172.8965, 105.9346
173.3787, 104.8763
173.8608, 103.0193
174.3429, 98.97314
174.8250, 95.62604
175.3071, 94.57544
175.7892, 95.06561
176.2714, 94.59857
176.7535, 90.69116
177.2356, 83.63910
177.7177, 85.55457
178.1998, 108.2195
178.6819, 126.1531
179.1641, 126.5686
179.6462, 114.6331
180.1283, 104.1637
180.6104, 104.7107
181.0925, 115.4006
181.5746, 122.8738
182.0567, 127.8788
182.5389, 129.7607
183.0210, 126.8145
183.5031, 120.4093
183.9852, 113.1610
184.4673, 106.0952
184.9494, 99.74670
185.4316, 99.41614
185.9137, 112.3333
186.3958, 122.2034
186.8779, 121.2944
187.3600, 112.7317
187.8421, 103.8691
188.3243, 98.46094
188.8064, 96.57019
189.2885, 98.85254
189.7706, 110.0106
190.2527, 119.3182
190.7348, 122.7806
191.2170, 121.6595
191.6991, 118.3236
192.1812, 113.3085
192.6633, 107.7537
193.1454, 106.5426
193.6275, 110.0925
194.1097, 116.3169
194.5918, 128.6010
195.0739, 143.0825
195.5560, 151.5092
196.0381, 149.6182
196.5202, 139.7592
197.0024, 128.1105
197.4845, 109.8059
197.9666, 97.26624
198.4487, 96.45642
198.9308, 103.8937
199.4129, 113.8832
199.8951, 125.0309
200.3772, 135.4109
200.8593, 139.4912
201.3414, 136.0607
201.8235, 131.2084
202.3056, 126.5724
202.7878, 121.6276
203.2699, 114.2758
203.7520, 102.8370
204.2341, 91.62549
204.7162, 90.87988
205.1983, 104.0682
205.6805, 113.8846
206.1626, 114.2009
206.6447, 109.0588
207.1268, 104.6115
207.6089, 102.6050
208.0910, 101.6410
208.5732, 99.04468
209.0553, 93.88696
209.5374, 91.76172
210.0195, 95.78174
210.5016, 102.8114
210.9837, 108.9404
211.4659, 113.3751
211.9480, 116.4686
212.4301, 118.9473
212.9122, 121.1177
213.3943, 120.0790
213.8764, 113.2820
214.3586, 103.9995
214.8407, 94.92688
215.3228, 86.40784
215.8049, 79.78271
216.2870, 78.76917
216.7691, 83.62781
217.2513, 88.67493
217.7334, 94.66077
218.2155, 99.99536
218.6976, 102.8195
219.1797, 102.9714
219.6618, 102.0342
220.1440, 101.5750
220.6261, 101.3964
221.1082, 98.92908
221.5903, 89.46863
222.0724, 81.03833
222.5546, 82.85413
223.0367, 94.08398
223.5188, 101.8732
224.0009, 95.64600
224.4830, 77.15112
224.9651, 64.67273
225.4473, 59.27417
225.9294, 58.85217
226.4115, 66.80615
226.8936, 80.48376
227.3757, 87.16675
227.8578, 76.54810
228.3400, 54.09888
228.8221, 44.14307
229.3042, 57.39832
229.7863, 70.21606
230.2684, 72.84180
230.7505, 67.09045
231.2327, 56.69897
231.7148, 41.30676
232.1969, 25.18188
232.6790, 22.01892
233.1611, 39.79199
233.6432, 54.37915
234.1254, 56.24719
234.6075, 50.08630
235.0896, 44.64319
235.5717, 43.78625
236.0538, 45.05127
236.5359, 42.98999
237.0181, 35.38440
237.5002, 30.55798
237.9823, 31.68848
238.4644, 35.78882
238.9465, 40.31860
239.4286, 44.56519
239.9108, 48.33057
240.3929, 51.48157
240.8750, 54.39417
241.3571, 55.16418
241.8392, 50.24048
242.3213, 44.99487
242.8035, 45.46057
243.2856, 52.35876
243.7677, 60.78088
244.2498, 66.21375
244.7319, 68.38123
245.2140, 66.30627
245.6962, 56.46313
246.1783, 45.30457
246.6604, 34.87195
247.1425, 26.37891
247.6246, 23.89856
248.1067, 32.60754
248.5889, 52.66223
249.0710, 61.50330
249.5531, 50.61169
250.0352, 38.71667
250.5173, 34.39319
250.9994, 36.02783
251.4816, 37.93555
251.9637, 36.61133
252.4458, 32.61633
252.9279, 29.82153
253.4100, 28.06104
253.8921, 27.48645
254.3743, 28.27905
254.8564, 30.26147
255.3385, 33.29907
255.8206, 37.37146
256.3027, 42.16394
256.7849, 46.83203
257.2670, 56.14990
257.7491, 59.17383
258.2312, 49.79565
258.7133, 36.53687
259.1954, 27.82971
259.6776, 26.30786
260.1597, 29.37634
260.6418, 33.42725
261.1239, 41.69739
261.6060, 43.70471
262.0881, 32.69629
262.5703, 21.03052
263.0524, 19.00732
263.5345, 26.67944
264.0166, 35.55200
264.4987, 36.92261
264.9808, 29.03735
265.4630, 22.99365
265.9451, 15.88306
266.4272, 12.87427
266.9093, 19.63184
267.3914, 33.03333
267.8735, 44.84558
268.3557, 48.62842
268.8378, 44.63452
269.3199, 39.97278
269.8020, 31.01514
270.2841, 25.27637
270.7662, 27.66394
271.2484, 33.58936
271.7305, 35.95837
272.2126, 30.71033
272.6947, 20.15100
273.1768, 11.27661
273.6589, 1.044312
274.1411, 1.918701
274.6232, 8.895874
275.1053, 23.87842
275.5874, 34.06030
276.0695, 36.51611
276.5516, 34.78333
277.0338, 34.37695
277.5159, 35.81714
277.9980, 36.98047
278.4801, 37.62988
278.9622, 37.94189
279.4443, 38.78052
279.9265, 39.85889
280.4086, 39.20850
280.8907, 33.48486
281.3728, 21.75525
281.8549, 13.12683
282.3370, 8.865845
282.8192, 7.541016
283.3013, 9.964355
283.7834, 14.79980
284.2655, 18.54346
284.7476, 17.02234
285.2297, 12.82849
285.7119, 16.47705
286.1940, 32.39282
286.6761, 45.64490
287.1582, 47.48230
287.6403, 42.87732
288.1224, 38.79480
288.6046, 38.34521
289.0867, 38.54785
289.5688, 35.47607
290.0509, 29.03235
290.5330, 19.51892
291.0151, 0.2153320
291.4973, 18.00195
291.9794, 20.77466
292.4615, 3.080322
292.9436, 16.73816
293.4257, 23.78833
293.9078, 19.60864
294.3900, 12.91382
294.8721, 1.592407
295.3542, 14.20361
295.8363, 1.361694
296.3184, 11.87793
296.8005, 17.80237
297.2827, 6.027832
297.7648, 14.68506
298.2469, 14.02307
298.7290, 12.20447
299.2111, 21.42908
299.6932, 8.007446
300.1754, 16.15002
300.6575, 15.16687
301.1396, 16.73889
301.6217, 17.80359
302.1038, 20.25012
302.5859, 19.78906
303.0681, 20.94092
303.5501, 27.49219
304.0323, 37.30164
304.5144, 40.74878
304.9965, 32.57312
305.4786, 25.52319
305.9607, 23.55884
306.4428, 24.45959
306.9250, 25.12170
307.4071, 24.35107
307.8892, 23.49524
308.3713, 25.03345
308.8534, 21.11023
309.3355, 30.95105
309.8177, 36.29077
310.2998, 37.51965
310.7819, 22.30603
311.2640, 28.34143
311.7461, 25.87390
312.2282, 23.06494
312.7104, 32.11377
313.1925, 19.32959
313.6746, 28.24255
314.1567, 29.13025
314.6388, 34.06030
315.1209, 29.97668
315.6031, 23.80713
316.0852, 25.45068
316.5673, 32.12805
317.0494, 36.63635
317.5315, 39.61414
318.0136, 39.10291
318.4958, 34.25354
318.9779, 26.30786
319.4600, 14.78613
319.9421, 0.2949220
320.4242, 14.03259
320.9063, 17.35107
321.3885, 6.222046
321.8706, 1.469604
322.3527, 0.6064450
322.8348, 1.371948
323.3169, 1.342041
323.7990, 1.087891
324.2812, 3.965088
324.7633, 4.070313
325.2454, 2.294922
325.7275, 7.854126
326.2096, 30.27844
326.6917, 46.41296
327.1739, 37.57312
327.6560, 16.17395
328.1381, 4.579712
328.6202, 15.18469
329.1023, 34.44629
329.5844, 43.84460
330.0666, 43.12769
330.5487, 36.93127
331.0308, 21.10620
331.5129, 4.494507
331.9950, 0.4389650
332.4771, 9.431396
332.9593, 22.27869
333.4414, 33.31934
333.9235, 41.84888
334.4056, 45.18555
334.8877, 41.69800
335.3698, 35.82654
335.8520, 34.08960
336.3341, 36.57483
336.8162, 33.59668
337.2983, 16.18408
337.7804, 2.493774
338.2625, 8.912598
338.7447, 3.203369
339.2268, 4.701416
339.7089, 8.072388
340.1910, 7.449585
340.6731, 8.077026
341.1552, 13.59912
341.6374, 16.13293
342.1195, 8.952759
342.6016, 1.937134
343.0837, 6.525269
343.5658, 0.7409670
344.0479, 11.27014
344.5301, 21.96594
345.0122, 34.38281
345.4943, 39.10205
345.9764, 29.72546
346.4585, 18.38025
346.9406, 13.78247
347.4228, 16.15955
347.9049, 20.03113
348.3870, 20.52808
348.8691, 17.60620
349.3512, 12.35144
349.8333, 0.9934080
350.3155, 9.052246
350.7976, 5.928589
351.2797, 3.395752
351.7618, 12.22705
352.2439, 17.80164
352.7260, 19.84631
353.2082, 15.45117
353.6903, 1.335327
354.1724, 5.434326
354.6545, 9.469727
355.1366, 26.92407
355.6187, 34.60168
356.1009, 31.18127
356.5830, 22.28748
357.0651, 7.673828
357.5472, 9.734131
358.0293, 15.57666
358.5114, 4.547241
358.9936, 9.278442
359.4757, 14.35608
359.9578, 13.84338
360.4399, 15.25549
360.9220, 25.83984
361.4041, 35.21094
361.8863, 29.77869
362.3684, 11.68079
362.8505, 2.175659
363.3326, 3.405151
363.8147, 3.827515
364.2968, 10.34058
364.7790, 17.72473
365.2611, 21.11609
365.7432, 14.63086
366.2253, 5.385742
366.7074, 3.640137
367.1895, 11.19995
367.6717, 20.44971
368.1538, 22.79370
368.6359, 16.40491
369.1180, 15.55872
369.6001, 29.12585
370.0822, 38.08411
370.5644, 29.34570
371.0465, 10.07092
371.5286, 4.476563
372.0107, 5.753052
372.4928, 2.841675
372.9749, 10.87646
373.4571, 18.54993
373.9392, 25.44910
374.4213, 30.42798
374.9034, 35.15991
375.3855, 43.26831
375.8676, 54.28662
376.3498, 61.41919
376.8319, 55.06116
377.3140, 34.93945
377.7961, 21.02747
378.2782, 17.23730
378.7603, 14.22473
379.2425, 4.687012
379.7246, 6.874756
380.2067, 10.60278
380.6888, 1.663818
381.1709, 17.94971
381.6530, 17.76135
382.1352, 0.5792240
382.6173, 6.317871
383.0994, 15.39050
383.5815, 44.35876
384.0636, 48.67297
384.5457, 24.36731
385.0279, 2.330688
385.5100, 4.781372
385.9921, 2.135620
386.4742, 4.097900
386.9563, 13.03455
387.4384, 21.44043
387.9206, 25.89417
388.4027, 26.61780
388.8848, 31.15906
389.3669, 47.94824
389.8490, 59.27283
390.3311, 53.69775
390.8133, 38.46838
391.2954, 26.97156
391.7775, 24.94165
392.2596, 28.12427
392.7417, 27.72571
393.2238, 17.66772
393.7060, 16.33105
394.1881, 34.75659
394.6702, 51.62671
395.1523, 50.35754
395.6344, 34.11646
396.1165, 19.31055
396.5987, 20.83484
397.0808, 35.23352
397.5629, 40.19495
398.0450, 29.80603
398.5271, 20.44543
399.0092, 16.07739
399.4914, 15.63965
399.9735, 19.22278
400.4556, 27.08496
400.9377, 34.63391
401.4198, 38.22998
401.9019, 37.87708
402.3841, 33.35791
402.8662, 21.75317
403.3483, 11.10657
403.8304, 10.29614
404.3125, 17.26990
404.7946, 23.11194
405.2768, 22.33936
405.7589, 21.79712
406.2410, 31.01721
406.7231, 47.70862
407.2052, 57.71716
407.6873, 52.39148
408.1695, 37.60608
408.6516, 30.27161
409.1337, 35.18469
409.6158, 38.37451
410.0979, 36.96021
410.5800, 33.85620
411.0622, 31.94763
411.5443, 31.33472
412.0264, 29.59338
412.5085, 24.71338
412.9906, 16.15332
413.4727, 14.13721
413.9549, 27.47925
414.4370, 37.76282
414.9191, 40.59180
415.4012, 37.90210
415.8833, 32.89465
416.3654, 27.45679
416.8476, 22.89551
417.3297, 20.36133
417.8118, 19.76135
418.2939, 22.70056
418.7760, 34.34741
419.2581, 43.86951
419.7403, 42.00806
420.2224, 31.77905
420.7045, 23.95422
421.1866, 25.93909
421.6687, 32.47668
422.1508, 35.89429
422.6330, 36.16541
423.1151, 35.70715
423.5972, 36.41602
424.0793, 36.14783
424.5614, 29.71790
425.0435, 14.50220
425.5257, 2.499268
426.0078, 3.218384
426.4899, 4.113037
426.9720, 1.451538
427.4541, 4.491577
427.9362, 14.58105
428.4184, 31.14917
428.9005, 53.62183
429.3826, 62.03577
429.8647, 45.25098
430.3468, 29.36255
430.8289, 16.13464
431.3111, 7.090332
431.7932, 5.027954
432.2753, 10.44897
432.7574, 18.83374
433.2395, 24.78955
433.7216, 28.25732
434.2038, 29.52441
434.6859, 27.37207
435.1680, 24.34644
435.6501, 19.72131
436.1322, 15.33850
436.6143, 15.39758
437.0965, 23.52014
437.5786, 33.84045
438.0607, 39.27942
438.5428, 41.39697
439.0249, 42.27991
439.5070, 42.56055
439.9892, 40.76892
440.4713, 33.34900
440.9534, 20.54797
441.4355, 14.08655
441.9176, 21.95972
442.3997, 33.50183
442.8819, 39.92822
443.3640, 40.84253
443.8461, 37.85083
444.3282, 30.82739
444.8103, 22.02600
445.2924, 20.45642
445.7746, 35.50061
446.2567, 45.53699
446.7388, 47.72009
447.2209, 45.90820
447.7030, 42.35571
448.1852, 37.88208
448.6673, 33.33643
449.1494, 29.31177
449.6315, 25.85303
450.1136, 23.07251
450.5957, 19.94922
451.0779, 19.50098
451.5600, 26.43335
452.0421, 35.06982
452.5242, 38.20459
453.0063, 33.59045
453.4884, 27.16504
453.9706, 22.30212
454.4527, 19.39258
454.9348, 20.59436
455.4169, 27.18823
455.8990, 33.57129
456.3811, 34.41309
456.8633, 29.89429
457.3454, 26.77405
457.8275, 25.64258
458.3096, 25.59277
458.7917, 27.88513
459.2738, 30.68848
459.7560, 31.35828
460.2381, 29.62036
460.7202, 26.05811
461.2023, 20.76465
461.6844, 11.90369
462.1665, 8.760010
462.6487, 18.14697
463.1308, 25.87549
463.6129, 24.71118
464.0950, 18.16895
464.5771, 13.52271
465.0592, 14.53467
465.5414, 18.18945
466.0235, 17.85425
466.5056, 12.62000
466.9877, 14.98010
467.4698, 33.98950
467.9519, 54.30701
468.4341, 62.79761
468.9162, 60.46851
469.3983, 53.29187
469.8804, 38.16309
470.3625, 22.75879
470.8446, 15.69250
471.3268, 16.13257
471.8089, 18.69312
472.2910, 20.98157
472.7731, 23.21179
473.2552, 25.84473
473.7373, 29.50281
474.2195, 32.96631
474.7016, 37.24036
475.1837, 39.46741
475.6658, 36.96350
476.1479, 30.92712
476.6300, 24.99280
477.1122, 21.45190
477.5943, 19.97241
478.0764, 19.23596
478.5585, 18.23376
479.0406, 20.63293
479.5227, 34.58008
480.0049, 46.91028
480.4870, 46.12524
480.9691, 32.97327
481.4512, 20.72083
481.9333, 18.32617
482.4154, 21.26978
482.8976, 21.85669
483.3797, 19.67896
483.8618, 16.96545
484.3439, 13.90564
484.8260, 12.44702
485.3081, 18.38574
485.7903, 36.62939
486.2724, 48.74670
486.7545, 48.38159
487.2366, 42.58313
487.7187, 34.33496
488.2008, 25.91760
488.6830, 23.66052
489.1651, 33.48108
489.6472, 51.20581
490.1293, 55.54407
490.6114, 34.73535
491.0935, 21.26575
491.5757, 24.55176
492.0578, 32.63464
492.5399, 39.02722
493.0220, 41.97742
493.5041, 39.09814
493.9862, 21.60144
494.4684, 1.703369
494.9505, 6.513672
495.4326, 9.279297
495.9147, 25.80078
496.3968, 34.85071
496.8789, 37.85632
497.3611, 37.79468
497.8432, 33.94421
498.3253, 29.64233
498.8074, 26.40552
499.2895, 22.69543
499.7716, 15.34497
500.2538, 5.393433
500.7359, 1.546875
501.2180, 1.437256
501.7001, 4.705444
502.1822, 12.79834
502.6643, 27.23938
503.1465, 36.07336
503.6286, 34.85193
504.1107, 30.82666
504.5928, 29.48108
505.0749, 30.80554
505.5570, 31.00708
506.0392, 25.52686
506.5213, 17.78833
507.0034, 17.89868
507.4855, 27.10364
507.9676, 32.70508
508.4497, 26.89905
508.9319, 17.08740
509.4140, 16.29138
509.8961, 26.47864
510.3782, 33.32483
510.8603, 29.70312
511.3424, 23.70264
511.8246, 24.29626
512.3067, 29.82971
512.7888, 30.64197
513.2709, 20.35522
513.7531, 4.613403
514.2352, 1.017090
514.7173, 22.09485
515.1994, 30.66077
515.6815, 11.02869
516.1636, 8.049561
516.6458, 7.810181
517.1279, 8.206543
517.6100, 24.85217
518.0921, 35.06067
518.5742, 39.07214
519.0563, 34.58032
519.5385, 21.53381
520.0206, 12.98926
520.5027, 14.41760
520.9848, 19.58997
521.4669, 21.25427
521.9490, 19.58960
522.4312, 16.04565
522.9133, 7.433350
523.3954, 0.1936040
523.8775, 1.540894
524.3596, 1.348145
524.8417, 8.092407
525.3239, 18.38550
525.8060, 27.31848
526.2881, 25.10254
526.7702, 6.400879
527.2523, 4.673340
527.7344, 1.862183
528.2166, 2.560181
528.6987, 5.443604
529.1808, 6.612061
529.6629, 5.914063
530.1450, 2.941162
530.6271, 0.6622310
531.1093, 5.221924
531.5914, 9.374756
532.0735, 5.232300
532.5556, 10.98669
533.0377, 25.64612
533.5198, 25.23669
534.0020, 11.38330
534.4841, 8.773926
534.9662, 32.84570
535.4483, 49.12720
535.9304, 36.56799
536.4125, 15.60291
536.8947, 14.57263
537.3768, 37.00256
537.8589, 60.17444
538.3410, 60.36536
538.8231, 39.58325
539.3052, 24.59131
539.7874, 16.52539
540.2695, 12.15051
540.7516, 11.71204
541.2337, 13.61816
541.7158, 16.84717
542.1979, 21.27942
542.6801, 25.95422
543.1622, 32.42993
543.6443, 37.79114
544.1264, 35.58447
544.6085, 26.52673
545.0906, 21.06543
545.5728, 25.64453
546.0549, 35.47070
546.5370, 38.29004
547.0191, 24.77893
547.5012, 20.07117
547.9833, 34.05737
548.4655, 47.79272
548.9476, 49.58997
549.4297, 41.63538
549.9117, 31.14478
550.3939, 21.39514
550.8760, 13.12061
551.3581, 6.724243
551.8402, 2.111938
552.3223, 3.373779
552.8044, 13.78491
553.2866, 26.73254
553.7687, 37.66455
554.2508, 45.86755
554.7329, 47.26855
555.2150, 35.99463
555.6971, 23.36499
556.1793, 13.36707
556.6614, 6.537231
557.1435, 3.991577
557.6256, 5.864746
558.1077, 10.76599
558.5898, 17.50256
559.0720, 26.16797
559.5541, 35.21350
560.0362, 49.59387
560.5183, 56.21228
561.0004, 46.53345
561.4825, 32.00293
561.9647, 23.75818
562.4468, 23.48010
562.9289, 23.71326
563.4110, 19.23376
563.8931, 12.55212
564.3752, 6.410645
564.8574, 1.197998
565.3395, 1.676270
565.8216, 12.16052
566.3037, 25.63574
566.7858, 27.59888
567.2679, 9.619141
567.7501, 8.0200002E-02
568.2322, 5.351196
568.7143, 13.05151
569.1964, 16.34570
569.6785, 16.58069
570.1606, 18.67371
570.6428, 24.96484
571.1249, 30.75879
571.6070, 25.25562
572.0891, 8.991943
572.5712, 8.534058
573.0533, 33.86914
573.5355, 59.11438
574.0176, 65.02539
574.4997, 57.67126
574.9818, 52.15112
575.4639, 51.31042
575.9460, 47.74902
576.4282, 33.23853
576.9103, 17.50330
577.3924, 12.73816
577.8745, 19.43945
578.3566, 30.30090
578.8387, 40.68945
579.3209, 49.47290
579.8030, 51.29126
580.2851, 42.35327
580.7672, 35.59021
581.2493, 37.71716
581.7314, 38.86853
582.2136, 30.59399
582.6957, 15.22217
583.1778, 3.507080
583.6599, 1.454102
584.1420, 3.091309
584.6241, 2.808228
585.1063, 0.6523440
585.5884, 2.349243
586.0705, 9.247314
586.5526, 18.31323
587.0347, 27.54211
587.5168, 36.37634
587.9990, 38.08850
588.4811, 25.47437
588.9632, 14.06409
589.4453, 1.749146
589.9274, 4.704224
590.4095, 6.112793
590.8917, 32.57812
591.3738, 53.55566
591.8559, 47.51941
592.3380, 26.26733
592.8201, 17.11743
593.3022, 19.95203
593.7844, 21.12854
594.2665, 13.90955
594.7486, 5.443726
595.2307, 7.881104
595.7128, 25.79968
596.1949, 34.49756
596.6771, 21.00281
597.1592, 11.67810
597.6413, 26.78088
598.1234, 51.19666
598.6055, 58.51489
599.0876, 41.12329
599.5698, 19.98401
600.0519, 24.46387
600.5340, 50.13501
601.0161, 54.17542
601.4982, 29.50122
601.9803, 6.093018
602.4625, 1.402832
602.9446, 0.6437990
603.4267, 3.6621001E-02
603.9088, 4.502441
604.3909, 6.126587
604.8730, 3.297485
605.3552, 3.072144
605.8373, 15.02515
606.3194, 29.78821
606.8015, 41.21863
607.2836, 46.44617
607.7657, 48.03796
608.2479, 50.89197
608.7300, 55.79333
609.2121, 53.88208
609.6942, 39.56909
610.1763, 27.30127
610.6584, 29.51562
611.1406, 36.97266
611.6227, 33.94690
612.1048, 14.32312
612.5869, 0.9483640
613.0690, 4.5288000E-02
613.5511, 8.218018
614.0333, 15.82556
614.5154, 21.48315
614.9975, 24.40723
615.4796, 24.06653
615.9617, 21.58228
616.4438, 18.65503
616.9260, 13.77271
617.4081, 14.25293
617.8902, 29.29846
618.3723, 39.01135
618.8544, 28.68347
619.3365, 8.352905
619.8187, 3.844360
620.3008, 2.216064
620.7829, 2.901245
621.2650, 4.656738
621.7471, 5.989746
622.2292, 13.45801
622.7114, 26.34521
623.1935, 35.70593
623.6756, 35.90137
624.1577, 29.14221
624.6398, 20.94641
625.1219, 9.056030
625.6041, 1.046631
626.0862, 3.370361
626.5683, 3.065308
627.0504, 6.130493
627.5325, 19.77771
628.0146, 29.04028
628.4968, 30.05432
628.9789, 30.38367
629.4610, 39.09265
629.9431, 50.25940
630.4252, 50.11157
630.9073, 38.22131
631.3895, 28.48743
631.8716, 30.78101
632.3537, 40.26648
632.8358, 41.85730
633.3179, 30.08374
633.8000, 21.39160
634.2822, 17.61682
634.7643, 15.42456
635.2464, 12.17358
635.7285, 9.541626
636.2106, 12.27539
636.6927, 24.14465
637.1749, 33.77759
637.6570, 28.56079
638.1391, 14.53540
638.6212, 3.700439
639.1033, 2.085571
639.5854, 0.4858400
640.0676, 11.96729
640.5497, 29.11499
641.0318, 31.35999
641.5139, 3.631226
641.9960, 9.616089
642.4781, 6.772095
642.9603, 21.79517
643.4424, 15.96094
643.9245, 0.2651370
644.4066, 6.675049
644.8887, 5.196167
645.3708, 20.72266
645.8530, 28.51978
646.3351, 30.90808
646.8172, 31.79480
647.2993, 31.75769
647.7814, 31.79712
648.2635, 33.23352
648.7457, 35.38330
649.2278, 37.41760
649.7099, 40.83020
650.1920, 40.74768
650.6741, 31.35889
651.1563, 24.68250
651.6384, 30.60278
652.1205, 41.00574
652.6026, 40.06714
653.0847, 21.35620
653.5668, 5.140747
654.0490, 10.22180
654.5311, 26.23157
655.0132, 36.93994
655.4953, 40.93677
655.9774, 38.24927
656.4595, 27.82251
656.9417, 15.48438
657.4238, 13.90869
657.9059, 28.39954
658.3880, 36.29712
658.8701, 28.85327
659.3522, 24.63806
659.8344, 36.44397
660.3165, 52.12158
660.7986, 53.34619
661.2807, 35.30151
661.7628, 18.18152
662.2449, 15.66821
662.7271, 20.88367
663.2092, 27.63306
663.6913, 33.88135
664.1734, 32.90442
664.6555, 21.40125
665.1376, 8.287598
665.6198, 8.309570
666.1019, 23.88440
666.5840, 32.90601
667.0661, 34.54016
667.5482, 30.52539
668.0303, 12.67627
668.5125, 4.916138
668.9946, 4.661987
669.4767, 15.04138
669.9588, 31.39966
670.4409, 33.59851
670.9230, 29.05005
671.4052, 18.59546
671.8873, 7.279663
672.3694, 9.082642
672.8515, 27.53540
673.3336, 47.44080
673.8157, 51.48706
674.2979, 40.85413
674.7800, 31.93274
675.2621, 24.07312
675.7442, 19.74243
676.2263, 22.65955
676.7084, 26.84534
677.1906, 25.33289
677.6727, 18.84277
678.1548, 16.78870
678.6369, 23.48706
679.1190, 32.68445
679.6011, 44.02563
680.0833, 54.38550
680.5654, 59.36121
681.0475, 58.41199
681.5296, 53.55725
682.0117, 45.53552
682.4938, 36.13770
682.9760, 30.75879
683.4581, 29.80774
683.9402, 29.26489
684.4223, 28.57422
684.9044, 28.73071
685.3865, 32.32788
685.8687, 37.51807
686.3508, 35.39111
686.8329, 14.80298
687.3150, 2.904785
687.7971, 14.58386
688.2792, 30.34399
688.7614, 33.78003
689.2435, 26.46790
689.7256, 17.47473
690.2077, 11.00940
690.6898, 7.266724
691.1719, 6.892090
691.6541, 9.594116
692.1362, 15.37427
692.6183, 25.18896
693.1004, 29.92920
693.5825, 21.95374
694.0646, 6.831055
694.5468, 2.723755
695.0289, 7.350830
695.5110, 4.120972
695.9931, 20.23376
696.4752, 37.76465
696.9573, 28.82898
697.4395, 8.512695
697.9216, 0.4859620
698.4037, 7.494019
698.8858, 18.95691
699.3679, 27.68982
699.8500, 30.89819
700.3322, 21.46484
700.8143, 2.161255
701.2964, 8.808105
701.7785, 4.550659
702.2606, 6.496460
702.7427, 15.28430
703.2249, 21.37024
703.7070, 26.03296
704.1891, 27.52161
704.6712, 30.60413
705.1533, 37.43677
705.6354, 45.49634
706.1176, 56.74500
706.5997, 69.05139
707.0818, 69.71936
707.5639, 39.75525
708.0460, 12.22754
708.5281, 13.39807
709.0103, 28.23230
709.4924, 33.78674
709.9745, 27.58911
710.4566, 21.93237
710.9387, 26.19141
711.4208, 35.69128
711.9030, 37.60815
712.3851, 30.96692
712.8672, 28.42554
713.3493, 34.11914
713.8314, 38.23059
714.3135, 31.33301
714.7957, 18.44714
715.2778, 15.81836
715.7599, 30.37744
716.2420, 39.69641
716.7241, 37.57922
717.2062, 32.33643
717.6884, 28.53125
718.1705, 25.50549
718.6526, 19.27136
719.1347, 8.577271
719.6168, 2.016113
720.0989, 12.87354
720.5811, 32.77966
721.0632, 40.92261
721.5453, 37.46558
722.0274, 31.85535
722.5095, 27.05481
722.9916, 25.19128
723.4738, 30.35681
723.9559, 43.40308
724.4380, 47.96411
724.9201, 37.12634
725.4022, 27.91736
725.8843, 23.37109
726.3665, 22.48303
726.8486, 23.82861
727.3307, 27.33313
727.8128, 29.45630
728.2949, 28.00085
728.7770, 26.09143
729.2592, 25.97461
729.7413, 26.57288
730.2234, 25.89587
730.7055, 24.09485
731.1876, 23.19666
731.6697, 24.48914
732.1519, 27.53845
732.6340, 32.98755
733.1161, 41.10461
733.5982, 41.74451
734.0803, 31.91235
734.5624, 20.95703
735.0446, 13.28564
735.5267, 8.918701
736.0088, 6.304565
736.4909, 4.763184
736.9730, 8.285645
737.4551, 24.38684
737.9373, 37.54968
738.4194, 38.89966
738.9015, 34.02124
739.3836, 29.62561
739.8657, 27.50769
740.3478, 27.93250
740.8300, 35.15527
741.3121, 42.36072
741.7942, 36.97791
742.2763, 22.99756
742.7584, 14.94995
743.2405, 16.46423
743.7227, 20.31616
744.2048, 20.01208
744.6869, 16.43359
745.1690, 14.20203
745.6511, 13.07983
746.1332, 13.57568
746.6154, 17.27734
747.0975, 21.33276
747.5796, 23.97095
748.0617, 25.56396
748.5438, 27.52637
749.0259, 32.58960
749.5081, 31.61365
749.9902, 11.97729
750.4723, 5.561279
750.9544, 2.469604
751.4365, 14.25159
751.9186, 29.89783
752.4008, 39.10449
752.8829, 43.73950
753.3650, 47.40540
753.8471, 48.14465
754.3292, 35.30969
754.8113, 10.92529
755.2935, 2.512451
755.7756, 20.62341
756.2577, 45.72021
756.7398, 57.09082
757.2219, 55.24780
757.7040, 49.08105
758.1862, 33.91309
758.6683, 23.17480
759.1504, 17.54822
759.6325, 18.05640
760.1146, 30.13916
760.5967, 48.28845
761.0789, 57.35022
761.5610, 51.26672
762.0431, 42.68677
762.5252, 37.36755
763.0073, 31.73315
763.4894, 19.79626
763.9716, 4.975098
764.4537, 3.734375
764.9358, 2.466431
765.4179, 4.373901
765.9000, 12.46899
766.3821, 20.08472
766.8643, 25.86401
767.3464, 29.79639
767.8285, 31.49683
768.3106, 30.26172
768.7927, 29.41211
769.2748, 33.43591
769.7570, 42.02332
770.2391, 45.38159
770.7212, 39.11633
771.2033, 35.01062
771.6854, 38.08728
772.1675, 40.58459
772.6497, 37.47302
773.1318, 29.84619
773.6139, 20.30774
774.0960, 5.848511
774.5781, 1.822021
775.0602, 10.87573
775.5424, 26.05176
776.0245, 23.50842
776.5066, 9.590332
776.9887, 2.832642
777.4708, 9.981445
777.9529, 20.33960
778.4351, 21.27930
778.9172, 16.19702
779.3993, 16.41748
779.8814, 21.66296
780.3635, 25.31982
780.8456, 24.84143
781.3278, 26.24988
781.8099, 38.32983
782.2920, 58.15454
782.7741, 55.82361
783.2562, 11.70471
783.7383, 14.50366
784.2205, 3.000488
784.7026, 14.83350
785.1847, 24.00574
785.6668, 26.11633
786.1489, 24.55249
786.6310, 18.35168
787.1132, 13.09534
787.5953, 9.281372
788.0774, 8.414673
788.5595, 12.89209
789.0416, 20.71594
789.5237, 28.31323
790.0059, 34.74487
790.4880, 42.24670
790.9701, 59.04370
791.4522, 74.06921
791.9343, 56.75635
792.4164, 15.89722
792.8986, 5.232544
793.3807, 3.060791
793.8628, 18.34338
794.3449, 22.79028
794.8270, 19.89331
795.3091, 22.33667
795.7913, 32.31921
796.2734, 39.51099
796.7555, 44.21692
797.2376, 44.31311
797.7197, 34.65344
798.2018, 21.49622
798.6840, 15.80603
799.1661, 18.38110
799.6482, 24.14441
800.1303, 40.78296
800.6124, 50.73352
801.0945, 42.26843
801.5767, 25.99036
802.0588, 10.26953
802.5409, 1.526123
803.0230, 2.900513
803.5051, 15.84253
803.9872, 35.57678
804.4694, 35.04541
804.9515, 22.67395
805.4336, 12.34045
805.9157, 6.206421
806.3978, 3.644287
806.8799, 4.414429
807.3621, 7.687622
807.8442, 13.31311
808.3263, 20.75586
808.8084, 23.34753
809.2905, 19.63965
809.7726, 20.76746
810.2548, 32.11035
810.7369, 43.20044
811.2190, 40.38232
811.7011, 23.78333
812.1832, 11.85730
812.6653, 3.252441
813.1475, 1.502563
813.6296, 13.67786
814.1117, 26.13599
814.5938, 29.97009
815.0759, 27.69031
815.5580, 25.69360
816.0402, 25.33484
816.5223, 25.04797
817.0044, 22.68005
817.4865, 21.52600
817.9686, 25.68689
818.4507, 32.59387
818.9329, 38.28870
819.4150, 41.32849
819.8971, 39.50427
820.3792, 28.72314
820.8613, 14.44482
821.3434, 5.805420
821.8256, 1.598022
822.3077, 4.983154
822.7898, 14.36414
823.2719, 15.08984
823.7540, 2.001709
824.2361, 26.59424
824.7183, 33.02563
825.2004, 18.63281
825.6825, 12.24402
826.1646, 17.79102
826.6467, 23.91309
827.1288, 25.92627
827.6110, 26.76794
828.0931, 29.38074
828.5752, 34.36951
829.0573, 37.63000
829.5394, 39.99243
830.0215, 39.54187
830.5037, 30.61816
830.9858, 23.52429
831.4679, 29.71509
831.9500, 43.39893
832.4321, 47.59631
832.9142, 34.62610
833.3964, 24.71948
833.8785, 33.75281
834.3606, 45.39001
834.8427, 42.45020
835.3248, 31.48413
835.8069, 26.55188
836.2891, 31.22461
836.7712, 39.43213
837.2533, 48.65759
837.7354, 55.48291
838.2175, 51.56592
838.6996, 39.83105
839.1818, 30.06226
839.6639, 24.61694
840.1460, 25.99780
840.6281, 38.09009
841.1102, 53.94788
841.5923, 56.99536
842.0745, 47.59265
842.5566, 41.31604
843.0387, 39.04114
843.5208, 35.83301
844.0029, 28.96985
844.4850, 21.84045
844.9672, 18.23987
845.4493, 18.12915
845.9314, 19.95898
846.4135, 28.69788
846.8956, 32.09753
847.3777, 25.69714
847.8599, 17.21240
848.3420, 6.084717
848.8241, 2.416382
849.3062, 3.985962
849.7883, 30.93213
850.2704, 51.79419
850.7526, 56.41431
851.2347, 52.52905
851.7168, 37.41907
852.1989, 19.96960
852.6810, 11.49695
853.1631, 13.29810
853.6453, 19.65991
854.1274, 29.09863
854.6095, 37.70715
855.0916, 41.91260
855.5737, 41.97400
856.0558, 35.75098
856.5380, 25.17261
857.0201, 20.23059
857.5022, 25.64514
857.9843, 34.61353
858.4664, 40.01990
858.9485, 41.24878
859.4307, 31.50256
859.9128, 10.63708
860.3949, 1.770264
860.8770, 12.45557
861.3591, 25.19141
861.8412, 24.61377
862.3234, 15.33191
862.8055, 13.70007
863.2876, 23.67798
863.7697, 28.16064
864.2518, 23.21802
864.7339, 19.34351
865.2161, 24.33362
865.6982, 30.13562
866.1803, 22.91638
866.6624, 2.148804
867.1445, 8.622314
867.6266, 0.6251220
868.1088, 6.312622
868.5909, 7.517944
869.0730, 7.021362
869.5551, 5.461304
870.0372, 4.995239
870.5193, 11.12476
871.0015, 27.01819
871.4836, 38.87927
871.9657, 37.82544
872.4478, 33.00745
872.9299, 29.98706
873.4120, 28.48169
873.8942, 28.98596
874.3763, 30.39026
874.8584, 27.16235
875.3405, 13.13623
875.8226, 0.3710940
876.3047, 2.692139
876.7869, 14.31506
877.2690, 19.47180
877.7511, 17.69751
878.2332, 13.00696
878.7153, 7.251099
879.1974, 4.149292
879.6796, 9.062866
880.1617, 19.30554
880.6438, 28.48975
881.1259, 36.63757
881.6080, 31.40320
882.0901, 7.437988
882.5723, 8.120239
883.0544, 6.450928
883.5365, 35.42114
884.0186, 38.17627
884.5007, 7.556274
884.9828, 5.212524
885.4650, 4.964478
885.9471, 19.46448
886.4292, 36.68054
886.9113, 48.65942
887.3934, 44.60132
887.8755, 26.21826
888.3577, 12.92810
888.8398, 4.971069
889.3219, 1.805054
889.8040, 5.072998
890.2861, 11.16736
890.7682, 22.83069
891.2504, 34.22119
891.7325, 34.52368
892.2146, 21.81836
892.6967, 15.40784
893.1788, 25.41357
893.6609, 34.67737
894.1431, 37.74219
894.6252, 36.40613
895.1073, 31.78613
895.5894, 24.45020
896.0715, 13.61243
896.5536, 2.857422
897.0358, 12.77881
897.5179, 2.860962
898.0000, 11.07019
898.4821, 11.99609
898.9642, 8.879272
899.4464, 19.41528
899.9285, 42.87146
900.4106, 58.04553
900.8927, 48.84253
901.3748, 31.51355
901.8569, 22.11047
902.3391, 20.03857
902.8212, 28.45959
903.3033, 43.62573
903.7854, 50.72571
904.2675, 44.52869
904.7496, 33.06775
905.2318, 22.87183
905.7139, 15.54004
906.1960, 18.44617
906.6781, 29.32092
907.1602, 32.12354
907.6423, 24.08887
908.1245, 20.29907
908.6066, 30.38196
909.0887, 44.36560
909.5708, 42.62866
910.0529, 25.60071
910.5350, 19.18774
911.0172, 25.24561
911.4993, 30.89783
911.9814, 34.07104
912.4635, 31.44690
912.9456, 16.80603
913.4277, 2.958496
913.9099, 2.781250
914.3920, 27.81409
914.8741, 45.72144
915.3562, 45.27087
915.8383, 42.84436
916.3204, 45.07886
916.8026, 47.07349
917.2847, 42.34131
917.7668, 31.56787
918.2489, 24.33325
918.7310, 22.37830
919.2131, 21.53528
919.6953, 24.38550
920.1774, 25.25879
920.6595, 18.31226
921.1416, 9.374756
921.6237, 7.704346
922.1058, 14.18701
922.5880, 18.13000
923.0701, 14.89172
923.5522, 12.36279
924.0343, 12.27100
924.5164, 14.47791
924.9985, 21.83545
925.4807, 31.00256
925.9628, 30.96802
926.4449, 18.00806
926.9270, 7.624146
927.4091, 9.244385
927.8912, 12.77258
928.3734, 11.46619
928.8555, 8.536133
929.3376, 6.517090
929.8197, 6.877563
930.3018, 13.25500
930.7839, 28.65662
931.2661, 42.21155
931.7482, 45.38660
932.2303, 42.85986
932.7124, 37.05432
933.1945, 30.41809
933.6766, 27.43164
934.1588, 28.49304
934.6409, 28.56238
935.1230, 23.58191
935.6051, 19.45068
936.0872, 26.69177
936.5693, 37.95825
937.0515, 37.90015
937.5336, 29.08630
938.0157, 25.57434
938.4978, 31.55542
938.9799, 37.30518
939.4620, 33.85034
939.9442, 25.96375
940.4263, 20.61047
940.9084, 19.24329
941.3905, 23.95508
941.8726, 34.21448
942.3547, 46.15076
942.8369, 57.87671
943.3190, 63.15869
943.8011, 50.24988
944.2832, 26.88623
944.7653, 22.93298
945.2474, 36.43896
945.7296, 42.18835
946.2117, 36.30310
946.6938, 30.98193
947.1759, 33.16528
947.6580, 37.53979
948.1401, 35.37280
948.6223, 27.42700
949.1044, 22.46106
949.5865, 20.68542
950.0686, 19.06226
950.5507, 16.33167
951.0328, 18.41724
951.5150, 31.48303
951.9971, 46.62439
952.4792, 42.42188
952.9613, 15.61548
953.4434, 10.61768
953.9255, 35.88806
954.4077, 49.20215
954.8898, 36.95605
955.3719, 16.75903
955.8540, 3.036133
956.3361, 18.21631
956.8182, 13.78650
957.3004, 19.39575
957.7825, 35.87744
958.2646, 27.97351
958.7467, 20.68384
959.2288, 22.21875
959.7109, 25.57288
960.1931, 23.23633
960.6752, 17.44104
961.1573, 18.66541
961.6394, 33.27283
962.1215, 40.39575
962.6036, 37.93909
963.0858, 30.89478
963.5679, 14.38184
964.0500, 4.4188999E-02
964.5321, 4.427002
965.0142, 23.98523
965.4963, 30.13293
965.9785, 8.511963
966.4606, 3.473755
966.9427, 1.794678
967.4248, 4.723389
967.9069, 20.17261
968.3890, 33.75122
968.8712, 29.51917
969.3533, 9.318481
969.8354, 0.8387450
970.3175, 11.16602
970.7996, 17.49109
971.2817, 7.276001
971.7639, 0.2889400
972.2460, 9.046265
972.7281, 23.38965
973.2102, 26.91394
973.6923, 19.16016
974.1744, 11.74609
974.6566, 2.744263
975.1387, 0.1075440
975.6208, 8.704346
976.1029, 18.87085
976.5850, 24.26367
977.0671, 26.99988
977.5493, 31.39258
978.0314, 37.69250
978.5135, 39.71997
978.9956, 31.08362
979.4777, 24.95190
979.9598, 29.24841
980.4420, 32.96741
980.9241, 23.77563
981.4062, 11.06250
981.8883, 12.79468
982.3704, 31.19421
982.8525, 45.09900
983.3347, 47.17102
983.8168, 45.23926
984.2989, 40.33594
984.7810, 34.17493
985.2631, 24.42151
985.7452, 15.92236
986.2274, 20.32898
986.7095, 38.60046
987.1916, 46.48254
987.6737, 20.12207
988.1558, 1.556885
988.6379, 18.07385
989.1201, 41.33130
989.6022, 50.04919
990.0843, 46.46558
990.5664, 36.70715
991.0485, 22.09705
991.5306, 10.78894
992.0128, 7.049438
992.4949, 5.994141
992.9770, 8.267334
993.4591, 9.835571
993.9412, 2.802246
994.4233, 6.881592
994.9055, 6.156494
995.3876, 7.882080
995.8697, 19.97876
996.3518, 24.47583
996.8339, 24.36011
997.3160, 16.57593
997.7982, 8.785034
998.2803, 8.211670
998.7624, 13.09766
999.2445, 19.56604
999.7266, 26.72266
1000.209, 31.44360
1000.691, 29.50842
1001.173, 28.34961
1001.655, 33.70300
1002.137, 40.01086
1002.619, 42.61072
1003.101, 41.88098
1003.584, 38.78650
1004.066, 33.61829
1004.548, 30.23462
1005.030, 30.90308
1005.512, 33.13416
1005.994, 39.38159
1006.476, 44.49878
1006.958, 41.68225
1007.440, 34.04407
1007.923, 29.54285
1008.405, 29.84058
1008.887, 30.03662
1009.369, 27.53760
1009.851, 25.12891
1010.333, 22.66211
1010.815, 22.23865
1011.297, 27.08032
1011.780, 34.81616
1012.262, 41.41382
1012.744, 45.96814
1013.226, 48.09424
1013.708, 45.88110
1014.190, 42.38647
1014.672, 40.83533
1015.154, 40.14111
1015.636, 37.50427
1016.119, 34.24951
1016.601, 33.76306
1017.083, 36.33777
1017.565, 35.51172
1018.047, 23.37683
1018.529, 15.16113
1019.011, 21.69165
1019.493, 29.14954
1019.976, 26.06445
1020.458, 17.49963
1020.940, 11.99500
1021.422, 10.71960
1021.904, 11.01294
1022.386, 12.70593
1022.868, 14.98706
1023.350, 18.29346
1023.832, 21.39612
1024.315, 22.90613
1024.797, 24.02173
1025.279, 26.35693
1025.761, 29.82629
1026.243, 32.28003
1026.725, 29.36694
1027.207, 31.35278
1027.689, 50.79028
1028.172, 64.18286
1028.654, 50.56543
1029.136, 28.84436
1029.618, 25.55750
1030.100, 39.50183
1030.582, 45.20056
1031.064, 34.88452
1031.546, 23.25488
1032.028, 6.298706
1032.511, 4.202148
1032.993, 2.697388
1033.475, 15.57568
1033.957, 23.58594
1034.439, 26.54749
1034.921, 26.15820
1035.403, 19.16687
1035.885, 15.67676
1036.368, 17.12292
1036.850, 21.04504
1037.332, 28.16541
1037.814, 36.17004
1038.296, 46.17590
1038.778, 55.49280
1039.260, 52.60913
1039.742, 28.72473
1040.224, 16.21838
1040.707, 21.76904
1041.189, 28.53003
1041.671, 37.08203
1042.153, 39.25635
1042.635, 22.82544
1043.117, 2.222168
1043.599, 7.315308
1044.081, 13.69775
1044.563, 24.21106
1045.046, 18.45349
1045.528, 15.48999
1046.010, 20.51440
1046.492, 26.84729
1046.974, 30.87402
1047.456, 32.41919
1047.938, 30.54309
1048.420, 24.92151
1048.902, 23.37878
1049.385, 28.59021
1049.867, 25.43176
1050.349, 6.716309
1050.831, 3.047974
1051.313, 13.02979
1051.795, 36.37354
1052.277, 37.07788
1052.759, 18.96948
1053.242, 20.69653
1053.724, 44.97961
1054.206, 53.15503
1054.688, 39.21338
1055.170, 22.77295
1055.652, 11.95471
1056.134, 6.304565
1056.616, 5.502686
1057.099, 9.135864
1057.581, 17.23999
1058.063, 29.21533
1058.545, 37.75183
1059.027, 42.16638
1059.509, 40.74341
1059.991, 31.55811
1060.473, 20.22388
1060.955, 11.60974
1061.438, 5.942627
1061.920, 6.105347
1062.402, 9.276489
1062.884, 1.477539
1063.366, 14.26855
1063.848, 20.00806
1064.330, 12.15149
1064.812, 0.3643800
1065.294, 9.397949
1065.777, 17.28442
1066.259, 22.36572
1066.741, 26.33020
1067.223, 34.97363
1067.705, 44.49609
1068.187, 43.03491
1068.669, 31.88867
1069.151, 25.53870
1069.634, 30.77747
1070.116, 35.73950
1070.598, 24.94446
1071.080, 13.01172
1071.562, 21.12939
1072.044, 35.65076
1072.526, 33.14160
1073.008, 19.32556
1073.490, 15.68042
1073.973, 28.15735
1074.455, 41.84631
1074.937, 51.02332
1075.419, 54.47046
1075.901, 47.65564
1076.383, 38.11072
1076.865, 32.36389
1077.347, 29.00195
1077.829, 24.08533
1078.312, 17.55151
1078.794, 13.92175
1079.276, 16.10303
1079.758, 18.57849
1080.240, 19.00281
1080.722, 19.91528
1081.204, 21.92871
1081.686, 25.75623
1082.169, 33.67651
1082.651, 44.21362
1083.133, 51.44434
1083.615, 55.67480
1084.097, 53.88928
1084.579, 37.08997
1085.061, 26.29358
1085.543, 31.91638
1086.026, 39.88477
1086.508, 40.76416
1086.990, 37.11560
1087.472, 34.85620
1087.954, 34.83765
1088.436, 26.80701
1088.918, 1.891724
1089.400, 5.635010
1089.882, 16.57068
1090.365, 37.37781
1090.847, 41.77539
1091.329, 37.16321
1091.811, 33.04297
1092.293, 29.35779
1092.775, 25.47839
1093.257, 21.17920
1093.739, 20.36292
1094.221, 23.52478
1094.704, 26.96643
1095.186, 29.52722
1095.668, 30.07703
1096.150, 27.18347
1096.632, 23.32324
1097.114, 25.92542
1097.596, 32.25549
1098.078, 27.77368
1098.561, 14.93091
1099.043, 7.830078
1099.525, 8.990234
1100.007, 13.79858
1100.489, 19.87964
1100.971, 24.40576
1101.453, 24.66699
1101.935, 22.11548
1102.417, 14.64978
1102.900, 7.120972
1103.382, 9.916382
1103.864, 19.82971
1104.346, 23.46619
1104.828, 17.45557
1105.310, 14.45496
1105.792, 27.01929
1106.274, 37.78687
1106.756, 29.81641
1107.239, 18.83191
1107.721, 18.83130
1108.203, 25.88501
1108.685, 33.63269
1109.167, 41.20825
1109.649, 47.61829
1110.131, 52.35791
1110.613, 57.50378
1111.096, 73.17151
1111.578, 78.43945
1112.060, 52.46436
1112.542, 23.52319
1113.024, 17.12512
1113.506, 26.10107
1113.988, 30.44995
1114.470, 29.15710
1114.953, 28.37390
1115.435, 31.85376
1115.917, 27.08008
1116.399, 4.732422
1116.881, 10.31055
1117.363, 4.756470
1117.845, 12.27319
1118.327, 32.30371
1118.809, 52.30139
1119.292, 53.42078
1119.774, 33.56030
1120.256, 24.61804
1120.738, 28.87122
1121.220, 29.90747
1121.702, 23.67651
1122.184, 18.58435
1122.666, 20.37732
1123.148, 26.08545
1123.631, 32.36987
1124.113, 39.06360
1124.595, 47.68640
1125.077, 56.10364
1125.559, 57.08508
1126.041, 50.12659
1126.523, 34.91846
1127.005, 12.40259
1127.488, 2.712769
1127.970, 33.19629
1128.452, 67.96606
1128.934, 66.54700
1129.416, 50.80432
1129.898, 45.89832
1130.380, 47.34326
1130.862, 42.45251
1131.344, 30.55505
1131.827, 20.51123
1132.309, 14.76929
1132.791, 13.32861
1133.273, 19.76514
1133.755, 26.00781
1134.237, 25.71790
1134.719, 25.89319
1135.201, 36.78882
1135.683, 51.83557
1136.166, 55.04248
1136.648, 44.38184
1137.130, 32.25830
1137.612, 13.57825
1138.094, 4.473145
1138.576, 11.37842
1139.058, 17.24011
1139.540, 13.32996
1140.023, 8.704834
1140.505, 13.26721
1140.987, 23.87378
1141.469, 33.40576
1141.951, 41.97119
1142.433, 37.71619
1142.915, 20.67078
1143.397, 11.06799
1143.880, 12.87109
1144.362, 14.94434
1144.844, 10.75171
1145.326, 5.520630
1145.808, 5.577759
1146.290, 9.270142
1146.772, 14.48108
1147.254, 19.90515
1147.736, 24.40442
1148.219, 27.84290
1148.701, 32.15588
1149.183, 37.34106
1149.665, 40.10168
1150.147, 38.45435
1150.629, 34.47339
1151.111, 28.71558
1151.593, 22.03308
1152.075, 13.41882
1152.558, 5.481689
1153.040, 0.9830320
1153.522, 9.8389000E-02
1154.004, 0.4112550
1154.486, 2.957397
1154.968, 4.800659
1155.450, 3.219360
1155.932, 4.739258
1156.415, 12.72253
1156.897, 20.25378
1157.379, 26.81531
1157.861, 27.50916
1158.343, 13.19739
1158.825, 8.925293
1159.307, 7.473877
1159.789, 21.46594
1160.271, 31.27197
1160.754, 20.30713
1161.236, 16.54175
1161.718, 25.91479
1162.200, 34.54504
1162.682, 34.60388
1163.164, 30.42896
1163.646, 26.77124
1164.128, 23.10974
1164.610, 16.83838
1165.093, 10.44641
1165.575, 11.82361
1166.057, 17.25464
1166.539, 13.58093
1167.021, 0.3476560
1167.503, 6.753174
1167.985, 1.301147
1168.467, 10.47205
1168.950, 11.31128
1169.432, 11.48901
1169.914, 17.64209
1170.396, 23.97839
1170.878, 22.80603
1171.360, 18.27087
1171.842, 20.04590
1172.324, 29.27856
1172.807, 36.06958
1173.289, 42.36658
1173.771, 41.19507
1174.253, 27.18188
1174.735, 15.82556
1175.217, 14.46509
1175.699, 16.54602
1176.181, 16.58325
1176.663, 15.34497
1177.146, 14.58911
1177.628, 14.16516
1178.110, 11.59753
1178.592, 7.404907
1179.074, 6.606934
1179.556, 9.868896
1180.038, 18.16846
1180.520, 31.15527
1181.002, 40.73462
1181.485, 40.43164
1181.967, 33.34485
1182.449, 14.75122
1182.931, 1.100220
1183.413, 10.76025
1183.895, 32.68530
1184.377, 34.91089
1184.859, 21.29248
1185.342, 15.44739
1185.824, 23.91943
1186.306, 27.89783
1186.788, 13.77893
1187.270, 6.256592
1187.752, 21.13831
1188.234, 31.78601
1188.716, 15.72546
1189.198, 1.4282000E-02
1189.681, 16.97363
1190.163, 52.25366
1190.645, 56.88623
1191.127, 26.81311
1191.609, 8.335815
1192.091, 1.671143
1192.573, 5.622925
1193.055, 20.23901
1193.537, 27.48914
1194.020, 19.13074
1194.502, 9.564087
1194.984, 13.61865
1195.466, 23.60876
1195.948, 30.42346
1196.430, 31.91797
1196.912, 17.67871
1197.394, 1.920776
1197.877, 4.833618
1198.359, 7.718384
1198.841, 21.04016
1199.323, 30.73096
1199.805, 32.06995
1200.287, 10.16870
1200.769, 1.879883
1201.251, 21.99866
1201.734, 42.92078
1202.216, 28.55823
1202.698, 6.409424
1203.180, 10.69141
1203.662, 30.84473
1204.144, 31.10999
1204.626, 6.444458
1205.108, 2.832764
1205.590, 25.04553
1206.073, 34.11719
1206.555, 22.31873
1207.037, 11.56897
1207.519, 10.19861
1208.001, 15.09277
1208.483, 24.94641
1208.965, 33.94385
1209.447, 31.13953
1209.929, 21.13098
1210.412, 6.548584
1210.894, 5.690063
1211.376, 1.741455
1211.858, 23.44714
1212.340, 37.36804
1212.822, 37.02271
1213.304, 33.08105
1213.786, 28.07642
1214.269, 23.37683
1214.751, 14.94592
1215.233, 12.75452
1215.715, 32.83167
1216.197, 51.09583
1216.679, 42.49792
1217.161, 18.54004
1217.643, 6.560425
1218.125, 6.877930
1218.608, 9.601685
1219.090, 15.18164
1219.572, 15.83081
1220.054, 10.69006
1220.536, 12.04578
1221.018, 23.90356
1221.500, 34.99243
1221.982, 36.65271
1222.464, 35.64148
1222.947, 39.88440
1223.429, 43.67395
1223.911, 39.26624
1224.393, 30.40479
1224.875, 21.57385
1225.357, 14.06506
1225.839, 9.333740
1226.321, 7.366943
1226.804, 5.312378
1227.286, 1.209717
1227.768, 0.4884030
1228.250, 1.504517
1228.732, 4.918579
1229.214, 9.371704
1229.696, 10.77539
1230.178, 4.516479
1230.661, 2.280762
1231.143, 1.675415
1231.625, 13.33142
1232.107, 18.19177
1232.589, 17.02234
1233.071, 17.06421
1233.553, 18.41760
1234.035, 18.80933
1234.517, 18.04602
1235.000, 18.39868
1235.482, 20.92834
1235.964, 23.68237
1236.446, 26.32520
1236.928, 26.83032
1237.410, 23.04089
1237.892, 17.46899
1238.374, 8.603271
1238.856, 2.153687
1239.339, 3.965210
1239.821, 12.53906
1240.303, 22.48340
1240.785, 35.37024
1241.267, 35.89758
1241.749, 18.73804
1242.231, 7.171997
1242.713, 4.367432
1243.196, 3.412598
1243.678, 1.909790
1244.160, 0.5626220
1244.642, 6.5186001E-02
1245.124, 0.0000000E+00
##END=



