##NAMES=Billingsleyite
##RRUFFID=R070350
##IDEAL CHEMISTRY=Ag_7_AsS_6_
##LOCALITY=North Lily Mine, East Tintic District, East Tintic Mts, Utah County, Utah, USA
##OWNER=RRUFF
##SOURCE=Michael Scott
##DESCRIPTION=Steel-grey fine-grained loose aggregates, co-type sample
##STATUS=The identification of this mineral is confirmed by single-crystal X-ray diffraction and chemical analysis.
##URL=rruff.info/R070350
##MEASURED CHEMISTRY=(Ag_6.94_Cu_0.04_Fe_0.01_)_Σ6.99_(As_0.87_Sb_0.13_)_Σ1.00_S_6.01_
164.6075, 0.0000000E+00
165.0896, 1.707718
165.5717, 1.587219
166.0538, 0.1718290
166.5359, 0.1596070
167.0180, 1.394836
167.5002, 7.410904
167.9823, 13.02983
168.4644, 13.14456
168.9465, 6.402939
169.4286, 0.8777310
169.9107, 5.463501
170.3929, 15.73387
170.8750, 22.50804
171.3571, 17.43852
171.8392, 7.988876
172.3213, 1.993057
172.8034, 0.7539060
173.2856, 2.067245
173.7677, 5.774124
174.2498, 10.91805
174.7319, 14.16689
175.2140, 11.52733
175.6961, 6.185699
176.1783, 3.123413
176.6604, 3.757324
177.1425, 6.049362
177.6246, 7.830719
178.1067, 9.144394
178.5888, 10.40623
179.0710, 12.38159
179.5531, 14.50374
180.0352, 15.43202
180.5173, 14.65338
180.9994, 12.71169
181.4815, 9.859390
181.9637, 6.125961
182.4458, 3.199432
182.9279, 3.288132
183.4100, 5.584976
183.8921, 6.951752
184.3742, 5.743744
184.8564, 3.361008
185.3385, 3.184570
185.8206, 5.312775
186.3027, 8.438293
186.7848, 11.86989
187.2669, 15.44467
187.7491, 18.06473
188.2312, 19.27527
188.7133, 19.23120
189.1954, 17.94586
189.6775, 15.05984
190.1596, 12.59091
190.6418, 13.90799
191.1239, 18.88855
191.6060, 22.76608
192.0881, 23.02133
192.5702, 20.10973
193.0524, 17.93152
193.5345, 16.50026
194.0166, 15.76367
194.4987, 15.69522
194.9808, 16.29987
195.4629, 17.52403
195.9451, 19.90900
196.4272, 23.43575
196.9093, 25.14375
197.3914, 24.47453
197.8735, 22.71947
198.3556, 22.62569
198.8378, 24.54077
199.3199, 25.91985
199.8020, 24.93776
200.2841, 21.38284
200.7662, 18.69695
201.2483, 16.96112
201.7305, 16.30609
202.2126, 17.65207
202.6947, 21.69989
203.1768, 25.13278
203.6589, 25.34689
204.1410, 21.68599
204.6232, 19.45496
205.1053, 19.20142
205.5874, 20.63962
206.0695, 23.59840
206.5516, 29.28909
207.0337, 33.31882
207.5159, 31.70940
207.9980, 22.92825
208.4801, 15.87172
208.9622, 11.34103
209.4443, 9.368454
209.9264, 10.69043
210.4086, 16.63092
210.8907, 23.22212
211.3728, 27.16702
211.8549, 27.64040
212.3370, 28.49174
212.8191, 30.85025
213.3013, 34.27512
213.7834, 34.76573
214.2655, 30.90054
214.7476, 26.37596
215.2297, 24.56274
215.7118, 26.41315
216.1940, 28.26711
216.6761, 29.32101
217.1582, 29.64923
217.6403, 31.05069
218.1224, 34.22664
218.6045, 37.52048
219.0867, 39.52361
219.5688, 40.48160
220.0509, 39.38217
220.5330, 35.17854
221.0151, 27.69360
221.4972, 22.89133
221.9794, 21.33047
222.4615, 21.65182
222.9436, 22.76814
223.4257, 25.02711
223.9078, 27.47273
224.3899, 30.48232
224.8721, 34.33099
225.3542, 34.81543
225.8363, 29.48544
226.3184, 23.11394
226.8005, 21.88660
227.2827, 29.42902
227.7648, 35.13698
228.2469, 35.48401
228.7290, 29.35664
229.2111, 26.89136
229.6932, 30.70120
230.1754, 36.08597
230.6575, 36.30092
231.1396, 27.18185
231.6217, 20.34001
232.1038, 19.96083
232.5859, 27.97343
233.0681, 31.74625
233.5502, 28.77983
234.0323, 23.37010
234.5144, 21.96439
234.9965, 27.07422
235.4786, 32.00145
235.9608, 34.93268
236.4429, 35.74904
236.9250, 34.76471
237.4071, 30.36911
237.8892, 25.18388
238.3713, 23.61302
238.8535, 27.73453
239.3356, 32.02029
239.8177, 34.96268
240.2998, 36.66260
240.7819, 36.28200
241.2640, 31.77698
241.7462, 26.36902
242.2283, 26.18611
242.7104, 35.37613
243.1925, 42.93399
243.6746, 44.51239
244.1567, 37.43954
244.6389, 33.65213
245.1210, 34.35486
245.6031, 37.52756
246.0852, 39.97942
246.5673, 42.05563
247.0494, 42.80557
247.5316, 41.59299
248.0137, 37.59015
248.4958, 34.37860
248.9779, 31.98602
249.4600, 30.40555
249.9421, 30.19649
250.4243, 31.99278
250.9064, 33.39409
251.3885, 33.07368
251.8706, 29.76120
252.3527, 28.22476
252.8348, 28.79585
253.3170, 31.07822
253.7991, 34.96439
254.2812, 41.91000
254.7633, 47.21039
255.2454, 48.85532
255.7275, 45.89877
256.2097, 42.55659
256.6918, 38.28697
257.1739, 34.25121
257.6560, 32.70027
258.1381, 34.82466
258.6202, 36.44749
259.1024, 35.41629
259.5845, 30.53824
260.0666, 28.18689
260.5487, 29.33456
261.0308, 32.27965
261.5129, 33.71553
261.9951, 32.71371
262.4772, 32.41331
262.9593, 34.51360
263.4414, 39.95790
263.9235, 43.51363
264.4056, 45.44878
264.8878, 45.26123
265.3699, 41.17709
265.8520, 31.20056
266.3341, 22.94301
266.8162, 20.26608
267.2983, 24.57846
267.7805, 24.91574
268.2626, 19.11160
268.7447, 11.74522
269.2268, 11.61911
269.7089, 20.84731
270.1910, 29.71812
270.6732, 34.30865
271.1553, 34.11841
271.6374, 34.57614
272.1195, 36.45848
272.6016, 37.84648
273.0837, 34.41498
273.5659, 24.76033
274.0480, 17.39381
274.5301, 16.71278
275.0122, 23.05128
275.4943, 26.39267
275.9764, 26.02324
276.4586, 23.99945
276.9407, 23.47667
277.4228, 24.67502
277.9049, 25.53313
278.3870, 24.74968
278.8691, 22.46674
279.3513, 22.13004
279.8334, 24.05667
280.3155, 27.11510
280.7976, 30.40347
281.2798, 34.00591
281.7619, 36.08621
282.2440, 36.18765
282.7261, 34.28302
283.2082, 29.04224
283.6903, 19.49171
284.1725, 10.18991
284.6546, 8.083313
285.1367, 12.88205
285.6188, 16.32953
286.1009, 14.21973
286.5830, 8.273148
287.0652, 6.168121
287.5473, 8.287079
288.0294, 12.09039
288.5115, 16.09886
288.9936, 19.98659
289.4757, 20.82124
289.9579, 15.20338
290.4400, 6.433350
290.9221, 4.451401
291.4042, 9.687408
291.8863, 16.33684
292.3684, 18.68892
292.8506, 17.45830
293.3327, 15.73013
293.8148, 13.91985
294.2969, 12.51485
294.7790, 12.79889
295.2611, 14.77704
295.7433, 16.89647
296.2254, 17.89136
296.7075, 17.97409
297.1896, 17.55885
297.6717, 15.64157
298.1538, 14.24416
298.6360, 17.86790
299.1181, 26.05638
299.6002, 33.06444
300.0823, 35.20161
300.5644, 33.00467
301.0465, 26.70784
301.5287, 12.57042
302.0108, 0.8550110
302.4929, 1.228058
302.9750, 9.378815
303.4571, 19.12442
303.9392, 18.49921
304.4214, 12.70023
304.9035, 9.001205
305.3856, 10.77567
305.8677, 12.55666
306.3498, 8.385529
306.8319, 0.1492460
307.3141, 7.548309
307.7962, 11.10541
308.2783, 11.61655
308.7604, 9.157196
309.2425, 1.946304
309.7246, 4.202774
310.2068, 4.494980
310.6889, 0.6893770
311.1710, 2.625427
311.6531, 3.035522
312.1352, 2.235870
312.6173, 1.251953
313.0995, 8.8200001E-03
313.5816, 0.6697850
314.0637, 1.121170
314.5458, 3.713852
315.0279, 4.030548
315.5100, 2.698196
315.9922, 9.310211
316.4743, 11.36223
316.9564, 7.087326
317.4385, 3.468765
317.9206, 3.340454
318.4027, 5.125671
318.8849, 6.620529
319.3670, 6.223846
319.8491, 6.325562
320.3312, 8.631851
320.8133, 14.04893
321.2954, 16.82863
321.7776, 12.63998
322.2597, 6.524216
322.7418, 3.854507
323.2239, 9.833939
323.7060, 14.90564
324.1881, 16.38397
324.6703, 13.85898
325.1524, 11.96912
325.6345, 11.03102
326.1166, 10.87032
326.5987, 11.35147
327.0808, 13.81055
327.5630, 15.31360
328.0451, 14.61072
328.5272, 11.90346
329.0093, 11.84380
329.4914, 18.21277
329.9735, 23.81709
330.4557, 23.32823
330.9378, 9.859085
331.4199, 2.533951
331.9020, 5.288193
332.3841, 15.70578
332.8662, 22.03735
333.3484, 23.21996
333.8305, 21.95233
334.3126, 19.17184
334.7947, 13.51880
335.2768, 9.724258
335.7589, 9.036957
336.2411, 10.28172
336.7232, 10.32715
337.2053, 8.892700
337.6874, 7.093491
338.1695, 4.606155
338.6516, 0.9420170
339.1338, 1.971359
339.6159, 9.540497
340.0980, 19.13472
340.5801, 22.28183
341.0622, 18.30507
341.5443, 14.39275
342.0265, 14.15828
342.5086, 17.01663
342.9907, 16.75163
343.4728, 12.66675
343.9549, 8.214249
344.4370, 8.352753
344.9192, 12.64421
345.4013, 16.45627
345.8834, 18.70947
346.3655, 19.51717
346.8476, 18.05849
347.3297, 14.32327
347.8119, 11.83656
348.2940, 15.42636
348.7761, 23.04868
349.2582, 28.87042
349.7403, 31.73494
350.2225, 32.19769
350.7046, 30.26207
351.1867, 25.90863
351.6688, 21.20898
352.1509, 17.18962
352.6331, 14.38081
353.1152, 13.58148
353.5973, 15.18216
354.0794, 18.43431
354.5615, 24.60686
355.0436, 32.26009
355.5258, 37.12698
356.0079, 33.35477
356.4900, 27.74728
356.9721, 26.90915
357.4542, 33.19435
357.9363, 39.18623
358.4185, 40.36156
358.9006, 38.55324
359.3827, 36.93108
359.8648, 36.27252
360.3469, 36.45059
360.8290, 37.95445
361.3112, 41.08403
361.7933, 43.07466
362.2754, 41.93544
362.7575, 39.64571
363.2396, 38.35022
363.7217, 38.23430
364.2039, 39.49278
364.6860, 43.23016
365.1681, 48.81439
365.6502, 52.41414
366.1323, 52.33395
366.6144, 51.44366
367.0966, 51.85399
367.5787, 56.80293
368.0608, 58.33554
368.5429, 53.56380
369.0250, 44.07256
369.5071, 39.05562
369.9893, 41.69704
370.4714, 45.24710
370.9535, 46.33975
371.4356, 43.30255
371.9177, 41.45915
372.3998, 41.35753
372.8820, 42.25603
373.3641, 42.40280
373.8462, 41.14072
374.3283, 40.07028
374.8104, 40.29622
375.2925, 42.11130
375.7747, 41.25243
376.2568, 36.73689
376.7389, 31.48212
377.2210, 30.15779
377.7031, 33.10344
378.1852, 34.71423
378.6674, 33.01962
379.1495, 28.63472
379.6316, 23.24542
380.1137, 16.62935
380.5958, 11.48047
381.0779, 11.64876
381.5601, 16.00694
382.0422, 18.94536
382.5243, 19.05775
383.0064, 17.38332
383.4885, 14.46376
383.9706, 10.67857
384.4528, 8.951653
384.9349, 14.07147
385.4170, 21.66074
385.8991, 24.21402
386.3812, 19.48028
386.8633, 13.47698
387.3455, 11.57259
387.8276, 12.60559
388.3097, 14.03673
388.7918, 15.93877
389.2739, 16.84982
389.7560, 15.09380
390.2382, 10.23366
390.7203, 5.304428
391.2024, 0.4225310
391.6845, 3.132996
392.1666, 3.930901
392.6487, 1.848999
393.1309, 7.390862
393.6130, 10.10672
394.0951, 10.11736
394.5772, 9.212738
395.0593, 5.485573
395.5414, 1.837616
396.0236, 0.1205370
396.5057, 1.627731
396.9878, 3.899284
397.4699, 7.799477
397.9520, 12.19550
398.4341, 14.35655
398.9163, 12.17917
399.3984, 9.981003
399.8805, 9.674950
400.3626, 12.85373
400.8447, 12.89865
401.3268, 7.501633
401.8090, 0.6693270
402.2911, 1.407715
402.7732, 3.728806
403.2553, 7.180405
403.7374, 5.908867
404.2195, 0.2680510
404.7017, 3.334793
405.1838, 4.732368
405.6659, 4.549484
406.1480, 2.457253
406.6301, 1.615250
407.1122, 3.277321
407.5944, 0.6963200
408.0765, 3.669670
408.5586, 3.212807
409.0407, 1.970558
409.5228, 6.998215
410.0049, 8.339447
410.4871, 6.994576
410.9692, 5.459778
411.4513, 3.758682
411.9334, 2.784790
412.4155, 4.772377
412.8976, 8.505440
413.3798, 10.44154
413.8619, 6.010086
414.3440, 0.7154920
414.8261, 1.454971
415.3082, 8.334671
415.7903, 14.37974
416.2725, 14.32010
416.7546, 11.20314
417.2367, 8.401009
417.7188, 6.335777
418.2009, 5.565704
418.6830, 7.112015
419.1652, 10.39246
419.6473, 13.21893
420.1294, 16.55399
420.6115, 18.02087
421.0937, 15.51236
421.5758, 4.896599
422.0579, 1.226669
422.5400, 2.119865
423.0221, 10.21545
423.5042, 15.39488
423.9864, 15.78747
424.4685, 14.99909
424.9506, 13.27401
425.4327, 10.45606
425.9148, 9.154854
426.3969, 10.20318
426.8791, 11.81837
427.3612, 12.35893
427.8433, 11.33419
428.3254, 10.73817
428.8075, 10.75145
429.2896, 11.42321
429.7718, 13.53436
430.2539, 17.63217
430.7360, 20.35144
431.2181, 18.51049
431.7002, 12.56374
432.1823, 9.600754
432.6645, 10.53487
433.1466, 12.57430
433.6287, 10.87411
434.1108, 6.437027
434.5929, 4.406586
435.0750, 9.614815
435.5572, 17.40076
436.0393, 18.81271
436.5214, 14.11088
437.0035, 8.805275
437.4856, 7.376785
437.9677, 8.009094
438.4499, 8.149048
438.9320, 6.754509
439.4141, 5.390366
439.8962, 5.798668
440.3783, 7.167877
440.8604, 7.411774
441.3426, 3.591690
441.8247, 8.6792000E-02
442.3068, 0.7293010
442.7889, 2.811172
443.2710, 5.352547
443.7531, 3.526840
444.2353, 0.7724760
444.7174, 0.8585050
445.1995, 10.10542
445.6816, 15.87214
446.1637, 13.20793
446.6458, 3.370911
447.1280, 0.1004870
447.6101, 9.061058
448.0922, 18.35638
448.5743, 20.84285
449.0564, 12.65994
449.5385, 7.877762
450.0207, 8.699524
450.5028, 12.11915
450.9849, 10.36710
451.4670, 1.829834
451.9491, 3.791290
452.4312, 0.7482530
452.9134, 9.242836
453.3955, 11.79985
453.8776, 6.061981
454.3597, 0.9838560
454.8418, 2.483856
455.3239, 0.4515610
455.8061, 3.532120
456.2882, 6.166985
456.7703, 7.976791
457.2524, 7.891167
457.7345, 6.332901
458.2166, 5.020409
458.6988, 4.594154
459.1809, 5.149376
459.6630, 7.173721
460.1451, 11.00423
460.6272, 14.49520
461.1093, 15.91320
461.5915, 15.85699
462.0736, 14.95280
462.5557, 11.64171
463.0378, 9.214539
463.5199, 9.867134
464.0020, 13.19164
464.4842, 15.31243
464.9663, 13.89775
465.4484, 11.73138
465.9305, 10.10501
466.4126, 9.610596
466.8947, 9.727974
467.3769, 9.694633
467.8590, 10.22054
468.3411, 13.08806
468.8232, 20.90082
469.3053, 25.68990
469.7874, 24.45314
470.2696, 17.64285
470.7517, 12.91898
471.2338, 10.49769
471.7159, 9.448875
472.1980, 8.881737
472.6801, 8.920143
473.1623, 10.94695
473.6444, 16.02061
474.1265, 21.29607
474.6086, 21.28175
475.0907, 16.62879
475.5728, 11.57085
476.0550, 7.580940
476.5371, 4.909393
477.0192, 4.421349
477.5013, 6.153343
477.9834, 8.275291
478.4655, 9.141411
478.9477, 9.630692
479.4298, 10.98672
479.9119, 15.15260
480.3940, 18.29295
480.8761, 17.24595
481.3582, 13.15603
481.8404, 9.627594
482.3225, 7.483017
482.8046, 6.494995
483.2867, 6.986931
483.7688, 9.859818
484.2509, 11.16367
484.7331, 9.319519
485.2152, 6.395912
485.6973, 4.197678
486.1794, 2.558701
486.6615, 1.970177
487.1436, 2.862907
487.6258, 4.878090
488.1079, 6.409988
488.5900, 7.505074
489.0721, 7.952553
489.5542, 7.414223
490.0363, 5.878075
490.5185, 4.469307
491.0006, 3.073921
491.4827, 2.325447
491.9648, 3.437042
492.4470, 6.101151
492.9291, 8.779236
493.4112, 11.55123
493.8933, 13.43676
494.3754, 11.86161
494.8575, 7.392197
495.3397, 3.690758
495.8218, 3.501343
496.3039, 5.148239
496.7860, 7.120659
497.2681, 9.541809
497.7502, 10.99734
498.2324, 10.22704
498.7145, 8.164063
499.1966, 6.084396
499.6787, 3.379440
500.1608, 1.669014
500.6429, 2.181221
501.1251, 4.516533
501.6072, 6.203316
502.0893, 6.194809
502.5714, 6.360435
503.0535, 7.771553
503.5356, 11.52187
504.0178, 13.60156
504.4999, 13.09846
504.9820, 11.68454
505.4641, 12.63776
505.9462, 16.77460
506.4283, 18.47511
506.9105, 14.90484
507.3926, 7.934151
507.8747, 5.347900
508.3568, 7.322639
508.8389, 10.37859
509.3210, 12.23955
509.8032, 12.95933
510.2853, 13.89079
510.7674, 15.17171
511.2495, 15.85359
511.7316, 14.63072
512.2137, 12.07860
512.6959, 9.536575
513.1780, 7.089737
513.6601, 5.524147
514.1422, 6.054245
514.6243, 8.319244
515.1064, 9.938278
515.5886, 9.934273
516.0707, 9.021690
516.5528, 7.475037
517.0349, 4.423302
517.5170, 2.555908
517.9991, 3.250427
518.4813, 4.842537
518.9634, 5.132202
519.4455, 2.756012
519.9276, 1.499084
520.4097, 2.734222
520.8918, 5.864014
521.3740, 6.569221
521.8561, 3.939575
522.3382, 1.903000
522.8203, 4.310951
523.3024, 10.68244
523.7845, 12.29481
524.2667, 7.686157
524.7488, 2.072182
525.2309, 2.359146
525.7130, 7.095222
526.1951, 11.30239
526.6772, 13.89780
527.1594, 14.54947
527.6415, 11.48859
528.1236, 5.640739
528.6057, 1.408752
529.0878, 1.601761
529.5699, 3.352264
530.0521, 4.884109
530.5342, 6.092255
531.0163, 6.362328
531.4984, 3.339706
531.9805, 0.1002270
532.4626, 0.1068570
532.9448, 8.046288
533.4269, 13.35543
533.9090, 13.73116
534.3911, 10.26493
534.8732, 6.998627
535.3553, 3.426636
535.8375, 0.9634090
536.3196, 0.7341460
536.8017, 2.911354
537.2838, 3.153450
537.7659, 0.8731000
538.2480, 1.396835
538.7302, 0.5903090
539.2123, 2.883812
539.6944, 6.238121
540.1765, 9.016373
540.6586, 11.14453
541.1407, 13.12933
541.6229, 14.56663
542.1050, 14.06599
542.5871, 7.685944
543.0692, 1.121559
543.5513, 0.7108310
544.0334, 6.719162
544.5156, 11.60041
544.9977, 10.83263
545.4798, 8.447166
545.9619, 6.901634
546.4440, 6.223526
546.9261, 6.514168
547.4083, 9.325180
547.8904, 12.82443
548.3725, 13.42918
548.8546, 8.110428
549.3367, 5.028076
549.8188, 7.409935
550.3010, 14.48027
550.7831, 16.39901
551.2652, 11.70140
551.7473, 6.730019
552.2294, 7.022896
552.7115, 11.84982
553.1937, 13.64917
553.6758, 11.48141
554.1579, 7.700859
554.6400, 4.059593
555.1221, 1.042534
555.6042, 0.2461010
556.0864, 4.492264
556.5685, 8.895798
557.0506, 7.628677
557.5327, 2.188354
558.0148, 1.843681
558.4969, 0.7750630
558.9791, 1.808640
559.4612, 3.598518
559.9433, 3.983124
560.4254, 5.463928
560.9075, 10.73923
561.3896, 16.01488
561.8718, 17.91277
562.3539, 13.61226
562.8360, 10.76893
563.3181, 10.43624
563.8002, 11.68304
564.2823, 12.38259
564.7645, 12.51646
565.2466, 12.13662
565.7287, 11.00327
566.2108, 9.354393
566.6929, 8.377876
567.1750, 8.088974
567.6572, 8.244675
568.1393, 8.850845
568.6214, 9.742928
569.1035, 10.52157
569.5856, 11.05506
570.0677, 11.78324
570.5499, 13.47496
571.0320, 15.64414
571.5141, 17.16486
571.9962, 19.36501
572.4783, 19.50500
572.9604, 14.62328
573.4426, 6.046295
573.9247, 0.3769450
574.4068, 0.7190170
574.8889, 2.404427
575.3710, 3.735413
575.8531, 4.521484
576.3353, 5.950226
576.8174, 8.386574
577.2995, 10.90563
577.7816, 13.07520
578.2637, 15.05132
578.7458, 14.25623
579.2280, 9.229408
579.7101, 3.267685
580.1922, 2.930122
580.6743, 7.339317
581.1564, 11.53952
581.6385, 12.79379
582.1207, 12.78400
582.6028, 13.65803
583.0849, 15.30250
583.5670, 16.87609
584.0491, 20.33186
584.5313, 22.10498
585.0134, 17.85004
585.4955, 4.393974
585.9776, 5.902439
586.4597, 9.482620
586.9418, 8.385387
587.4240, 4.599953
587.9061, 5.907028
588.3882, 12.45554
588.8703, 12.39717
589.3524, 8.060356
589.8345, 6.207405
590.3167, 7.200775
590.7988, 9.429604
591.2809, 13.19035
591.7630, 17.72675
592.2451, 17.95719
592.7272, 13.69680
593.2094, 9.647850
593.6915, 10.09674
594.1736, 13.46227
594.6557, 17.28905
595.1378, 21.59734
595.6199, 24.20746
596.1021, 22.01552
596.5842, 17.47925
597.0663, 13.98844
597.5485, 13.52956
598.0306, 13.40157
598.5127, 12.67346
598.9948, 11.55182
599.4769, 10.98129
599.9590, 11.61205
600.4412, 12.10410
600.9233, 12.41754
601.4054, 12.70768
601.8875, 9.717239
602.3696, 1.768036
602.8517, 5.299816
603.3339, 5.553986
603.8160, 0.4433210
604.2981, 5.838562
604.7802, 9.965965
605.2623, 12.85814
605.7444, 13.90081
606.2266, 13.65868
606.7087, 13.66113
607.1908, 15.15990
607.6729, 16.31733
608.1550, 15.60197
608.6371, 13.58790
609.1193, 12.07870
609.6014, 12.25849
610.0835, 12.72796
610.5656, 12.65685
611.0477, 11.81174
611.5298, 11.97468
612.0120, 14.56571
612.4941, 16.81419
612.9762, 16.48624
613.4583, 12.36021
613.9404, 10.30448
614.4225, 11.07452
614.9047, 13.02735
615.3868, 13.70387
615.8689, 13.12726
616.3510, 13.27573
616.8331, 15.45972
617.3152, 17.52531
617.7974, 14.74267
618.2795, 8.318527
618.7616, 4.464844
619.2437, 9.625488
619.7258, 16.29229
620.2079, 18.30870
620.6901, 15.37690
621.1722, 13.34856
621.6543, 16.52334
622.1364, 19.67030
622.6185, 19.04166
623.1006, 11.73214
623.5828, 6.633568
624.0649, 3.825951
624.5470, 3.156788
625.0291, 5.324574
625.5112, 11.34393
625.9933, 14.59489
626.4755, 13.36611
626.9576, 9.405251
627.4397, 5.058105
627.9218, 0.6643180
628.4039, 1.185883
628.8860, 3.752979
629.3682, 10.42151
629.8503, 10.74561
630.3324, 5.609997
630.8145, 1.796528
631.2966, 3.281002
631.7787, 7.500717
632.2609, 13.56023
632.7430, 22.54987
633.2251, 28.55569
633.7072, 29.21597
634.1893, 27.05556
634.6714, 23.81996
635.1536, 17.85971
635.6357, 14.68068
636.1178, 15.61871
636.5999, 18.55629
637.0820, 19.65331
637.5641, 18.83090
638.0463, 17.66656
638.5284, 16.15436
639.0105, 15.06356
639.4926, 17.73867
639.9747, 23.11559
640.4568, 25.03236
640.9390, 14.62038
641.4211, 2.389805
641.9032, 1.346909
642.3853, 4.128815
642.8674, 10.96297
643.3495, 18.42981
643.8317, 24.11621
644.3138, 26.88655
644.7959, 26.08033
645.2780, 23.91571
645.7601, 18.51000
646.2422, 13.25922
646.7244, 13.86473
647.2065, 22.37052
647.6886, 25.41003
648.1707, 18.68883
648.6528, 8.095070
649.1349, 6.034931
649.6171, 11.46372
650.0992, 16.86442
650.5813, 18.83739
651.0634, 18.78857
651.5455, 18.13921
652.0276, 16.90929
652.5098, 15.23529
652.9919, 12.59521
653.4740, 9.993256
653.9561, 7.953232
654.4382, 6.492374
654.9203, 5.829891
655.4025, 6.193504
655.8846, 7.192257
656.3667, 8.794350
656.8488, 11.67486
657.3309, 13.07456
657.8130, 12.71754
658.2952, 11.21592
658.7773, 8.908905
659.2594, 5.985359
659.7415, 4.236980
660.2236, 3.875252
660.7057, 4.066738
661.1879, 5.486725
661.6700, 7.921562
662.1521, 9.325455
662.6342, 8.473385
663.1163, 6.586933
663.5984, 3.487942
664.0806, 0.4412380
664.5627, 2.443531
665.0448, 3.1021001E-02
665.5269, 2.909912
666.0090, 4.395294
666.4911, 4.230274
666.9733, 4.587074
667.4554, 5.808262
667.9375, 6.871841
668.4196, 6.751083
668.9017, 5.491184
669.3839, 4.451534
669.8660, 3.670883
670.3481, 3.515636
670.8302, 5.357948
671.3123, 8.076405
671.7944, 9.032761
672.2766, 5.996746
672.7587, 3.281956
673.2408, 5.257462
673.7229, 9.391853
674.2050, 10.76791
674.6871, 1.994797
675.1693, 3.105740
675.6514, 2.664043
676.1335, 16.20548
676.6156, 20.29691
677.0977, 10.20789
677.5798, 1.516529
678.0620, 2.361725
678.5441, 11.42007
679.0262, 15.57512
679.5083, 14.83714
679.9904, 12.36313
680.4725, 9.098812
680.9547, 6.090183
681.4368, 4.756241
681.9189, 5.344765
682.4010, 6.863808
682.8831, 9.846363
683.3652, 13.09483
683.8474, 14.85612
684.3295, 13.78523
684.8116, 12.43935
685.2937, 10.13377
685.7758, 8.316978
686.2579, 9.378063
686.7401, 15.38820
687.2222, 19.25038
687.7043, 19.11144
688.1864, 16.65276
688.6685, 15.47806
689.1506, 15.71474
689.6328, 17.23316
690.1149, 22.24392
690.5970, 27.31767
691.0791, 26.40495
691.5612, 20.49502
692.0433, 14.70694
692.5255, 10.80927
693.0076, 8.726093
693.4897, 8.635315
693.9718, 10.76559
694.4539, 12.30666
694.9360, 12.87881
695.4182, 12.75530
695.9003, 11.77768
696.3824, 9.403973
696.8645, 8.747143
697.3466, 10.23757
697.8287, 12.31564
698.3109, 13.28468
698.7930, 13.34252
699.2751, 13.71109
699.7572, 14.70441
700.2393, 15.31998
700.7214, 13.34600
701.2036, 10.04147
701.6857, 7.515076
702.1678, 6.887524
702.6499, 6.734013
703.1320, 6.097748
703.6141, 5.557262
704.0963, 6.706467
704.5784, 11.71560
705.0605, 15.19901
705.5426, 15.96915
706.0247, 14.33505
706.5068, 10.89196
706.9890, 5.194138
707.4711, 1.258568
707.9532, 2.199547
708.4353, 6.216789
708.9174, 8.919506
709.3995, 10.37649
709.8817, 11.11108
710.3638, 11.07817
710.8459, 10.73365
711.3280, 10.54662
711.8101, 10.62241
712.2922, 10.31775
712.7744, 7.667366
713.2565, 5.931248
713.7386, 7.710438
714.2207, 16.16961
714.7028, 19.69370
715.1849, 17.11273
715.6671, 11.67414
716.1492, 5.610256
716.6313, 0.7316210
717.1134, 3.535461
717.5955, 1.732277
718.0776, 2.567471
718.5598, 9.055523
719.0419, 15.90851
719.5240, 19.49178
720.0061, 16.08510
720.4882, 12.13587
720.9703, 10.35359
721.4525, 10.18769
721.9346, 10.35760
722.4167, 11.55070
722.8988, 11.88770
723.3809, 9.886925
723.8630, 6.678848
724.3452, 7.340580
724.8273, 12.37597
725.3094, 17.69530
725.7915, 22.51026
726.2736, 25.80034
726.7557, 23.60437
727.2379, 16.73719
727.7200, 10.18938
728.2021, 7.213608
728.6842, 6.367168
729.1663, 6.776230
729.6484, 8.391903
730.1306, 10.32236
730.6127, 13.84975
731.0948, 16.29163
731.5769, 15.83900
732.0590, 11.27946
732.5411, 8.991806
733.0233, 9.257187
733.5054, 10.92612
733.9875, 13.16367
734.4696, 15.66419
734.9517, 15.98748
735.4338, 13.74467
735.9160, 10.07941
736.3981, 3.881348
736.8802, 2.282581
737.3623, 4.230263
737.8444, 1.601803
738.3266, 7.014324
738.8087, 9.665798
739.2908, 9.788067
739.7729, 7.616554
740.2551, 0.6576310
740.7372, 3.651115
741.2193, 3.818680
741.7014, 1.437160
742.1835, 0.1932560
742.6656, 1.054993
743.1478, 2.453407
743.6299, 5.199009
744.1120, 8.233303
744.5941, 10.50266
745.0762, 11.72994
745.5583, 11.12226
746.0405, 3.768494
746.5226, 1.324627
747.0047, 3.746811
747.4868, 16.71025
747.9689, 23.92680
748.4510, 20.94592
748.9332, 15.55525
749.4153, 8.957474
749.8974, 1.552238
750.3795, 1.803211
750.8616, 0.6572720
751.3438, 1.305729
751.8259, 1.716152
752.3080, 1.219616
752.7901, 1.148224
753.2722, 1.548016
753.7543, 2.558075
754.2365, 5.178108
754.7186, 7.822105
755.2007, 8.923771
755.6828, 7.946056
756.1649, 7.701668
756.6470, 8.809521
757.1292, 10.65461
757.6113, 13.39609
758.0934, 17.94237
758.5755, 18.80505
759.0576, 15.21249
759.5397, 10.52809
760.0219, 7.172684
760.5040, 5.543018
760.9861, 7.892918
761.4682, 15.33516
761.9503, 22.37017
762.4324, 25.14607
762.9146, 24.86250
763.3967, 22.75328
763.8788, 16.70356
764.3609, 12.79539
764.8430, 14.04231
765.3251, 16.84598
765.8073, 16.95000
766.2894, 13.54229
766.7715, 11.02889
767.2536, 10.14647
767.7357, 10.18198
768.2178, 9.418686
768.7000, 8.395290
769.1821, 9.727730
769.6642, 16.39053
770.1463, 22.24739
770.6284, 20.58347
771.1105, 14.49347
771.5927, 10.06424
772.0748, 8.679157
772.5569, 9.414707
773.0390, 14.84828
773.5211, 21.78253
774.0032, 20.75098
774.4854, 8.673355
774.9675, 6.8319999E-03
775.4496, 0.6117480
775.9317, 6.650948
776.4138, 8.426144
776.8959, 6.594738
777.3781, 4.810268
777.8602, 4.701607
778.3423, 5.679127
778.8244, 7.621559
779.3065, 10.31522
779.7886, 12.90701
780.2708, 15.69248
780.7529, 17.71078
781.2350, 18.46222
781.7171, 18.11367
782.1992, 18.84296
782.6813, 21.57983
783.1635, 21.60275
783.6456, 14.02080
784.1277, 2.248394
784.6098, 2.099594
785.0919, 0.4451750
785.5740, 4.297230
786.0562, 7.139538
786.5383, 8.832439
787.0204, 8.535866
787.5025, 6.258274
787.9846, 5.300690
788.4667, 8.678349
788.9489, 11.35429
789.4310, 10.69995
789.9131, 6.419506
790.3952, 4.734982
790.8773, 6.067787
791.3594, 8.098858
791.8416, 9.168541
792.3237, 9.593143
792.8058, 10.33567
793.2879, 11.43676
793.7700, 12.12304
794.2521, 12.41709
794.7343, 11.53413
795.2164, 8.320885
795.6985, 1.968258
796.1806, 1.557400
796.6627, 0.9654390
797.1448, 1.712090
797.6270, 5.852333
798.1091, 11.91359
798.5912, 15.09224
799.0733, 15.28289
799.5554, 14.83492
800.0375, 16.53437
800.5197, 18.79362
801.0018, 18.12355
801.4839, 13.64669
801.9660, 9.744907
802.4481, 10.11616
802.9302, 11.82193
803.4124, 11.44686
803.8945, 6.698048
804.3766, 5.141617
804.8587, 8.829800
805.3408, 13.39215
805.8229, 15.10112
806.3051, 13.96649
806.7872, 11.06359
807.2693, 6.136620
807.7514, 1.511467
808.2335, 0.7732280
808.7156, 1.088196
809.1978, 0.3609810
809.6799, 1.010445
810.1620, 3.857529
810.6441, 11.69977
811.1262, 19.38251
811.6083, 21.50205
812.0905, 14.65657
812.5726, 9.983700
813.0547, 7.933113
813.5368, 7.695038
814.0189, 9.533337
814.5010, 12.77276
814.9832, 12.80020
815.4653, 8.191467
815.9474, 3.670879
816.4295, 4.311619
816.9116, 7.285770
817.3937, 9.000465
817.8759, 7.597347
818.3580, 6.833504
818.8401, 8.608624
819.3222, 10.67094
819.8043, 10.61530
820.2864, 8.003242
820.7686, 5.264599
821.2507, 2.428391
821.7328, 0.1192820
822.2149, 1.315098
822.6970, 1.524055
823.1791, 1.182556
823.6613, 8.595325
824.1434, 14.13641
824.6255, 10.89658
825.1076, 4.509453
825.5897, 1.287708
826.0718, 6.067833
826.5540, 8.717110
827.0361, 8.838585
827.5182, 7.283230
828.0003, 4.262333
828.4824, 0.1607020
828.9645, 2.305195
829.4467, 1.382450
829.9288, 0.9478680
830.4109, 3.575718
830.8930, 6.103283
831.3751, 7.893631
831.8572, 8.504658
832.3394, 8.961937
832.8215, 9.528992
833.3036, 10.17995
833.7857, 10.85472
834.2678, 11.60503
834.7499, 12.17878
835.2321, 12.52871
835.7142, 12.76467
836.1963, 13.02524
836.6784, 13.29008
837.1605, 13.51522
837.6426, 13.73147
838.1248, 13.71980
838.6069, 12.79638
839.0890, 11.79605
839.5711, 11.74805
840.0532, 14.07629
840.5353, 15.06671
841.0175, 13.93555
841.4996, 12.01550
841.9817, 10.43682
842.4638, 9.021690
842.9459, 8.699451
843.4280, 9.422894
843.9102, 10.95049
844.3923, 14.83381
844.8744, 18.84962
845.3565, 19.25665
845.8386, 14.56697
846.3207, 11.22462
846.8029, 13.83149
847.2850, 17.64245
847.7671, 18.35075
848.2492, 14.25661
848.7313, 11.61834
849.2134, 10.76597
849.6956, 10.58221
850.1777, 9.699009
850.6598, 8.520523
851.1419, 8.909931
851.6240, 11.29121
852.1061, 13.12364
852.5883, 10.04125
853.0704, 7.013599
853.5525, 9.727547
854.0346, 22.84745
854.5167, 28.84415
854.9988, 22.88684
855.4810, 14.79712
855.9631, 12.23202
856.4452, 15.31761
856.9273, 13.72358
857.4094, 6.811054
857.8915, 0.7287940
858.3737, 3.329971
858.8558, 8.771095
859.3379, 8.515015
859.8200, 0.6210860
860.3021, 3.378853
860.7842, 5.179840
861.2664, 15.53828
861.7485, 21.68143
862.2306, 23.41285
862.7127, 22.94599
863.1948, 19.86134
863.6769, 16.40773
864.1591, 13.68793
864.6412, 11.88455
865.1233, 11.75503
865.6054, 13.18219
866.0875, 14.42825
866.5696, 15.61118
867.0518, 15.41858
867.5339, 11.36623
868.0160, 3.056068
868.4981, 1.059566
868.9802, 8.596962
869.4623, 15.66567
869.9445, 17.17589
870.4266, 14.37016
870.9087, 12.69614
871.3908, 12.08311
871.8729, 11.97471
872.3550, 13.09779
872.8372, 13.70551
873.3193, 11.50419
873.8014, 7.118412
874.2835, 4.287651
874.7656, 5.895931
875.2477, 6.654812
875.7299, 4.639565
876.2120, 0.8774760
876.6941, 0.6127430
877.1762, 0.1621480
877.6583, 2.613060
878.1404, 7.651272
878.6226, 12.99949
879.1047, 16.32867
879.5869, 17.52426
880.0690, 16.32550
880.5511, 9.184364
881.0332, 3.837173
881.5153, 3.134594
881.9974, 5.352581
882.4796, 7.509712
882.9617, 9.695892
883.4438, 10.40640
883.9259, 8.490067
884.4080, 6.546738
884.8901, 10.21876
885.3723, 17.00169
885.8544, 20.95066
886.3365, 18.62436
886.8186, 15.17303
887.3007, 11.98927
887.7828, 9.708744
888.2650, 9.095280
888.7471, 10.40942
889.2292, 13.01836
889.7113, 17.57975
890.1934, 21.76501
890.6755, 22.31969
891.1577, 20.01584
891.6398, 16.76009
892.1219, 12.45872
892.6040, 9.689487
893.0861, 12.06776
893.5682, 15.79062
894.0504, 17.15247
894.5325, 14.40351
895.0146, 12.26474
895.4967, 10.36539
895.9788, 9.757809
896.4609, 12.34503
896.9431, 17.37634
897.4252, 20.20006
897.9073, 20.53068
898.3894, 18.61710
898.8715, 10.57867
899.3536, 3.257965
899.8358, 4.936466
900.3179, 17.58376
900.8000, 21.21508
901.2821, 6.223866
901.7642, 6.448479
902.2463, 5.581608
902.7285, 6.369057
903.2106, 9.983669
903.6927, 5.532974
904.1748, 0.8329930
904.6569, 1.074867
905.1390, 3.063953
905.6212, 3.912281
906.1033, 3.707836
906.5854, 3.206394
907.0675, 1.580311
907.5496, 0.9690250
908.0317, 2.097488
908.5139, 4.479916
908.9960, 6.695801
909.4781, 8.734283
909.9602, 11.27661
910.4423, 15.60932
910.9244, 18.81933
911.4066, 15.40606
911.8887, 8.668266
912.3708, 4.637959
912.8529, 8.227879
913.3350, 11.07681
913.8171, 11.17471
914.2993, 10.17670
914.7814, 11.00638
915.2635, 14.09201
915.7456, 12.28390
916.2277, 3.451302
916.7098, 5.572903
917.1920, 7.416065
917.6741, 4.068935
918.1562, 2.560143
918.6383, 14.69688
919.1204, 22.66123
919.6025, 20.37703
920.0847, 15.69643
920.5668, 13.68779
921.0489, 14.72571
921.5310, 16.11437
922.0131, 17.99255
922.4952, 19.05592
922.9774, 17.18328
923.4595, 14.33743
923.9416, 13.82403
924.4237, 15.65353
924.9058, 16.92069
925.3879, 14.32719
925.8701, 13.27005
926.3522, 17.36838
926.8343, 25.45830
927.3164, 27.17326
927.7985, 21.83404
928.2806, 16.48584
928.7628, 14.38771
929.2449, 14.16464
929.7270, 14.20017
930.2091, 14.33178
930.6912, 14.11943
931.1733, 14.34637
931.6555, 13.02872
932.1376, 7.169003
932.6197, 0.4397280
933.1018, 4.8489001E-02
933.5839, 6.881435
934.0660, 10.88306
934.5482, 9.488262
935.0303, 6.438107
935.5124, 5.756996
935.9945, 6.853466
936.4766, 9.051193
936.9587, 13.18444
937.4409, 15.68143
937.9230, 15.02139
938.4051, 12.51109
938.8872, 8.542015
939.3693, 2.340378
939.8514, 0.4183500
940.3336, 0.5238270
940.8157, 3.447544
941.2978, 9.439610
941.7799, 15.25900
942.2620, 14.74212
942.7441, 8.028770
943.2263, 3.438900
943.7084, 6.363228
944.1905, 9.968933
944.6726, 12.02751
945.1547, 12.47317
945.6368, 9.738457
946.1190, 3.453232
946.6011, 0.1801490
947.0832, 5.371391
947.5653, 12.37261
948.0474, 10.97363
948.5295, 4.482170
949.0117, 0.5931850
949.4938, 4.549294
949.9759, 8.117016
950.4580, 9.592854
950.9401, 9.981525
951.4222, 11.06533
951.9044, 12.89125
952.3865, 12.83233
952.8686, 10.24045
953.3507, 6.800659
953.8328, 2.934364
954.3149, 5.7647999E-02
954.7971, 0.1069410
955.2792, 4.181442
955.7613, 7.583576
956.2434, 9.243786
956.7255, 9.897404
957.2076, 9.969322
957.6898, 9.445847
958.1719, 6.801514
958.6540, 2.090916
959.1361, 0.3725050
959.6182, 9.004742
960.1003, 18.87014
960.5825, 20.71449
961.0646, 15.26291
961.5467, 10.87115
962.0288, 9.845787
962.5109, 8.682381
962.9930, 5.945412
963.4752, 3.135216
963.9573, 5.359848
964.4394, 11.57531
964.9215, 15.29942
965.4036, 13.58471
965.8857, 10.38293
966.3679, 8.186798
966.8500, 6.595051
967.3321, 6.014915
967.8142, 7.474213
968.2963, 9.037746
968.7784, 10.68871
969.2606, 12.43849
969.7427, 14.59660
970.2248, 16.85608
970.7069, 17.98852
971.1890, 17.90842
971.6711, 17.47198
972.1533, 16.61208
972.6354, 16.10606
973.1175, 17.38586
973.5996, 20.30705
974.0817, 19.33141
974.5638, 12.93688
975.0460, 6.403042
975.5281, 1.183159
976.0102, 1.626202
976.4923, 1.859875
976.9744, 9.392712
977.4565, 14.36472
977.9387, 10.92430
978.4208, 7.909031
978.9029, 9.748760
979.3850, 13.11819
979.8671, 13.08215
980.3492, 8.685455
980.8314, 6.669441
981.3135, 8.038956
981.7956, 10.63223
982.2777, 13.16616
982.7598, 14.92361
983.2419, 14.29181
983.7241, 10.61656
984.2062, 8.206734
984.6883, 9.422626
985.1704, 11.37139
985.6525, 12.96377
986.1346, 13.62163
986.6168, 12.34176
987.0989, 9.210472
987.5810, 6.929905
988.0631, 7.634216
988.5452, 9.414810
989.0273, 11.01308
989.5095, 12.23499
989.9916, 12.56040
990.4737, 11.46988
990.9558, 9.958664
991.4379, 7.743160
991.9200, 5.823284
992.4022, 6.374863
992.8843, 8.742138
993.3664, 10.11446
993.8485, 9.919563
994.3306, 8.978931
994.8127, 7.624554
995.2949, 5.922832
995.7770, 3.584919
996.2591, 0.2739790
996.7412, 1.086433
997.2233, 0.3301160
997.7054, 1.765610
998.1876, 6.044254
998.6697, 10.92209
999.1518, 12.55946
999.6339, 11.64735
1000.116, 10.99055
1000.598, 11.68849
1001.080, 13.06573
1001.562, 15.87041
1002.044, 18.75864
1002.527, 19.07553
1003.009, 16.63878
1003.491, 14.09832
1003.973, 11.84876
1004.455, 10.11455
1004.937, 8.956757
1005.419, 8.634151
1005.901, 9.561592
1006.384, 12.04044
1006.866, 15.48111
1007.348, 22.47277
1007.830, 26.42638
1008.312, 21.94092
1008.794, 11.22029
1009.276, 4.874615
1009.758, 2.762039
1010.240, 3.962234
1010.723, 11.40914
1011.205, 18.46466
1011.687, 20.33747
1012.169, 18.57438
1012.651, 17.91415
1013.133, 19.43562
1013.615, 18.95280
1014.097, 15.09479
1014.580, 11.10995
1015.062, 11.89088
1015.544, 15.57516
1016.026, 18.96030
1016.508, 21.80582
1016.990, 23.41029
1017.472, 23.86264
1017.954, 22.49181
1018.436, 18.06789
1018.919, 10.90842
1019.401, 7.466133
1019.883, 7.746639
1020.365, 9.780090
1020.847, 14.27792
1021.329, 18.45264
1021.811, 20.54921
1022.293, 20.06390
1022.776, 15.54478
1023.258, 5.2677002E-02
1023.740, 7.930252
1024.222, 4.196415
1024.704, 4.406849
1025.186, 9.607357
1025.668, 11.88998
1026.150, 12.28127
1026.632, 10.79507
1027.115, 9.461899
1027.597, 10.03966
1028.079, 10.72471
1028.561, 9.469692
1029.043, 6.468891
1029.525, 8.470085
1030.007, 16.30842
1030.489, 21.91206
1030.972, 20.59591
1031.454, 16.07774
1031.936, 11.70460
1032.418, 8.363556
1032.900, 7.986900
1033.382, 16.59034
1033.864, 20.02238
1034.346, 14.50399
1034.828, 7.066700
1035.311, 6.237286
1035.793, 10.97323
1036.275, 14.84668
1036.757, 17.37014
1037.239, 18.29206
1037.721, 15.56429
1038.203, 12.79158
1038.685, 12.96376
1039.167, 15.79549
1039.650, 17.61703
1040.132, 18.45367
1040.614, 18.15141
1041.096, 16.81654
1041.578, 14.05334
1042.060, 6.210003
1042.542, 2.791439
1043.024, 5.195061
1043.507, 5.864330
1043.989, 14.67020
1044.471, 18.64734
1044.953, 19.37092
1045.435, 16.71643
1045.917, 11.26439
1046.399, 10.14930
1046.881, 13.24829
1047.364, 15.50295
1047.846, 12.13923
1048.328, 7.902733
1048.810, 5.497894
1049.292, 5.136292
1049.774, 6.909904
1050.256, 11.85020
1050.738, 15.30286
1051.220, 16.38892
1051.703, 15.50821
1052.185, 11.81891
1052.667, 7.039490
1053.149, 4.228245
1053.631, 4.347980
1054.113, 4.708397
1054.595, 4.041168
1055.077, 4.117405
1055.559, 6.361835
1056.042, 10.14683
1056.524, 10.65925
1057.006, 8.451962
1057.488, 7.385479
1057.970, 11.06636
1058.452, 15.27751
1058.934, 18.28417
1059.416, 19.70930
1059.899, 18.76049
1060.381, 14.50642
1060.863, 11.45435
1061.345, 10.17590
1061.827, 9.206451
1062.309, 6.659321
1062.791, 3.597347
1063.273, 0.8897210
1063.755, 1.301907
1064.238, 0.1755680
1064.720, 11.46460
1065.202, 17.59714
1065.684, 10.46932
1066.166, 3.184292
1066.648, 1.790234
1067.130, 11.00429
1067.612, 17.65385
1068.094, 9.317291
1068.577, 1.461510
1069.059, 6.002941
1069.541, 13.73614
1070.023, 15.43227
1070.505, 9.698162
1070.987, 5.156380
1071.469, 1.749969
1071.951, 0.4923590
1072.434, 2.017628
1072.916, 2.074280
1073.398, 1.369015
1073.880, 7.180614
1074.362, 11.37742
1074.844, 12.53923
1075.326, 13.08360
1075.808, 13.21617
1076.291, 12.99182
1076.773, 11.96488
1077.255, 10.69047
1077.737, 11.57932
1078.219, 15.16989
1078.701, 16.56190
1079.183, 10.26799
1079.665, 4.144112
1080.147, 2.322697
1080.630, 4.221554
1081.112, 7.176018
1081.594, 10.65178
1082.076, 11.54935
1082.558, 6.368858
1083.040, 2.069057
1083.522, 7.591362
1084.004, 16.84280
1084.486, 21.49712
1084.969, 19.52918
1085.451, 16.22090
1085.933, 11.05918
1086.415, 6.595642
1086.897, 3.879551
1087.379, 3.632542
1087.861, 10.16868
1088.343, 21.05183
1088.826, 26.07368
1089.308, 14.45506
1089.790, 6.007542
1090.272, 4.685863
1090.754, 7.578140
1091.236, 11.31527
1091.718, 15.44510
1092.200, 17.91519
1092.682, 18.38996
1093.165, 17.39748
1093.647, 13.11822
1094.129, 9.455177
1094.611, 9.133163
1095.093, 11.67541
1095.575, 14.60998
1096.057, 18.06214
1096.539, 18.41160
1097.022, 12.86460
1097.504, 6.587868
1097.986, 4.283886
1098.468, 4.851963
1098.950, 7.041374
1099.432, 11.63247
1099.914, 15.16761
1100.396, 17.18120
1100.879, 18.63863
1101.361, 22.61599
1101.843, 25.73591
1102.325, 19.72025
1102.807, 7.174149
1103.289, 1.902157
1103.771, 1.238319
1104.253, 0.1701350
1104.735, 0.5052030
1105.218, 1.070438
1105.700, 3.7978999E-02
1106.182, 2.415749
1106.664, 4.029633
1107.146, 4.665604
1107.628, 5.162487
1108.110, 6.164757
1108.592, 7.058418
1109.074, 7.523125
1109.557, 7.596600
1110.039, 6.967663
1110.521, 5.604870
1111.003, 6.393513
1111.485, 10.86396
1111.967, 14.53680
1112.449, 12.65194
1112.931, 8.223278
1113.414, 4.003235
1113.896, 5.0964002E-02
1114.378, 1.486549
1114.860, 0.2063410
1115.342, 2.295498
1115.824, 3.228340
1116.306, 3.639309
1116.788, 4.536686
1117.271, 5.702831
1117.753, 6.666313
1118.235, 6.410061
1118.717, 7.566280
1119.199, 11.46009
1119.681, 14.59093
1120.163, 12.35252
1120.645, 6.733105
1121.127, 3.177731
1121.609, 1.817993
1122.092, 2.433819
1122.574, 5.968800
1123.056, 10.19027
1123.538, 15.95557
1124.020, 20.73792
1124.502, 17.75117
1124.984, 8.223534
1125.466, 2.877975
1125.949, 4.000637
1126.431, 6.881035
1126.913, 10.78465
1127.395, 13.03151
1127.877, 9.744434
1128.359, 2.241829
1128.841, 2.852348
1129.323, 12.25073
1129.806, 16.95676
1130.288, 9.600803
1130.770, 0.9850960
1131.252, 3.886566
1131.734, 11.26648
1132.216, 13.81159
1132.698, 8.764038
1133.180, 4.950539
1133.662, 2.199085
1134.145, 1.549820
1134.627, 6.179340
1135.109, 11.64301
1135.591, 8.957546
1136.073, 1.465309
1136.555, 2.299606
1137.037, 3.628132
1137.519, 8.512142
1138.001, 12.39042
1138.484, 13.67606
1138.966, 0.8329890
1139.448, 10.55101
1139.930, 16.99244
1140.412, 18.75568
1140.894, 1.828632
1141.376, 9.036678
1141.858, 6.572712
1142.341, 3.712452
1142.823, 14.31789
1143.305, 0.1101260
1143.787, 10.50226
1144.269, 11.07479
1144.751, 16.14173
1145.233, 11.47691
1145.715, 9.818092
1146.198, 18.04955
1146.680, 20.78452
1147.162, 15.00051
1147.644, 20.35551
1148.126, 5.810982
1148.608, 8.729187
1149.090, 19.18177
1149.572, 13.88914
1150.054, 19.42314
1150.536, 20.83398
1151.019, 3.506317
1151.501, 18.76732
1151.983, 14.09573
1152.465, 13.75109
1152.947, 11.84526
1153.429, 7.412254
1153.911, 3.911072
1154.393, 5.509296
1154.876, 10.09555
1155.358, 14.29505
1155.840, 18.89568
1156.322, 19.20501
1156.804, 14.33688
1157.286, 9.574387
1157.768, 10.58603
1158.250, 13.16172
1158.733, 11.34670
1159.215, 6.333698
1159.697, 3.162128
1160.179, 3.091564
1160.661, 3.664883
1161.143, 4.430077
1161.625, 6.048203
1162.107, 10.25266
1162.589, 15.18953
1163.072, 17.43192
1163.554, 16.99635
1164.036, 17.13960
1164.518, 20.86621
1165.000, 20.97994
1165.482, 14.08144
1165.964, 5.498253
1166.446, 7.287075
1166.928, 14.41030
1167.411, 14.49934
1167.893, 3.980530
1168.375, 3.960987
1168.857, 4.278111
1169.339, 1.905922
1169.821, 2.614300
1170.303, 7.656200
1170.785, 7.351219
1171.268, 3.428699
1171.750, 1.543957
1172.232, 3.556221
1172.714, 7.585812
1173.196, 16.60864
1173.678, 23.44359
1174.160, 22.87983
1174.642, 16.12040
1175.125, 9.485641
1175.607, 3.506172
1176.089, 1.503574
1176.571, 9.314266
1177.053, 15.71958
1177.535, 13.72900
1178.017, 9.563782
1178.499, 9.440975
1178.981, 13.36287
1179.464, 14.25467
1179.946, 11.71064
1180.428, 7.477356
1180.910, 0.7533450
1181.392, 3.890186
1181.874, 2.606785
1182.356, 1.586815
1182.838, 4.260788
1183.320, 5.395176
1183.803, 6.282021
1184.285, 7.028927
1184.767, 7.387398
1185.249, 6.794476
1185.731, 6.117115
1186.213, 5.077702
1186.695, 4.606033
1187.177, 8.346245
1187.660, 16.87883
1188.142, 20.03349
1188.624, 15.60220
1189.106, 9.715733
1189.588, 6.108482
1190.070, 4.699741
1190.552, 6.980171
1191.034, 11.92652
1191.516, 11.80861
1191.999, 5.685123
1192.481, 4.452755
1192.963, 12.28432
1193.445, 20.34866
1193.927, 19.07795
1194.409, 13.97707
1194.891, 10.67586
1195.373, 9.488976
1195.855, 8.393925
1196.338, 7.376060
1196.820, 6.496670
1197.302, 5.856556
1197.784, 5.425591
1198.266, 4.714397
1198.748, 4.451992
1199.230, 5.981255
1199.712, 9.866085
1200.195, 11.94748
1200.677, 11.82954
1201.159, 12.94981
1201.641, 19.96697
1202.123, 25.59442
1202.605, 17.87016
1203.087, 4.291012
1203.569, 2.810886
1204.052, 0.7796290
1204.534, 4.417332
1205.016, 13.79256
1205.498, 20.33511
1205.980, 15.99926
1206.462, 9.317257
1206.944, 11.86335
1207.426, 19.44535
1207.908, 21.78136
1208.391, 14.91077
1208.873, 12.63976
1209.355, 16.55927
1209.837, 19.45900
1210.319, 11.92551
1210.801, 2.567413
1211.283, 1.834042
1211.765, 7.924889
1212.247, 13.87533
1212.730, 19.87830
1213.212, 22.86239
1213.694, 22.20631
1214.176, 19.85527
1214.658, 15.03838
1215.140, 11.45944
1215.622, 16.49062
1216.104, 27.75025
1216.587, 29.04352
1217.069, 15.15977
1217.551, 7.069908
1218.033, 9.062496
1218.515, 13.71683
1218.997, 13.69675
1219.479, 11.15904
1219.961, 7.938190
1220.443, 4.345032
1220.926, 1.575989
1221.408, 0.4655490
1221.890, 1.100430
1222.372, 0.1931110
1222.854, 2.264553
1223.336, 8.009834
1223.818, 14.19870
1224.300, 17.65261
1224.782, 17.80198
1225.265, 16.11550
1225.747, 12.02912
1226.229, 8.859066
1226.711, 8.172653
1227.193, 8.302967
1227.675, 6.341934
1228.157, 4.186615
1228.639, 4.850597
1229.122, 9.064003
1229.604, 9.939659
1230.086, 6.858185
1230.568, 4.607029
1231.050, 5.141224
1231.532, 7.059193
1232.014, 10.35726
1232.496, 13.18755
1232.979, 12.40745
1233.461, 7.092289
1233.943, 6.813213
1234.425, 12.28614
1234.907, 15.62833
1235.389, 12.50566
1235.871, 6.668232
1236.353, 1.507114
1236.835, 8.447418
1237.318, 8.314827
1237.800, 0.1887660
1238.282, 4.539333
1238.764, 4.475704
1239.246, 4.399723
1239.728, 6.304016
1240.210, 10.62769
1240.692, 21.84172
1241.175, 33.10307
1241.657, 34.25261
1242.139, 22.98545
1242.621, 16.83225
1243.103, 15.76210
1243.585, 15.84911
1244.067, 16.10369
1244.549, 15.10773
1245.031, 8.721016
1245.514, 2.432648
1245.996, 4.441509
1246.478, 15.88520
1246.960, 22.22216
1247.442, 23.35856
1247.924, 22.00288
1248.406, 16.91512
1248.888, 13.10987
1249.370, 14.63959
1249.853, 18.39814
1250.335, 21.02091
1250.817, 22.43246
1251.299, 18.88145
1251.781, 10.77534
1252.263, 6.172512
1252.745, 14.36682
1253.227, 22.14569
1253.710, 24.10522
1254.192, 22.22097
1254.674, 16.50988
1255.156, 8.182743
1255.638, 6.322788
1256.120, 10.86876
1256.602, 14.90761
1257.084, 12.48786
1257.567, 12.00495
1258.049, 18.64213
1258.531, 25.82951
1259.013, 22.71433
1259.495, 12.62077
1259.977, 10.00608
1260.459, 14.99941
1260.941, 16.94681
1261.423, 6.292713
1261.906, 1.546230
1262.388, 3.161541
1262.870, 0.5743450
1263.352, 5.272423
1263.834, 12.48370
1264.316, 16.40112
1264.798, 16.74223
1265.280, 16.03280
1265.762, 13.71422
1266.245, 12.70176
1266.727, 13.96745
1267.209, 15.65629
1267.691, 14.42258
1268.173, 12.24203
1268.655, 13.10120
1269.137, 17.24340
1269.619, 18.74716
1270.102, 15.64108
1270.584, 13.32093
1271.066, 12.64256
1271.548, 14.02086
1272.030, 22.12376
1272.512, 29.81274
1272.994, 25.55236
1273.476, 9.862839
1273.958, 4.002487
1274.441, 10.90768
1274.923, 15.79616
1275.405, 15.22997
1275.887, 12.58148
1276.369, 8.582371
1276.851, 7.122604
1277.333, 8.053829
1277.815, 11.18479
1278.297, 16.07669
1278.780, 22.98285
1279.262, 24.42838
1279.744, 17.74370
1280.226, 11.20493
1280.708, 12.13192
1281.190, 15.16486
1281.672, 16.40907
1282.154, 16.32873
1282.637, 16.42769
1283.119, 16.83201
1283.601, 19.23285
1284.083, 24.45063
1284.565, 28.25588
1285.047, 27.83069
1285.529, 25.24271
1286.011, 21.02786
1286.494, 16.16172
1286.976, 13.85006
1287.458, 13.45333
1287.940, 12.71401
1288.422, 10.97194
1288.904, 9.646111
1289.386, 13.24325
1289.868, 14.12693
1290.350, 7.759094
1290.833, 0.1065940
1291.315, 5.028572
1291.797, 16.37779
1292.279, 19.06787
1292.761, 8.787334
1293.243, 5.444733
1293.725, 14.73548
1294.207, 21.14599
1294.689, 18.60686
1295.172, 13.07162
1295.654, 12.06301
1296.136, 13.46012
1296.618, 14.69573
1297.100, 15.39363
1297.582, 17.32410
1298.064, 21.04480
1298.546, 22.14130
1299.029, 18.44899
1299.511, 14.12304
1299.993, 13.34192
1300.475, 14.22714
1300.957, 16.15888
1301.439, 18.40142
1301.921, 14.46043
1302.403, 4.782475
1302.885, 0.8475460
1303.368, 6.719246
1303.850, 13.77385
1304.332, 14.37100
1304.814, 13.78152
1305.296, 14.67945
1305.778, 16.48065
1306.260, 17.57907
1306.742, 17.92666
1307.224, 17.56631
1307.707, 16.20744
1308.189, 15.16492
1308.671, 14.80677
1309.153, 13.73142
1309.635, 14.63379
1310.117, 15.31610
1310.599, 9.130951
1311.081, 0.6651230
1311.564, 1.305317
1312.046, 5.101345
1312.528, 16.05933
1313.010, 33.05545
1313.492, 30.75230
1313.974, 20.93329
1314.456, 6.406586
1314.938, 0.0000000E+00
##END=



