##NAMES=Biphosphammite
##RRUFFID=R070411
##IDEAL CHEMISTRY=H_2_(N^3-^H_4_)PO_4_
##LOCALITY=Mason Bat Cave, Mason County, Texas, USA
##OWNER=RRUFF
##SOURCE=Michael Scott
##DESCRIPTION=Pale brown aggregate associated with white hair-like fibers
##STATUS=The identification of this mineral is not yet confirmed.
##URL=rruff.info/R070411
178.5888, 0.0000000E+00
179.0710, 17.10938
179.5531, 39.75781
180.0352, 49.61328
180.5173, 34.52246
180.9994, 10.03857
181.4815, 8.610352
181.9637, 22.45654
182.4458, 36.35400
182.9279, 29.60059
183.4100, 8.080566
183.8921, 4.794434
184.3742, 0.8559570
184.8564, 13.83936
185.3385, 23.91309
185.8206, 29.37598
186.3027, 31.96191
186.7848, 34.40186
187.2669, 36.16162
187.7491, 33.52100
188.2312, 20.85400
188.7133, 2.569824
189.1954, 4.284180
189.6775, 1.322754
190.1596, 13.76221
190.6418, 29.55322
191.1239, 48.38574
191.6060, 62.94824
192.0881, 69.85742
192.5702, 69.58936
193.0524, 65.38037
193.5345, 56.25635
194.0166, 45.68896
194.4987, 37.78271
194.9808, 32.39795
195.4629, 31.76807
195.9451, 39.89990
196.4272, 56.71875
196.9093, 66.41309
197.3914, 67.60498
197.8735, 63.06299
198.3556, 55.37695
198.8378, 43.16162
199.3199, 36.39062
199.8020, 43.92188
200.2841, 67.05273
200.7662, 82.63232
201.2483, 88.05762
201.7305, 86.38037
202.2126, 84.45166
202.6947, 82.10254
203.1768, 80.13867
203.6589, 80.25781
204.1410, 83.34717
204.6232, 80.75586
205.1053, 68.69775
205.5874, 51.77686
206.0695, 46.78320
206.5516, 57.37500
207.0337, 70.28320
207.5159, 74.87109
207.9980, 67.64551
208.4801, 68.63135
208.9622, 84.88965
209.4443, 111.1343
209.9264, 119.0098
210.4086, 101.2100
210.8907, 79.69141
211.3728, 71.90234
211.8549, 81.53027
212.3370, 93.01807
212.8191, 107.5190
213.3013, 123.1250
213.7834, 122.9189
214.2655, 99.35840
214.7476, 72.08301
215.2297, 58.55322
215.7118, 62.92627
216.1940, 69.38721
216.6761, 74.70166
217.1582, 79.15088
217.6403, 88.95703
218.1224, 107.3921
218.6045, 126.6235
219.0867, 141.4907
219.5688, 155.0483
220.0509, 155.5903
220.5330, 134.4551
221.0151, 90.59717
221.4972, 69.19971
221.9794, 83.18457
222.4615, 105.0537
222.9436, 102.9395
223.4257, 60.63184
223.9078, 27.61475
224.3899, 15.91943
224.8721, 26.72363
225.3542, 44.23438
225.8363, 76.91650
226.3184, 108.5068
226.8005, 118.0986
227.2827, 92.57910
227.7648, 69.73096
228.2469, 58.95850
228.7290, 61.43262
229.2111, 67.20020
229.6932, 78.55518
230.1754, 91.18994
230.6575, 99.92920
231.1396, 104.6230
231.6217, 105.3438
232.1038, 101.1333
232.5859, 90.68652
233.0681, 82.28564
233.5502, 76.15918
234.0323, 71.92578
234.5144, 68.53125
234.9965, 63.28906
235.4786, 63.66650
235.9608, 75.36816
236.4429, 103.3330
236.9250, 114.2300
237.4071, 98.55811
237.8892, 71.51660
238.3713, 56.97949
238.8535, 58.67920
239.3356, 66.73730
239.8177, 79.59619
240.2998, 99.82520
240.7819, 115.3130
241.2640, 126.8506
241.7462, 133.3999
242.2283, 133.2500
242.7104, 122.6846
243.1925, 111.2163
243.6746, 102.3340
244.1567, 96.43359
244.6389, 89.53418
245.1210, 81.20605
245.6031, 72.12891
246.0852, 63.23828
246.5673, 53.50000
247.0494, 45.56592
247.5316, 39.19287
248.0137, 31.29492
248.4958, 37.20459
248.9779, 67.80811
249.4600, 106.0186
249.9421, 117.1987
250.4243, 87.12354
250.9064, 55.71338
251.3885, 36.80811
251.8706, 32.16406
252.3527, 35.44189
252.8348, 51.37109
253.3170, 72.24512
253.7991, 82.56982
254.2812, 77.26465
254.7633, 70.89453
255.2454, 71.10156
255.7275, 83.67676
256.2097, 78.35596
256.6918, 42.32178
257.1739, 2.835449
257.6560, 13.66895
258.1381, 26.84863
258.6202, 66.69434
259.1024, 86.11426
259.5845, 80.28369
260.0666, 71.86816
260.5487, 57.06738
261.0308, 42.59131
261.5129, 43.88965
261.9951, 70.50098
262.4772, 89.80615
262.9593, 85.13477
263.4414, 48.67285
263.9235, 26.27393
264.4056, 21.66455
264.8878, 27.53320
265.3699, 31.49609
265.8520, 33.16113
266.3341, 34.27441
266.8162, 34.66650
267.2983, 33.40527
267.7805, 38.15137
268.2626, 52.14404
268.7447, 68.43604
269.2268, 73.75928
269.7089, 65.02588
270.1910, 56.38721
270.6732, 53.86914
271.1553, 58.41113
271.6374, 60.98730
272.1195, 61.38818
272.6016, 60.32031
273.0837, 59.07764
273.5659, 58.16846
274.0480, 54.57666
274.5301, 44.76074
275.0122, 28.25000
275.4943, 20.38135
275.9764, 22.23975
276.4586, 30.70361
276.9407, 44.69824
277.4228, 65.51611
277.9049, 78.57861
278.3870, 73.76172
278.8691, 52.22803
279.3513, 42.37158
279.8334, 46.93213
280.3155, 56.11523
280.7976, 55.60107
281.2798, 44.87451
281.7619, 36.31104
282.2440, 34.93213
282.7261, 39.92139
283.2082, 42.78857
283.6903, 42.97168
284.1725, 43.10889
284.6546, 48.66650
285.1367, 59.16699
285.6188, 64.46777
286.1009, 57.25293
286.5830, 41.55957
287.0652, 37.29688
287.5473, 46.31787
288.0294, 55.55371
288.5115, 44.68262
288.9936, 17.85596
289.4757, 4.305664
289.9579, 18.75098
290.4400, 51.24658
290.9221, 79.91846
291.4042, 105.4028
291.8863, 119.0908
292.3684, 100.4507
292.8506, 58.56055
293.3327, 33.74902
293.8148, 50.44434
294.2969, 85.82031
294.7790, 88.73926
295.2611, 58.73535
295.7433, 29.30371
296.2254, 38.23926
296.7075, 72.78223
297.1896, 91.71729
297.6717, 73.84814
298.1538, 42.98242
298.6360, 40.20508
299.1181, 62.94287
299.6002, 80.36621
300.0823, 53.26611
300.5644, 5.957031
301.0465, 12.62402
301.5287, 27.65283
302.0108, 80.74658
302.4929, 89.69092
302.9750, 61.37549
303.4571, 30.55078
303.9392, 18.31201
304.4214, 18.31885
304.9035, 22.44336
305.3856, 29.70801
305.8677, 38.75391
306.3498, 51.57959
306.8319, 66.02490
307.3141, 74.47412
307.7962, 66.09473
308.2783, 52.46924
308.7604, 45.90723
309.2425, 52.33691
309.7246, 58.50879
310.2068, 51.80273
310.6889, 37.72803
311.1710, 30.55566
311.6531, 46.83496
312.1352, 66.98633
312.6173, 74.84766
313.0995, 63.82568
313.5816, 51.64551
314.0637, 47.45850
314.5458, 47.75537
315.0279, 45.92285
315.5100, 32.83789
315.9922, 22.01855
316.4743, 22.89648
316.9564, 40.76123
317.4385, 52.91748
317.9206, 46.11523
318.4027, 30.43018
318.8849, 19.94629
319.3670, 18.58350
319.8491, 22.93359
320.3312, 34.22510
320.8133, 54.53857
321.2954, 69.69141
321.7776, 77.67920
322.2597, 79.07715
322.7418, 74.49268
323.2239, 52.51318
323.7060, 36.03467
324.1881, 33.03125
324.6703, 45.07812
325.1524, 53.11426
325.6345, 55.50635
326.1166, 53.41504
326.5987, 47.79883
327.0808, 34.24756
327.5630, 22.25928
328.0451, 8.956543
328.5272, 4.917969
329.0093, 1.634277
329.4914, 38.19482
329.9735, 77.36670
330.4557, 90.13184
330.9378, 56.08154
331.4199, 31.06250
331.9020, 20.45898
332.3841, 22.32422
332.8662, 27.93799
333.3484, 39.57715
333.8305, 51.32715
334.3126, 61.36426
334.7947, 72.10303
335.2768, 72.10010
335.7589, 56.18213
336.2411, 31.87939
336.7232, 20.36328
337.2053, 26.81641
337.6874, 32.49365
338.1695, 24.53271
338.6516, 0.5117190
339.1338, 6.156738
339.6159, 14.39941
340.0980, 44.65088
340.5801, 53.38135
341.0622, 38.06445
341.5443, 26.27148
342.0265, 34.34717
342.5086, 58.84668
342.9907, 66.87305
343.4728, 56.07715
343.9549, 37.62646
344.4370, 24.87109
344.9192, 16.70410
345.4013, 6.718750
345.8834, 11.20605
346.3655, 30.93652
346.8476, 32.90332
347.3297, 16.40869
347.8119, 3.517578
348.2940, 15.08203
348.7761, 20.13428
349.2582, 24.10059
349.7403, 30.83154
350.2225, 35.12402
350.7046, 26.64941
351.1867, 6.952148
351.6688, 11.84619
352.1509, 25.85156
352.6331, 32.39453
353.1152, 25.66650
353.5973, 0.4921880
354.0794, 31.02002
354.5615, 56.19775
355.0436, 75.49951
355.5258, 88.06592
356.0079, 91.00146
356.4900, 86.31104
356.9721, 76.50195
357.4542, 61.81641
357.9363, 45.66895
358.4185, 21.95117
358.9006, 1.403809
359.3827, 9.625977
359.8648, 20.53027
360.3469, 52.70850
360.8290, 67.33350
361.3112, 60.87988
361.7933, 50.56934
362.2754, 38.18311
362.7575, 26.17578
363.2396, 17.20557
363.7217, 4.866699
364.2039, 2.665039
364.6860, 22.02979
365.1681, 63.34375
365.6502, 88.50342
366.1323, 80.76709
366.6144, 63.31738
367.0966, 52.28320
367.5787, 59.85400
368.0608, 59.44824
368.5429, 43.31689
369.0250, 15.93848
369.5071, 0.5039060
369.9893, 1.618164
370.4714, 9.229004
370.9535, 18.83496
371.4356, 30.03027
371.9177, 45.08301
372.3998, 70.76416
372.8820, 96.93604
373.3641, 96.42334
373.8462, 56.36328
374.3283, 23.16650
374.8104, 18.54297
375.2925, 45.28320
375.7747, 65.04492
376.2568, 78.18213
376.7389, 84.21338
377.2210, 78.81689
377.7031, 60.85986
378.1852, 48.34180
378.6674, 50.17139
379.1495, 61.66064
379.6316, 59.50732
380.1137, 41.86816
380.5958, 26.85059
381.0779, 37.69238
381.5601, 68.35693
382.0422, 86.71191
382.5243, 81.03809
383.0064, 65.43555
383.4885, 67.44385
383.9706, 84.64014
384.4528, 97.52295
384.9349, 85.82666
385.4170, 63.02197
385.8991, 51.94092
386.3812, 57.56543
386.8633, 69.49707
387.3455, 83.64014
387.8276, 96.64746
388.3097, 101.1943
388.7918, 88.02637
389.2739, 69.29834
389.7560, 51.47168
390.2382, 33.26367
390.7203, 20.61230
391.2024, 22.63477
391.6845, 29.95654
392.1666, 31.83984
392.6487, 14.01562
393.1309, 8.5937999E-02
393.6130, 0.1137700
394.0951, 13.40918
394.5772, 30.26318
395.0593, 59.17188
395.5414, 83.96533
396.0236, 94.13623
396.5057, 74.44727
396.9878, 56.21143
397.4699, 38.09473
397.9520, 23.13965
398.4341, 22.07715
398.9163, 53.68115
399.3984, 79.44434
399.8805, 83.97412
400.3626, 58.48096
400.8447, 37.06738
401.3268, 16.56104
401.8090, 2.516602
402.2911, 6.457031
402.7732, 39.63281
403.2553, 60.24854
403.7374, 50.15527
404.2195, 11.56299
404.7017, 1.795898
405.1838, 17.43408
405.6659, 46.01172
406.1480, 64.08447
406.6301, 71.75098
407.1122, 71.07617
407.5944, 59.95850
408.0765, 43.24609
408.5586, 29.09814
409.0407, 17.57959
409.5228, 15.94775
410.0049, 42.09131
410.4871, 82.60156
410.9692, 97.39648
411.4513, 80.22217
411.9334, 49.62891
412.4155, 19.37402
412.8976, 7.427246
413.3798, 21.30566
413.8619, 7.747070
414.3440, 14.67041
414.8261, 26.49072
415.3082, 27.30615
415.7903, 26.29688
416.2725, 27.86328
416.7546, 31.38086
417.2367, 36.40674
417.7188, 44.70410
418.2009, 53.84424
418.6830, 65.02100
419.1652, 76.93848
419.6473, 84.07910
420.1294, 80.00049
420.6115, 74.20264
421.0937, 73.14209
421.5758, 84.14258
422.0579, 85.51172
422.5400, 63.10596
423.0221, 31.85254
423.5042, 16.24854
423.9864, 32.96094
424.4685, 47.52246
424.9506, 51.04248
425.4327, 42.15088
425.9148, 38.02246
426.3969, 38.55664
426.8791, 44.01172
427.3612, 55.37256
427.8433, 75.93457
428.3254, 94.03271
428.8075, 109.8013
429.2896, 120.9487
429.7718, 117.8018
430.2539, 98.61328
430.7360, 74.80078
431.2181, 47.64258
431.7002, 18.44531
432.1823, 8.833984
432.6645, 22.79102
433.1466, 46.71777
433.6287, 66.09668
434.1108, 80.36523
434.5929, 86.29102
435.0750, 78.02051
435.5572, 62.29004
436.0393, 47.92285
436.5214, 35.17871
437.0035, 29.66504
437.4856, 47.71387
437.9677, 72.20508
438.4499, 76.70996
438.9320, 42.09863
439.4141, 7.147461
439.8962, 0.2587890
440.3783, 13.68164
440.8604, 32.66016
441.3426, 61.97949
441.8247, 84.26270
442.3068, 85.11719
442.7889, 56.78711
443.2710, 36.93457
443.7531, 46.29395
444.2353, 65.09961
444.7174, 71.76562
445.1995, 52.89551
445.6816, 32.81152
446.1637, 11.25391
446.6458, 9.290039
447.1280, 12.69824
447.6101, 11.80957
448.0922, 37.67578
448.5743, 50.57520
449.0564, 45.77344
449.5385, 47.93262
450.0207, 61.30273
450.5028, 78.49316
450.9849, 84.08398
451.4670, 76.28516
451.9491, 68.61230
452.4312, 65.40625
452.9134, 66.17090
453.3955, 69.77539
453.8776, 77.12109
454.3597, 80.76074
454.8418, 66.21387
455.3239, 39.74316
455.8061, 28.91602
456.2882, 46.01074
456.7703, 72.37109
457.2524, 80.81738
457.7345, 74.84375
458.2166, 69.06934
458.6988, 77.13184
459.1809, 87.33887
459.6630, 83.24707
460.1451, 61.43848
460.6272, 44.71582
461.1093, 54.09668
461.5915, 74.34668
462.0736, 86.06348
462.5557, 69.58105
463.0378, 57.22656
463.5199, 63.95020
464.0020, 86.73145
464.4842, 102.5088
464.9663, 106.3262
465.4484, 101.8037
465.9305, 89.15039
466.4126, 50.52832
466.8947, 36.46777
467.3769, 64.89746
467.8590, 109.8418
468.3411, 127.9570
468.8232, 106.0957
469.3053, 83.55469
469.7874, 70.82910
470.2696, 67.26758
470.7517, 59.40234
471.2338, 45.40332
471.7159, 34.21582
472.1980, 34.55371
472.6801, 45.38184
473.1623, 50.56445
473.6444, 46.68359
474.1265, 38.65332
474.6086, 33.62793
475.0907, 32.48535
475.5728, 33.87012
476.0550, 40.58594
476.5371, 48.92578
477.0192, 49.47949
477.5013, 41.77637
477.9834, 39.72949
478.4655, 63.96582
478.9477, 97.32227
479.4298, 116.4473
479.9119, 104.8164
480.3940, 89.93359
480.8761, 87.14648
481.3582, 92.47559
481.8404, 94.81348
482.3225, 90.62500
482.8046, 82.36230
483.2867, 68.01465
483.7688, 41.33984
484.2509, 29.79688
484.7331, 50.32324
485.2152, 79.48145
485.6973, 95.46289
486.1794, 87.82324
486.6615, 84.96191
487.1436, 91.95898
487.6258, 106.8311
488.1079, 121.8232
488.5900, 139.4463
489.0721, 150.2529
489.5542, 149.2793
490.0363, 136.4893
490.5185, 113.8926
491.0006, 78.02344
491.4827, 43.90430
491.9648, 34.63184
492.4470, 46.29297
492.9291, 57.78027
493.4112, 60.43945
493.8933, 59.98535
494.3754, 65.59766
494.8575, 76.45508
495.3397, 86.69531
495.8218, 99.29785
496.3039, 106.1553
496.7860, 94.39453
497.2681, 55.76367
497.7502, 22.63965
498.2324, 16.24023
498.7145, 25.62500
499.1966, 35.43066
499.6787, 33.93457
500.1608, 35.51562
500.6429, 51.51172
501.1251, 80.21973
501.6072, 93.99121
502.0893, 85.40039
502.5714, 66.66797
503.0535, 42.34961
503.5356, 2.075195
504.0178, 25.36133
504.4999, 42.88574
504.9820, 45.21875
505.4641, 15.26855
505.9462, 54.37988
506.4283, 106.1240
506.9105, 119.5752
507.3926, 103.0645
507.8747, 87.00098
508.3568, 71.26465
508.8389, 57.71973
509.3210, 45.97852
509.8032, 37.38574
510.2853, 37.97461
510.7674, 50.91602
511.2495, 62.62305
511.7316, 50.48828
512.2137, 27.25586
512.6959, 18.82715
513.1780, 58.77930
513.6601, 98.04590
514.1422, 100.7363
514.6243, 71.24902
515.1064, 42.51367
515.5886, 21.83789
516.0707, 9.775391
516.5528, 7.185547
517.0349, 16.48438
517.5170, 30.42578
517.9991, 61.23242
518.4813, 91.54199
518.9634, 96.00293
519.4455, 54.83105
519.9276, 22.46191
520.4097, 11.07715
520.8918, 17.95508
521.3740, 26.75000
521.8561, 39.37598
522.3382, 47.58203
522.8203, 43.68945
523.3024, 28.52344
523.7845, 16.44531
524.2667, 6.876953
524.7488, 1.766602
525.2309, 3.451172
525.7130, 12.09180
526.1951, 29.15332
526.6772, 67.04980
527.1594, 102.5488
527.6415, 101.7207
528.1236, 71.74512
528.6057, 44.16699
529.0878, 35.14746
529.5699, 36.72363
530.0521, 47.55664
530.5342, 72.71875
531.0163, 83.70508
531.4984, 56.41406
531.9805, 16.91504
532.4626, 7.130859
532.9448, 1.805664
533.4269, 7.194336
533.9090, 19.24316
534.3911, 33.13184
534.8732, 43.04395
535.3553, 46.63770
535.8375, 51.13672
536.3196, 62.09961
536.8017, 80.65625
537.2838, 84.55762
537.7659, 71.10059
538.2480, 52.21680
538.7302, 37.37598
539.2123, 27.19629
539.6944, 28.83984
540.1765, 49.45996
540.6586, 71.75684
541.1407, 64.94043
541.6229, 37.39941
542.1050, 19.24023
542.5871, 38.25098
543.0692, 66.45215
543.5513, 80.22461
544.0334, 78.19922
544.5156, 67.72266
544.9977, 38.67188
545.4798, 10.92090
545.9619, 1.235352
546.4440, 30.63574
546.9261, 52.11523
547.4083, 51.75684
547.8904, 40.16211
548.3725, 35.26855
548.8546, 39.41992
549.3367, 46.73828
549.8188, 57.98730
550.3010, 72.27539
550.7831, 78.11816
551.2652, 74.33984
551.7473, 66.01367
552.2294, 54.08887
552.7115, 39.40527
553.1937, 32.04883
553.6758, 34.13086
554.1579, 38.09766
554.6400, 35.46387
555.1221, 27.20801
555.6042, 15.28809
556.0864, 8.688477
556.5685, 26.56055
557.0506, 13.89551
557.5327, 21.49902
558.0148, 50.64355
558.4969, 61.97656
558.9791, 60.77539
559.4612, 44.53613
559.9433, 7.311523
560.4254, 14.34082
560.9075, 2.655273
561.3896, 28.23047
561.8718, 34.89648
562.3539, 5.398438
562.8360, 10.57031
563.3181, 2.458984
563.8002, 20.67480
564.2823, 36.86328
564.7645, 45.22168
565.2466, 49.80469
565.7287, 52.02832
566.2108, 51.70605
566.6929, 45.53809
567.1750, 33.15234
567.6572, 23.05859
568.1393, 25.31836
568.6214, 34.54199
569.1035, 39.05859
569.5856, 36.05859
570.0677, 32.70898
570.5499, 34.06348
571.0320, 39.38281
571.5141, 47.04590
571.9962, 66.85352
572.4783, 78.62305
572.9604, 67.59668
573.4426, 38.84961
573.9247, 18.82812
574.4068, 21.44238
574.8889, 25.27441
575.3710, 17.33789
575.8531, 10.65625
576.3353, 2.990234
576.8174, 62.93945
577.2995, 130.8037
577.7816, 137.2080
578.2637, 73.84082
578.7458, 40.15625
579.2280, 59.86719
579.7101, 97.93164
580.1922, 83.79102
580.6743, 27.31445
581.1564, 15.67676
581.6385, 11.54785
582.1207, 16.14258
582.6028, 44.16699
583.0849, 71.19141
583.5670, 87.42871
584.0491, 79.02344
584.5313, 62.14551
585.0134, 48.67090
585.4955, 40.25195
585.9776, 35.72949
586.4597, 36.12891
586.9418, 39.79492
587.4240, 44.85645
587.9061, 52.78223
588.3882, 59.73438
588.8703, 65.30078
589.3524, 69.63281
589.8345, 73.28613
590.3167, 75.48242
590.7988, 76.96387
591.2809, 78.42090
591.7630, 78.92090
592.2451, 70.81836
592.7272, 53.60840
593.2094, 40.85645
593.6915, 50.40918
594.1736, 71.14746
594.6557, 82.42383
595.1378, 80.37402
595.6199, 69.60059
596.1021, 40.99414
596.5842, 9.062500
597.0663, 5.502930
597.5485, 26.63574
598.0306, 53.62207
598.5127, 56.27441
598.9948, 39.35352
599.4769, 24.25879
599.9590, 11.36523
600.4412, 1.505859
600.9233, 6.465820
601.4054, 13.20117
601.8875, 4.513672
602.3696, 27.61914
602.8517, 55.12891
603.3339, 44.19336
603.8160, 1.125000
604.2981, 19.94531
604.7802, 1.771484
605.2623, 29.87109
605.7444, 48.51953
606.2266, 56.54395
606.7087, 58.96680
607.1908, 52.06738
607.6729, 46.45410
608.1550, 51.75000
608.6371, 65.52637
609.1193, 80.23828
609.6014, 98.41699
610.0835, 111.9541
610.5656, 117.4883
611.0477, 115.0898
611.5298, 101.4678
612.0120, 63.43555
612.4941, 27.46875
612.9762, 12.74023
613.4583, 25.87891
613.9404, 35.35449
614.4225, 38.63086
614.9047, 41.05566
615.3868, 52.49707
615.8689, 70.57617
616.3510, 72.05469
616.8331, 38.33008
617.3152, 4.1992001E-02
617.7974, 18.08398
618.2795, 75.80469
618.7616, 115.1846
619.2437, 76.40332
619.7258, 25.14062
620.2079, 13.23145
620.6901, 42.77930
621.1722, 72.70312
621.6543, 94.97070
622.1364, 107.7656
622.6185, 106.8994
623.1006, 76.15039
623.5828, 69.78125
624.0649, 104.5098
624.5470, 148.2881
625.0291, 159.7441
625.5112, 131.8193
625.9933, 109.4336
626.4755, 101.6855
626.9576, 102.5771
627.4397, 100.2266
627.9218, 95.15625
628.4039, 91.35449
628.8860, 91.06055
629.3682, 93.04688
629.8503, 99.23242
630.3324, 108.1758
630.8145, 108.8193
631.2966, 80.52051
631.7787, 51.46387
632.2609, 44.69629
632.7430, 70.46973
633.2251, 89.45117
633.7072, 88.27539
634.1893, 80.62793
634.6714, 76.82715
635.1536, 77.45508
635.6357, 80.60254
636.1178, 86.68066
636.5999, 94.54883
637.0820, 102.1553
637.5641, 109.4229
638.0463, 117.9277
638.5284, 132.6826
639.0105, 144.6367
639.4926, 128.7041
639.9747, 91.08984
640.4568, 66.34668
640.9390, 87.95410
641.4211, 124.0137
641.9032, 146.3115
642.3853, 152.7393
642.8674, 153.4365
643.3495, 155.4434
643.8317, 151.0107
644.3138, 132.1758
644.7959, 73.93066
645.2780, 49.62793
645.7601, 73.69141
646.2422, 118.9365
646.7244, 160.7803
647.2065, 204.5254
647.6886, 208.8594
648.1707, 149.4385
648.6528, 70.97949
649.1349, 75.84277
649.6171, 152.9258
650.0992, 218.7559
650.5813, 226.9980
651.0634, 205.4199
651.5455, 180.8701
652.0276, 154.6416
652.5098, 134.6719
652.9919, 131.2510
653.4740, 130.6309
653.9561, 122.8301
654.4382, 104.6904
654.9203, 92.71777
655.4025, 83.30664
655.8846, 85.47559
656.3667, 110.2637
656.8488, 175.2412
657.3309, 210.7754
657.8130, 210.5918
658.2952, 186.5996
658.7773, 141.4482
659.2594, 78.44336
659.7415, 45.21094
660.2236, 61.76953
660.7057, 100.2451
661.1879, 127.4834
661.6700, 144.5332
662.1521, 154.1709
662.6342, 153.2715
663.1163, 148.0635
663.5984, 140.4150
664.0806, 130.9053
664.5627, 123.2783
665.0448, 121.7480
665.5269, 119.7969
666.0090, 112.4697
666.4911, 98.32031
666.9733, 89.20020
667.4554, 84.30859
667.9375, 85.98828
668.4196, 100.1357
668.9017, 126.1543
669.3839, 142.5332
669.8660, 146.6406
670.3481, 144.1582
670.8302, 139.7959
671.3123, 133.8623
671.7944, 127.5918
672.2766, 124.7393
672.7587, 116.1201
673.2408, 80.59082
673.7229, 36.70312
674.2050, 20.12305
674.6871, 76.75391
675.1693, 122.9512
675.6514, 134.1104
676.1335, 115.6846
676.6156, 91.16895
677.0977, 50.11133
677.5798, 27.28320
678.0620, 46.05762
678.5441, 100.7607
679.0262, 135.1641
679.5083, 149.1865
679.9904, 149.2275
680.4725, 136.1162
680.9547, 113.9551
681.4368, 83.09180
681.9189, 40.88867
682.4010, 18.24512
682.8831, 57.01172
683.3652, 115.8955
683.8474, 153.2793
684.3295, 155.8936
684.8116, 142.9551
685.2937, 103.9971
685.7758, 56.85840
686.2579, 23.82617
686.7401, 4.946289
687.2222, 1.693359
687.7043, 19.49414
688.1864, 48.32520
688.6685, 64.78516
689.1506, 69.32617
689.6328, 68.64355
690.1149, 59.11133
690.5970, 50.54883
691.0791, 64.04297
691.5612, 94.55957
692.0433, 116.0146
692.5255, 109.7686
693.0076, 94.24219
693.4897, 78.17285
693.9718, 61.73438
694.4539, 52.87500
694.9360, 59.45410
695.4182, 67.51074
695.9003, 69.31738
696.3824, 62.58203
696.8645, 58.68945
697.3466, 57.47754
697.8287, 59.51270
698.3109, 66.00781
698.7930, 76.49121
699.2751, 90.62305
699.7572, 110.6543
700.2393, 125.1426
700.7214, 115.3701
701.2036, 93.15527
701.6857, 78.29883
702.1678, 87.36133
702.6499, 93.91309
703.1320, 85.68164
703.6141, 67.72852
704.0963, 52.76465
704.5784, 43.09766
705.0605, 34.22949
705.5426, 26.10742
706.0247, 17.69531
706.5068, 2.521484
706.9890, 21.57520
707.4711, 34.87891
707.9532, 19.01660
708.4353, 13.41016
708.9174, 25.03418
709.3995, 18.46484
709.8817, 18.86426
710.3638, 59.40137
710.8459, 104.1660
711.3280, 118.3984
711.8101, 95.50781
712.2922, 70.84766
712.7744, 53.45605
713.2565, 38.21387
713.7386, 19.35840
714.2207, 14.17773
714.7028, 18.69238
715.1849, 18.68652
715.6671, 62.77246
716.1492, 69.02637
716.6313, 41.33887
717.1134, 31.89648
717.5955, 56.25391
718.0776, 81.67285
718.5598, 54.72852
719.0419, 2.467773
719.5240, 22.62891
720.0061, 22.29297
720.4882, 68.58691
720.9703, 89.90918
721.4525, 89.49609
721.9346, 74.52148
722.4167, 19.69238
722.8988, 14.54785
723.3809, 8.408203
723.8630, 25.82520
724.3452, 37.03613
724.8273, 22.11621
725.3094, 6.171875
725.7915, 0.4746090
726.2736, 2.351563
726.7557, 4.196289
727.2379, 6.587891
727.7200, 13.99609
728.2021, 30.82129
728.6842, 52.70996
729.1663, 83.65723
729.6484, 124.4902
730.1306, 141.8984
730.6127, 97.04785
731.0948, 50.67773
731.5769, 37.00488
732.0590, 65.65918
732.5411, 87.29785
733.0233, 100.4727
733.5054, 109.9238
733.9875, 121.6396
734.4696, 134.4434
734.9517, 139.5508
735.4338, 136.2461
735.9160, 124.2363
736.3981, 89.49219
736.8802, 50.14258
737.3623, 38.33789
737.8444, 80.14355
738.3266, 107.1621
738.8087, 80.57520
739.2908, 31.48242
739.7729, 5.516602
740.2551, 10.84570
740.7372, 28.28027
741.2193, 64.44824
741.7014, 104.1934
742.1835, 111.6533
742.6656, 86.41797
743.1478, 59.46582
743.6299, 35.65039
744.1120, 21.69824
744.5941, 39.98535
745.0762, 79.49121
745.5583, 104.1104
746.0405, 79.34668
746.5226, 50.14746
747.0047, 43.90332
747.4868, 56.33301
747.9689, 59.40625
748.4510, 36.69531
748.9332, 21.43945
749.4153, 28.51953
749.8974, 54.81445
750.3795, 59.06348
750.8616, 37.58594
751.3438, 22.42188
751.8259, 43.51367
752.3080, 83.59961
752.7901, 101.3389
753.2722, 96.36230
753.7543, 84.11133
754.2365, 64.19824
754.7186, 48.29297
755.2007, 49.72168
755.6828, 74.07422
756.1649, 90.62988
756.6470, 95.64062
757.1292, 90.40430
757.6113, 71.65039
758.0934, 32.17188
758.5755, 14.46875
759.0576, 23.07617
759.5397, 37.95703
760.0219, 37.66113
760.5040, 26.46973
760.9861, 17.42969
761.4682, 12.63477
761.9503, 10.08301
762.4324, 4.154297
762.9146, 1.377930
763.3967, 10.68262
763.8788, 51.97070
764.3609, 76.34180
764.8430, 61.53516
765.3251, 32.76367
765.8073, 18.33496
766.2894, 19.50879
766.7715, 30.07422
767.2536, 52.03320
767.7357, 77.77539
768.2178, 98.78027
768.7000, 113.4980
769.1821, 113.5703
769.6642, 88.31152
770.1463, 61.26562
770.6284, 51.77441
771.1105, 54.54980
771.5927, 59.63672
772.0748, 70.61523
772.5569, 75.15039
773.0390, 71.80469
773.5211, 60.22266
774.0032, 36.49219
774.4854, 6.526367
774.9675, 34.02734
775.4496, 31.45410
775.9317, 10.39551
776.4138, 0.3671880
776.8959, 2.809570
777.3781, 7.541016
777.8602, 22.40820
778.3423, 42.93555
778.8244, 76.64648
779.3065, 116.4102
779.7886, 132.9053
780.2708, 93.08203
780.7529, 52.92383
781.2350, 30.34473
781.7171, 24.76270
782.1992, 26.76855
782.6813, 38.07617
783.1635, 50.30762
783.6456, 58.68945
784.1277, 64.63867
784.6098, 73.52344
785.0919, 85.00000
785.5740, 96.02051
786.0562, 115.5508
786.5383, 126.0244
787.0204, 104.2090
787.5025, 49.26465
787.9846, 9.332031
788.4667, 1.331055
788.9489, 6.259766
789.4310, 18.61035
789.9131, 38.75195
790.3952, 59.61523
790.8773, 83.37598
791.3594, 96.80957
791.8416, 80.28711
792.3237, 46.84570
792.8058, 36.09668
793.2879, 49.40820
793.7700, 55.99121
794.2521, 14.18750
794.7343, 29.64941
795.2164, 29.71973
795.6985, 35.02246
796.1806, 69.89551
796.6627, 38.72070
797.1448, 5.184570
797.6270, 14.27930
798.1091, 74.23633
798.5912, 112.2236
799.0733, 126.9326
799.5554, 125.7510
800.0375, 110.3623
800.5197, 85.82324
801.0018, 59.04688
801.4839, 29.90918
801.9660, 8.922852
802.4481, 5.878906
802.9302, 3.030273
803.4124, 28.92871
803.8945, 130.9854
804.3766, 174.2607
804.8587, 132.0469
805.3408, 66.23242
805.8229, 32.51562
806.3051, 32.69141
806.7872, 33.51270
807.2693, 34.37402
807.7514, 33.71582
808.2335, 22.38672
808.7156, 10.61816
809.1978, 18.56641
809.6799, 60.70898
810.1620, 87.78027
810.6441, 55.15039
811.1262, 11.51172
811.6083, 6.572266
812.0905, 65.27051
812.5726, 107.4180
813.0547, 129.6367
813.5368, 137.9756
814.0189, 139.3750
814.5010, 133.1328
814.9832, 108.5312
815.4653, 57.67969
815.9474, 19.31738
816.4295, 50.42480
816.9116, 105.9258
817.3937, 127.1123
817.8759, 75.75977
818.3580, 36.53711
818.8401, 29.64453
819.3222, 40.70996
819.8043, 60.38770
820.2864, 92.77246
820.7686, 114.6113
821.2507, 123.7363
821.7328, 122.6631
822.2149, 107.0283
822.6970, 84.26660
823.1791, 74.50977
823.6613, 85.70605
824.1434, 99.24219
824.6255, 109.8867
825.1076, 112.8320
825.5897, 102.5830
826.0718, 62.88184
826.5540, 32.54004
827.0361, 11.95312
827.5182, 2.604492
828.0003, 8.890625
828.4824, 30.52441
828.9645, 50.47656
829.4467, 67.29102
829.9288, 77.05371
830.4109, 69.75000
830.8930, 54.19434
831.3751, 44.30859
831.8572, 46.32227
832.3394, 47.73633
832.8215, 41.49023
833.3036, 34.43750
833.7857, 33.66602
834.2678, 41.34570
834.7499, 46.07715
835.2321, 47.10840
835.7142, 45.10254
836.1963, 38.56348
836.6784, 29.48535
837.1605, 26.68848
837.6426, 33.70020
838.1248, 38.64160
838.6069, 19.99609
839.0890, 8.8867001E-02
839.5711, 6.199219
840.0532, 74.99023
840.5353, 111.9785
841.0175, 98.06250
841.4996, 65.00195
841.9817, 42.58301
842.4638, 30.53711
842.9459, 29.29688
843.4280, 40.20996
843.9102, 55.68164
844.3923, 74.13281
844.8744, 89.35352
845.3565, 88.53320
845.8386, 64.08789
846.3207, 42.90723
846.8029, 40.20508
847.2850, 43.43652
847.7671, 40.35742
848.2492, 22.76074
848.7313, 22.79395
849.2134, 46.67480
849.6956, 72.18652
850.1777, 76.25488
850.6598, 63.50391
851.1419, 46.61035
851.6240, 25.77637
852.1061, 14.52246
852.5883, 35.72754
853.0704, 62.24512
853.5525, 65.69531
854.0346, 24.43555
854.5167, 6.573242
854.9988, 29.04004
855.4810, 58.06543
855.9631, 67.69043
856.4452, 57.54297
856.9273, 59.02539
857.4094, 73.84766
857.8915, 87.09766
858.3737, 88.42773
858.8558, 78.97559
859.3379, 52.46875
859.8200, 5.697266
860.3021, 21.27734
860.7842, 7.132813
861.2664, 45.08789
861.7485, 68.79297
862.2306, 78.90625
862.7127, 61.72070
863.1948, 7.641602
863.6769, 31.99121
864.1591, 3.023438
864.6412, 62.86426
865.1233, 90.03027
865.6054, 78.93750
866.0875, 65.74219
866.5696, 76.05371
867.0518, 87.96582
867.5339, 81.83691
868.0160, 55.42188
868.4981, 55.82910
868.9802, 100.5244
869.4623, 134.8838
869.9445, 127.9678
870.4266, 90.01172
870.9087, 65.98438
871.3908, 55.55566
871.8729, 57.04688
872.3550, 88.55566
872.8372, 115.9141
873.3193, 98.53125
873.8014, 46.11523
874.2835, 16.79102
874.7656, 43.96582
875.2477, 72.45898
875.7299, 91.40820
876.2120, 100.7539
876.6941, 98.55664
877.1762, 84.85938
877.6583, 70.16992
878.1404, 56.15137
878.6226, 46.67090
879.1047, 49.00098
879.5869, 60.00879
880.0690, 71.76465
880.5511, 83.34082
881.0332, 92.97559
881.5153, 109.2539
881.9974, 120.4805
882.4796, 92.71582
882.9617, 13.31055
883.4438, 29.53711
883.9259, 4.872070
884.4080, 45.30469
884.8901, 53.66504
885.3723, 35.13574
885.8544, 25.55078
886.3365, 40.52441
886.8186, 60.87891
887.3007, 89.05078
887.7828, 112.8799
888.2650, 112.8594
888.7471, 71.81836
889.2292, 55.26465
889.7113, 74.79004
890.1934, 105.9473
890.6755, 117.9326
891.1577, 115.4053
891.6398, 113.6318
892.1219, 116.0967
892.6040, 116.0420
893.0861, 107.5762
893.5682, 95.02930
894.0504, 82.13184
894.5325, 68.52930
895.0146, 57.37988
895.4967, 48.68945
895.9788, 40.92676
896.4609, 33.50293
896.9431, 25.53516
897.4252, 12.36133
897.9073, 6.415039
898.3894, 20.10254
898.8715, 19.40918
899.3536, 11.03516
899.8358, 0.6445310
900.3179, 15.01074
900.8000, 29.23633
901.2821, 42.24219
901.7642, 56.34570
902.2463, 77.58496
902.7285, 102.1924
903.2106, 96.59277
903.6927, 62.06250
904.1748, 29.21191
904.6569, 8.640625
905.1390, 4.708008
905.6212, 32.89355
906.1033, 84.17090
906.5854, 121.9189
907.0675, 135.3203
907.5496, 131.9316
908.0317, 103.1328
908.5139, 63.13086
908.9960, 59.41895
909.4781, 92.22266
909.9602, 125.4014
910.4423, 149.9951
910.9244, 163.0664
911.4066, 158.6172
911.8887, 140.4658
912.3708, 115.3574
912.8529, 58.26562
913.3350, 31.81250
913.8171, 69.08984
914.2993, 125.6045
914.7814, 141.3291
915.2635, 113.4717
915.7456, 77.29395
916.2277, 33.64551
916.7098, 0.5468750
917.1920, 8.833984
917.6741, 37.33887
918.1562, 53.88672
918.6383, 52.24219
919.1204, 49.77344
919.6025, 57.86230
920.0847, 61.68164
920.5668, 47.08301
921.0489, 9.100586
921.5310, 6.372070
922.0131, 7.476563
922.4952, 31.76562
922.9774, 59.94434
923.4595, 84.89160
923.9416, 94.35938
924.4237, 88.30566
924.9058, 78.35254
925.3879, 60.13770
925.8701, 49.69141
926.3522, 56.14453
926.8343, 77.40918
927.3164, 88.53418
927.7985, 89.01660
928.2806, 84.54297
928.7628, 74.32324
929.2449, 63.85254
929.7270, 63.84180
930.2091, 70.79980
930.6912, 75.39648
931.1733, 69.81250
931.6555, 65.80859
932.1376, 61.33203
932.6197, 63.23047
933.1018, 91.16895
933.5839, 150.6846
934.0660, 180.1875
934.5482, 166.3486
935.0303, 132.6484
935.5124, 101.9971
935.9945, 74.77441
936.4766, 50.73145
936.9587, 26.20801
937.4409, 13.84277
937.9230, 21.19727
938.4051, 40.10156
938.8872, 67.94531
939.3693, 107.4248
939.8514, 132.8057
940.3336, 143.6748
940.8157, 141.4570
941.2978, 114.7402
941.7799, 82.57227
942.2620, 70.42773
942.7441, 77.80371
943.2263, 77.33105
943.7084, 39.22852
944.1905, 12.41504
944.6726, 23.84082
945.1547, 64.30566
945.6368, 71.12012
946.1190, 42.04395
946.6011, 18.66699
947.0832, 22.58887
947.5653, 38.85938
948.0474, 49.28906
948.5295, 56.22852
949.0117, 65.12793
949.4938, 85.02930
949.9759, 98.01465
950.4580, 103.9424
950.9401, 99.47852
951.4222, 68.75488
951.9044, 10.53027
952.3865, 4.116211
952.8686, 42.88477
953.3507, 102.7842
953.8328, 132.2441
954.3149, 139.6924
954.7971, 134.3584
955.2792, 116.4492
955.7613, 91.39746
956.2434, 46.09375
956.7255, 7.827148
957.2076, 1.874023
957.6898, 16.17969
958.1719, 25.10938
958.6540, 24.95312
959.1361, 20.47559
959.6182, 6.449219
960.1003, 3.709961
960.5825, 3.958984
961.0646, 27.53711
961.5467, 53.82520
962.0288, 87.03125
962.5109, 112.4014
962.9930, 126.2715
963.4752, 129.9570
963.9573, 119.9814
964.4394, 99.58594
964.9215, 88.65039
965.4036, 94.90332
965.8857, 110.3750
966.3679, 145.4570
966.8500, 178.8193
967.3321, 181.0195
967.8142, 117.4795
968.2963, 80.20020
968.7784, 77.34863
969.2606, 85.58789
969.7427, 82.16602
970.2248, 70.16406
970.7069, 60.49121
971.1890, 53.97852
971.6711, 48.13477
972.1533, 28.40137
972.6354, 19.59668
973.1175, 49.35840
973.5996, 116.3730
974.0817, 151.4062
974.5638, 147.6514
975.0460, 135.3184
975.5281, 125.6807
976.0102, 116.2773
976.4923, 102.9277
976.9744, 85.51660
977.4565, 63.61426
977.9387, 8.969727
978.4208, 16.42285
978.9029, 41.23633
979.3850, 122.0059
979.8671, 144.4648
980.3492, 94.98047
980.8314, 66.27539
981.3135, 72.61133
981.7956, 81.61426
982.2777, 39.92773
982.7598, 13.82031
983.2419, 14.27637
983.7241, 56.80859
984.2062, 106.0820
984.6883, 83.84375
985.1704, 54.92480
985.6525, 44.27344
986.1346, 51.38184
986.6168, 91.83594
987.0989, 164.3945
987.5810, 206.1514
988.0631, 155.2080
988.5452, 78.29297
989.0273, 32.80762
989.5095, 11.82129
989.9916, 2.396484
990.4737, 22.47656
990.9558, 18.00098
991.4379, 26.70312
991.9200, 79.93555
992.4022, 83.85840
992.8843, 51.12012
993.3664, 41.11035
993.8485, 69.28027
994.3306, 91.87793
994.8127, 70.65625
995.2949, 36.00293
995.7770, 9.579102
996.2591, 10.55566
996.7412, 8.022461
997.2233, 78.31836
997.7054, 139.1943
998.1876, 145.5469
998.6697, 119.4912
999.1518, 104.6621
999.6339, 100.6465
1000.116, 105.3789
1000.598, 139.9111
1001.080, 157.3018
1001.562, 127.6533
1002.044, 77.35352
1002.527, 51.48242
1003.009, 51.11230
1003.491, 66.71191
1003.973, 101.3545
1004.455, 130.2051
1004.937, 117.8271
1005.419, 86.68652
1005.901, 62.90527
1006.384, 49.67285
1006.866, 52.75293
1007.348, 84.37305
1007.830, 111.2783
1008.312, 113.5000
1008.794, 96.03906
1009.276, 87.68750
1009.758, 86.65820
1010.240, 77.85352
1010.723, 39.25000
1011.205, 4.292969
1011.687, 0.4570310
1012.169, 16.30664
1012.651, 16.59668
1013.133, 14.40430
1013.615, 11.95996
1014.097, 43.60840
1014.580, 108.9082
1015.062, 115.5303
1015.544, 90.38281
1016.026, 89.14355
1016.508, 129.5381
1016.990, 149.4102
1017.472, 94.26367
1017.954, 38.53906
1018.436, 24.89941
1018.919, 51.75586
1019.401, 95.16406
1019.883, 155.1709
1020.365, 190.8760
1020.847, 159.6855
1021.329, 108.7373
1021.811, 76.84082
1022.293, 62.69922
1022.776, 63.01660
1023.258, 91.84668
1023.740, 109.9961
1024.222, 110.6338
1024.704, 104.4785
1025.186, 111.3945
1025.668, 124.0400
1026.150, 110.8818
1026.632, 65.13477
1027.115, 27.88672
1027.597, 32.36328
1028.079, 46.85352
1028.561, 45.38086
1029.043, 29.01758
1029.525, 46.43359
1030.007, 103.2979
1030.489, 143.8115
1030.972, 137.1738
1031.454, 105.6445
1031.936, 68.76465
1032.418, 32.42383
1032.900, 9.759766
1033.382, 11.94922
1033.864, 21.02246
1034.346, 45.75684
1034.828, 65.50000
1035.311, 42.60156
1035.793, 11.85254
1036.275, 14.10449
1036.757, 45.05566
1037.239, 97.89746
1037.721, 86.24609
1038.203, 60.81348
1038.685, 55.45117
1039.167, 69.98633
1039.650, 86.56055
1040.132, 106.2939
1040.614, 123.2061
1041.096, 141.5801
1041.578, 148.5381
1042.060, 104.0859
1042.542, 34.59277
1043.024, 11.10059
1043.507, 13.82422
1043.989, 0.7226560
1044.471, 35.68750
1044.953, 76.67090
1045.435, 119.9824
1045.917, 163.3213
1046.399, 170.2305
1046.881, 141.6465
1047.364, 112.1260
1047.846, 105.1611
1048.328, 103.6943
1048.810, 99.70801
1049.292, 94.43359
1049.774, 90.50879
1050.256, 89.47266
1050.738, 83.33105
1051.220, 68.46289
1051.703, 53.38574
1052.185, 49.61621
1052.667, 54.55566
1053.149, 66.84375
1053.631, 90.16992
1054.113, 100.4941
1054.595, 76.82129
1055.077, 58.57617
1055.559, 72.50879
1056.042, 110.7705
1056.524, 113.0225
1057.006, 84.22363
1057.488, 65.01270
1057.970, 92.87207
1058.452, 121.4531
1058.934, 116.6348
1059.416, 93.63086
1059.899, 85.29590
1060.381, 98.92969
1060.863, 101.9619
1061.345, 90.45801
1061.827, 77.32910
1062.309, 89.95898
1062.791, 106.7080
1063.273, 87.18555
1063.755, 29.27148
1064.238, 10.40137
1064.720, 17.98242
1065.202, 4.817383
1065.684, 40.65332
1066.166, 100.5928
1066.648, 120.1709
1067.130, 106.7783
1067.612, 97.67480
1068.094, 109.7510
1068.577, 116.3965
1069.059, 95.74023
1069.541, 65.62305
1070.023, 42.55859
1070.505, 26.39551
1070.987, 20.25488
1071.469, 26.66602
1071.951, 31.66406
1072.434, 16.33008
1072.916, 1.163086
1073.398, 3.049805
1073.880, 23.98047
1074.362, 43.18164
1074.844, 66.04004
1075.326, 69.44824
1075.808, 42.26660
1076.291, 9.423828
1076.773, 5.970703
1077.255, 25.32422
1077.737, 56.65332
1078.219, 100.2451
1078.701, 121.0635
1079.183, 70.13672
1079.665, 21.14551
1080.147, 16.20508
1080.630, 45.84277
1081.112, 50.16895
1081.594, 30.26465
1082.076, 20.79785
1082.558, 41.54004
1083.040, 64.61035
1083.522, 63.58008
1084.004, 50.37891
1084.486, 38.92578
1084.969, 20.75195
1085.451, 39.23730
1085.933, 106.9619
1086.415, 163.3545
1086.897, 150.5459
1087.379, 101.2021
1087.861, 66.01172
1088.343, 45.15039
1088.826, 33.32812
1089.308, 43.20508
1089.790, 40.34961
1090.272, 6.434570
1090.754, 27.85352
1091.236, 3.737305
1091.718, 64.66113
1092.200, 115.2021
1092.682, 138.6318
1093.165, 139.8506
1093.647, 87.89648
1094.129, 45.28223
1094.611, 66.57129
1095.093, 136.3701
1095.575, 141.8877
1096.057, 79.88770
1096.539, 38.01953
1097.022, 59.17285
1097.504, 93.74609
1097.986, 93.09082
1098.468, 73.15723
1098.950, 54.33496
1099.432, 34.68555
1099.914, 32.53516
1100.396, 52.84375
1100.879, 73.50488
1101.361, 80.20312
1101.843, 78.17578
1102.325, 71.13965
1102.807, 61.30566
1103.289, 56.85938
1103.771, 70.27246
1104.253, 77.78418
1104.735, 70.75391
1105.218, 56.57227
1105.700, 48.26367
1106.182, 44.53516
1106.664, 38.10156
1107.146, 28.12500
1107.628, 22.25195
1108.110, 20.51465
1108.592, 29.08691
1109.074, 55.86816
1109.557, 95.30762
1110.039, 131.8867
1110.521, 166.2529
1111.003, 163.1602
1111.485, 99.65723
1111.967, 34.55469
1112.449, 28.71582
1112.931, 49.47168
1113.414, 63.19824
1113.896, 66.16406
1114.378, 60.20801
1114.860, 43.31250
1115.342, 25.87402
1115.824, 4.316406
1116.306, 6.251953
1116.788, 43.58203
1117.271, 120.2168
1117.753, 149.1846
1118.235, 37.57910
1118.717, 15.59766
1119.199, 22.18652
1119.681, 81.22754
1120.163, 95.63770
1120.645, 75.36719
1121.127, 35.07520
1121.609, 18.94629
1122.092, 41.25684
1122.574, 32.62207
1123.056, 93.55762
1123.538, 97.47656
1124.020, 72.27734
1124.502, 76.96973
1124.984, 106.9521
1125.466, 120.5938
1125.949, 108.2041
1126.431, 96.54492
1126.913, 114.1846
1127.395, 130.8350
1127.877, 119.0840
1128.359, 83.80273
1128.841, 63.47949
1129.323, 58.28613
1129.806, 68.08984
1130.288, 100.1162
1130.770, 131.0752
1131.252, 134.3516
1131.734, 124.2334
1132.216, 120.8945
1132.698, 133.6445
1133.180, 125.0547
1133.662, 90.70410
1134.145, 53.63574
1134.627, 25.34277
1135.109, 5.370117
1135.591, 9.473633
1136.073, 16.45410
1136.555, 8.579102
1137.037, 38.43945
1137.519, 65.24609
1138.001, 61.46094
1138.484, 51.50195
1138.966, 67.28223
1139.448, 94.64258
1139.930, 92.27441
1140.412, 62.30176
1140.894, 43.55078
1141.376, 55.87793
1141.858, 79.28613
1142.341, 120.1719
1142.823, 156.2295
1143.305, 134.8447
1143.787, 70.61816
1144.269, 27.35156
1144.751, 15.82324
1145.233, 24.23633
1145.715, 77.88770
1146.198, 115.7598
1146.680, 92.43066
1147.162, 28.18066
1147.644, 29.37109
1148.126, 90.14844
1148.608, 126.9775
1149.090, 108.8867
1149.572, 86.37402
1150.054, 101.2217
1150.536, 127.5781
1151.019, 144.2441
1151.501, 151.6846
1151.983, 127.9902
1152.465, 71.47559
1152.947, 23.58008
1153.429, 7.851563
1153.911, 9.385742
1154.393, 16.20703
1154.876, 30.01953
1155.358, 56.45996
1155.840, 104.8203
1156.322, 136.4111
1156.804, 150.5645
1157.286, 149.8418
1157.768, 130.8086
1158.250, 103.5146
1158.733, 72.21582
1159.215, 42.84961
1159.697, 38.26270
1160.179, 89.49609
1160.661, 98.15723
1161.143, 39.61914
1161.625, 26.05957
1162.107, 21.07422
1162.589, 19.84863
1163.072, 40.41406
1163.554, 37.67773
1164.036, 28.84863
1164.518, 4.047852
1165.000, 3.057617
1165.482, 44.27344
1165.964, 99.94434
1166.446, 123.8193
1166.928, 121.7139
1167.411, 99.64648
1167.893, 53.31934
1168.375, 28.22363
1168.857, 59.45801
1169.339, 89.00488
1169.821, 92.12695
1170.303, 80.21484
1170.785, 88.51172
1171.268, 110.5791
1171.750, 125.7939
1172.232, 126.7334
1172.714, 122.0781
1173.196, 115.5508
1173.678, 103.3545
1174.160, 79.87891
1174.642, 49.66699
1175.125, 41.48047
1175.607, 50.16211
1176.089, 59.18066
1176.571, 65.19043
1177.053, 67.01660
1177.535, 56.90918
1178.017, 44.63477
1178.499, 40.06543
1178.981, 43.06348
1179.464, 36.95215
1179.946, 22.57227
1180.428, 20.09766
1180.910, 42.82422
1181.392, 71.08105
1181.874, 105.6250
1182.356, 133.0039
1182.838, 131.7471
1183.320, 100.5488
1183.803, 80.66113
1184.285, 75.36133
1184.767, 79.68164
1185.249, 105.9932
1185.731, 125.2822
1186.213, 106.1094
1186.695, 65.28613
1187.177, 53.28320
1187.660, 72.69824
1188.142, 76.53223
1188.624, 53.89648
1189.106, 41.37109
1189.588, 91.17676
1190.070, 148.0000
1190.552, 163.5020
1191.034, 141.4443
1191.516, 126.2568
1191.999, 119.5576
1192.481, 99.68652
1192.963, 55.64844
1193.445, 16.31445
1193.927, 12.29004
1194.409, 28.13672
1194.891, 51.76660
1195.373, 81.59570
1195.855, 102.8340
1196.338, 115.6436
1196.820, 118.6230
1197.302, 107.4531
1197.784, 93.93164
1198.266, 94.36133
1198.748, 98.31055
1199.230, 89.16992
1199.712, 60.21777
1200.195, 56.23535
1200.677, 81.20117
1201.159, 102.5879
1201.641, 93.80566
1202.123, 83.97168
1202.605, 127.0928
1203.087, 184.5801
1203.569, 189.0674
1204.052, 109.3643
1204.534, 52.00781
1205.016, 17.00195
1205.498, 1.875000
1205.980, 12.08789
1206.462, 35.11914
1206.944, 65.33203
1207.426, 95.71484
1207.908, 107.5410
1208.391, 91.41797
1208.873, 81.47852
1209.355, 78.80957
1209.837, 82.97656
1210.319, 105.2344
1210.801, 125.2998
1211.283, 105.2129
1211.765, 61.70215
1212.247, 62.14941
1212.730, 141.7568
1213.212, 156.2109
1213.694, 76.90332
1214.176, 2.742188
1214.658, 24.74805
1215.140, 88.72754
1215.622, 110.5566
1216.104, 92.07422
1216.587, 71.07324
1217.069, 44.80371
1217.551, 37.11230
1218.033, 54.25977
1218.515, 80.42676
1218.997, 116.2832
1219.479, 137.3477
1219.961, 101.4238
1220.443, 14.71875
1220.926, 12.13867
1221.408, 42.78906
1221.890, 84.46777
1222.372, 89.51367
1222.854, 78.49512
1223.336, 68.90918
1223.818, 61.49316
1224.300, 59.74512
1224.782, 64.08691
1225.265, 54.95801
1225.747, 27.30762
1226.229, 10.90723
1226.711, 16.66406
1227.193, 32.38086
1227.675, 53.07617
1228.157, 69.54102
1228.639, 66.94336
1229.122, 41.41504
1229.604, 30.09473
1230.086, 36.30469
1230.568, 33.37207
1231.050, 6.294922
1231.532, 24.21094
1232.014, 44.39551
1232.496, 48.30469
1232.979, 20.21875
1233.461, 46.74219
1233.943, 76.26172
1234.425, 64.25586
1234.907, 54.19043
1235.389, 73.24023
1235.871, 93.80664
1236.353, 76.68359
1236.835, 47.55859
1237.318, 42.51855
1237.800, 69.01758
1238.282, 61.91504
1238.764, 18.86914
1239.246, 7.675781
1239.728, 27.49512
1240.210, 70.61426
1240.692, 71.11621
1241.175, 54.65918
1241.657, 57.62500
1242.139, 85.68359
1242.621, 101.2510
1243.103, 104.5801
1243.585, 103.6006
1244.067, 105.9727
1244.549, 102.9521
1245.031, 74.83008
1245.514, 45.87695
1245.996, 53.20703
1246.478, 102.3789
1246.960, 120.1113
1247.442, 106.8438
1247.924, 98.90625
1248.406, 138.1514
1248.888, 168.4639
1249.370, 145.0693
1249.853, 102.4873
1250.335, 86.28516
1250.817, 95.62695
1251.299, 103.2285
1251.781, 107.8008
1252.263, 109.1455
1252.745, 90.94727
1253.227, 87.27734
1253.710, 129.3076
1254.192, 181.1387
1254.674, 197.0801
1255.156, 181.2500
1255.638, 158.8477
1256.120, 132.5186
1256.602, 112.0381
1257.084, 108.6279
1257.567, 104.1035
1258.049, 90.45605
1258.531, 76.36230
1259.013, 76.99805
1259.495, 87.33105
1259.977, 81.05469
1260.459, 59.83887
1260.941, 63.51270
1261.423, 148.0059
1261.906, 206.2256
1262.388, 210.7773
1262.870, 188.5557
1263.352, 173.1660
1263.834, 163.1172
1264.316, 161.6094
1264.798, 166.5420
1265.280, 148.2002
1265.762, 67.83594
1266.245, 20.16504
1266.727, 26.58105
1267.209, 61.22656
1267.691, 103.5518
1268.173, 142.5879
1268.655, 159.8633
1269.137, 154.4609
1269.619, 139.8164
1270.102, 110.6055
1270.584, 90.82031
1271.066, 82.89648
1271.548, 93.63672
1272.030, 116.3516
1272.512, 140.6367
1272.994, 161.6699
1273.476, 176.2637
1273.958, 161.5254
1274.441, 105.4863
1274.923, 76.10938
1275.405, 91.65430
1275.887, 112.0293
1276.369, 74.61719
1276.851, 38.12695
1277.333, 83.84961
1277.815, 190.4082
1278.297, 199.8984
1278.780, 106.1328
1279.262, 46.66406
1279.744, 55.39258
1280.226, 88.63672
1280.708, 142.5664
1281.190, 177.9668
1281.672, 153.6543
1282.154, 90.78125
1282.637, 59.33008
1283.119, 58.17578
1283.601, 82.00586
1284.083, 133.9961
1284.565, 179.4336
1285.047, 205.0098
1285.529, 207.4902
1286.011, 179.8691
1286.494, 135.4453
1286.976, 112.7949
1287.458, 106.2988
1287.940, 97.33203
1288.422, 82.14844
1288.904, 67.45508
1289.386, 51.07812
1289.868, 42.15430
1290.350, 45.61328
1290.833, 56.16797
1291.315, 72.02148
1291.797, 83.93359
1292.279, 63.85352
1292.761, 1.351563
1293.243, 20.56445
1293.725, 31.37891
1294.207, 86.29102
1294.689, 128.8047
1295.172, 148.3926
1295.654, 107.6934
1296.136, 46.91602
1296.618, 21.42188
1297.100, 42.94727
1297.582, 59.83008
1298.064, 73.34375
1298.546, 70.27148
1299.029, 38.09766
1299.511, 15.17773
1299.993, 62.03711
1300.475, 122.8262
1300.957, 135.0762
1301.439, 92.34375
1301.921, 91.16602
1302.403, 116.3457
1302.885, 111.5488
1303.368, 51.86914
1303.850, 1.599609
1304.332, 0.2460940
1304.814, 12.43359
1305.296, 10.49023
1305.778, 1.820313
1306.260, 16.40625
1306.742, 39.75781
1307.224, 49.68750
1307.707, 37.99414
1308.189, 23.54102
1308.671, 11.52930
1309.153, 0.0000000E+00
##END=



