##NAMES=Biphosphammite
##RRUFFID=R070411
##IDEAL CHEMISTRY=H_2_(N^3-^H_4_)PO_4_
##LOCALITY=Mason Bat Cave, Mason County, Texas, USA
##OWNER=RRUFF
##SOURCE=Michael Scott
##DESCRIPTION=Pale brown aggregate associated with white hair-like fibers
##STATUS=The identification of this mineral is not yet confirmed.
##URL=rruff.info/R070411
215.9964, 0.0000000E+00
216.4785, 2.434326
216.9606, 0.1005860
217.4427, 2.975342
217.9249, 9.858643
218.4070, 15.78613
218.8891, 16.21240
219.3712, 10.43652
219.8533, 11.17529
220.3354, 31.86035
220.8176, 46.11475
221.2997, 42.02002
221.7818, 24.35938
222.2639, 11.11426
222.7460, 14.80054
223.2281, 33.43701
223.7103, 45.26172
224.1924, 48.68457
224.6745, 45.97705
225.1566, 31.88574
225.6387, 13.10571
226.1208, 1.037109
226.6030, 5.092773
227.0851, 0.5820310
227.5672, 6.793945
228.0493, 25.01318
228.5314, 34.77563
229.0135, 25.48755
229.4957, 9.260498
229.9778, 0.4870610
230.4599, 5.819092
230.9420, 19.57080
231.4241, 27.80884
231.9062, 27.51709
232.3884, 26.37744
232.8705, 23.76074
233.3526, 21.74146
233.8347, 22.76416
234.3168, 27.51416
234.7989, 33.57178
235.2811, 36.95508
235.7632, 37.55957
236.2453, 35.50586
236.7274, 25.29053
237.2095, 16.51538
237.6916, 18.73169
238.1738, 32.37793
238.6559, 46.46094
239.1380, 44.63501
239.6201, 19.60254
240.1022, 5.907959
240.5843, 13.09766
241.0665, 25.01538
241.5486, 36.35400
242.0307, 45.72632
242.5128, 52.40259
242.9949, 54.89136
243.4770, 52.73657
243.9592, 52.03784
244.4413, 57.61768
244.9234, 59.91089
245.4055, 51.62354
245.8876, 36.63159
246.3697, 25.10547
246.8519, 25.53198
247.3340, 36.36621
247.8161, 43.57886
248.2982, 45.86450
248.7803, 45.89575
249.2624, 44.51831
249.7446, 42.38550
250.2267, 37.73364
250.7088, 29.38037
251.1909, 20.41772
251.6730, 21.85742
252.1551, 42.94238
252.6373, 55.34155
253.1194, 37.40918
253.6015, 12.14111
254.0836, 7.691650
254.5657, 37.56567
255.0478, 78.81372
255.5300, 92.60474
256.0121, 70.98022
256.4942, 52.71484
256.9763, 48.72314
257.4584, 50.36621
257.9406, 51.62158
258.4227, 51.27002
258.9048, 50.45776
259.3869, 49.51514
259.8690, 48.30664
260.3511, 50.46973
260.8333, 61.38989
261.3154, 71.71631
261.7975, 74.88770
262.2796, 70.79932
262.7617, 63.42920
263.2438, 52.13745
263.7260, 38.62158
264.2081, 33.80396
264.6902, 43.11450
265.1723, 54.83862
265.6544, 61.44507
266.1365, 63.58447
266.6187, 62.87500
267.1008, 57.46655
267.5829, 50.20020
268.0650, 47.32568
268.5471, 49.71851
269.0292, 54.10718
269.5114, 61.62939
269.9935, 69.35669
270.4756, 71.41040
270.9577, 62.58594
271.4398, 50.49365
271.9219, 43.36182
272.4041, 41.27466
272.8862, 41.48193
273.3683, 44.95410
273.8504, 48.37671
274.3325, 46.21558
274.8146, 35.03174
275.2968, 24.11670
275.7789, 19.40210
276.2610, 20.08008
276.7431, 23.30225
277.2252, 29.13525
277.7073, 35.66748
278.1895, 39.17798
278.6716, 38.75317
279.1537, 40.02856
279.6358, 47.98096
280.1179, 58.29565
280.6000, 64.39600
281.0822, 65.18457
281.5643, 59.36938
282.0464, 39.42114
282.5285, 2.694824
283.0106, 12.95410
283.4927, 16.02832
283.9749, 55.69580
284.4570, 74.01221
284.9391, 69.46533
285.4212, 61.54272
285.9033, 67.03760
286.3854, 85.45435
286.8676, 92.84546
287.3497, 80.33936
287.8318, 67.68237
288.3139, 64.98462
288.7960, 68.63354
289.2781, 67.59717
289.7603, 53.85181
290.2424, 33.04712
290.7245, 29.71606
291.2066, 69.34082
291.6887, 93.82837
292.1708, 81.99316
292.6530, 54.72559
293.1351, 39.38428
293.6172, 45.40527
294.0993, 60.58838
294.5814, 63.29150
295.0635, 46.02051
295.5457, 29.41113
296.0278, 4.409668
296.5099, 13.52148
296.9920, 8.278809
297.4741, 18.67920
297.9562, 49.58008
298.4384, 66.26953
298.9205, 66.97705
299.4026, 65.49365
299.8847, 57.25684
300.3668, 51.43994
300.8489, 52.66406
301.3310, 59.60889
301.8131, 67.14453
302.2953, 70.93311
302.7774, 72.34814
303.2595, 72.85889
303.7416, 74.26270
304.2237, 71.68457
304.7058, 58.42676
305.1880, 43.58887
305.6701, 37.90283
306.1522, 45.53467
306.6343, 59.47461
307.1164, 69.57031
307.5985, 76.47559
308.0807, 76.84326
308.5628, 59.89600
309.0449, 43.24170
309.5270, 38.73438
310.0091, 46.88574
310.4912, 58.15137
310.9734, 66.22754
311.4555, 70.98242
311.9376, 70.17334
312.4197, 61.08252
312.9018, 49.80811
313.3839, 37.83984
313.8661, 26.61816
314.3482, 20.25439
314.8303, 21.62207
315.3124, 28.93799
315.7945, 38.84619
316.2766, 52.53418
316.7588, 64.69629
317.2409, 73.11670
317.7230, 77.66016
318.2051, 77.78369
318.6872, 71.73145
319.1693, 64.17969
319.6515, 57.66357
320.1336, 52.34668
320.6157, 49.02637
321.0978, 48.35547
321.5799, 49.25146
322.0620, 50.63477
322.5442, 53.01562
323.0263, 53.22266
323.5084, 48.71045
323.9905, 42.22217
324.4726, 36.18408
324.9547, 31.01758
325.4369, 29.17773
325.9190, 33.22314
326.4011, 43.82373
326.8832, 56.42773
327.3653, 82.04492
327.8474, 99.68408
328.3296, 88.92383
328.8117, 58.95703
329.2938, 38.10938
329.7759, 43.78076
330.2580, 69.80371
330.7401, 88.03809
331.2223, 105.8359
331.7044, 106.5811
332.1865, 67.06201
332.6686, 19.40430
333.1507, 1.516113
333.6328, 23.74707
334.1150, 63.19043
334.5971, 86.56299
335.0792, 89.51123
335.5613, 87.04492
336.0434, 73.06738
336.5255, 59.71680
337.0077, 53.47559
337.4898, 53.67529
337.9719, 56.08740
338.4540, 57.76709
338.9361, 58.73291
339.4182, 59.12256
339.9004, 58.76660
340.3825, 58.02002
340.8646, 55.94141
341.3467, 54.16357
341.8288, 54.74365
342.3109, 59.45117
342.7931, 62.66016
343.2752, 54.29492
343.7573, 32.47363
344.2394, 11.74072
344.7215, 12.61475
345.2036, 27.34473
345.6858, 16.73877
346.1679, 19.02002
346.6500, 52.32080
347.1321, 62.50244
347.6142, 56.98633
348.0963, 57.66895
348.5785, 69.34473
349.0606, 78.80957
349.5427, 71.64160
350.0248, 53.38281
350.5069, 40.40820
350.9890, 35.20850
351.4712, 36.56738
351.9533, 47.05273
352.4354, 64.66162
352.9175, 79.17920
353.3996, 85.75732
353.8817, 86.33008
354.3639, 85.24023
354.8460, 84.17773
355.3281, 80.31836
355.8102, 70.71338
356.2923, 58.72168
356.7744, 49.31885
357.2566, 43.26367
357.7387, 35.31787
358.2208, 16.84521
358.7029, 18.81934
359.1850, 25.20801
359.6671, 26.33691
360.1493, 74.17334
360.6314, 90.27344
361.1135, 81.85254
361.5956, 67.89111
362.0777, 59.08203
362.5598, 53.78418
363.0420, 52.54590
363.5241, 57.34131
364.0062, 63.34229
364.4883, 78.75488
364.9704, 89.66650
365.4525, 78.88818
365.9347, 45.11084
366.4168, 9.881836
366.8989, 1.099121
367.3810, 20.02881
367.8631, 30.18506
368.3452, 24.47656
368.8274, 16.33643
369.3095, 10.85840
369.7916, 8.382813
370.2737, 9.908203
370.7558, 19.68164
371.2379, 30.61963
371.7201, 25.64502
372.2022, 1.858398
372.6843, 9.001465
373.1664, 16.21191
373.6485, 56.41064
374.1306, 80.34863
374.6128, 82.97168
375.0949, 77.81494
375.5770, 68.10498
376.0591, 56.63428
376.5412, 49.83643
377.0233, 49.46582
377.5055, 50.23340
377.9876, 46.46387
378.4697, 36.59570
378.9518, 30.82617
379.4339, 34.18945
379.9160, 37.38965
380.3982, 32.85205
380.8803, 23.06348
381.3624, 17.37158
381.8445, 21.69336
382.3266, 32.02148
382.8087, 36.19238
383.2909, 26.07031
383.7730, 20.23584
384.2551, 20.29395
384.7372, 23.92822
385.2193, 31.57910
385.7014, 41.95361
386.1836, 49.77295
386.6657, 48.27490
387.1478, 36.73486
387.6299, 30.06396
388.1120, 32.96875
388.5941, 35.46387
389.0763, 33.85010
389.5584, 29.81787
390.0405, 25.01123
390.5226, 18.73438
391.0047, 16.05908
391.4868, 29.29004
391.9690, 61.08154
392.4511, 82.82861
392.9332, 83.48535
393.4153, 73.51318
393.8974, 60.37939
394.3795, 44.42139
394.8617, 33.97510
395.3438, 37.81104
395.8259, 48.14844
396.3080, 51.41602
396.7901, 46.13232
397.2722, 39.63135
397.7544, 36.92822
398.2365, 37.30225
398.7186, 36.33105
399.2007, 30.66650
399.6828, 27.41699
400.1649, 32.09082
400.6471, 40.35107
401.1292, 43.49658
401.6113, 38.64111
402.0934, 33.24219
402.5755, 39.15820
403.0576, 64.67676
403.5398, 75.82471
404.0219, 59.22900
404.5040, 42.56885
404.9861, 44.71533
405.4682, 59.24316
405.9503, 66.84570
406.4325, 54.16943
406.9146, 28.17090
407.3967, 13.54688
407.8788, 13.29395
408.3609, 18.77783
408.8430, 35.27100
409.3252, 51.81836
409.8073, 58.52734
410.2894, 54.33154
410.7715, 48.03564
411.2536, 49.06396
411.7357, 55.08838
412.2179, 52.02148
412.7000, 34.00049
413.1821, 18.86621
413.6642, 23.91455
414.1463, 40.39209
414.6284, 51.55273
415.1106, 55.49854
415.5927, 51.91455
416.0748, 33.07080
416.5569, 4.784668
417.0390, 9.096191
417.5211, 3.373535
418.0033, 23.86523
418.4854, 24.67432
418.9675, 4.855957
419.4496, 16.93799
419.9317, 7.317871
420.4138, 35.37305
420.8960, 43.27783
421.3781, 34.78271
421.8602, 29.22754
422.3423, 40.30859
422.8244, 61.37500
423.3065, 62.36670
423.7887, 18.78369
424.2708, 6.372559
424.7529, 6.701172
425.2350, 30.80811
425.7171, 41.00293
426.1992, 35.06152
426.6814, 28.26465
427.1635, 40.31738
427.6456, 68.34424
428.1277, 73.86914
428.6098, 43.89160
429.0919, 16.34131
429.5741, 17.95703
430.0562, 32.43701
430.5383, 33.26270
431.0204, 7.583984
431.5025, 16.11182
431.9846, 7.231445
432.4668, 24.66943
432.9489, 45.09131
433.4310, 44.40820
433.9131, 32.62939
434.3952, 18.45557
434.8773, 1.134766
435.3595, 7.649414
435.8416, 1.611328
436.3237, 11.65576
436.8058, 9.809570
437.2879, 8.1055000E-02
437.7701, 6.600586
438.2522, 3.741211
438.7343, 5.246094
439.2164, 12.02490
439.6985, 13.97217
440.1806, 18.41406
440.6628, 30.85303
441.1449, 41.20898
441.6270, 40.61426
442.1091, 31.11035
442.5912, 22.64551
443.0733, 23.49170
443.5555, 30.92285
444.0376, 34.22998
444.5197, 32.23682
445.0018, 29.43115
445.4839, 26.45703
445.9660, 24.05615
446.4482, 23.54346
446.9303, 25.43066
447.4124, 26.46484
447.8945, 25.05225
448.3766, 21.19092
448.8587, 15.03857
449.3409, 6.837402
449.8230, 1.961426
450.3051, 4.943848
450.7872, 15.42578
451.2693, 27.18652
451.7514, 43.71289
452.2336, 57.37988
452.7157, 64.86230
453.1978, 68.24268
453.6799, 70.11670
454.1620, 71.31738
454.6441, 71.57373
455.1263, 70.40625
455.6084, 67.53760
456.0905, 64.81299
456.5726, 58.43896
457.0547, 57.15479
457.5368, 68.71582
458.0190, 84.21436
458.5011, 89.53857
458.9832, 77.54102
459.4653, 62.21680
459.9474, 66.36035
460.4295, 90.33301
460.9117, 107.5117
461.3938, 108.3525
461.8759, 107.2197
462.3580, 122.5669
462.8401, 149.6597
463.3222, 161.7295
463.8044, 133.7998
464.2865, 101.7559
464.7686, 103.2915
465.2507, 130.2793
465.7328, 146.9922
466.2149, 136.4126
466.6971, 113.3140
467.1792, 108.0366
467.6613, 138.6396
468.1434, 148.3193
468.6255, 119.7163
469.1076, 85.69629
469.5898, 65.23047
470.0719, 57.49023
470.5540, 53.69971
471.0361, 48.13672
471.5182, 43.08447
472.0003, 47.27441
472.4825, 67.32324
472.9646, 78.35352
473.4467, 64.95020
473.9288, 47.93604
474.4109, 39.99121
474.8930, 41.17480
475.3752, 46.56250
475.8573, 55.58154
476.3394, 64.87744
476.8215, 67.38037
477.3036, 62.53760
477.7857, 59.09766
478.2679, 61.21289
478.7500, 65.15479
479.2321, 60.04590
479.7142, 40.78223
480.1963, 26.55957
480.6784, 27.08301
481.1606, 30.22461
481.6427, 20.75537
482.1248, 0.4936520
482.6069, 11.68555
483.0890, 0.9316410
483.5711, 26.98486
484.0533, 39.34277
484.5354, 23.34033
485.0175, 12.55420
485.4996, 14.83936
485.9817, 21.40234
486.4638, 26.60693
486.9460, 29.24268
487.4281, 29.08301
487.9102, 23.25684
488.3923, 14.11475
488.8744, 13.84570
489.3565, 23.16357
489.8387, 33.01562
490.3208, 38.85791
490.8029, 40.95068
491.2850, 41.54590
491.7671, 41.27393
492.2492, 37.81836
492.7314, 26.96680
493.2135, 14.03613
493.6956, 5.645996
494.1777, 2.307129
494.6598, 3.690918
495.1419, 10.08301
495.6241, 20.10596
496.1062, 25.98242
496.5883, 20.74414
497.0704, 21.27930
497.5525, 38.98926
498.0346, 56.22168
498.5168, 54.36377
498.9989, 34.00977
499.4810, 14.90820
499.9631, 16.75195
500.4452, 32.73389
500.9273, 34.40576
501.4095, 16.92773
501.8916, 7.060059
502.3737, 21.71680
502.8558, 45.03418
503.3379, 52.36523
503.8200, 40.22119
504.3022, 24.90381
504.7843, 5.333984
505.2664, 10.09863
505.7485, 6.879883
506.2306, 13.15186
506.7127, 30.77100
507.1949, 32.36230
507.6770, 22.45703
508.1591, 21.29980
508.6412, 40.00244
509.1233, 51.10303
509.6054, 43.63184
510.0876, 35.71875
510.5697, 45.59668
511.0518, 69.82910
511.5339, 87.24561
512.0161, 80.84375
512.4982, 58.00000
512.9803, 37.20068
513.4624, 18.23145
513.9445, 2.950684
514.4266, 11.51367
514.9088, 18.36230
515.3909, 6.574707
515.8730, 25.59375
516.3551, 54.27295
516.8372, 75.62109
517.3193, 85.34424
517.8015, 71.16650
518.2836, 39.19727
518.7657, 12.41309
519.2478, 2.992676
519.7299, 6.516602
520.2120, 12.84180
520.6942, 23.23779
521.1763, 34.16602
521.6584, 55.23389
522.1405, 67.93213
522.6226, 53.73584
523.1047, 22.93799
523.5869, 2.711426
524.0690, 9.525879
524.5511, 28.80518
525.0332, 36.31299
525.5153, 32.14355
525.9974, 31.58252
526.4796, 40.11768
526.9617, 50.31445
527.4438, 55.62646
527.9259, 56.28125
528.4080, 50.61426
528.8901, 27.02344
529.3723, 8.252930
529.8544, 13.68652
530.3365, 32.51514
530.8186, 42.71533
531.3007, 36.92969
531.7828, 25.08301
532.2650, 20.42334
532.7471, 23.56299
533.2292, 30.31836
533.7113, 52.73340
534.1934, 65.35498
534.6755, 50.91992
535.1577, 24.67578
535.6398, 5.686523
536.1219, 0.5517580
536.6040, 0.2607420
537.0861, 0.9965820
537.5682, 4.121094
538.0504, 13.54346
538.5325, 30.62939
539.0146, 47.17139
539.4967, 57.25439
539.9788, 61.75195
540.4609, 65.30225
540.9431, 75.41211
541.4252, 77.13867
541.9073, 55.54883
542.3894, 31.66064
542.8715, 31.59131
543.3536, 53.04102
543.8358, 67.66260
544.3179, 49.97266
544.8000, 10.08447
545.2821, 5.942871
545.7642, 10.72998
546.2463, 27.15625
546.7285, 38.86719
547.2106, 44.21875
547.6926, 38.79736
548.1747, 23.76514
548.6569, 11.34375
549.1390, 8.681152
549.6211, 10.06787
550.1032, 9.903320
550.5853, 8.339844
551.0674, 5.831543
551.5496, 1.961914
552.0317, 0.2890630
552.5138, 7.847168
552.9959, 30.61475
553.4780, 42.23926
553.9601, 32.74512
554.4423, 25.34814
554.9244, 30.99951
555.4065, 43.81885
555.8886, 53.90527
556.3707, 57.43604
556.8528, 59.72119
557.3350, 73.66650
557.8171, 95.44482
558.2992, 87.24561
558.7813, 33.67725
559.2634, 11.51416
559.7455, 5.305664
560.2277, 35.92188
560.7098, 56.55518
561.1919, 43.47266
561.6740, 32.15625
562.1561, 35.06006
562.6382, 44.31860
563.1204, 51.64673
563.6025, 56.94287
564.0846, 63.61206
564.5667, 74.43115
565.0488, 85.97314
565.5309, 82.91675
566.0131, 58.54126
566.4952, 36.90967
566.9773, 20.70679
567.4594, 9.775635
567.9415, 4.767334
568.4236, 5.271973
568.9058, 9.571777
569.3879, 18.77319
569.8700, 29.83032
570.3521, 41.00708
570.8342, 51.63696
571.3163, 61.08594
571.7985, 69.66431
572.2806, 69.60352
572.7627, 49.47437
573.2448, 5.846436
573.7269, 14.23608
574.2090, 9.848633
574.6912, 30.16699
575.1733, 31.79150
575.6554, 25.02246
576.1375, 21.38135
576.6196, 23.55371
577.1017, 27.52441
577.5839, 31.86865
578.0660, 35.25562
578.5481, 29.40698
579.0302, 11.95044
579.5123, 6.856934
579.9944, 31.84399
580.4766, 69.62158
580.9587, 85.60327
581.4408, 76.06128
581.9229, 65.81641
582.4050, 53.48926
582.8871, 45.55933
583.3693, 51.11206
583.8514, 63.92798
584.3335, 69.90771
584.8156, 62.52075
585.2977, 49.19604
585.7798, 40.43164
586.2620, 36.17847
586.7441, 38.65625
587.2262, 54.21533
587.7083, 66.20142
588.1904, 59.16772
588.6725, 43.89966
589.1547, 40.22559
589.6368, 58.68335
590.1189, 67.66577
590.6010, 38.03369
591.0831, 2.137451
591.5652, 12.92139
592.0474, 5.966553
592.5295, 29.47705
593.0116, 41.69507
593.4937, 44.78125
593.9758, 45.02856
594.4579, 40.81128
594.9401, 38.19727
595.4222, 37.22046
595.9043, 38.48779
596.3864, 44.86206
596.8685, 53.62695
597.3506, 58.25854
597.8328, 56.24219
598.3149, 49.54297
598.7970, 34.63452
599.2791, 16.84033
599.7612, 11.40088
600.2433, 21.26294
600.7255, 35.98242
601.2076, 48.11548
601.6897, 57.12988
602.1718, 58.56958
602.6539, 42.54883
603.1360, 31.87842
603.6182, 33.63110
604.1003, 38.38770
604.5824, 38.54199
605.0645, 35.82324
605.5466, 37.33569
606.0287, 49.57275
606.5109, 62.43481
606.9930, 59.48364
607.4751, 43.13013
607.9572, 33.13599
608.4393, 35.32568
608.9214, 41.41504
609.4036, 44.66064
609.8857, 45.01758
610.3678, 38.34741
610.8499, 10.57129
611.3320, 9.083008
611.8141, 12.05005
612.2963, 4.868896
612.7784, 9.732910
613.2605, 28.77124
613.7426, 44.33105
614.2247, 50.26294
614.7068, 48.63281
615.1890, 43.51538
615.6711, 34.76147
616.1532, 24.99561
616.6353, 12.62842
617.1174, 3.024414
617.5995, 8.125244
618.0817, 28.45972
618.5638, 37.04395
619.0459, 18.25366
619.5280, 4.449707
620.0101, 14.96143
620.4922, 34.08594
620.9744, 40.75366
621.4565, 31.87891
621.9386, 20.47778
622.4207, 0.9001460
622.9028, 16.24805
623.3849, 27.34155
623.8671, 32.68042
624.3492, 16.46240
624.8313, 26.98389
625.3134, 26.11646
625.7955, 24.27368
626.2776, 37.14453
626.7598, 21.59644
627.2419, 33.31567
627.7240, 33.48169
628.2061, 38.23730
628.6882, 31.53882
629.1703, 29.73584
629.6525, 23.68921
630.1346, 19.64697
630.6167, 17.20239
631.0988, 16.84058
631.5809, 21.57202
632.0630, 35.51807
632.5452, 46.75391
633.0273, 52.12354
633.5094, 53.17969
633.9915, 50.34619
634.4736, 43.91162
634.9557, 39.76294
635.4379, 43.29810
635.9200, 44.99390
636.4021, 35.00977
636.8842, 21.34326
637.3663, 18.70386
637.8484, 29.37915
638.3306, 40.57129
638.8127, 38.50854
639.2948, 26.05029
639.7769, 21.29810
640.2590, 26.41748
640.7411, 31.33765
641.2233, 31.48462
641.7054, 31.98022
642.1875, 40.06104
642.6696, 54.82959
643.1517, 64.52612
643.6339, 66.20996
644.1160, 62.79028
644.5981, 50.17456
645.0802, 35.72705
645.5623, 34.39111
646.0444, 47.04468
646.5266, 55.22314
647.0087, 39.02808
647.4908, 5.671143
647.9729, 9.962158
648.4550, 4.270020
648.9371, 5.790527
649.4193, 21.87280
649.9014, 35.02417
650.3835, 29.83765
650.8656, 9.700439
651.3477, 1.062256
651.8298, 7.437256
652.3120, 19.48022
652.7941, 33.30542
653.2762, 43.56689
653.7583, 39.09253
654.2404, 21.08398
654.7225, 6.107178
655.2047, 8.323242
655.6868, 22.70947
656.1689, 32.77563
656.6510, 37.76416
657.1331, 43.54419
657.6152, 53.59058
658.0974, 61.47314
658.5795, 59.86426
659.0616, 50.66895
659.5437, 42.05811
660.0258, 35.14258
660.5079, 28.41211
660.9901, 22.67065
661.4722, 16.03076
661.9543, 2.755859
662.4364, 14.40747
662.9185, 23.94409
663.4006, 17.79688
663.8828, 0.3720700
664.3649, 22.15259
664.8470, 50.20215
665.3291, 70.26001
665.8112, 82.25830
666.2933, 80.54297
666.7755, 51.59277
667.2576, 5.082764
667.7397, 17.19946
668.2218, 3.124268
668.7039, 15.13623
669.1860, 39.98560
669.6682, 59.02319
670.1503, 58.51440
670.6324, 43.96069
671.1145, 31.29980
671.5966, 28.44531
672.0787, 31.68042
672.5609, 37.15918
673.0430, 44.48120
673.5251, 50.41284
674.0072, 54.35254
674.4893, 59.45020
674.9714, 70.10449
675.4536, 81.21655
675.9357, 78.04810
676.4178, 47.70337
676.8999, 32.38770
677.3820, 39.85913
677.8641, 52.83496
678.3463, 72.17407
678.8284, 89.68140
679.3105, 89.96753
679.7926, 68.18579
680.2747, 46.27856
680.7568, 47.89795
681.2390, 64.28076
681.7211, 77.76758
682.2032, 87.16919
682.6853, 86.04810
683.1674, 69.97241
683.6495, 47.19653
684.1317, 29.78833
684.6138, 17.82935
685.0959, 11.16553
685.5780, 11.97827
686.0601, 15.48682
686.5422, 22.56177
687.0244, 30.57422
687.5065, 37.29858
687.9886, 42.32397
688.4707, 45.49585
688.9528, 48.18286
689.4349, 47.87329
689.9171, 38.71802
690.3992, 24.18018
690.8813, 13.15015
691.3634, 8.202148
691.8455, 11.89136
692.3276, 29.62622
692.8098, 57.94629
693.2919, 63.65405
693.7740, 32.42871
694.2561, 10.35425
694.7382, 12.69409
695.2203, 20.72925
695.7025, 21.13501
696.1846, 16.17676
696.6667, 16.77148
697.1488, 25.68896
697.6309, 35.25195
698.1130, 46.77588
698.5952, 55.26172
699.0773, 49.83594
699.5594, 33.62427
700.0415, 24.34888
700.5236, 33.69775
701.0057, 52.00342
701.4879, 57.61279
701.9700, 49.56250
702.4521, 50.41748
702.9342, 65.98779
703.4163, 80.86255
703.8984, 87.31396
704.3806, 86.24927
704.8627, 79.34595
705.3448, 63.98486
705.8269, 50.18091
706.3090, 36.40674
706.7911, 29.09106
707.2733, 37.42505
707.7554, 52.84937
708.2375, 60.62671
708.7196, 56.52148
709.2017, 49.53369
709.6838, 46.90576
710.1660, 48.26489
710.6481, 55.07886
711.1302, 66.76636
711.6123, 72.07788
712.0944, 65.55957
712.5765, 57.67407
713.0587, 62.71191
713.5408, 81.71851
714.0229, 91.20874
714.5050, 82.68774
714.9871, 76.04102
715.4692, 73.21191
715.9514, 74.26807
716.4335, 85.13647
716.9156, 101.3047
717.3977, 103.7202
717.8798, 76.75903
718.3619, 44.92310
718.8441, 20.89209
719.3262, 7.855713
719.8083, 18.20557
720.2904, 48.14282
720.7725, 72.32861
721.2546, 74.06055
721.7368, 62.10596
722.2189, 54.79395
722.7010, 53.30225
723.1831, 52.34888
723.6652, 50.79077
724.1473, 51.67334
724.6295, 58.54810
725.1116, 67.85498
725.5937, 72.30322
726.0758, 74.57422
726.5579, 69.30005
727.0400, 47.02100
727.5222, 25.50391
728.0043, 13.51221
728.4864, 10.07373
728.9685, 13.13672
729.4506, 21.84619
729.9327, 35.00513
730.4149, 57.06250
730.8970, 80.50830
731.3791, 87.00146
731.8612, 77.77710
732.3433, 63.89136
732.8254, 48.06616
733.3076, 30.25195
733.7897, 7.555664
734.2718, 18.07910
734.7539, 20.61182
735.2360, 22.33276
735.7181, 50.92114
736.2003, 50.64502
736.6824, 41.96729
737.1645, 33.00928
737.6466, 26.07495
738.1287, 25.58325
738.6108, 34.47754
739.0930, 45.57153
739.5751, 60.28345
740.0572, 71.41138
740.5393, 66.23950
741.0214, 49.24683
741.5035, 36.95166
741.9857, 37.20532
742.4678, 42.83105
742.9499, 44.51318
743.4320, 42.37598
743.9141, 35.90845
744.3962, 22.53271
744.8784, 20.95874
745.3605, 45.89038
745.8426, 74.59985
746.3247, 72.63672
746.8068, 34.67090
747.2889, 16.41895
747.7711, 32.86890
748.2532, 48.22192
748.7353, 54.97388
749.2174, 56.45728
749.6995, 53.90942
750.1816, 48.94214
750.6638, 45.88354
751.1459, 47.77734
751.6280, 50.44531
752.1101, 54.25732
752.5922, 54.34473
753.0743, 35.45581
753.5565, 0.5202640
754.0386, 22.37280
754.5207, 15.62915
755.0028, 9.408691
755.4849, 31.56543
755.9670, 50.69116
756.4492, 67.93384
756.9313, 86.37988
757.4134, 95.53809
757.8955, 85.73560
758.3776, 68.64429
758.8597, 62.09058
759.3419, 65.27881
759.8240, 64.56641
760.3061, 55.24390
760.7882, 48.25171
761.2703, 50.99658
761.7524, 55.97974
762.2346, 53.58179
762.7167, 44.48926
763.1988, 38.36719
763.6809, 42.02710
764.1630, 48.64307
764.6451, 48.56787
765.1273, 45.61938
765.6094, 51.65674
766.0915, 67.05591
766.5736, 79.62305
767.0557, 82.07764
767.5378, 75.94312
768.0200, 61.71143
768.5021, 36.00781
768.9842, 24.11499
769.4663, 32.66602
769.9484, 41.67041
770.4305, 41.43872
770.9127, 37.70557
771.3948, 40.51172
771.8769, 50.96729
772.3590, 53.39844
772.8411, 34.75464
773.3232, 21.29150
773.8054, 23.34302
774.2875, 35.51074
774.7696, 58.30444
775.2517, 86.41577
775.7338, 102.5378
776.2159, 94.43945
776.6981, 76.35815
777.1802, 62.01172
777.6623, 50.40112
778.1444, 39.93213
778.6265, 30.10815
779.1086, 17.13794
779.5908, 2.082275
780.0729, 18.19263
780.5550, 9.666016
781.0371, 27.52832
781.5192, 48.04541
782.0013, 47.56445
782.4835, 41.64771
782.9656, 33.10791
783.4477, 24.82104
783.9298, 20.57690
784.4119, 20.41113
784.8940, 21.59521
785.3762, 25.35742
785.8583, 28.73926
786.3404, 31.48071
786.8225, 33.09692
787.3046, 32.61060
787.7867, 30.62402
788.2689, 28.41235
788.7510, 25.32471
789.2331, 26.03784
789.7152, 41.16284
790.1973, 59.22339
790.6794, 58.43384
791.1616, 41.99609
791.6437, 29.87817
792.1258, 29.47632
792.6079, 35.96899
793.0900, 45.19653
793.5721, 55.07080
794.0543, 53.57153
794.5364, 37.99707
795.0185, 29.22485
795.5006, 32.58447
795.9827, 41.49097
796.4648, 51.18579
796.9470, 61.24805
797.4291, 66.84888
797.9112, 64.45288
798.3933, 62.56860
798.8754, 61.71069
799.3575, 61.30444
799.8397, 62.85718
800.3218, 64.09375
800.8039, 59.51782
801.2860, 46.59033
801.7681, 37.26050
802.2502, 42.69556
802.7324, 49.78027
803.2145, 43.37549
803.6966, 30.63184
804.1787, 26.46118
804.6608, 34.01904
805.1429, 45.96680
805.6251, 58.56201
806.1072, 68.27441
806.5893, 65.76855
807.0714, 52.46240
807.5535, 38.11597
808.0356, 24.10815
808.5178, 12.49902
808.9999, 3.511963
809.4820, 0.1442870
809.9641, 13.61035
810.4462, 56.55322
810.9283, 68.95288
811.4105, 29.68164
811.8926, 6.684570
812.3747, 15.50928
812.8568, 9.255859
813.3389, 0.8342290
813.8210, 9.476563
814.3032, 15.49536
814.7853, 16.84326
815.2674, 13.04419
815.7495, 7.766357
816.2316, 24.67725
816.7137, 12.35156
817.1959, 21.12964
817.6780, 46.87012
818.1601, 52.15503
818.6422, 50.10205
819.1243, 50.83643
819.6064, 52.04614
820.0886, 48.63037
820.5707, 42.22559
821.0528, 40.84180
821.5349, 46.96387
822.0170, 51.66260
822.4991, 43.06348
822.9813, 25.73584
823.4634, 20.16821
823.9455, 26.91992
824.4276, 33.46802
824.9097, 37.83545
825.3918, 38.76099
825.8740, 33.63501
826.3561, 25.57642
826.8382, 25.54688
827.3203, 38.43555
827.8024, 48.06079
828.2845, 51.73584
828.7667, 55.41064
829.2488, 65.15625
829.7309, 73.76245
830.2130, 71.18677
830.6951, 56.96338
831.1772, 43.50195
831.6594, 28.81885
832.1415, 22.91553
832.6236, 36.47827
833.1057, 54.72852
833.5878, 66.18530
834.0699, 68.55127
834.5521, 58.41235
835.0342, 30.82178
835.5163, 9.895752
835.9984, 29.20996
836.4805, 63.63452
836.9626, 69.41797
837.4448, 51.19727
837.9269, 34.62378
838.4090, 30.34692
838.8911, 32.40503
839.3732, 33.90698
839.8553, 35.53003
840.3375, 40.15259
840.8196, 47.83301
841.3017, 56.24658
841.7838, 65.83960
842.2659, 71.79272
842.7480, 70.39087
843.2302, 63.70703
843.7123, 56.79980
844.1944, 49.43286
844.6765, 42.15747
845.1586, 30.95630
845.6407, 25.90015
846.1229, 34.68652
846.6050, 48.22974
847.0871, 62.16040
847.5692, 75.04688
848.0513, 72.51562
848.5334, 29.70752
849.0156, 2.271729
849.4977, 19.13062
849.9798, 44.55615
850.4619, 54.79858
850.9440, 50.45508
851.4261, 34.84204
851.9083, 7.671875
852.3904, 11.10645
852.8725, 2.332764
853.3546, 16.06104
853.8367, 29.05273
854.3188, 35.67993
854.8010, 32.01758
855.2831, 19.88062
855.7652, 12.96118
856.2473, 22.35815
856.7294, 39.55225
857.2115, 51.65161
857.6937, 58.56201
858.1758, 58.36572
858.6579, 51.16650
859.1400, 44.86523
859.6221, 43.48535
860.1042, 41.82739
860.5864, 31.02905
861.0685, 11.79077
861.5506, 2.109375
862.0327, 3.462402
862.5148, 9.215820
862.9969, 20.16943
863.4791, 31.30786
863.9612, 40.36035
864.4433, 46.06421
864.9254, 43.16089
865.4075, 22.80078
865.8896, 12.34375
866.3718, 22.57202
866.8539, 29.28491
867.3360, 15.36938
867.8181, 0.7136230
868.3002, 5.351318
868.7823, 32.98535
869.2645, 52.30713
869.7466, 50.36548
870.2287, 44.38306
870.7108, 40.89966
871.1929, 38.95557
871.6750, 33.01831
872.1572, 24.74780
872.6393, 26.39673
873.1214, 43.15234
873.6035, 57.65576
874.0856, 57.55981
874.5677, 50.25366
875.0499, 36.16821
875.5320, 20.76880
876.0141, 18.70093
876.4962, 30.84131
876.9783, 45.38232
877.4604, 55.73584
877.9426, 58.65723
878.4247, 42.40283
878.9068, 14.31763
879.3889, 2.724854
879.8710, 8.654785
880.3531, 21.10181
880.8353, 36.08398
881.3174, 48.41919
881.7995, 51.59082
882.2816, 46.75024
882.7637, 38.92188
883.2458, 26.24512
883.7280, 27.08838
884.2101, 49.56592
884.6922, 68.71606
885.1743, 67.20850
885.6564, 53.16968
886.1385, 44.00073
886.6207, 40.55981
887.1028, 38.70605
887.5849, 44.51978
888.0670, 41.87256
888.5491, 15.44116
889.0313, 11.31030
889.5134, 17.67236
889.9955, 6.875000
890.4776, 6.275391
890.9597, 23.39282
891.4418, 38.09766
891.9240, 53.05908
892.4061, 61.62476
892.8882, 53.80908
893.3703, 41.00122
893.8524, 41.70312
894.3345, 56.72925
894.8167, 63.52954
895.2988, 42.31982
895.7809, 23.75293
896.2630, 28.97339
896.7451, 41.31763
897.2272, 41.39258
897.7094, 33.45728
898.1915, 35.36084
898.6736, 53.59619
899.1557, 67.85718
899.6378, 58.42993
900.1199, 38.79883
900.6021, 19.65405
901.0842, 5.111572
901.5663, 6.142090
902.0484, 21.76538
902.5305, 36.95044
903.0126, 42.23486
903.4948, 42.96436
903.9769, 49.10840
904.4590, 56.73315
904.9411, 49.98267
905.4232, 30.73022
905.9053, 17.73145
906.3875, 17.08496
906.8696, 22.72900
907.3517, 26.35059
907.8338, 29.26099
908.3159, 31.87915
908.7980, 34.17065
909.2802, 42.97070
909.7623, 61.01367
910.2444, 67.38281
910.7265, 50.79541
911.2086, 27.82349
911.6907, 22.74976
912.1729, 35.45337
912.6550, 47.72925
913.1371, 63.21362
913.6192, 66.00220
914.1013, 46.33911
914.5834, 26.55908
915.0656, 20.32007
915.5477, 24.78711
916.0298, 34.61523
916.5119, 53.66455
916.9940, 63.69312
917.4761, 63.21582
917.9583, 55.77686
918.4404, 33.03955
918.9225, 11.89819
919.4046, 6.822510
919.8867, 14.12036
920.3688, 17.47510
920.8510, 11.55737
921.3331, 10.74512
921.8152, 20.77637
922.2973, 32.08154
922.7794, 42.27588
923.2615, 50.09985
923.7437, 55.43335
924.2258, 57.54004
924.7079, 52.07104
925.1900, 27.27466
925.6721, 11.84155
926.1542, 29.53516
926.6364, 50.55688
927.1185, 53.26465
927.6006, 41.20728
928.0827, 17.34521
928.5648, 14.96338
929.0469, 32.22241
929.5291, 10.85254
930.0112, 18.16284
930.4933, 37.67139
930.9754, 47.48242
931.4575, 40.59155
931.9396, 24.55200
932.4218, 21.71118
932.9039, 39.76221
933.3860, 54.56982
933.8681, 38.12549
934.3502, 12.59204
934.8323, 8.522461
935.3145, 16.72925
935.7966, 16.17847
936.2787, 6.580322
936.7608, 3.786133
937.2429, 16.44604
937.7250, 34.13843
938.2072, 44.78003
938.6893, 50.62573
939.1714, 58.07520
939.6535, 65.94067
940.1356, 67.04883
940.6177, 59.78857
941.0999, 50.07031
941.5820, 41.50586
942.0641, 34.66895
942.5462, 30.55615
943.0283, 29.08887
943.5104, 30.30786
943.9926, 34.05322
944.4747, 38.88062
944.9568, 44.41748
945.4389, 48.35352
945.9210, 49.20068
946.4031, 46.62183
946.8853, 33.49268
947.3674, 9.969482
947.8495, 11.78955
948.3316, 43.47852
948.8137, 74.95801
949.2958, 96.45264
949.7780, 104.6431
950.2601, 93.78711
950.7422, 67.79248
951.2243, 45.75269
951.7064, 26.54395
952.1885, 20.53369
952.6707, 32.51343
953.1528, 43.30127
953.6349, 43.40161
954.1170, 39.06909
954.5991, 37.69312
955.0812, 39.49121
955.5634, 51.25488
956.0455, 81.91919
956.5276, 93.66528
957.0097, 74.51562
957.4918, 51.04102
957.9739, 35.34473
958.4561, 26.10620
958.9382, 21.72534
959.4203, 22.52393
959.9024, 23.92212
960.3845, 25.52026
960.8666, 28.28589
961.3488, 29.84863
961.8309, 36.50977
962.3130, 63.20532
962.7951, 91.79224
963.2772, 80.75439
963.7593, 16.75488
964.2415, 15.60547
964.7236, 5.947510
965.2057, 26.77173
965.6878, 43.64111
966.1699, 51.38354
966.6520, 39.45850
967.1342, 17.31030
967.6163, 10.43579
968.0984, 25.68823
968.5805, 31.19678
969.0626, 10.94043
969.5447, 0.1970210
970.0269, 18.15015
970.5090, 39.37842
970.9911, 45.24390
971.4732, 38.83179
971.9553, 28.40405
972.4374, 11.15747
972.9196, 2.714355
973.4017, 8.843994
973.8838, 19.35303
974.3659, 41.58862
974.8480, 57.55298
975.3301, 41.25513
975.8123, 5.779053
976.2944, 4.558838
976.7765, 27.86279
977.2586, 49.73462
977.7407, 40.11499
978.2228, 28.40063
978.7050, 29.14697
979.1871, 32.59180
979.6692, 27.37256
980.1513, 15.67627
980.6334, 7.210449
981.1155, 2.677490
981.5977, 5.898926
982.0798, 27.58984
982.5619, 46.09692
983.0440, 45.12402
983.5261, 39.08154
984.0082, 47.82397
984.4904, 67.04248
984.9725, 73.83008
985.4546, 58.22412
985.9367, 41.68433
986.4188, 26.02490
986.9009, 15.93652
987.3831, 19.29492
987.8652, 29.74805
988.3473, 44.98120
988.8294, 60.95581
989.3115, 60.98730
989.7936, 28.61060
990.2758, 11.65820
990.7579, 55.20288
991.2400, 92.31543
991.7221, 64.56616
992.2042, 15.68970
992.6863, 2.021973
993.1685, 22.78052
993.6506, 41.10254
994.1327, 43.79883
994.6148, 45.72705
995.0969, 61.91992
995.5790, 70.60352
996.0612, 47.81519
996.5433, 14.63770
997.0254, 4.109375
997.5075, 6.357178
997.9896, 0.1242680
998.4717, 15.81128
998.9539, 30.35547
999.4360, 38.69873
999.9181, 44.61548
1000.400, 52.31860
1000.882, 58.06738
1001.364, 57.30176
1001.847, 49.74634
1002.329, 36.16553
1002.811, 13.38525
1003.293, 4.592529
1003.775, 10.54053
1004.257, 10.28516
1004.739, 3.422363
1005.221, 4.496826
1005.703, 5.734131
1006.186, 1.464600
1006.668, 0.3186040
1007.150, 3.331787
1007.632, 8.751709
1008.114, 18.88306
1008.596, 25.13501
1009.078, 16.76782
1009.560, 4.806152
1010.043, 3.510498
1010.525, 11.69507
1011.007, 17.56714
1011.489, 15.21997
1011.971, 19.05981
1012.453, 45.57544
1012.935, 68.43774
1013.417, 69.72949
1013.899, 59.96973
1014.382, 48.71118
1014.864, 38.11597
1015.346, 28.64258
1015.828, 19.10889
1016.310, 16.63452
1016.792, 35.86719
1017.274, 48.79492
1017.756, 28.81079
1018.239, 3.827148
1018.721, 8.633545
1019.203, 33.74390
1019.685, 41.74316
1020.167, 19.49487
1020.649, 3.331543
1021.131, 8.273926
1021.613, 17.89258
1022.095, 31.79785
1022.578, 40.84595
1023.060, 28.73730
1023.542, 4.647217
1024.024, 7.144287
1024.506, 0.7438960
1024.988, 8.416260
1025.470, 21.64795
1025.952, 30.02075
1026.435, 24.02100
1026.917, 17.43408
1027.399, 22.08276
1027.881, 34.54785
1028.363, 47.50366
1028.845, 61.03589
1029.327, 65.82935
1029.809, 51.86475
1030.292, 40.46484
1030.774, 40.29346
1031.256, 41.51147
1031.738, 37.07153
1032.220, 29.99854
1032.702, 26.28979
1033.184, 26.62622
1033.666, 23.15283
1034.148, 7.290771
1034.630, 0.5910640
1035.113, 7.243652
1035.595, 18.03662
1036.077, 26.51807
1036.559, 32.69678
1037.041, 35.37695
1037.523, 34.36597
1038.005, 38.15405
1038.487, 54.79199
1038.970, 63.05054
1039.452, 58.48364
1039.934, 49.57886
1040.416, 36.28979
1040.898, 23.66504
1041.380, 17.94165
1041.862, 18.70996
1042.344, 21.70581
1042.826, 30.20312
1043.309, 33.39673
1043.791, 27.66724
1044.273, 23.00757
1044.755, 25.60767
1045.237, 26.70337
1045.719, 14.10474
1046.201, 6.814209
1046.683, 9.678467
1047.166, 13.92065
1047.648, 26.61450
1048.130, 25.22632
1048.612, 20.65991
1049.094, 15.13892
1049.576, 9.922852
1050.058, 5.908936
1050.540, 3.198730
1051.022, 1.840088
1051.505, 1.444824
1051.987, 7.110596
1052.469, 20.38086
1052.951, 30.20801
1053.433, 34.30029
1053.915, 31.75513
1054.397, 20.10986
1054.879, 7.126465
1055.361, 7.497559
1055.844, 21.16821
1056.326, 47.15234
1056.808, 85.40210
1057.290, 91.98779
1057.772, 59.06958
1058.254, 27.53418
1058.736, 18.70703
1059.218, 22.87573
1059.701, 30.20996
1060.183, 37.90039
1060.665, 33.08667
1061.147, 18.88696
1061.629, 14.77808
1062.111, 22.45312
1062.593, 35.11182
1063.075, 49.27686
1063.557, 57.29443
1064.040, 49.85742
1064.522, 35.45850
1065.004, 30.54419
1065.486, 30.57227
1065.968, 20.72412
1066.450, 5.308594
1066.932, 3.627930
1067.414, 19.35669
1067.896, 39.34375
1068.379, 56.60571
1068.861, 66.91016
1069.343, 58.85132
1069.825, 45.87671
1070.307, 49.45166
1070.789, 61.75562
1071.271, 67.38306
1071.753, 63.43408
1072.236, 50.58179
1072.718, 26.96021
1073.200, 9.926025
1073.682, 19.60742
1074.164, 32.90454
1074.646, 25.06055
1075.128, 13.47778
1075.610, 24.42847
1076.093, 50.34595
1076.575, 65.82690
1077.057, 64.04810
1077.539, 56.19995
1078.021, 44.44849
1078.503, 31.21313
1078.985, 8.281738
1079.467, 6.402588
1079.949, 10.55640
1080.432, 40.62231
1080.914, 51.42822
1081.396, 40.24707
1081.878, 31.55713
1082.360, 32.90332
1082.842, 33.99341
1083.324, 30.06030
1083.806, 29.20947
1084.288, 42.42383
1084.771, 55.05933
1085.253, 47.63354
1085.735, 25.02246
1086.217, 10.94312
1086.699, 6.586914
1087.181, 8.619629
1087.663, 25.18384
1088.145, 30.70386
1088.628, 12.58960
1089.110, 7.358154
1089.592, 14.20703
1090.074, 10.87598
1090.556, 3.180664
1091.038, 8.971924
1091.520, 24.28345
1092.002, 44.94238
1092.484, 51.93774
1092.967, 40.17432
1093.449, 30.58984
1093.931, 34.76123
1094.413, 39.42993
1094.895, 25.07031
1095.377, 0.8642580
1095.859, 4.360352
1096.341, 31.49561
1096.823, 51.14258
1097.306, 60.81689
1097.788, 61.97412
1098.270, 55.75024
1098.752, 50.92944
1099.234, 54.80151
1099.716, 62.54004
1100.198, 69.57837
1100.680, 73.57153
1101.163, 67.31055
1101.645, 54.54175
1102.127, 44.46851
1102.609, 38.59204
1103.091, 34.87354
1103.573, 32.64014
1104.055, 27.78271
1104.537, 12.18066
1105.020, 0.2158200
1105.502, 10.86499
1105.984, 29.42310
1106.466, 33.84497
1106.948, 30.21265
1107.430, 36.95312
1107.912, 57.74170
1108.394, 72.41016
1108.876, 68.62134
1109.359, 63.12476
1109.841, 60.45068
1110.323, 59.88647
1110.805, 66.44434
1111.287, 71.09497
1111.769, 56.82397
1112.251, 29.21777
1112.733, 20.94019
1113.215, 47.98169
1113.698, 61.67700
1114.180, 50.68677
1114.662, 42.10254
1115.144, 43.68774
1115.626, 46.83081
1116.108, 46.50684
1116.590, 43.04785
1117.072, 35.56079
1117.555, 23.97974
1118.037, 25.62769
1118.519, 44.45142
1119.001, 54.31714
1119.483, 51.83130
1119.965, 40.05762
1120.447, 18.06738
1120.929, 3.307861
1121.411, 16.10010
1121.894, 43.73682
1122.376, 52.68970
1122.858, 46.39795
1123.340, 41.07080
1123.822, 37.92358
1124.304, 41.33911
1124.786, 50.52661
1125.268, 50.15967
1125.750, 30.55200
1126.233, 14.17236
1126.715, 37.54053
1127.197, 69.64966
1127.679, 63.31299
1128.161, 38.49072
1128.643, 23.44873
1129.125, 20.43262
1129.607, 27.46362
1130.090, 42.24976
1130.572, 50.18335
1131.054, 39.86597
1131.536, 28.29736
1132.018, 16.34058
1132.500, 14.80347
1132.982, 46.84985
1133.464, 82.36157
1133.947, 80.93823
1134.429, 49.65454
1134.911, 26.17432
1135.393, 12.36792
1135.875, 15.42114
1136.357, 61.48560
1136.839, 85.71191
1137.321, 60.64355
1137.803, 35.95776
1138.286, 43.69238
1138.768, 61.02271
1139.250, 52.28857
1139.732, 21.47119
1140.214, 6.479736
1140.696, 9.096191
1141.178, 12.95044
1141.660, 16.75830
1142.142, 28.06519
1142.625, 50.07544
1143.107, 65.10864
1143.589, 58.54639
1144.071, 41.42529
1144.553, 31.38647
1145.035, 26.86621
1145.517, 21.09302
1145.999, 17.70386
1146.482, 34.73145
1146.964, 66.19141
1147.446, 80.70874
1147.928, 67.87817
1148.410, 49.27393
1148.892, 38.92944
1149.374, 31.15918
1149.856, 20.24341
1150.339, 10.51978
1150.821, 3.802490
1151.303, 2.783936
1151.785, 17.52100
1152.267, 41.92090
1152.749, 46.19971
1153.231, 12.95532
1153.713, 0.4042970
1154.195, 50.19385
1154.677, 82.93628
1155.160, 57.46924
1155.642, 27.06567
1156.124, 26.62622
1156.606, 39.30420
1157.088, 40.21436
1157.570, 30.85620
1158.052, 30.01318
1158.534, 41.07520
1159.017, 44.27148
1159.499, 37.12866
1159.981, 32.40820
1160.463, 34.87573
1160.945, 29.95215
1161.427, 4.531250
1161.909, 21.38672
1162.391, 4.751221
1162.874, 35.29272
1163.356, 26.98364
1163.838, 12.05322
1164.320, 24.12183
1164.802, 8.606445
1165.284, 6.081299
1165.766, 10.84863
1166.248, 15.83081
1166.730, 30.06836
1167.213, 40.82007
1167.695, 32.80103
1168.177, 21.59082
1168.659, 17.99316
1169.141, 21.85815
1169.623, 34.99316
1170.105, 53.94141
1170.587, 72.15723
1171.069, 90.18457
1171.552, 93.84863
1172.034, 66.72290
1172.516, 47.46533
1172.998, 46.73975
1173.480, 47.96313
1173.962, 44.30347
1174.444, 38.84985
1174.926, 33.88501
1175.409, 30.26245
1175.891, 31.96094
1176.373, 39.99976
1176.855, 42.19800
1177.337, 38.31934
1177.819, 37.27124
1178.301, 40.49341
1178.783, 40.40674
1179.266, 33.29590
1179.748, 26.90820
1180.230, 29.75854
1180.712, 37.69727
1181.194, 48.29517
1181.676, 56.38208
1182.158, 47.82690
1182.640, 31.60352
1183.122, 29.94653
1183.604, 41.56470
1184.087, 42.94751
1184.569, 22.88867
1185.051, 12.93506
1185.533, 39.39600
1186.015, 62.69580
1186.497, 63.91382
1186.979, 58.59277
1187.461, 59.74902
1187.944, 59.81030
1188.426, 41.73682
1188.908, 11.04248
1189.390, 3.431885
1189.872, 27.22852
1190.354, 44.38184
1190.836, 53.30688
1191.318, 63.69141
1191.801, 78.55225
1192.283, 88.29956
1192.765, 87.59326
1193.247, 80.16675
1193.729, 69.92627
1194.211, 56.91113
1194.693, 34.18286
1195.175, 9.520508
1195.657, 8.636719
1196.140, 23.49683
1196.622, 26.27832
1197.104, 14.29199
1197.586, 4.141846
1198.068, 0.3127440
1198.550, 6.029541
1199.032, 21.44604
1199.514, 38.70068
1199.996, 53.34766
1200.479, 57.80298
1200.961, 37.53882
1201.443, 9.702393
1201.925, 1.009033
1202.407, 5.122314
1202.889, 13.59839
1203.371, 25.25366
1203.853, 36.84009
1204.336, 49.89575
1204.818, 57.21899
1205.300, 56.14380
1205.782, 55.62158
1206.264, 61.13696
1206.746, 64.67651
1207.228, 55.74097
1207.710, 39.67529
1208.193, 28.61841
1208.675, 21.89185
1209.157, 19.07202
1209.639, 18.53418
1210.121, 13.47632
1210.603, 6.031982
1211.085, 12.49927
1211.567, 39.44409
1212.049, 59.01562
1212.531, 42.04956
1213.014, 28.15723
1213.496, 46.60938
1213.978, 66.25928
1214.460, 63.96631
1214.942, 51.25391
1215.424, 39.56006
1215.906, 30.24854
1216.388, 31.22900
1216.871, 43.24512
1217.353, 58.66675
1217.835, 82.90967
1218.317, 82.02441
1218.799, 46.17041
1219.281, 20.37671
1219.763, 24.06641
1220.245, 31.71069
1220.728, 18.39331
1221.210, 1.638916
1221.692, 20.06763
1222.174, 52.74121
1222.656, 55.35645
1223.138, 39.18042
1223.620, 24.75122
1224.102, 16.64600
1224.584, 18.73926
1225.067, 30.87305
1225.549, 39.90283
1226.031, 40.51782
1226.513, 36.68237
1226.995, 26.37451
1227.477, 15.90918
1227.959, 2.820801
1228.441, 2.076416
1228.923, 17.09790
1229.406, 42.05737
1229.888, 38.50781
1230.370, 10.33716
1230.852, 1.746582
1231.334, 9.549805
1231.816, 13.69800
1232.298, 2.863037
1232.780, 7.8130001E-03
1233.263, 0.0000000E+00
##END=



