##NAMES=Bisbeeite
##RRUFFID=R060317
##IDEAL CHEMISTRY=(Cu,Mg)SiO_3_&#183;nH_2_O
##LOCALITY=Shangulowe, Katanga Province, Democratic Republic of Congo
##OWNER=RRUFF
##SOURCE=Herb Obodda
##DESCRIPTION=Light blue granular massive
##STATUS=The identification of this mineral has been confirmed by X-ray diffraction and chemical analysis
##URL=rruff.info/R060317
##MEASURED CHEMISTRY=(Cu_0.99_Mg_0.01_)_Σ=1_Si_1.00_O_3_·0.40H_2_O
117.5675, 0.0000000E+00
118.0496, 4.8799999E-04
118.5317, 1.302368
119.0139, 2.155884
119.4960, 2.126282
119.9781, 1.977722
120.4602, 1.855469
120.9423, 1.629822
121.4244, 1.559143
121.9066, 1.062195
122.3887, 0.3200070
122.8708, 1.1658000E-02
123.3529, 0.4373170
123.8350, 0.8662720
124.3171, 0.7034300
124.7993, 2.2217000E-02
125.2814, 0.5002440
125.7635, 0.1202390
126.2456, 1.417847
126.7277, 2.677917
127.2098, 3.573730
127.6920, 4.204712
128.1741, 4.639954
128.6562, 4.864136
129.1383, 4.990662
129.6204, 5.340332
130.1025, 5.900085
130.5847, 5.887085
131.0668, 4.381409
131.5489, 1.916870
132.0310, 0.4138790
132.5131, 0.6774290
132.9952, 1.654724
133.4774, 2.396301
133.9595, 2.883240
134.4416, 3.341125
134.9237, 4.114136
135.4058, 5.328918
135.8879, 6.031555
136.3701, 5.240173
136.8522, 4.400330
137.3343, 4.529663
137.8164, 5.854065
138.2985, 7.567139
138.7806, 8.256592
139.2628, 7.248535
139.7449, 6.384216
140.2270, 5.778687
140.7091, 5.398560
141.1912, 5.193237
141.6733, 5.138367
142.1555, 5.271790
142.6376, 5.734070
143.1197, 7.301636
143.6018, 8.327637
144.0839, 8.436340
144.5660, 7.901611
145.0482, 7.070557
145.5303, 6.070862
146.0124, 5.003662
146.4945, 4.647278
146.9766, 5.230652
147.4587, 6.105469
147.9409, 7.358154
148.4230, 8.816040
148.9051, 9.702515
149.3872, 9.181030
149.8693, 7.575195
150.3514, 6.937195
150.8336, 8.076782
151.3157, 9.721497
151.7978, 10.89514
152.2799, 11.59869
152.7620, 11.72119
153.2441, 10.51904
153.7263, 8.689331
154.2084, 7.429260
154.6905, 7.649597
155.1726, 8.642334
155.6547, 8.727234
156.1368, 7.341797
156.6190, 6.050354
157.1011, 5.655273
157.5832, 5.941223
158.0653, 6.540222
158.5474, 7.520386
159.0295, 8.788208
159.5117, 9.058411
159.9938, 7.146729
160.4759, 5.334351
160.9580, 4.410645
161.4401, 4.276489
161.9222, 4.530762
162.4044, 4.911560
162.8865, 5.517761
163.3686, 5.642334
163.8507, 4.592773
164.3328, 3.685303
164.8149, 3.763306
165.2971, 4.705688
165.7792, 5.638794
166.2613, 5.484497
166.7434, 3.648315
167.2255, 2.427307
167.7076, 2.108948
168.1898, 2.110962
168.6719, 2.075989
169.1540, 1.919739
169.6361, 1.718445
170.1182, 1.570007
170.6003, 1.472961
171.0825, 1.465393
171.5646, 1.598511
172.0467, 1.805969
172.5288, 2.045898
173.0109, 2.319458
173.4930, 2.549927
173.9752, 2.613037
174.4573, 2.543152
174.9394, 2.276978
175.4215, 1.445679
175.9036, 0.4017940
176.3857, 6.6895001E-02
176.8679, 0.4135130
177.3500, 1.324585
177.8321, 1.855591
178.3142, 1.942688
178.7963, 2.293945
179.2784, 3.840210
179.7606, 6.345154
180.2427, 7.697449
180.7248, 6.645691
181.2069, 4.757813
181.6890, 3.128174
182.1711, 1.809204
182.6533, 1.306946
183.1354, 2.627991
183.6175, 6.170227
184.0996, 8.679688
184.5817, 8.632935
185.0638, 7.756409
185.5460, 6.878357
186.0281, 6.191284
186.5102, 5.535461
186.9923, 4.589050
187.4744, 3.041016
187.9565, 2.059448
188.4387, 1.836975
188.9208, 2.105774
189.4029, 2.869324
189.8850, 4.088989
190.3671, 5.415344
190.8492, 6.228638
191.3314, 6.480469
191.8135, 6.163025
192.2956, 4.213745
192.7777, 2.292419
193.2598, 2.200134
193.7419, 4.607849
194.2241, 8.299927
194.7062, 10.34253
195.1883, 9.020996
195.6704, 7.863220
196.1525, 6.671326
196.6346, 5.769409
197.1168, 5.663940
197.5989, 6.602905
198.0810, 8.179688
198.5631, 9.222778
199.0452, 9.821594
199.5273, 9.836426
200.0095, 8.504700
200.4916, 6.665771
200.9737, 5.817871
201.4558, 6.770813
201.9379, 8.831543
202.4200, 10.02380
202.9022, 10.18695
203.3843, 10.02502
203.8664, 9.326416
204.3485, 8.425171
204.8306, 8.395813
205.3127, 10.05872
205.7949, 12.47900
206.2770, 13.59717
206.7591, 13.10956
207.2412, 12.16595
207.7233, 11.16351
208.2054, 10.15619
208.6876, 9.540649
209.1697, 9.686340
209.6518, 10.17029
210.1339, 10.33270
210.6160, 10.07495
211.0981, 9.707520
211.5803, 9.528625
212.0624, 9.540588
212.5445, 9.365234
213.0266, 8.583435
213.5087, 7.737610
213.9908, 7.413086
214.4730, 7.770386
214.9551, 8.248840
215.4372, 8.210693
215.9193, 7.581970
216.4014, 6.914917
216.8836, 6.074707
217.3657, 5.424500
217.8478, 5.460938
218.3299, 6.217224
218.8120, 7.023865
219.2941, 6.982361
219.7763, 5.706604
220.2584, 4.854431
220.7405, 5.108826
221.2226, 5.614746
221.7047, 5.843567
222.1868, 5.563232
222.6690, 5.020691
223.1511, 4.388306
223.6332, 3.142883
224.1153, 3.105408
224.5974, 5.632202
225.0795, 8.472412
225.5617, 10.03046
226.0438, 9.912476
226.5259, 8.870789
227.0080, 8.112549
227.4901, 7.402161
227.9722, 7.538086
228.4544, 9.816101
228.9365, 12.06824
229.4186, 12.30975
229.9007, 10.09821
230.3828, 6.769165
230.8649, 4.677490
231.3471, 4.940857
231.8292, 4.704102
232.3113, 3.203369
232.7934, 1.681396
233.2755, 1.206726
233.7576, 2.055847
234.2398, 3.704163
234.7219, 5.321106
235.2040, 7.225708
235.6861, 8.421326
236.1682, 8.810303
236.6503, 8.565552
237.1325, 7.471863
237.6146, 5.544678
238.0967, 3.716919
238.5788, 3.368774
239.0609, 5.120300
239.5430, 6.656555
240.0252, 8.456482
240.5073, 9.811462
240.9894, 9.711426
241.4715, 7.924316
241.9536, 5.500305
242.4357, 3.698303
242.9179, 2.527954
243.4000, 2.251953
243.8821, 3.556091
244.3642, 5.272461
244.8463, 5.954773
245.3284, 5.271423
245.8106, 4.391052
246.2927, 4.844727
246.7748, 6.719849
247.2569, 7.633301
247.7390, 6.763245
248.2211, 5.124756
248.7033, 3.347778
249.1854, 1.328125
249.6675, 0.2712400
250.1496, 0.4066160
250.6317, 0.7651980
251.1138, 1.844543
251.5960, 2.583618
252.0781, 3.061462
252.5602, 3.337769
253.0423, 3.390015
253.5244, 3.394043
254.0065, 3.673584
254.4887, 4.056702
254.9708, 3.979980
255.4529, 2.870544
255.9350, 1.474731
256.4171, 0.5637820
256.8992, 9.8938003E-02
257.3813, 0.1719970
257.8635, 1.301270
258.3456, 2.965759
258.8277, 4.328247
259.3098, 5.271851
259.7919, 5.700928
260.2740, 5.250244
260.7562, 3.682617
261.2383, 2.244141
261.7204, 1.447937
262.2025, 1.253845
262.6846, 1.804749
263.1667, 3.427795
263.6489, 5.459717
264.1310, 7.152466
264.6131, 8.605591
265.0952, 9.275818
265.5773, 8.297180
266.0594, 6.645752
266.5416, 5.146240
267.0237, 4.002319
267.5058, 3.132019
267.9879, 2.340698
268.4700, 1.543762
268.9521, 1.263245
269.4343, 2.332703
269.9164, 3.669983
270.3985, 4.474426
270.8806, 4.546936
271.3627, 4.169800
271.8448, 3.433960
272.3270, 2.116760
272.8091, 1.582764
273.2912, 3.716797
273.7733, 5.746765
274.2554, 5.349670
274.7375, 2.236084
275.2197, 0.9785770
275.7018, 0.8519290
276.1839, 3.330383
276.6660, 6.166748
277.1481, 5.982605
277.6302, 4.849365
278.1124, 3.098206
278.5945, 1.043030
279.0766, 0.2901610
279.5587, 0.8300170
280.0408, 4.921997
280.5229, 6.819519
281.0051, 3.653748
281.4872, 0.4290770
281.9693, 0.7918700
282.4514, 0.1655880
282.9335, 1.113586
283.4156, 2.195740
283.8978, 3.084473
284.3799, 3.633057
284.8620, 3.744202
285.3441, 3.559204
285.8262, 2.800171
286.3083, 1.771423
286.7905, 1.080505
287.2726, 1.189636
287.7547, 2.029480
288.2368, 2.977966
288.7189, 4.219543
289.2010, 5.343506
289.6832, 6.626526
290.1653, 7.653748
290.6474, 7.710449
291.1295, 6.256042
291.6116, 3.746277
292.0938, 2.013733
292.5759, 1.267212
293.0580, 1.135620
293.5401, 2.322144
294.0222, 3.728271
294.5043, 3.925720
294.9865, 2.236267
295.4686, 0.4011230
295.9507, 1.692810
296.4328, 1.000061
296.9149, 1.4038000E-02
297.3970, 1.524048
297.8792, 2.999817
298.3613, 4.085388
298.8434, 4.650391
299.3255, 4.609985
299.8076, 3.578491
300.2897, 0.4935910
300.7719, 1.112915
301.2540, 7.0496000E-02
301.7361, 1.696533
302.2182, 2.104431
302.7003, 1.131348
303.1824, 3.6681999E-02
303.6646, 0.3203130
304.1467, -1.1379778E-03
304.6288, 0.8350548
305.1109, 0.7809450
305.5930, 2.374817
306.0751, 3.501099
306.5573, 2.677490
307.0394, 1.028992
307.5215, 0.5837400
308.0036, 2.215454
308.4857, 3.104248
308.9678, 2.256653
309.4500, 1.593872
309.9321, 1.822937
310.4142, 2.662659
310.8963, 3.521545
311.3784, 4.065430
311.8605, 4.252441
312.3427, 3.718689
312.8248, 1.012817
313.3069, 0.6972660
313.7890, 0.5236210
314.2711, 0.8605350
314.7532, 2.813171
315.2354, 5.065002
315.7175, 7.205017
316.1996, 7.934143
316.6817, 6.154480
317.1638, 4.638733
317.6459, 3.577454
318.1281, 2.946899
318.6102, 2.904541
319.0923, 3.450256
319.5744, 4.133972
320.0565, 4.147095
320.5386, 3.054077
321.0208, 2.288147
321.5029, 1.919006
321.9850, 1.819275
322.4671, 1.944641
322.9492, 2.270081
323.4313, 2.762207
323.9135, 3.504822
324.3956, 4.674438
324.8777, 5.150696
325.3598, 3.880737
325.8419, 2.887329
326.3240, 3.357483
326.8062, 4.838989
327.2883, 5.917480
327.7704, 5.303711
328.2525, 3.158142
328.7346, 2.328674
329.2167, 4.053101
329.6989, 5.797729
330.1810, 7.385498
330.6631, 8.513611
331.1452, 8.713440
331.6273, 7.674500
332.1094, 5.757324
332.5916, 4.002380
333.0737, 2.048767
333.5558, 0.8369140
334.0379, 0.7893680
334.5200, 1.300720
335.0021, 2.044067
335.4843, 2.889343
335.9664, 3.546082
336.4485, 3.279297
336.9306, 1.308044
337.4127, 0.6949460
337.8948, 3.161621
338.3770, 5.841492
338.8591, 6.972717
339.3412, 6.483398
339.8233, 5.478394
340.3055, 5.200867
340.7876, 5.725952
341.2697, 6.000610
341.7518, 5.785706
342.2339, 5.493958
342.7160, 5.161133
343.1982, 4.872498
343.6803, 4.838989
344.1624, 5.386047
344.6445, 6.275635
345.1266, 6.204895
345.6087, 4.429016
346.0909, 2.896545
346.5730, 2.128296
347.0551, 1.968262
347.5372, 2.358826
348.0193, 3.397461
348.5014, 4.573059
348.9836, 4.876099
349.4657, 4.027710
349.9478, 3.237427
350.4299, 2.903748
350.9120, 2.694153
351.3941, 2.263000
351.8763, 1.559509
352.3584, 1.071655
352.8405, 1.481079
353.3226, 2.763306
353.8047, 3.650757
354.2868, 4.004883
354.7690, 4.126526
355.2511, 4.052673
355.7332, 3.822937
356.2153, 3.700439
356.6974, 3.875793
357.1795, 4.299194
357.6617, 4.884155
358.1438, 5.903442
358.6259, 6.367126
359.1080, 5.528870
359.5901, 4.018555
360.0722, 2.842407
360.5544, 2.407288
361.0365, 2.380615
361.5186, 2.520081
362.0007, 2.872803
362.4828, 2.984009
362.9649, 2.141602
363.4471, 1.113220
363.9292, 1.265076
364.4113, 3.128662
364.8934, 5.037109
365.3755, 5.552490
365.8576, 4.827942
366.3398, 4.024841
366.8219, 3.188843
367.3040, 2.698975
367.7861, 3.077820
368.2682, 4.239258
368.7503, 5.400024
369.2325, 6.562256
369.7146, 7.393677
370.1967, 6.958191
370.6788, 4.947876
371.1609, 3.035889
371.6430, 3.047485
372.1252, 4.421204
372.6073, 5.018372
373.0894, 3.698059
373.5715, 2.199463
374.0536, 2.106140
374.5357, 3.184082
375.0179, 4.033325
375.5000, 3.943481
375.9821, 3.220703
376.4642, 2.555786
376.9463, 1.794434
377.4284, 1.416870
377.9106, 1.868286
378.3927, 2.765381
378.8748, 3.525635
379.3569, 4.019043
379.8390, 4.155457
380.3211, 3.632080
380.8033, 2.224182
381.2854, 1.571777
381.7675, 2.559570
382.2496, 3.795593
382.7317, 4.045654
383.2138, 3.341064
383.6960, 2.643921
384.1781, 2.668701
384.6602, 3.369324
385.1423, 4.071350
385.6244, 5.130615
386.1065, 5.793945
386.5887, 5.582275
387.0708, 4.841614
387.5529, 4.092834
388.0350, 3.551086
388.5171, 3.250000
388.9992, 3.276184
389.4814, 4.027039
389.9635, 4.502563
390.4456, 4.856995
390.9277, 4.847656
391.4098, 4.013794
391.8919, 2.451050
392.3741, 0.9381100
392.8562, 0.3411870
393.3383, 0.8239750
393.8204, 0.9779660
394.3025, 0.4985960
394.7846, 3.6804002E-02
395.2668, 7.3242001E-02
395.7489, 1.5015000E-02
396.2310, 0.2023320
396.7131, 0.9086910
397.1952, 1.914246
397.6773, 2.497070
398.1595, 2.848389
398.6416, 2.376526
399.1237, 0.6238400
399.6058, 1.630066
400.0879, 3.994080
400.5700, 6.275085
401.0522, 8.022766
401.5343, 8.534180
402.0164, 7.571838
402.4985, 6.749573
402.9806, 6.281677
403.4627, 5.805481
403.9449, 4.799927
404.4270, 3.628174
404.9091, 3.275574
405.3912, 4.775879
405.8733, 7.324524
406.3554, 8.265747
406.8376, 7.007263
407.3197, 5.618530
407.8018, 4.869995
408.2839, 4.437012
408.7660, 4.019104
409.2481, 3.534302
409.7303, 3.109192
410.2124, 2.922180
410.6945, 2.957031
411.1766, 2.885132
411.6587, 2.460266
412.1408, 2.158264
412.6230, 2.660522
413.1051, 3.820862
413.5872, 4.493835
414.0693, 3.729248
414.5514, 2.358032
415.0335, 1.575684
415.5157, 1.434998
415.9978, 2.090576
416.4799, 4.334229
416.9620, 7.335999
417.4441, 8.571838
417.9262, 6.656921
418.4084, 4.681763
418.8905, 4.684448
419.3726, 5.993652
419.8547, 6.914001
420.3368, 6.878540
420.8189, 6.191711
421.3011, 5.153809
421.7832, 3.511475
422.2653, 2.623474
422.7474, 2.926392
423.2295, 3.851807
423.7116, 5.570923
424.1938, 7.745789
424.6759, 8.571045
425.1580, 6.202209
425.6401, 0.9633790
426.1222, 1.083679
426.6043, 2.218140
427.0865, 5.661682
427.5686, 8.779480
428.0507, 11.01300
428.5328, 11.27521
429.0149, 9.203735
429.4970, 6.259460
429.9792, 5.053711
430.4613, 6.539551
430.9434, 7.737122
431.4255, 8.532898
431.9076, 9.199951
432.3897, 9.969238
432.8719, 10.77295
433.3540, 11.35663
433.8361, 11.51605
434.3182, 11.28406
434.8003, 10.84082
435.2824, 9.908936
435.7646, 9.214111
436.2467, 9.158875
436.7288, 9.299988
437.2109, 9.003418
437.6930, 8.059570
438.1751, 7.269958
438.6573, 7.972473
439.1394, 10.33221
439.6215, 11.80817
440.1036, 11.63995
440.5857, 10.93079
441.0678, 10.45239
441.5500, 10.10083
442.0321, 9.435242
442.5142, 7.753052
442.9963, 5.802612
443.4784, 5.013428
443.9605, 5.486938
444.4427, 6.371277
444.9248, 7.591248
445.4069, 8.791016
445.8890, 9.378723
446.3711, 9.242676
446.8532, 8.753174
447.3354, 7.528931
447.8175, 6.165222
448.2996, 6.330872
448.7817, 8.618286
449.2638, 11.01611
449.7459, 11.18311
450.2281, 8.945007
450.7102, 7.273621
451.1923, 6.827454
451.6744, 6.484314
452.1565, 5.276611
452.6386, 3.542480
453.1208, 2.417542
453.6029, 2.533752
454.0850, 3.488831
454.5671, 4.165710
455.0492, 4.421936
455.5313, 4.538879
456.0135, 4.457520
456.4956, 4.342285
456.9777, 4.403931
457.4598, 4.566162
457.9419, 4.603210
458.4240, 4.289307
458.9062, 3.620972
459.3883, 3.037598
459.8704, 2.069824
460.3525, 1.771057
460.8346, 3.159119
461.3167, 5.053589
461.7989, 5.895386
462.2810, 5.082397
462.7631, 3.455139
463.2452, 2.050537
463.7273, 0.7213130
464.2094, 0.5508420
464.6916, 3.370117
465.1737, 5.787659
465.6558, 5.028931
466.1379, 1.979370
466.6200, 6.2134001E-02
467.1021, 1.675232
467.5843, 5.193115
468.0664, 5.960510
468.5485, 3.592224
469.0306, 1.499451
469.5127, 1.315979
469.9948, 2.271118
470.4770, 3.174011
470.9591, 4.052429
471.4412, 4.647827
471.9233, 4.945557
472.4054, 4.853210
472.8875, 3.917542
473.3697, 1.995911
473.8518, 0.3424680
474.3339, 7.0983998E-02
474.8160, 1.157532
475.2981, 1.987244
475.7802, 2.119202
476.2624, 2.475220
476.7445, 4.110229
477.2266, 6.160583
477.7087, 6.698669
478.1908, 4.934998
478.6729, 2.320679
479.1551, 1.568604
479.6372, 4.000305
480.1193, 5.187073
480.6014, 4.189880
481.0835, 2.965332
481.5656, 2.263245
482.0478, 2.266968
482.5299, 3.266113
483.0120, 5.668274
483.4941, 8.788940
483.9762, 9.787781
484.4583, 7.573181
484.9405, 5.569519
485.4226, 4.341614
485.9047, 3.722900
486.3868, 3.708130
486.8689, 4.325134
487.3510, 4.904236
487.8332, 4.692688
488.3153, 3.912109
488.7974, 3.733154
489.2795, 4.447144
489.7616, 5.141296
490.2437, 5.065796
490.7259, 4.651611
491.2080, 4.632446
491.6901, 5.458313
492.1722, 6.051636
492.6543, 5.268005
493.1364, 3.610046
493.6186, 2.612122
494.1007, 2.742371
494.5828, 3.251709
495.0649, 3.172852
495.5470, 2.422729
496.0291, 2.342529
496.5113, 4.048645
496.9934, 5.440186
497.4755, 4.938416
497.9576, 3.140259
498.4397, 1.502930
498.9218, 0.7158810
499.4040, 0.6427610
499.8861, 1.041443
500.3682, 2.341919
500.8503, 3.323242
501.3324, 3.794250
501.8145, 4.158325
502.2967, 4.955688
502.7788, 5.922424
503.2609, 6.067749
503.7430, 4.439758
504.2251, 1.769653
504.7072, 1.173523
505.1894, 3.934814
505.6715, 5.816528
506.1536, 4.733582
506.6357, 3.031921
507.1178, 2.691345
507.5999, 3.902283
508.0821, 5.095581
508.5642, 4.879578
509.0463, 3.774414
509.5284, 3.347656
510.0105, 3.865417
510.4926, 4.372131
510.9748, 4.179199
511.4569, 3.584229
511.9390, 3.337769
512.4211, 3.715393
512.9032, 4.010620
513.3853, 3.924927
513.8674, 3.523865
514.3495, 2.863098
514.8317, 1.845215
515.3138, 0.9765010
515.7959, 0.8935550
516.2780, 1.723633
516.7601, 2.669312
517.2422, 4.333801
517.7244, 5.437988
518.2065, 5.209106
518.6886, 4.267822
519.1707, 3.561462
519.6528, 3.417297
520.1349, 3.373108
520.6171, 2.771423
521.0992, 1.226318
521.5813, 5.6150001E-03
522.0634, 0.6943360
522.5455, 0.8875730
523.0276, 9.0880997E-02
523.5098, 1.118347
523.9919, 1.545532
524.4740, 0.4045410
524.9561, 0.9855960
525.4382, 0.2908330
525.9203, 2.538757
526.4025, 4.308838
526.8846, 3.709473
527.3667, 2.465027
527.8488, 2.520386
528.3309, 3.658875
528.8130, 4.334717
529.2952, 3.953369
529.7773, 3.025879
530.2594, 1.650940
530.7415, 3.9978001E-02
531.2236, 0.9474490
531.7057, 0.9083860
532.1879, 0.1020510
532.6700, 1.076599
533.1521, 3.219177
533.6342, 4.324951
534.1163, 3.235413
534.5984, 2.053589
535.0806, 2.443481
535.5627, 3.977844
536.0448, 5.093140
536.5269, 4.780579
537.0090, 3.555725
537.4911, 3.025940
537.9733, 3.618774
538.4554, 3.986145
538.9375, 3.894409
539.4196, 3.543457
539.9017, 3.076904
540.3839, 2.590149
540.8660, 2.193237
541.3481, 2.098267
541.8302, 2.063416
542.3123, 1.194519
542.7944, 0.7230830
543.2766, 1.428772
543.7587, 0.9020390
544.2408, 4.143677
544.7229, 5.047668
545.2050, 3.357239
545.6871, 1.891418
546.1693, 1.769531
546.6514, 2.321106
547.1335, 3.080505
547.6156, 3.890381
548.0977, 4.184631
548.5798, 3.498718
549.0620, 2.206421
549.5441, 1.605957
550.0262, 2.767517
550.5083, 3.180908
550.9904, 2.026550
551.4725, 0.7321780
551.9547, 0.3362430
552.4368, 0.8260500
552.9189, 1.663208
553.4010, 2.469299
553.8831, 3.270325
554.3652, 4.324341
554.8474, 6.150635
555.3295, 6.912415
555.8116, 4.873596
556.2937, 2.474121
556.7758, 1.668884
557.2579, 2.474670
557.7401, 3.146790
558.2222, 2.123291
558.7043, 0.5262450
559.1864, 0.5917360
559.6685, 2.383606
560.1506, 3.837646
560.6328, 3.792053
561.1149, 2.938538
561.5970, 2.895142
562.0791, 4.053223
562.5612, 4.600403
563.0433, 3.478088
563.5255, 2.150635
564.0076, 2.102844
564.4897, 3.102051
564.9718, 3.690857
565.4539, 2.870178
565.9360, 1.187561
566.4182, 0.5600590
566.9003, 1.863525
567.3824, 2.579651
567.8645, 1.929565
568.3466, 1.234314
568.8287, 1.543091
569.3109, 2.621887
569.7930, 3.426208
570.2751, 3.381042
570.7572, 2.586304
571.2393, 0.7806400
571.7214, 2.223816
572.2036, 3.858704
572.6857, 2.757202
573.1678, 0.5051270
573.6499, 1.162964
574.1320, 2.259521
574.6141, 3.029846
575.0963, 3.335022
575.5784, 3.494202
576.0605, 4.139099
576.5426, 4.931274
577.0247, 4.409851
577.5068, 1.747131
577.9890, 1.479492
578.4711, 2.168762
578.9532, 1.263916
579.4353, 1.591769
579.9174, 2.669617
580.3995, 1.857422
580.8817, 1.960510
581.3638, 2.622070
581.8459, 3.097412
582.3280, 3.046570
582.8101, 2.536987
583.2922, 1.599548
583.7744, 0.1264650
584.2565, 0.4946290
584.7386, 0.3501590
585.2207, 1.471069
585.7029, 1.903198
586.1850, 1.941711
586.6671, 2.399658
587.1492, 3.990479
587.6313, 5.352356
588.1135, 5.234192
588.5956, 4.156250
589.0777, 3.264648
589.5598, 2.920227
590.0419, 2.849304
590.5240, 2.664551
591.0062, 2.338318
591.4883, 2.365051
591.9704, 2.921204
592.4525, 3.576111
592.9346, 4.469421
593.4167, 5.285278
593.8989, 5.828491
594.3810, 5.985229
594.8631, 5.457092
595.3452, 3.446289
595.8273, 0.2162480
596.3094, 1.149048
596.7916, 0.1068730
597.2737, 1.559753
597.7558, 4.181396
598.2379, 6.495239
598.7200, 6.581055
599.2021, 3.918640
599.6843, 2.139038
600.1664, 4.652344
600.6485, 8.315369
601.1306, 8.130981
601.6127, 4.301575
602.0948, 0.8314820
602.5770, 8.5937999E-02
603.0591, 1.292969
603.5412, 2.375122
604.0233, 3.760254
604.5054, 4.234253
604.9875, 2.777100
605.4697, 1.316589
605.9518, 1.302307
606.4339, 2.334656
606.9160, 3.146118
607.3981, 3.023865
607.8802, 2.340210
608.3624, 1.678406
608.8445, 0.9761350
609.3266, 0.8800660
609.8087, 1.856567
610.2908, 3.007080
610.7729, 3.650024
611.2551, 3.913635
611.7372, 4.179443
612.2193, 4.602905
612.7014, 4.982178
613.1835, 5.203796
613.6656, 5.268250
614.1478, 5.108032
614.6299, 4.707886
615.1120, 4.330688
615.5941, 4.255859
616.0762, 4.482178
616.5583, 4.613281
617.0405, 4.281006
617.5226, 4.343018
618.0047, 5.711792
618.4868, 7.050049
618.9689, 6.724426
619.4510, 4.719177
619.9332, 2.725830
620.4153, 2.245544
620.8974, 2.897705
621.3795, 3.384399
621.8616, 3.719910
622.3438, 3.825928
622.8259, 3.493835
623.3080, 3.087341
623.7901, 3.000061
624.2722, 3.210938
624.7543, 3.905212
625.2365, 5.817505
625.7186, 7.626099
626.2007, 7.826355
626.6828, 6.987122
627.1649, 6.867371
627.6470, 8.218384
628.1292, 10.12604
628.6113, 11.15985
629.0934, 11.20038
629.5755, 10.59607
630.0576, 8.396606
630.5397, 6.875671
631.0219, 7.046387
631.5040, 8.143494
631.9861, 9.180115
632.4682, 9.886902
632.9503, 10.43219
633.4324, 10.95062
633.9146, 11.43561
634.3967, 11.92084
634.8788, 12.44116
635.3609, 12.65973
635.8430, 12.16547
636.3251, 11.23572
636.8073, 10.53351
637.2894, 9.589539
637.7715, 9.356079
638.2536, 10.48712
638.7357, 11.97284
639.2178, 13.34698
639.7000, 14.31622
640.1821, 14.55145
640.6642, 13.81628
641.1463, 12.60352
641.6284, 11.69324
642.1105, 11.00885
642.5927, 11.79083
643.0748, 15.53943
643.5569, 18.59955
644.0390, 18.40961
644.5211, 16.30750
645.0032, 15.10846
645.4854, 15.96973
645.9675, 16.82324
646.4496, 15.79071
646.9317, 13.82806
647.4138, 12.78589
647.8959, 12.92755
648.3781, 13.87689
648.8602, 15.53516
649.3423, 17.60699
649.8244, 18.62524
650.3065, 18.12646
650.7886, 17.20782
651.2708, 15.22833
651.7529, 13.44592
652.2350, 12.85004
652.7171, 13.19159
653.1992, 13.57617
653.6813, 13.50531
654.1635, 13.14142
654.6456, 12.83179
655.1277, 12.58710
655.6098, 12.76086
656.0919, 13.45679
656.5740, 14.51331
657.0562, 16.20581
657.5383, 18.24005
658.0204, 18.81598
658.5025, 16.16797
658.9846, 14.26312
659.4667, 14.88806
659.9489, 16.41815
660.4310, 17.19727
660.9131, 17.10901
661.3952, 16.86444
661.8773, 17.02765
662.3594, 17.38306
662.8416, 17.08405
663.3237, 15.79041
663.8058, 15.09698
664.2879, 15.68378
664.7700, 16.55963
665.2521, 17.26251
665.7343, 17.69031
666.2164, 17.45117
666.6985, 15.55304
667.1806, 14.12549
667.6627, 15.33704
668.1448, 17.91431
668.6270, 19.51166
669.1091, 19.65009
669.5912, 18.94629
670.0733, 17.80133
670.5554, 16.34113
671.0375, 15.48724
671.5197, 15.82880
672.0018, 15.81171
672.4839, 15.21204
672.9660, 14.28778
673.4481, 12.72870
673.9302, 10.95184
674.4124, 10.28259
674.8945, 12.06952
675.3766, 14.16522
675.8587, 13.44214
676.3408, 10.53943
676.8229, 8.451660
677.3051, 7.880310
677.7872, 7.791199
678.2693, 7.254639
678.7514, 6.346985
679.2335, 5.948120
679.7156, 6.157776
680.1978, 6.692505
680.6799, 8.383423
681.1620, 9.740601
681.6441, 9.173218
682.1262, 7.007202
682.6083, 4.753479
683.0905, 3.198547
683.5726, 2.495789
684.0547, 3.378967
684.5368, 5.838196
685.0189, 7.379639
685.5010, 7.389832
685.9832, 6.673950
686.4653, 5.506226
686.9474, 4.107666
687.4295, 3.574707
687.9116, 4.575562
688.3937, 5.564026
688.8759, 6.625244
689.3580, 7.115234
689.8401, 5.565979
690.3222, 2.586670
690.8043, 0.9698490
691.2864, 2.727600
691.7686, 6.281128
692.2507, 7.707397
692.7328, 6.645630
693.2149, 5.808167
693.6970, 5.858826
694.1791, 5.755371
694.6613, 4.517700
695.1434, 2.620789
695.6255, 1.062134
696.1076, 0.1484990
696.5897, 0.7264400
697.0718, 3.8449999E-03
697.5540, 1.099365
698.0361, 1.579834
698.5182, 1.324768
699.0003, 0.4029540
699.4824, 1.225769
699.9645, 3.029114
700.4467, 3.597656
700.9288, 2.563293
701.4109, 1.639832
701.8930, 0.7559200
702.3751, 0.2059330
702.8572, 0.5128780
703.3394, 1.111694
703.8215, 0.9122310
704.3036, 0.5577390
704.7857, 1.795837
705.2678, 1.426636
705.7499, 0.5850830
706.2321, 1.158752
706.7142, 2.934082
707.1963, 3.922180
707.6784, 3.001221
708.1605, 1.289673
708.6426, 1.110413
709.1248, 3.071167
709.6069, 4.393494
710.0890, 4.712708
710.5711, 4.800598
711.0532, 5.029785
711.5353, 5.137024
712.0175, 4.530518
712.4996, 3.043396
712.9817, 2.087952
713.4638, 3.187500
713.9459, 4.952576
714.4280, 5.018250
714.9102, 3.755798
715.3923, 3.678406
715.8744, 5.959656
716.3565, 8.860168
716.8386, 9.764648
717.3207, 8.350647
717.8029, 7.255432
718.2850, 6.878540
718.7671, 6.334106
719.2492, 4.928406
719.7313, 3.579590
720.2134, 3.431885
720.6956, 4.492004
721.1777, 5.389648
721.6598, 4.712158
722.1419, 3.845520
722.6240, 5.151428
723.1061, 7.966431
723.5883, 9.540039
724.0704, 9.090088
724.5525, 7.548950
725.0346, 5.737610
725.5167, 3.678223
725.9988, 2.200012
726.4810, 1.394043
726.9631, 1.069214
727.4452, 1.302246
727.9273, 1.895325
728.4094, 2.838989
728.8915, 4.025208
729.3737, 5.177002
729.8558, 6.316467
730.3379, 7.127502
730.8200, 7.016541
731.3021, 6.299622
731.7842, 6.051392
732.2664, 6.452087
732.7485, 7.076172
733.2306, 7.737427
733.7127, 8.218506
734.1948, 7.530945
734.6769, 4.020935
735.1591, 2.395203
735.6412, 4.127075
736.1233, 6.261658
736.6054, 7.822021
737.0875, 8.580444
737.5696, 8.179565
738.0518, 6.370911
738.5339, 4.204712
739.0160, 1.746887
739.4981, 0.2120970
739.9802, 0.3966060
740.4623, 3.345154
740.9445, 5.664673
741.4266, 5.791504
741.9087, 4.852905
742.3908, 4.964050
742.8729, 6.615112
743.3550, 7.176086
743.8372, 5.501892
744.3193, 4.086182
744.8014, 3.682434
745.2835, 3.819946
745.7656, 4.066589
746.2477, 4.336914
746.7299, 4.515381
747.2120, 4.608459
747.6941, 4.532593
748.1762, 3.800415
748.6583, 2.808960
749.1404, 3.024963
749.6226, 4.844238
750.1047, 6.847168
750.5868, 7.560425
751.0689, 7.102783
751.5510, 6.788452
752.0331, 6.760986
752.5153, 6.615723
752.9974, 6.067139
753.4795, 5.554504
753.9616, 5.615051
754.4437, 5.922485
754.9258, 5.512390
755.4080, 3.444397
755.8901, 1.649780
756.3722, 1.614990
756.8543, 2.595703
757.3364, 3.606689
757.8185, 4.416138
758.3007, 4.971069
758.7828, 5.287109
759.2649, 5.402405
759.7470, 5.310303
760.2291, 4.820984
760.7112, 4.949768
761.1934, 6.338379
761.6755, 7.394226
762.1576, 7.354248
762.6397, 6.556152
763.1218, 5.231079
763.6039, 3.276917
764.0861, 1.927551
764.5682, 1.642395
765.0503, 2.089539
765.5324, 3.735840
766.0145, 5.737549
766.4966, 6.329041
766.9788, 5.120422
767.4609, 3.523621
767.9430, 2.972595
768.4251, 3.252869
768.9072, 3.267639
769.3893, 2.951477
769.8715, 2.671875
770.3536, 2.385498
770.8357, 2.357056
771.3178, 3.298340
771.7999, 4.857239
772.2820, 5.097900
772.7642, 2.195496
773.2463, 0.2624510
773.7284, 0.9890750
774.2105, 2.687256
774.6926, 4.406006
775.1747, 5.717896
775.6569, 5.930298
776.1390, 4.588440
776.6211, 2.733154
777.1032, 1.601807
777.5853, 1.168457
778.0674, 1.592529
778.5496, 3.072693
779.0317, 3.638489
779.5138, 1.881714
779.9959, 0.6563720
780.4780, 1.162781
780.9601, 1.041809
781.4423, 2.581177
781.9244, 3.324768
782.4065, 3.598450
782.8886, 2.998962
783.3707, 2.289246
783.8528, 2.438477
784.3350, 3.430786
784.8171, 4.251343
785.2992, 4.254456
785.7813, 3.796936
786.2634, 3.326355
786.7455, 2.786133
787.2277, 1.628113
787.7098, 0.2023930
788.1919, 0.9726560
788.6740, 0.9486080
789.1561, 4.659912
789.6382, 6.782654
790.1204, 6.567993
790.6025, 6.554199
791.0846, 7.406921
791.5667, 7.856201
792.0488, 7.054321
792.5309, 5.653137
793.0131, 4.386230
793.4952, 3.354431
793.9773, 3.072021
794.4594, 4.761353
794.9415, 6.483398
795.4236, 6.153870
795.9058, 4.418579
796.3879, 2.787720
796.8700, 1.787292
797.3521, 1.413879
797.8342, 1.784180
798.3163, 2.754150
798.7985, 3.718506
799.2806, 4.765015
799.7627, 5.239868
800.2448, 4.741211
800.7269, 4.045227
801.2090, 3.906677
801.6912, 4.161499
802.1733, 3.910950
802.6554, 2.572021
803.1375, 1.641541
803.6196, 1.852234
804.1017, 2.150696
804.5839, 1.483704
805.0660, 0.3633420
805.5481, 9.7473003E-02
806.0302, 1.178040
806.5123, 2.416260
806.9944, 2.544189
807.4766, 1.973022
807.9587, 1.772278
808.4408, 1.978760
808.9229, 1.679749
809.4050, 1.601133
809.8871, 1.436694
810.3693, 1.151489
810.8514, 1.061279
811.3335, 1.145856
811.8156, 0.5831300
812.2977, 1.604126
812.7798, 2.430786
813.2620, 2.997925
813.7441, 2.970154
814.2262, 2.643250
814.7083, 2.892456
815.1904, 4.238525
815.6725, 5.415833
816.1547, 5.542114
816.6368, 5.255188
817.1189, 5.354370
817.6010, 5.721130
818.0831, 5.722412
818.5652, 5.095032
819.0474, 4.292664
819.5295, 3.934204
820.0116, 3.960022
820.4937, 3.826965
820.9758, 3.502991
821.4579, 3.248169
821.9401, 3.184448
822.4222, 3.079163
822.9043, 2.714233
823.3864, 2.121399
823.8685, 1.895752
824.3506, 2.264465
824.8328, 2.670532
825.3149, 3.293152
825.7970, 3.699768
826.2791, 3.364624
826.7612, 2.599548
827.2433, 2.263245
827.7255, 2.754333
828.2076, 3.019592
828.6897, 1.522949
829.1718, 0.4499510
829.6539, 0.4865110
830.1360, 1.120056
830.6182, 2.620728
831.1003, 3.355591
831.5824, 3.291809
832.0645, 2.196411
832.5466, 0.2273560
833.0287, 0.5124510
833.5109, 0.4780270
833.9930, 1.342896
834.4751, 1.470764
834.9572, 1.345215
835.4393, 1.479492
835.9214, 1.760010
836.4036, 1.828674
836.8857, 1.395386
837.3678, 1.277893
837.8499, 2.036072
838.3320, 2.810303
838.8141, 3.032959
839.2963, 2.838257
839.7784, 2.522461
840.2605, 2.159546
840.7426, 2.031128
841.2247, 2.586426
841.7068, 3.460205
842.1890, 4.089661
842.6711, 4.365112
843.1532, 3.990845
843.6353, 2.913940
844.1174, 1.638306
844.5995, 0.4867550
845.0817, 0.3628540
845.5638, 3.5645001E-02
846.0459, 1.749756
846.5280, 3.929260
847.0101, 7.554932
847.4922, 9.999329
847.9744, 9.436584
848.4565, 7.084778
848.9386, 4.345459
849.4207, 1.058716
849.9028, 0.6535030
850.3849, 1.230957
850.8671, 3.306091
851.3492, 3.312134
851.8313, 2.407593
852.3134, 2.406555
852.7955, 3.443909
853.2776, 4.304749
853.7598, 3.792542
854.2419, 2.646484
854.7240, 1.835754
855.2061, 1.398987
855.6882, 1.785889
856.1703, 3.038635
856.6525, 3.822693
857.1346, 3.070190
857.6167, 1.599304
858.0988, 1.163696
858.5809, 2.111084
859.0630, 2.735046
859.5452, 2.881226
860.0273, 2.976501
860.5094, 3.054810
860.9915, 3.218201
861.4736, 3.539307
861.9557, 4.026917
862.4379, 4.711243
862.9200, 6.107544
863.4021, 7.000183
863.8842, 7.170471
864.3663, 6.506165
864.8484, 3.872681
865.3306, 0.4852290
865.8127, 0.6793210
866.2948, 1.497864
866.7769, 4.197449
867.2590, 4.371521
867.7411, 3.173645
868.2233, 3.291443
868.7054, 4.445984
869.1875, 4.481201
869.6696, 2.752441
870.1517, 0.9563600
870.6339, 0.7754520
871.1160, 1.789978
871.5981, 1.977295
872.0802, 0.8350830
872.5623, 0.8063350
873.0444, 3.003540
873.5266, 4.868469
874.0087, 4.400635
874.4908, 2.947754
874.9729, 3.262024
875.4550, 5.887268
875.9371, 7.171082
876.4193, 5.580505
876.9014, 3.807678
877.3835, 2.985596
877.8656, 2.544922
878.3477, 1.571777
878.8298, 0.2583010
879.3120, 0.1636350
879.7941, 1.215820
880.2762, 2.890076
880.7583, 3.119690
881.2404, 2.765015
881.7225, 3.655090
882.2047, 5.566284
882.6868, 6.650024
883.1689, 6.111694
883.6510, 5.103088
884.1331, 5.016418
884.6152, 5.787598
885.0974, 7.271484
885.5795, 9.766785
886.0616, 10.61798
886.5437, 8.716553
887.0258, 6.240967
887.5079, 4.960510
887.9901, 4.580017
888.4722, 3.824280
888.9543, 2.335205
889.4364, 1.160461
889.9185, 0.4591060
890.4006, 0.1077270
890.8828, 1.305298
891.3649, 2.070618
891.8470, 3.101295
892.3291, 4.574012
892.8112, 5.580505
893.2933, 7.113098
893.7755, 7.825806
894.2576, 7.970459
894.7397, 7.577087
895.2218, 6.473633
895.7039, 4.848267
896.1860, 3.098206
896.6682, 1.364380
897.1503, 0.3071900
897.6324, 1.508057
898.1145, 3.869202
898.5966, 3.676880
899.0787, 1.160034
899.5609, 0.4743650
900.0430, 0.2010500
900.5251, 0.8565060
901.0072, 1.721069
901.4893, 2.341675
901.9714, 2.367798
902.4536, 1.510437
902.9357, 1.119995
903.4178, 1.600037
903.8999, 2.137695
904.3820, 2.377502
904.8641, 2.380371
905.3463, 2.102722
905.8284, 1.431519
906.3105, 1.446411
906.7926, 2.948059
907.2747, 4.234253
907.7568, 4.635986
908.2390, 4.750854
908.7211, 5.402832
909.2032, 6.144348
909.6853, 5.247803
910.1674, 1.490234
910.6495, 1.440735
911.1317, 0.2875980
911.6138, 2.335754
912.0959, 4.119751
912.5780, 4.756958
913.0601, 3.524536
913.5422, 3.888238
914.0244, 2.102478
914.5065, 2.655823
914.9886, 1.497498
915.4707, 1.398132
915.9528, 5.536682
916.4349, 7.546509
916.9171, 6.932068
917.3992, 6.126709
917.8813, 6.459595
918.3634, 7.244690
918.8455, 7.188354
919.3276, 8.109519
919.8098, 6.685608
920.2919, 9.664795
920.7740, 11.86346
921.2561, 12.76050
921.7382, 12.34650
922.2203, 9.802551
922.7025, 5.903809
923.1846, 3.643127
923.6667, 3.447266
924.1488, 3.902710
924.6309, 5.928467
925.1130, 7.226624
925.5952, 5.791992
926.0773, 3.668579
926.5594, 3.489563
927.0415, 5.308411
927.5236, 6.828003
928.0057, 7.002930
928.4879, 6.702026
928.9700, 6.372498
929.4521, 5.961914
929.9342, 5.088013
930.4163, 4.109863
930.8984, 3.992432
931.3806, 5.073303
931.8627, 6.684387
932.3448, 8.616821
932.8269, 10.35138
933.3090, 10.46411
933.7911, 9.363586
934.2733, 9.067139
934.7554, 9.884705
935.2375, 9.736023
935.7196, 7.019775
936.2017, 3.459290
936.6838, 3.209778
937.1660, 6.536804
937.6481, 7.361450
938.1302, 4.875549
938.6123, 3.227295
939.0944, 3.919739
939.5765, 5.771912
940.0587, 7.721069
940.5408, 9.664673
941.0229, 10.62500
941.5050, 10.11761
941.9871, 9.515503
942.4692, 8.518372
942.9514, 7.815674
943.4335, 7.835449
943.9156, 8.213074
944.3977, 8.566528
944.8798, 8.860657
945.3619, 8.937317
945.8441, 8.382080
946.3262, 8.229858
946.8083, 9.183777
947.2904, 9.952148
947.7725, 9.174622
948.2546, 7.650757
948.7368, 7.077271
949.2189, 7.859802
949.7010, 8.803162
950.1831, 8.804565
950.6652, 8.511597
951.1473, 8.828674
951.6295, 9.339355
952.1116, 9.021362
952.5937, 7.982178
953.0758, 7.469055
953.5579, 8.227966
954.0400, 9.530823
954.5222, 10.80566
955.0043, 11.72284
955.4864, 11.06268
955.9685, 9.008179
956.4506, 7.221558
956.9327, 6.190613
957.4149, 5.410767
957.8970, 4.499268
958.3791, 3.781677
958.8612, 4.467834
959.3433, 6.728699
959.8254, 7.490173
960.3076, 6.153992
960.7897, 4.989441
961.2718, 4.803711
961.7539, 5.662598
962.2360, 8.095703
962.7181, 11.94525
963.2003, 13.20398
963.6824, 10.13226
964.1645, 8.081116
964.6466, 8.507751
965.1287, 8.868530
965.6108, 7.227234
966.0930, 4.967102
966.5751, 4.196411
967.0572, 5.072571
967.5393, 6.163147
968.0214, 7.693420
968.5035, 8.779541
968.9857, 9.468201
969.4678, 9.790283
969.9499, 9.838379
970.4320, 9.457397
970.9141, 7.888550
971.3962, 4.638977
971.8784, 2.768860
972.3605, 5.644470
972.8426, 8.708313
973.3247, 8.480652
973.8068, 6.668335
974.2889, 5.324402
974.7711, 4.852539
975.2532, 5.377197
975.7353, 7.196411
976.2174, 8.334778
976.6995, 6.150513
977.1816, 2.801331
977.6638, 1.245605
978.1459, 1.101196
978.6280, 1.090942
979.1101, 0.9445190
979.5922, 1.208862
980.0743, 2.349792
980.5565, 3.725708
981.0386, 4.457031
981.5207, 4.529358
982.0028, 3.548889
982.4849, 1.669128
982.9670, 0.1990970
983.4492, 0.4187010
983.9313, 0.1480710
984.4134, 1.204834
984.8955, 3.166443
985.3776, 4.143250
985.8597, 4.097046
986.3419, 4.265930
986.8240, 4.806702
987.3061, 5.052917
987.7882, 5.268847
988.2703, 4.202759
988.7524, 5.484619
989.2346, 5.038373
989.7167, 4.741861
990.1988, 5.613708
990.6809, 3.908203
991.1630, 4.416626
991.6451, 4.868652
992.1273, 3.868958
992.6094, 2.401184
993.0915, 1.810364
993.5736, 2.090759
994.0557, 3.312256
994.5378, 7.740173
995.0200, 9.734131
995.5021, 7.007080
995.9842, 3.596863
996.4663, 0.7957760
996.9484, 0.9095460
997.4305, 0.2990720
997.9127, 2.971985
998.3948, 4.949341
998.8769, 4.058411
999.3590, 3.036865
999.8411, 2.682190
1000.323, 2.547119
1000.805, 2.232056
1001.287, 1.867249
1001.770, 1.991150
1002.252, 2.788879
1002.734, 2.752197
1003.216, 7.1594000E-02
1003.698, 2.233032
1004.180, 1.645935
1004.662, 0.3022460
1005.144, 1.170837
1005.627, 3.345215
1006.109, 3.358337
1006.591, 0.1128540
1007.073, 3.276611
1007.555, 2.757751
1008.037, 1.420349
1008.519, 2.481812
1009.001, 4.374268
1009.483, 4.151672
1009.966, 2.073608
1010.448, 0.5634160
1010.930, 0.7664790
1011.412, 1.762634
1011.894, 3.326111
1012.376, 4.621948
1012.858, 3.698547
1013.340, 1.571838
1013.823, 0.9695430
1014.305, 2.168335
1014.787, 3.699829
1015.269, 4.747070
1015.751, 5.362671
1016.233, 5.192749
1016.715, 4.759460
1017.197, 6.207947
1017.679, 8.901611
1018.162, 9.250549
1018.644, 6.672424
1019.126, 4.285828
1019.608, 4.176331
1020.090, 5.327881
1020.572, 5.998230
1021.054, 6.319336
1021.536, 7.678589
1022.018, 9.996155
1022.501, 10.67603
1022.983, 9.025269
1023.465, 6.690186
1023.947, 4.685364
1024.429, 3.450439
1024.911, 4.302551
1025.393, 7.310059
1025.875, 9.124512
1026.358, 9.691650
1026.840, 9.406372
1027.322, 8.225037
1027.804, 6.860840
1028.286, 5.828247
1028.768, 5.065735
1029.250, 4.224976
1029.732, 3.046814
1030.214, 4.181519
1030.697, 8.703857
1031.179, 11.79718
1031.661, 12.04071
1032.143, 10.87244
1032.625, 9.130615
1033.107, 7.055542
1033.589, 5.226440
1034.071, 3.350769
1034.553, 3.103638
1035.036, 5.103699
1035.518, 7.507019
1036.000, 10.79224
1036.482, 12.89288
1036.964, 11.40430
1037.446, 7.783997
1037.928, 6.498047
1038.410, 8.626709
1038.893, 9.259155
1039.375, 7.075989
1039.857, 5.512024
1040.339, 5.561035
1040.821, 6.309143
1041.303, 7.577576
1041.785, 8.963562
1042.267, 9.027527
1042.750, 7.118713
1043.232, 5.878723
1043.714, 5.437988
1044.196, 5.543884
1044.678, 6.905457
1045.160, 8.066101
1045.642, 7.207458
1046.124, 5.540161
1046.606, 6.095581
1047.089, 9.881714
1047.571, 12.08759
1048.053, 10.27271
1048.535, 9.473816
1049.017, 12.77917
1049.499, 15.92322
1049.981, 14.98364
1050.463, 11.54584
1050.945, 9.437256
1051.428, 9.342102
1051.910, 8.903076
1052.392, 6.869202
1052.874, 5.535034
1053.356, 6.003052
1053.838, 7.098694
1054.320, 8.224548
1054.802, 9.125305
1055.285, 9.743469
1055.767, 10.06482
1056.249, 9.668091
1056.731, 6.965149
1057.213, 5.587280
1057.695, 8.117126
1058.177, 11.02692
1058.659, 11.57642
1059.141, 10.49945
1059.624, 9.346313
1060.106, 8.408752
1060.588, 7.889648
1061.070, 7.928528
1061.552, 8.164001
1062.034, 8.953552
1062.516, 9.989075
1062.998, 10.90558
1063.480, 11.44702
1063.963, 11.18793
1064.445, 10.29041
1064.927, 9.408142
1065.409, 8.883423
1065.891, 8.392029
1066.373, 7.431702
1066.855, 6.817871
1067.337, 7.469971
1067.820, 8.747620
1068.302, 9.723755
1068.784, 10.22668
1069.266, 10.36011
1069.748, 9.776367
1070.230, 9.499878
1070.712, 9.896301
1071.194, 10.85394
1071.677, 13.31622
1072.159, 15.70538
1072.641, 15.40417
1073.123, 12.58435
1073.605, 10.14642
1074.087, 9.024780
1074.569, 8.711792
1075.051, 9.401489
1075.533, 10.36920
1076.016, 11.48096
1076.498, 12.31305
1076.980, 12.16241
1077.462, 11.21906
1077.944, 10.56573
1078.426, 10.78021
1078.908, 10.54028
1079.390, 8.349304
1079.873, 6.487244
1080.355, 7.259644
1080.837, 8.634460
1081.319, 7.654175
1081.801, 5.071777
1082.283, 4.263855
1082.765, 6.593994
1083.247, 8.207458
1083.729, 5.836670
1084.212, 4.059387
1084.694, 7.356079
1085.176, 11.10486
1085.658, 9.542664
1086.140, 4.611145
1086.622, 1.723938
1087.104, 2.183289
1087.586, 4.229431
1088.068, 9.342407
1088.551, 13.02862
1089.033, 12.04968
1089.515, 9.600281
1089.997, 8.062866
1090.479, 7.365662
1090.961, 6.860535
1091.443, 6.437927
1091.925, 6.473999
1092.408, 7.770996
1092.890, 8.654907
1093.372, 8.389893
1093.854, 7.550293
1094.336, 6.244324
1094.818, 4.808044
1095.300, 3.467102
1095.782, 2.359985
1096.265, 2.074951
1096.747, 3.166687
1097.229, 4.350342
1097.711, 6.132996
1098.193, 6.829224
1098.675, 4.399048
1099.157, 1.078857
1099.639, 0.6920170
1100.121, 0.8864140
1100.604, 0.4531860
1101.086, 0.7094730
1101.568, 1.529785
1102.050, 1.860107
1102.532, 1.615906
1103.014, 1.740578
1103.496, 1.598511
1103.978, 1.404053
1104.460, 1.342902
1104.943, 0.3146360
1105.425, 0.6791990
1105.907, 1.052979
1106.389, 2.6733000E-02
1106.871, 1.125671
1107.353, 1.796326
1107.835, 2.383423
1108.317, 3.477783
1108.800, 4.502014
1109.282, 4.158081
1109.764, 2.285583
1110.246, 1.335693
1110.728, 2.030273
1111.210, 2.915894
1111.692, 4.325684
1112.174, 5.283264
1112.656, 5.488525
1113.139, 4.889709
1113.621, 2.899292
1114.103, 2.746636
1114.585, 1.934814
1115.067, 1.292542
1115.549, 0.8182980
1116.031, 0.7769170
1116.513, 0.5284420
1116.995, 0.1378170
1117.478, 1.104309
1117.960, 2.878174
1118.442, 4.719421
1118.924, 3.901428
1119.406, 1.121338
1119.888, 2.477661
1120.370, 2.203064
1120.852, 5.580261
1121.335, 5.709167
1121.817, 4.839478
1122.299, 3.972046
1122.781, 3.532715
1123.263, 4.495850
1123.745, 6.904114
1124.227, 8.359070
1124.709, 8.823059
1125.192, 8.355225
1125.674, 6.665649
1126.156, 4.843201
1126.638, 3.181885
1127.120, 2.129639
1127.602, 2.302246
1128.084, 3.483948
1128.566, 4.797058
1129.048, 6.370361
1129.531, 6.748230
1130.013, 5.685608
1130.495, 4.817017
1130.977, 4.677307
1131.459, 4.709778
1131.941, 4.435059
1132.423, 4.132996
1132.905, 4.734802
1133.387, 6.090698
1133.870, 5.253357
1134.352, 2.354004
1134.834, 1.202759
1135.316, 2.520264
1135.798, 4.643127
1136.280, 6.745728
1136.762, 7.930969
1137.244, 6.620972
1137.727, 3.885864
1138.209, 3.204224
1138.691, 4.015503
1139.173, 3.441284
1139.655, 1.677185
1140.137, 2.277771
1140.619, 6.214905
1141.101, 9.351318
1141.583, 8.023682
1142.066, 5.028564
1142.548, 4.803894
1143.030, 5.974915
1143.512, 5.556030
1143.994, 4.118530
1144.476, 3.553650
1144.958, 4.158630
1145.440, 5.229675
1145.922, 6.430664
1146.405, 7.775024
1146.887, 10.04504
1147.369, 11.73669
1147.851, 10.42902
1148.333, 7.869385
1148.815, 6.596252
1149.297, 6.475403
1149.779, 6.492554
1150.262, 6.300720
1150.744, 5.576233
1151.226, 3.297913
1151.708, 1.845825
1152.190, 3.694519
1152.672, 6.082703
1153.154, 6.666931
1153.636, 6.256714
1154.119, 6.289673
1154.601, 6.755066
1155.083, 6.531921
1155.565, 4.875793
1156.047, 4.073853
1156.529, 5.686218
1157.011, 7.258057
1157.493, 8.198242
1157.975, 8.170166
1158.458, 5.932068
1158.940, 2.894592
1159.422, 2.209534
1159.904, 4.361877
1160.386, 5.465515
1160.868, 3.864258
1161.350, 3.180420
1161.832, 4.392639
1162.314, 6.086914
1162.797, 8.617615
1163.279, 10.26123
1163.761, 8.632935
1164.243, 4.714966
1164.725, 3.132324
1165.207, 4.716370
1165.689, 5.977905
1166.171, 6.938049
1166.654, 7.467529
1167.136, 7.332703
1167.618, 7.505554
1168.100, 8.938721
1168.582, 10.25165
1169.064, 8.734070
1169.546, 9.031332
1170.028, 8.020616
1170.510, 6.070313
1170.993, 5.527039
1171.475, 1.672546
1171.957, 8.2092002E-02
1172.439, 2.845947
1172.921, 6.217407
1173.403, 6.647888
1173.885, 5.538879
1174.367, 5.805054
1174.849, 6.923340
1175.332, 6.913879
1175.814, 6.063110
1176.296, 5.590515
1176.778, 5.816895
1177.260, 6.846436
1177.742, 8.740845
1178.224, 10.54749
1178.706, 11.04449
1179.189, 10.81598
1179.671, 10.44110
1180.153, 9.935486
1180.635, 9.324951
1181.117, 8.620667
1181.599, 7.644409
1182.081, 6.522461
1182.563, 6.129944
1183.046, 7.227783
1183.528, 7.959656
1184.010, 6.755920
1184.492, 5.358032
1184.974, 4.593933
1185.456, 4.571411
1185.938, 5.745056
1186.420, 7.567810
1186.902, 9.036438
1187.385, 9.933411
1187.867, 9.219177
1188.349, 3.886536
1188.831, 1.173889
1189.313, 4.631714
1189.795, 8.314148
1190.277, 9.173462
1190.759, 9.046692
1191.241, 9.795471
1191.724, 11.11823
1192.206, 11.94897
1192.688, 12.58240
1193.170, 11.14154
1193.652, 6.266052
1194.134, 3.659607
1194.616, 4.914551
1195.098, 7.244995
1195.581, 9.370117
1196.063, 10.69702
1196.545, 10.37628
1197.027, 8.744202
1197.509, 7.068787
1197.991, 5.374756
1198.473, 3.773438
1198.955, 2.366150
1199.438, 2.774841
1199.920, 5.298401
1200.402, 7.647278
1200.884, 8.273865
1201.366, 8.131897
1201.848, 8.535034
1202.330, 9.012268
1202.812, 8.498962
1203.294, 7.444824
1203.776, 6.576660
1204.259, 6.083130
1204.741, 6.351196
1205.223, 7.336304
1205.705, 7.934937
1206.187, 7.402283
1206.669, 6.632690
1207.151, 6.363831
1207.633, 5.979919
1208.116, 4.240295
1208.598, 2.708923
1209.080, 4.030396
1209.562, 6.942932
1210.044, 7.453369
1210.526, 4.593628
1211.008, 3.189575
1211.490, 6.010620
1211.973, 7.534668
1212.455, 5.614014
1212.937, 3.573669
1213.419, 2.542603
1213.901, 2.372437
1214.383, 3.224060
1214.865, 4.702209
1215.347, 5.490173
1215.829, 5.561829
1216.312, 4.969116
1216.794, 3.433289
1217.276, 2.904175
1217.758, 3.974609
1218.240, 4.288452
1218.722, 2.549316
1219.204, 0.7566530
1219.686, 1.384033
1220.168, 3.078247
1220.651, 1.757141
1221.133, 1.486328
1221.615, 2.187744
1222.097, 0.5980220
1222.579, 1.972046
1223.061, 4.829224
1223.543, 5.972412
1224.025, 4.499634
1224.508, 2.755920
1224.990, 2.629272
1225.472, 3.404907
1225.954, 5.261780
1226.436, 6.844910
1226.918, 5.779175
1227.400, 3.739563
1227.882, 4.125061
1228.365, 6.611267
1228.847, 7.508606
1229.329, 5.245056
1229.811, 3.314209
1230.293, 2.630005
1230.775, 2.492004
1231.257, 3.088867
1231.739, 3.708557
1232.221, 4.333679
1232.703, 4.400635
1233.186, 2.764832
1233.668, 0.1545410
1234.150, 1.537415
1234.632, 1.074280
1235.114, 0.1246950
1235.596, 1.545654
1236.078, 2.420959
1236.560, 2.019043
1237.043, 1.757690
1237.525, 2.498474
1238.007, 3.507324
1238.489, 3.856079
1238.971, 3.711975
1239.453, 3.538940
1239.935, 3.266968
1240.417, 2.514954
1240.900, 1.452881
1241.382, 0.7603150
1241.864, 0.5089720
1242.346, 0.2305910
1242.828, 0.3082280
1243.310, 0.7797850
1243.792, 1.362610
1244.274, 1.249512
1244.756, 1.154846
1245.239, 1.838453
1245.721, 1.806318
1246.203, 2.864746
1246.685, 2.408325
1247.167, 2.638123
1247.649, 3.068848
1248.131, 3.772400
1248.613, 4.158325
1249.095, 3.934448
1249.578, 3.712219
1250.060, 3.505737
1250.542, 3.510376
1251.024, 3.326879
1251.506, 3.466218
1251.988, 3.168518
1252.470, 3.544669
1252.952, 3.582654
1253.435, 3.106812
1253.917, 3.879089
1254.399, 4.128845
1254.881, 3.707947
1255.363, 2.615906
1255.845, 2.329834
1256.327, 3.519043
1256.809, 4.983887
1257.292, 5.537720
1257.774, 5.871277
1258.256, 6.763062
1258.738, 8.161438
1259.220, 10.58569
1259.702, 13.12659
1260.184, 13.96252
1260.666, 13.54114
1261.148, 12.68793
1261.630, 11.19830
1262.113, 9.516296
1262.595, 6.587463
1263.077, 5.242859
1263.559, 7.766785
1264.041, 10.08319
1264.523, 10.20844
1265.005, 8.946228
1265.487, 7.325989
1265.970, 6.104431
1266.452, 6.238708
1266.934, 7.802551
1267.416, 8.410583
1267.898, 7.931946
1268.380, 7.007507
1268.862, 5.659973
1269.344, 5.425110
1269.827, 6.985596
1270.309, 7.691406
1270.791, 5.128174
1271.273, 6.237745
1271.755, 2.818176
1272.237, 5.313904
1272.719, 5.612671
1273.201, 4.655945
1273.683, 3.464172
1274.166, 2.696899
1274.648, 3.862305
1275.130, 6.778198
1275.612, 9.126038
1276.094, 10.07355
1276.576, 10.21179
1277.058, 9.420105
1277.540, 8.358337
1278.022, 7.332947
1278.505, 6.064941
1278.987, 3.974365
1279.469, 1.865601
1279.951, 0.4215090
1280.433, 0.2247920
1280.915, 0.7789310
1281.397, 3.987610
1281.879, 5.320862
1282.362, 4.612183
1282.844, 3.750427
1283.326, 2.430359
1283.808, 1.503784
1284.290, 0.4183960
1284.772, 8.1789996E-03
1285.254, 0.4183350
1285.736, 0.0000000E+00
##END=



