##NAMES=Bismuth
##RRUFFID=R070375
##IDEAL CHEMISTRY=Bi
##LOCALITY=Frontier mine, South Lorrain, Timiskaming District, Ontario, Canada
##OWNER=RRUFF
##SOURCE=Royal Ontario Museum
##DESCRIPTION=Silver-white tarnished to grey cleavage fragments
##STATUS=The identification of this mineral has been confirmed by X-ray diffraction.
##URL=rruff.info/R070375
133.2699, 0.0000000E+00
133.7520, 0.1475830
134.2341, 0.5177310
134.7162, 1.911011
135.1983, 6.132690
135.6804, 14.37476
136.1626, 26.69400
136.6447, 41.66251
137.1268, 56.13297
137.6089, 68.78705
138.0910, 84.52203
138.5731, 109.5610
139.0553, 149.9794
139.5374, 171.5767
140.0195, 167.8900
140.5016, 144.4794
140.9837, 121.8759
141.4658, 97.92886
141.9480, 77.78223
142.4301, 65.30109
142.9122, 62.44037
143.3943, 63.35681
143.8764, 69.78729
144.3585, 81.42474
144.8407, 85.82156
145.3228, 77.81836
145.8049, 66.43579
146.2870, 60.33389
146.7691, 65.41998
147.2512, 68.07767
147.7334, 64.58368
148.2155, 52.58212
148.6976, 44.87943
149.1797, 42.64005
149.6618, 44.37598
150.1439, 48.09262
150.6261, 56.86859
151.1082, 64.81033
151.5903, 69.63971
152.0724, 68.07812
152.5545, 70.65564
153.0366, 81.50354
153.5188, 96.86435
154.0009, 109.3001
154.4830, 119.2529
154.9651, 125.0799
155.4472, 126.2032
155.9293, 122.4503
156.4115, 114.2076
156.8936, 95.91504
157.3757, 71.72852
157.8578, 55.70453
158.3399, 57.16739
158.8221, 65.02954
159.3042, 72.09003
159.7863, 79.47516
160.2684, 83.02853
160.7505, 76.77048
161.2326, 62.59241
161.7148, 55.76520
162.1969, 71.66077
162.6790, 94.58743
163.1611, 109.2551
163.6432, 104.7477
164.1253, 95.58075
164.6075, 87.82776
165.0896, 81.64398
165.5717, 78.31958
166.0538, 80.11981
166.5359, 84.98401
167.0180, 89.94403
167.5002, 92.69611
167.9823, 95.80090
168.4644, 100.9380
168.9465, 108.1855
169.4286, 117.7753
169.9107, 132.9507
170.3929, 150.6783
170.8750, 164.9534
171.3571, 173.5284
171.8392, 176.5792
172.3213, 172.4476
172.8034, 158.8773
173.2856, 145.0399
173.7677, 139.7720
174.2498, 141.5181
174.7319, 144.9950
175.2140, 148.8026
175.6961, 151.9093
176.1783, 151.8106
176.6604, 145.9790
177.1425, 140.5617
177.6246, 144.8447
178.1067, 158.9365
178.5888, 171.8834
179.0710, 181.4086
179.5531, 187.6863
180.0352, 190.6179
180.5173, 188.7964
180.9994, 184.0685
181.4815, 176.5101
181.9637, 164.9661
182.4458, 157.3549
182.9279, 165.2212
183.4100, 184.9116
183.8921, 202.8155
184.3742, 215.2780
184.8564, 223.4328
185.3385, 230.9290
185.8206, 238.4582
186.3027, 241.4954
186.7848, 233.8912
187.2669, 216.8890
187.7491, 200.4890
188.2312, 185.6114
188.7133, 173.1235
189.1954, 163.5577
189.6775, 157.2234
190.1596, 153.3329
190.6418, 151.4203
191.1239, 149.1265
191.6060, 144.4800
192.0881, 133.3593
192.5702, 117.1506
193.0524, 109.6725
193.5345, 112.8895
194.0166, 119.7231
194.4987, 118.9335
194.9808, 110.4144
195.4629, 101.5095
195.9451, 95.99500
196.4272, 93.61224
196.9093, 88.99005
197.3914, 80.83069
197.8735, 72.54321
198.3556, 71.66602
198.8378, 79.36560
199.3199, 86.85464
199.8020, 88.99554
200.2841, 85.41473
200.7662, 82.75967
201.2483, 81.85141
201.7305, 81.45038
202.2126, 78.44739
202.6947, 72.07388
203.1768, 65.85782
203.6589, 62.43286
204.1410, 62.46674
204.6232, 60.79565
205.1053, 56.85410
205.5874, 50.96722
206.0695, 43.88614
206.5516, 35.14606
207.0337, 26.43094
207.5159, 18.06274
207.9980, 9.399963
208.4801, 5.339233
208.9622, 8.366974
209.4443, 16.42737
209.9264, 18.61908
210.4086, 12.39914
210.8907, 5.400940
211.3728, 4.097565
211.8549, 10.48550
212.3370, 15.77554
212.8191, 18.78394
213.3013, 19.65475
213.7834, 19.64096
214.2655, 18.46640
214.7476, 16.84241
215.2297, 15.22748
215.7118, 13.28168
216.1940, 12.26672
216.6761, 12.57864
217.1582, 14.15750
217.6403, 15.81546
218.1224, 17.79434
218.6045, 19.51263
219.0867, 20.57547
219.5688, 21.39014
220.0509, 20.54422
220.5330, 17.67752
221.0151, 12.72897
221.4972, 5.881897
221.9794, 6.450012
222.4615, 16.76306
222.9436, 15.38641
223.4257, 6.131256
223.9078, 21.84116
224.3899, 24.15179
224.8721, 11.80234
225.3542, 2.848267
225.8363, 2.554657
226.3184, 4.803192
226.8005, 3.612213
227.2827, 4.395203
227.7648, 9.257385
228.2469, 7.286377
228.7290, 2.878510
229.2111, 9.223175
229.6932, 10.92343
230.1754, 9.401428
230.6575, 5.983215
231.1396, 1.367828
231.6217, 6.902100
232.1038, 8.240448
232.5859, 4.017670
233.0681, 3.381104
233.5502, 9.239594
234.0323, 16.59579
234.5144, 17.41623
234.9965, 6.152679
235.4786, 2.169250
235.9608, 1.498199
236.4429, 11.53937
236.9250, 17.43143
237.4071, 12.13773
237.8892, 2.152344
238.3713, 2.002686
238.8535, 2.862793
239.3356, 8.329773
239.8177, 12.35901
240.2998, 14.75681
240.7819, 13.49582
241.2640, 4.073059
241.7462, 6.119232
242.2283, 2.547821
242.7104, 26.96118
243.1925, 50.02811
243.6746, 53.80450
244.1567, 30.23877
244.6389, 15.20715
245.1210, 12.67801
245.6031, 16.31161
246.0852, 14.53650
246.5673, 2.849060
247.0494, 6.788818
247.5316, 9.937805
248.0137, 5.027954
248.4958, 1.609283
248.9779, 12.00787
249.4600, 22.99588
249.9421, 28.40472
250.4243, 26.91245
250.9064, 22.26202
251.3885, 14.86252
251.8706, 2.631805
252.3527, 5.357819
252.8348, 8.223724
253.3170, 7.449890
253.7991, 5.313660
254.2812, 0.7992550
254.7633, 3.095703
255.2454, 5.048737
255.7275, 4.371033
256.2097, 4.449158
256.6918, 6.221832
257.1739, 8.111572
257.6560, 6.500488
258.1381, 1.194489
258.6202, 7.071381
259.1024, 8.064087
259.5845, 3.367126
260.0666, 3.945557
260.5487, 14.57620
261.0308, 25.78613
261.5129, 32.34485
261.9951, 33.26981
262.4772, 31.72339
262.9593, 28.10410
263.4414, 21.33374
263.9235, 17.59796
264.4056, 17.47684
264.8878, 19.82037
265.3699, 23.11722
265.8520, 28.21176
266.3341, 31.92896
266.8162, 33.12802
267.2983, 31.70798
267.7805, 27.69229
268.2626, 19.26288
268.7447, 10.30676
269.2268, 8.118225
269.7089, 14.23993
270.1910, 21.62988
270.6732, 28.89618
271.1553, 36.53363
271.6374, 37.79190
272.1195, 30.65884
272.6016, 20.04681
273.0837, 13.72116
273.5659, 11.93271
274.0480, 12.94220
274.5301, 17.59155
275.0122, 26.12466
275.4943, 29.96350
275.9764, 28.05063
276.4586, 23.43164
276.9407, 19.93280
277.4228, 17.47351
277.9049, 17.16336
278.3870, 20.60779
278.8691, 27.53745
279.3513, 31.51135
279.8334, 31.82974
280.3155, 29.86917
280.7976, 28.39853
281.2798, 28.08322
281.7619, 27.52979
282.2440, 26.09610
282.7261, 24.03336
283.2082, 23.82602
283.6903, 25.95410
284.1725, 27.75735
284.6546, 24.69193
285.1367, 17.14340
285.6188, 12.22763
286.1009, 13.80045
286.5830, 20.09134
287.0652, 24.16260
287.5473, 26.21112
288.0294, 26.43576
288.5115, 23.77457
288.9936, 18.79996
289.4757, 15.06100
289.9579, 13.72391
290.4400, 14.54584
290.9221, 18.02695
291.4042, 24.47479
291.8863, 29.73138
292.3684, 27.96545
292.8506, 20.84705
293.3327, 15.49326
293.8148, 15.02365
294.2969, 17.57794
294.7790, 20.36935
295.2611, 23.40109
295.7433, 24.06699
296.2254, 16.93970
296.7075, 5.439789
297.1896, 1.488678
297.6717, 0.7139590
298.1538, 6.947998
298.6360, 9.503235
299.1181, 8.672913
299.6002, 7.217712
300.0823, 8.256714
300.5644, 11.11752
301.0465, 14.54129
301.5287, 19.78186
302.0108, 23.57117
302.4929, 20.40811
302.9750, 11.44247
303.4571, 3.456726
303.9392, 1.125336
304.4214, 2.412750
304.9035, 4.289490
305.3856, 7.012177
305.8677, 10.06577
306.3498, 12.05865
306.8319, 13.21667
307.3141, 15.31784
307.7962, 23.11322
308.2783, 30.65482
308.7604, 30.93784
309.2425, 18.84375
309.7246, 7.404053
310.2068, 6.097992
310.6889, 12.05917
311.1710, 17.33466
311.6531, 15.91861
312.1352, 13.84238
312.6173, 16.26303
313.0995, 26.04056
313.5816, 33.69183
314.0637, 32.31250
314.5458, 25.96912
315.0279, 22.22568
315.5100, 30.57809
315.9922, 36.97775
316.4743, 31.10184
316.9564, 7.415466
317.4385, 8.488556
317.9206, 1.276825
318.4027, 17.04416
318.8849, 29.60736
319.3670, 27.68243
319.8491, 23.21823
320.3312, 20.12506
320.8133, 18.75348
321.2954, 18.43970
321.7776, 20.00470
322.2597, 22.18878
322.7418, 23.64902
323.2239, 24.77817
323.7060, 24.58209
324.1881, 22.11707
324.6703, 17.59268
325.1524, 14.39459
325.6345, 12.12048
326.1166, 11.42542
326.5987, 12.59204
327.0808, 20.62967
327.5630, 24.56058
328.0451, 19.83713
328.5272, 7.178497
329.0093, 2.695160
329.4914, 13.85535
329.9735, 26.49771
330.4557, 30.85519
330.9378, 19.09924
331.4199, 12.87906
331.9020, 15.98178
332.3841, 26.24051
332.8662, 33.43109
333.3484, 37.94034
333.8305, 38.68823
334.3126, 33.73230
334.7947, 19.54156
335.2768, 10.90045
335.7589, 9.757843
336.2411, 13.90964
336.7232, 18.33331
337.2053, 23.46161
337.6874, 27.50204
338.1695, 29.54971
338.6516, 29.45605
339.1338, 28.30426
339.6159, 25.72864
340.0980, 22.72101
340.5801, 20.77924
341.0622, 19.86108
341.5443, 20.30151
342.0265, 23.83887
342.5086, 29.68918
342.9907, 29.40112
343.4728, 21.66428
343.9549, 12.94247
344.4370, 12.34494
344.9192, 19.01169
345.4013, 24.71744
345.8834, 25.74863
346.3655, 23.93231
346.8476, 24.90619
347.3297, 28.81888
347.8119, 31.45895
348.2940, 26.43454
348.7761, 16.17194
349.2582, 9.477264
349.7403, 10.50290
350.2225, 15.26590
350.7046, 19.04385
351.1867, 21.81299
351.6688, 23.12396
352.1509, 20.61548
352.6331, 16.97015
353.1152, 16.91006
353.5973, 23.76810
354.0794, 30.13934
354.5615, 27.39090
355.0436, 17.99286
355.5258, 10.60541
356.0079, 11.68164
356.4900, 15.60056
356.9721, 17.16559
357.4542, 14.55875
357.9363, 13.09583
358.4185, 16.75931
358.9006, 23.44940
359.3827, 29.56332
359.8648, 35.62515
360.3469, 39.21976
360.8290, 38.08304
361.3112, 31.16492
361.7933, 24.96811
362.2754, 20.50806
362.7575, 18.37286
363.2396, 19.17966
363.7217, 27.48917
364.2039, 34.22968
364.6860, 36.30197
365.1681, 33.60693
365.6502, 31.55380
366.1323, 32.45148
366.6144, 33.15213
367.0966, 31.44992
367.5787, 23.54102
368.0608, 17.84076
368.5429, 15.78876
369.0250, 16.64493
369.5071, 16.62531
369.9893, 14.06302
370.4714, 12.54877
370.9535, 14.35013
371.4356, 21.25317
371.9177, 27.13321
372.3998, 32.74689
372.8820, 36.77408
373.3641, 36.11694
373.8462, 29.50845
374.3283, 21.50485
374.8104, 12.61539
375.2925, 1.585052
375.7747, 2.021759
376.2568, 2.963776
376.7389, 11.87183
377.2210, 19.06760
377.7031, 24.50317
378.1852, 28.93256
378.6674, 32.86172
379.1495, 35.97134
379.6316, 37.70477
380.1137, 38.28311
380.5958, 35.35999
381.0779, 22.86105
381.5601, 3.461212
382.0422, 8.428741
382.5243, 8.079163
383.0064, 0.9373470
383.4885, 5.338165
383.9706, 10.79840
384.4528, 14.63593
384.9349, 15.20294
385.4170, 14.09436
385.8991, 14.36142
386.3812, 17.08948
386.8633, 19.14575
387.3455, 16.29367
387.8276, 10.49518
388.3097, 6.217407
388.7918, 6.951050
389.2739, 9.369324
389.7560, 10.84189
390.2382, 11.08914
390.7203, 11.32791
391.2024, 12.45245
391.6845, 13.84638
392.1666, 14.81076
392.6487, 15.57281
393.1309, 15.41763
393.6130, 13.16702
394.0951, 9.118317
394.5772, 6.698792
395.0593, 7.396759
395.5414, 9.603394
396.0236, 12.32367
396.5057, 18.52017
396.9878, 21.55075
397.4699, 17.90018
397.9520, 10.23047
398.4341, 7.018585
398.9163, 13.17303
399.3984, 18.68933
399.8805, 19.46283
400.3626, 12.85709
400.8447, 9.499573
401.3268, 11.01892
401.8090, 14.58829
402.2911, 16.32162
402.7732, 15.87534
403.2553, 14.46149
403.7374, 12.40277
404.2195, 9.680176
404.7017, 5.072449
405.1838, 2.787567
405.6659, 8.689850
406.1480, 6.434021
406.6301, 4.076599
407.1122, 10.92630
407.5944, 10.92209
408.0765, 7.087891
408.5586, 7.009796
409.0407, 10.60583
409.5228, 13.73318
410.0049, 12.73590
410.4871, 9.118652
410.9692, 7.037323
411.4513, 6.964203
411.9334, 8.218781
412.4155, 11.14554
412.8976, 14.95889
413.3798, 17.31506
413.8619, 15.07867
414.3440, 12.09424
414.8261, 12.76559
415.3082, 17.18213
415.7903, 22.03122
416.2725, 26.94284
416.7546, 30.44092
417.2367, 30.75482
417.7188, 22.63379
418.2009, 16.37106
418.6830, 18.72034
419.1652, 27.39761
419.6473, 33.93866
420.1294, 35.57675
420.6115, 34.34192
421.0937, 30.45517
421.5758, 20.44769
422.0579, 15.55289
422.5400, 23.60397
423.0221, 36.30688
423.5042, 40.08090
423.9864, 24.71881
424.4685, 11.35571
424.9506, 4.611938
425.4327, 4.970917
425.9148, 7.637299
426.3969, 15.80933
426.8791, 22.61761
427.3612, 20.79028
427.8433, 6.331482
428.3254, 4.113739
428.8075, 7.688690
429.2896, 5.860321
429.7718, 3.316772
430.2539, 6.5459996E-02
430.7360, 3.922333
431.2181, 9.529785
431.7002, 16.48865
432.1823, 20.86813
432.6645, 22.39807
433.1466, 21.59641
433.6287, 17.40085
434.1108, 10.93448
434.5929, 6.714294
435.0750, 7.615051
435.5572, 11.58279
436.0393, 16.54837
436.5214, 22.33243
437.0035, 25.13940
437.4856, 19.15579
437.9677, 9.402435
438.4499, 2.124207
438.9320, 0.1236270
439.4141, 0.3313600
439.8962, 1.487701
440.3783, 2.271210
440.8604, 0.2286990
441.3426, 8.113647
441.8247, 16.81607
442.3068, 22.48447
442.7889, 24.33664
443.2710, 25.13376
443.7531, 25.78027
444.2353, 25.67474
444.7174, 24.15933
445.1995, 16.35056
445.6816, 12.40610
446.1637, 16.53668
446.6458, 27.62372
447.1280, 33.97205
447.6101, 33.13327
448.0922, 30.24533
448.5743, 28.40591
449.0564, 29.28586
449.5385, 25.96326
450.0207, 15.54599
450.5028, 3.341034
450.9849, 0.9082640
451.4670, 10.47025
451.9491, 18.55273
452.4312, 18.72772
452.9134, 12.39142
453.3955, 10.94116
453.8776, 14.84024
454.3597, 20.28314
454.8418, 24.10721
455.3239, 26.44336
455.8061, 27.39908
456.2882, 26.19077
456.7703, 24.90503
457.2524, 27.90836
457.7345, 33.93054
458.2166, 37.82434
458.6988, 33.53989
459.1809, 26.98581
459.6630, 25.44510
460.1451, 30.57449
460.6272, 34.82068
461.1093, 34.57309
461.5915, 30.71072
462.0736, 24.29050
462.5557, 8.593719
463.0378, 2.834229
463.5199, 2.447784
464.0020, 8.610046
464.4842, 17.91876
464.9663, 20.43430
465.4484, 21.57544
465.9305, 24.52118
466.4126, 33.67877
466.8947, 36.98965
467.3769, 30.97537
467.8590, 20.65543
468.3411, 14.10333
468.8232, 12.58148
469.3053, 12.41498
469.7874, 12.48654
470.2696, 12.89267
470.7517, 17.06650
471.2338, 27.10150
471.7159, 34.32413
472.1980, 28.08273
472.6801, 9.292389
473.1623, 0.2968750
473.6444, 6.623871
474.1265, 19.23755
474.6086, 22.99023
475.0907, 18.51666
475.5728, 13.38388
476.0550, 12.10498
476.5371, 13.26651
477.0192, 15.40802
477.5013, 18.91803
477.9834, 20.64246
478.4655, 16.97620
478.9477, 11.49661
479.4298, 8.994659
479.9119, 12.39352
480.3940, 17.15018
480.8761, 23.53314
481.3582, 29.77493
481.8404, 30.65118
482.3225, 14.40668
482.8046, 0.7004390
483.2867, 0.4624020
483.7688, 20.30130
484.2509, 33.82410
484.7331, 35.67560
485.2152, 31.78470
485.6973, 27.12927
486.1794, 18.63766
486.6615, 14.19504
487.1436, 16.80920
487.6258, 24.74799
488.1079, 29.57611
488.5900, 30.37399
489.0721, 29.78088
489.5542, 29.25153
490.0363, 28.79514
490.5185, 26.64050
491.0006, 22.05475
491.4827, 18.13370
491.9648, 21.02927
492.4470, 29.13046
492.9291, 33.41342
493.4112, 29.49286
493.8933, 21.15384
494.3754, 11.30383
494.8575, 0.8688050
495.3397, 3.741028
495.8218, 6.572113
496.3039, 22.52255
496.7860, 34.14978
497.2681, 39.86127
497.7502, 42.37582
498.2324, 42.71390
498.7145, 41.09988
499.1966, 37.53467
499.6787, 28.84967
500.1608, 21.43640
500.6429, 17.20383
501.1251, 16.10272
501.6072, 16.58908
502.0893, 19.48685
502.5714, 23.11685
503.0535, 26.92978
503.5356, 31.81674
504.0178, 34.85681
504.4999, 36.37814
504.9820, 35.69855
505.4641, 30.66782
505.9462, 20.02130
506.4283, 11.70569
506.9105, 8.303802
507.3926, 8.962006
507.8747, 10.81418
508.3568, 13.92938
508.8389, 17.09949
509.3210, 19.68243
509.8032, 21.66541
510.2853, 22.77390
510.7674, 22.71185
511.2495, 22.90335
511.7316, 26.08575
512.2137, 30.54465
512.6959, 32.76315
513.1780, 30.25497
513.6601, 25.90268
514.1422, 19.38962
514.6243, 11.62769
515.1064, 8.492615
515.5886, 20.43939
516.0707, 32.01746
516.5528, 32.29520
517.0349, 10.05786
517.5170, 2.853821
517.9991, 3.727631
518.4813, 18.53659
518.9634, 27.61844
519.4455, 28.47305
519.9276, 27.82156
520.4097, 26.66656
520.8918, 24.89838
521.3740, 22.76596
521.8561, 20.19843
522.3382, 17.73151
522.8203, 16.02017
523.3024, 14.99826
523.7845, 12.76645
524.2667, 8.724548
524.7488, 5.342255
525.2309, 6.762115
525.7130, 11.56833
526.1951, 14.88705
526.6772, 15.44196
527.1594, 13.32233
527.6415, 5.926453
528.1236, 5.016022
528.6057, 12.03848
529.0878, 7.432434
529.5699, 0.5491330
530.0521, 6.167053
530.5342, 8.761047
531.0163, 8.820465
531.4984, 0.1319890
531.9805, 8.283386
532.4626, 6.904358
532.9448, 25.29077
533.4269, 43.23917
533.9090, 33.62457
534.3911, 5.210358
534.8732, 6.626801
535.3553, 5.809143
535.8375, 20.30380
536.3196, 27.29678
536.8017, 26.54514
537.2838, 25.24295
537.7659, 23.25723
538.2480, 21.11185
538.7302, 19.27856
539.2123, 17.74136
539.6944, 16.25031
540.1765, 14.12753
540.6586, 13.16925
541.1407, 18.32281
541.6229, 27.43726
542.1050, 32.77301
542.5871, 25.41110
543.0692, 15.53949
543.5513, 12.48218
544.0334, 16.73633
544.5156, 22.76962
544.9977, 30.81213
545.4798, 37.95081
545.9619, 41.79626
546.4440, 41.24393
546.9261, 38.37030
547.4083, 30.89545
547.8904, 21.74487
548.3725, 16.35648
548.8546, 16.51740
549.3367, 17.43668
549.8188, 17.94269
550.3010, 18.14307
550.7831, 19.27869
551.2652, 21.37906
551.7473, 24.33051
552.2294, 28.93198
552.7115, 34.82883
553.1937, 37.73697
553.6758, 37.49902
554.1579, 35.74664
554.6400, 36.05225
555.1221, 36.83606
555.6042, 33.27277
556.0864, 18.94263
556.5685, 4.559418
557.0506, 2.097107
557.5327, 8.935089
558.0148, 14.60025
558.4969, 13.08945
558.9791, 9.481293
559.4612, 5.939270
559.9433, 1.998535
560.4254, 1.861267
560.9075, 12.78918
561.3896, 24.14743
561.8718, 26.32117
562.3539, 9.611542
562.8360, 0.3208310
563.3181, 3.148621
563.8002, 13.29837
564.2823, 18.84833
564.7645, 18.43597
565.2466, 19.62897
565.7287, 28.19742
566.2108, 41.02618
566.6929, 39.32758
567.1750, 22.44678
567.6572, 6.258118
568.1393, 6.669556
568.6214, 17.08466
569.1035, 24.42139
569.5856, 26.31540
570.0677, 26.54825
570.5499, 27.51807
571.0320, 29.07907
571.5141, 31.00015
571.9962, 33.69916
572.4783, 36.24228
572.9604, 38.22897
573.4426, 39.70853
573.9247, 41.01169
574.4068, 42.75415
574.8889, 43.81326
575.3710, 44.11700
575.8531, 44.73209
576.3353, 40.17188
576.8174, 26.71277
577.2995, 13.66956
577.7816, 10.64096
578.2637, 18.55283
578.7458, 27.30182
579.2280, 36.42896
579.7101, 44.97061
580.1922, 51.79642
580.6743, 57.14056
581.1564, 59.22360
581.6385, 54.54105
582.1207, 47.54691
582.6028, 43.88660
583.0849, 43.36322
583.5670, 44.13861
584.0491, 46.71942
584.5313, 49.15948
585.0134, 50.60968
585.4955, 52.12607
585.9776, 48.45554
586.4597, 29.84888
586.9418, 9.509888
587.4240, 2.291687
587.9061, 17.74860
588.3882, 30.79999
588.8703, 39.70023
589.3524, 44.23163
589.8345, 41.80917
590.3167, 30.84619
590.7988, 22.20526
591.2809, 21.11417
591.7630, 25.83713
592.2451, 30.00177
592.7272, 33.61655
593.2094, 35.86212
593.6915, 34.48975
594.1736, 30.48718
594.6557, 24.94669
595.1378, 17.38196
595.6199, 11.63788
596.1021, 13.42966
596.5842, 18.21448
597.0663, 19.36420
597.5485, 8.015533
598.0306, 0.1087650
598.5127, 1.945679
598.9948, 11.92209
599.4769, 19.91324
599.9590, 26.69098
600.4412, 29.80066
600.9233, 27.09586
601.4054, 17.93768
601.8875, 13.51004
602.3696, 15.52792
602.8517, 18.13873
603.3339, 15.17450
603.8160, 7.263031
604.2981, 3.409851
604.7802, 5.156616
605.2623, 9.342346
605.7444, 12.73303
606.2266, 15.36331
606.7087, 17.21564
607.1908, 18.74072
607.6729, 19.07779
608.1550, 15.91605
608.6371, 10.72138
609.1193, 8.143341
609.6014, 12.95346
610.0835, 18.38663
610.5656, 21.64780
611.0477, 22.58707
611.5298, 20.84238
612.0120, 14.64050
612.4941, 7.603058
612.9762, 1.655396
613.4583, 3.965851
613.9404, 5.242249
614.4225, 0.8104550
614.9047, 5.932861
615.3868, 9.623657
615.8689, 10.63867
616.3510, 14.25650
616.8331, 24.85114
617.3152, 35.12796
617.7974, 31.01028
618.2795, 15.93451
618.7616, 3.084808
619.2437, 0.7329710
619.7258, 0.7997130
620.2079, 7.438354
620.6901, 18.95367
621.1722, 26.36078
621.6543, 24.17065
622.1364, 18.51138
622.6185, 12.72125
623.1006, 4.118347
623.5828, 2.224274
624.0649, 11.12021
624.5470, 22.98108
625.0291, 27.94934
625.5112, 24.58151
625.9933, 21.92490
626.4755, 21.57687
626.9576, 22.87363
627.4397, 25.76413
627.9218, 29.76050
628.4039, 31.14072
628.8860, 25.32480
629.3682, 17.26163
629.8503, 14.75314
630.3324, 16.97830
630.8145, 17.67462
631.2966, 8.792328
631.7787, 0.1828000
632.2609, 0.3520200
632.7430, 13.22647
633.2251, 22.57959
633.7072, 22.74234
634.1893, 19.55872
634.6714, 17.95490
635.1536, 20.71240
635.6357, 18.54135
636.1178, 7.481750
636.5999, 6.279266
637.0820, 8.735092
637.5641, 0.9192200
638.0463, 9.390686
638.5284, 11.22289
639.0105, 10.22266
639.4926, 16.27386
639.9747, 27.67879
640.4568, 34.51019
640.9390, 24.69504
641.4211, 11.55330
641.9032, 9.230530
642.3853, 18.69989
642.8674, 25.38858
643.3495, 20.26329
643.8317, 12.47180
644.3138, 8.436676
644.7959, 11.79137
645.2780, 13.26906
645.7601, 11.84457
646.2422, 9.445847
646.7244, 8.784363
647.2065, 10.65038
647.6886, 9.589859
648.1707, 3.088043
648.6528, 4.584534
649.1349, 4.518417
649.6171, 2.577271
650.0992, 11.58781
650.5813, 24.76039
651.0634, 35.66946
651.5455, 34.05151
652.0276, 21.92986
652.5098, 10.24066
652.9919, 3.593582
653.4740, 0.1326450
653.9561, 0.9264830
654.4382, 0.5744320
654.9203, 3.015213
655.4025, 6.516495
655.8846, 10.62657
656.3667, 15.63748
656.8488, 23.40175
657.3309, 25.88608
657.8130, 21.47496
658.2952, 14.21841
658.7773, 9.057419
659.2594, 5.950882
659.7415, 5.196365
660.2236, 7.665253
660.7057, 11.18687
661.1879, 12.89578
661.6700, 13.12204
662.1521, 12.75414
662.6342, 11.36679
663.1163, 10.26315
663.5984, 11.06622
664.0806, 13.36023
664.5627, 13.72916
665.0448, 8.208664
665.5269, 3.458130
666.0090, 2.293396
666.4911, 5.055939
666.9733, 9.014648
667.4554, 14.38252
667.9375, 20.52661
668.4196, 27.33714
668.9017, 34.78505
669.3839, 41.65671
669.8660, 48.21895
670.3481, 52.37442
670.8302, 50.86255
671.3123, 44.90286
671.7944, 37.29779
672.2766, 26.73302
672.7587, 18.97742
673.2408, 19.91859
673.7229, 26.15620
674.2050, 31.03342
674.6871, 31.58109
675.1693, 31.79739
675.6514, 34.02887
676.1335, 37.22626
676.6156, 34.59201
677.0977, 21.81305
677.5798, 13.14452
678.0620, 17.55479
678.5441, 32.97714
679.0262, 37.65102
679.5083, 31.04922
679.9904, 22.92932
680.4725, 22.49477
680.9547, 25.46422
681.4368, 22.91602
681.9189, 13.06050
682.4010, 5.373566
682.8831, 8.645599
683.3652, 16.18961
683.8474, 21.22159
684.3295, 20.38365
684.8116, 19.91928
685.2937, 21.17616
685.7758, 23.09256
686.2579, 24.59839
686.7401, 26.48428
687.2222, 25.60727
687.7043, 20.71532
688.1864, 13.39113
688.6685, 6.666122
689.1506, 0.6298980
689.6328, 3.293015
690.1149, 4.706573
690.5970, 3.478058
691.0791, 3.786209
691.5612, 15.15356
692.0433, 20.68329
692.5255, 7.878754
693.0076, 6.599686
693.4897, 12.14178
693.9718, 7.329956
694.4539, 1.237823
694.9360, 8.207489
695.4182, 16.96849
695.9003, 21.94258
696.3824, 22.44704
696.8645, 20.77760
697.3466, 15.73438
697.8287, 11.66779
698.3109, 15.21954
698.7930, 24.56126
699.2751, 29.73987
699.7572, 28.50873
700.2393, 24.58293
700.7214, 20.01634
701.2036, 15.77559
701.6857, 13.50801
702.1678, 15.73270
702.6499, 17.77301
703.1320, 16.78078
703.6141, 14.35294
704.0963, 14.71849
704.5784, 21.83095
705.0605, 25.82149
705.5426, 23.08723
706.0247, 15.71399
706.5068, 13.60986
706.9890, 17.90742
707.4711, 21.67827
707.9532, 19.38670
708.4353, 13.75633
708.9174, 11.90491
709.3995, 13.58917
709.8817, 16.61259
710.3638, 20.66119
710.8459, 24.57893
711.3280, 28.11536
711.8101, 31.69843
712.2922, 31.04436
712.7744, 17.49026
713.2565, 4.698303
713.7386, 2.449341
714.2207, 17.49583
714.7028, 24.97572
715.1849, 22.13440
715.6671, 16.63020
716.1492, 18.09492
716.6313, 25.73172
717.1134, 29.78600
717.5955, 28.01057
718.0776, 24.02994
718.5598, 20.67178
719.0419, 18.53589
719.5240, 18.92719
720.0061, 25.99861
720.4882, 31.20575
720.9703, 29.01361
721.4525, 22.20886
721.9346, 17.09874
722.4167, 14.16580
722.8988, 13.59827
723.3809, 17.22653
723.8630, 23.08226
724.3452, 21.47145
724.8273, 10.87247
725.3094, 4.032394
725.7915, 9.456482
726.2736, 21.85872
726.7557, 29.21443
727.2379, 31.56619
727.7200, 29.18565
728.2021, 15.56223
728.6842, 2.044296
729.1663, 0.1129000
729.6484, 10.38640
730.1306, 18.03860
730.6127, 16.78621
731.0948, 12.77423
731.5769, 9.111633
732.0590, 5.451630
732.5411, 3.609436
733.0233, 3.964325
733.5054, 5.286499
733.9875, 6.522278
734.4696, 7.724533
734.9517, 9.411850
735.4338, 11.77681
735.9160, 13.86017
736.3981, 14.42931
736.8802, 14.16869
737.3623, 14.25253
737.8444, 15.95491
738.3266, 16.15800
738.8087, 10.82260
739.2908, 4.234055
739.7729, 2.882584
740.2551, 10.00555
740.7372, 17.38921
741.2193, 25.34213
741.7014, 31.31638
742.1835, 28.07443
742.6656, 15.50027
743.1478, 6.823395
743.6299, 7.560883
744.1120, 12.80333
744.5941, 15.01524
745.0762, 15.20685
745.5583, 16.58951
746.0405, 22.16835
746.5226, 28.03006
747.0047, 33.11591
747.4868, 36.75537
747.9689, 36.42673
748.4510, 28.42755
748.9332, 21.41005
749.4153, 17.67722
749.8974, 17.05339
750.3795, 17.05052
750.8616, 16.97440
751.3438, 18.24460
751.8259, 25.22569
752.3080, 34.28598
752.7901, 34.88141
753.2722, 27.08661
753.7543, 19.53932
754.2365, 18.64720
754.7186, 19.93362
755.2007, 19.62038
755.6828, 16.73929
756.1649, 15.47173
756.6470, 16.46292
757.1292, 19.33092
757.6113, 24.51527
758.0934, 33.28035
758.5755, 38.65195
759.0576, 40.39987
759.5397, 39.65692
760.0219, 37.30963
760.5040, 33.46103
760.9861, 28.52385
761.4682, 21.04787
761.9503, 14.09369
762.4324, 9.709030
762.9146, 8.265320
763.3967, 10.53297
763.8788, 21.79774
764.3609, 28.41721
764.8430, 23.42274
765.3251, 15.33310
765.8073, 14.48712
766.2894, 23.61588
766.7715, 28.97783
767.2536, 27.91104
767.7357, 23.71681
768.2178, 22.27260
768.7000, 22.64250
769.1821, 20.63283
769.6642, 13.13054
770.1463, 6.603638
770.6284, 7.750290
771.1105, 12.76227
771.5927, 15.58307
772.0748, 11.03816
772.5569, 7.746185
773.0390, 7.558167
773.5211, 10.01952
774.0032, 14.70470
774.4854, 22.60376
774.9675, 29.31229
775.4496, 34.34816
775.9317, 36.47232
776.4138, 29.96552
776.8959, 16.55296
777.3781, 5.286545
777.8602, 1.932083
778.3423, 1.942047
778.8244, 1.611832
779.3065, 1.292419
779.7886, 2.690613
780.2708, 10.63916
780.7529, 15.70834
781.2350, 13.75993
781.7171, 5.755035
782.1992, 0.7317810
782.6813, 1.325745
783.1635, 1.401367
783.6456, 0.4065400
784.1277, 3.697891
784.6098, 8.564270
785.0919, 14.54828
785.5740, 17.43222
786.0562, 9.932480
786.5383, 1.507294
787.0204, 1.615524
787.5025, 10.75206
787.9846, 16.97412
788.4667, 12.36630
788.9489, 9.243835
789.4310, 14.37650
789.9131, 28.58148
790.3952, 33.55859
790.8773, 27.44958
791.3594, 20.61856
791.8416, 21.14465
792.3237, 26.87437
792.8058, 34.04404
793.2879, 42.39153
793.7700, 45.72064
794.2521, 34.98335
794.7343, 20.62975
795.2164, 11.47835
795.6985, 9.656631
796.1806, 7.862823
796.6627, 5.051910
797.1448, 2.189102
797.6270, 0.7364650
798.1091, 4.217499
798.5912, 2.709290
799.0733, 4.713882
799.5554, 12.43619
800.0375, 14.85956
800.5197, 13.69511
801.0018, 11.73096
801.4839, 9.166458
801.9660, 7.410461
802.4481, 8.104492
802.9302, 9.888168
803.4124, 10.36790
803.8945, 8.636902
804.3766, 8.673920
804.8587, 11.85196
805.3408, 15.32193
805.8229, 15.35257
806.3051, 12.29257
806.7872, 8.391266
807.2693, 3.366089
807.7514, 0.3877110
808.2335, 4.547058
808.7156, 12.20915
809.1978, 18.24548
809.6799, 21.99100
810.1620, 22.69614
810.6441, 15.90736
811.1262, 8.270584
811.6083, 6.798508
812.0905, 16.43442
812.5726, 20.79836
813.0547, 18.22083
813.5368, 12.79932
814.0189, 7.067764
814.5010, 1.995819
814.9832, 5.087158
815.4653, 19.35274
815.9474, 32.93851
816.4295, 36.13176
816.9116, 31.76895
817.3937, 22.29277
817.8759, 2.046738
818.3580, 10.76009
818.8401, 7.113617
819.3222, 2.253296
819.8043, 7.417297
820.2864, 7.055008
820.7686, 8.970856
821.2507, 14.46280
821.7328, 20.44781
822.2149, 23.16840
822.6970, 23.15715
823.1791, 21.42682
823.6613, 17.66420
824.1434, 14.07916
824.6255, 12.93396
825.1076, 12.42693
825.5897, 10.57793
826.0718, 6.125397
826.5540, 1.142700
827.0361, 6.642258
827.5182, 12.42641
828.0003, 8.581924
828.4824, 4.710602
828.9645, 13.96846
829.4467, 16.77649
829.9288, 16.81409
830.4109, 18.70322
830.8930, 20.46239
831.3751, 18.18831
831.8572, 7.260086
832.3394, 0.6141050
832.8215, 6.727219
833.3036, 17.27209
833.7857, 22.82231
834.2678, 21.38258
834.7499, 20.90892
835.2321, 22.60619
835.7142, 23.61008
836.1963, 17.15184
836.6784, 6.549835
837.1605, 6.616211
837.6426, 23.16618
838.1248, 36.84657
838.6069, 26.84035
839.0890, 8.469772
839.5711, 0.9891360
840.0532, 8.226563
840.5353, 14.93614
841.0175, 16.35789
841.4996, 16.53374
841.9817, 20.09036
842.4638, 27.29099
842.9459, 31.02182
843.4280, 30.27513
843.9102, 27.78940
844.3923, 25.15276
844.8744, 23.24855
845.3565, 24.36226
845.8386, 30.49066
846.3207, 33.67146
846.8029, 27.04785
847.2850, 18.39621
847.7671, 14.57298
848.2492, 17.33446
848.7313, 21.15170
849.2134, 27.36778
849.6956, 31.12697
850.1777, 24.67506
850.6598, 11.54265
851.1419, 4.915192
851.6240, 6.875595
852.1061, 9.773010
852.5883, 6.869003
853.0704, 2.734711
853.5525, 1.930511
854.0346, 6.873947
854.5167, 9.693176
854.9988, 9.169403
855.4810, 7.410553
855.9631, 5.357941
856.4452, 3.301453
856.9273, 2.551636
857.4094, 2.853775
857.8915, 5.382492
858.3737, 16.23625
858.8558, 27.34515
859.3379, 24.89520
859.8200, 5.973541
860.3021, 5.361740
860.7842, 11.82315
861.2664, 28.81604
861.7485, 26.55211
862.2306, 1.499588
862.7127, 4.323929
863.1948, 13.18410
863.6769, 31.64525
864.1591, 33.59615
864.6412, 25.09373
865.1233, 20.05089
865.6054, 18.74677
866.0875, 18.89740
866.5696, 19.12138
867.0518, 20.26001
867.5339, 24.89262
868.0160, 33.37715
868.4981, 32.39525
868.9802, 16.19827
869.4623, 2.629669
869.9445, 0.9239200
870.4266, 8.721130
870.9087, 16.98622
871.3908, 25.44965
871.8729, 30.31221
872.3550, 25.00766
872.8372, 18.68018
873.3193, 20.17030
873.8014, 28.10497
874.2835, 33.64754
874.7656, 32.68500
875.2477, 31.52646
875.7299, 31.31349
876.2120, 31.43797
876.6941, 34.45883
877.1762, 40.62714
877.6583, 43.44588
878.1404, 37.43619
878.6226, 29.60512
879.1047, 32.57471
879.5869, 41.25800
880.0690, 42.64789
880.5511, 20.17067
881.0332, 3.607773
881.5153, 4.730698
881.9974, 15.19750
882.4796, 20.42085
882.9617, 19.23125
883.4438, 19.92442
883.9259, 25.66075
884.4080, 31.61743
884.8901, 27.33682
885.3723, 17.16777
885.8544, 12.15362
886.3365, 20.16115
886.8186, 26.29236
887.3007, 20.34961
887.7828, 10.32343
888.2650, 7.738083
888.7471, 16.28860
889.2292, 22.95569
889.7113, 26.87503
890.1934, 28.19203
890.6755, 25.91179
891.1577, 21.29883
891.6398, 18.90062
892.1219, 20.18599
892.6040, 20.57402
893.0861, 14.56633
893.5682, 7.525192
894.0504, 4.808487
894.5325, 9.480118
895.0146, 12.49869
895.4967, 13.01511
895.9788, 13.43958
896.4609, 16.79523
896.9431, 22.19130
897.4252, 23.33730
897.9073, 20.14192
898.3894, 16.04726
898.8715, 12.32547
899.3536, 9.862305
899.8358, 9.759369
900.3179, 12.30344
900.8000, 14.72581
901.2821, 17.22231
901.7642, 18.79050
902.2463, 18.61656
902.7285, 17.48973
903.2106, 17.48010
903.6927, 18.13831
904.1748, 18.87990
904.6569, 18.30772
905.1390, 18.09824
905.6212, 21.62100
906.1033, 27.43205
906.5854, 29.57323
907.0675, 20.40027
907.5496, 14.06866
908.0317, 15.04513
908.5139, 20.75876
908.9960, 23.87993
909.4781, 24.39424
909.9602, 23.31451
910.4423, 19.50337
910.9244, 16.67683
911.4066, 22.27180
911.8887, 31.61267
912.3708, 36.08643
912.8529, 26.92224
913.3350, 20.11633
913.8171, 20.17378
914.2993, 22.75845
914.7814, 21.32399
915.2635, 15.26431
915.7456, 14.39314
916.2277, 21.30098
916.7098, 28.60486
917.1920, 25.64522
917.6741, 17.94168
918.1562, 12.83441
918.6383, 12.45360
919.1204, 15.49088
919.6025, 27.39165
920.0847, 38.57166
920.5668, 41.86447
921.0489, 36.68344
921.5310, 32.72954
922.0131, 30.19545
922.4952, 27.41418
922.9774, 21.08420
923.4595, 14.61494
923.9416, 15.04224
924.4237, 22.05437
924.9058, 25.40764
925.3879, 16.16965
925.8701, 7.315796
926.3522, 3.432877
926.8343, 4.462814
927.3164, 12.40559
927.7985, 28.78340
928.2806, 37.97588
928.7628, 27.55222
929.2449, 10.64891
929.7270, 10.02939
930.2091, 20.08301
930.6912, 25.58792
931.1733, 13.76541
931.6555, 4.139786
932.1376, 4.451309
932.6197, 9.754730
933.1018, 12.06543
933.5839, 11.00662
934.0660, 9.753845
934.5482, 8.664825
935.0303, 8.204788
935.5124, 9.089035
935.9945, 10.99411
936.4766, 14.06245
936.9587, 20.56540
937.4409, 22.07628
937.9230, 8.790466
938.4051, 5.119064
938.8872, 8.049423
939.3693, 2.443237
939.8514, 9.733032
940.3336, 13.60663
940.8157, 15.05437
941.2978, 14.41104
941.7799, 12.09273
942.2620, 7.375839
942.7441, 0.6053310
943.2263, 3.045135
943.7084, 1.782364
944.1905, 6.730820
944.6726, 7.928040
945.1547, 6.253952
945.6368, 7.317078
946.1190, 11.24068
946.6011, 16.07715
947.0832, 21.56828
947.5653, 26.84062
948.0474, 31.62872
948.5295, 35.29382
949.0117, 36.35060
949.4938, 31.66248
949.9759, 27.66203
950.4580, 26.18248
950.9401, 25.53474
951.4222, 22.37579
951.9044, 16.58925
952.3865, 14.72868
952.8686, 18.40155
953.3507, 23.45995
953.8328, 26.18163
954.3149, 27.32504
954.7971, 28.12817
955.2792, 29.44327
955.7613, 27.62509
956.2434, 17.84955
956.7255, 10.08203
957.2076, 12.31384
957.6898, 24.07349
958.1719, 27.65610
958.6540, 23.16083
959.1361, 15.57051
959.6182, 3.290848
960.1003, 6.627274
960.5825, 6.244354
961.0646, 3.020432
961.5467, 11.85291
962.0288, 22.28444
962.5109, 25.84227
962.9930, 17.88766
963.4752, 4.007950
963.9573, 1.693680
964.4394, 0.2414090
964.9215, 1.557098
965.4036, 0.4535680
965.8857, 1.087708
966.3679, 10.63795
966.8500, 22.70905
967.3321, 28.72858
967.8142, 21.75046
968.2963, 19.73798
968.7784, 25.10020
969.2606, 30.74307
969.7427, 27.76109
970.2248, 18.97157
970.7069, 15.06482
971.1890, 16.80956
971.6711, 18.92485
972.1533, 19.67123
972.6354, 18.18472
973.1175, 12.71783
973.5996, 3.441635
974.0817, 3.743774
974.5638, 9.087265
975.0460, 11.39349
975.5281, 9.696091
976.0102, 5.097321
976.4923, 2.387161
976.9744, 10.93805
977.4565, 15.20435
977.9387, 7.555801
978.4208, 1.426788
978.9029, 1.763443
979.3850, 6.245529
979.8671, 12.73787
980.3492, 22.11290
980.8314, 27.86176
981.3135, 28.89580
981.7956, 27.98853
982.2777, 29.50140
982.7598, 30.46368
983.2419, 24.98898
983.7241, 10.99533
984.2062, 1.204102
984.6883, 3.427261
985.1704, 6.653656
985.6525, 5.244705
986.1346, 5.6366000E-02
986.6168, 1.144608
987.0989, 8.313065
987.5810, 15.39038
988.0631, 20.04588
988.5452, 21.97528
989.0273, 18.23067
989.5095, 11.59442
989.9916, 9.371368
990.4737, 18.82912
990.9558, 22.85986
991.4379, 16.54544
991.9200, 8.269226
992.4022, 13.02896
992.8843, 27.25060
993.3664, 36.82715
993.8485, 38.77045
994.3306, 37.68607
994.8127, 35.23383
995.2949, 32.14819
995.7770, 28.08868
996.2591, 21.70889
996.7412, 22.47171
997.2233, 33.39450
997.7054, 43.38527
998.1876, 46.22348
998.6697, 43.56870
999.1518, 37.17792
999.6339, 28.20593
1000.116, 21.18671
1000.598, 17.03822
1001.080, 16.34006
1001.562, 21.98294
1002.044, 30.11092
1002.527, 35.51340
1003.009, 38.32906
1003.491, 33.86996
1003.973, 19.06607
1004.455, 6.510956
1004.937, 15.90300
1005.419, 33.19266
1005.901, 39.59073
1006.384, 28.41115
1006.866, 20.95271
1007.348, 21.22638
1007.830, 23.29901
1008.312, 23.53883
1008.794, 22.65358
1009.276, 27.36978
1009.758, 36.44319
1010.240, 39.80936
1010.723, 24.83432
1011.205, 8.966614
1011.687, 3.722183
1012.169, 6.109543
1012.651, 7.022385
1013.133, 4.971664
1013.615, 5.459167
1014.097, 10.07912
1014.580, 15.42419
1015.062, 15.96164
1015.544, 13.98421
1016.026, 13.84698
1016.508, 16.49837
1016.990, 20.16154
1017.472, 28.53906
1017.954, 32.80939
1018.436, 26.62384
1018.919, 11.26767
1019.401, 6.388306
1019.883, 12.05652
1020.365, 18.00752
1020.847, 15.90544
1021.329, 13.27403
1021.811, 21.27423
1022.293, 34.45862
1022.776, 38.64365
1023.258, 21.36137
1023.740, 11.29959
1024.222, 13.02464
1024.704, 19.83345
1025.186, 22.42850
1025.668, 22.35179
1026.150, 26.01965
1026.632, 34.84393
1027.115, 40.36490
1027.597, 31.61472
1028.079, 22.83115
1028.561, 26.64969
1029.043, 42.17120
1029.525, 42.58199
1030.007, 25.36443
1030.489, 14.11575
1030.972, 23.61905
1031.454, 40.64371
1031.936, 48.57002
1032.418, 49.24231
1032.900, 46.91708
1033.382, 41.59058
1033.864, 35.56454
1034.346, 27.86630
1034.828, 20.97371
1035.311, 18.39076
1035.793, 19.64165
1036.275, 22.28516
1036.757, 26.15131
1037.239, 29.36348
1037.721, 30.38780
1038.203, 30.47281
1038.685, 29.20360
1039.167, 27.20627
1039.650, 30.63419
1040.132, 41.47752
1040.614, 48.84471
1041.096, 48.39299
1041.578, 43.52768
1042.060, 37.23746
1042.542, 31.05478
1043.024, 27.80257
1043.507, 28.78812
1043.989, 32.24316
1044.471, 42.01717
1044.953, 49.42007
1045.435, 45.51201
1045.917, 31.57005
1046.399, 25.37613
1046.881, 26.90793
1047.364, 28.05424
1047.846, 23.50778
1048.328, 16.53691
1048.810, 6.239777
1049.292, 4.821976
1049.774, 6.460068
1050.256, 5.010666
1050.738, 12.48546
1051.220, 11.37186
1051.703, 8.192184
1052.185, 14.23737
1052.667, 24.05820
1053.149, 27.57307
1053.631, 21.05566
1054.113, 16.64732
1054.595, 19.41675
1055.077, 22.93477
1055.559, 23.85504
1056.042, 22.67880
1056.524, 24.57083
1057.006, 28.66420
1057.488, 27.87088
1057.970, 10.64542
1058.452, 4.741882
1058.934, 3.790833
1059.416, 5.932861
1059.899, 9.245285
1060.381, 2.667114
1060.863, 1.509537
1061.345, 7.973434
1061.827, 15.84312
1062.309, 20.34503
1062.791, 21.37085
1063.273, 16.15514
1063.755, 4.839493
1064.238, 7.3836997E-02
1064.720, 12.21654
1065.202, 21.66637
1065.684, 21.31943
1066.166, 14.94914
1066.648, 12.65491
1067.130, 13.85387
1067.612, 15.94290
1068.094, 19.00334
1068.577, 20.56708
1069.059, 16.26328
1069.541, 11.75537
1070.023, 13.11029
1070.505, 22.03564
1070.987, 26.92282
1071.469, 27.57225
1071.951, 26.78152
1072.434, 25.91058
1072.916, 25.10127
1073.398, 25.84811
1073.880, 26.92575
1074.362, 24.05350
1074.844, 11.91623
1075.326, 2.883438
1075.808, 1.987869
1076.291, 2.544083
1076.773, 3.954239
1077.255, 14.68214
1077.737, 20.82582
1078.219, 20.84865
1078.701, 21.18053
1079.183, 26.90836
1079.665, 32.43954
1080.147, 34.69577
1080.630, 33.81821
1081.112, 30.86678
1081.594, 25.98085
1082.076, 23.68541
1082.558, 26.89917
1083.040, 31.00052
1083.522, 33.21579
1084.004, 33.20000
1084.486, 29.86864
1084.969, 20.25191
1085.451, 15.90584
1085.933, 17.80623
1086.415, 21.42624
1086.897, 24.62744
1087.379, 26.58525
1087.861, 24.28484
1088.343, 19.04709
1088.826, 16.48663
1089.308, 22.44666
1089.790, 26.06863
1090.272, 24.60718
1090.754, 20.94266
1091.236, 20.83037
1091.718, 22.95271
1092.200, 19.63100
1092.682, 9.146881
1093.165, 2.137405
1093.647, 11.36076
1094.129, 20.56003
1094.611, 17.37660
1095.093, 4.292953
1095.575, 8.1696004E-02
1096.057, 5.102509
1096.539, 9.976242
1097.022, 10.57971
1097.504, 10.78792
1097.986, 15.75668
1098.468, 22.30511
1098.950, 26.12988
1099.432, 26.86769
1099.914, 23.12103
1100.396, 13.16301
1100.879, 4.542023
1101.361, 4.820160
1101.843, 9.552765
1102.325, 8.121765
1102.807, 2.109085
1103.289, 0.4299010
1103.771, 4.855865
1104.253, 13.14119
1104.735, 26.30247
1105.218, 38.51186
1105.700, 40.62080
1106.182, 34.35390
1106.664, 27.02632
1107.146, 18.71146
1107.628, 12.25758
1108.110, 7.251312
1108.592, 7.102158
1109.074, 18.02789
1109.557, 35.46101
1110.039, 37.93753
1110.521, 25.11885
1111.003, 13.86938
1111.485, 8.544952
1111.967, 8.129364
1112.449, 15.63185
1112.931, 25.32478
1113.414, 30.67647
1113.896, 30.01822
1114.378, 30.30858
1114.860, 31.77789
1115.342, 33.20409
1115.824, 34.10861
1116.306, 34.26718
1116.788, 34.51822
1117.271, 34.74725
1117.753, 32.12442
1118.235, 18.98605
1118.717, 12.65202
1119.199, 16.94089
1119.681, 23.43054
1120.163, 23.01811
1120.645, 18.40450
1121.127, 17.82179
1121.609, 20.75040
1122.092, 21.04674
1122.574, 11.49696
1123.056, 3.708359
1123.538, 0.9358060
1124.020, 2.429611
1124.502, 9.129227
1124.984, 20.27425
1125.466, 24.29102
1125.949, 18.81017
1126.431, 12.25450
1126.913, 10.20731
1127.395, 9.435684
1127.877, 7.181427
1128.359, 3.808044
1128.841, 3.619904
1129.323, 6.867691
1129.806, 8.367142
1130.288, 4.677399
1130.770, 1.826981
1131.252, 9.714371
1131.734, 20.34679
1132.216, 22.19370
1132.698, 10.24971
1133.180, 3.551071
1133.662, 2.570480
1134.145, 4.959290
1134.627, 13.34587
1135.109, 21.48727
1135.591, 16.98412
1136.073, 4.351974
1136.555, 4.847778
1137.037, 9.018143
1137.519, 5.357773
1138.001, 10.18410
1138.484, 25.26175
1138.966, 24.19017
1139.448, 13.31187
1139.930, 7.171875
1140.412, 6.367493
1140.894, 8.243286
1141.376, 17.13669
1141.858, 21.00499
1142.341, 13.94791
1142.823, 3.418060
1143.305, 4.682709
1143.787, 14.86769
1144.269, 20.85495
1144.751, 20.19774
1145.233, 18.21289
1145.715, 18.83784
1146.198, 17.81226
1146.680, 11.32886
1147.162, 1.523453
1147.644, 0.1976930
1148.126, 5.529877
1148.608, 9.975800
1149.090, 9.807526
1149.572, 9.242432
1150.054, 12.55763
1150.536, 16.18762
1151.019, 15.98001
1151.501, 11.33965
1151.983, 11.57144
1152.465, 16.88641
1152.947, 21.69106
1153.429, 21.38182
1153.911, 21.00214
1154.393, 27.98387
1154.876, 37.37608
1155.358, 39.94206
1155.840, 32.79587
1156.322, 26.51268
1156.804, 21.27794
1157.286, 16.93706
1157.768, 14.50012
1158.250, 12.09157
1158.733, 5.690918
1159.215, 2.953384
1159.697, 7.010483
1160.179, 3.373062
1160.661, 4.6661001E-02
1161.143, 1.831100
1161.625, 3.859375
1162.107, 10.37418
1162.589, 17.17046
1163.072, 15.05939
1163.554, 4.161285
1164.036, 2.421921
1164.518, 1.149002
1165.000, 5.188644
1165.482, 8.203781
1165.964, 9.471161
1166.446, 4.894180
1166.928, 1.829651
1167.411, 0.9403840
1167.893, 10.88490
1168.375, 18.87616
1168.857, 14.38142
1169.339, 10.02910
1169.821, 10.87753
1170.303, 14.97687
1170.785, 16.43155
1171.268, 16.21603
1171.750, 18.11365
1172.232, 25.38318
1172.714, 29.40251
1173.196, 26.07959
1173.678, 18.51645
1174.160, 5.723434
1174.642, 10.17368
1175.125, 11.86000
1175.607, 1.606262
1176.089, 8.263428
1176.571, 13.93874
1177.053, 15.36807
1177.535, 7.641739
1178.017, 0.6860050
1178.499, 1.007538
1178.981, 6.562820
1179.464, 12.53821
1179.946, 16.77208
1180.428, 18.91183
1180.910, 19.03397
1181.392, 16.70193
1181.874, 5.992081
1182.356, 4.404968
1182.838, 1.884583
1183.320, 25.86670
1183.803, 35.26051
1184.285, 27.14336
1184.767, 19.14677
1185.249, 28.77390
1185.731, 39.05490
1186.213, 35.77464
1186.695, 24.11444
1187.177, 19.64259
1187.660, 22.91180
1188.142, 24.48830
1188.624, 22.52374
1189.106, 21.26242
1189.588, 26.34779
1190.070, 32.11467
1190.552, 34.06264
1191.034, 32.25963
1191.516, 28.09195
1191.999, 20.68852
1192.481, 18.23705
1192.963, 23.97868
1193.445, 30.60530
1193.927, 32.43896
1194.409, 30.04219
1194.891, 22.10118
1195.373, 8.992493
1195.855, 5.350983
1196.338, 11.87880
1196.820, 18.16345
1197.302, 20.12325
1197.784, 20.16570
1198.266, 20.53563
1198.748, 20.73177
1199.230, 19.88522
1199.712, 17.59814
1200.195, 16.41002
1200.677, 16.38875
1201.159, 17.09288
1201.641, 19.38354
1202.123, 20.90794
1202.605, 15.44446
1203.087, 8.628311
1203.569, 10.81383
1204.052, 29.05457
1204.534, 36.91313
1205.016, 33.19891
1205.498, 26.44455
1205.980, 21.01497
1206.462, 17.15575
1206.944, 15.07355
1207.426, 14.83441
1207.908, 17.13533
1208.391, 23.99593
1208.873, 27.31009
1209.355, 26.50021
1209.837, 23.57677
1210.319, 18.94904
1210.801, 14.17204
1211.283, 10.39789
1211.765, 8.055511
1212.247, 8.561401
1212.730, 11.95717
1213.212, 18.51114
1213.694, 29.36671
1214.176, 37.88985
1214.658, 34.25893
1215.140, 27.38147
1215.622, 29.50769
1216.104, 38.74767
1216.587, 39.59676
1217.069, 26.59117
1217.551, 21.28641
1218.033, 29.38736
1218.515, 38.86009
1218.997, 33.71577
1219.479, 24.05414
1219.961, 23.26404
1220.443, 31.17870
1220.926, 29.14169
1221.408, 11.51456
1221.890, 5.382156
1222.372, 20.61121
1222.854, 39.65056
1223.336, 40.19398
1223.818, 32.26108
1224.300, 26.58929
1224.782, 24.92862
1225.265, 22.08298
1225.747, 17.36852
1226.229, 15.87634
1226.711, 20.23901
1227.193, 25.27028
1227.675, 23.13396
1228.157, 18.98935
1228.639, 19.61241
1229.122, 26.33060
1229.604, 30.48935
1230.086, 32.06079
1230.568, 31.02394
1231.050, 25.85922
1231.532, 21.27504
1232.014, 23.34344
1232.496, 28.03023
1232.979, 32.24393
1233.461, 36.40271
1233.943, 40.74702
1234.425, 45.19322
1234.907, 47.47597
1235.389, 45.19574
1235.871, 42.24092
1236.353, 45.17819
1236.835, 48.97122
1237.318, 45.64363
1237.800, 33.89650
1238.282, 23.58411
1238.764, 14.64000
1239.246, 10.27377
1239.728, 13.61346
1240.210, 20.25906
1240.692, 33.22928
1241.175, 44.81233
1241.657, 43.12477
1242.139, 24.35818
1242.621, 19.29344
1243.103, 28.01219
1243.585, 35.65077
1244.067, 32.07744
1244.549, 25.46288
1245.031, 19.53438
1245.514, 15.02823
1245.996, 12.29903
1246.478, 11.37376
1246.960, 14.16405
1247.442, 20.36186
1247.924, 22.91248
1248.406, 10.45782
1248.888, 0.5877530
1249.370, 7.605057
1249.853, 20.33040
1250.335, 22.79697
1250.817, 15.60600
1251.299, 16.64616
1251.781, 26.12404
1252.263, 35.26936
1252.745, 41.79517
1253.227, 42.95645
1253.710, 31.54616
1254.192, 18.98050
1254.674, 23.86752
1255.156, 42.24133
1255.638, 42.18173
1256.120, 23.60997
1256.602, 8.716843
1257.084, 11.07077
1257.567, 18.02811
1258.049, 27.51582
1258.531, 36.37747
1259.013, 40.06012
1259.495, 39.36317
1259.977, 36.43642
1260.459, 31.72040
1260.941, 27.27650
1261.423, 22.67479
1261.906, 20.56038
1262.388, 21.82982
1262.870, 25.14459
1263.352, 29.64214
1263.834, 34.33582
1264.316, 37.29562
1264.798, 38.23941
1265.280, 36.36996
1265.762, 27.30850
1266.245, 22.91640
1266.727, 26.87329
1267.209, 32.53323
1267.691, 30.69139
1268.173, 24.35995
1268.655, 16.55922
1269.137, 8.049698
1269.619, 6.796585
1270.102, 16.28661
1270.584, 24.77702
1271.066, 29.98434
1271.548, 32.76692
1272.030, 32.43883
1272.512, 31.35440
1272.994, 32.76004
1273.476, 36.64371
1273.958, 38.96576
1274.441, 39.74568
1274.923, 37.99365
1275.405, 32.90062
1275.887, 27.97223
1276.369, 28.46796
1276.851, 29.63837
1277.333, 26.02074
1277.815, 18.53114
1278.297, 14.79488
1278.780, 14.93948
1279.262, 11.65778
1279.744, 2.063690
1280.226, 5.242065
1280.708, 1.221085
1281.190, 8.248322
1281.672, 2.642914
1282.154, 9.655197
1282.637, 3.573029
1283.119, 18.50060
1283.601, 32.42992
1284.083, 32.30656
1284.565, 30.85732
1285.047, 38.98106
1285.529, 43.60272
1286.011, 36.14145
1286.494, 22.68175
1286.976, 22.77457
1287.458, 31.80862
1287.940, 33.34590
1288.422, 22.98247
1288.904, 13.92932
1289.386, 10.67906
1289.868, 10.97899
1290.350, 15.25322
1290.833, 21.26300
1291.315, 25.43259
1291.797, 27.67116
1292.279, 27.37433
1292.761, 24.10307
1293.243, 20.96294
1293.725, 17.14262
1294.207, 14.45702
1294.689, 19.84837
1295.172, 23.12328
1295.654, 21.92509
1296.136, 19.45338
1296.618, 18.19856
1297.100, 18.90750
1297.582, 17.61005
1298.064, 13.50780
1298.546, 12.87234
1299.029, 18.61595
1299.511, 24.95129
1299.993, 25.63271
1300.475, 23.26163
1300.957, 19.99095
1301.439, 16.19409
1301.921, 10.51703
1302.403, 2.887756
1302.885, 0.7484440
1303.368, 1.623199
1303.850, 6.652847
1304.332, 17.56927
1304.814, 24.18159
1305.296, 17.89789
1305.778, 1.769424
1306.260, 0.4285280
1306.742, 8.040268
1307.224, 9.743607
1307.707, 0.0000000E+00
##END=



