##NAMES=Bobkingite
##RRUFFID=R141030
##IDEAL CHEMISTRY=Cu^2+^_5_Cl_2_(OH)_8_&#183;2H_2_O
##LOCALITY=Cerro Minado Mines, Cuesta Alta, Huércal-Overa, Almería, Andalusia, Spain
##OWNER=RRUFF
##SOURCE=William W. Pinch and Robert Pecorini
##DESCRIPTION=Aggregates of acicular to bladed bundles of blue crystals on quartz
##STATUS=The identification of this mineral has been confirmed only by single crystal X-ray diffraction.
##URL=rruff.info/R141030
90.59570, 0.0000000E+00
91.07782, 3.358070
91.55994, 5.187731
92.04205, 3.621876
92.52417, 1.109277
93.00629, 1.037734
93.48840, 1.284142
93.97052, 2.028419
94.45264, 1.976530
94.93475, 0.3399500
95.41687, 0.3396020
95.89898, 0.5792590
96.38110, 1.973937
96.86321, 2.780846
97.34533, 2.540351
97.82745, 1.611770
98.30956, 1.284118
98.79168, 1.894943
99.27380, 2.517519
99.75591, 2.904064
100.2380, 3.120997
100.7201, 3.342764
101.2023, 3.653000
101.6844, 4.047922
102.1665, 4.473663
102.6486, 4.973157
103.1307, 5.470547
103.6128, 5.882889
104.0950, 6.226631
104.5771, 6.487038
105.0592, 6.638128
105.5413, 6.709251
106.0234, 6.713163
106.5055, 6.618408
106.9877, 6.446980
107.4698, 6.295843
107.9519, 6.288657
108.4340, 6.159407
108.9161, 5.787289
109.3982, 5.187523
109.8804, 4.552525
110.3625, 4.074412
110.8446, 3.839533
111.3267, 3.552520
111.8088, 3.509894
112.2909, 3.499813
112.7731, 3.481497
113.2552, 3.355536
113.7373, 3.078588
114.2194, 2.754328
114.7015, 2.398514
115.1836, 2.148090
115.6658, 2.105339
116.1479, 2.134816
116.6300, 2.069517
117.1121, 1.828237
117.5942, 1.524436
118.0763, 1.473631
118.5584, 1.806549
119.0406, 2.094837
119.5227, 2.227607
120.0048, 2.207376
120.4869, 2.063573
120.9690, 1.742563
121.4511, 1.329295
121.9333, 0.9855430
122.4154, 0.6887890
122.8975, 0.4985730
123.3796, 0.4986790
123.8617, 0.7062320
124.3438, 0.9555500
124.8260, 1.347312
125.3081, 1.675303
125.7902, 1.686270
126.2723, 1.200324
126.7544, 0.4668570
127.2365, 6.7685999E-02
127.7187, 0.1916030
128.2008, 0.3251360
128.6829, 0.3512840
129.1650, 0.3518600
129.6471, 0.2072190
130.1292, 2.1828000E-02
130.6114, 0.3018260
131.0935, 0.3341460
131.5756, 0.2911410
132.0577, 0.7796880
132.5398, 0.8980260
133.0219, 0.7080100
133.5041, 0.3988080
133.9862, 0.1127590
134.4683, 0.1703620
134.9504, 0.3404040
135.4325, 0.3879000
135.9146, 0.3398330
136.3968, 0.2133420
136.8789, 1.7331000E-02
137.3610, 0.2609720
137.8431, 0.6785270
138.3252, 1.297822
138.8073, 1.702933
139.2895, 1.788260
139.7716, 1.679481
140.2537, 1.486530
140.7358, 1.199842
141.2179, 0.9060800
141.7000, 0.6870960
142.1821, 0.5246620
142.6643, 0.4598940
143.1464, 0.5454730
143.6285, 0.7529920
144.1106, 0.9927650
144.5927, 1.333543
145.0748, 1.595474
145.5570, 1.626330
146.0391, 1.437106
146.5212, 1.188532
147.0033, 0.9634820
147.4854, 0.7472970
147.9675, 0.6869480
148.4497, 1.083742
148.9318, 1.500696
149.4139, 1.654187
149.8960, 1.501117
150.3781, 1.320249
150.8602, 1.576655
151.3424, 2.653876
151.8245, 3.375720
152.3066, 3.487971
152.7887, 3.345174
153.2708, 3.202209
153.7529, 3.230119
154.2351, 3.333028
154.7172, 3.334506
155.1993, 3.144514
155.6814, 2.946973
156.1635, 2.748479
156.6456, 2.552186
157.1278, 2.342406
157.6099, 2.110054
158.0920, 1.875131
158.5741, 1.728103
159.0562, 1.705009
159.5383, 1.713179
160.0205, 1.759669
160.5026, 1.824132
160.9847, 1.871188
161.4668, 1.895761
161.9489, 1.872177
162.4310, 1.720964
162.9131, 1.255167
163.3953, 0.8479660
163.8774, 0.8104930
164.3595, 1.100509
164.8416, 1.296655
165.3237, 1.083293
165.8058, 0.5973090
166.2880, 0.1697780
166.7701, 0.2380240
167.2522, 0.5188570
167.7343, 0.5001690
168.2164, 0.1281680
168.6985, 0.2866510
169.1807, 0.6115860
169.6628, 0.8609170
170.1449, 1.033094
170.6270, 1.098305
171.1091, 1.101032
171.5912, 1.145312
172.0734, 1.251605
172.5555, 1.364620
173.0376, 1.494149
173.5197, 1.611985
174.0018, 1.680132
174.4839, 1.681486
174.9661, 1.613150
175.4482, 1.451865
175.9303, 1.055922
176.4124, 0.7293790
176.8945, 0.4904120
177.3766, 0.3773160
177.8588, 0.4800770
178.3409, 0.9139170
178.8230, 1.684057
179.3051, 2.072505
179.7872, 1.772682
180.2693, 1.397070
180.7515, 1.046990
181.2336, 0.7646710
181.7157, 0.5946560
182.1978, 0.5841340
182.6799, 0.7529280
183.1620, 0.8887070
183.6441, 1.035620
184.1263, 1.117279
184.6084, 1.054065
185.0905, 0.8667100
185.5726, 0.6694440
186.0547, 0.5481400
186.5368, 0.5096800
187.0190, 0.5698980
187.5011, 0.9166030
187.9832, 1.219523
188.4653, 1.136390
188.9474, 0.6653130
189.4296, 0.2428980
189.9117, 0.3149310
190.3938, 0.8595260
190.8759, 1.168893
191.3580, 0.9479730
191.8401, 0.5528670
192.3223, 0.3986420
192.8044, 0.5711270
193.2865, 0.8198210
193.7686, 0.9154880
194.2507, 0.9010010
194.7328, 0.8654090
195.2150, 0.8391510
195.6971, 0.7987770
196.1792, 0.6958850
196.6613, 0.5058610
197.1434, 0.2914600
197.6255, 4.8234001E-02
198.1077, 0.1930380
198.5898, 0.3330620
199.0719, 0.2991660
199.5540, 0.1165670
200.0361, 0.1265780
200.5182, 0.5423180
201.0004, 0.8524090
201.4825, 0.8696570
201.9646, 0.6738970
202.4467, 0.4634890
202.9288, 0.3810950
203.4109, 0.4167240
203.8930, 0.4142370
204.3752, 0.3034110
204.8573, 0.2284840
205.3394, 0.2926150
205.8215, 0.4431150
206.3036, 0.5434870
206.7857, 0.4311320
207.2679, 8.0196001E-02
207.7500, 2.9500001E-03
208.2321, 0.5779660
208.7142, 1.091572
209.1963, 1.251319
209.6784, 1.136615
210.1606, 1.024446
210.6427, 1.187451
211.1248, 1.683817
211.6069, 1.924136
212.0890, 1.794326
212.5711, 1.544624
213.0533, 1.130164
213.5354, 0.6498570
214.0175, 0.3426130
214.4996, 0.4625390
214.9817, 1.108002
215.4638, 1.494556
215.9460, 1.400650
216.4281, 1.290786
216.9102, 1.471274
217.3923, 1.891103
217.8744, 2.227401
218.3565, 2.144131
218.8387, 1.563025
219.3208, 1.323128
219.8029, 1.752810
220.2850, 2.213553
220.7671, 2.277821
221.2492, 1.954237
221.7314, 1.561096
222.2135, 1.359988
222.6956, 1.370862
223.1777, 1.391206
223.6598, 1.454290
224.1419, 1.500527
224.6240, 1.422231
225.1062, 1.222799
225.5883, 1.110397
226.0704, 1.329303
226.5525, 1.810187
227.0346, 2.098154
227.5167, 2.091287
227.9989, 1.925500
228.4810, 1.625442
228.9631, 1.183327
229.4452, 0.9037400
229.9273, 1.183751
230.4094, 1.802893
230.8916, 2.143545
231.3737, 1.902326
231.8558, 1.448656
232.3379, 1.188829
232.8200, 1.141359
233.3021, 1.158018
233.7843, 1.168878
234.2664, 1.179120
234.7485, 1.202494
235.2306, 1.278920
235.7127, 1.340707
236.1948, 1.267756
236.6770, 1.020073
237.1591, 0.8019050
237.6412, 0.6779480
238.1233, 0.6553360
238.6054, 0.7850610
239.0875, 1.150273
239.5697, 1.580705
240.0518, 1.769259
240.5339, 1.636124
241.0160, 1.526788
241.4981, 1.643526
241.9802, 1.820395
242.4624, 1.901806
242.9445, 1.820269
243.4266, 1.634940
243.9087, 1.413364
244.3908, 1.093272
244.8729, 0.9193190
245.3550, 1.084388
245.8372, 1.348834
246.3193, 1.513265
246.8014, 1.508123
247.2835, 1.396994
247.7656, 1.280362
248.2477, 1.147306
248.7299, 1.043017
249.2120, 0.9189580
249.6941, 0.8506340
250.1762, 0.9497840
250.6583, 1.243583
251.1404, 1.578796
251.6226, 1.690160
252.1047, 1.482795
252.5868, 1.252000
253.0689, 1.003819
253.5510, 0.7603240
254.0331, 0.5056180
254.5153, 0.2473960
254.9974, 4.9284000E-02
255.4795, 3.1691998E-02
255.9616, 0.3283010
256.4437, 0.5037170
256.9258, 0.4990350
257.4080, 0.4477500
257.8901, 0.4256180
258.3722, 0.4483120
258.8543, 0.4830850
259.3364, 0.4754190
259.8185, 0.3644420
260.3007, 0.3746680
260.7828, 0.6874010
261.2649, 0.9594390
261.7470, 0.9174040
262.2291, 0.5697340
262.7112, 0.1725170
263.1934, 3.2492999E-02
263.6755, 0.2602570
264.1576, 0.3460650
264.6397, 9.8063998E-02
265.1218, 0.1074120
265.6039, 1.1148000E-02
266.0861, 0.3748420
266.5682, 0.8237840
267.0503, 1.118581
267.5324, 1.281141
268.0145, 1.221708
268.4966, 0.6896080
268.9788, 0.2299900
269.4609, 0.1589450
269.9430, 0.4049370
270.4251, 0.6782200
270.9072, 0.7441460
271.3893, 0.5960360
271.8715, 0.4132760
272.3536, 2.9727999E-02
272.8357, 0.2002200
273.3178, 5.6152999E-02
273.7999, 0.3700430
274.2820, 0.8465760
274.7642, 1.247733
275.2463, 1.583613
275.7284, 1.577563
276.2105, 0.8255520
276.6926, 0.2502940
277.1747, 0.3281350
277.6568, 0.8205310
278.1389, 1.167486
278.6211, 1.044040
279.1032, 0.5763000
279.5853, 0.3041320
280.0674, 0.3252120
280.5495, 0.3798980
281.0316, 0.4094490
281.5138, 0.4289860
281.9959, 0.4646740
282.4780, 0.5273860
282.9601, 0.6141010
283.4422, 0.7256880
283.9243, 0.9251960
284.4065, 1.033237
284.8886, 0.9296620
285.3707, 0.7342000
285.8528, 0.6393150
286.3349, 0.7170310
286.8170, 0.8551910
287.2992, 0.8456530
287.7813, 0.6213050
288.2634, 0.4890370
288.7455, 0.6157530
289.2276, 0.8125780
289.7097, 0.7989800
290.1919, 0.5023240
290.6740, 0.1846450
291.1561, 0.2164960
291.6382, 0.6649590
292.1203, 0.9269500
292.6024, 0.8232700
293.0846, 0.5748930
293.5667, 0.3746930
294.0488, 0.2485170
294.5309, 0.1707020
295.0130, 0.1288470
295.4951, 0.1238370
295.9773, 0.1070090
296.4594, 2.6099000E-02
296.9415, 3.0569000E-02
297.4236, 5.4239001E-02
297.9057, 0.2659220
298.3878, 0.4136510
298.8700, 0.3309330
299.3521, 6.1461002E-02
299.8342, 7.9682000E-02
300.3163, 2.2963000E-02
300.7984, 9.5844001E-02
301.2805, 0.2392060
301.7627, 0.3913510
302.2448, 0.4710450
302.7269, 0.3929860
303.2090, 0.2471380
303.6911, 0.3082650
304.1732, 0.7312010
304.6554, 1.090516
305.1375, 1.160398
305.6196, 1.019913
306.1017, 0.8641540
306.5838, 0.7581470
307.0659, 0.6878100
307.5481, 0.6390440
308.0302, 0.6194610
308.5123, 0.5905540
308.9944, 0.4628930
309.4765, 0.3331730
309.9586, 0.4332130
310.4408, 0.8697200
310.9229, 1.332490
311.4050, 1.309207
311.8871, 0.7772260
312.3692, 0.4699530
312.8513, 0.7859430
313.3335, 1.283424
313.8156, 1.401458
314.2977, 1.049407
314.7798, 0.5799020
315.2619, 0.2715230
315.7440, 0.1292480
316.2262, 0.1113770
316.7083, 0.3005870
317.1904, 0.5530230
317.6725, 0.8013460
318.1546, 1.031494
318.6367, 1.130007
319.1188, 0.9661610
319.6010, 0.6087380
320.0831, 0.4082730
320.5652, 0.4820200
321.0473, 0.5893460
321.5294, 0.6304640
322.0115, 0.6034950
322.4937, 0.4753150
322.9758, 0.1807360
323.4579, 0.1641040
323.9400, 0.2464960
324.4221, 7.2325997E-02
324.9042, 0.3043320
325.3864, 0.1744670
325.8685, 0.1448370
326.3506, 0.3182670
326.8327, 0.2277260
327.3148, 1.1586000E-02
327.7969, 0.1368320
328.2791, 0.2254300
328.7612, 0.2366790
329.2433, 0.1226650
329.7254, 5.0515000E-02
330.2075, 0.2590850
330.6896, 0.5050700
331.1718, 0.6257300
331.6539, 0.4184350
332.1360, 0.1470530
332.6181, 0.5562360
333.1002, 0.7077650
333.5823, 0.7608030
334.0645, 0.8446530
334.5466, 0.9516850
335.0287, 0.9692520
335.5108, 0.7902900
335.9929, 0.4518150
336.4750, 0.2414240
336.9572, 0.1986370
337.4393, 0.2219820
337.9214, 0.3060650
338.4035, 0.4250120
338.8856, 0.5102250
339.3677, 0.5212810
339.8499, 0.4996680
340.3320, 0.5711040
340.8141, 0.8427380
341.2962, 1.004239
341.7783, 0.9281490
342.2604, 0.7285370
342.7426, 0.5493090
343.2247, 0.4348100
343.7068, 0.3823480
344.1889, 0.3343100
344.6710, 0.2723740
345.1531, 0.2424130
345.6353, 0.2782960
346.1174, 0.3231980
346.5995, 0.3026600
347.0816, 0.2274170
347.5637, 0.2032120
348.0458, 0.3309720
348.5280, 0.6202710
349.0101, 0.9022720
349.4922, 1.291565
349.9743, 1.562861
350.4564, 1.567200
350.9385, 1.374216
351.4207, 1.136536
351.9028, 0.9358000
352.3849, 0.7754370
352.8670, 0.6721370
353.3491, 0.6817630
353.8312, 0.6793250
354.3134, 0.6339650
354.7955, 0.5734860
355.2776, 0.5416480
355.7597, 0.5503540
356.2418, 0.5683020
356.7239, 0.5319960
357.2061, 0.3240610
357.6882, 0.3138240
358.1703, 0.7500090
358.6524, 1.190542
359.1345, 1.275750
359.6166, 1.016377
360.0987, 0.7107970
360.5808, 0.6608810
361.0630, 0.9047010
361.5451, 1.035393
362.0272, 1.038714
362.5093, 0.9531770
362.9914, 0.6892600
363.4735, 0.3522640
363.9557, 0.1399020
364.4378, 0.1791090
364.9199, 0.4106260
365.4020, 0.5841760
365.8841, 0.6799940
366.3662, 0.7371730
366.8484, 0.6735510
367.3305, 0.6187730
367.8126, 0.7610220
368.2947, 1.141616
368.7768, 1.543808
369.2589, 1.564570
369.7411, 0.9335490
370.2232, 0.6678710
370.7053, 1.212000
371.1874, 1.761322
371.6695, 1.857984
372.1516, 1.529974
372.6338, 1.110977
373.1159, 0.8756610
373.5980, 0.8197750
374.0801, 0.8227200
374.5622, 0.9962870
375.0443, 1.087312
375.5265, 0.8820650
376.0086, 0.5733230
376.4907, 0.4883200
376.9728, 0.8298480
377.4549, 1.377809
377.9370, 1.624861
378.4192, 1.465195
378.9013, 1.301810
379.3834, 1.214622
379.8655, 1.192744
380.3476, 1.267825
380.8297, 1.441019
381.3119, 1.561419
381.7940, 1.461633
382.2761, 1.185145
382.7582, 0.9536260
383.2403, 0.7477030
383.7224, 0.6490590
384.2046, 0.7671280
384.6867, 1.060728
385.1688, 1.333056
385.6509, 1.437728
386.1330, 1.435635
386.6151, 1.488005
387.0973, 1.620914
387.5794, 1.704770
388.0615, 1.668844
388.5436, 1.527338
389.0257, 1.286221
389.5078, 0.9168420
389.9900, 0.5743830
390.4721, 0.3293780
390.9542, 0.1805210
391.4363, 0.1364650
391.9184, 0.2225840
392.4005, 0.3917220
392.8827, 0.5991820
393.3648, 0.8536080
393.8469, 1.049540
394.3290, 1.115374
394.8111, 1.106314
395.2932, 1.128633
395.7754, 1.203681
396.2575, 1.224504
396.7396, 1.113869
397.2217, 0.8764440
397.7038, 0.6304990
398.1859, 0.2868700
398.6681, 1.5943000E-02
399.1501, 1.7299999E-04
399.6323, 0.1684460
400.1144, 0.2297690
400.5965, 1.1948000E-02
401.0786, 0.3748350
401.5607, 0.2813260
402.0428, 0.6648870
402.5250, 1.301334
403.0071, 1.200957
403.4892, 0.7908010
403.9713, 0.5671290
404.4534, 0.6395980
404.9355, 0.7783600
405.4177, 0.6980990
405.8998, 0.3192480
406.3819, 0.1443990
406.8640, 0.3509200
407.3461, 0.5409650
407.8282, 0.4378550
408.3104, 0.1685570
408.7925, 0.1086960
409.2746, 0.5222250
409.7567, 1.259600
410.2388, 1.631687
410.7209, 1.216776
411.2031, 0.9672870
411.6852, 1.118883
412.1673, 1.381706
412.6494, 1.442167
413.1315, 1.234824
413.6136, 0.9740260
414.0958, 0.9730150
414.5779, 1.331874
415.0600, 1.548128
415.5421, 1.595089
416.0242, 1.516931
416.5063, 1.199816
416.9885, 0.7628930
417.4706, 0.4732660
417.9527, 0.5213760
418.4348, 0.8197270
418.9169, 1.099421
419.3990, 1.429178
419.8812, 1.576547
420.3633, 1.267316
420.8454, 0.8630940
421.3275, 0.7182680
421.8096, 0.9203180
422.2917, 1.234381
422.7739, 1.445359
423.2560, 1.554461
423.7381, 1.605386
424.2202, 1.559428
424.7023, 1.518019
425.1844, 1.620124
425.6666, 1.807334
426.1487, 1.861425
426.6308, 1.568526
427.1129, 1.145171
427.5950, 0.9483820
428.0771, 0.9937610
428.5593, 0.9937110
429.0414, 0.7513640
429.5235, 0.3885040
430.0056, 0.1747350
430.4877, 0.1387560
430.9698, 0.1880020
431.4520, 0.3460420
431.9341, 0.5467700
432.4162, 0.6522350
432.8983, 0.6234010
433.3804, 0.5270720
433.8625, 0.4291260
434.3447, 0.3283760
434.8268, 0.2431260
435.3089, 0.1920760
435.7910, 0.1412590
436.2731, 6.0975999E-02
436.7552, 4.0126000E-02
437.2374, 0.1439300
437.7195, 0.2510640
438.2016, 0.3311560
438.6837, 0.2637470
439.1658, 0.1710880
439.6479, 0.4728170
440.1301, 0.4998560
440.6122, 0.4401170
441.0943, 0.4944780
441.5764, 0.6892400
442.0585, 0.8758490
442.5406, 0.8699090
443.0227, 0.6341050
443.5049, 0.4781490
443.9870, 0.4802560
444.4691, 0.4827300
444.9512, 0.3750320
445.4333, 0.2479510
445.9154, 0.2785780
446.3976, 0.5747570
446.8797, 0.9900670
447.3618, 1.200907
447.8439, 1.166826
448.3260, 1.045740
448.8081, 0.7620060
449.2903, 0.4752430
449.7724, 0.2827890
450.2545, 0.1905740
450.7366, 0.1490960
451.2187, 0.1497880
451.7008, 0.1756850
452.1830, 0.1171740
452.6651, 0.1126970
453.1472, 0.2127740
453.6293, 0.2307680
454.1114, 0.8605680
454.5935, 1.118448
455.0757, 0.7186350
455.5578, 0.2526050
456.0399, 0.2741840
456.5220, 0.6665600
457.0041, 0.9138980
457.4862, 0.8393470
457.9684, 0.6463240
458.4505, 0.5911640
458.9326, 0.6495040
459.4147, 0.7431310
459.8968, 0.9272250
460.3789, 1.090034
460.8611, 1.167341
461.3432, 1.152237
461.8253, 1.029031
462.3074, 0.7660010
462.7895, 0.4085400
463.2716, 0.1403800
463.7538, 0.2003840
464.2359, 0.2505320
464.7180, 0.3648980
465.2001, 1.110231
465.6822, 1.365626
466.1643, 1.051221
466.6465, 0.6115430
467.1286, 0.5377220
467.6107, 0.8718970
468.0928, 1.163817
468.5749, 1.440899
469.0570, 1.644022
469.5392, 1.728659
470.0213, 1.734856
470.5034, 1.720205
470.9855, 1.710266
471.4676, 1.686552
471.9497, 1.606314
472.4319, 1.451405
472.9140, 1.320123
473.3961, 1.223638
473.8782, 1.159816
474.3603, 1.153157
474.8424, 1.185745
475.3246, 1.189033
475.8067, 1.084189
476.2888, 0.9363240
476.7709, 0.8877680
477.2530, 0.9463370
477.7351, 1.061158
478.2173, 1.264611
478.6994, 1.479964
479.1815, 1.582264
479.6636, 1.541528
480.1457, 1.479801
480.6278, 1.447551
481.1100, 1.457741
481.5920, 1.482690
482.0742, 1.510923
482.5563, 1.527266
483.0384, 1.493979
483.5205, 1.413470
484.0026, 1.382891
484.4847, 1.495642
484.9669, 1.554487
485.4490, 1.375208
485.9311, 1.109332
486.4132, 1.053810
486.8953, 1.317093
487.3774, 1.708640
487.8596, 1.914458
488.3417, 1.874670
488.8238, 1.807948
489.3059, 1.699978
489.7880, 1.583803
490.2701, 1.430060
490.7523, 1.282897
491.2344, 1.243861
491.7165, 1.388516
492.1986, 1.640638
492.6807, 1.781218
493.1628, 1.758178
493.6450, 1.766845
494.1271, 1.934735
494.6092, 2.081856
495.0913, 2.048083
495.5734, 1.843618
496.0555, 1.653356
496.5377, 1.634425
497.0198, 1.745447
497.5019, 1.858417
497.9840, 1.996999
498.4661, 2.003056
498.9482, 1.655817
499.4304, 1.181003
499.9125, 1.007412
500.3946, 1.230208
500.8767, 1.568478
501.3588, 1.950490
501.8409, 2.332365
502.3231, 2.694586
502.8052, 3.034408
503.2873, 3.206213
503.7694, 3.031913
504.2515, 2.506545
504.7336, 2.118363
505.2158, 1.830292
505.6979, 1.689892
506.1800, 1.801611
506.6621, 2.051923
507.1442, 2.306087
507.6263, 2.508973
508.1085, 2.617970
508.5906, 2.547404
509.0727, 2.230225
509.5548, 1.976161
510.0369, 1.729109
510.5190, 1.597927
511.0012, 1.694042
511.4833, 1.947034
511.9654, 2.202038
512.4475, 2.406719
512.9296, 2.517071
513.4117, 2.371874
513.8939, 1.906191
514.3760, 1.700850
514.8581, 2.109246
515.3402, 2.590591
515.8223, 2.677068
516.3044, 2.423247
516.7866, 2.146135
517.2687, 1.977644
517.7508, 1.886273
518.2329, 1.859798
518.7150, 1.890488
519.1971, 1.896779
519.6793, 1.851043
520.1614, 1.744895
520.6435, 1.532019
521.1256, 1.142437
521.6077, 0.8576300
522.0898, 0.7413230
522.5720, 0.7637480
523.0541, 0.9314320
523.5362, 1.206608
524.0183, 1.468379
524.5004, 1.633623
524.9825, 1.706975
525.4647, 1.715009
525.9468, 1.701656
526.4289, 1.570882
526.9110, 1.041684
527.3931, 0.5209460
527.8752, 0.4784380
528.3574, 0.9029520
528.8395, 1.361825
529.3216, 1.459190
529.8037, 1.257856
530.2858, 1.147168
530.7679, 1.169823
531.2501, 1.184892
531.7322, 1.167643
532.2143, 1.094125
532.6964, 0.8805180
533.1785, 0.4783270
533.6606, 0.1934840
534.1428, 0.2876140
534.6249, 0.6286560
535.1070, 0.9800390
535.5891, 1.321797
536.0712, 1.545498
536.5533, 1.583329
537.0355, 1.429565
537.5176, 1.105062
537.9997, 0.2544120
538.4818, 0.3201240
538.9639, 0.2584670
539.4460, 0.1401600
539.9282, 0.6043300
540.4103, 1.032180
540.8924, 1.268926
541.3745, 1.099541
541.8566, 0.5037050
542.3387, 0.2096070
542.8209, 0.5256530
543.3029, 0.7900390
543.7850, 0.8387670
544.2672, 0.7830950
544.7493, 0.7120550
545.2314, 0.6594410
545.7135, 0.7161480
546.1956, 1.134047
546.6777, 1.851298
547.1599, 2.045389
547.6420, 1.440201
548.1241, 0.8075040
548.6062, 0.6403120
549.0883, 0.7616040
549.5704, 0.9306530
550.0526, 1.164819
550.5347, 1.320246
551.0168, 1.274748
551.4989, 1.091489
551.9810, 0.8660830
552.4631, 0.6152700
552.9453, 0.4459750
553.4274, 0.4914340
553.9095, 0.7529000
554.3916, 0.8381170
554.8737, 0.6656170
555.3558, 0.4433610
555.8380, 0.1371600
556.3201, 0.1470480
556.8022, 0.2538910
557.2843, 0.1579720
557.7664, 4.1800001E-04
558.2485, 4.5635998E-02
558.7307, 3.0741001E-02
559.2128, 2.6289999E-02
559.6949, 0.4139540
560.1770, 0.6443210
560.6591, 0.4299180
561.1412, 4.3274999E-02
561.6234, 0.1897000
562.1055, 0.1818740
562.5876, 7.2483003E-02
563.0697, 3.4217998E-02
563.5518, 0.1458130
564.0339, 0.3212290
564.5161, 0.5982520
564.9982, 0.7745950
565.4803, 0.6337710
565.9624, 0.2693850
566.4445, 0.1062840
566.9266, 0.2469350
567.4088, 0.4402340
567.8909, 0.6283030
568.3730, 0.8087780
568.8551, 1.031574
569.3372, 1.278326
569.8193, 1.374489
570.3015, 1.111108
570.7836, 0.5208980
571.2657, 0.2588680
571.7478, 0.7550150
572.2299, 1.001630
572.7120, 0.5727870
573.1942, 6.0080001E-03
573.6763, 0.1563190
574.1584, 0.1437890
574.6405, 0.5110490
575.1226, 0.5924900
575.6047, 0.4537310
576.0869, 0.3621710
576.5690, 0.3319800
577.0511, 0.3375120
577.5332, 0.3296150
578.0153, 0.3513010
578.4974, 0.4605180
578.9796, 0.6949720
579.4617, 0.8496270
579.9438, 0.8220560
580.4259, 0.6910770
580.9080, 0.4994790
581.3901, 0.2739560
581.8723, 0.1114180
582.3544, 8.4209003E-02
582.8365, 0.1425970
583.3186, 0.1071250
583.8007, 0.3202540
584.2828, 0.3675170
584.7650, 0.3688790
585.2471, 1.130672
585.7292, 1.411734
586.2113, 1.265314
586.6934, 1.011835
587.1755, 0.8277800
587.6577, 0.7069520
588.1398, 0.6526180
588.6219, 0.6768250
589.1040, 0.6819290
589.5861, 0.6218370
590.0682, 0.5604350
590.5504, 0.5972590
591.0325, 0.7057910
591.5146, 0.7059650
591.9967, 0.4033330
592.4788, 8.8815004E-02
592.9609, 2.8705999E-02
593.4431, 0.1647410
593.9252, 0.3052840
594.4073, 0.3773750
594.8894, 0.4758840
595.3715, 0.7640210
595.8536, 1.342940
596.3358, 1.625048
596.8179, 1.558098
597.3000, 1.359028
597.7821, 0.8790840
598.2642, 0.3699550
598.7463, 0.2526070
599.2285, 0.6543010
599.7106, 1.126897
600.1927, 1.037699
600.6748, 0.4151070
601.1569, 8.7722003E-02
601.6390, 0.1908970
602.1212, 0.3769890
602.6033, 0.4628550
603.0854, 0.5024150
603.5675, 0.5769580
604.0496, 0.7084100
604.5317, 0.8388670
605.0139, 0.9762040
605.4960, 1.078974
605.9781, 1.052954
606.4602, 0.9190880
606.9423, 0.7869810
607.4244, 0.7828900
607.9066, 0.8745920
608.3887, 0.9132800
608.8708, 0.8595210
609.3529, 0.8061340
609.8350, 0.7413350
610.3171, 0.6906070
610.7993, 0.6829300
611.2814, 0.7076030
611.7635, 0.7272830
612.2456, 0.7211530
612.7277, 0.6910330
613.2098, 0.6164060
613.6920, 0.4861300
614.1741, 0.4412490
614.6562, 0.5817610
615.1383, 0.7570790
615.6204, 0.8124210
616.1025, 0.7543080
616.5847, 0.6509960
617.0668, 0.3889230
617.5489, 0.2209040
618.0310, 0.4035090
618.5131, 0.7814670
618.9952, 1.039767
619.4774, 1.069642
619.9595, 1.028420
620.4416, 1.184875
620.9237, 1.582910
621.4058, 1.606886
621.8879, 0.7127440
622.3701, 0.1114910
622.8522, 0.2379110
623.3343, 0.6685970
623.8164, 1.026801
624.2985, 1.219027
624.7806, 1.252425
625.2628, 1.053643
625.7448, 0.7100710
626.2269, 0.4338810
626.7090, 0.2252720
627.1912, 0.1457630
627.6733, 0.2704270
628.1554, 0.4949120
628.6375, 0.5996580
629.1196, 0.5359710
629.6017, 0.5965300
630.0839, 1.079019
630.5660, 1.472725
631.0481, 1.298651
631.5302, 0.7458360
632.0123, 0.3576690
632.4944, 0.3643170
632.9766, 0.5352880
633.4587, 0.4227830
633.9408, 9.8536000E-02
634.4229, 0.2379630
634.9050, 0.3529390
635.3871, 0.8874140
635.8693, 1.020232
636.3514, 0.8851070
636.8335, 0.6427360
637.3156, 0.2896170
637.7977, 3.9377000E-02
638.2798, 0.1092720
638.7620, 0.3467750
639.2441, 0.4940260
639.7262, 0.5183580
640.2083, 0.4571310
640.6904, 0.3138190
641.1725, 0.1270220
641.6547, 3.9750002E-03
642.1368, 2.9293999E-02
642.6189, 5.3226002E-02
643.1010, 0.3481810
643.5831, 0.6220630
644.0652, 0.7152280
644.5474, 0.6624050
645.0295, 0.5795180
645.5116, 0.5233120
645.9937, 0.4844490
646.4758, 0.4280410
646.9579, 0.3549770
647.4401, 0.3906240
647.9222, 0.5977240
648.4043, 0.8236310
648.8864, 0.9828050
649.3685, 1.067073
649.8506, 1.034977
650.3328, 0.7458290
650.8149, 0.5500100
651.2970, 0.6665430
651.7791, 0.9101430
652.2612, 1.104371
652.7433, 1.204751
653.2255, 1.155872
653.7076, 0.8833300
654.1897, 0.5022110
654.6718, 0.4853220
655.1539, 1.065259
655.6360, 1.444561
656.1182, 1.389766
656.6003, 1.207862
657.0824, 0.9811070
657.5645, 0.7580550
658.0466, 0.6610550
658.5287, 0.8084440
659.0109, 0.9808290
659.4930, 0.9765090
659.9751, 0.8335360
660.4572, 0.6207110
660.9393, 0.3487310
661.4214, 0.1620880
661.9036, 0.2249890
662.3857, 0.4976430
662.8678, 0.5486590
663.3499, 1.9750001E-02
663.8320, 0.2550960
664.3141, 3.9287001E-02
664.7963, 0.4260500
665.2784, 0.4872150
665.7605, 0.2659440
666.2426, 0.1105690
666.7247, 0.2340900
667.2068, 0.4992480
667.6890, 0.6583500
668.1711, 0.7129110
668.6532, 0.7041390
669.1353, 0.6201900
669.6174, 0.5257400
670.0995, 0.4922230
670.5817, 0.5098350
671.0638, 0.4806720
671.5459, 0.3356390
672.0280, 0.2269730
672.5101, 0.1867520
672.9922, 0.2173380
673.4744, 0.3811920
673.9565, 0.6404420
674.4386, 0.8229130
674.9207, 0.7967720
675.4028, 0.5984870
675.8849, 0.2887610
676.3671, 0.2162180
676.8492, 0.4428050
677.3313, 9.5677003E-02
677.8134, 0.3303170
678.2955, 0.3827510
678.7776, 0.1750890
679.2598, 0.1190690
679.7419, 0.4369760
680.2240, 0.7624820
680.7061, 0.9015950
681.1882, 0.9034500
681.6703, 0.8005580
682.1525, 0.6208540
682.6346, 0.4727220
683.1167, 0.4454950
683.5988, 0.5226730
684.0809, 0.6360820
684.5630, 0.8520390
685.0452, 0.9580430
685.5273, 0.8027850
686.0094, 0.6383610
686.4915, 0.6698680
686.9736, 0.8168810
687.4557, 0.8083560
687.9379, 0.4421530
688.4200, 6.8207003E-02
688.9021, 1.5648000E-02
689.3842, 0.1897720
689.8663, 0.4262180
690.3484, 0.6893790
690.8306, 0.8172720
691.3127, 0.6492770
691.7948, 0.2577620
692.2769, 6.0072001E-02
692.7590, 0.2820930
693.2411, 0.3908840
693.7233, 0.2898560
694.2054, 0.1428060
694.6875, 1.6610000E-02
695.1696, 0.1361310
695.6517, 9.6712001E-02
696.1339, 0.2022430
696.6160, 0.5385460
697.0981, 0.6597570
697.5802, 0.6113830
698.0623, 0.5508110
698.5444, 0.5014540
699.0266, 0.4340230
699.5087, 0.3101450
699.9908, 0.1617690
700.4729, 0.1147880
700.9550, 0.2884330
701.4371, 0.3863950
701.9193, 0.2506320
702.4014, 0.1552790
702.8835, 0.3511190
703.3656, 0.7145460
703.8477, 0.9627660
704.3298, 0.9688910
704.8120, 0.8678470
705.2941, 0.8304690
705.7762, 0.8318170
706.2583, 0.7072870
706.7404, 0.4225010
707.2225, 0.2291130
707.7046, 0.3148470
708.1867, 0.5906560
708.6688, 0.8339510
709.1509, 1.058434
709.6331, 1.218278
710.1152, 1.350110
710.5973, 1.378572
711.0794, 1.181318
711.5615, 0.8701140
712.0436, 0.6314200
712.5258, 0.5326040
713.0079, 0.5234110
713.4900, 0.6122490
713.9721, 0.7506930
714.4542, 0.6789370
714.9363, 0.3478560
715.4185, 7.4858002E-02
715.9006, 1.2293000E-02
716.3827, 8.0780998E-02
716.8648, 0.1636910
717.3469, 0.2669570
717.8290, 0.3470690
718.3112, 0.4192290
718.7933, 0.4469620
719.2754, 0.3122310
719.7575, 0.1631790
720.2396, 0.2616240
720.7217, 0.6457910
721.2039, 1.040981
721.6860, 1.197901
722.1681, 1.160426
722.6502, 0.8597920
723.1323, 0.2328960
723.6144, 0.1337550
724.0966, 3.3194002E-02
724.5787, 0.4038020
725.0608, 0.6094020
725.5429, 0.6547460
726.0250, 0.7073220
726.5071, 0.8163600
726.9893, 0.8860910
727.4714, 0.8884440
727.9535, 0.8298460
728.4356, 0.6655890
728.9177, 0.4307410
729.3998, 0.2860300
729.8820, 0.3733740
730.3641, 0.5827360
730.8462, 0.6365460
731.3283, 0.5262740
731.8104, 0.5188130
732.2925, 0.7044340
732.7747, 0.9154770
733.2568, 1.056657
733.7389, 1.108344
734.2210, 0.9793990
734.7031, 0.3975080
735.1852, 9.7626999E-02
735.6674, 0.4787610
736.1495, 0.9509340
736.6316, 1.033045
737.1137, 0.7783330
737.5958, 0.4479520
738.0779, 0.1562440
738.5601, 3.2512002E-02
739.0422, 1.3002000E-02
739.5243, 0.2027010
740.0064, 0.5584770
740.4885, 1.114261
740.9706, 1.504503
741.4528, 1.484248
741.9349, 1.196892
742.4170, 0.9334670
742.8991, 0.6677230
743.3812, 0.5083840
743.8633, 0.4806690
744.3455, 0.5448310
744.8276, 0.7469170
745.3097, 1.009701
745.7918, 1.249852
746.2739, 1.432590
746.7560, 1.509070
747.2382, 1.419487
747.7203, 1.189754
748.2024, 0.8043620
748.6845, 0.2522470
749.1666, 4.4615000E-02
749.6487, 0.4415110
750.1309, 1.030612
750.6130, 1.359796
751.0951, 1.416195
751.5772, 1.364365
752.0593, 1.092096
752.5414, 0.8651550
753.0236, 0.7502760
753.5057, 0.6983820
753.9878, 0.6970360
754.4699, 0.7077800
754.9520, 0.6331370
755.4341, 0.3625690
755.9163, 9.7834997E-02
756.3984, 0.2326990
756.8805, 0.6410430
757.3626, 0.7141640
757.8447, 0.3327810
758.3268, 7.2489999E-02
758.8090, 0.2096550
759.2911, 0.1309110
759.7732, 5.2649998E-03
760.2553, 0.2623370
760.7374, 0.4015970
761.2195, 0.2852580
761.7017, 0.1837630
762.1838, 0.3084170
762.6659, 0.5024620
763.1480, 0.4593310
763.6301, 8.2831003E-02
764.1122, 0.2282720
764.5944, 7.1687996E-02
765.0765, 0.2807030
765.5586, 0.3468420
766.0407, 0.1767950
766.5228, 0.1806390
767.0049, 0.5291570
767.4871, 0.9405030
767.9692, 1.029562
768.4513, 0.7806120
768.9334, 0.6277590
769.4155, 0.6844160
769.8976, 0.6497480
770.3798, 0.2523630
770.8619, 9.5622003E-02
771.3440, 3.9820001E-02
771.8261, 0.5619840
772.3082, 0.9037070
772.7903, 0.7611250
773.2725, 0.5240560
773.7546, 0.3989660
774.2367, 0.3827380
774.7188, 0.5539280
775.2009, 0.8639270
775.6830, 1.017068
776.1652, 0.7992900
776.6473, 0.3949500
777.1294, 0.2540020
777.6115, 0.4187640
778.0936, 0.5633290
778.5757, 0.6671690
779.0579, 0.7506680
779.5400, 0.8354040
780.0221, 0.9008600
780.5042, 0.8929490
780.9863, 0.7870730
781.4684, 0.7452210
781.9506, 0.9932400
782.4327, 1.178355
782.9148, 0.9542370
783.3969, 0.5590510
783.8790, 0.4299740
784.3611, 0.6588210
784.8433, 0.9531070
785.3254, 1.063525
785.8075, 1.021721
786.2896, 0.8762110
786.7717, 0.6246040
787.2538, 0.4904570
787.7360, 0.5648980
788.2181, 0.6596820
788.7002, 0.5809180
789.1823, 0.3600380
789.6644, 0.2676140
790.1465, 0.4752680
790.6286, 0.5579850
791.1107, 0.3827990
791.5928, 0.1676650
792.0750, 2.4937000E-02
792.5571, 4.0847000E-02
793.0392, 4.1800998E-02
793.5213, 4.5736998E-02
794.0034, 0.1382920
794.4855, 0.2265140
794.9677, 0.3101110
795.4498, 0.3545870
795.9319, 0.3672620
796.4140, 0.4176330
796.8961, 0.5428150
797.3782, 0.6511510
797.8604, 0.5874840
798.3425, 0.3353110
798.8246, 0.3440440
799.3067, 0.9038520
799.7888, 1.199351
800.2709, 0.7436880
800.7531, 0.1744050
801.2352, 6.8083003E-02
801.7173, 4.1689998E-03
802.1994, 0.1875270
802.6815, 0.5705290
803.1636, 0.9103410
803.6458, 1.063106
804.1279, 1.117137
804.6100, 1.180681
805.0921, 1.262747
805.5742, 1.267946
806.0563, 1.130060
806.5385, 0.9693520
807.0206, 1.037648
807.5027, 1.304958
807.9848, 1.293886
808.4669, 0.9099190
808.9490, 0.6528460
809.4312, 0.8133950
809.9133, 1.120028
810.3954, 1.148490
810.8775, 0.8360010
811.3596, 0.6545880
811.8417, 0.6895660
812.3239, 0.7451040
812.8060, 0.8548200
813.2881, 0.8995440
813.7702, 0.6735530
814.2523, 0.2554900
814.7344, 1.0698000E-02
815.2166, 0.1832700
815.6987, 0.4652690
816.1808, 0.4813430
816.6629, 0.3695610
817.1450, 0.5244270
817.6271, 0.9524260
818.1093, 1.264760
818.5914, 1.230413
819.0735, 1.029125
819.5556, 1.019051
820.0377, 1.242493
820.5198, 1.395685
821.0020, 1.491703
821.4841, 1.493000
821.9662, 1.315748
822.4483, 1.084720
822.9304, 0.8717370
823.4125, 0.6793780
823.8947, 0.6195920
824.3768, 0.8447050
824.8589, 1.050952
825.3410, 1.137470
825.8231, 1.116249
826.3052, 0.9220690
826.7874, 0.6256350
827.2695, 0.4609690
827.7516, 0.5717980
828.2337, 0.8072130
828.7158, 1.036917
829.1979, 1.209652
829.6801, 1.066128
830.1622, 0.5819030
830.6443, 0.2618740
831.1264, 0.3811360
831.6085, 0.7307790
832.0906, 0.9897730
832.5728, 1.164211
833.0549, 1.189007
833.5370, 0.8605750
834.0191, 0.6781220
834.5012, 0.9871410
834.9833, 1.291312
835.4655, 1.077624
835.9476, 0.4528100
836.4297, 4.3508001E-02
836.9118, 0.1776090
837.3939, 0.3389000
837.8760, 0.1343730
838.3582, 0.1200950
838.8403, 5.0487000E-02
839.3224, 0.5281750
839.8045, 0.7705930
840.2866, 0.5197440
840.7687, 0.1655640
841.2509, 0.3252310
841.7330, 0.8817720
842.2151, 1.102326
842.6972, 0.9483900
843.1793, 0.7391050
843.6614, 0.5623320
844.1436, 0.4798480
844.6257, 0.6117890
845.1078, 0.9485850
845.5899, 1.033987
846.0720, 0.6043690
846.5541, 0.3087040
847.0363, 0.2341350
847.5184, 0.2760620
848.0005, 0.4581560
848.4826, 0.6892960
848.9647, 0.7899520
849.4468, 0.7118940
849.9290, 0.5142640
850.4111, 2.6879000E-02
850.8932, 0.4689810
851.3753, 0.1672340
851.8574, 0.5681000
852.3395, 0.9549520
852.8217, 0.7733840
853.3038, 0.4349150
853.7859, 0.3175570
854.2680, 0.3745900
854.7501, 0.4805130
855.2322, 0.6354360
855.7144, 0.7979560
856.1965, 0.9710950
856.6786, 1.094798
857.1607, 1.106174
857.6428, 1.046555
858.1249, 1.056512
858.6071, 1.232530
859.0892, 1.262866
859.5713, 0.9854820
860.0534, 0.7682020
860.5355, 0.8927400
861.0176, 1.065825
861.4998, 0.8551640
861.9819, 0.2499900
862.4640, 0.1941660
862.9461, 0.2464080
863.4282, 7.8057997E-02
863.9103, 0.4363340
864.3925, 0.9697330
864.8746, 0.9191890
865.3567, 0.3712580
865.8388, 2.4137000E-02
866.3209, 0.3001800
866.8030, 0.8367960
867.2852, 1.126822
867.7673, 1.190439
868.2494, 1.070212
868.7315, 0.7597130
869.2136, 0.6152140
869.6957, 0.8334420
870.1779, 1.099106
870.6600, 0.9439520
871.1421, 0.3611430
871.6242, 0.1583440
872.1063, 0.6125630
872.5884, 0.9584910
873.0705, 1.021904
873.5526, 0.9875920
874.0347, 0.8923810
874.5168, 0.7926030
874.9990, 0.8294790
875.4811, 1.079472
875.9632, 1.300150
876.4453, 1.463579
876.9274, 1.512457
877.4095, 1.309950
877.8917, 0.9981890
878.3738, 0.8142780
878.8559, 0.8098490
879.3380, 0.8589230
879.8201, 0.8703340
880.3022, 0.8784020
880.7844, 1.005662
881.2665, 1.181570
881.7486, 1.098471
882.2307, 0.7229830
882.7128, 0.3395310
883.1949, 0.1184690
883.6771, 4.3841001E-02
884.1592, 0.1275630
884.6413, 0.4194680
885.1234, 0.4566010
885.6055, 6.4847000E-02
886.0876, 0.1423660
886.5698, 0.1517320
887.0519, 0.6142750
887.5340, 0.9226500
888.0161, 1.075517
888.4982, 1.078592
888.9803, 0.7391270
889.4625, 0.5222820
889.9446, 0.5526290
890.4267, 0.6872370
890.9088, 0.9545250
891.3909, 1.215262
891.8730, 1.187377
892.3552, 0.7825930
892.8373, 0.3671530
893.3194, 0.1056070
893.8015, 7.1999999E-03
894.2836, 0.1412760
894.7657, 0.4302160
895.2479, 0.7639060
895.7300, 1.089649
896.2121, 1.304254
896.6942, 1.353280
897.1763, 1.243998
897.6584, 0.9413240
898.1406, 0.4751050
898.6227, 0.1297310
899.1048, 6.7419998E-02
899.5869, 0.1432500
900.0690, 8.9694001E-02
900.5511, 2.0641999E-02
901.0333, 8.1854001E-02
901.5154, 9.1798000E-02
901.9975, 9.1954000E-02
902.4796, 2.5940000E-03
902.9617, 5.4568000E-02
903.4438, 0.4425290
903.9260, 0.8366550
904.4081, 1.033069
904.8902, 1.061807
905.3723, 0.9850080
905.8544, 0.7655690
906.3365, 0.5658560
906.8187, 0.3975250
907.3008, 0.2899200
907.7829, 0.2967580
908.2650, 0.3555020
908.7471, 0.3592500
909.2292, 0.3439930
909.7114, 0.3536790
910.1935, 0.4312520
910.6756, 0.4983770
911.1577, 0.4356750
911.6398, 0.3218560
912.1219, 0.3324900
912.6041, 0.4501840
913.0862, 0.4777720
913.5683, 0.3215890
914.0504, 0.1805980
914.5325, 0.3792300
915.0146, 0.8334280
915.4968, 1.077394
915.9789, 1.109798
916.4610, 0.9261020
916.9431, 0.4722410
917.4252, 3.3177000E-02
917.9073, 0.1728210
918.3895, 0.1667530
918.8716, 1.4405000E-02
919.3537, 0.3608700
919.8358, 0.7019600
920.3179, 1.138437
920.8000, 1.329616
921.2822, 0.9116070
921.7643, 0.3416710
922.2464, 0.1128260
922.7285, 0.2232670
923.2106, 0.3954230
923.6927, 0.7249730
924.1749, 0.9307840
924.6570, 0.8788010
925.1391, 0.7215390
925.6212, 0.5132450
926.1033, 0.3126760
926.5854, 0.2246090
927.0676, 0.2825330
927.5497, 0.3467380
928.0318, 0.2560480
928.5139, 0.1885990
928.9960, 0.3764200
929.4781, 0.7058700
929.9603, 0.9763640
930.4424, 1.144521
930.9245, 1.235354
931.4066, 1.265436
931.8887, 1.224957
932.3708, 1.035892
932.8530, 0.7596660
933.3351, 0.7089020
933.8172, 0.8803820
934.2993, 0.9098250
934.7814, 0.6525060
935.2635, 0.3065390
935.7457, 6.8727002E-02
936.2278, 5.6651000E-02
936.7099, 9.8639997E-03
937.1920, 0.2798790
937.6741, 0.4067460
938.1563, 0.2103600
938.6384, 0.1185020
939.1205, 0.5019360
939.6026, 1.028174
940.0847, 1.046242
940.5668, 0.3576420
941.0490, 2.7356001E-02
941.5311, 0.3976660
942.0132, 0.6616460
942.4953, 0.5317970
942.9774, 0.3681040
943.4595, 0.5002450
943.9417, 0.7953940
944.4238, 0.9150030
944.9059, 0.7394160
945.3880, 0.5396230
945.8701, 0.3317440
946.3522, 0.2334380
946.8344, 0.3176830
947.3165, 0.5075070
947.7986, 0.7198070
948.2807, 0.9148170
948.7628, 1.021378
949.2449, 0.9710810
949.7271, 0.8981060
950.2092, 0.9560100
950.6913, 1.059572
951.1734, 1.045960
951.6555, 0.9537410
952.1376, 0.9855250
952.6198, 1.191657
953.1019, 1.323886
953.5840, 1.092518
954.0661, 0.6837520
954.5482, 0.5663350
955.0303, 0.6985270
955.5124, 0.7974020
955.9945, 0.8288710
956.4766, 0.9067960
956.9587, 1.063580
957.4409, 1.240561
957.9230, 1.346940
958.4051, 1.384484
958.8872, 1.239131
959.3693, 0.8314910
959.8514, 0.5910200
960.3336, 0.6578510
960.8157, 0.8028070
961.2978, 0.8654500
961.7799, 0.8722490
962.2620, 0.8986060
962.7441, 0.9666930
963.2263, 1.016174
963.7084, 1.062252
964.1905, 1.044143
964.6726, 0.8967060
965.1547, 0.7170420
965.6368, 0.5711220
966.1190, 0.4633480
966.6011, 0.4046790
967.0832, 0.4323440
967.5653, 0.4349620
968.0474, 0.3272040
968.5295, 0.2548320
969.0117, 0.3166400
969.4938, 0.4558910
969.9759, 0.6053480
970.4580, 0.7510700
970.9401, 0.8958950
971.4222, 1.142969
971.9044, 1.224342
972.3865, 0.7186830
972.8686, 0.1592060
973.3507, 0.2044760
973.8328, 0.6594230
974.3149, 1.004396
974.7971, 1.077766
975.2792, 1.022373
975.7613, 0.8839030
976.2434, 0.7417550
976.7255, 0.7301610
977.2076, 0.7758330
977.6898, 0.6972660
978.1719, 0.5145240
978.6540, 0.4528980
979.1361, 0.6183730
979.6182, 0.8305640
980.1003, 0.8089010
980.5825, 0.6733380
981.0646, 0.8955610
981.5467, 1.419154
982.0288, 1.827294
982.5109, 2.035609
982.9930, 1.949636
983.4752, 1.469126
983.9573, 0.8367210
984.4394, 0.5310000
984.9215, 0.5548670
985.4036, 0.4872500
985.8857, 0.2838590
986.3679, 0.2840310
986.8500, 0.6382030
987.3321, 1.029733
987.8142, 1.232815
988.2963, 1.246942
988.7784, 1.037912
989.2606, 0.4813210
989.7427, 0.1448710
990.2248, 6.2047001E-02
990.7069, 0.1459220
991.1890, 0.4968150
991.6711, 0.8652810
992.1533, 1.014088
992.6354, 0.9694140
993.1175, 0.8808380
993.5996, 0.6921070
994.0817, 0.5598700
994.5638, 0.4686920
995.0460, 0.4599600
995.5281, 0.7434160
996.0102, 0.9836560
996.4923, 0.6677170
996.9744, 0.1051040
997.4565, 0.4892400
997.9387, 0.1279610
998.4208, 0.3020450
998.9029, 0.8608780
999.3850, 1.197054
999.8671, 0.8790010
1000.349, 0.3050820
1000.831, 4.5880001E-02
1001.313, 0.1615910
1001.796, 0.3352660
1002.278, 0.5589470
1002.760, 0.6241370
1003.242, 0.1503250
1003.724, 0.2883830
1004.206, 1.7362000E-02
1004.688, 0.6529570
1005.170, 1.011836
1005.653, 0.9135480
1006.135, 0.8731810
1006.617, 1.413551
1007.099, 1.880762
1007.581, 1.434884
1008.063, 0.6722920
1008.545, 0.4799210
1009.027, 0.7556070
1009.509, 0.9751240
1009.992, 0.9453550
1010.474, 0.7579400
1010.956, 0.3787160
1011.438, 1.5429000E-02
1011.920, 0.1035990
1012.402, 0.4185870
1012.884, 0.3519740
1013.366, 5.9836999E-02
1013.849, 0.2611410
1014.331, 1.3967000E-02
1014.813, 0.3396780
1015.295, 0.3894460
1015.777, 0.2823660
1016.259, 0.4447890
1016.741, 0.7953750
1017.223, 0.9163330
1017.705, 0.7655380
1018.188, 0.6442020
1018.670, 0.7129210
1019.152, 0.7669200
1019.634, 0.4465940
1020.116, 0.1099320
1020.598, 0.1614790
1021.080, 0.2699900
1021.562, 0.5893910
1022.044, 0.6911080
1022.527, 0.7348960
1023.009, 0.8123370
1023.491, 0.8855410
1023.973, 0.8900800
1024.455, 0.8291790
1024.937, 0.7454310
1025.419, 0.6327230
1025.901, 0.5637370
1026.384, 0.5699230
1026.866, 0.5170630
1027.348, 0.2738870
1027.830, 2.9439000E-02
1028.312, 0.1746400
1028.794, 0.7477310
1029.276, 1.066626
1029.758, 1.025933
1030.240, 0.9382950
1030.723, 0.8323190
1031.205, 0.8271940
1031.687, 1.065606
1032.169, 1.384013
1032.651, 1.434347
1033.133, 1.176190
1033.615, 0.9872420
1034.097, 0.8591000
1034.579, 0.8320950
1035.062, 1.038937
1035.544, 1.148795
1036.026, 0.8065400
1036.508, 0.3017790
1036.990, 0.2952510
1037.472, 0.9286690
1037.954, 1.260266
1038.436, 1.064679
1038.919, 0.9267080
1039.401, 1.039952
1039.883, 1.136230
1040.365, 1.006229
1040.847, 0.7498630
1041.329, 0.5558210
1041.811, 0.4042870
1042.293, 0.4151650
1042.776, 0.7799980
1043.258, 1.044482
1043.740, 1.063749
1044.222, 1.008242
1044.704, 0.9847550
1045.186, 0.9697700
1045.668, 0.9146720
1046.150, 0.8164410
1046.632, 0.6791760
1047.115, 0.3567140
1047.597, 0.1978370
1048.079, 0.3655760
1048.561, 0.6492020
1049.043, 1.007817
1049.525, 1.339324
1050.007, 1.461505
1050.489, 1.338925
1050.971, 1.180771
1051.454, 0.8760060
1051.936, 0.7475070
1052.418, 1.142470
1052.900, 1.503864
1053.382, 1.306214
1053.864, 0.8320960
1054.346, 0.6643030
1054.828, 0.8868250
1055.311, 0.9701980
1055.793, 0.6302930
1056.275, 0.4281150
1056.757, 0.7117140
1057.239, 1.041350
1057.721, 1.058738
1058.203, 0.8972690
1058.685, 0.8668040
1059.167, 1.007597
1059.650, 0.9603750
1060.132, 0.3641320
1060.614, 0.1032200
1061.096, 0.1850490
1061.578, 6.9577999E-02
1062.060, 0.3278640
1062.542, 0.7607880
1063.024, 0.8177580
1063.506, 0.4672830
1063.989, 0.1948280
1064.471, 0.2496190
1064.953, 0.3088410
1065.435, 0.1354170
1065.917, 1.9218000E-02
1066.399, 0.2692420
1066.881, 0.6827440
1067.363, 0.9321600
1067.846, 0.9777380
1068.328, 0.9949500
1068.810, 1.032144
1069.292, 1.081276
1069.774, 1.141965
1070.256, 1.211971
1070.738, 1.318516
1071.220, 1.412374
1071.703, 1.423236
1072.185, 1.376963
1072.667, 1.314669
1073.149, 1.285646
1073.631, 1.168246
1074.113, 0.7281470
1074.595, 0.3646360
1075.077, 0.4198490
1075.559, 0.7044380
1076.042, 1.047027
1076.524, 1.361203
1077.006, 1.436804
1077.488, 1.094660
1077.970, 0.8501380
1078.452, 1.185193
1078.934, 1.464208
1079.416, 1.107801
1079.898, 0.5218420
1080.380, 0.1397190
1080.863, 1.2104000E-02
1081.345, 9.3043998E-02
1081.827, 0.4143570
1082.309, 0.7159350
1082.791, 0.9410960
1083.273, 1.029980
1083.755, 0.8423310
1084.237, 0.5778420
1084.720, 0.4917000
1085.202, 0.5099410
1085.684, 0.3291760
1086.166, 0.1658800
1086.648, 0.4726000
1087.130, 0.2518020
1087.612, 5.2932002E-02
1088.094, 0.3088810
1088.577, 0.4598450
1089.059, 0.3351700
1089.541, 0.1086420
1090.023, 0.1832520
1090.505, 0.6428290
1090.987, 0.9983050
1091.469, 1.023388
1091.951, 0.9674400
1092.433, 0.8513510
1092.916, 0.7784180
1093.398, 0.8597420
1093.880, 1.027437
1094.362, 1.223400
1094.844, 1.415849
1095.326, 1.379326
1095.808, 0.7902390
1096.290, 0.3357590
1096.772, 0.3016250
1097.255, 0.4059840
1097.737, 0.5516120
1098.219, 0.6746630
1098.701, 0.7204450
1099.183, 0.6801700
1099.665, 0.5388200
1100.147, 0.1779420
1100.629, 4.7809001E-02
1101.112, 3.4180999E-02
1101.594, 0.1233490
1102.076, 0.4978970
1102.558, 0.9017640
1103.040, 1.166271
1103.522, 1.286234
1104.004, 1.279003
1104.486, 1.072256
1104.969, 0.9798600
1105.451, 1.294997
1105.933, 1.422750
1106.415, 0.9036060
1106.897, 0.3485960
1107.379, 0.3060150
1107.861, 0.6009490
1108.343, 0.7571010
1108.825, 0.7029030
1109.307, 0.7238750
1109.790, 1.032741
1110.272, 1.150647
1110.754, 0.7056190
1111.236, 0.3350300
1111.718, 0.5539640
1112.200, 1.030094
1112.682, 1.182135
1113.164, 0.9813700
1113.647, 0.9392690
1114.129, 1.270504
1114.611, 1.402449
1115.093, 1.216242
1115.575, 0.9325520
1116.057, 0.5728800
1116.539, 0.2256300
1117.021, 2.6675999E-02
1117.504, 0.1786200
1117.986, 0.1810790
1118.468, 4.6620999E-02
1118.950, 0.1963790
1119.432, 0.1789180
1119.914, 0.3097900
1120.396, 0.8075590
1120.878, 1.269926
1121.360, 1.323307
1121.843, 1.098925
1122.325, 0.9793600
1122.807, 0.9653630
1123.289, 1.033419
1123.771, 1.250922
1124.253, 1.310115
1124.735, 1.087874
1125.217, 0.8600010
1125.699, 0.7908740
1126.182, 0.8452140
1126.664, 0.9809460
1127.146, 1.190220
1127.628, 1.338135
1128.110, 1.428728
1128.592, 1.413207
1129.074, 1.281201
1129.556, 1.056373
1130.039, 0.7350080
1130.521, 0.4005910
1131.003, 0.1194600
1131.485, 5.1270999E-02
1131.967, 0.1889240
1132.449, 0.8016400
1132.931, 1.013605
1133.413, 0.7956090
1133.896, 0.7731440
1134.378, 1.136798
1134.860, 1.383156
1135.342, 1.094641
1135.824, 0.5989810
1136.306, 0.5088690
1136.788, 0.7182810
1137.270, 0.8769810
1137.752, 0.9573090
1138.234, 0.8031740
1138.717, 0.4277290
1139.199, 9.5753998E-02
1139.681, 5.9840001E-02
1140.163, 1.9764001E-02
1140.645, 0.5289560
1141.127, 1.197287
1141.609, 1.604516
1142.091, 1.755217
1142.574, 1.517400
1143.056, 1.034129
1143.538, 0.7748910
1144.020, 0.8601170
1144.502, 1.032873
1144.984, 1.216005
1145.466, 1.291114
1145.948, 1.020880
1146.431, 0.6305290
1146.913, 0.2804340
1147.395, 8.5974000E-02
1147.877, 0.3554740
1148.359, 0.9899580
1148.841, 1.386455
1149.323, 1.235969
1149.805, 1.014297
1150.287, 1.071047
1150.770, 1.167928
1151.252, 1.092541
1151.734, 0.9781830
1152.216, 1.018449
1152.698, 1.132868
1153.180, 1.072381
1153.662, 0.7866350
1154.144, 0.6144510
1154.626, 0.8235340
1155.109, 0.9437380
1155.591, 0.7629570
1156.073, 0.5096270
1156.555, 0.2324550
1157.037, 2.7031001E-02
1157.519, 4.6410002E-02
1158.001, 0.2594500
1158.483, 0.4031310
1158.966, 0.4288310
1159.448, 0.4543650
1159.930, 0.4549490
1160.412, 0.4946200
1160.894, 0.5986670
1161.376, 0.7376730
1161.858, 0.8854430
1162.340, 1.058672
1162.822, 1.328829
1163.305, 1.735253
1163.787, 1.809180
1164.269, 1.426396
1164.751, 1.056884
1165.233, 0.7238840
1165.715, 0.5262010
1166.197, 0.5244730
1166.679, 0.6521190
1167.161, 0.8621190
1167.644, 1.103984
1168.126, 1.127265
1168.608, 0.9187530
1169.090, 0.9377280
1169.572, 1.211048
1170.054, 1.441055
1170.536, 1.548665
1171.018, 1.472329
1171.500, 1.146902
1171.983, 0.7729700
1172.465, 0.6712230
1172.947, 0.7834580
1173.429, 1.022222
1173.911, 1.297156
1174.393, 1.200416
1174.875, 0.7654810
1175.357, 0.3333540
1175.840, 6.7221999E-02
1176.322, 2.0137001E-02
1176.804, 0.2360060
1177.286, 0.6026170
1177.768, 1.238242
1178.250, 1.750866
1178.732, 1.341311
1179.214, 0.4514480
1179.697, 3.6449999E-02
1180.179, 1.7619999E-02
1180.661, 0.1901280
1181.143, 0.4773210
1181.625, 0.7544410
1182.107, 1.098504
1182.589, 1.254171
1183.071, 0.8111060
1183.553, 0.3161720
1184.036, 0.3855170
1184.518, 0.7602170
1185.000, 0.8635620
1185.482, 0.6303080
1185.964, 0.5045770
1186.446, 0.6368570
1186.928, 0.7907200
1187.410, 1.092831
1187.892, 1.201952
1188.375, 0.6363740
1188.857, 0.1137750
1189.339, 0.4437410
1189.821, 1.296807
1190.303, 1.684927
1190.785, 1.518807
1191.267, 1.419952
1191.749, 1.445477
1192.232, 1.358933
1192.714, 1.055986
1193.196, 0.8491040
1193.678, 0.9258290
1194.160, 1.077422
1194.642, 1.038359
1195.124, 0.8737210
1195.606, 0.8625340
1196.089, 0.9982860
1196.571, 1.165919
1197.053, 1.345420
1197.535, 1.194708
1198.017, 0.6561510
1198.499, 0.2368050
1198.981, 0.2547650
1199.463, 0.4860040
1199.945, 0.6602650
1200.427, 0.8173940
1200.910, 1.158624
1201.392, 1.496695
1201.874, 1.265443
1202.356, 0.6597620
1202.838, 0.4506790
1203.320, 0.7867870
1203.802, 1.064182
1204.284, 0.9318880
1204.767, 0.6375420
1205.249, 0.2637960
1205.731, 8.5713997E-02
1206.213, 0.4622590
1206.695, 0.6592540
1207.177, 0.2806790
1207.659, 0.4498010
1208.141, 0.8966930
1208.624, 0.9210120
1209.106, 0.9974800
1209.588, 1.302997
1210.070, 1.519609
1210.552, 1.550030
1211.034, 1.512244
1211.516, 1.500968
1211.998, 1.413169
1212.480, 1.047901
1212.963, 0.5367070
1213.445, 0.4193400
1213.927, 0.8241060
1214.409, 0.9458710
1214.891, 0.6755090
1215.373, 0.5744420
1215.855, 0.7816710
1216.337, 1.003376
1216.819, 1.084910
1217.302, 1.116580
1217.784, 1.236287
1218.266, 1.346490
1218.748, 1.020375
1219.230, 0.4028580
1219.712, 0.2313700
1220.194, 0.4885310
1220.676, 0.9780790
1221.159, 1.581711
1221.641, 1.935135
1222.123, 1.840611
1222.605, 1.496258
1223.087, 0.8735550
1223.569, 0.3367510
1224.051, 0.3985180
1224.533, 0.7271410
1225.016, 0.9630920
1225.498, 1.082016
1225.980, 1.127516
1226.462, 1.106358
1226.944, 0.9809500
1227.426, 0.6495040
1227.908, 0.4760800
1228.390, 0.7757350
1228.872, 0.9948610
1229.354, 0.7460380
1229.837, 0.4790670
1230.319, 0.6942370
1230.801, 1.056765
1231.283, 0.9054940
1231.765, 0.2608640
1232.247, 6.8042003E-02
1232.729, 2.7574001E-02
1233.211, 7.7715002E-02
1233.694, 1.1744000E-02
1234.176, 6.3144997E-02
1234.658, 0.3308710
1235.140, 0.6101040
1235.622, 0.7607910
1236.104, 0.8035470
1236.586, 0.7401970
1237.068, 0.6150730
1237.551, 0.6167180
1238.033, 0.7310600
1238.515, 0.9482440
1238.997, 1.227498
1239.479, 1.419083
1239.961, 1.475734
1240.443, 1.406806
1240.925, 1.197278
1241.407, 0.9732500
1241.890, 0.8933050
1242.372, 0.8178380
1242.854, 0.4311630
1243.336, 0.1055580
1243.818, 0.4572050
1244.300, 1.185696
1244.782, 1.599713
1245.264, 1.593177
1245.746, 1.406818
1246.229, 1.051804
1246.711, 0.8413130
1247.193, 0.6922780
1247.675, 0.6182910
1248.157, 0.6554950
1248.639, 0.7300280
1249.121, 0.7934300
1249.603, 0.8637740
1250.085, 1.013595
1250.568, 1.220134
1251.050, 1.005312
1251.532, 0.2915780
1252.014, 7.2039001E-02
1252.496, 0.4398070
1252.978, 0.7407700
1253.460, 0.7764160
1253.942, 0.6121670
1254.425, 0.2651110
1254.907, 4.0194001E-02
1255.389, 0.5729330
1255.871, 1.360336
1256.353, 1.388532
1256.835, 1.001614
1257.317, 0.7994450
1257.799, 0.7658390
1258.281, 0.6480600
1258.764, 0.4097690
1259.246, 0.3575600
1259.728, 0.6659960
1260.210, 0.9101700
1260.692, 0.8489540
1261.174, 0.6882050
1261.656, 0.3040320
1262.138, 8.3109997E-02
1262.620, 0.5736350
1263.103, 1.270382
1263.585, 1.285509
1264.067, 0.7174570
1264.549, 0.4355410
1265.031, 0.6066400
1265.513, 0.4967980
1265.995, 2.3907000E-02
1266.477, 0.2055920
1266.960, 0.1653650
1267.442, 0.5812320
1267.924, 0.7637240
1268.406, 0.8274280
1268.888, 0.9182140
1269.370, 0.9726980
1269.852, 0.7527070
1270.334, 0.3798380
1270.817, 0.1380710
1271.299, 4.7146000E-02
1271.781, 0.1926520
1272.263, 0.5066940
1272.745, 0.7032020
1273.227, 0.6716230
1273.709, 0.6255790
1274.191, 0.7634210
1274.673, 0.8466730
1275.156, 0.7265700
1275.638, 0.5253560
1276.120, 0.2257930
1276.602, 6.7027003E-02
1277.084, 1.7518001E-02
1277.566, 2.5630000E-03
1278.048, 0.2406680
1278.530, 0.7410550
1279.012, 0.9824620
1279.495, 0.8773400
1279.977, 0.7289630
1280.459, 0.5333330
1280.941, 0.5214250
1281.423, 0.7469340
1281.905, 1.021860
1282.387, 1.081884
1282.869, 0.9566770
1283.352, 0.5832830
1283.834, 0.1394360
1284.316, 1.7810001E-03
1284.798, 0.0000000E+00
##END=



