##NAMES=Bornite
##RRUFFID=R050322
##IDEAL CHEMISTRY=Cu^1+^_5_Fe^3+^S^2-^_4_
##LOCALITY=Bethlehem Copper mine, Highland Valley, Logan Lake, British Columbia, Canada
##OWNER=RRUFF
##SOURCE=Lloyd Twaites
##DESCRIPTION=Irridescent purple metallic massive
##STATUS=The identification of this mineral has been confirmed by X-ray diffraction and chemical analysis
##URL=rruff.info/R050322
##MEASURED CHEMISTRY=Cu_4.97_Fe_1.03_S_4.00_
117.1219, 0.0000000E+00
117.6040, 0.4632050
118.0861, 1.021163
118.5682, 1.637475
119.0503, 2.123028
119.5324, 2.244029
120.0146, 1.996003
120.4967, 1.661695
120.9788, 1.733745
121.4609, 2.713444
121.9430, 3.341861
122.4251, 3.286335
122.9073, 2.986460
123.3894, 3.065475
123.8715, 3.825507
124.3536, 4.875618
124.8357, 5.095153
125.3178, 4.156961
125.8000, 3.319302
126.2821, 3.227111
126.7642, 3.681399
127.2463, 4.044554
127.7284, 3.732239
128.2105, 2.971675
128.6927, 2.243064
129.1748, 1.486188
129.6569, 0.9207760
130.1390, 0.7587150
130.6211, 1.240919
131.1032, 1.592497
131.5854, 1.221361
132.0675, 0.7125870
132.5496, 0.4385880
133.0317, 0.6483660
133.5138, 1.130426
133.9959, 1.349892
134.4781, 1.177279
134.9602, 0.9220340
135.4423, 0.6100800
135.9244, 0.2944270
136.4065, 2.6929000E-02
136.8886, 0.1738210
137.3708, 0.2993190
137.8529, 0.2208560
138.3350, 0.3906200
138.8171, 0.8913890
139.2992, 1.146640
139.7813, 1.257746
140.2635, 1.105284
140.7456, 0.7230970
141.2277, 9.7499996E-02
141.7098, 0.1408300
142.1919, 0.5161780
142.6740, 1.248178
143.1561, 1.149529
143.6383, 0.4100600
144.1204, 0.3150880
144.6025, 0.2716260
145.0846, 0.8977760
145.5667, 1.405638
146.0488, 1.042994
146.5310, 0.5786990
147.0131, 0.3140540
147.4952, 0.6657060
147.9773, 1.197407
148.4594, 1.393405
148.9415, 1.196761
149.4237, 1.211699
149.9058, 1.651431
150.3879, 2.246687
150.8700, 2.626330
151.3521, 2.626665
151.8342, 2.497140
152.3164, 2.410516
152.7985, 2.308611
153.2806, 2.347331
153.7627, 2.779396
154.2448, 3.605824
154.7269, 4.045382
155.2091, 3.631275
155.6912, 3.087775
156.1733, 2.748213
156.6554, 2.647297
157.1375, 2.668135
157.6196, 2.672531
158.1018, 2.592754
158.5839, 2.548493
159.0660, 2.642595
159.5481, 2.724795
160.0302, 2.696324
160.5123, 2.545346
160.9945, 2.257040
161.4766, 1.751434
161.9587, 0.5035200
162.4408, 0.1403140
162.9229, 0.2955800
163.4050, 1.065781
163.8871, 1.465486
164.3693, 1.237656
164.8514, 0.6514640
165.3335, 0.3627030
165.8156, 0.7380530
166.2977, 0.8926510
166.7798, 0.4814620
167.2620, 0.1475480
167.7441, 0.4690640
168.2262, 0.2488570
168.7083, 0.4019130
169.1904, 1.245157
169.6725, 2.658735
170.1547, 3.602774
170.6368, 3.438385
171.1189, 2.408688
171.6010, 1.285899
172.0831, 0.2345400
172.5652, 0.5214410
173.0474, 0.6157970
173.5295, 0.3123650
174.0116, 1.211732
174.4937, 1.037040
174.9758, 0.1915420
175.4579, 1.012953
175.9401, 0.3926820
176.4222, 0.7897620
176.9043, 1.633601
177.3864, 1.984732
177.8685, 1.953645
178.3506, 1.532910
178.8328, 0.5261170
179.3149, 0.1560380
179.7970, 0.1729620
180.2791, 0.7806740
180.7612, 0.9630210
181.2433, 0.4011340
181.7255, 0.4530020
182.2076, 0.5464030
182.6897, 0.7495290
183.1718, 1.656109
183.6539, 1.621074
184.1360, 1.156930
184.6181, 0.7844630
185.1003, 0.7594640
185.5824, 0.9621180
186.0645, 0.9558270
186.5466, 0.3517210
187.0287, 1.9956000E-02
187.5108, 0.3076120
187.9930, 0.8652700
188.4751, 1.240768
188.9572, 1.173320
189.4393, 0.7499650
189.9214, 0.4490480
190.4035, 0.2538240
190.8857, 0.1994640
191.3678, 0.3735320
191.8499, 0.6894230
192.3320, 1.007728
192.8141, 1.247301
193.2962, 1.416410
193.7784, 1.591311
194.2605, 1.858381
194.7426, 2.035836
195.2247, 2.087416
195.7068, 2.016375
196.1889, 1.769044
196.6711, 1.219582
197.1532, 0.4884340
197.6353, 0.1513810
198.1174, 0.3631440
198.5995, 0.7964070
199.0816, 1.491232
199.5638, 2.279715
200.0459, 2.661564
200.5280, 2.035622
201.0101, 0.8203320
201.4922, 0.2836810
201.9743, 0.8796480
202.4565, 1.726909
202.9386, 2.106262
203.4207, 1.986900
203.9028, 1.697793
204.3849, 1.160592
204.8670, 0.6504700
205.3492, 0.6390500
205.8313, 1.470920
206.3134, 2.484232
206.7955, 2.811826
207.2776, 2.322286
207.7597, 1.752771
208.2419, 1.238090
208.7240, 0.8897440
209.2061, 0.8961470
209.6882, 1.387830
210.1703, 2.113516
210.6524, 2.702598
211.1346, 3.227497
211.6167, 3.391902
212.0988, 2.890279
212.5809, 2.118504
213.0630, 1.370879
213.5451, 0.7332640
214.0273, 0.3190880
214.5094, 0.4846250
214.9915, 1.775259
215.4736, 2.649292
215.9557, 2.647432
216.4378, 2.230897
216.9200, 1.822526
217.4021, 1.608122
217.8842, 1.539571
218.3663, 1.494022
218.8484, 1.530323
219.3305, 1.499568
219.8127, 1.140113
220.2948, 0.7776960
220.7769, 0.9525200
221.2590, 1.876099
221.7411, 3.164035
222.2232, 3.685893
222.7054, 2.405857
223.1875, 1.551026
223.6696, 1.447632
224.1517, 1.768889
224.6338, 2.216861
225.1159, 2.643257
225.5980, 2.966241
226.0802, 2.959361
226.5623, 2.189229
227.0444, 1.607538
227.5265, 1.346018
228.0086, 1.287149
228.4907, 1.291519
228.9729, 1.300441
229.4550, 1.337869
229.9371, 1.473121
230.4192, 1.876131
230.9013, 2.060614
231.3834, 1.755375
231.8656, 1.248738
232.3477, 1.097652
232.8298, 1.535258
233.3119, 2.181191
233.7940, 2.274899
234.2761, 1.545705
234.7583, 1.036705
235.2404, 1.259605
235.7225, 1.839588
236.2046, 2.061930
236.6867, 1.608400
237.1688, 0.8916920
237.6510, 0.7288840
238.1331, 1.127154
238.6152, 1.657191
239.0973, 2.362999
239.5794, 3.049021
240.0615, 3.380972
240.5437, 3.249039
241.0258, 2.873916
241.5079, 2.548651
241.9900, 2.258422
242.4721, 2.108120
242.9542, 2.320565
243.4364, 2.722646
243.9185, 2.757512
244.4006, 2.126891
244.8827, 1.447736
245.3648, 1.496336
245.8469, 2.162560
246.3290, 2.669273
246.8112, 2.440621
247.2933, 1.740209
247.7754, 1.445403
248.2575, 1.932548
248.7396, 2.378684
249.2217, 1.932420
249.7039, 0.8646400
250.1860, 0.1140130
250.6681, 0.5347630
251.1502, 1.736753
251.6323, 2.179223
252.1144, 1.316901
252.5966, 0.4824440
253.0787, 0.6214440
253.5608, 1.386199
254.0429, 1.980887
254.5250, 1.910213
255.0071, 1.312195
255.4893, 0.6425660
255.9714, 0.4274320
256.4535, 0.9387470
256.9356, 3.9030999E-02
257.4177, 1.536121
257.8998, 2.541163
258.3820, 2.106660
258.8641, 0.7016390
259.3462, 1.2030000E-02
259.8283, 0.4560140
260.3104, 0.8718040
260.7925, 0.6582430
261.2747, 0.2005330
261.7568, 5.7645999E-02
262.2389, 0.5760480
262.7210, 1.447337
263.2031, 1.728714
263.6852, 0.9442850
264.1674, 0.3791750
264.6495, 0.4161140
265.1316, 0.7579940
265.6137, 1.139174
266.0958, 1.454614
266.5779, 1.660987
267.0601, 1.613313
267.5422, 1.040314
268.0243, 0.7147740
268.5064, 0.8431010
268.9885, 1.173355
269.4706, 1.519413
269.9528, 1.810375
270.4349, 2.034419
270.9170, 2.180083
271.3991, 2.297954
271.8812, 2.204881
272.3633, 1.615495
272.8455, 1.030376
273.3276, 0.8492900
273.8097, 1.157659
274.2918, 1.733706
274.7739, 2.263394
275.2560, 2.768428
275.7382, 3.169723
276.2202, 3.715128
276.7024, 4.005098
277.1845, 3.626013
277.6666, 2.613715
278.1487, 1.460845
278.6308, 0.7400830
279.1129, 0.4858680
279.5951, 0.5943050
280.0772, 1.461105
280.5593, 2.285533
281.0414, 2.504728
281.5235, 2.214183
282.0056, 1.993940
282.4878, 2.458214
282.9699, 3.778704
283.4520, 4.540555
283.9341, 4.313472
284.4162, 4.037014
284.8983, 4.221716
285.3805, 4.701024
285.8626, 4.913791
286.3447, 4.363973
286.8268, 3.075346
287.3089, 2.410396
287.7910, 2.910275
288.2732, 3.397700
288.7553, 3.613224
289.2374, 3.568342
289.7195, 3.277955
290.2016, 2.717777
290.6837, 1.990626
291.1659, 1.676592
291.6480, 2.201727
292.1301, 2.640212
292.6122, 2.940074
293.0943, 3.039185
293.5764, 2.770973
294.0586, 2.042431
294.5407, 1.100433
295.0228, 0.6125620
295.5049, 1.270931
295.9870, 1.557068
296.4691, 1.006699
296.9513, 0.2032700
297.4334, 9.7167999E-02
297.9155, 0.3305490
298.3976, 1.071366
298.8797, 1.438288
299.3618, 1.247509
299.8440, 0.9654860
300.3261, 0.2806030
300.8082, 0.2993040
301.2903, 0.2145940
301.7724, 0.5774790
302.2545, 1.496398
302.7367, 1.857153
303.2188, 1.486365
303.7009, 1.146214
304.1830, 0.6951290
304.6651, 0.3806950
305.1472, 0.4994770
305.6294, 0.9697090
306.1115, 1.346324
306.5936, 1.215204
307.0757, 0.5355000
307.5578, 0.1266320
308.0399, 0.1717350
308.5221, 0.2524260
309.0042, 6.8388000E-02
309.4863, 0.2448840
309.9684, 0.2660440
310.4505, 0.3266750
310.9326, 1.400092
311.4148, 1.991294
311.8969, 1.966167
312.3790, 1.705223
312.8611, 0.9496310
313.3432, 7.7656001E-02
313.8253, 0.2118470
314.3075, 0.4439610
314.7896, 1.627438
315.2717, 1.984855
315.7538, 0.5869400
316.2359, 0.2991520
316.7180, 0.1872320
317.2001, 0.3856320
317.6823, 0.9227290
318.1644, 1.267836
318.6465, 1.392638
319.1286, 1.213702
319.6107, 0.4413110
320.0928, 9.5568001E-02
320.5750, 0.5557090
321.0571, 1.165903
321.5392, 1.358878
322.0213, 1.108564
322.5034, 0.8533660
322.9855, 1.075559
323.4677, 1.837778
323.9498, 2.359441
324.4319, 2.583196
324.9140, 2.669868
325.3961, 2.641175
325.8782, 2.536161
326.3604, 2.444166
326.8425, 2.437385
327.3246, 2.499487
327.8067, 2.438623
328.2888, 2.223862
328.7709, 1.942161
329.2531, 1.515145
329.7352, 1.053556
330.2173, 0.7252730
330.6994, 0.6097030
331.1815, 0.6738810
331.6636, 0.8323300
332.1458, 1.277178
332.6279, 1.584536
333.1100, 1.752065
333.5921, 1.752097
334.0742, 1.552614
334.5563, 1.180048
335.0385, 0.7876330
335.5206, 0.6003380
336.0027, 0.6823670
336.4848, 0.8332740
336.9669, 1.193751
337.4490, 1.507935
337.9312, 1.559599
338.4133, 1.373792
338.8954, 1.167017
339.3775, 1.150477
339.8596, 1.348890
340.3417, 1.424539
340.8239, 1.338694
341.3060, 1.190198
341.7881, 0.9406450
342.2702, 0.6570880
342.7523, 0.4782970
343.2344, 0.5006670
343.7166, 0.6687820
344.1987, 0.7107660
344.6808, 0.3021720
345.1629, 0.1445980
345.6450, 0.4979170
346.1271, 1.055406
346.6093, 1.495067
347.0914, 1.693173
347.5735, 1.721072
348.0556, 1.707654
348.5377, 1.716803
349.0198, 1.681557
349.5020, 1.453802
349.9841, 1.166556
350.4662, 0.9083830
350.9483, 0.6964010
351.4304, 0.5365580
351.9125, 0.4508390
352.3947, 0.4620820
352.8768, 0.3949340
353.3589, 0.1682530
353.8410, 0.3974510
354.3231, 0.3716700
354.8052, 1.739670
355.2874, 2.743580
355.7695, 2.631799
356.2516, 1.670319
356.7337, 1.094072
357.2158, 1.081484
357.6979, 1.255590
358.1800, 1.799076
358.6621, 2.364221
359.1443, 2.530840
359.6264, 2.138466
360.1085, 1.512103
360.5906, 1.292578
361.0727, 1.733780
361.5548, 1.914558
362.0370, 1.469402
362.5191, 0.9599240
363.0012, 0.7331190
363.4833, 0.8137940
363.9654, 1.007965
364.4475, 1.161359
364.9297, 1.279076
365.4118, 1.257507
365.8939, 0.8647990
366.3760, 0.5904920
366.8581, 0.7634740
367.3402, 1.184694
367.8224, 1.440509
368.3045, 1.218654
368.7866, 0.7252110
369.2687, 0.6390890
369.7508, 1.182322
370.2329, 1.644703
370.7151, 1.758452
371.1972, 1.695093
371.6793, 1.585682
372.1614, 1.472438
372.6435, 1.385165
373.1256, 1.367619
373.6078, 1.421422
374.0899, 1.519542
374.5720, 1.777635
375.0541, 1.991537
375.5362, 1.953166
376.0183, 1.688372
376.5005, 1.466080
376.9826, 1.516123
377.4647, 1.757967
377.9468, 1.926183
378.4289, 2.064655
378.9110, 1.990677
379.3932, 1.289452
379.8753, 0.3136260
380.3574, 0.2292940
380.8395, 3.4828998E-02
381.3216, 0.6950810
381.8037, 1.415118
382.2859, 2.235356
382.7680, 2.675767
383.2501, 2.348083
383.7322, 1.612812
384.2143, 1.045161
384.6964, 0.6543890
385.1786, 0.4466250
385.6607, 0.4505420
386.1428, 0.6442100
386.6249, 1.022417
387.1070, 1.650776
387.5891, 2.275983
388.0713, 2.682148
388.5534, 2.885085
389.0355, 2.653870
389.5176, 1.387373
389.9997, 9.5020002E-03
390.4818, 0.5071950
390.9640, 0.1406870
391.4461, 0.5277840
391.9282, 1.217860
392.4103, 1.869170
392.8924, 2.221550
393.3745, 2.097929
393.8567, 1.898735
394.3388, 1.645199
394.8209, 1.440587
395.3030, 1.602445
395.7851, 2.302616
396.2672, 3.084674
396.7494, 3.074150
397.2315, 1.696045
397.7136, 0.9067740
398.1957, 1.313477
398.6778, 1.982746
399.1599, 2.122112
399.6420, 1.679866
400.1241, 1.077920
400.6063, 0.6583310
401.0884, 0.4178010
401.5705, 0.4664460
402.0526, 1.148939
402.5347, 1.654439
403.0168, 1.698527
403.4990, 1.454992
403.9811, 1.248263
404.4632, 1.237882
404.9453, 1.269548
405.4274, 0.9071850
405.9095, 0.5644770
406.3917, 1.174463
406.8738, 0.3095730
407.3559, 0.9355650
407.8380, 1.899026
408.3201, 2.439571
408.8022, 2.682447
409.2844, 2.731434
409.7665, 2.579203
410.2486, 2.336170
410.7307, 2.016806
411.2128, 1.567438
411.6949, 0.5824760
412.1771, 0.4269500
412.6592, 0.6539660
413.1413, 0.4123100
413.6234, 2.135114
414.1055, 3.188427
414.5876, 3.498079
415.0698, 3.364007
415.5519, 2.355402
416.0340, 1.260638
416.5161, 0.6267480
416.9982, 0.5095950
417.4803, 0.5924820
417.9625, 0.6235930
418.4446, 0.6212250
418.9267, 0.7176370
419.4088, 0.9427600
419.8909, 1.231586
420.3730, 1.636941
420.8552, 2.066383
421.3373, 2.310060
421.8194, 2.234224
422.3015, 2.009433
422.7836, 1.797961
423.2657, 1.601122
423.7479, 1.483741
424.2300, 1.490025
424.7121, 1.578335
425.1942, 1.707277
425.6763, 1.916837
426.1584, 2.000067
426.6406, 1.810316
427.1227, 1.469237
427.6048, 1.103697
428.0869, 0.7095580
428.5690, 0.5742080
429.0511, 1.140722
429.5333, 2.382280
430.0154, 2.890784
430.4975, 1.880898
430.9796, 0.8720820
431.4617, 0.8781890
431.9438, 1.577758
432.4260, 2.083532
432.9081, 1.969450
433.3902, 1.450517
433.8723, 1.022501
434.3544, 0.7040070
434.8365, 0.4568440
435.3187, 0.2908360
435.8008, 0.1881160
436.2829, 0.1724050
436.7650, 0.2232860
437.2471, 0.2308340
437.7292, 5.3387001E-02
438.2114, 0.3432960
438.6935, 0.3284430
439.1756, 0.6863370
439.6577, 1.432583
440.1398, 1.451771
440.6219, 1.085616
441.1040, 0.8045880
441.5862, 0.8077740
442.0683, 0.9399580
442.5504, 0.8721130
443.0325, 0.4406100
443.5146, 0.3138450
443.9967, 0.8353850
444.4789, 1.436513
444.9610, 1.933082
445.4431, 2.262035
445.9252, 2.321800
446.4073, 1.858764
446.8894, 1.091383
447.3716, 0.9655850
447.8537, 1.803426
448.3358, 2.425753
448.8179, 2.196605
449.3000, 1.614692
449.7821, 1.118270
450.2643, 0.7598620
450.7464, 0.6853810
451.2285, 1.233139
451.7106, 2.247122
452.1927, 2.926709
452.6748, 3.086247
453.1570, 2.929701
453.6391, 2.499011
454.1212, 1.867943
454.6033, 1.403005
455.0854, 1.302589
455.5675, 1.321594
456.0497, 1.252967
456.5318, 1.102549
457.0139, 0.9502210
457.4960, 0.8474590
457.9781, 0.7543750
458.4602, 0.5142250
458.9424, 0.1615670
459.4245, 0.3796680
459.9066, 0.5004790
460.3887, 1.643011
460.8708, 2.166933
461.3529, 1.963048
461.8351, 1.466413
462.3172, 1.025051
462.7993, 0.6307490
463.2814, 0.6595520
463.7635, 1.743856
464.2456, 2.401082
464.7278, 2.068585
465.2099, 1.248450
465.6920, 0.5997540
466.1741, 0.3939490
466.6562, 0.5183390
467.1383, 0.8609290
467.6205, 1.606973
468.1026, 1.997818
468.5847, 1.614886
469.0668, 1.223867
469.5489, 1.202282
470.0310, 1.429498
470.5132, 1.633245
470.9953, 1.687210
471.4774, 1.621786
471.9595, 1.684299
472.4416, 1.954534
472.9237, 2.051626
473.4059, 1.580249
473.8880, 1.032021
474.3701, 0.9084800
474.8522, 1.278485
475.3343, 1.663187
475.8164, 1.734165
476.2986, 1.591588
476.7807, 1.456592
477.2628, 1.339527
477.7449, 1.317580
478.2270, 1.567007
478.7091, 1.967849
479.1913, 2.030580
479.6734, 1.336040
480.1555, 0.7378820
480.6376, 0.8891650
481.1197, 1.433148
481.6018, 1.545582
482.0839, 0.9358130
482.5660, 0.1139140
483.0482, 0.1938200
483.5303, 0.2153770
484.0124, 0.4314780
484.4945, 0.1117800
484.9766, 6.8997003E-02
485.4587, 0.4744070
485.9409, 1.452615
486.4230, 2.112622
486.9051, 2.017201
487.3872, 1.433859
487.8693, 1.151842
488.3514, 1.425350
488.8336, 1.519203
489.3157, 1.077072
489.7978, 0.7026460
490.2799, 1.007326
490.7620, 1.863880
491.2441, 2.519647
491.7263, 2.239532
492.2084, 1.287388
492.6905, 0.8386030
493.1726, 1.140472
493.6547, 1.424561
494.1368, 1.327373
494.6190, 1.078962
495.1011, 0.8853560
495.5832, 0.8037800
496.0653, 0.7605590
496.5474, 0.7755680
497.0295, 0.8817420
497.5117, 1.053374
497.9938, 1.339996
498.4759, 1.473422
498.9580, 1.096033
499.4401, 0.3456260
499.9222, 1.3070001E-03
500.4044, 0.5451920
500.8865, 1.158244
501.3686, 1.500042
501.8507, 1.597251
502.3328, 1.452488
502.8149, 1.057336
503.2971, 0.5981700
503.7792, 0.3208430
504.2613, 0.2141390
504.7434, 0.3726170
505.2255, 1.186460
505.7076, 1.852040
506.1898, 1.842046
506.6719, 1.414174
507.1540, 1.140162
507.6361, 1.333308
508.1182, 1.780222
508.6003, 2.039278
509.0825, 2.150321
509.5646, 1.981890
510.0467, 1.128834
510.5288, 0.3292530
511.0109, 1.8260000E-02
511.4930, 0.1346050
511.9752, 0.3445760
512.4573, 0.4721500
512.9394, 0.5347000
513.4215, 0.5339010
513.9036, 0.4402420
514.3857, 0.4818720
514.8679, 0.8722300
515.3500, 1.350808
515.8321, 1.594357
516.3142, 1.562573
516.7963, 1.432422
517.2784, 1.262282
517.7606, 1.125251
518.2427, 1.075427
518.7248, 1.109723
519.2069, 1.029102
519.6890, 0.6159780
520.1711, 1.0583000E-02
520.6533, 5.4391000E-02
521.1354, 1.029249
521.6175, 1.756342
522.0996, 1.631796
522.5817, 1.178335
523.0638, 0.9022280
523.5460, 0.8897300
524.0281, 0.9381860
524.5102, 0.8431480
524.9923, 0.6123210
525.4744, 0.5191230
525.9565, 0.6068820
526.4387, 0.7906170
526.9208, 1.237269
527.4029, 1.671024
527.8850, 1.742849
528.3671, 1.381904
528.8492, 0.9412740
529.3314, 0.8239030
529.8135, 0.9885920
530.2956, 1.001586
530.7777, 0.7487340
531.2598, 0.5320420
531.7419, 0.6230830
532.2241, 0.8569430
532.7062, 0.9448850
533.1883, 0.7202920
533.6704, 0.5767140
534.1525, 0.9221070
534.6346, 1.535853
535.1168, 1.910021
535.5989, 1.928267
536.0810, 1.702069
536.5631, 1.269947
537.0452, 0.6172130
537.5273, 0.2726180
538.0095, 0.4137790
538.4916, 0.6313630
538.9737, 0.8580210
539.4558, 1.038134
539.9379, 1.040195
540.4200, 0.8408130
540.9022, 0.6596090
541.3843, 0.8961280
541.8664, 1.689007
542.3485, 2.059875
542.8306, 1.649008
543.3127, 1.182760
543.7948, 0.8146680
544.2769, 0.5557690
544.7590, 0.4325220
545.2411, 0.4698400
545.7233, 0.5310040
546.2054, 0.3188300
546.6875, 0.1225150
547.1696, 7.9130000E-03
547.6517, 1.140796
548.1339, 2.179957
548.6160, 1.705862
549.0981, 0.2993010
549.5802, 0.3668220
550.0623, 0.6064150
550.5444, 1.773742
551.0266, 2.375592
551.5087, 2.457775
551.9908, 1.907918
552.4729, 0.6544950
552.9550, 0.4727320
553.4371, 0.3327190
553.9193, 1.413037
554.4014, 2.369375
554.8835, 2.289340
555.3656, 1.819972
555.8477, 0.6654560
556.3298, 0.5565120
556.8120, 0.7896120
557.2941, 0.3066740
557.7762, 1.754045
558.2583, 2.051298
558.7404, 1.010586
559.2225, 0.3917690
559.7047, 0.4689810
560.1868, 0.6933740
560.6689, 0.9300930
561.1510, 1.094503
561.6331, 0.9853110
562.1152, 0.4168830
562.5974, 8.1685998E-02
563.0795, 0.1886260
563.5616, 0.9660800
564.0437, 1.196871
564.5258, 0.5665410
565.0079, 0.1255560
565.4901, 8.1859998E-02
565.9722, 0.6570140
566.4543, 1.031763
566.9364, 0.6306850
567.4185, 0.3388280
567.9006, 0.5827420
568.3828, 1.106210
568.8649, 1.591695
569.3470, 1.935594
569.8291, 2.137024
570.3112, 2.190202
570.7933, 2.094635
571.2755, 1.856658
571.7576, 1.351674
572.2397, 0.8537940
572.7218, 0.2512070
573.2039, 0.2247510
573.6860, 0.2243700
574.1682, 0.3244150
574.6503, 0.9284390
575.1324, 1.128436
575.6145, 1.037560
576.0966, 0.8714980
576.5787, 0.5579080
577.0609, 0.3452530
577.5430, 0.3898550
578.0251, 0.6150400
578.5072, 0.8259250
578.9893, 1.068531
579.4714, 1.280749
579.9536, 1.327474
580.4357, 1.343344
580.9178, 1.466625
581.3999, 1.693532
581.8820, 1.886657
582.3641, 1.952219
582.8463, 1.884961
583.3284, 1.645149
583.8105, 0.9185900
584.2926, 0.4817060
584.7747, 0.5079570
585.2568, 0.7389280
585.7390, 0.9744460
586.2211, 1.212824
586.7032, 1.609990
587.1853, 2.438173
587.6674, 3.388629
588.1495, 3.515608
588.6317, 2.688153
589.1138, 1.826159
589.5959, 1.099796
590.0780, 0.5894280
590.5601, 0.3811900
591.0422, 0.4691210
591.5244, 0.7186670
592.0065, 1.347669
592.4886, 1.918739
592.9707, 1.982880
593.4528, 1.629541
593.9349, 1.123880
594.4171, 0.5498690
594.8992, 0.1412120
595.3813, 0.3577340
595.8634, 1.535696
596.3455, 2.347274
596.8276, 2.807712
597.3098, 2.944190
597.7919, 2.566276
598.2740, 1.924715
598.7561, 1.397407
599.2382, 1.136197
599.7203, 1.056133
600.2025, 1.077565
600.6846, 1.197645
601.1667, 1.308635
601.6488, 1.402840
602.1309, 1.480469
602.6130, 1.522110
603.0952, 1.549621
603.5773, 1.607220
604.0594, 1.704915
604.5415, 1.819289
605.0236, 2.137326
605.5057, 2.402725
605.9879, 2.039564
606.4700, 1.035343
606.9521, 0.2018500
607.4342, 0.2410520
607.9163, 1.052692
608.3984, 1.521361
608.8806, 1.258337
609.3627, 1.177428
609.8448, 1.535666
610.3269, 1.963161
610.8090, 2.101859
611.2911, 2.013629
611.7733, 2.014235
612.2554, 2.419181
612.7375, 2.922922
613.2196, 2.640506
613.7017, 1.459236
614.1838, 0.6712970
614.6660, 0.8803400
615.1481, 1.500454
615.6302, 1.785511
616.1123, 1.757246
616.5944, 1.546401
617.0765, 0.9568160
617.5587, 0.4042400
618.0408, 0.1877850
618.5229, 0.2216920
619.0050, 0.3059070
619.4871, 0.3695800
619.9692, 0.4565440
620.4514, 0.6309770
620.9335, 0.9229540
621.4156, 1.166066
621.8977, 1.359258
622.3798, 1.470057
622.8619, 1.462934
623.3441, 1.393803
623.8262, 1.260043
624.3083, 1.064425
624.7904, 1.004119
625.2725, 1.436411
625.7546, 2.113116
626.2367, 2.269814
626.7188, 1.825581
627.2009, 1.370362
627.6830, 1.196655
628.1652, 1.214190
628.6473, 1.227554
629.1294, 1.233380
629.6115, 1.246160
630.0936, 1.324804
630.5757, 1.362810
631.0579, 1.317025
631.5400, 1.162982
632.0221, 0.7367250
632.5042, 8.1367999E-02
632.9863, 0.8867390
633.4684, 0.7919960
633.9506, 0.4694390
634.4327, 1.322112
634.9148, 1.670216
635.3969, 1.590948
635.8790, 0.6855030
636.3611, 0.4664140
636.8433, 0.7419020
637.3254, 0.4172060
637.8075, 1.582742
638.2896, 1.433147
638.7717, 0.6457200
639.2538, 0.7026870
639.7360, 1.772686
640.2181, 2.656627
640.7002, 2.435041
641.1823, 1.428336
641.6644, 0.9406070
642.1465, 1.430920
642.6287, 1.834426
643.1108, 2.218562
643.5929, 2.444940
644.0750, 2.346572
644.5571, 2.008075
645.0392, 1.640579
645.5214, 1.332666
646.0035, 1.153861
646.4856, 1.316158
646.9677, 1.817425
647.4498, 2.102297
647.9319, 2.000139
648.4141, 1.817435
648.8962, 1.843564
649.3783, 2.001009
649.8604, 1.989677
650.3425, 1.600459
650.8246, 1.292555
651.3068, 1.235377
651.7889, 1.364969
652.2710, 1.679735
652.7531, 2.150337
653.2352, 2.589573
653.7173, 2.745550
654.1995, 2.730967
654.6816, 2.923584
655.1637, 3.590812
655.6458, 3.821541
656.1279, 3.038051
656.6100, 2.132974
657.0922, 1.485331
657.5743, 1.137506
658.0564, 1.147812
658.5385, 1.733414
659.0206, 2.409191
659.5027, 2.705542
659.9849, 2.719603
660.4670, 2.741578
660.9491, 2.839645
661.4312, 2.889042
661.9133, 2.795137
662.3954, 2.552273
662.8776, 2.088181
663.3597, 0.8040060
663.8418, 9.3236998E-02
664.3239, 0.4649790
664.8060, 1.175967
665.2881, 1.642944
665.7703, 1.853722
666.2524, 2.146383
666.7345, 2.853743
667.2166, 3.587382
667.6987, 3.473336
668.1808, 2.541446
668.6630, 1.936914
669.1451, 2.001497
669.6272, 2.292628
670.1093, 2.461162
670.5914, 2.509065
671.0735, 2.384258
671.5557, 1.838494
672.0378, 1.402906
672.5199, 1.395444
673.0020, 1.496844
673.4841, 1.220056
673.9662, 0.6115630
674.4484, 0.3295700
674.9305, 0.8775320
675.4126, 1.896713
675.8947, 2.121940
676.3768, 1.342329
676.8589, 0.7022670
677.3411, 0.4768620
677.8232, 0.4042940
678.3053, 0.2020180
678.7874, 4.5582999E-02
679.2695, 1.1467000E-02
679.7516, 0.5627950
680.2338, 1.208048
680.7159, 1.784859
681.1980, 2.182534
681.6801, 2.218993
682.1622, 1.893752
682.6443, 1.425926
683.1265, 0.9433760
683.6086, 0.5312740
684.0907, 0.6600270
684.5728, 1.719368
685.0549, 2.464925
685.5370, 2.627945
686.0192, 2.516700
686.5013, 2.127272
686.9834, 1.598874
687.4655, 1.298549
687.9476, 1.493868
688.4297, 1.727838
688.9119, 1.438118
689.3940, 0.9037130
689.8761, 0.8578500
690.3582, 1.408980
690.8403, 1.913996
691.3224, 1.960567
691.8046, 1.689579
692.2867, 1.493197
692.7688, 1.370361
693.2509, 1.372053
693.7330, 1.743273
694.2151, 1.967560
694.6973, 1.614251
695.1794, 0.9585740
695.6615, 0.4826720
696.1436, 0.4188710
696.6257, 0.5922860
697.1078, 0.9151360
697.5900, 1.320749
698.0721, 1.605106
698.5542, 1.743225
699.0363, 1.634058
699.5184, 1.072328
700.0005, 0.3075200
700.4827, 0.2432170
700.9648, 1.725946
701.4469, 2.522918
701.9290, 2.138923
702.4111, 1.502180
702.8932, 1.081767
703.3754, 0.8545910
703.8575, 0.6330110
704.3396, 0.3339870
704.8217, 0.1231190
705.3038, 0.2047060
705.7859, 0.5516650
706.2681, 1.143755
706.7502, 2.055574
707.2323, 2.650667
707.7144, 2.503153
708.1965, 1.874921
708.6786, 1.356382
709.1607, 0.9987060
709.6428, 0.5938080
710.1249, 0.2898510
710.6071, 0.8101190
711.0892, 8.3662003E-02
711.5713, 1.213126
712.0534, 1.819448
712.5355, 1.342156
713.0176, 0.6921560
713.4998, 1.026330
713.9819, 2.116132
714.4640, 2.751021
714.9461, 2.898394
715.4282, 2.658396
715.9103, 1.884840
716.3925, 0.9501280
716.8746, 0.4230480
717.3567, 0.3247190
717.8388, 0.3680840
718.3209, 0.7840370
718.8030, 1.060178
719.2852, 0.7232890
719.7673, 0.2043440
720.2494, 0.1521420
720.7315, 0.6747200
721.2136, 1.303852
721.6957, 1.586629
722.1779, 1.648000
722.6600, 2.047877
723.1421, 2.894692
723.6242, 3.176288
724.1063, 2.309981
724.5884, 1.301539
725.0706, 1.423707
725.5527, 2.555884
726.0348, 3.036475
726.5169, 2.367569
726.9990, 1.542140
727.4811, 0.5666830
727.9633, 0.1949010
728.4454, 0.2006760
728.9275, 0.4477260
729.4096, 1.230476
729.8917, 1.908113
730.3738, 2.295028
730.8560, 1.734185
731.3381, 0.1814260
731.8202, 0.6375360
732.3023, 0.2678720
732.7844, 0.4463820
733.2665, 1.020863
733.7487, 1.436183
734.2308, 1.638674
734.7129, 1.415012
735.1950, 1.380896
735.6771, 2.112684
736.1592, 2.698777
736.6414, 2.160834
737.1235, 0.8955800
737.6056, 4.2656999E-02
738.0877, 0.1912000
738.5698, 8.5565001E-02
739.0519, 0.3551610
739.5341, 0.6136710
740.0162, 0.7985330
740.4983, 0.8671880
740.9804, 1.076337
741.4625, 1.712542
741.9446, 2.422281
742.4268, 2.481596
742.9089, 1.756264
743.3910, 1.155213
743.8731, 0.7969040
744.3552, 0.5288250
744.8373, 0.2216240
745.3195, 1.6104000E-02
745.8016, 3.1118000E-02
746.2837, 0.2106730
746.7658, 0.6565690
747.2479, 1.443382
747.7300, 2.303248
748.2122, 2.413831
748.6943, 1.764469
749.1764, 0.9891690
749.6585, 0.1437070
750.1406, 0.4432850
750.6227, 0.3480080
751.1049, 0.4078330
751.5870, 0.9529830
752.0691, 1.339044
752.5512, 1.465416
753.0333, 0.9958840
753.5154, 0.5090540
753.9976, 0.5722240
754.4797, 1.068029
754.9618, 1.453249
755.4439, 1.417261
755.9260, 1.281529
756.4081, 1.556328
756.8903, 2.108208
757.3724, 2.373644
757.8545, 2.278442
758.3366, 1.995820
758.8187, 1.589622
759.3008, 1.121053
759.7830, 0.7236390
760.2651, 0.2833090
760.7472, 0.1979320
761.2293, 0.9751220
761.7114, 1.517077
762.1935, 1.093335
762.6757, 0.3002700
763.1578, 1.6603000E-02
763.6399, 0.3242360
764.1220, 0.7732450
764.6041, 0.9117000
765.0862, 0.9349260
765.5684, 1.144967
766.0505, 1.517031
766.5326, 1.928985
767.0147, 2.350056
767.4968, 2.683782
767.9789, 2.809302
768.4611, 2.714806
768.9432, 2.466103
769.4253, 1.842986
769.9074, 1.329380
770.3895, 0.9906310
770.8716, 0.7866950
771.3538, 0.6708960
771.8359, 0.6708960
772.3180, 0.9313270
772.8001, 1.766711
773.2822, 2.319810
773.7643, 1.598409
774.2465, 0.4353670
774.7286, 0.1465230
775.2107, 0.7176640
775.6928, 1.306358
776.1749, 1.451620
776.6570, 1.294516
777.1392, 1.041153
777.6213, 0.6401260
778.1034, 0.5614850
778.5855, 1.088076
779.0676, 1.385793
779.5497, 0.7996670
780.0319, 4.2413000E-02
780.5140, 0.3067390
780.9961, 5.6012001E-02
781.4782, 0.4624980
781.9603, 0.9186780
782.4424, 1.224518
782.9246, 1.202314
783.4067, 1.016147
783.8888, 0.9298010
784.3709, 0.9688120
784.8530, 0.8725500
785.3351, 0.3170010
785.8173, 0.3949150
786.2994, 0.3143850
786.7815, 0.5763130
787.2636, 1.106404
787.7457, 1.007915
788.2278, 0.7007930
788.7100, 0.4107700
789.1921, 0.1833840
789.6742, 0.1773900
790.1563, 0.6857700
790.6384, 1.048491
791.1205, 1.110866
791.6026, 1.100890
792.0847, 1.165718
792.5668, 1.240504
793.0490, 1.162735
793.5311, 0.8897360
794.0132, 0.6651850
794.4953, 0.7596880
794.9774, 1.000072
795.4595, 1.044453
795.9417, 0.9226280
796.4238, 0.9123570
796.9059, 1.088037
797.3880, 1.297796
797.8701, 1.340760
798.3522, 1.246919
798.8344, 1.530118
799.3165, 2.559827
799.7986, 3.256499
800.2807, 3.195046
800.7628, 2.976856
801.2449, 2.986856
801.7271, 3.116245
802.2092, 2.999661
802.6913, 2.387632
803.1734, 1.935500
803.6555, 2.014739
804.1376, 2.408232
804.6198, 3.102146
805.1019, 3.883433
805.5840, 4.178553
806.0661, 3.746624
806.5482, 3.132883
807.0303, 3.066292
807.5125, 3.493858
807.9946, 3.884099
808.4767, 4.250823
808.9588, 4.816030
809.4409, 5.843802
809.9230, 6.704002
810.4052, 6.440691
810.8873, 5.061239
811.3694, 4.651563
811.8515, 6.238332
812.3336, 7.384967
812.8157, 7.058629
813.2979, 6.572416
813.7800, 7.128400
814.2621, 8.437003
814.7442, 9.471998
815.2263, 9.801978
815.7084, 9.752063
816.1906, 9.547019
816.6727, 9.214510
817.1548, 8.784854
817.6369, 8.273339
818.1190, 7.745543
818.6011, 7.227139
819.0833, 6.739848
819.5654, 6.320189
820.0475, 5.970078
820.5296, 5.607103
821.0117, 5.181602
821.4938, 4.838674
821.9760, 4.645043
822.4581, 4.523402
822.9402, 4.506706
823.4223, 4.529916
823.9044, 4.288595
824.3865, 3.514066
824.8687, 2.789191
825.3508, 2.252887
825.8329, 1.929439
826.3150, 1.907176
826.7971, 2.140669
827.2792, 2.609474
827.7614, 3.313070
828.2435, 3.833106
828.7256, 3.385648
829.2077, 2.323729
829.6898, 2.180120
830.1719, 2.990317
830.6541, 3.478547
831.1362, 3.077192
831.6183, 2.205857
832.1004, 1.377562
832.5825, 0.6005830
833.0646, 0.2783450
833.5468, 0.7444710
834.0289, 1.155659
834.5110, 1.394545
834.9931, 1.565743
835.4752, 1.746330
835.9573, 1.912114
836.4395, 1.990843
836.9216, 1.947401
837.4037, 1.872793
837.8858, 1.921838
838.3679, 1.865869
838.8500, 1.418613
839.3322, 0.6985420
839.8143, 1.6619001E-02
840.2964, 0.6019880
840.7785, 0.8673570
841.2606, 0.4651240
841.7427, 0.3790420
842.2249, 0.7193090
842.7070, 0.5312560
843.1891, 0.3669020
843.6712, 0.2951840
844.1533, 0.4362360
844.6354, 0.9954730
845.1176, 1.807729
845.5997, 2.137751
846.0818, 1.472287
846.5639, 1.134830
847.0460, 1.376759
847.5281, 1.723524
848.0103, 1.888697
848.4924, 1.866791
848.9745, 1.781424
849.4566, 1.645689
849.9387, 1.583258
850.4208, 1.849742
850.9030, 2.044014
851.3851, 1.683395
851.8672, 1.015406
852.3493, 0.5227970
852.8314, 0.3253660
853.3135, 0.3003400
853.7957, 0.3674590
854.2778, 0.5147420
854.7599, 0.7548100
855.2420, 1.083956
855.7241, 1.307200
856.2062, 1.419901
856.6884, 1.316442
857.1705, 0.8319970
857.6526, 0.2354260
858.1347, 5.0900001E-03
858.6168, 0.1606630
859.0989, 0.6073520
859.5811, 1.834393
860.0632, 2.713016
860.5453, 2.980284
861.0274, 2.799944
861.5095, 1.986814
861.9916, 0.8065300
862.4738, 0.2909450
862.9559, 1.106998
863.4380, 2.064127
863.9201, 2.460627
864.4022, 2.529166
864.8843, 2.502661
865.3665, 2.411647
865.8486, 2.240306
866.3307, 1.982688
866.8128, 1.648273
867.2949, 1.187135
867.7770, 0.6622310
868.2592, 0.3429790
868.7413, 0.2311530
869.2234, 0.3031970
869.7055, 0.5875350
870.1876, 0.9096870
870.6697, 1.111121
871.1519, 1.207807
871.6340, 1.290123
872.1161, 1.405056
872.5981, 1.414954
873.0803, 1.207424
873.5624, 1.007869
874.0445, 0.7904120
874.5266, 0.6927300
875.0087, 1.041135
875.4908, 1.916083
875.9730, 2.416391
876.4551, 1.751254
876.9372, 1.143326
877.4193, 1.695168
877.9014, 2.569306
878.3835, 2.430014
878.8657, 1.351931
879.3478, 0.5732970
879.8299, 0.8856110
880.3120, 1.601915
880.7941, 1.884737
881.2762, 1.778999
881.7584, 1.165694
882.2405, 0.1314980
882.7226, 7.2393000E-02
883.2047, 1.207582
883.6868, 2.767275
884.1689, 2.851885
884.6511, 1.530871
885.1332, 1.157816
885.6153, 2.261070
886.0974, 2.840251
886.5795, 2.298259
887.0616, 1.388786
887.5438, 0.3309870
888.0259, 0.6290190
888.5080, 0.6782270
888.9901, 0.8105520
889.4722, 1.782609
889.9543, 1.660330
890.4365, 1.334066
890.9186, 1.164432
891.4007, 1.131907
891.8828, 1.224480
892.3649, 1.406251
892.8470, 1.490677
893.3292, 1.264500
893.8113, 1.033129
894.2934, 1.231396
894.7755, 1.568218
895.2576, 1.395897
895.7397, 0.7870380
896.2219, 0.4790400
896.7040, 0.8672930
897.1861, 1.492633
897.6682, 1.582041
898.1503, 1.210389
898.6324, 1.381078
899.1146, 2.188546
899.5967, 2.849597
900.0788, 3.142990
900.5609, 3.000677
901.0430, 2.213914
901.5251, 0.9593600
902.0073, 0.3692520
902.4894, 0.8939790
902.9715, 1.244830
903.4536, 1.425072
903.9357, 1.264742
904.4178, 0.2421100
904.9000, 0.8765420
905.3821, 0.8513020
905.8642, 0.4819890
906.3463, 1.461190
906.8284, 1.614734
907.3105, 1.415740
907.7927, 0.7748990
908.2748, 0.1056590
908.7569, 0.1933370
909.2390, 0.1230310
909.7211, 0.1652550
910.2032, 0.6419020
910.6854, 1.091184
911.1675, 1.251304
911.6496, 1.293260
912.1317, 1.591258
912.6138, 2.030133
913.0959, 2.140231
913.5781, 1.793447
914.0602, 1.275220
914.5423, 0.7990020
915.0244, 0.4372170
915.5065, 0.4195740
915.9886, 0.7471600
916.4708, 1.333718
916.9529, 2.297010
917.4350, 2.761790
917.9171, 2.065959
918.3992, 0.9340730
918.8813, 0.6785530
919.3635, 1.445833
919.8456, 1.936682
920.3277, 1.998489
920.8098, 2.035184
921.2919, 2.209103
921.7740, 2.314177
922.2562, 2.045429
922.7383, 1.595043
923.2204, 1.572833
923.7025, 2.266272
924.1846, 2.824525
924.6667, 3.019858
925.1489, 3.038998
925.6310, 2.985769
926.1131, 2.830362
926.5952, 2.433240
927.0773, 1.836224
927.5594, 1.393565
928.0416, 1.373879
928.5237, 1.466256
929.0058, 1.356432
929.4879, 1.188077
929.9700, 1.223903
930.4521, 1.428518
930.9343, 1.582389
931.4164, 1.592684
931.8985, 1.529949
932.3806, 1.398373
932.8627, 1.289745
933.3448, 1.658834
933.8270, 2.431638
934.3091, 2.733765
934.7912, 2.360253
935.2733, 1.737912
935.7554, 1.080701
936.2375, 0.6049240
936.7197, 1.015274
937.2018, 2.660742
937.6839, 3.074144
938.1660, 1.664078
938.6481, 0.5147360
939.1302, 0.3398890
939.6124, 0.6589510
940.0945, 1.146020
940.5766, 1.737618
941.0587, 1.920602
941.5408, 1.318489
942.0229, 0.8808740
942.5051, 0.7302080
942.9872, 0.6664520
943.4693, 0.5078540
943.9514, 0.4228530
944.4335, 0.8673410
944.9156, 1.769598
945.3978, 2.119014
945.8799, 0.7038740
946.3620, 0.3624350
946.8441, 0.5699390
947.3262, 1.967064
947.8083, 2.202903
948.2905, 1.550521
948.7726, 1.165426
949.2547, 1.474217
949.7368, 1.898606
950.2189, 1.925310
950.7010, 1.811816
951.1832, 2.018018
951.6653, 2.344264
952.1474, 2.180247
952.6295, 1.508168
953.1116, 0.9614580
953.5938, 0.9447290
954.0759, 1.275079
954.5580, 1.854834
955.0400, 2.544553
955.5222, 2.403994
956.0043, 1.430507
956.4864, 0.8838200
956.9685, 1.204905
957.4506, 1.789830
957.9327, 2.111832
958.4149, 2.137365
958.8970, 1.602181
959.3791, 0.2947130
959.8612, 0.5161500
960.3433, 0.7027550
960.8254, 0.4702020
961.3076, 0.2896720
961.7897, 1.177059
962.2718, 1.640474
962.7539, 1.611311
963.2360, 1.580029
963.7181, 1.735797
964.2003, 1.681222
964.6824, 0.9757540
965.1645, 0.4909960
965.6466, 1.034547
966.1287, 1.967405
966.6108, 2.098572
967.0930, 1.256936
967.5751, 0.6120680
968.0572, 0.3832420
968.5393, 0.3963110
969.0214, 0.8519210
969.5035, 1.301118
969.9857, 1.190695
970.4678, 0.7647960
970.9499, 0.6845840
971.4320, 1.258956
971.9141, 1.755452
972.3962, 1.556521
972.8784, 1.296250
973.3605, 1.783150
973.8426, 2.464333
974.3247, 2.323024
974.8068, 1.387701
975.2889, 0.5081620
975.7711, 7.5029001E-02
976.2532, 2.2136999E-02
976.7353, 0.6180010
977.2174, 1.412295
977.6995, 1.416826
978.1816, 0.8284390
978.6638, 0.4535740
979.1459, 0.5146430
979.6280, 0.8176600
980.1101, 1.251215
980.5922, 1.675858
981.0743, 1.796578
981.5565, 1.638133
982.0386, 1.214747
982.5207, 0.5490940
983.0028, 0.3806640
983.4849, 1.049342
983.9670, 1.766017
984.4492, 1.620095
984.9313, 0.8310840
985.4134, 0.4445780
985.8955, 0.5133060
986.3776, 0.5866240
986.8597, 0.5917180
987.3419, 0.7259640
987.8240, 1.145435
988.3061, 1.619899
988.7882, 1.756140
989.2703, 1.557984
989.7524, 1.921252
990.2346, 3.345281
990.7167, 4.210206
991.1988, 4.076966
991.6809, 3.685126
992.1630, 3.199075
992.6451, 2.847170
993.1273, 3.222874
993.6094, 4.531631
994.0915, 5.051712
994.5736, 4.175786
995.0557, 3.325483
995.5378, 2.551054
996.0200, 2.094314
996.5021, 2.426341
996.9842, 3.097175
997.4663, 3.187418
997.9484, 2.507576
998.4305, 1.769412
998.9127, 0.7410940
999.3948, 0.2007220
999.8769, 1.176247
1000.359, 2.233037
1000.841, 1.624526
1001.323, 4.5000001E-05
1001.805, 0.5806420
1002.287, 0.6163900
1002.770, 1.746548
1003.252, 1.777257
1003.734, 1.494674
1004.216, 1.293011
1004.698, 1.249720
1005.180, 1.483717
1005.662, 1.851194
1006.144, 1.810446
1006.627, 1.055959
1007.109, 0.3995990
1007.591, 0.7375200
1008.073, 1.349194
1008.555, 1.275170
1009.037, 0.8637280
1009.519, 0.9652900
1010.001, 1.582508
1010.483, 1.989259
1010.966, 1.747636
1011.448, 1.266214
1011.930, 0.8603230
1012.412, 0.6413740
1012.894, 1.045683
1013.376, 1.825050
1013.858, 2.092504
1014.340, 1.695654
1014.823, 1.215661
1015.305, 1.051751
1015.787, 1.066526
1016.269, 0.9749860
1016.751, 0.8714450
1017.233, 1.274510
1017.715, 2.058244
1018.197, 2.418831
1018.679, 2.151797
1019.162, 1.627906
1019.644, 1.058095
1020.126, 0.5417930
1020.608, 0.3106430
1021.090, 0.3525760
1021.572, 0.5358870
1022.054, 0.8611210
1022.536, 1.044426
1023.018, 0.9571130
1023.501, 1.101572
1023.983, 2.052039
1024.465, 3.344909
1024.947, 3.373658
1025.429, 1.993818
1025.911, 1.105308
1026.393, 0.8576610
1026.875, 0.5782320
1027.358, 7.2439000E-02
1027.840, 0.4261520
1028.322, 0.3348950
1028.804, 0.1156920
1029.286, 3.0851001E-02
1029.768, 0.5024020
1030.250, 0.1059990
1030.732, 1.491450
1031.214, 2.307762
1031.697, 1.477282
1032.179, 0.1841720
1032.661, 0.4760380
1033.143, 0.5569160
1033.625, 0.2974500
1034.107, 0.5029020
1034.589, 1.163901
1035.071, 1.652721
1035.553, 1.973025
1036.036, 2.168171
1036.518, 2.121256
1037.000, 1.491755
1037.482, 0.4944030
1037.964, 0.3032220
1038.446, 1.585760
1038.928, 2.263423
1039.410, 1.807014
1039.893, 1.475734
1040.375, 1.957383
1040.857, 2.534564
1041.339, 2.429811
1041.821, 1.786816
1042.303, 1.351767
1042.785, 1.021293
1043.267, 1.106969
1043.750, 2.218072
1044.232, 3.003347
1044.714, 2.692854
1045.196, 2.068157
1045.678, 1.901607
1046.160, 2.137317
1046.642, 2.249423
1047.124, 2.038059
1047.606, 1.846894
1048.089, 1.637675
1048.571, 1.548450
1049.053, 1.767572
1049.535, 2.027891
1050.017, 2.022343
1050.499, 1.818257
1050.981, 1.720064
1051.463, 1.703771
1051.945, 1.989726
1052.428, 3.302013
1052.910, 4.106342
1053.392, 3.328896
1053.874, 2.011360
1054.356, 1.010180
1054.838, 0.4174100
1055.320, 0.2336160
1055.802, 0.5250580
1056.285, 0.9908980
1056.767, 1.870784
1057.249, 2.513563
1057.731, 2.397352
1058.213, 2.048198
1058.695, 2.023856
1059.177, 2.237701
1059.659, 2.254722
1060.141, 2.040190
1060.624, 1.745264
1061.106, 1.183698
1061.588, 0.8617470
1062.070, 1.317354
1062.552, 1.911541
1063.034, 1.964290
1063.516, 1.606359
1063.998, 1.363109
1064.480, 1.387525
1064.963, 1.302984
1065.445, 0.8262330
1065.927, 0.3667830
1066.409, 6.5211996E-02
1066.891, 5.6251001E-02
1067.373, 0.1008370
1067.855, 0.4317710
1068.337, 0.7479380
1068.820, 1.012601
1069.302, 1.084983
1069.784, 0.7174650
1070.266, 0.3760760
1070.748, 0.3149290
1071.230, 0.3818070
1071.712, 0.4201670
1072.194, 0.4732390
1072.677, 0.7232800
1073.159, 1.200005
1073.641, 1.492454
1074.123, 1.254639
1074.605, 1.002197
1075.087, 1.095457
1075.569, 1.198474
1076.051, 0.8799340
1076.533, 0.4037060
1077.016, 0.3550450
1077.498, 0.7993740
1077.980, 1.102973
1078.462, 0.8564500
1078.944, 0.6200650
1079.426, 0.6464320
1079.908, 0.8091580
1080.390, 1.183646
1080.872, 1.533284
1081.354, 1.399821
1081.837, 0.8074230
1082.319, 0.4379160
1082.801, 0.6667900
1083.283, 0.9289840
1083.765, 0.9278780
1084.247, 0.8994690
1084.729, 1.034060
1085.211, 1.235132
1085.694, 1.406979
1086.176, 1.558926
1086.658, 1.493944
1087.140, 0.9720300
1087.622, 0.6164700
1088.104, 0.9908120
1088.586, 1.349018
1089.068, 1.000398
1089.551, 0.5266640
1090.033, 0.8454740
1090.515, 1.661171
1090.997, 1.739538
1091.479, 0.5025360
1091.961, 0.2410440
1092.443, 0.7367970
1092.925, 1.673911
1093.407, 1.636560
1093.890, 1.131608
1094.372, 0.4237820
1094.854, 0.2523280
1095.336, 0.4559920
1095.818, 5.6791000E-02
1096.300, 0.4159910
1096.782, 1.080621
1097.264, 1.411188
1097.746, 0.9435260
1098.229, 0.3092830
1098.711, 8.7312996E-02
1099.193, 0.2420240
1099.675, 0.1853070
1100.157, 7.7331997E-02
1100.639, 0.3414390
1101.121, 0.3810980
1101.603, 0.6657810
1102.086, 2.052217
1102.568, 2.941334
1103.050, 1.614589
1103.532, 0.4028170
1104.014, 0.7968460
1104.496, 0.4262740
1104.978, 1.239516
1105.460, 1.077853
1105.943, 0.8757150
1106.425, 0.5586360
1106.907, 0.4945020
1107.389, 1.120569
1107.871, 1.876789
1108.353, 2.212394
1108.835, 2.148034
1109.317, 1.859418
1109.799, 1.131325
1110.281, 0.7458840
1110.764, 1.000069
1111.246, 1.284252
1111.728, 1.446941
1112.210, 1.555859
1112.692, 1.720756
1113.174, 1.862050
1113.656, 1.712776
1114.138, 1.785661
1114.621, 1.881204
1115.103, 1.579625
1115.585, 1.938725
1116.067, 1.648077
1116.549, 1.286431
1117.031, 1.135419
1117.513, 1.160022
1117.995, 1.364449
1118.478, 1.753064
1118.960, 1.849784
1119.442, 1.476365
1119.924, 1.235183
1120.406, 1.216768
1120.888, 1.263688
1121.370, 1.373094
1121.852, 1.400264
1122.334, 1.092841
1122.817, 1.357611
1123.299, 0.6291630
1123.781, 1.491997
1124.263, 1.869494
1124.745, 1.622634
1125.227, 1.214590
1125.709, 0.6653400
1126.191, 0.3632590
1126.673, 0.7042780
1127.156, 1.388817
1127.638, 1.674010
1128.120, 1.543399
1128.602, 1.486429
1129.084, 1.512979
1129.566, 1.499482
1130.048, 1.410489
1130.530, 1.378855
1131.013, 1.481046
1131.495, 1.704131
1131.977, 2.131145
1132.459, 2.604304
1132.941, 2.123421
1133.423, 0.7942540
1133.905, 0.2355850
1134.387, 0.5907990
1134.870, 0.8520900
1135.352, 0.6221070
1135.834, 0.4261520
1136.316, 0.8099190
1136.798, 1.446542
1137.280, 1.606438
1137.762, 1.431135
1138.244, 1.512839
1138.726, 1.764883
1139.208, 1.470972
1139.691, 0.5724190
1140.173, 7.8359000E-02
1140.655, 0.6603310
1141.137, 1.521820
1141.619, 1.730551
1142.101, 1.514322
1142.583, 0.9981360
1143.065, 0.3578160
1143.548, 0.2433160
1144.030, 0.6681630
1144.512, 0.4795570
1144.994, 0.4568550
1145.476, 1.328808
1145.958, 1.415149
1146.440, 1.228973
1146.922, 1.205230
1147.405, 1.277814
1147.887, 1.353643
1148.369, 1.461513
1148.851, 1.773200
1149.333, 2.242348
1149.815, 2.380097
1150.297, 1.848351
1150.779, 1.378766
1151.261, 1.577971
1151.744, 1.817528
1152.226, 1.629274
1152.708, 1.204872
1153.190, 0.7459220
1153.672, 0.3577850
1154.154, 0.1072680
1154.636, 1.1124000E-02
1155.118, 1.1879000E-02
1155.600, 0.1337320
1156.083, 0.2931610
1156.565, 0.5895270
1157.047, 0.7652270
1157.529, 0.4419540
1158.011, 1.3946000E-02
1158.493, 0.2314870
1158.975, 1.109009
1159.457, 1.448810
1159.940, 0.4365740
1160.422, 0.1124960
1160.904, 1.142626
1161.386, 1.961698
1161.868, 1.999551
1162.350, 1.743393
1162.832, 1.348492
1163.314, 0.9766940
1163.796, 1.224520
1164.279, 2.328100
1164.761, 2.666971
1165.243, 1.990408
1165.725, 1.432850
1166.207, 1.256737
1166.689, 1.080025
1167.171, 0.6784020
1167.653, 0.2772900
1168.135, 0.2053790
1168.618, 0.2176210
1169.100, 0.6141360
1169.582, 0.8073270
1170.064, 1.289562
1170.546, 2.073209
1171.028, 2.537519
1171.510, 2.476024
1171.992, 2.295882
1172.474, 2.361072
1172.957, 2.410837
1173.439, 2.046859
1173.921, 1.401289
1174.403, 0.6929180
1174.885, 7.0000999E-02
1175.367, 0.1242370
1175.849, 0.7995400
1176.331, 1.363689
1176.814, 1.501035
1177.296, 1.528234
1177.778, 1.733955
1178.260, 1.962089
1178.742, 2.004448
1179.224, 1.977275
1179.706, 2.169060
1180.188, 2.368618
1180.671, 1.983986
1181.153, 1.066829
1181.635, 0.4800940
1182.117, 0.5668410
1182.599, 0.8790020
1183.081, 1.464812
1183.563, 2.026374
1184.045, 2.555273
1184.527, 2.817182
1185.010, 2.387798
1185.492, 1.573635
1185.974, 1.087746
1186.456, 1.041800
1186.938, 1.033308
1187.420, 0.8479000
1187.902, 0.9235710
1188.384, 1.783966
1188.866, 2.350678
1189.349, 1.864367
1189.831, 1.154139
1190.313, 1.121643
1190.795, 1.576107
1191.277, 1.765859
1191.759, 1.660304
1192.241, 1.389995
1192.723, 0.8580500
1193.206, 0.4730000
1193.688, 0.2805600
1194.170, 0.4568340
1194.652, 1.204500
1195.134, 1.992613
1195.616, 1.999048
1196.098, 1.476440
1196.580, 1.575528
1197.063, 2.215474
1197.545, 2.709855
1198.027, 2.951967
1198.509, 2.261022
1198.991, 0.5622710
1199.473, 0.5460010
1199.955, 0.1063610
1200.437, 1.302973
1200.919, 1.442182
1201.401, 1.050137
1201.884, 0.9905370
1202.366, 1.187475
1202.848, 1.525598
1203.330, 1.847160
1203.812, 1.845185
1204.294, 1.462321
1204.776, 1.088190
1205.258, 0.8820810
1205.741, 0.8809680
1206.223, 1.307740
1206.705, 1.736933
1207.187, 1.810892
1207.669, 1.718582
1208.151, 1.724333
1208.633, 1.790514
1209.115, 1.688877
1209.598, 1.334722
1210.080, 1.089626
1210.562, 1.203373
1211.044, 1.137777
1211.526, 0.4875620
1212.008, 1.2659000E-02
1212.490, 0.1593950
1212.972, 0.5551560
1213.454, 0.7608680
1213.937, 0.8365760
1214.419, 1.133029
1214.901, 1.801398
1215.383, 1.782529
1215.865, 0.8292940
1216.347, 0.7610700
1216.829, 2.131739
1217.311, 3.010411
1217.793, 2.185796
1218.276, 0.9982940
1218.758, 1.318929
1219.240, 2.548996
1219.722, 3.052992
1220.204, 2.986885
1220.686, 2.829988
1221.168, 2.658223
1221.650, 2.615796
1222.133, 2.649229
1222.615, 2.189575
1223.097, 0.8163810
1223.579, 0.2419890
1224.061, 0.6108200
1224.543, 1.795909
1225.025, 1.685608
1225.507, 1.093320
1225.990, 0.9118190
1226.472, 1.087837
1226.954, 1.353791
1227.436, 1.642603
1227.918, 1.917774
1228.400, 2.413032
1228.882, 2.356249
1229.364, 0.7307000
1229.846, 0.3840410
1230.328, 0.3764150
1230.811, 1.383846
1231.293, 1.305928
1231.775, 0.6964490
1232.257, 0.5978960
1232.739, 1.005796
1233.221, 1.238581
1233.703, 1.228503
1234.185, 1.348847
1234.668, 1.641916
1235.150, 2.027001
1235.632, 2.507061
1236.114, 2.823700
1236.596, 2.764234
1237.078, 2.482107
1237.560, 2.330745
1238.042, 2.143927
1238.525, 0.9768540
1239.007, 0.6365060
1239.489, 0.8214610
1239.971, 0.2556780
1240.453, 1.185703
1240.935, 1.552724
1241.417, 1.893046
1241.899, 2.620656
1242.381, 3.089011
1242.864, 2.718206
1243.346, 2.140654
1243.828, 1.772504
1244.310, 1.630408
1244.792, 1.896850
1245.274, 2.314106
1245.756, 2.246530
1246.238, 2.376400
1246.720, 2.506070
1247.203, 2.098061
1247.685, 2.385469
1248.167, 1.830162
1248.649, 1.176077
1249.131, 0.3999330
1249.613, 3.3911999E-02
1250.095, 0.6768880
1250.577, 1.707474
1251.059, 1.824987
1251.542, 1.150374
1252.024, 1.234499
1252.506, 2.070803
1252.988, 2.651543
1253.470, 2.884330
1253.952, 2.831973
1254.434, 2.524842
1254.916, 2.562732
1255.399, 3.381527
1255.881, 4.038054
1256.363, 2.930391
1256.845, 1.296781
1257.327, 0.9269130
1257.809, 1.217228
1258.291, 1.524873
1258.773, 1.731435
1259.255, 1.937744
1259.738, 2.153025
1260.220, 2.302459
1260.702, 2.408845
1261.184, 2.309864
1261.666, 1.511217
1262.148, 0.9869190
1262.630, 1.788216
1263.112, 2.651700
1263.594, 2.055139
1264.077, 1.064114
1264.559, 1.450578
1265.041, 1.028849
1265.523, 0.6920510
1266.005, 1.219452
1266.487, 0.4039320
1266.969, 0.7153900
1267.451, 1.147802
1267.934, 1.482017
1268.416, 1.622923
1268.898, 1.512699
1269.380, 1.319293
1269.862, 1.182326
1270.344, 1.191329
1270.826, 1.860344
1271.308, 2.580901
1271.791, 1.829360
1272.273, 0.3479940
1272.755, 9.9115998E-02
1273.237, 0.5231360
1273.719, 1.016673
1274.201, 0.9609230
1274.683, 1.127778
1275.165, 2.306247
1275.647, 3.145352
1276.130, 3.117897
1276.612, 2.636776
1277.094, 1.472906
1277.576, 0.3830840
1278.058, 0.2961420
1278.540, 8.5106000E-02
1279.022, 9.5623001E-02
1279.504, 0.3725190
1279.986, 0.5496490
1280.469, 0.8909030
1280.951, 1.164751
1281.433, 1.726718
1281.915, 1.537070
1282.397, 1.937591
1282.879, 2.364512
1283.361, 1.957681
1283.843, 1.185262
1284.326, 0.5169060
1284.808, 0.0000000E+00
##END=



