##NAMES=Bornite
##RRUFFID=R070636
##IDEAL CHEMISTRY=Cu^1+^_5_Fe^3+^S^2-^_4_
##LOCALITY=mine 65, 180 m. level, Dzheskazgan mining district, central Kazakhstan
##OWNER=RRUFF
##SOURCE=Michael Scott
##DESCRIPTION=Iridescent blue metallic crystal associated with calcite, malachite and hematite
##STATUS=The identification of this mineral has been confirmed by single-crystal X-ray diffraction.
##URL=rruff.info/R070636
141.3404, 0.0000000E+00
141.8226, 2.896759
142.3047, 9.8968998E-02
142.7868, 13.14685
143.2689, 24.99902
143.7510, 36.97345
144.2331, 46.27673
144.7152, 47.27798
145.1974, 32.73062
145.6795, 20.58960
146.1616, 16.93561
146.6437, 28.38550
147.1258, 37.43027
147.6079, 31.13312
148.0901, 19.45410
148.5722, 18.03668
149.0543, 41.43054
149.5364, 62.21954
150.0185, 68.32556
150.5006, 43.28726
150.9828, 23.10757
151.4649, 8.700958
151.9470, 1.2695000E-02
152.4291, 3.580811
152.9112, 0.5340880
153.3933, 6.773193
153.8755, 16.71094
154.3576, 36.41742
154.8397, 51.50714
155.3218, 58.14944
155.8039, 55.38815
156.2860, 50.61191
156.7682, 39.97272
157.2503, 29.35748
157.7324, 26.04697
158.2145, 41.02054
158.6966, 56.53513
159.1787, 64.75217
159.6609, 62.20560
160.1430, 58.16519
160.6251, 55.42697
161.1072, 53.28201
161.5893, 49.96994
162.0714, 43.29388
162.5536, 36.19736
163.0357, 30.52264
163.5178, 25.65228
163.9999, 23.48694
164.4820, 26.79504
164.9641, 34.63589
165.4463, 42.35406
165.9284, 45.13193
166.4105, 44.44525
166.8926, 40.30798
167.3747, 27.06265
167.8568, 14.34244
168.3390, 9.779419
168.8211, 14.16943
169.3032, 18.89325
169.7853, 14.74850
170.2674, 7.295502
170.7495, 6.259705
171.2317, 25.49319
171.7138, 48.98190
172.1959, 58.78143
172.6780, 49.89514
173.1601, 38.27557
173.6422, 39.19550
174.1244, 49.26373
174.6065, 57.38971
175.0886, 56.76785
175.5707, 54.29340
176.0528, 45.80960
176.5349, 33.76529
177.0171, 22.18744
177.4992, 13.71246
177.9813, 9.252441
178.4634, 10.22778
178.9455, 22.16718
179.4276, 40.51569
179.9098, 52.79120
180.3919, 50.48651
180.8740, 42.17575
181.3561, 43.54935
181.8382, 54.99860
182.3203, 67.73135
182.8025, 74.90829
183.2846, 77.50638
183.7667, 73.74420
184.2488, 56.49234
184.7309, 33.73270
185.2130, 32.67566
185.6951, 58.28275
186.1773, 88.94189
186.6594, 98.21786
187.1415, 87.51056
187.6236, 69.16736
188.1057, 42.10901
188.5878, 10.42932
189.0700, 4.492279
189.5521, 3.621521
190.0342, 22.42139
190.5163, 29.22726
190.9984, 23.63290
191.4805, 15.94244
191.9627, 13.90549
192.4448, 16.98877
192.9269, 17.67267
193.4090, 13.23248
193.8911, 6.403961
194.3732, 6.646759
194.8554, 15.11456
195.3375, 24.21011
195.8196, 25.74188
196.3017, 19.51648
196.7838, 15.38474
197.2659, 16.26630
197.7481, 21.47943
198.2302, 26.94885
198.7123, 32.68546
199.1944, 38.08389
199.6765, 42.83713
200.1586, 47.67194
200.6408, 47.31567
201.1229, 36.26666
201.6050, 14.38156
202.0871, 3.676727
202.5692, 6.623657
203.0513, 17.08463
203.5335, 26.40778
204.0156, 35.35199
204.4977, 39.93695
204.9798, 36.61469
205.4619, 23.90369
205.9440, 14.31696
206.4262, 8.463654
206.9083, 5.754089
207.3904, 5.855377
207.8725, 10.52502
208.3546, 13.15955
208.8367, 6.635529
209.3189, 14.43671
209.8010, 20.31857
210.2831, 1.937866
210.7652, 33.06583
211.2473, 46.74512
211.7294, 31.14584
212.2116, 9.603394
212.6937, 1.014984
213.1758, 10.49255
213.6579, 15.51562
214.1400, 9.907104
214.6221, 5.004974
215.1043, 7.767059
215.5864, 7.962921
216.0685, 26.68475
216.5506, 31.08902
217.0327, 13.65604
217.5148, 1.311432
217.9970, 0.8768620
218.4791, 13.02353
218.9612, 26.54462
219.4433, 45.33450
219.9254, 61.38763
220.4075, 62.06808
220.8897, 38.64810
221.3718, 17.80429
221.8539, 9.035370
222.3360, 15.62488
222.8181, 17.60431
223.3002, 12.93289
223.7824, 4.891083
224.2645, 1.075317
224.7466, 6.303345
225.2287, 7.185303
225.7108, 0.5987240
226.1929, 19.42517
226.6750, 29.91318
227.1572, 27.39139
227.6393, 16.31476
228.1214, 7.803772
228.6035, 2.428040
229.0856, 1.094604
229.5677, 3.538025
230.0499, 5.817627
230.5320, 4.734589
231.0141, 1.188110
231.4962, 10.60611
231.9783, 18.66116
232.4604, 27.23581
232.9426, 31.90823
233.4247, 28.60962
233.9068, 9.878998
234.3889, 0.9005430
234.8710, 1.908295
235.3531, 16.22781
235.8353, 22.31003
236.3174, 15.44165
236.7995, 5.740143
237.2816, 0.5751650
237.7637, 0.9844060
238.2458, 4.232849
238.7280, 12.27222
239.2101, 24.92230
239.6922, 28.76138
240.1743, 17.84842
240.6564, 4.014984
241.1385, 1.456787
241.6207, 6.051117
242.1028, 13.50586
242.5849, 17.07562
243.0670, 6.244720
243.5491, 18.30484
244.0313, 25.18921
244.5134, 27.15988
244.9955, 9.532867
245.4776, 17.21469
245.9597, 14.75507
246.4418, 11.88034
246.9240, 22.59625
247.4061, 7.752228
247.8882, 18.77728
248.3703, 19.50641
248.8524, 24.94943
249.3345, 20.18835
249.8167, 18.58060
250.2988, 27.18192
250.7809, 28.32532
251.2630, 31.50223
251.7451, 24.22037
252.2272, 12.75241
252.7094, 9.397400
253.1915, 20.53860
253.6736, 28.79166
254.1557, 25.88791
254.6378, 4.762482
255.1199, 4.626831
255.6021, 3.047821
256.0842, 19.93497
256.5663, 28.90131
257.0484, 27.53113
257.5305, 22.42813
258.0126, 14.81308
258.4948, 0.2787170
258.9769, 3.419952
259.4590, 9.564209
259.9411, 31.42828
260.4232, 40.24786
260.9053, 30.45340
261.3875, 17.80707
261.8696, 9.728333
262.3517, 6.838379
262.8338, 7.502197
263.3159, 13.80984
263.7980, 23.12054
264.2802, 25.04205
264.7623, 15.44955
265.2444, 6.725464
265.7265, 7.140594
266.2086, 19.64267
266.6907, 30.56299
267.1729, 38.08237
267.6550, 42.64737
268.1371, 44.66135
268.6192, 42.10440
269.1013, 38.14825
269.5834, 34.53448
270.0656, 30.86371
270.5477, 30.00211
271.0298, 34.30090
271.5119, 41.44104
271.9940, 40.38208
272.4761, 28.05106
272.9583, 14.23447
273.4404, 6.334900
273.9225, 4.248169
274.4046, 5.475616
274.8867, 10.01770
275.3688, 17.48651
275.8510, 28.03485
276.3331, 43.74200
276.8152, 56.15765
277.2973, 56.39264
277.7794, 43.04980
278.2615, 30.64899
278.7437, 21.04877
279.2258, 14.58795
279.7079, 13.82343
280.1900, 19.77063
280.6721, 27.47931
281.1542, 32.56744
281.6364, 34.95129
282.1185, 37.25806
282.6006, 40.46143
283.0827, 43.98511
283.5648, 44.57867
284.0469, 41.58539
284.5291, 36.95648
285.0112, 30.80524
285.4933, 23.30463
285.9754, 20.72003
286.4575, 26.55469
286.9396, 37.92535
287.4217, 46.49829
287.9038, 52.63348
288.3860, 53.36053
288.8681, 40.15723
289.3502, 15.15936
289.8323, 0.3981320
290.3144, 3.400024
290.7965, 19.68427
291.2787, 29.59460
291.7608, 32.77258
292.2429, 33.73218
292.7250, 37.21521
293.2071, 42.53827
293.6892, 46.46967
294.1714, 47.70001
294.6535, 46.98486
295.1356, 45.91644
295.6177, 44.51508
296.0998, 42.48517
296.5819, 37.05243
297.0641, 30.19739
297.5462, 28.99792
298.0283, 42.17126
298.5104, 59.03442
298.9925, 59.78992
299.4746, 44.39191
299.9568, 25.60516
300.4389, 11.46149
300.9210, 2.323303
301.4031, 1.191223
301.8852, 3.967773
302.3673, 13.27014
302.8495, 21.44238
303.3316, 28.41656
303.8137, 34.86438
304.2958, 42.94525
304.7779, 50.68188
305.2600, 54.37250
305.7422, 51.01056
306.2243, 44.03876
306.7064, 34.31824
307.1885, 22.11145
307.6706, 14.40948
308.1527, 22.18970
308.6349, 36.17834
309.1170, 43.38947
309.5991, 29.65112
310.0812, 14.32928
310.5633, 13.30914
311.0454, 25.83124
311.5276, 38.83032
312.0097, 47.48633
312.4918, 51.35559
312.9739, 49.86621
313.4560, 36.71259
313.9381, 23.49432
314.4203, 16.78802
314.9024, 16.21198
315.3845, 17.88934
315.8666, 22.49573
316.3487, 27.41290
316.8308, 30.09357
317.3130, 25.30206
317.7951, 22.51184
318.2772, 26.97302
318.7593, 38.01776
319.2414, 47.84778
319.7235, 52.98315
320.2057, 56.32721
320.6878, 60.18140
321.1699, 71.34308
321.6520, 76.70270
322.1341, 68.49213
322.6162, 48.48004
323.0984, 34.87238
323.5805, 36.99316
324.0626, 43.24103
324.5447, 45.79199
325.0268, 37.36566
325.5089, 32.09833
325.9911, 33.64087
326.4732, 41.27094
326.9553, 46.99683
327.4374, 47.49683
327.9195, 47.52380
328.4016, 50.08514
328.8838, 60.70337
329.3659, 66.62897
329.8480, 64.35144
330.3301, 55.93317
330.8122, 50.51764
331.2943, 48.75000
331.7765, 49.26544
332.2586, 51.48676
332.7407, 56.54907
333.2228, 61.46747
333.7049, 67.35583
334.1870, 73.07513
334.6692, 73.05640
335.1513, 62.77686
335.6334, 54.05536
336.1155, 54.70587
336.5976, 69.17157
337.0797, 78.66547
337.5619, 80.63116
338.0440, 77.60266
338.5261, 76.63049
339.0082, 77.97278
339.4903, 80.54260
339.9724, 85.97137
340.4546, 95.70013
340.9367, 94.69745
341.4188, 80.16193
341.9009, 59.17065
342.3830, 45.49420
342.8651, 39.14087
343.3473, 37.63025
343.8294, 43.81158
344.3115, 56.73236
344.7936, 62.34326
345.2757, 58.66107
345.7578, 50.79852
346.2400, 45.60718
346.7221, 43.15137
347.2042, 43.17273
347.6863, 48.82678
348.1684, 57.19653
348.6505, 58.15076
349.1327, 50.65497
349.6148, 41.29272
350.0969, 39.62756
350.5790, 43.97223
351.0611, 44.79590
351.5432, 32.98279
352.0254, 17.51477
352.5075, 13.84076
352.9896, 23.37531
353.4717, 36.17365
353.9538, 44.90137
354.4359, 50.21954
354.9181, 53.12903
355.4002, 53.61108
355.8823, 52.20020
356.3644, 49.27515
356.8465, 44.86139
357.3286, 39.21704
357.8108, 30.20996
358.2929, 20.68408
358.7750, 14.15289
359.2571, 12.50275
359.7392, 13.69965
360.2213, 19.15851
360.7035, 28.28174
361.1856, 32.92792
361.6677, 22.58203
362.1498, 9.492798
362.6319, 4.152100
363.1140, 19.80646
363.5962, 32.93494
364.0783, 35.34399
364.5604, 28.36499
365.0425, 21.68604
365.5246, 15.52917
366.0067, 11.63666
366.4889, 11.05670
366.9710, 17.26971
367.4531, 22.84778
367.9352, 27.59711
368.4173, 31.36536
368.8994, 33.46454
369.3815, 34.61334
369.8636, 33.47943
370.3458, 29.01099
370.8279, 15.30212
371.3100, 8.594971
371.7921, 12.64502
372.2742, 22.82910
372.7563, 27.65668
373.2385, 25.02145
373.7206, 20.38736
374.2027, 15.03448
374.6848, 7.680908
375.1669, 5.283142
375.6490, 9.318634
376.1312, 16.77255
376.6133, 23.80133
377.0954, 31.34171
377.5775, 34.55347
378.0596, 29.02621
378.5417, 15.30624
379.0239, 10.09109
379.5060, 15.27866
379.9881, 23.44330
380.4702, 24.58350
380.9523, 18.99008
381.4344, 14.86777
381.9166, 16.78751
382.3987, 21.82092
382.8808, 19.73242
383.3629, 10.10336
383.8450, 0.1159360
384.3271, 1.997070
384.8093, 1.345490
385.2914, 2.415070
385.7735, 3.740845
386.2556, 10.76202
386.7377, 8.648682
387.2198, 1.629913
387.7020, 12.91760
388.1841, 20.69702
388.6662, 26.11365
389.1483, 30.58264
389.6304, 33.70349
390.1125, 37.14450
390.5947, 45.66675
391.0768, 56.38220
391.5589, 60.08319
392.0410, 43.90500
392.5231, 24.19656
393.0052, 13.48761
393.4874, 17.54959
393.9695, 22.00153
394.4516, 20.52560
394.9337, 15.18561
395.4158, 11.26871
395.8979, 10.67206
396.3801, 11.49460
396.8622, 14.56763
397.3443, 22.54822
397.8264, 23.18634
398.3085, 5.554016
398.7906, 17.30621
399.2728, 28.53372
399.7549, 20.64774
400.2370, 8.938232
400.7191, 6.184265
401.2012, 25.43192
401.6833, 37.43442
402.1655, 39.69876
402.6476, 37.10645
403.1297, 33.70715
403.6118, 30.00146
404.0939, 23.69608
404.5760, 11.73154
405.0582, 3.325867
405.5403, 4.474243
406.0224, 13.44275
406.5045, 30.29596
406.9866, 27.80554
407.4688, 4.210236
407.9509, 5.704712
408.4330, 5.374359
408.9151, 26.55084
409.3972, 34.40475
409.8793, 28.86560
410.3615, 21.89810
410.8436, 20.33408
411.3257, 22.78812
411.8078, 23.89294
412.2899, 22.67487
412.7720, 22.98306
413.2542, 33.27026
413.7363, 49.51208
414.2184, 59.89178
414.7005, 54.34778
415.1826, 42.22375
415.6647, 33.52145
416.1469, 28.60474
416.6290, 26.25897
417.1111, 26.04492
417.5932, 27.81229
418.0753, 31.33826
418.5574, 41.34668
419.0396, 49.06067
419.5217, 48.61951
420.0038, 40.01309
420.4859, 31.96841
420.9680, 26.15860
421.4501, 23.69958
421.9323, 25.86615
422.4144, 40.78015
422.8965, 49.49655
423.3786, 43.62790
423.8607, 28.70587
424.3428, 20.56012
424.8250, 28.63193
425.3071, 36.35962
425.7892, 37.23608
426.2713, 26.34619
426.7534, 21.82291
427.2355, 27.33328
427.7177, 36.92188
428.1998, 41.91406
428.6819, 41.24451
429.1640, 38.05899
429.6461, 31.29190
430.1282, 21.22784
430.6104, 19.99774
431.0925, 30.63620
431.5746, 42.25916
432.0567, 42.63892
432.5388, 31.42426
433.0209, 21.27930
433.5031, 14.25101
433.9852, 10.43796
434.4673, 10.78186
434.9494, 15.20575
435.4315, 20.67911
435.9136, 25.72562
436.3958, 30.13757
436.8779, 33.09286
437.3600, 34.03864
437.8421, 34.73032
438.3242, 38.40933
438.8063, 43.61890
439.2885, 46.25626
439.7706, 41.02338
440.2527, 34.13809
440.7348, 32.20499
441.2169, 36.28595
441.6990, 39.14059
442.1812, 31.92828
442.6633, 22.95947
443.1454, 21.51306
443.6275, 42.36914
444.1096, 59.03900
444.5917, 60.16687
445.0739, 47.27487
445.5560, 37.00427
446.0381, 36.85175
446.5202, 37.61563
447.0023, 33.87354
447.4844, 16.04419
447.9666, 5.708374
448.4487, 6.452637
448.9308, 14.50610
449.4129, 20.08569
449.8950, 23.75531
450.3771, 23.81879
450.8593, 17.52704
451.3413, 2.292114
451.8235, 3.236420
452.3056, 3.191223
452.7877, 15.76489
453.2698, 30.20605
453.7519, 47.49194
454.2340, 53.31653
454.7162, 36.80768
455.1983, 7.137024
455.6804, 0.6049800
456.1625, 14.63751
456.6446, 32.05725
457.1267, 36.28833
457.6089, 31.55408
458.0910, 25.66742
458.5731, 19.38361
459.0552, 13.85724
459.5373, 11.62067
460.0194, 12.16034
460.5016, 13.76422
460.9837, 16.19061
461.4658, 18.82361
461.9479, 21.68536
462.4300, 25.22913
462.9121, 26.06116
463.3943, 21.11212
463.8764, 13.94769
464.3585, 8.036377
464.8406, 3.004211
465.3227, 0.8678590
465.8048, 2.857422
466.2870, 10.04346
466.7691, 16.60889
467.2512, 23.99695
467.7333, 29.19934
468.2154, 30.14331
468.6975, 21.82904
469.1797, 17.69019
469.6618, 21.30786
470.1439, 28.99323
470.6260, 28.21997
471.1081, 14.84125
471.5902, 4.194031
472.0724, 4.814575
472.5545, 17.99121
473.0366, 21.99500
473.5187, 14.13928
474.0008, 5.304565
474.4829, 14.32971
474.9651, 38.89911
475.4472, 49.83301
475.9293, 30.38727
476.4114, 2.683960
476.8935, 14.15259
477.3756, 5.045959
477.8578, 9.391357
478.3399, 22.37115
478.8220, 32.36609
479.3041, 36.29095
479.7862, 31.67810
480.2683, 25.69824
480.7505, 24.96454
481.2326, 26.82672
481.7147, 25.77069
482.1968, 13.09406
482.6789, 2.129089
483.1610, 0.1575320
483.6432, 8.593628
484.1253, 19.70972
484.6074, 39.97430
485.0895, 57.71741
485.5716, 62.95728
486.0537, 38.02551
486.5359, 20.57635
487.0180, 16.57935
487.5001, 23.00464
487.9822, 25.57550
488.4643, 21.78955
488.9464, 18.21960
489.4286, 18.88330
489.9107, 25.29425
490.3928, 27.29346
490.8749, 23.41479
491.3570, 17.66229
491.8391, 16.94464
492.3213, 21.24243
492.8034, 22.86548
493.2855, 16.70361
493.7676, 6.946350
494.2497, 5.682434
494.7318, 12.73688
495.2140, 19.34332
495.6961, 14.90283
496.1782, 5.841736
496.6603, 4.511230
497.1424, 17.08191
497.6245, 29.83105
498.1067, 27.70776
498.5888, 17.39429
499.0709, 14.41321
499.5530, 35.37286
500.0351, 57.49573
500.5172, 68.13129
500.9994, 64.76807
501.4815, 59.54401
501.9636, 49.13629
502.4457, 41.09308
502.9278, 42.25092
503.4099, 65.05981
503.8921, 82.03674
504.3742, 90.06946
504.8563, 90.50653
505.3384, 88.23785
505.8205, 81.32074
506.3026, 75.41760
506.7848, 74.91846
507.2669, 81.57758
507.7490, 79.26746
508.2311, 65.31378
508.7132, 48.56567
509.1953, 41.10236
509.6775, 41.99414
510.1596, 43.38824
510.6417, 42.26886
511.1238, 39.52887
511.6059, 36.43884
512.0880, 33.10785
512.5701, 31.01709
513.0522, 35.04108
513.5344, 39.08832
514.0165, 34.03857
514.4986, 13.05145
514.9807, 2.978882
515.4628, 6.585510
515.9449, 28.76251
516.4271, 41.36127
516.9092, 27.60278
517.3913, 11.99731
517.8734, 2.747925
518.3555, 0.3519900
518.8376, 1.901489
519.3198, 12.77490
519.8019, 23.46637
520.2840, 28.22601
520.7661, 24.56000
521.2482, 19.35620
521.7303, 10.68030
522.2125, 1.866577
522.6946, 1.944031
523.1767, 13.34839
523.6588, 23.15118
524.1409, 24.82068
524.6230, 19.73236
525.1052, 20.04535
525.5873, 26.68280
526.0694, 31.40375
526.5515, 21.30981
527.0336, 2.436340
527.5157, 6.505981
527.9979, 3.589905
528.4800, 17.25586
528.9621, 15.72815
529.4442, 3.803406
529.9263, 4.376953
530.4084, 3.898926
530.8906, 14.73639
531.3727, 17.90662
531.8548, 11.67383
532.3369, 5.352539
532.8190, 0.2202150
533.3011, 3.398071
533.7833, 2.604980
534.2654, 5.081116
534.7475, 12.60968
535.2296, 23.04810
535.7117, 34.14276
536.1938, 38.00940
536.6760, 32.02942
537.1581, 23.90851
537.6402, 16.28979
538.1223, 9.156799
538.6044, 3.078247
539.0865, 2.288818
539.5687, 5.740784
540.0508, 5.371826
540.5329, 1.543884
541.0150, 3.246460
541.4971, 9.128296
541.9792, 14.87366
542.4614, 17.59082
542.9435, 18.03668
543.4256, 19.72894
543.9077, 28.28680
544.3898, 37.09229
544.8719, 39.57385
545.3541, 33.56415
545.8362, 26.16534
546.3183, 18.85681
546.8004, 13.48755
547.2825, 11.87421
547.7646, 21.13885
548.2468, 26.71893
548.7289, 22.87555
549.2110, 12.33026
549.6931, 7.058838
550.1752, 11.19037
550.6573, 14.93549
551.1395, 13.28723
551.6216, 4.388672
552.1037, 1.784424
552.5858, 6.872498
553.0679, 15.13562
553.5500, 22.37836
554.0322, 28.49609
554.5143, 32.06006
554.9964, 32.22192
555.4785, 30.29376
555.9606, 28.35907
556.4427, 26.38922
556.9249, 24.25201
557.4070, 20.76556
557.8891, 17.63116
558.3712, 17.48242
558.8533, 20.93701
559.3354, 23.48798
559.8176, 19.74347
560.2997, 15.07953
560.7818, 15.01813
561.2639, 28.53204
561.7460, 38.24207
562.2281, 40.10260
562.7103, 35.21704
563.1924, 27.87903
563.6745, 13.43390
564.1566, 2.921204
564.6387, 1.612549
565.1208, 10.81378
565.6030, 15.64392
566.0851, 14.39893
566.5672, 12.65179
567.0493, 18.64612
567.5314, 31.64374
568.0135, 35.77069
568.4957, 25.21155
568.9778, 9.513916
569.4599, 4.190979
569.9420, 7.589233
570.4241, 12.90234
570.9063, 17.53638
571.3884, 21.66583
571.8705, 26.40631
572.3526, 31.71826
572.8347, 34.16345
573.3168, 29.15009
573.7990, 22.30121
574.2811, 18.43512
574.7632, 18.09937
575.2453, 21.33893
575.7274, 33.15619
576.2095, 47.81281
576.6917, 53.57825
577.1738, 46.47614
577.6559, 36.84149
578.1380, 26.22443
578.6201, 14.90094
579.1022, 6.946350
579.5844, 1.939941
580.0665, 1.844116
580.5486, 11.33582
581.0307, 28.61163
581.5128, 40.07672
581.9949, 43.63617
582.4771, 43.03064
582.9592, 41.18970
583.4413, 38.93683
583.9234, 27.85437
584.4055, 40.13727
584.8876, 46.99341
585.3698, 48.16376
585.8519, 29.38184
586.3340, 36.61603
586.8161, 33.42456
587.2982, 29.80585
587.7803, 40.49982
588.2625, 24.96552
588.7446, 35.75122
589.2267, 35.83374
589.7088, 40.76086
590.1909, 35.19800
590.6730, 32.86914
591.1552, 40.89459
591.6373, 43.15308
592.1194, 36.38495
592.6015, 41.62689
593.0836, 25.42017
593.5657, 28.03705
594.0479, 38.77551
594.5300, 32.54187
595.0121, 37.97888
595.4942, 38.97137
595.9763, 19.76508
596.4584, 35.68750
596.9406, 36.35394
597.4227, 21.24561
597.9048, 27.10358
598.3869, 26.98431
598.8690, 17.52209
599.3511, 5.191284
599.8333, 2.447815
600.3154, 30.83295
600.7975, 49.18964
601.2796, 41.20917
601.7617, 7.816284
602.2438, 10.80060
602.7260, 10.39069
603.2081, 2.642883
603.6902, 7.458374
604.1723, 20.68921
604.6544, 26.22870
605.1365, 22.16144
605.6187, 14.58160
606.1008, 11.69666
606.5829, 12.40509
607.0650, 11.88074
607.5471, 6.836426
608.0292, 1.764038
608.5114, 1.340698
608.9935, 5.234924
609.4756, 12.40021
609.9577, 30.91724
610.4398, 45.74567
610.9219, 44.57495
611.4041, 23.61230
611.8862, 7.468933
612.3683, 1.981018
612.8504, 2.460999
613.3325, 5.691650
613.8146, 15.83582
614.2968, 20.03235
614.7789, 15.57483
615.2610, 6.938477
615.7431, 4.785400
616.2252, 10.00494
616.7073, 16.36798
617.1895, 22.88391
617.6716, 28.42456
618.1537, 28.77771
618.6358, 24.32904
619.1179, 19.66382
619.6000, 17.81708
620.0822, 17.72339
620.5643, 18.85822
621.0464, 21.86462
621.5285, 22.49481
622.0106, 13.60950
622.4927, 3.514221
622.9749, 1.143738
623.4570, 22.00507
623.9391, 34.35345
624.4212, 27.59125
624.9033, 9.968323
625.3854, 3.375122
625.8676, 13.98901
626.3497, 21.82190
626.8318, 17.05304
627.3139, 2.033020
627.7960, 3.071838
628.2781, 22.42847
628.7603, 40.20258
629.2424, 36.48059
629.7245, 19.10400
630.2066, 8.721985
630.6887, 8.759338
631.1708, 12.29431
631.6530, 14.06793
632.1351, 15.10925
632.6172, 16.98462
633.0993, 23.32874
633.5814, 27.37921
634.0635, 24.60748
634.5457, 17.13983
635.0278, 13.12482
635.5099, 15.99634
635.9920, 19.63214
636.4741, 23.19989
636.9562, 26.96735
637.4384, 24.35901
637.9205, 12.92926
638.4026, 1.755981
638.8847, 0.2427370
639.3668, 7.033813
639.8489, 8.996094
640.3311, 3.832520
640.8132, 3.184753
641.2953, 7.197327
641.7774, 8.297546
642.2595, 6.738037
642.7416, 1.751953
643.2238, 4.969360
643.7059, 16.31830
644.1880, 29.24860
644.6701, 33.82251
645.1522, 12.56940
645.6343, 4.610901
646.1165, 1.458862
646.5986, 25.22620
647.0807, 38.46179
647.5628, 32.29236
648.0449, 21.56262
648.5270, 16.12000
649.0092, 16.00317
649.4913, 22.79248
649.9734, 39.42084
650.4555, 54.84003
650.9376, 50.41321
651.4197, 31.31311
651.9019, 15.74091
652.3840, 9.532104
652.8661, 9.836609
653.3482, 17.32294
653.8303, 29.59521
654.3124, 39.33331
654.7946, 43.10492
655.2767, 43.98798
655.7588, 42.39612
656.2409, 37.98926
656.7230, 35.94049
657.2051, 38.59235
657.6872, 41.27911
658.1693, 40.88208
658.6514, 36.34137
659.1335, 33.33820
659.6157, 31.80890
660.0978, 31.66858
660.5799, 35.07648
661.0620, 41.93384
661.5441, 48.86566
662.0262, 55.47675
662.5084, 60.85504
662.9905, 64.74854
663.4726, 66.59869
663.9547, 64.86261
664.4368, 56.95856
664.9189, 46.90875
665.4011, 33.87933
665.8832, 18.35834
666.3653, 11.15356
666.8474, 21.83771
667.3295, 35.19122
667.8116, 44.72894
668.2938, 49.07983
668.7759, 45.92511
669.2580, 31.80396
669.7401, 17.80298
670.2222, 20.43591
670.7043, 37.18756
671.1865, 39.52075
671.6686, 16.91022
672.1507, 8.265137
672.6328, 4.296082
673.1149, 19.05554
673.5970, 38.35980
674.0792, 42.31232
674.5613, 40.59180
675.0434, 36.34521
675.5255, 30.39380
676.0076, 26.46661
676.4897, 30.12024
676.9719, 31.15717
677.4540, 23.78131
677.9361, 6.102112
678.4182, 1.301697
678.9003, 4.043762
679.3824, 14.13678
679.8646, 24.34564
680.3467, 34.30103
680.8288, 39.92450
681.3109, 40.64087
681.7930, 37.78851
682.2751, 30.01410
682.7573, 20.17725
683.2394, 14.13062
683.7215, 17.45203
684.2036, 20.35297
684.6857, 13.35492
685.1678, 1.917542
685.6500, 1.524475
686.1321, 18.43384
686.6142, 33.37854
687.0963, 33.48157
687.5784, 20.63922
688.0605, 12.96704
688.5427, 11.57385
689.0248, 12.62616
689.5069, 14.74957
689.9890, 17.77478
690.4711, 19.82587
690.9532, 20.82391
691.4354, 21.49268
691.9175, 22.68097
692.3996, 23.92700
692.8817, 24.13129
693.3638, 22.32733
693.8459, 21.78772
694.3281, 25.65112
694.8102, 31.48669
695.2923, 36.01514
695.7744, 41.14539
696.2565, 41.49707
696.7386, 32.87787
697.2208, 19.95984
697.7029, 15.64874
698.1850, 22.43756
698.6671, 28.59406
699.1492, 28.50690
699.6313, 25.27661
700.1135, 32.22839
700.5956, 48.79926
701.0777, 61.30756
701.5598, 56.08325
702.0419, 43.64069
702.5240, 37.69989
703.0062, 39.75842
703.4883, 39.68561
703.9704, 29.18939
704.4525, 17.60382
704.9346, 12.24756
705.4167, 18.99158
705.8989, 23.62311
706.3810, 24.73346
706.8631, 24.86664
707.3452, 27.94055
707.8273, 34.90942
708.3094, 37.94293
708.7916, 34.34882
709.2737, 28.83484
709.7558, 28.09912
710.2379, 31.93994
710.7200, 37.95612
711.2021, 51.72198
711.6843, 62.37762
712.1664, 53.51038
712.6485, 30.78961
713.1306, 17.11151
713.6127, 30.62183
714.0948, 46.54492
714.5770, 53.79089
715.0591, 51.84167
715.5412, 47.86572
716.0233, 39.98236
716.5054, 33.47949
716.9875, 33.23071
717.4697, 39.17255
717.9518, 41.24457
718.4339, 38.75061
718.9160, 34.10852
719.3981, 28.67590
719.8802, 23.16559
720.3624, 18.86963
720.8445, 15.58612
721.3266, 14.71820
721.8087, 19.23065
722.2908, 26.11157
722.7729, 30.90051
723.2551, 37.55603
723.7372, 35.32117
724.2193, 15.54004
724.7014, 12.38501
725.1835, 19.41046
725.6656, 0.2015380
726.1478, 16.81061
726.6299, 18.30859
727.1120, 9.776306
727.5941, 5.610718
728.0762, 5.564575
728.5583, 7.671143
729.0405, 10.44031
729.5226, 14.91394
730.0047, 24.95660
730.4868, 41.25513
730.9689, 48.90253
731.4510, 31.85706
731.9332, 12.03339
732.4153, 4.443115
732.8974, 14.32538
733.3795, 21.79449
733.8616, 27.54944
734.3438, 29.79620
734.8259, 24.05804
735.3080, 10.63391
735.7901, 4.771545
736.2722, 9.927307
736.7543, 18.11102
737.2365, 18.53094
737.7186, 14.09149
738.2007, 10.68170
738.6828, 10.90369
739.1649, 11.95636
739.6470, 12.91827
740.1292, 13.62152
740.6113, 13.68817
741.0934, 13.10614
741.5755, 11.65173
742.0576, 8.231873
742.5397, 3.922241
743.0219, 3.902161
743.5040, 8.519775
743.9861, 14.58148
744.4682, 21.25427
744.9503, 27.72626
745.4324, 31.79510
745.9146, 33.56525
746.3967, 33.82520
746.8788, 33.80634
747.3609, 32.03766
747.8430, 25.95581
748.3251, 14.34064
748.8073, 6.124634
749.2894, 4.603699
749.7715, 6.187439
750.2536, 8.863647
750.7357, 13.10474
751.2178, 17.54761
751.7000, 23.15546
752.1821, 26.82703
752.6642, 23.09222
753.1463, 13.64154
753.6284, 6.954956
754.1105, 4.564636
754.5927, 5.185791
755.0748, 8.906433
755.5569, 14.40717
756.0390, 19.72491
756.5211, 25.29102
757.0032, 29.45270
757.4854, 32.23480
757.9675, 33.41229
758.4496, 31.68378
758.9317, 25.20935
759.4138, 19.80640
759.8959, 16.83612
760.3781, 15.86475
760.8602, 15.81445
761.3423, 16.65271
761.8244, 17.83118
762.3065, 18.14984
762.7886, 19.16205
763.2708, 24.51971
763.7529, 33.24359
764.2350, 38.98718
764.7171, 39.84454
765.1992, 36.07721
765.6813, 24.27460
766.1635, 2.290344
766.6456, 5.460510
767.1277, 9.893860
767.6098, 25.05536
768.0919, 22.33594
768.5740, 2.052185
769.0562, 4.757507
769.5383, 3.640137
770.0204, 13.93335
770.5025, 10.86304
770.9846, 2.169312
771.4667, 2.480347
771.9489, 16.53864
772.4310, 29.96033
772.9131, 36.74725
773.3952, 38.55908
773.8773, 37.03448
774.3594, 25.84399
774.8416, 21.22327
775.3237, 27.50043
775.8058, 36.21075
776.2879, 33.86035
776.7700, 20.35706
777.2521, 12.04657
777.7343, 13.36188
778.2164, 19.01282
778.6985, 23.17499
779.1806, 25.87897
779.6627, 27.28333
780.1448, 26.07703
780.6270, 25.08459
781.1091, 25.83954
781.5912, 27.58911
782.0733, 28.18103
782.5554, 24.43622
783.0375, 22.83612
783.5197, 27.57434
784.0018, 35.55646
784.4839, 41.05078
784.9660, 44.12372
785.4481, 41.80072
785.9302, 28.08319
786.4124, 10.14795
786.8945, 0.7686770
787.3766, 5.162598
787.8587, 4.764221
788.3408, 6.165100
788.8229, 15.97949
789.3051, 16.38446
789.7872, 6.079468
790.2693, 0.7751460
790.7514, 2.344788
791.2335, 6.607727
791.7156, 12.76245
792.1978, 20.74634
792.6799, 23.45520
793.1620, 20.67926
793.6441, 15.81757
794.1262, 9.070007
794.6083, 3.139160
795.0905, 2.512329
795.5726, 8.037231
796.0547, 15.34998
796.5368, 25.01752
797.0189, 33.63995
797.5010, 37.96033
797.9832, 35.79773
798.4653, 34.66321
798.9474, 35.14783
799.4295, 35.71265
799.9116, 34.76422
800.3937, 32.37903
800.8759, 29.65619
801.3580, 26.77289
801.8401, 23.44623
802.3222, 17.31726
802.8043, 11.20099
803.2864, 9.781189
803.7686, 17.73840
804.2507, 24.71979
804.7328, 24.33539
805.2149, 20.97107
805.6970, 21.88116
806.1791, 31.13995
806.6613, 33.64014
807.1434, 24.80042
807.6255, 12.70026
808.1076, 12.86182
808.5897, 23.29083
809.0718, 32.25208
809.5540, 35.80280
810.0361, 36.71472
810.5182, 37.14984
811.0003, 36.95044
811.4824, 35.76715
811.9645, 35.91547
812.4467, 32.14941
812.9288, 19.12518
813.4109, 2.059448
813.8930, 5.832214
814.3751, 3.277283
814.8572, 3.655518
815.3394, 15.83008
815.8215, 28.63660
816.3036, 29.00464
816.7857, 19.62402
817.2678, 13.07520
817.7499, 18.73431
818.2321, 26.68073
818.7142, 31.58203
819.1963, 33.23169
819.6784, 31.08667
820.1605, 18.63837
820.6426, 9.835327
821.1248, 9.353027
821.6068, 15.67627
822.0889, 20.85590
822.5710, 24.96991
823.0532, 26.44385
823.5353, 22.71057
824.0174, 16.45020
824.4995, 11.22943
824.9816, 8.040527
825.4637, 7.503906
825.9459, 16.01459
826.4280, 22.21790
826.9101, 16.79767
827.3922, 0.4165040
827.8743, 9.280396
828.3564, 6.671570
828.8386, 0.9688110
829.3207, 5.723206
829.8028, 12.61688
830.2849, 11.68262
830.7670, 3.077209
831.2491, 3.061401
831.7313, 1.890137
832.2134, 12.51959
832.6955, 24.92584
833.1776, 38.67419
833.6597, 47.58466
834.1418, 47.50238
834.6240, 43.77667
835.1061, 39.07159
835.5882, 33.18866
836.0703, 27.84344
836.5524, 23.17670
837.0345, 18.05774
837.5167, 9.359253
837.9988, 8.0261000E-02
838.4809, 0.3925170
838.9630, 10.69891
839.4451, 22.32764
839.9272, 34.32306
840.4094, 41.70624
840.8915, 37.75409
841.3736, 17.14490
841.8557, 7.677551
842.3378, 17.71271
842.8199, 30.03265
843.3021, 32.61859
843.7842, 25.04852
844.2663, 23.70361
844.7484, 29.39807
845.2305, 33.02142
845.7126, 21.26538
846.1948, 5.725464
846.6769, 4.254700
847.1590, 21.21045
847.6411, 34.12799
848.1232, 30.69104
848.6053, 22.48450
849.0875, 17.42194
849.5696, 16.03119
850.0517, 16.70221
850.5338, 20.54053
851.0159, 23.43262
851.4980, 20.65027
851.9802, 13.84106
852.4623, 7.546631
852.9444, 2.016479
853.4265, 0.1806030
853.9086, 4.857361
854.3907, 12.89355
854.8729, 20.95758
855.3550, 30.24200
855.8371, 33.48132
856.3192, 26.57684
856.8013, 18.45099
857.2834, 15.78955
857.7656, 18.62701
858.2477, 24.56097
858.7298, 34.11578
859.2119, 41.35193
859.6940, 40.71490
860.1761, 34.32837
860.6583, 23.14655
861.1404, 4.986267
861.6225, 6.933044
862.1046, 3.506348
862.5867, 6.408936
863.0688, 16.88684
863.5510, 30.09509
864.0331, 35.30701
864.5152, 31.09216
864.9973, 23.77759
865.4794, 18.03778
865.9615, 13.92590
866.4437, 12.12183
866.9258, 12.89825
867.4079, 13.18201
867.8900, 7.957397
868.3721, 3.304993
868.8542, 5.084229
869.3364, 17.69458
869.8185, 26.31323
870.3006, 31.02295
870.7827, 31.43365
871.2648, 24.60016
871.7469, 11.26904
872.2291, 4.989868
872.7112, 6.859863
873.1933, 10.77936
873.6754, 13.60284
874.1575, 14.68677
874.6396, 12.26636
875.1218, 4.882751
875.6039, 1.084961
876.0860, 5.794250
876.5681, 12.11804
877.0502, 16.71112
877.5323, 19.57452
878.0145, 20.30634
878.4966, 18.72070
878.9787, 16.21460
879.4608, 12.32019
879.9429, 8.921936
880.4250, 9.732422
880.9072, 15.34662
881.3893, 21.43652
881.8714, 29.53308
882.3535, 34.59869
882.8356, 31.47211
883.3177, 18.48700
883.7999, 13.50867
884.2820, 18.75977
884.7641, 25.20435
885.2462, 25.05927
885.7283, 20.76056
886.2104, 22.79181
886.6926, 31.23956
887.1747, 39.57184
887.6568, 47.01715
888.1389, 49.96021
888.6210, 43.54675
889.1031, 26.17584
889.5853, 15.60095
890.0674, 15.08539
890.5495, 15.48120
891.0316, 12.10785
891.5137, 5.748230
891.9958, 1.211304
892.4780, 1.561768
892.9601, 3.011292
893.4422, 4.119751
893.9243, 3.537903
894.4064, 1.155212
894.8885, 9.450989
895.3707, 15.87500
895.8528, 18.53296
896.3349, 19.98175
896.8170, 21.45105
897.2991, 22.37286
897.7813, 17.92035
898.2634, 8.110840
898.7455, 1.033142
899.2276, 2.750854
899.7097, 8.626160
900.1918, 14.96014
900.6740, 20.91272
901.1561, 23.36084
901.6382, 17.38080
902.1203, 11.97131
902.6024, 9.209900
903.0845, 9.112061
903.5667, 12.62091
904.0488, 20.23285
904.5309, 27.06775
905.0130, 32.10522
905.4951, 34.60883
905.9772, 32.56433
906.4594, 27.02643
906.9415, 20.81128
907.4236, 12.58850
907.9057, 6.572510
908.3878, 4.933655
908.8699, 6.285767
909.3521, 8.140747
909.8342, 10.59357
910.3163, 13.50342
910.7984, 17.41339
911.2805, 20.56207
911.7626, 16.96271
912.2448, 10.57056
912.7269, 11.97058
913.2090, 31.97070
913.6911, 48.27759
914.1732, 47.78217
914.6553, 38.25299
915.1375, 30.69421
915.6196, 26.20630
916.1017, 21.85907
916.5838, 17.67078
917.0659, 12.96326
917.5480, 4.068298
918.0302, 6.087402
918.5123, 7.344971
918.9944, 4.538879
919.4765, 15.18774
919.9586, 15.65662
920.4407, 11.96753
920.9229, 8.933533
921.4050, 4.674805
921.8871, 8.567078
922.3692, 24.68536
922.8513, 39.98157
923.3334, 39.84351
923.8156, 28.44904
924.2977, 22.02588
924.7798, 21.92682
925.2619, 21.44983
925.7440, 13.85345
926.2261, 5.330078
926.7083, 0.5426640
927.1904, 0.2853390
927.6725, 2.723877
928.1546, 8.493896
928.6367, 15.72308
929.1188, 26.04163
929.6010, 37.27863
930.0831, 34.00909
930.5652, 17.86237
931.0473, 5.658875
931.5294, 15.28052
932.0115, 27.06775
932.4937, 23.85547
932.9758, 7.155518
933.4579, 4.8950002E-02
933.9400, 9.964294
934.4221, 18.01123
934.9042, 17.31781
935.3864, 11.25244
935.8685, 11.62457
936.3506, 17.05560
936.8327, 19.23132
937.3148, 10.01068
937.7969, 0.1655880
938.2791, 3.663391
938.7612, 2.195435
939.2433, 3.312073
939.7254, 16.63757
940.2075, 27.12872
940.6896, 34.01166
941.1718, 36.70258
941.6539, 32.51593
942.1360, 22.68457
942.6181, 13.17975
943.1002, 4.325867
943.5823, 0.3832400
944.0645, 6.540100
944.5466, 17.11646
945.0287, 21.29675
945.5108, 8.888489
945.9929, 4.884583
946.4750, 12.06677
946.9572, 23.01245
947.4393, 31.80627
947.9214, 37.96747
948.4035, 38.03900
948.8856, 31.36670
949.3677, 23.16687
949.8499, 14.70319
950.3320, 8.122070
950.8141, 6.453613
951.2962, 11.69861
951.7783, 12.38092
952.2604, 6.314148
952.7426, 0.1082150
953.2247, 2.538757
953.7068, 1.645813
954.1889, 2.412048
954.6710, 9.817078
955.1531, 16.57239
955.6353, 21.26630
956.1174, 23.49005
956.5995, 21.16180
957.0816, 15.36096
957.5637, 13.51019
958.0458, 18.07269
958.5280, 21.29987
959.0101, 21.04980
959.4922, 17.98328
959.9743, 12.00018
960.4564, 4.343079
960.9385, 0.5908200
961.4207, 0.8436280
961.9028, 1.895630
962.3849, 9.852295
962.8670, 19.27722
963.3491, 23.11121
963.8312, 17.89142
964.3134, 16.39337
964.7955, 21.21075
965.2776, 26.66754
965.7597, 23.36182
966.2418, 14.90778
966.7239, 11.15759
967.2061, 15.01654
967.6882, 17.91083
968.1703, 12.98151
968.6524, 6.744751
969.1345, 4.388855
969.6166, 6.374756
970.0988, 10.53687
970.5809, 17.65625
971.0630, 23.77563
971.5451, 26.04138
972.0272, 25.23560
972.5093, 21.33588
972.9915, 15.01086
973.4736, 11.64398
973.9557, 17.06744
974.4378, 22.63068
974.9199, 24.38312
975.4020, 23.01947
975.8842, 21.05054
976.3663, 18.70734
976.8484, 17.65656
977.3305, 19.02979
977.8126, 19.95923
978.2947, 12.23199
978.7769, 1.110596
979.2590, 1.468018
979.7411, 20.72491
980.2232, 36.09656
980.7053, 35.85034
981.1874, 28.50018
981.6696, 24.96283
982.1517, 25.28998
982.6338, 27.27551
983.1159, 31.03290
983.5980, 33.88147
984.0801, 32.67853
984.5623, 29.27606
985.0444, 25.66779
985.5265, 21.97589
986.0085, 18.80127
986.4907, 16.09265
986.9728, 15.55408
987.4549, 18.87531
987.9370, 25.65674
988.4191, 33.38580
988.9012, 41.98840
989.3834, 45.46429
989.8655, 35.51959
990.3476, 22.97858
990.8297, 14.99066
991.3118, 11.47626
991.7939, 9.603699
992.2761, 8.814209
992.7582, 10.67993
993.2403, 16.82086
993.7224, 23.76965
994.2045, 25.53040
994.6866, 23.43115
995.1688, 21.53540
995.6509, 20.35638
996.1330, 21.14240
996.6151, 27.61169
997.0972, 25.91327
997.5793, 37.90912
998.0615, 44.57538
998.5436, 46.44489
999.0257, 27.92114
999.5078, 35.41339
999.9899, 32.47943
1000.472, 29.11804
1000.954, 40.27155
1001.436, 24.66827
1001.918, 31.01569
1002.401, 13.66595
1002.883, 1.364502
1003.365, 5.762268
1003.847, 24.29865
1004.329, 30.02130
1004.811, 22.65442
1005.293, 18.20154
1005.775, 28.49463
1006.257, 42.18536
1006.740, 49.10266
1007.222, 49.68182
1007.704, 45.13293
1008.186, 27.69086
1008.668, 16.83795
1009.150, 17.84918
1009.632, 22.25891
1010.114, 13.71234
1010.596, 4.270020
1011.079, 10.78748
1011.561, 0.1582030
1012.043, 12.56036
1012.525, 17.97748
1013.007, 18.54889
1013.489, 15.39288
1013.971, 7.407471
1014.453, 2.512512
1014.936, 1.220215
1015.418, 1.368958
1015.900, 1.662659
1016.382, 2.330505
1016.864, 3.814514
1017.346, 6.138245
1017.828, 9.379822
1018.310, 16.62646
1018.792, 21.26459
1019.275, 18.26288
1019.757, 11.83398
1020.239, 13.31659
1020.721, 23.23535
1021.203, 29.42004
1021.685, 27.98383
1022.167, 24.57477
1022.649, 26.06738
1023.132, 29.47540
1023.614, 30.47968
1024.096, 26.48932
1024.578, 23.99225
1025.060, 23.90045
1025.542, 24.61719
1026.024, 24.79797
1026.506, 24.65955
1026.989, 26.55457
1027.471, 30.58643
1027.953, 32.16565
1028.435, 24.17877
1028.917, 16.68195
1029.399, 17.98273
1029.881, 26.02368
1030.363, 27.32660
1030.845, 18.94476
1031.328, 15.68561
1031.810, 23.86945
1032.292, 35.01331
1032.774, 33.17896
1033.256, 24.69397
1033.738, 22.44403
1034.220, 36.35461
1034.702, 43.37592
1035.184, 31.34705
1035.667, 16.76837
1036.149, 13.95703
1036.631, 22.99261
1037.113, 28.44763
1037.595, 29.97668
1038.077, 27.83942
1038.559, 14.82166
1039.041, 4.192993
1039.524, 9.878540
1040.006, 31.11163
1040.488, 48.40802
1040.970, 65.21069
1041.452, 65.45367
1041.934, 36.47937
1042.416, 1.814758
1042.898, 7.906128
1043.380, 9.477783
1043.863, 27.13556
1044.345, 42.25385
1044.827, 47.29706
1045.309, 29.71765
1045.791, 7.255432
1046.273, 3.683167
1046.755, 2.125183
1047.237, 1.873596
1047.719, 8.244995
1048.202, 14.34442
1048.684, 19.60736
1049.166, 21.52612
1049.648, 14.25818
1050.130, 1.122192
1050.612, 5.931091
1051.094, 8.634583
1051.576, 19.68237
1052.059, 19.79828
1052.541, 13.71338
1053.023, 12.03113
1053.505, 13.61517
1053.987, 14.90234
1054.469, 15.26233
1054.951, 14.02960
1055.433, 4.468262
1055.916, 2.302856
1056.398, 6.968567
1056.880, 37.63611
1057.362, 50.19202
1057.844, 42.88593
1058.326, 32.01575
1058.808, 31.73987
1059.290, 34.20154
1059.772, 28.31622
1060.255, 15.25189
1060.737, 10.88000
1061.219, 24.91321
1061.701, 33.64264
1062.183, 29.23517
1062.665, 18.89771
1063.147, 19.36255
1063.629, 27.12555
1064.111, 30.11835
1064.594, 23.52075
1065.076, 15.67914
1065.558, 6.767517
1066.040, 1.652466
1066.522, 6.056763
1067.004, 22.71411
1067.486, 27.22638
1067.968, 18.73041
1068.450, 10.32410
1068.933, 12.22778
1069.415, 19.71979
1069.897, 29.17773
1070.379, 38.80927
1070.861, 41.27167
1071.343, 31.99438
1071.825, 21.91003
1072.307, 11.66772
1072.790, 3.703186
1073.272, 3.732361
1073.754, 9.461609
1074.236, 14.77032
1074.718, 18.27625
1075.200, 21.57574
1075.682, 28.59076
1076.164, 32.53491
1076.646, 27.37408
1077.129, 13.11969
1077.611, 7.867188
1078.093, 11.58618
1078.575, 16.61328
1079.057, 17.38690
1079.539, 18.12335
1080.021, 25.41309
1080.503, 35.37714
1080.985, 36.67017
1081.468, 22.49408
1081.950, 15.15808
1082.432, 19.16119
1082.914, 25.37561
1083.396, 21.30273
1083.878, 11.37946
1084.360, 2.451477
1084.842, 4.959167
1085.325, 4.220764
1085.807, 17.82635
1086.289, 37.46790
1086.771, 45.22455
1087.253, 42.42285
1087.735, 31.30939
1088.217, 13.51636
1088.699, 2.809875
1089.182, 11.40851
1089.664, 20.07062
1090.146, 11.53986
1090.628, 3.000000
1091.110, 7.150085
1091.592, 2.779663
1092.074, 10.95038
1092.556, 16.76117
1093.038, 21.21942
1093.521, 24.54218
1094.003, 27.41986
1094.485, 31.76038
1094.967, 37.17511
1095.449, 38.66534
1095.931, 30.84430
1096.413, 26.36511
1096.895, 30.12964
1097.377, 36.79303
1097.860, 33.41516
1098.342, 23.07526
1098.824, 16.02350
1099.306, 16.29541
1099.788, 15.81244
1100.270, 7.758606
1100.752, 0.3977660
1101.234, 1.535828
1101.717, 3.940125
1102.199, 6.060730
1102.681, 4.908508
1103.163, 5.713684
1103.645, 17.45813
1104.127, 27.05463
1104.609, 20.76129
1105.091, 4.962341
1105.573, 3.822510
1106.056, 3.892578
1106.538, 1.580872
1107.020, 14.50684
1107.502, 26.06207
1107.984, 20.70880
1108.466, 8.756653
1108.948, 7.960449
1109.430, 20.40210
1109.912, 30.38483
1110.395, 36.48944
1110.877, 35.72009
1111.359, 22.92529
1111.841, 5.150085
1112.323, 7.506409
1112.805, 24.44086
1113.287, 36.29218
1113.769, 33.02124
1114.252, 28.32568
1114.734, 27.94891
1115.216, 28.39386
1115.698, 26.46790
1116.180, 22.04608
1116.662, 15.25061
1117.144, 6.036316
1117.626, 2.908752
1118.109, 19.04785
1118.591, 37.36639
1119.073, 46.29315
1119.555, 45.42438
1120.037, 35.47180
1120.519, 11.34833
1121.001, 1.276978
1121.483, 4.102051
1121.965, 14.80841
1122.448, 11.60181
1122.930, 4.981079
1123.412, 14.53656
1123.894, 47.24768
1124.376, 59.11151
1124.858, 34.11438
1125.340, 9.266846
1125.822, 0.7178340
1126.304, 3.091797
1126.787, 2.053223
1127.269, 0.7758790
1127.751, 0.3297120
1128.233, 9.422852
1128.715, 16.23102
1129.197, 13.94153
1129.679, 9.517944
1130.161, 9.356567
1130.644, 13.10144
1131.126, 13.14905
1131.608, 9.521179
1132.090, 7.111816
1132.572, 11.48407
1133.054, 15.77545
1133.536, 14.26978
1134.018, 9.615662
1134.500, 9.782349
1134.983, 15.61194
1135.465, 17.42218
1135.947, 12.32928
1136.429, 8.747681
1136.911, 19.87250
1137.393, 34.26160
1137.875, 38.86884
1138.357, 30.58350
1138.839, 26.98145
1139.322, 30.09155
1139.804, 31.03967
1140.286, 24.53784
1140.768, 15.68671
1141.250, 14.48962
1141.732, 17.17090
1142.214, 16.19122
1142.696, 3.229004
1143.179, 2.367188
1143.661, 3.770142
1144.143, 12.00983
1144.625, 13.75232
1145.107, 11.69702
1145.589, 16.44617
1146.071, 26.61133
1146.553, 32.98889
1147.036, 27.14282
1147.518, 21.99768
1148.000, 21.09735
1148.482, 22.83093
1148.964, 26.73938
1149.446, 32.54755
1149.928, 31.28571
1150.410, 21.04462
1150.892, 13.73145
1151.375, 21.47870
1151.857, 30.72375
1152.339, 31.06757
1152.821, 25.08093
1153.303, 29.81427
1153.785, 45.06439
1154.267, 51.03430
1154.749, 38.12549
1155.231, 20.82446
1155.714, 8.202332
1156.196, 0.5556030
1156.678, 1.419006
1157.160, 2.155701
1157.642, 11.52106
1158.124, 28.13171
1158.606, 39.51898
1159.088, 32.20544
1159.571, 19.90479
1160.053, 18.85608
1160.535, 24.91071
1161.017, 27.61310
1161.499, 22.87500
1161.981, 21.52319
1162.463, 25.90887
1162.945, 28.61530
1163.427, 17.85504
1163.910, 2.221130
1164.392, 6.468689
1164.874, 7.539673
1165.356, 0.8085330
1165.838, 25.71069
1166.320, 39.19684
1166.802, 28.21936
1167.284, 7.960632
1167.766, 3.795654
1168.249, 11.66254
1168.731, 22.21722
1169.213, 35.37396
1169.695, 41.10907
1170.177, 29.89600
1170.659, 17.75922
1171.141, 11.49805
1171.623, 9.578613
1172.106, 6.670654
1172.588, 3.787842
1173.070, 2.775024
1173.552, 5.306763
1174.034, 9.590393
1174.516, 17.59967
1174.998, 24.77429
1175.480, 27.22711
1175.963, 25.15204
1176.445, 22.71375
1176.927, 20.13080
1177.409, 19.40155
1177.891, 24.11462
1178.373, 28.39246
1178.855, 29.50787
1179.337, 28.86835
1179.819, 28.57867
1180.302, 28.69244
1180.784, 26.72113
1181.266, 22.35522
1181.748, 17.12585
1182.230, 9.745667
1182.712, 4.188660
1183.194, 3.938293
1183.676, 8.196045
1184.158, 14.54169
1184.641, 23.41089
1185.123, 29.39996
1185.605, 30.99738
1186.087, 30.30115
1186.569, 27.62238
1187.051, 24.74902
1187.533, 23.36389
1188.015, 23.61267
1188.498, 25.65680
1188.980, 29.81451
1189.462, 33.48029
1189.944, 36.05591
1190.426, 36.77826
1190.908, 33.89484
1191.390, 28.89752
1191.872, 23.86621
1192.354, 18.85425
1192.837, 14.35614
1193.319, 10.11536
1193.801, 7.583130
1194.283, 8.478455
1194.765, 11.19183
1195.247, 14.67920
1195.729, 18.15991
1196.211, 19.23523
1196.693, 14.78650
1197.176, 14.71033
1197.658, 20.61664
1198.140, 27.58905
1198.622, 31.79736
1199.104, 33.30487
1199.586, 30.71265
1200.068, 24.85138
1200.550, 22.12421
1201.033, 26.39587
1201.515, 27.46039
1201.997, 22.30725
1202.479, 15.86627
1202.961, 14.42670
1203.443, 16.87982
1203.925, 24.05853
1204.407, 36.67810
1204.890, 38.23773
1205.372, 17.61865
1205.854, 3.627747
1206.336, 7.272217
1206.818, 20.50739
1207.300, 31.28198
1207.782, 38.39221
1208.264, 38.17645
1208.746, 25.32336
1209.229, 16.28210
1209.711, 13.35236
1210.193, 14.06586
1210.675, 18.69531
1211.157, 24.93207
1211.639, 28.01001
1212.121, 27.93390
1212.603, 24.60712
1213.085, 12.78925
1213.568, 6.909241
1214.050, 10.30042
1214.532, 16.04596
1215.014, 18.54358
1215.496, 19.20709
1215.978, 22.67358
1216.460, 28.25696
1216.942, 33.11450
1217.425, 37.71722
1217.907, 38.43347
1218.389, 32.84180
1218.871, 26.77521
1219.353, 27.72058
1219.835, 33.24493
1220.317, 37.84308
1220.799, 40.87750
1221.281, 39.02203
1221.764, 24.60394
1222.246, 12.01282
1222.728, 3.634277
1223.210, 0.1222530
1223.692, 5.522583
1224.174, 15.69739
1224.656, 15.17615
1225.138, 1.319153
1225.620, 8.416260
1226.103, 4.935486
1226.585, 1.055786
1227.067, 7.179688
1227.549, 13.19031
1228.031, 20.97382
1228.513, 27.95355
1228.995, 24.83240
1229.477, 5.881714
1229.960, 4.813049
1230.442, 4.242310
1230.924, 17.43561
1231.406, 29.85266
1231.888, 40.21075
1232.370, 44.66754
1232.852, 43.83569
1233.334, 39.19519
1233.816, 29.68414
1234.299, 19.51117
1234.781, 4.979187
1235.263, 2.901489
1235.745, 7.898865
1236.227, 29.26147
1236.709, 35.95062
1237.191, 30.81049
1237.673, 22.94281
1238.156, 8.152222
1238.638, 3.191589
1239.120, 13.61414
1239.602, 26.89948
1240.084, 31.92175
1240.566, 30.97565
1241.048, 29.22693
1241.530, 26.95660
1242.012, 24.63275
1242.495, 19.55865
1242.977, 19.84955
1243.459, 29.99152
1243.941, 38.87427
1244.423, 29.00598
1244.905, 9.941223
1245.387, 3.007202
1245.869, 8.460999
1246.351, 17.06982
1246.834, 32.29834
1247.316, 39.84100
1247.798, 35.08527
1248.280, 26.61322
1248.762, 27.28687
1249.244, 32.25256
1249.726, 31.34393
1250.208, 23.77380
1250.691, 19.98596
1251.173, 19.97546
1251.655, 26.41364
1252.137, 39.85999
1252.619, 51.83246
1253.101, 43.87988
1253.583, 28.27362
1254.065, 21.69830
1254.547, 27.52478
1255.030, 33.14423
1255.512, 37.29956
1255.994, 40.88202
1256.476, 46.98206
1256.958, 51.24933
1257.440, 45.37347
1257.922, 35.16772
1258.404, 28.79962
1258.886, 28.41986
1259.369, 29.73401
1259.851, 32.60254
1260.333, 37.80798
1260.815, 48.11255
1261.297, 57.22614
1261.779, 54.54443
1262.261, 45.68085
1262.743, 39.25525
1263.226, 37.67731
1263.708, 33.04559
1264.190, 25.05103
1264.672, 15.89557
1265.154, 1.896301
1265.636, 6.869751
1266.118, 6.676941
1266.600, 30.13416
1267.083, 42.86682
1267.565, 41.73486
1268.047, 38.09003
1268.529, 31.65045
1269.011, 27.08722
1269.493, 31.68182
1269.975, 35.26813
1270.457, 23.60919
1270.939, 0.5073240
1271.422, 2.912048
1271.904, 28.04907
1272.386, 36.37152
1272.868, 26.43689
1273.350, 13.70312
1273.832, 7.023865
1274.314, 4.536072
1274.796, 2.160889
1275.278, 0.6450810
1275.761, 0.0000000E+00
##END=



