##NAMES=Bornite
##RRUFFID=R070636
##IDEAL CHEMISTRY=Cu^1+^_5_Fe^3+^S^2-^_4_
##LOCALITY=mine 65, 180 m. level, Dzheskazgan mining district, central Kazakhstan
##OWNER=RRUFF
##SOURCE=Michael Scott
##DESCRIPTION=Iridescent blue metallic crystal associated with calcite, malachite and hematite
##STATUS=The identification of this mineral has been confirmed by single-crystal X-ray diffraction.
##URL=rruff.info/R070636
157.1285, 0.0000000E+00
157.6106, 13.82254
158.0928, 16.46350
158.5749, 8.067749
159.0570, 1.149597
159.5391, 10.69223
160.0212, 19.63965
160.5033, 21.51633
160.9855, 8.457336
161.4676, 1.160553
161.9497, 0.7406310
162.4318, 11.64389
162.9139, 23.40027
163.3960, 30.04520
163.8782, 31.55832
164.3603, 36.04648
164.8424, 38.78497
165.3245, 40.97961
165.8066, 44.73782
166.2887, 50.10681
166.7709, 55.77371
167.2530, 59.03030
167.7351, 59.18512
168.2172, 58.42352
168.6993, 59.17535
169.1814, 58.24750
169.6636, 49.73419
170.1457, 31.00073
170.6278, 11.73083
171.1099, 1.474640
171.5920, 1.189148
172.0741, 1.269653
172.5563, 11.88596
173.0384, 27.40479
173.5205, 38.05801
174.0026, 42.52319
174.4847, 41.31442
174.9668, 34.94504
175.4490, 22.21310
175.9311, 9.894592
176.4132, 3.883850
176.8953, 4.599915
177.3774, 9.444824
177.8595, 22.33493
178.3417, 36.50906
178.8238, 47.60236
179.3059, 55.31818
179.7880, 61.80099
180.2701, 68.59625
180.7522, 79.59402
181.2344, 83.21423
181.7165, 67.01584
182.1986, 48.75073
182.6807, 39.18539
183.1628, 41.13748
183.6449, 48.52216
184.1271, 51.36166
184.6092, 48.17368
185.0913, 42.84372
185.5734, 30.69440
186.0555, 20.18353
186.5376, 19.14932
187.0198, 31.85986
187.5019, 50.84155
187.9840, 56.08319
188.4661, 26.32828
188.9482, 9.358124
189.4303, 19.89203
189.9125, 41.45673
190.3946, 54.23624
190.8767, 47.92209
191.3588, 28.62967
191.8409, 12.76730
192.3230, 2.499695
192.8052, 2.873871
193.2873, 1.986115
193.7694, 3.765045
194.2515, 13.66299
194.7336, 28.64539
195.2157, 48.26913
195.6979, 51.46844
196.1800, 23.15616
196.6621, 0.2337040
197.1442, 1.605347
197.6263, 20.92032
198.1084, 37.36765
198.5906, 35.95013
199.0727, 18.02432
199.5548, 7.689606
200.0369, 9.879150
200.5190, 13.50473
201.0011, 10.69247
201.4833, 2.186035
201.9654, 2.479584
202.4475, 7.127045
202.9296, 28.38724
203.4117, 37.09677
203.8938, 17.99808
204.3760, 4.893951
204.8581, 7.137024
205.3402, 13.52850
205.8223, 35.46564
206.3044, 39.43106
206.7865, 30.11792
207.2687, 24.16266
207.7508, 29.23526
208.2329, 37.60443
208.7150, 37.74420
209.1971, 27.20544
209.6792, 15.53415
210.1614, 10.50958
210.6435, 9.654785
211.1256, 10.59628
211.6077, 13.51089
212.0898, 17.40036
212.5719, 20.57132
213.0541, 23.91370
213.5362, 24.31921
214.0183, 15.67227
214.5004, 2.077820
214.9825, 5.370300
215.4646, 4.483093
215.9468, 26.21811
216.4289, 35.78778
216.9110, 24.30246
217.3931, 11.85541
217.8752, 10.55548
218.3573, 17.73413
218.8395, 25.61749
219.3216, 28.29373
219.8037, 26.57495
220.2858, 27.33603
220.7679, 35.35114
221.2500, 40.35739
221.7322, 35.24655
222.2143, 22.60147
222.6964, 10.77548
223.1785, 8.404572
223.6606, 16.17661
224.1427, 17.68356
224.6249, 2.063812
225.1070, 10.41318
225.5891, 10.24869
226.0712, 0.8247680
226.5533, 14.71817
227.0354, 24.57056
227.5176, 30.08005
227.9997, 33.28476
228.4818, 34.02707
228.9639, 32.35663
229.4460, 26.44489
229.9281, 17.64011
230.4103, 9.489899
230.8924, 6.369019
231.3745, 10.23019
231.8566, 9.976563
232.3387, 1.298157
232.8208, 10.62601
233.3030, 10.15390
233.7851, 0.7939450
234.2672, 10.27698
234.7493, 15.10620
235.2314, 11.69662
235.7135, 9.248383
236.1957, 7.678497
236.6778, 6.863586
237.1599, 7.311157
237.6420, 8.733643
238.1241, 9.893860
238.6062, 8.996979
239.0884, 4.292053
239.5705, 3.581238
240.0526, 12.71896
240.5347, 20.60379
241.0168, 17.31961
241.4989, 3.686188
241.9811, 9.088745
242.4632, 7.005402
242.9453, 18.13614
243.4274, 32.77747
243.9095, 32.01761
244.3916, 19.98962
244.8738, 26.95966
245.3559, 30.70337
245.8380, 31.39423
246.3201, 19.88422
246.8022, 24.10352
247.2843, 22.03848
247.7665, 19.71606
248.2486, 26.18625
248.7307, 16.45828
249.2128, 22.78412
249.6949, 22.68631
250.1770, 25.45294
250.6592, 25.39209
251.1413, 29.06754
251.6234, 35.57474
252.1055, 39.54590
252.5876, 33.76431
253.0697, 18.53235
253.5519, 4.467926
254.0340, 4.198761
254.5161, 22.59430
254.9982, 35.83713
255.4803, 44.34897
255.9624, 47.52493
256.4445, 42.12521
256.9267, 28.52872
257.4088, 14.59192
257.8909, 8.733582
258.3730, 13.20215
258.8551, 16.33713
259.3372, 16.05896
259.8194, 15.50348
260.3015, 20.32837
260.7836, 30.25574
261.2657, 36.47592
261.7478, 27.70480
262.2299, 0.1181640
262.7121, 13.08209
263.1942, 0.1828610
263.6763, 20.93756
264.1584, 36.75122
264.6405, 45.95996
265.1227, 48.14731
265.6048, 39.77319
266.0869, 20.01562
266.5690, 11.99307
267.0511, 29.89920
267.5332, 50.51334
268.0154, 50.97763
268.4975, 30.61792
268.9796, 11.21030
269.4617, 12.67148
269.9438, 35.01517
270.4259, 48.28140
270.9081, 45.52109
271.3902, 37.81244
271.8723, 31.69324
272.3544, 27.82059
272.8365, 28.50858
273.3186, 39.04025
273.8008, 57.58377
274.2829, 67.48425
274.7650, 62.23602
275.2471, 52.95193
275.7292, 46.82187
276.2113, 44.09836
276.6935, 43.59985
277.1756, 45.19330
277.6577, 48.58224
278.1398, 51.09836
278.6219, 52.27246
279.1040, 52.96359
279.5862, 53.04550
280.0683, 52.76291
280.5504, 54.07120
281.0325, 58.79422
281.5146, 66.04602
281.9967, 71.69241
282.4789, 75.77692
282.9610, 77.75479
283.4431, 78.17578
283.9252, 77.55234
284.4073, 75.02438
284.8894, 69.36966
285.3716, 62.21274
285.8537, 58.30270
286.3358, 58.54092
286.8179, 60.69687
287.3000, 66.02246
287.7821, 73.05368
288.2643, 75.01688
288.7464, 66.70172
289.2285, 53.12918
289.7106, 46.91882
290.1927, 50.48279
290.6748, 55.64600
291.1570, 61.19147
291.6391, 66.66733
292.1212, 68.51614
292.6033, 64.48843
293.0854, 57.50125
293.5675, 53.42896
294.0497, 52.51886
294.5318, 52.94720
295.0139, 54.75552
295.4960, 57.36111
295.9781, 59.60294
296.4602, 61.30411
296.9424, 62.07300
297.4245, 60.52145
297.9066, 55.89001
298.3887, 52.86093
298.8708, 53.65958
299.3529, 56.87173
299.8351, 60.47394
300.3172, 65.02182
300.7993, 68.33163
301.2814, 64.87543
301.7635, 53.56213
302.2456, 47.01498
302.7278, 53.85666
303.2099, 65.06973
303.6920, 66.37497
304.1741, 54.07556
304.6562, 40.47418
305.1383, 41.20798
305.6205, 57.24442
306.1026, 68.81812
306.5847, 72.34476
307.0668, 70.74539
307.5489, 64.90759
308.0310, 54.99341
308.5132, 46.77509
308.9953, 45.89630
309.4774, 52.90244
309.9595, 59.31122
310.4416, 66.54330
310.9237, 71.85538
311.4059, 71.72784
311.8880, 66.52957
312.3701, 61.42569
312.8522, 60.52740
313.3343, 63.62808
313.8164, 65.00644
314.2986, 62.55804
314.7807, 60.32596
315.2628, 61.56201
315.7449, 65.41382
316.2270, 67.64508
316.7091, 64.68506
317.1913, 58.25278
317.6734, 58.23117
318.1555, 71.27243
318.6376, 83.19556
319.1197, 87.25818
319.6018, 85.77188
320.0840, 84.85809
320.5661, 87.71484
321.0482, 92.96832
321.5303, 92.19043
322.0124, 79.37967
322.4945, 69.67688
322.9767, 67.19052
323.4588, 69.50320
323.9409, 73.44717
324.4230, 77.94226
324.9051, 82.81036
325.3872, 87.92615
325.8694, 95.29330
326.3515, 99.18460
326.8336, 96.03760
327.3157, 90.69345
327.7978, 89.84790
328.2799, 94.60217
328.7621, 98.57208
329.2442, 94.93753
329.7263, 78.07983
330.2084, 69.04456
330.6905, 71.51862
331.1726, 78.72153
331.6548, 87.58765
332.1369, 96.88971
332.6190, 104.8618
333.1011, 109.8548
333.5832, 111.9021
334.0653, 110.0000
334.5475, 101.2648
335.0296, 92.13177
335.5117, 86.20667
335.9938, 82.59061
336.4759, 78.40961
336.9580, 72.75232
337.4402, 65.71875
337.9223, 63.42902
338.4044, 72.00372
338.8865, 78.52780
339.3686, 78.94397
339.8507, 75.09088
340.3329, 69.92798
340.8150, 64.89508
341.2971, 60.59125
341.7792, 59.58121
342.2613, 64.16632
342.7434, 69.48636
343.2256, 77.32690
343.7077, 84.64661
344.1898, 88.01016
344.6719, 86.09476
345.1540, 80.62289
345.6361, 74.73203
346.1183, 67.52243
346.6004, 61.76465
347.0825, 58.78989
347.5646, 56.53992
348.0467, 54.42905
348.5288, 51.13315
349.0110, 45.70862
349.4931, 36.59283
349.9752, 20.66766
350.4573, 14.84509
350.9394, 33.36765
351.4215, 50.55255
351.9037, 52.44720
352.3858, 41.03079
352.8679, 28.12384
353.3500, 22.78088
353.8321, 24.91855
354.3142, 33.12695
354.7964, 59.89511
355.2785, 76.64474
355.7606, 66.33600
356.2427, 38.96771
356.7248, 14.04520
357.2069, 2.039459
357.6891, 0.4081420
358.1712, 3.062469
358.6533, 12.14703
359.1354, 20.74240
359.6175, 27.21304
360.0996, 31.32986
360.5818, 31.82712
361.0639, 27.10220
361.5460, 21.63974
362.0281, 21.77975
362.5102, 27.96924
362.9923, 35.55701
363.4745, 48.95724
363.9566, 58.81256
364.4387, 52.91324
364.9208, 27.83411
365.4029, 3.791046
365.8850, 2.579010
366.3672, 5.896851
366.8493, 14.00195
367.3314, 19.18750
367.8135, 22.02975
368.2956, 21.93445
368.7777, 19.19537
369.2599, 18.74310
369.7420, 25.41321
370.2241, 34.86636
370.7062, 39.09308
371.1883, 36.56406
371.6704, 32.68509
372.1526, 32.63159
372.6347, 35.42783
373.1168, 35.39398
373.5989, 31.02197
374.0810, 24.15845
374.5631, 14.48419
375.0453, 2.670868
375.5274, 6.510559
376.0095, 10.17227
376.4916, 8.915619
376.9737, 6.175201
377.4558, 2.158051
377.9380, 3.356781
378.4201, 13.24380
378.9022, 24.58960
379.3843, 30.92642
379.8664, 29.05722
380.3485, 22.27798
380.8307, 17.45654
381.3128, 16.20477
381.7949, 13.99698
382.2770, 8.113342
382.7591, 2.502686
383.2412, 2.881378
383.7234, 9.537109
384.2055, 15.28189
384.6876, 10.47015
385.1697, 10.21521
385.6518, 18.06354
386.1339, 3.023529
386.6161, 13.18088
387.0982, 19.51630
387.5803, 17.61484
388.0624, 15.10239
388.5445, 17.89871
389.0266, 25.08826
389.5088, 26.58282
389.9909, 14.34854
390.4730, 5.420349
390.9551, 6.125793
391.4372, 10.60022
391.9193, 10.09531
392.4015, 0.6008000
392.8836, 11.56589
393.3657, 12.31513
393.8478, 4.659698
394.3299, 17.62033
394.8120, 19.57291
395.2942, 19.59219
395.7763, 25.00497
396.2584, 36.39536
396.7405, 46.87012
397.2226, 49.20273
397.7047, 43.34161
398.1869, 35.99863
398.6690, 24.36081
399.1511, 15.33075
399.6332, 14.02307
400.1153, 18.42621
400.5974, 22.59216
401.0796, 22.42151
401.5617, 20.11273
402.0438, 21.35294
402.5259, 27.48285
403.0080, 31.91580
403.4901, 31.29572
403.9723, 26.53860
404.4544, 17.60794
404.9365, 0.1516420
405.4186, 14.28113
405.9007, 13.75281
406.3828, 0.7009280
406.8650, 12.33316
407.3471, 22.26410
407.8292, 28.22418
408.3113, 27.89142
408.7934, 19.70749
409.2755, 13.00461
409.7577, 13.92221
410.2398, 17.77365
410.7219, 17.20743
411.2040, 10.91031
411.6861, 4.794830
412.1682, 5.386749
412.6504, 13.90402
413.1325, 18.55460
413.6146, 15.20670
414.0967, 11.93784
414.5788, 13.57104
415.0609, 19.21973
415.5431, 25.63864
416.0252, 31.01193
416.5073, 35.32440
416.9894, 38.57922
417.4715, 45.20361
417.9536, 45.98975
418.4358, 32.13574
418.9179, 15.40500
419.4000, 9.311676
419.8821, 17.63293
420.3642, 31.15359
420.8463, 36.19501
421.3285, 28.30283
421.8106, 24.55469
422.2927, 27.60361
422.7748, 32.21973
423.2569, 36.27716
423.7390, 39.58499
424.2212, 43.20651
424.7033, 48.54810
425.1854, 54.82126
425.6675, 56.30991
426.1496, 49.62906
426.6317, 43.83875
427.1139, 43.73288
427.5960, 45.92453
428.0781, 46.07675
428.5602, 42.52982
429.0423, 37.08536
429.5244, 30.44635
430.0066, 22.41284
430.4887, 19.13120
430.9708, 25.68069
431.4529, 34.69183
431.9350, 37.21567
432.4171, 32.87363
432.8993, 29.24118
433.3814, 31.94189
433.8635, 36.92694
434.3456, 36.23135
434.8277, 28.43097
435.3098, 18.75369
435.7920, 10.16812
436.2741, 2.942291
436.7562, 0.4720460
437.2383, 2.148560
437.7204, 6.626343
438.2025, 10.41153
438.6847, 14.02429
439.1668, 20.23337
439.6489, 31.47601
440.1310, 43.64407
440.6131, 47.02728
441.0952, 29.74472
441.5774, 20.45795
442.0595, 26.34802
442.5416, 37.31503
443.0237, 45.24753
443.5058, 48.28088
443.9879, 47.28207
444.4701, 39.57123
444.9522, 22.84576
445.4343, 13.87152
445.9164, 19.19507
446.3985, 25.82230
446.8806, 31.76608
447.3628, 35.65036
447.8449, 36.09720
448.3270, 31.60809
448.8091, 24.83685
449.2912, 23.06940
449.7733, 28.94620
450.2555, 32.35178
450.7375, 25.33731
451.2197, 17.84528
451.7018, 19.22556
452.1839, 29.83694
452.6660, 40.54709
453.1481, 44.41330
453.6302, 42.23599
454.1124, 36.52780
454.5945, 25.01498
455.0766, 15.55368
455.5587, 19.10605
456.0408, 30.83395
456.5229, 35.91553
457.0051, 23.97998
457.4872, 9.466705
457.9693, 5.420227
458.4514, 10.61185
458.9335, 18.22644
459.4156, 26.32623
459.8978, 33.12531
460.3799, 32.62823
460.8620, 18.51910
461.3441, 10.24759
461.8262, 17.20328
462.3083, 28.44348
462.7905, 31.59805
463.2726, 24.10361
463.7547, 13.76480
464.2368, 8.537567
464.7189, 8.544006
465.2010, 7.076996
465.6832, 3.041687
466.1653, 6.931976
466.6474, 6.057678
467.1295, 27.36365
467.6116, 43.17569
468.0938, 46.33554
468.5759, 40.89600
469.0580, 35.21826
469.5401, 28.83481
470.0222, 23.35431
470.5043, 17.44904
470.9865, 13.76300
471.4686, 15.59167
471.9507, 22.51074
472.4328, 29.06287
472.9149, 32.37109
473.3970, 31.92297
473.8792, 24.37909
474.3613, 6.237671
474.8434, 8.856125
475.3255, 8.530823
475.8076, 0.8455200
476.2897, 6.037567
476.7719, 1.322266
477.2540, 3.209885
477.7361, 0.5482480
478.2182, 10.27905
478.7003, 19.33932
479.1824, 25.58096
479.6646, 29.80804
480.1467, 33.66409
480.6288, 38.59030
481.1109, 37.70233
481.5930, 23.87909
482.0751, 9.425323
482.5573, 2.849701
483.0394, 4.055115
483.5215, 9.556427
484.0036, 17.68304
484.4857, 27.20355
484.9678, 29.72018
485.4500, 17.94717
485.9321, 8.583923
486.4142, 3.020844
486.8963, 1.181519
487.3784, 3.859589
487.8605, 10.84154
488.3427, 19.44678
488.8248, 27.96451
489.3069, 36.56667
489.7890, 40.29131
490.2711, 37.18207
490.7532, 31.18866
491.2354, 21.84001
491.7175, 11.63458
492.1996, 6.519409
492.6817, 11.23193
493.1638, 19.54745
493.6459, 24.30211
494.1281, 25.58685
494.6102, 26.78322
495.0923, 30.85466
495.5744, 34.15396
496.0565, 27.97408
496.5386, 8.872604
497.0208, 3.051987
497.5029, 3.688065
497.9850, 15.56152
498.4671, 17.22012
498.9492, 8.647842
499.4313, 1.445892
499.9135, 5.597534
500.3956, 19.86646
500.8777, 27.80019
501.3598, 22.58432
501.8419, 19.16570
502.3240, 23.61165
502.8062, 29.36728
503.2883, 26.04198
503.7704, 11.55168
504.2525, 1.953720
504.7346, 4.643555
505.2167, 35.58478
505.6989, 55.69781
506.1810, 58.55530
506.6631, 56.22675
507.1452, 52.40416
507.6273, 48.18956
508.1094, 45.71658
508.5916, 46.69351
509.0737, 48.83632
509.5558, 47.68028
510.0379, 43.47339
510.5200, 44.51677
511.0021, 56.85600
511.4843, 71.62585
511.9664, 73.97530
512.4485, 62.50056
512.9306, 52.40828
513.4127, 47.89009
513.8948, 46.31311
514.3770, 46.35727
514.8591, 47.31178
515.3412, 46.56050
515.8233, 41.88718
516.3054, 34.24092
516.7875, 29.33084
517.2697, 27.20471
517.7518, 27.90097
518.2339, 37.08452
518.7160, 45.89697
519.1981, 43.18910
519.6802, 28.10443
520.1624, 12.27142
520.6445, 9.510010
521.1266, 20.21358
521.6087, 28.18497
522.0908, 33.46524
522.5729, 35.61786
523.0551, 33.60123
523.5372, 28.61531
524.0193, 23.01225
524.5014, 18.09856
524.9835, 13.44753
525.4656, 7.879593
525.9478, 2.215790
526.4299, 1.689484
526.9120, 9.314377
527.3941, 18.19678
527.8762, 19.76253
528.3583, 13.74292
528.8405, 8.209106
529.3226, 2.572433
529.8047, 1.195831
530.2868, 1.533386
530.7689, 1.076889
531.2510, 5.217010
531.7332, 10.18033
532.2153, 16.13425
532.6974, 23.67801
533.1795, 41.21291
533.6616, 46.96172
534.1437, 28.91138
534.6259, 9.318573
535.1080, 3.352066
535.5901, 9.596573
536.0722, 15.81644
536.5543, 12.48067
537.0364, 3.113358
537.5186, 1.383087
538.0007, 0.4294890
538.4828, 3.231247
538.9649, 10.82849
539.4470, 19.31865
539.9291, 25.68210
540.4113, 29.83827
540.8934, 30.80418
541.3755, 24.02431
541.8576, 15.24890
542.3397, 16.13412
542.8218, 27.54486
543.3040, 35.66168
543.7861, 28.91783
544.2682, 9.630066
544.7503, 2.077530
545.2324, 1.788239
545.7145, 0.4192810
546.1967, 0.2552490
546.6788, 4.6539001E-02
547.1609, 1.794479
547.6430, 5.361557
548.1251, 10.87946
548.6072, 20.22864
549.0894, 33.84651
549.5715, 37.19907
550.0536, 21.06970
550.5357, 7.805786
551.0178, 8.441879
551.4999, 15.48413
551.9821, 18.78653
552.4642, 14.91211
552.9463, 8.388412
553.4284, 3.583771
553.9105, 0.4439540
554.3926, 1.803665
554.8748, 3.826538
555.3569, 3.863098
555.8390, 0.4339290
556.3211, 6.604950
556.8032, 12.56593
557.2853, 15.47182
557.7675, 19.28490
558.2496, 29.77017
558.7317, 41.43182
559.2138, 42.82042
559.6959, 30.14299
560.1780, 13.20609
560.6602, 7.623520
561.1423, 17.32927
561.6244, 22.64629
562.1065, 17.84628
562.5886, 14.14423
563.0707, 16.47435
563.5529, 22.13258
564.0350, 25.64879
564.5171, 24.09120
564.9992, 21.25595
565.4813, 24.38466
565.9634, 32.54416
566.4456, 32.95645
566.9277, 19.25322
567.4098, 3.116287
567.8919, 2.126755
568.3740, 2.306702
568.8561, 6.213501
569.3383, 8.403107
569.8204, 9.370483
570.3025, 7.971771
570.7846, 5.679047
571.2667, 6.753830
571.7488, 13.07310
572.2310, 20.60643
572.7131, 21.38254
573.1952, 10.60364
573.6773, 6.105728
574.1594, 13.85057
574.6415, 21.59465
575.1237, 24.09137
575.6058, 22.52582
576.0879, 19.92455
576.5700, 17.39243
577.0521, 15.62950
577.5342, 17.00777
578.0164, 21.55478
578.4985, 23.73476
578.9806, 21.01218
579.4627, 17.39801
579.9448, 18.05049
580.4269, 22.34019
580.9091, 24.17676
581.3912, 20.64064
581.8733, 15.90482
582.3554, 11.50183
582.8375, 8.236099
583.3196, 7.704834
583.8018, 10.58623
584.2839, 16.28391
584.7660, 24.55031
585.2481, 38.60818
585.7302, 45.77245
586.2123, 40.11035
586.6945, 34.01404
587.1766, 32.66714
587.6587, 34.48807
588.1408, 35.99028
588.6229, 35.81549
589.1050, 34.16389
589.5872, 30.18256
590.0693, 24.05504
590.5514, 22.09366
591.0335, 27.83426
591.5156, 33.96495
591.9977, 31.06415
592.4799, 20.72284
592.9620, 15.44987
593.4441, 19.95522
593.9262, 26.96974
594.4083, 35.12373
594.8904, 42.23929
595.3726, 43.26471
595.8547, 36.63153
596.3368, 26.78539
596.8189, 19.80466
597.3010, 15.58496
597.7831, 14.73241
598.2653, 20.22075
598.7474, 26.12570
599.2295, 32.47945
599.7116, 37.49367
600.1937, 37.92329
600.6758, 31.89685
601.1580, 24.82170
601.6401, 23.40790
602.1222, 26.25519
602.6043, 25.36183
603.0864, 18.20731
603.5685, 12.81973
604.0507, 18.18762
604.5328, 32.50677
605.0149, 37.64401
605.4970, 25.26404
605.9791, 13.58798
606.4612, 9.029709
606.9434, 8.712418
607.4255, 10.14009
607.9076, 12.13339
608.3897, 12.16742
608.8718, 6.440216
609.3539, 4.805710
609.8361, 9.449677
610.3182, 2.845093
610.8003, 2.667450
611.2824, 1.484146
611.7645, 1.916580
612.2466, 3.715790
612.7288, 3.446625
613.2109, 0.8701780
613.6930, 16.35339
614.1751, 34.86961
614.6572, 40.08469
615.1393, 30.90140
615.6215, 19.70236
616.1036, 13.00749
616.5857, 10.97365
617.0678, 14.18399
617.5499, 34.56932
618.0320, 43.69543
618.5142, 31.07204
618.9963, 14.94000
619.4784, 9.901840
619.9605, 14.95305
620.4426, 20.25278
620.9247, 19.08405
621.4069, 13.42494
621.8890, 7.472763
622.3711, 0.5057980
622.8532, 2.408997
623.3353, 1.155670
623.8174, 8.452881
624.2996, 18.45001
624.7817, 30.85727
625.2638, 37.78059
625.7459, 33.78748
626.2280, 26.45354
626.7101, 20.18768
627.1923, 15.22340
627.6744, 11.33452
628.1565, 8.449448
628.6386, 6.889954
629.1207, 7.591644
629.6028, 11.66171
630.0850, 13.50504
630.5671, 7.649918
631.0492, 5.300690
631.5313, 15.99533
632.0134, 30.68387
632.4955, 33.85045
632.9777, 18.89781
633.4598, 1.513840
633.9419, 1.850708
634.4240, 4.769958
634.9061, 8.740601
635.3882, 8.400009
635.8704, 7.012787
636.3525, 6.542252
636.8346, 7.068512
637.3167, 9.168015
637.7988, 17.07434
638.2809, 20.75536
638.7631, 14.70566
639.2452, 6.258347
639.7273, 2.100357
640.2094, 2.741608
640.6915, 5.056976
641.1736, 7.001770
641.6558, 8.415710
642.1379, 8.611343
642.6200, 7.440186
643.1021, 5.545441
643.5842, 1.607941
644.0663, 1.546234
644.5485, 0.3615570
645.0306, 5.018372
645.5127, 9.534027
645.9948, 11.00571
646.4769, 11.75525
646.9590, 13.80879
647.4412, 16.61336
647.9233, 18.45068
648.4054, 18.63997
648.8875, 18.25148
649.3696, 18.79460
649.8517, 20.24814
650.3339, 22.82231
650.8160, 28.97217
651.2981, 33.24464
651.7802, 31.21021
652.2623, 27.29257
652.7444, 29.03940
653.2266, 39.47922
653.7087, 47.95091
654.1908, 44.32133
654.6729, 33.17155
655.1550, 23.89012
655.6371, 17.51050
656.1193, 12.48866
656.6014, 7.206955
657.0835, 3.011414
657.5656, 5.048248
658.0477, 22.37173
658.5298, 33.55740
659.0120, 37.26477
659.4941, 35.86652
659.9762, 27.05132
660.4583, 14.35178
660.9404, 7.137024
661.4225, 11.92256
661.9047, 22.31244
662.3868, 26.90508
662.8689, 25.94896
663.3510, 26.73633
663.8331, 31.00897
664.3152, 37.14442
664.7974, 45.44476
665.2795, 55.34476
665.7616, 58.45323
666.2437, 48.73080
666.7258, 39.01215
667.2079, 34.39661
667.6901, 31.81874
668.1722, 26.79051
668.6543, 18.83530
669.1364, 13.76233
669.6185, 18.52745
670.1006, 30.56686
670.5828, 38.96388
671.0649, 44.39450
671.5470, 44.10599
672.0291, 31.62694
672.5112, 17.32809
672.9933, 15.32144
673.4755, 26.30679
673.9576, 30.43988
674.4397, 9.522446
674.9218, 9.475189
675.4039, 1.976730
675.8860, 31.84055
676.3682, 49.10919
676.8503, 41.79962
677.3324, 23.81718
677.8145, 15.38989
678.2966, 17.92307
678.7787, 18.83450
679.2609, 18.34897
679.7430, 15.82187
680.2251, 7.450531
680.7072, 1.471558
681.1893, 2.941147
681.6714, 5.060806
682.1536, 13.90981
682.6357, 19.28387
683.1178, 22.43117
683.5999, 25.76678
684.0820, 28.65872
684.5641, 27.97617
685.0463, 21.77733
685.5284, 13.47601
686.0105, 11.42151
686.4926, 19.89195
686.9747, 24.42877
687.4568, 20.66896
687.9390, 17.33064
688.4211, 19.91946
688.9032, 25.05905
689.3853, 26.01480
689.8674, 20.00952
690.3495, 11.99797
690.8317, 3.077988
691.3138, 4.328568
691.7959, 3.604858
692.2780, 5.993652
692.7601, 16.79208
693.2422, 23.88965
693.7244, 27.66098
694.2065, 30.69101
694.6886, 34.74254
695.1707, 35.35806
695.6528, 29.47209
696.1349, 23.21565
696.6171, 19.78510
697.0992, 18.67041
697.5813, 18.54863
698.0634, 19.46182
698.5455, 19.71429
699.0276, 16.08456
699.5098, 9.983231
699.9919, 5.437790
700.4740, 3.076401
700.9561, 4.173752
701.4382, 10.69524
701.9203, 21.58739
702.4025, 29.23810
702.8846, 34.13812
703.3667, 34.82076
703.8488, 25.53423
704.3309, 16.47072
704.8130, 16.25090
705.2952, 23.62460
705.7773, 31.21501
706.2594, 35.48743
706.7415, 36.84549
707.2236, 34.50446
707.7057, 29.25400
708.1879, 26.09843
708.6700, 26.33951
709.1521, 27.96896
709.6342, 29.60840
710.1163, 31.16711
710.5984, 30.12242
711.0806, 22.88280
711.5627, 17.91559
712.0448, 16.04109
712.5269, 17.38147
713.0090, 24.10162
713.4911, 34.62247
713.9733, 42.00432
714.4554, 40.27545
714.9375, 34.76257
715.4196, 35.07954
715.9017, 40.22394
716.3839, 41.52415
716.8660, 36.11459
717.3481, 29.33089
717.8302, 26.45966
718.3123, 27.49977
718.7944, 27.64206
719.2766, 23.51688
719.7587, 22.92719
720.2408, 32.26448
720.7229, 42.21970
721.2050, 42.69148
721.6871, 34.48068
722.1693, 27.86684
722.6514, 31.57928
723.1335, 38.46390
723.6156, 34.66832
724.0977, 22.02940
724.5798, 15.08183
725.0620, 18.70885
725.5441, 23.31915
726.0262, 17.78625
726.5083, 2.118317
726.9904, 4.090668
727.4725, 9.322159
727.9547, 18.66824
728.4368, 16.82388
728.9189, 11.76158
729.4010, 10.35110
729.8831, 12.93085
730.3652, 15.88129
730.8474, 16.70850
731.3295, 17.03796
731.8116, 20.31018
732.2937, 25.54407
732.7758, 26.54237
733.2579, 22.56381
733.7401, 17.92056
734.2222, 17.62845
734.7043, 21.46584
735.1864, 23.75865
735.6685, 23.02637
736.1506, 22.65050
736.6328, 24.40913
737.1149, 25.59215
737.5970, 22.97783
738.0791, 17.39998
738.5612, 13.53229
739.0433, 15.85498
739.5255, 18.60817
740.0076, 12.75449
740.4897, 1.454254
740.9718, 5.017380
741.4539, 4.308807
741.9360, 0.4412690
742.4182, 3.298981
742.9003, 6.891693
743.3824, 10.08231
743.8645, 13.24986
744.3466, 15.32553
744.8287, 15.45314
745.3109, 15.15076
745.7930, 16.35774
746.2751, 18.16168
746.7572, 16.78780
747.2393, 7.323593
747.7214, 0.5911560
748.2036, 4.918152
748.6857, 16.59203
749.1678, 18.85651
749.6499, 10.15822
750.1320, 0.4424130
750.6141, 3.164978
751.0963, 1.783722
751.5784, 0.7077790
752.0605, 5.761719
752.5426, 7.708786
753.0247, 2.689987
753.5068, 2.247925
753.9890, 1.949997
754.4711, 1.763672
754.9532, 3.474091
755.4353, 0.8022610
755.9174, 1.921524
756.3995, 8.342529
756.8817, 22.10091
757.3638, 31.46063
757.8459, 35.92017
758.3280, 38.18642
758.8101, 39.90407
759.2922, 40.48326
759.7744, 37.98065
760.2565, 31.21503
760.7386, 28.36214
761.2207, 33.19705
761.7028, 35.93605
762.1849, 27.99101
762.6671, 13.97870
763.1492, 5.520477
763.6313, 3.311218
764.1134, 5.602081
764.5955, 19.55281
765.0776, 31.27209
765.5598, 26.48845
766.0419, 11.32486
766.5240, 1.773773
767.0061, 4.844421
767.4882, 12.07666
767.9703, 12.72815
768.4525, 7.957306
768.9346, 3.531784
769.4167, 0.4106750
769.8988, 1.916168
770.3809, 0.7165220
770.8630, 5.334610
771.3452, 7.506760
771.8273, 5.596054
772.3094, 6.295364
772.7915, 11.44025
773.2736, 17.03900
773.7557, 22.80257
774.2379, 27.01480
774.7200, 26.01199
775.2021, 19.24104
775.6842, 13.77914
776.1663, 17.18410
776.6484, 23.97333
777.1306, 24.26082
777.6127, 19.34454
778.0948, 17.34822
778.5769, 21.33777
779.0590, 26.96786
779.5411, 28.70142
780.0233, 26.41090
780.5054, 25.25465
780.9875, 24.53105
781.4696, 26.17380
781.9517, 34.19641
782.4338, 42.05705
782.9160, 44.13214
783.3981, 40.65086
783.8802, 36.08142
784.3623, 30.62454
784.8444, 25.78850
785.3265, 24.32204
785.8087, 23.56384
786.2908, 20.09692
786.7729, 13.79370
787.2550, 8.109619
787.7371, 5.724030
788.2192, 6.008743
788.7014, 7.756180
789.1835, 11.22459
789.6656, 13.47075
790.1477, 13.60120
790.6298, 13.15471
791.1119, 11.98393
791.5941, 11.14877
792.0762, 15.51665
792.5583, 33.86217
793.0404, 43.33797
793.5225, 33.91434
794.0046, 20.36684
794.4868, 11.63094
794.9689, 7.742783
795.4510, 5.338486
795.9331, 3.134277
796.4152, 3.197327
796.8973, 10.55241
797.3795, 21.28511
797.8616, 24.31561
798.3437, 19.29189
798.8258, 13.62842
799.3079, 11.30093
799.7900, 12.09849
800.2722, 15.60190
800.7543, 22.99507
801.2364, 27.34142
801.7185, 28.38760
802.2006, 26.57576
802.6827, 19.15706
803.1649, 10.88290
803.6470, 7.428299
804.1291, 9.321655
804.6112, 11.46059
805.0933, 10.15198
805.5754, 10.04652
806.0576, 17.80141
806.5397, 28.35107
807.0218, 31.86281
807.5039, 26.83865
807.9860, 20.82335
808.4681, 20.37511
808.9503, 24.15224
809.4324, 27.82729
809.9145, 31.44536
810.3966, 31.19801
810.8787, 24.93834
811.3608, 17.97662
811.8430, 16.03001
812.3251, 18.13664
812.8072, 15.77293
813.2893, 1.007462
813.7714, 6.886322
814.2535, 1.455963
814.7357, 7.030029
815.2178, 14.73624
815.6999, 19.78242
816.1820, 18.11081
816.6641, 6.319962
817.1462, 3.321304
817.6284, 2.543091
818.1105, 15.36444
818.5926, 21.46446
819.0747, 20.56403
819.5568, 17.40753
820.0389, 14.13689
820.5211, 10.79819
821.0032, 7.054565
821.4852, 2.701218
821.9673, 1.556519
822.4495, 4.442032
822.9316, 8.619766
823.4137, 15.31715
823.8958, 20.96042
824.3779, 19.79012
824.8600, 11.68672
825.3422, 5.819977
825.8243, 4.583801
826.3064, 4.083878
826.7885, 2.064316
827.2706, 0.3925020
827.7527, 2.778183
828.2349, 8.501404
828.7170, 11.14784
829.1991, 5.496063
829.6812, 2.743210
830.1633, 8.006577
830.6454, 9.469849
831.1276, 2.106522
831.6097, 14.42407
832.0918, 29.78227
832.5739, 37.05536
833.0560, 37.98372
833.5381, 36.94627
834.0203, 33.24786
834.5024, 29.86845
834.9845, 26.27211
835.4666, 23.90273
835.9487, 25.22359
836.4308, 27.50391
836.9130, 26.31076
837.3951, 20.59592
837.8772, 15.90292
838.3593, 12.85551
838.8414, 11.98656
839.3235, 15.58647
839.8057, 20.71368
840.2878, 23.74686
840.7699, 23.57883
841.2520, 19.91638
841.7341, 9.645401
842.2162, 1.938766
842.6984, 4.162689
843.1805, 1.463623
843.6626, 8.207733
844.1447, 14.58194
844.6268, 18.55257
845.1089, 17.78186
845.5911, 13.76828
846.0732, 13.45038
846.5553, 17.78041
847.0374, 23.41855
847.5195, 32.95215
848.0016, 40.26070
848.4838, 40.89760
848.9659, 37.19312
849.4480, 33.51395
849.9301, 30.43777
850.4122, 26.64545
850.8943, 21.52074
851.3765, 15.80144
851.8586, 6.451279
852.3407, 1.885269
852.8228, 0.5731660
853.3049, 15.62247
853.7870, 30.89487
854.2692, 35.37045
854.7513, 32.97450
855.2334, 29.92790
855.7155, 26.39188
856.1976, 23.19847
856.6797, 20.58246
857.1619, 17.83945
857.6440, 13.79988
858.1261, 9.444885
858.6082, 11.48352
859.0903, 23.13145
859.5724, 28.04146
860.0546, 20.63849
860.5367, 12.24232
861.0188, 10.87259
861.5009, 13.94788
861.9830, 15.20627
862.4651, 13.32729
862.9473, 12.28954
863.4294, 14.01610
863.9115, 15.57394
864.3936, 15.00507
864.8757, 13.15839
865.3578, 11.45285
865.8400, 9.699234
866.3221, 9.046158
866.8042, 9.861069
867.2863, 12.30957
867.7684, 17.51059
868.2505, 24.51971
868.7327, 31.83513
869.2148, 38.71017
869.6969, 40.34566
870.1790, 31.11147
870.6611, 15.77072
871.1432, 12.31496
871.6254, 22.18707
872.1075, 29.27763
872.5896, 30.91246
873.0717, 29.61023
873.5538, 25.56628
874.0359, 20.64810
874.5181, 20.77458
875.0002, 30.16850
875.4823, 35.72397
875.9644, 35.55185
876.4465, 33.04474
876.9286, 28.61659
877.4108, 23.14832
877.8929, 16.92923
878.3750, 10.17963
878.8571, 5.574310
879.3392, 4.192719
879.8214, 5.565460
880.3035, 11.10028
880.7856, 18.36882
881.2677, 24.58623
881.7498, 28.65239
882.2319, 28.10231
882.7141, 20.15059
883.1962, 10.38214
883.6783, 9.261337
884.1604, 15.69557
884.6425, 24.15298
885.1246, 34.34258
885.6068, 39.42871
886.0889, 34.65695
886.5710, 25.49181
887.0531, 22.71867
887.5352, 28.09729
888.0173, 27.77663
888.4995, 16.93945
888.9816, 9.891922
889.4637, 14.89360
889.9458, 21.85892
890.4279, 19.61163
890.9100, 9.050919
891.3922, 2.740952
891.8743, 5.290039
892.3564, 8.601089
892.8385, 10.51726
893.3206, 11.85115
893.8027, 13.19708
894.2849, 14.63301
894.7670, 16.46729
895.2491, 19.19019
895.7312, 20.23502
896.2133, 14.38316
896.6954, 7.220917
897.1776, 8.324905
897.6597, 16.19751
898.1418, 24.16104
898.6239, 29.76988
899.1060, 33.65106
899.5881, 36.94685
900.0703, 38.83336
900.5524, 35.16856
901.0345, 26.03224
901.5166, 19.39783
901.9987, 17.32727
902.4808, 17.26279
902.9630, 17.22533
903.4451, 17.45074
903.9272, 19.27751
904.4093, 26.39003
904.8914, 27.33913
905.3735, 15.46956
905.8557, 4.986053
906.3378, 2.315811
906.8199, 4.340515
907.3020, 7.080856
907.7841, 10.27908
908.2662, 13.53836
908.7484, 18.79898
909.2305, 21.77577
909.7126, 19.17680
910.1947, 13.74126
910.6768, 7.742737
911.1589, 2.276093
911.6411, 0.2156220
912.1232, 1.774399
912.6053, 6.815125
913.0874, 16.70905
913.5695, 27.21544
914.0516, 31.12021
914.5338, 28.14359
915.0159, 19.28163
915.4980, 4.883163
915.9801, 8.069839
916.4622, 8.326569
916.9443, 1.917191
917.4265, 8.643799
917.9086, 11.81427
918.3907, 10.75713
918.8728, 3.751282
919.3549, 0.8088230
919.8370, 6.869370
920.3192, 23.84715
920.8013, 29.76608
921.2834, 19.62109
921.7655, 10.25835
922.2476, 0.1662900
922.7297, 5.136719
923.2119, 1.643570
923.6940, 13.77121
924.1761, 19.07915
924.6582, 15.24243
925.1403, 13.26421
925.6224, 17.35562
926.1046, 20.51534
926.5867, 19.04489
927.0688, 15.55675
927.5509, 12.77588
928.0330, 11.88972
928.5151, 13.69666
928.9973, 22.18999
929.4794, 27.40186
929.9615, 17.79691
930.4436, 3.429123
930.9257, 4.048569
931.4078, 4.078247
931.8900, 1.277832
932.3721, 11.10294
932.8542, 20.86404
933.3363, 25.22797
933.8184, 25.73079
934.3005, 26.97260
934.7827, 28.39899
935.2648, 24.85344
935.7469, 14.90869
936.2290, 5.941406
936.7111, 4.903320
937.1932, 9.434753
937.6754, 11.12915
938.1575, 9.586533
938.6396, 8.424667
939.1217, 7.844131
939.6038, 8.306915
940.0859, 10.86461
940.5681, 13.69008
941.0502, 14.85660
941.5323, 13.94370
942.0144, 13.52365
942.4965, 12.33331
942.9786, 13.46515
943.4608, 21.29866
943.9429, 28.59012
944.4250, 28.43523
944.9071, 22.34500
945.3892, 17.74637
945.8713, 16.78159
946.3535, 15.53459
946.8356, 12.78096
947.3177, 9.603683
947.7998, 5.281525
948.2819, 1.618195
948.7640, 2.445358
949.2462, 8.671402
949.7283, 14.20576
950.2104, 14.38773
950.6925, 12.81558
951.1746, 12.01611
951.6567, 12.36739
952.1389, 16.02293
952.6210, 21.44601
953.1031, 23.76840
953.5852, 19.44643
954.0673, 13.65570
954.5494, 13.42468
955.0316, 17.12447
955.5137, 21.72169
955.9958, 26.35507
956.4779, 26.24438
956.9600, 19.60323
957.4421, 12.58253
957.9243, 12.38071
958.4064, 17.35445
958.8885, 19.97887
959.3706, 20.13632
959.8527, 19.61397
960.3348, 18.28242
960.8170, 18.41563
961.2991, 17.16132
961.7812, 24.81360
962.2633, 29.33813
962.7454, 30.90295
963.2275, 20.64389
963.7097, 25.65262
964.1918, 24.54227
964.6739, 23.18103
965.1560, 30.33794
965.6381, 21.79774
966.1202, 28.81912
966.6024, 29.62860
967.0845, 33.28075
967.5666, 30.77640
968.0487, 30.17403
968.5308, 35.72995
969.0129, 37.87659
969.4951, 34.66020
969.9772, 38.49832
970.4593, 29.74779
970.9414, 32.04379
971.4235, 19.39308
971.9056, 7.697906
972.3878, 2.620850
972.8699, 3.329330
973.3520, 12.64616
973.8341, 26.33994
974.3162, 32.74512
974.7983, 25.64838
975.2805, 16.36998
975.7626, 13.25948
976.2447, 13.38492
976.7268, 13.84593
977.2089, 14.49222
977.6910, 15.66573
978.1732, 17.45091
978.6553, 19.87802
979.1374, 22.83478
979.6195, 26.65761
980.1016, 34.30324
980.5837, 42.64651
981.0659, 43.12599
981.5480, 35.19446
982.0301, 25.32185
982.5122, 16.71361
982.9943, 8.979553
983.4764, 0.4307710
983.9586, 9.729355
984.4407, 6.936295
984.9228, 7.813141
985.4049, 25.89046
985.8870, 46.17451
986.3691, 58.48792
986.8513, 53.10835
987.3334, 36.13844
987.8155, 26.08838
988.2976, 23.92862
988.7797, 21.60326
989.2618, 18.15248
989.7440, 18.57214
990.2261, 26.62517
990.7082, 35.44939
991.1903, 35.58798
991.6724, 27.35414
992.1545, 24.84044
992.6367, 32.56770
993.1188, 36.79190
993.6009, 35.33205
994.0830, 30.76674
994.5651, 21.95360
995.0472, 11.98109
995.5294, 8.007813
996.0115, 12.29039
996.4936, 12.66180
996.9757, 1.597778
997.4578, 4.227020
997.9399, 3.636749
998.4221, 15.20535
998.9042, 24.33331
999.3863, 29.81700
999.8684, 28.83421
1000.351, 15.33595
1000.833, 8.722260
1001.315, 22.59059
1001.797, 35.99115
1002.279, 35.28914
1002.761, 27.17906
1003.243, 20.01060
1003.725, 15.43477
1004.207, 12.73431
1004.690, 13.73767
1005.172, 13.48375
1005.654, 6.936279
1006.136, 0.7976680
1006.618, 6.047409
1007.100, 7.818497
1007.582, 3.265030
1008.064, 8.107300
1008.547, 16.04478
1009.029, 6.928986
1009.511, 3.625031
1009.993, 5.128906
1010.475, 21.47932
1010.957, 24.58174
1011.439, 14.47063
1011.921, 4.384903
1012.403, 0.7239990
1012.886, 2.115799
1013.368, 9.638260
1013.850, 19.81612
1014.332, 27.40436
1014.814, 32.24205
1015.296, 33.74907
1015.778, 32.19374
1016.260, 26.52026
1016.742, 14.51437
1017.225, 2.900040
1017.707, 7.127258
1018.189, 21.62695
1018.671, 23.72122
1019.153, 13.86957
1019.635, 10.51990
1020.117, 20.47047
1020.599, 31.82297
1021.082, 31.60741
1021.564, 23.90605
1022.046, 23.47736
1022.528, 29.51743
1023.010, 28.69287
1023.492, 19.00200
1023.974, 12.63942
1024.456, 16.43593
1024.938, 22.88930
1025.421, 19.53001
1025.903, 7.811234
1026.385, 8.178665
1026.867, 23.10364
1027.349, 30.17682
1027.831, 24.89160
1028.313, 17.64156
1028.795, 14.76855
1029.278, 15.71574
1029.760, 20.07057
1030.242, 28.81648
1030.724, 32.34070
1031.206, 28.91678
1031.688, 26.36902
1032.170, 27.58069
1032.652, 28.55821
1033.135, 19.85516
1033.617, 26.84024
1034.099, 30.69743
1034.581, 31.59482
1035.063, 20.66847
1035.545, 25.00957
1036.027, 23.23190
1036.509, 21.20294
1036.991, 27.69209
1037.474, 18.48393
1037.956, 24.83763
1038.438, 24.98042
1038.920, 27.96585
1039.402, 24.79483
1039.884, 23.52492
1040.366, 28.41313
1040.848, 29.89110
1041.330, 25.91505
1041.813, 28.40005
1042.295, 18.47139
1042.777, 20.09370
1043.259, 26.48193
1043.741, 22.90955
1044.223, 26.18568
1044.705, 26.85336
1045.187, 15.66660
1045.670, 25.09489
1046.152, 25.12686
1046.634, 20.79982
1047.116, 18.86223
1047.598, 21.52499
1048.080, 24.83775
1048.562, 31.95432
1049.044, 35.85721
1049.526, 27.48532
1050.009, 13.06213
1050.491, 7.917450
1050.973, 16.55479
1051.455, 21.30556
1051.937, 13.00114
1052.419, 8.425446
1052.901, 20.16078
1053.383, 32.56914
1053.865, 27.31180
1054.348, 11.01131
1054.830, 7.856369
1055.312, 28.69604
1055.794, 41.01593
1056.276, 28.10841
1056.758, 14.41862
1057.240, 11.78609
1057.722, 13.98511
1058.205, 15.30849
1058.687, 14.90462
1059.169, 11.87763
1059.651, 2.625183
1060.133, 1.012100
1060.615, 13.05331
1061.097, 24.57237
1061.579, 16.51740
1062.062, 2.299210
1062.544, 0.1949310
1063.026, 9.146378
1063.508, 17.32939
1063.990, 20.09727
1064.472, 20.94513
1064.954, 20.99347
1065.436, 20.72980
1065.918, 20.32262
1066.401, 19.29005
1066.883, 16.96295
1067.365, 13.18353
1067.847, 10.24860
1068.329, 7.288864
1068.811, 6.811035
1069.293, 13.49120
1069.775, 19.60104
1070.257, 18.67847
1070.740, 13.18149
1071.222, 6.213455
1071.704, 1.160080
1072.186, 4.844421
1072.668, 0.1699370
1073.150, 4.902557
1073.632, 4.594345
1074.114, 2.706589
1074.596, 1.562637
1075.079, 1.295914
1075.561, 1.356018
1076.043, 1.658157
1076.525, 3.739853
1077.007, 11.78740
1077.489, 17.30037
1077.971, 11.71069
1078.453, 5.472168
1078.936, 10.94316
1079.418, 23.24939
1079.900, 28.11230
1080.382, 22.70810
1080.864, 16.40773
1081.346, 8.768921
1081.828, 7.033081
1082.310, 24.92581
1082.792, 41.12128
1083.275, 27.42680
1083.757, 2.472748
1084.239, 14.71683
1084.721, 0.6328430
1085.203, 14.82047
1085.685, 23.52972
1086.167, 27.53818
1086.649, 24.42081
1087.131, 20.08409
1087.614, 21.01727
1088.096, 25.14691
1088.578, 26.14793
1089.060, 22.24336
1089.542, 18.98294
1090.024, 20.00966
1090.506, 20.51526
1090.988, 17.64337
1091.471, 13.39337
1091.953, 8.333374
1092.435, 3.838806
1092.917, 3.203232
1093.399, 7.675400
1093.881, 11.20151
1094.363, 11.67104
1094.845, 10.54849
1095.328, 6.746017
1095.810, 3.103638
1096.292, 2.410339
1096.774, 3.971481
1097.256, 5.492462
1097.738, 6.322754
1098.220, 8.353317
1098.702, 13.05341
1099.184, 17.96234
1099.667, 24.31693
1100.149, 28.42778
1100.631, 25.26178
1101.113, 17.56885
1101.595, 11.86270
1102.077, 9.002625
1102.559, 9.846619
1103.041, 21.98532
1103.523, 28.27829
1104.006, 15.31723
1104.488, 0.2684020
1104.970, 1.185333
1105.452, 6.514435
1105.934, 10.61069
1106.416, 8.678436
1106.898, 7.340591
1107.380, 8.398178
1107.863, 9.321930
1108.345, 6.532715
1108.827, 5.940811
1109.309, 16.57245
1109.791, 31.85326
1110.273, 34.88475
1110.755, 20.69272
1111.237, 12.30180
1111.719, 18.53232
1112.202, 21.36456
1112.684, 10.72711
1113.166, 1.175644
1113.648, 6.378433
1114.130, 19.13766
1114.612, 21.44925
1115.094, 8.686295
1115.576, 6.094284
1116.058, 26.26109
1116.541, 37.20331
1117.023, 26.16022
1117.505, 13.48122
1117.987, 12.50291
1118.469, 18.20746
1118.951, 20.19298
1119.433, 17.98511
1119.915, 15.39552
1120.398, 11.31688
1120.880, 9.208206
1121.362, 10.80103
1121.844, 12.15945
1122.326, 10.22894
1122.808, 7.348572
1123.290, 7.847061
1123.772, 11.91338
1124.255, 15.71034
1124.737, 20.64084
1125.219, 20.01018
1125.701, 10.10217
1126.183, 2.167633
1126.665, 3.217239
1127.147, 7.995316
1127.629, 8.140442
1128.111, 4.051224
1128.594, 3.166092
1129.076, 5.701126
1129.558, 10.68346
1130.040, 18.70430
1130.522, 25.21719
1131.004, 27.71312
1131.486, 25.63377
1131.968, 16.80873
1132.450, 3.550430
1132.933, 0.1737520
1133.415, 5.566986
1133.897, 12.64201
1134.379, 19.72093
1134.861, 22.30818
1135.343, 18.75145
1135.825, 10.43187
1136.307, 3.576797
1136.790, 17.38336
1137.272, 8.084610
1137.754, 18.17656
1138.236, 22.74025
1138.718, 5.543976
1139.200, 5.333847
1139.682, 0.1675870
1140.164, 10.37183
1140.646, 17.96623
1141.129, 21.98128
1141.611, 17.70030
1142.093, 9.309631
1142.575, 12.71336
1143.057, 24.58447
1143.539, 32.66833
1144.021, 33.82797
1144.503, 32.67520
1144.985, 32.82602
1145.468, 30.78645
1145.950, 18.67819
1146.432, 4.301102
1146.914, 2.0858999E-02
1147.396, 2.943634
1147.878, 6.341385
1148.360, 8.542679
1148.842, 9.614456
1149.325, 8.847565
1149.807, 10.22810
1150.289, 23.04016
1150.771, 33.38010
1151.253, 22.78172
1151.735, 4.577896
1152.217, 0.8271180
1152.699, 5.503082
1153.182, 9.174026
1153.664, 4.751129
1154.146, 0.7746730
1154.628, 1.247681
1155.110, 3.387939
1155.592, 5.346298
1156.074, 8.391495
1156.556, 16.43266
1157.038, 26.09563
1157.521, 27.69676
1158.003, 17.78365
1158.485, 12.54472
1158.967, 20.85640
1159.449, 26.73836
1159.931, 23.24660
1160.413, 18.26065
1160.895, 18.07870
1161.377, 19.71432
1161.860, 15.86465
1162.342, 5.232574
1162.824, 1.910492
1163.306, 12.62096
1163.788, 18.80267
1164.270, 16.86945
1164.752, 12.95998
1165.234, 8.651779
1165.717, 5.511337
1166.199, 5.982605
1166.681, 9.570435
1167.163, 11.04420
1167.645, 8.345566
1168.127, 14.27211
1168.609, 33.56558
1169.091, 42.47606
1169.573, 29.99709
1170.056, 13.50304
1170.538, 10.06354
1171.020, 15.30537
1171.502, 16.30286
1171.984, 13.38785
1172.466, 13.13040
1172.948, 15.51895
1173.430, 13.63104
1173.912, 5.904160
1174.395, 1.472214
1174.877, 7.269821
1175.359, 16.66333
1175.841, 18.61568
1176.323, 16.15805
1176.805, 17.11633
1177.287, 20.66603
1177.769, 24.84302
1178.252, 28.53133
1178.734, 28.64236
1179.216, 23.66159
1179.698, 17.19818
1180.180, 10.79446
1180.662, 6.435715
1181.144, 7.601776
1181.626, 11.39694
1182.109, 13.91603
1182.591, 15.31180
1183.073, 17.40581
1183.555, 20.61087
1184.037, 23.18491
1184.519, 25.36313
1185.001, 25.14066
1185.483, 19.28059
1185.965, 12.87494
1186.448, 8.268127
1186.930, 6.583374
1187.412, 11.64458
1187.894, 22.12402
1188.376, 24.94679
1188.858, 9.652451
1189.340, 1.428970
1189.822, 13.14241
1190.304, 20.41440
1190.787, 6.540100
1191.269, 8.861313
1191.751, 7.299271
1192.233, 5.961517
1192.715, 13.86037
1193.197, 15.18076
1193.679, 16.76053
1194.161, 19.43071
1194.644, 17.42505
1195.126, 8.516724
1195.608, 5.205719
1196.090, 17.02835
1196.572, 32.90498
1197.054, 32.57979
1197.536, 19.66873
1198.018, 20.10190
1198.500, 32.95947
1198.983, 35.40897
1199.465, 25.25381
1199.947, 18.39398
1200.429, 21.34256
1200.911, 26.72517
1201.393, 27.60327
1201.875, 25.57315
1202.357, 23.14861
1202.839, 20.19670
1203.322, 14.96689
1203.804, 9.220917
1204.286, 8.814133
1204.768, 14.06824
1205.250, 18.64922
1205.732, 18.71506
1206.214, 18.62927
1206.696, 24.59485
1207.179, 29.07420
1207.661, 22.23730
1208.143, 13.11737
1208.625, 15.16409
1209.107, 25.25107
1209.589, 30.76094
1210.071, 28.44443
1210.553, 24.36324
1211.036, 19.32578
1211.518, 13.97433
1212.000, 4.427567
1212.482, 1.076843
1212.964, 8.177063
1213.446, 21.63965
1213.928, 21.92606
1214.410, 9.793915
1214.892, 2.491043
1215.375, 0.7648620
1215.857, 2.265762
1216.339, 8.250656
1216.821, 13.81337
1217.303, 18.11389
1217.785, 18.10533
1218.267, 9.619675
1218.749, 2.053497
1219.231, 3.045822
1219.714, 5.964340
1220.196, 16.96706
1220.678, 29.09949
1221.160, 31.37860
1221.642, 22.89120
1222.124, 18.57895
1222.606, 26.54471
1223.088, 33.61864
1223.571, 21.07317
1224.053, 2.257263
1224.535, 2.978210
1225.017, 1.393433
1225.499, 13.98425
1225.981, 28.76607
1226.463, 30.12679
1226.945, 16.58154
1227.427, 8.654663
1227.910, 20.06781
1228.392, 32.11850
1228.874, 35.43219
1229.356, 34.75528
1229.838, 35.17752
1230.320, 33.90038
1230.802, 22.38751
1231.284, 5.459885
1231.766, 2.352951
1232.249, 21.82698
1232.731, 30.17082
1233.213, 18.94423
1233.695, 9.655609
1234.177, 5.168869
1234.659, 4.688889
1235.141, 9.041870
1235.623, 15.10446
1236.106, 18.38011
1236.588, 19.29988
1237.070, 20.37502
1237.552, 21.55977
1238.034, 26.52115
1238.516, 35.40384
1238.998, 40.29887
1239.480, 38.85797
1239.963, 36.74792
1240.445, 38.81915
1240.927, 39.77307
1241.409, 27.67465
1241.891, 11.72020
1242.373, 11.70584
1242.855, 20.20163
1243.337, 19.12813
1243.819, 10.77695
1244.302, 11.25824
1244.784, 26.00169
1245.266, 36.90857
1245.748, 29.59013
1246.230, 20.89575
1246.712, 17.91124
1247.194, 19.03651
1247.676, 27.09778
1248.158, 36.07683
1248.641, 37.32655
1249.123, 31.29944
1249.605, 25.71449
1250.087, 20.14255
1250.569, 17.26672
1251.051, 18.89374
1251.533, 19.16812
1252.015, 15.87550
1252.498, 12.88272
1252.980, 12.60297
1253.462, 14.46588
1253.944, 17.99893
1254.426, 22.68210
1254.908, 25.80534
1255.390, 27.18295
1255.872, 22.35759
1256.354, 12.65968
1256.837, 13.78346
1257.319, 29.52258
1257.801, 40.53085
1258.283, 30.40851
1258.765, 16.55949
1259.247, 21.24449
1259.729, 31.39874
1260.211, 30.74400
1260.693, 24.95245
1261.176, 23.23061
1261.658, 25.49960
1262.140, 28.36798
1262.622, 31.39137
1263.104, 29.09227
1263.586, 8.002930
1264.068, 1.444305
1264.550, 23.11940
1265.033, 44.76961
1265.515, 38.79269
1265.997, 12.90771
1266.479, 2.080276
1266.961, 0.0000000E+00
##END=



