##NAMES=Borocookeite
##RRUFFID=R080076
##IDEAL CHEMISTRY=LiAl_4_(Si_3_B)O_10_(OH)_8_
##LOCALITY=Malkhan Range, Central Transbaikal Region, Russia
##OWNER=RRUFF
##SOURCE=Michael Scott
##DESCRIPTION=Cream-colored earthy coating on tourmaline crystal
##STATUS=The identification of this mineral is not yet confirmed.
##URL=rruff.info/R080076
141.5294, 0.0000000E+00
142.0115, 0.8203130
142.4936, 1.146484
142.9758, 1.176758
143.4579, 0.6914060
143.9400, 0.2099610
144.4221, 0.6835940
144.9042, 7.453125
145.3863, 13.60352
145.8685, 17.06445
146.3506, 16.27246
146.8327, 12.53125
147.3148, 7.769531
147.7969, 0.1250000
148.2790, 3.958984
148.7612, 0.2441410
149.2433, 10.66602
149.7254, 20.24805
150.2075, 26.86426
150.6896, 30.17285
151.1717, 30.16309
151.6539, 25.40723
152.1360, 20.63086
152.6181, 20.74121
153.1002, 26.20312
153.5823, 30.59277
154.0644, 29.15137
154.5466, 26.31348
155.0287, 25.97852
155.5108, 29.59375
155.9929, 34.72852
156.4750, 36.84766
156.9571, 33.84766
157.4393, 32.37891
157.9214, 34.98535
158.4035, 39.36816
158.8856, 43.72266
159.3677, 47.38965
159.8498, 49.88672
160.3320, 49.20605
160.8141, 41.18262
161.2962, 34.81836
161.7783, 32.44238
162.2604, 32.41406
162.7425, 32.17188
163.2247, 30.01660
163.7068, 26.22852
164.1889, 25.10449
164.6710, 30.84668
165.1531, 34.65332
165.6352, 32.75488
166.1174, 26.75293
166.5995, 20.87305
167.0816, 18.21875
167.5637, 18.81836
168.0458, 19.02148
168.5279, 18.35840
169.0101, 17.87695
169.4922, 18.92188
169.9743, 21.27930
170.4564, 22.73340
170.9385, 21.41309
171.4206, 17.44434
171.9028, 13.31055
172.3849, 8.113281
172.8670, 3.584961
173.3491, 1.704102
173.8312, 2.881836
174.3133, 5.147461
174.7955, 7.234375
175.2776, 9.261719
175.7597, 11.40039
176.2418, 13.40332
176.7239, 15.57520
177.2060, 18.52051
177.6882, 22.15820
178.1703, 26.60059
178.6524, 31.64551
179.1345, 37.22168
179.6166, 43.34180
180.0987, 50.62598
180.5809, 58.53516
181.0630, 64.18848
181.5451, 65.12500
182.0272, 66.31543
182.5093, 69.91016
182.9914, 75.30762
183.4736, 81.30078
183.9557, 87.74707
184.4378, 94.79688
184.9199, 97.57031
185.4020, 91.10742
185.8841, 84.49023
186.3663, 80.77637
186.8484, 79.58691
187.3305, 78.95215
187.8126, 77.01172
188.2947, 73.59570
188.7768, 70.68262
189.2590, 69.16504
189.7411, 67.70020
190.2232, 64.93066
190.7053, 61.41797
191.1874, 59.43848
191.6695, 61.86328
192.1517, 70.95215
192.6338, 74.90625
193.1159, 70.49512
193.5980, 64.21680
194.0801, 60.26465
194.5622, 59.05469
195.0444, 57.73047
195.5265, 52.30957
196.0086, 40.29688
196.4907, 36.15137
196.9728, 46.34961
197.4549, 60.65332
197.9371, 70.48047
198.4192, 74.28223
198.9013, 74.07812
199.3834, 69.96973
199.8655, 62.39746
200.3476, 57.28125
200.8298, 57.04395
201.3119, 59.23730
201.7940, 60.05371
202.2761, 58.33203
202.7582, 57.56348
203.2403, 63.26855
203.7225, 73.90234
204.2046, 82.85645
204.6867, 87.46875
205.1688, 88.73047
205.6509, 88.39062
206.1330, 85.05469
206.6152, 83.02734
207.0973, 86.97754
207.5794, 95.09277
208.0615, 101.3037
208.5436, 100.6689
209.0257, 94.81152
209.5079, 91.73730
209.9900, 94.21582
210.4721, 96.45020
210.9542, 94.41797
211.4363, 89.32812
211.9184, 84.75391
212.4006, 83.65039
212.8827, 85.82324
213.3648, 87.25488
213.8469, 86.63086
214.3290, 86.61035
214.8111, 89.09082
215.2933, 93.19336
215.7754, 96.65039
216.2575, 97.73730
216.7396, 96.46680
217.2217, 93.46875
217.7038, 85.09082
218.1859, 78.32520
218.6681, 76.30371
219.1502, 78.01074
219.6323, 80.16113
220.1144, 79.84180
220.5965, 76.78320
221.0786, 74.86816
221.5608, 75.29102
222.0429, 75.72852
222.5250, 75.87500
223.0071, 75.39258
223.4892, 73.54297
223.9713, 69.28223
224.4535, 61.90234
224.9356, 58.63379
225.4177, 62.77637
225.8998, 67.00879
226.3819, 67.95020
226.8640, 66.02441
227.3462, 63.72754
227.8283, 63.30176
228.3104, 64.96582
228.7925, 64.87012
229.2746, 60.36426
229.7567, 56.71973
230.2389, 57.39453
230.7210, 61.73926
231.2031, 66.45605
231.6852, 69.23145
232.1673, 69.89746
232.6494, 68.25488
233.1316, 60.54102
233.6137, 53.99902
234.0958, 53.40723
234.5779, 58.33496
235.0600, 65.23340
235.5421, 72.63965
236.0243, 79.83984
236.5064, 83.07812
236.9885, 79.45703
237.4706, 74.37695
237.9527, 70.79590
238.4348, 68.77441
238.9170, 67.94336
239.3991, 68.42188
239.8812, 69.90625
240.3633, 71.08008
240.8454, 72.62891
241.3275, 72.99805
241.8097, 69.77637
242.2918, 63.06543
242.7739, 57.55273
243.2560, 56.15137
243.7381, 57.52930
244.2202, 59.11719
244.7024, 61.46289
245.1845, 62.92090
245.6666, 61.28613
246.1487, 56.52246
246.6308, 52.47852
247.1129, 52.51660
247.5951, 53.52539
248.0772, 51.13281
248.5593, 43.44043
249.0414, 35.85547
249.5235, 35.27344
250.0056, 42.39648
250.4878, 47.17578
250.9699, 43.57324
251.4520, 37.38477
251.9341, 33.42188
252.4162, 32.44434
252.8983, 33.66016
253.3805, 37.41309
253.8626, 44.16211
254.3447, 48.49512
254.8268, 46.60059
255.3089, 43.14648
255.7910, 39.96973
256.2732, 37.53418
256.7553, 37.88867
257.2374, 45.50000
257.7195, 62.20312
258.2016, 72.52832
258.6837, 68.22461
259.1659, 60.56055
259.6480, 53.78027
260.1301, 48.79785
260.6122, 45.90820
261.0943, 46.45898
261.5764, 51.39160
262.0586, 53.74414
262.5407, 50.30957
263.0228, 46.33398
263.5049, 43.61914
263.9870, 42.43555
264.4691, 42.54297
264.9513, 44.29199
265.4334, 48.12305
265.9155, 50.07617
266.3976, 48.87109
266.8797, 46.81641
267.3618, 44.32129
267.8440, 41.58887
268.3261, 38.62891
268.8082, 34.59082
269.2903, 29.18555
269.7724, 30.32910
270.2545, 48.72559
270.7367, 63.73340
271.2188, 68.29492
271.7009, 64.79883
272.1830, 59.03711
272.6651, 54.84473
273.1472, 52.19727
273.6294, 51.04297
274.1115, 53.74316
274.5936, 55.53906
275.0757, 54.30762
275.5578, 51.66211
276.0399, 50.48730
276.5221, 52.70703
277.0042, 57.55859
277.4863, 60.49219
277.9684, 61.44434
278.4505, 60.17773
278.9326, 55.04883
279.4148, 48.02051
279.8969, 41.46289
280.3790, 36.47363
280.8611, 32.80273
281.3432, 29.58105
281.8253, 24.37891
282.3075, 22.87500
282.7896, 29.48145
283.2717, 38.22656
283.7538, 42.33887
284.2359, 39.31152
284.7180, 32.21191
285.2002, 27.66113
285.6823, 30.34961
286.1644, 28.98535
286.6465, 18.61230
287.1286, 7.145508
287.6107, 2.407227
288.0929, 6.198242
288.5750, 13.63672
289.0571, 17.41406
289.5392, 16.00000
290.0213, 13.94336
290.5034, 10.12695
290.9856, 6.518555
291.4677, 4.887695
291.9498, 5.317383
292.4319, 6.333008
292.9140, 6.268555
293.3961, 4.741211
293.8783, 3.762695
294.3604, 3.323242
294.8425, 3.301758
295.3246, 4.327148
295.8067, 5.992188
296.2888, 6.344727
296.7710, 3.016602
297.2531, 4.385742
297.7352, 4.968750
298.2173, 7.833008
298.6994, 19.63379
299.1815, 23.88086
299.6637, 21.85742
300.1458, 17.84961
300.6279, 14.25000
301.1100, 11.21777
301.5921, 9.563477
302.0742, 11.28516
302.5564, 11.92578
303.0385, 8.852539
303.5206, 4.061523
304.0027, 1.582031
304.4848, 3.547852
304.9669, 7.736328
305.4491, 8.367188
305.9312, 3.125977
306.4133, 1.727539
306.8954, 6.065430
307.3775, 9.215820
307.8596, 9.812500
308.3418, 7.324219
308.8239, 3.479492
309.3060, 1.319336
309.7881, 1.762695
310.2702, 2.009766
310.7523, 2.419922
311.2345, 2.393555
311.7166, 0.5742190
312.1987, 3.075195
312.6808, 5.950195
313.1629, 4.459961
313.6451, 3.422852
314.1272, 6.889648
314.6093, 4.583008
315.0914, 0.8007810
315.5735, 9.148438
316.0556, 19.50488
316.5378, 28.38379
317.0199, 32.81152
317.5020, 32.60449
317.9841, 31.63379
318.4662, 30.44922
318.9483, 28.28418
319.4305, 23.87207
319.9126, 17.98730
320.3947, 12.82227
320.8768, 9.725586
321.3589, 8.594727
321.8410, 8.612305
322.3232, 10.63281
322.8053, 12.75195
323.2874, 15.35938
323.7695, 17.28613
324.2516, 16.56055
324.7337, 12.43457
325.2159, 6.912109
325.6980, 4.233398
326.1801, 4.910156
326.6622, 6.492188
327.1443, 9.399414
327.6264, 13.28711
328.1086, 18.46777
328.5907, 24.64844
329.0728, 29.63770
329.5549, 30.36523
330.0370, 24.63086
330.5191, 21.87305
331.0013, 24.71973
331.4834, 28.54785
331.9655, 29.88281
332.4476, 28.59570
332.9297, 26.92090
333.4118, 26.82324
333.8940, 28.38379
334.3761, 29.96777
334.8582, 31.95410
335.3403, 33.45312
335.8224, 33.99805
336.3045, 33.89941
336.7867, 33.66895
337.2688, 33.66602
337.7509, 33.83398
338.2330, 33.79492
338.7151, 34.57422
339.1972, 34.04395
339.6793, 30.59277
340.1614, 25.99316
340.6436, 22.18848
341.1257, 19.84473
341.6078, 19.21387
342.0899, 20.71387
342.5720, 25.78809
343.0541, 30.86426
343.5363, 37.34277
344.0184, 42.91211
344.5005, 45.65527
344.9826, 45.33008
345.4647, 42.76660
345.9468, 38.33496
346.4290, 30.57520
346.9111, 27.97754
347.3932, 32.63281
347.8753, 39.23438
348.3574, 47.53809
348.8395, 55.76953
349.3217, 60.22070
349.8038, 57.86523
350.2859, 49.42969
350.7680, 43.64844
351.2501, 41.39453
351.7322, 40.64941
352.2144, 43.12207
352.6965, 46.37207
353.1786, 46.85547
353.6607, 42.90234
354.1428, 36.48828
354.6249, 32.19531
355.1071, 31.49707
355.5892, 30.84863
356.0713, 30.69922
356.5534, 30.37891
357.0355, 29.72070
357.5176, 28.60254
357.9998, 26.55664
358.4819, 22.70117
358.9640, 16.31738
359.4461, 11.49414
359.9282, 9.750000
360.4103, 8.037109
360.8925, 3.594727
361.3746, 2.056641
361.8567, 4.653320
362.3388, 0.6816410
362.8209, 9.030273
363.3030, 17.26270
363.7852, 25.21582
364.2673, 29.48926
364.7494, 26.79199
365.2315, 20.89551
365.7136, 16.08594
366.1957, 14.14648
366.6779, 14.82031
367.1600, 18.13086
367.6421, 25.54395
368.1242, 31.53320
368.6063, 33.80469
369.0884, 35.47754
369.5706, 40.28613
370.0527, 47.96973
370.5348, 53.22461
371.0169, 47.63086
371.4990, 29.85059
371.9811, 21.09180
372.4633, 31.38574
372.9454, 41.40918
373.4275, 42.37207
373.9096, 36.20508
374.3917, 28.14746
374.8738, 20.59082
375.3560, 13.81445
375.8381, 8.755859
376.3202, 5.416992
376.8023, 3.867188
377.2844, 5.894531
377.7665, 8.882813
378.2487, 9.909180
378.7308, 7.895508
379.2129, 4.669922
379.6950, 1.744141
380.1771, 0.9560550
380.6592, 1.589844
381.1414, 2.631836
381.6235, 6.880859
382.1056, 6.238281
382.5877, 0.8740230
383.0698, 3.644531
383.5519, 2.709961
384.0341, 1.690430
384.5162, 3.136719
384.9983, 0.1298830
385.4804, 3.492188
385.9625, 4.500000
386.4446, 3.934570
386.9268, 3.756836
387.4089, 4.404297
387.8910, 5.670898
388.3731, 7.833008
388.8552, 10.78613
389.3373, 12.58984
389.8195, 12.09375
390.3016, 9.950195
390.7837, 7.706055
391.2658, 5.510742
391.7479, 2.884766
392.2300, 0.8046880
392.7122, 5.029297
393.1943, 8.739258
393.6764, 11.62695
394.1585, 14.01367
394.6406, 16.42676
395.1227, 18.87891
395.6049, 19.77051
396.0870, 16.28125
396.5691, 12.92871
397.0512, 14.47461
397.5333, 20.55859
398.0154, 26.60156
398.4976, 29.64258
398.9797, 30.02246
399.4618, 30.06055
399.9439, 30.16602
400.4260, 29.53027
400.9081, 27.04395
401.3903, 23.85547
401.8724, 21.93555
402.3545, 22.00293
402.8366, 23.31934
403.3187, 24.84375
403.8008, 27.87793
404.2830, 28.05762
404.7651, 22.41895
405.2472, 16.40723
405.7293, 14.22363
406.2114, 15.71777
406.6935, 17.84961
407.1757, 17.98926
407.6578, 16.24707
408.1399, 15.57324
408.6220, 17.79688
409.1041, 18.99023
409.5862, 16.50000
410.0684, 13.02930
410.5505, 12.55371
411.0326, 16.80566
411.5147, 23.10645
411.9968, 25.72559
412.4789, 21.51270
412.9611, 20.58984
413.4432, 26.85449
413.9253, 33.31641
414.4074, 35.27734
414.8895, 32.98633
415.3716, 30.03223
415.8538, 29.52734
416.3359, 31.34082
416.8180, 33.24121
417.3001, 36.91992
417.7822, 38.15820
418.2643, 33.28223
418.7465, 26.15039
419.2286, 21.84082
419.7107, 22.68359
420.1928, 27.00879
420.6749, 32.56348
421.1570, 39.59668
421.6392, 44.70898
422.1213, 45.64941
422.6034, 45.54883
423.0855, 47.14648
423.5676, 50.36426
424.0497, 53.04102
424.5319, 53.56641
425.0140, 52.51172
425.4961, 51.26270
425.9782, 49.78223
426.4603, 48.46973
426.9424, 47.50781
427.4246, 46.93262
427.9067, 46.90527
428.3888, 47.32520
428.8709, 48.43750
429.3530, 50.86914
429.8351, 54.30371
430.3173, 57.57129
430.7994, 60.43848
431.2815, 62.64648
431.7636, 63.26074
432.2457, 62.04590
432.7278, 61.66699
433.2100, 64.86816
433.6921, 68.05176
434.1742, 66.20117
434.6563, 59.34277
435.1384, 53.43262
435.6205, 53.98633
436.1027, 60.35449
436.5848, 60.86328
437.0669, 47.69434
437.5490, 38.59863
438.0311, 43.64746
438.5132, 55.29199
438.9954, 61.56055
439.4775, 57.83203
439.9596, 48.94824
440.4417, 43.26562
440.9238, 41.69141
441.4059, 41.56250
441.8881, 41.90332
442.3702, 44.30957
442.8523, 51.30078
443.3344, 61.20020
443.8165, 69.61133
444.2986, 73.12891
444.7808, 72.35742
445.2629, 71.40332
445.7450, 69.93457
446.2271, 68.43262
446.7092, 66.75977
447.1913, 65.15723
447.6735, 64.37695
448.1556, 64.59668
448.6377, 64.41113
449.1198, 61.18945
449.6019, 54.71777
450.0840, 51.52441
450.5662, 55.67969
451.0483, 58.81152
451.5304, 54.30957
452.0125, 45.37207
452.4946, 39.94727
452.9767, 43.71484
453.4589, 50.90039
453.9410, 51.49902
454.4231, 44.98047
454.9052, 39.61230
455.3873, 38.82324
455.8694, 40.82422
456.3516, 43.12305
456.8337, 45.83105
457.3158, 48.10840
457.7979, 47.84375
458.2800, 47.38770
458.7621, 52.23145
459.2443, 63.54395
459.7264, 74.10547
460.2085, 77.81445
460.6906, 74.95508
461.1727, 72.26270
461.6548, 68.91113
462.1370, 66.62500
462.6191, 66.10352
463.1012, 66.89648
463.5833, 68.65430
464.0654, 71.29297
464.5475, 73.89844
465.0297, 74.83105
465.5118, 73.16797
465.9939, 72.05176
466.4760, 71.91016
466.9581, 71.50293
467.4402, 69.86426
467.9224, 67.23145
468.4045, 64.42383
468.8866, 61.87402
469.3687, 60.19043
469.8508, 61.19238
470.3329, 71.18066
470.8151, 73.88965
471.2972, 60.91309
471.7793, 44.95703
472.2614, 36.67969
472.7435, 37.85059
473.2256, 42.58008
473.7078, 45.92773
474.1899, 47.88672
474.6720, 48.04492
475.1541, 46.04980
475.6362, 42.55469
476.1183, 35.50000
476.6005, 27.73145
477.0826, 24.01758
477.5647, 26.51270
478.0468, 31.67871
478.5289, 36.67871
479.0110, 41.30176
479.4932, 43.43066
479.9753, 41.42578
480.4574, 38.37695
480.9395, 38.95215
481.4216, 42.67188
481.9037, 43.26660
482.3859, 35.58398
482.8680, 26.64844
483.3501, 24.05957
483.8322, 27.22949
484.3143, 30.02637
484.7964, 29.20020
485.2786, 25.76465
485.7607, 22.50879
486.2428, 19.46582
486.7249, 17.33398
487.2070, 15.42578
487.6891, 14.69727
488.1713, 16.13379
488.6534, 19.63965
489.1355, 24.14941
489.6176, 28.68945
490.0997, 33.21191
490.5818, 36.90234
491.0640, 38.21094
491.5461, 40.09180
492.0282, 44.73926
492.5103, 48.80469
492.9924, 47.61914
493.4745, 40.08008
493.9567, 31.62598
494.4388, 30.36328
494.9209, 37.25488
495.4030, 39.80566
495.8851, 33.90723
496.3672, 28.53125
496.8494, 29.09277
497.3315, 33.25977
497.8136, 36.26855
498.2957, 35.91602
498.7778, 34.44922
499.2599, 35.46973
499.7421, 38.72559
500.2242, 39.31250
500.7063, 34.77930
501.1884, 28.28711
501.6705, 22.64062
502.1526, 17.68066
502.6348, 16.37598
503.1169, 21.10938
503.5990, 28.51172
504.0811, 36.58691
504.5632, 44.68848
505.0453, 50.67676
505.5274, 53.29492
506.0096, 53.06738
506.4917, 51.51172
506.9738, 46.37988
507.4559, 43.61719
507.9380, 45.90332
508.4201, 49.01465
508.9023, 48.97949
509.3844, 45.91699
509.8665, 42.74121
510.3486, 41.83008
510.8307, 42.95898
511.3128, 44.20996
511.7950, 46.49414
512.2771, 47.49219
512.7592, 46.25586
513.2413, 44.13965
513.7234, 42.12988
514.2056, 40.53711
514.6877, 39.67383
515.1698, 40.92969
515.6519, 43.78418
516.1340, 43.06055
516.6161, 37.14160
517.0983, 30.66016
517.5804, 26.72363
518.0625, 23.73828
518.5446, 18.58691
519.0267, 8.911133
519.5089, 1.552734
519.9910, 4.042969
520.4731, 12.75977
520.9552, 17.71289
521.4373, 16.51855
521.9194, 12.21582
522.4016, 6.489258
522.8837, 0.5800780
523.3658, 2.579102
523.8479, 5.768555
524.3300, 13.52539
524.8121, 15.99023
525.2943, 14.41895
525.7764, 9.643555
526.2585, 2.192383
526.7406, 3.506836
527.2227, 0.6904300
527.7048, 19.97266
528.1870, 30.50488
528.6691, 24.64453
529.1512, 18.29199
529.6333, 18.24805
530.1154, 21.90234
530.5975, 23.71484
531.0797, 20.86621
531.5618, 16.28516
532.0439, 15.65332
532.5260, 19.83887
533.0081, 21.04199
533.4902, 15.90332
533.9724, 9.824219
534.4545, 6.590820
534.9366, 5.705078
535.4187, 5.298828
535.9008, 4.818359
536.3829, 4.287109
536.8651, 3.631836
537.3472, 2.884766
537.8293, 2.505859
538.3114, 2.713867
538.7935, 3.239258
539.2756, 3.551758
539.7578, 3.221680
540.2399, 4.478516
540.7220, 10.41309
541.2041, 15.47656
541.6862, 15.61719
542.1683, 11.64746
542.6505, 6.207031
543.1326, 0.6152340
543.6147, 4.729492
544.0968, 9.071289
544.5789, 13.59863
545.0610, 14.42773
545.5432, 7.988281
546.0253, 1.293945
546.5074, 2.535156
546.9895, 3.340820
547.4716, 1.213867
547.9537, 4.844727
548.4359, 11.85938
548.9180, 12.39941
549.4001, 5.364258
549.8822, 0.5400390
550.3643, 2.974609
550.8464, 3.225586
551.3286, 1.632813
551.8107, 1.482422
552.2928, 2.259766
552.7749, 2.847656
553.2570, 9.622070
553.7391, 13.50293
554.2213, 14.67188
554.7034, 14.90820
555.1855, 14.71289
555.6676, 14.68359
556.1497, 16.07715
556.6318, 19.82617
557.1140, 22.88086
557.5961, 26.32617
558.0782, 28.10645
558.5603, 25.30762
559.0424, 19.63965
559.5245, 15.99316
560.0067, 17.36621
560.4888, 21.02734
560.9709, 19.46484
561.4530, 9.802734
561.9351, 3.247070
562.4172, 2.951172
562.8994, 4.520508
563.3815, 6.731445
563.8636, 9.122070
564.3457, 10.92969
564.8278, 11.77637
565.3099, 11.86426
565.7921, 11.12891
566.2742, 9.597656
566.7563, 8.780273
567.2384, 9.448242
567.7205, 10.54590
568.2026, 9.723633
568.6848, 6.909180
569.1669, 7.875977
569.6490, 18.93945
570.1311, 29.11035
570.6132, 29.08789
571.0953, 22.20215
571.5775, 17.67480
572.0596, 19.52246
572.5417, 23.84863
573.0238, 23.63477
573.5059, 16.51660
573.9880, 11.98633
574.4702, 10.38281
574.9523, 10.91113
575.4344, 15.17871
575.9165, 20.93457
576.3986, 24.38184
576.8807, 23.78223
577.3629, 21.25586
577.8450, 19.89551
578.3271, 19.73047
578.8092, 19.23926
579.2913, 18.21680
579.7734, 16.87402
580.2556, 14.24023
580.7377, 11.29883
581.2198, 10.78418
581.7019, 15.55762
582.1840, 20.41602
582.6661, 21.10449
583.1483, 19.81152
583.6304, 20.85645
584.1125, 25.25391
584.5946, 31.20703
585.0767, 37.66699
585.5588, 44.57324
586.0409, 51.04492
586.5230, 59.77051
587.0051, 64.89453
587.4872, 62.22949
587.9694, 56.85059
588.4515, 54.38281
588.9336, 55.90039
589.4157, 58.41406
589.8978, 58.60352
590.3799, 56.91699
590.8621, 57.10840
591.3442, 60.08789
591.8263, 62.62207
592.3084, 63.00781
592.7905, 62.33691
593.2726, 61.94043
593.7548, 62.03125
594.2369, 61.34082
594.7190, 58.62305
595.2011, 55.02832
595.6832, 52.28711
596.1653, 50.50781
596.6475, 48.45215
597.1296, 45.05469
597.6117, 41.71191
598.0938, 42.56934
598.5759, 53.69824
599.0580, 59.54688
599.5402, 58.07520
600.0223, 53.31836
600.5044, 45.42871
600.9865, 36.54102
601.4686, 30.08203
601.9507, 28.36621
602.4329, 29.83203
602.9150, 32.00879
603.3971, 35.60254
603.8792, 38.50391
604.3613, 39.85156
604.8434, 40.08496
605.3256, 39.37402
605.8077, 37.61426
606.2898, 35.91113
606.7719, 35.15039
607.2540, 34.09766
607.7361, 29.51074
608.2183, 23.52441
608.7004, 21.99219
609.1825, 26.52734
609.6646, 31.83984
610.1467, 32.12695
610.6288, 27.30664
611.1110, 25.11328
611.5931, 29.06152
612.0752, 31.05859
612.5573, 27.09180
613.0394, 21.53027
613.5215, 19.88477
614.0037, 22.70117
614.4858, 25.17969
614.9679, 21.74902
615.4500, 13.92773
615.9321, 10.57227
616.4142, 12.47656
616.8964, 16.31445
617.3785, 24.30664
617.8606, 31.07422
618.3427, 28.54785
618.8248, 15.68262
619.3069, 6.237305
619.7891, 7.768555
620.2712, 13.27734
620.7533, 16.86816
621.2354, 18.10742
621.7175, 16.31836
622.1996, 10.81348
622.6818, 4.894531
623.1639, 5.226563
623.6460, 15.23242
624.1281, 21.41406
624.6102, 21.60254
625.0923, 20.73438
625.5745, 20.01367
626.0566, 19.79492
626.5387, 20.63184
627.0208, 22.81348
627.5029, 24.95898
627.9850, 25.38672
628.4672, 24.24512
628.9493, 22.27637
629.4314, 19.14160
629.9135, 16.42969
630.3956, 15.74121
630.8777, 15.98633
631.3599, 13.82031
631.8420, 6.732422
632.3241, 2.828125
632.8062, 7.265625
633.2883, 14.27539
633.7704, 18.10840
634.2526, 18.60938
634.7347, 18.39551
635.2168, 19.02832
635.6989, 20.32324
636.1810, 22.17383
636.6631, 26.06445
637.1453, 26.75293
637.6274, 19.25977
638.1095, 12.56152
638.5916, 12.21289
639.0737, 16.07227
639.5558, 18.39648
640.0380, 16.42773
640.5201, 13.47949
641.0022, 13.13379
641.4843, 14.65820
641.9664, 15.30762
642.4485, 14.49805
642.9307, 13.56250
643.4128, 13.75000
643.8949, 14.81836
644.3770, 14.81836
644.8591, 13.61230
645.3412, 11.68457
645.8234, 5.852539
646.3055, 1.579102
646.7876, 6.396484
647.2697, 18.32617
647.7518, 27.44238
648.2339, 26.19336
648.7161, 18.29980
649.1982, 13.11523
649.6803, 10.88770
650.1624, 10.13672
650.6445, 11.68652
651.1266, 13.23047
651.6088, 12.20117
652.0909, 9.349609
652.5730, 7.829102
653.0551, 10.17383
653.5372, 11.97363
654.0193, 9.694336
654.5015, 5.356445
654.9836, 2.625000
655.4657, 2.208008
655.9478, 1.886719
656.4299, 0.6591800
656.9120, 4.925781
657.3942, 5.900391
657.8763, 0.9238280
658.3584, 3.053711
658.8405, 4.082031
659.3226, 4.621094
659.8047, 7.013672
660.2869, 10.81445
660.7690, 13.38086
661.2511, 13.00684
661.7332, 10.93066
662.2153, 9.349609
662.6974, 7.757813
663.1796, 1.640625
663.6617, 11.72656
664.1438, 22.96680
664.6259, 20.99414
665.1080, 5.607422
665.5901, 4.250977
666.0723, 5.219727
666.5544, 5.585938
667.0365, 7.000000
667.5186, 8.981445
668.0007, 11.30273
668.4828, 13.72656
668.9650, 15.78516
669.4471, 17.49023
669.9292, 18.22070
670.4113, 15.20312
670.8934, 7.728516
671.3755, 3.003906
671.8577, 3.969727
672.3398, 7.086914
672.8219, 9.258789
673.3040, 10.52734
673.7861, 11.15723
674.2682, 10.49121
674.7504, 9.980469
675.2325, 10.05469
675.7146, 10.80371
676.1967, 12.87988
676.6788, 16.09961
677.1609, 18.75684
677.6431, 19.18945
678.1252, 17.96875
678.6073, 18.50488
679.0894, 22.19238
679.5715, 24.15527
680.0536, 20.48730
680.5358, 17.21973
681.0179, 20.12500
681.5000, 27.54102
681.9821, 31.48242
682.4642, 26.23047
682.9464, 19.84863
683.4285, 18.85449
683.9106, 21.69238
684.3927, 25.70020
684.8748, 30.06934
685.3569, 31.95215
685.8391, 28.05078
686.3212, 19.46875
686.8033, 16.04883
687.2854, 21.44629
687.7675, 26.20508
688.2496, 32.00098
688.7318, 34.71973
689.2139, 28.75586
689.6960, 16.93652
690.1781, 8.781250
690.6602, 10.02539
691.1423, 14.67969
691.6245, 15.97754
692.1066, 14.72949
692.5887, 14.06055
693.0708, 14.71094
693.5529, 15.18066
694.0350, 13.83496
694.5172, 11.32520
694.9993, 11.20020
695.4814, 17.81152
695.9635, 20.80566
696.4456, 16.57617
696.9277, 11.19238
697.4099, 8.431641
697.8920, 8.253906
698.3741, 9.498047
698.8562, 11.94043
699.3383, 13.98242
699.8204, 11.87207
700.3026, 6.550781
700.7847, 5.976563
701.2668, 12.08398
701.7489, 18.93848
702.2310, 22.48633
702.7131, 23.53711
703.1953, 25.04102
703.6774, 26.92480
704.1595, 29.16992
704.6416, 32.48047
705.1237, 35.65332
705.6058, 37.14258
706.0880, 37.83105
706.5701, 39.99219
707.0522, 44.78516
707.5343, 50.44824
708.0164, 54.90234
708.4985, 58.20508
708.9807, 58.94336
709.4628, 55.67578
709.9449, 54.26758
710.4270, 59.39648
710.9091, 67.71582
711.3912, 72.30273
711.8734, 72.79492
712.3555, 71.81250
712.8376, 67.63184
713.3197, 64.05664
713.8018, 63.60352
714.2839, 65.58984
714.7661, 68.49805
715.2482, 71.98535
715.7303, 75.92969
716.2124, 81.14453
716.6945, 87.16602
717.1766, 84.20508
717.6588, 67.56055
718.1409, 57.97168
718.6230, 68.63965
719.1051, 86.51758
719.5872, 94.03613
720.0693, 90.99707
720.5515, 87.29980
721.0336, 83.18457
721.5157, 80.09766
721.9978, 81.68457
722.4799, 85.11328
722.9620, 84.38770
723.4442, 77.72754
723.9263, 70.81348
724.4084, 69.60938
724.8905, 72.83203
725.3726, 73.58984
725.8547, 71.20215
726.3369, 69.15039
726.8190, 68.85742
727.3011, 68.56348
727.7832, 66.04688
728.2653, 61.91504
728.7474, 59.29688
729.2296, 59.88184
729.7117, 60.71875
730.1938, 60.13672
730.6759, 59.41504
731.1580, 60.95605
731.6401, 64.30859
732.1223, 65.85840
732.6044, 62.84277
733.0865, 57.52441
733.5686, 55.97656
734.0507, 59.03223
734.5328, 59.62402
735.0150, 55.69043
735.4971, 51.20312
735.9792, 48.09180
736.4613, 46.25977
736.9434, 45.92285
737.4255, 47.98828
737.9077, 48.95508
738.3898, 45.88086
738.8719, 42.56152
739.3540, 43.81445
739.8361, 47.60645
740.3182, 47.23340
740.8004, 39.74023
741.2825, 30.53418
741.7646, 28.13672
742.2467, 32.59375
742.7288, 34.60547
743.2109, 33.43457
743.6931, 32.15430
744.1752, 32.45996
744.6573, 33.06543
745.1394, 32.42383
745.6215, 30.61523
746.1036, 27.53613
746.5858, 21.32812
747.0679, 15.79980
747.5500, 11.96777
748.0321, 10.70117
748.5142, 14.67285
748.9963, 23.39258
749.4785, 30.87695
749.9606, 31.29980
750.4427, 26.82910
750.9248, 25.35156
751.4069, 27.38867
751.8890, 27.07910
752.3712, 21.41992
752.8533, 16.09277
753.3354, 17.99219
753.8175, 25.19043
754.2996, 26.32715
754.7817, 14.61914
755.2639, 6.194336
755.7460, 7.201172
756.2281, 11.37402
756.7102, 14.33594
757.1923, 15.45117
757.6744, 14.80078
758.1566, 12.25098
758.6387, 9.561523
759.1208, 9.852539
759.6029, 12.54297
760.0850, 12.78711
760.5671, 9.316406
761.0493, 8.993164
761.5314, 17.51465
762.0135, 28.99023
762.4956, 31.31836
762.9777, 20.96777
763.4598, 13.75879
763.9420, 12.92188
764.4241, 12.10840
764.9062, 8.059570
765.3883, 2.963867
765.8704, 0.2890630
766.3525, 1.213867
766.8347, 1.391602
767.3168, 1.786133
767.7989, 2.283203
768.2810, 2.425781
768.7631, 2.375977
769.2452, 3.799805
769.7274, 7.422852
770.2095, 11.03174
770.6916, 12.69385
771.1737, 12.51270
771.6558, 10.99609
772.1379, 7.229980
772.6201, 3.556152
773.1022, 0.2626950
773.5843, 3.554688
774.0664, 5.687012
774.5485, 6.989746
775.0306, 8.444824
775.5128, 10.61963
775.9949, 11.86914
776.4770, 9.124023
776.9591, 5.310059
777.4412, 6.446289
777.9233, 12.16846
778.4055, 17.65039
778.8876, 20.79297
779.3697, 21.39990
779.8518, 18.42822
780.3339, 11.12207
780.8160, 7.778320
781.2982, 11.18945
781.7803, 14.02783
782.2624, 13.28857
782.7445, 11.69482
783.2266, 11.90039
783.7087, 13.75781
784.1909, 14.82422
784.6730, 13.41748
785.1551, 11.87939
785.6372, 10.91455
786.1193, 11.16211
786.6014, 14.81006
787.0836, 21.21533
787.5657, 25.78271
788.0478, 25.12354
788.5299, 21.65332
789.0120, 21.42969
789.4941, 24.94482
789.9763, 25.36816
790.4584, 20.29346
790.9405, 16.51416
791.4226, 19.98096
791.9047, 26.28271
792.3868, 25.04590
792.8690, 13.10693
793.3511, 7.137695
793.8332, 13.87402
794.3153, 22.55615
794.7974, 29.17041
795.2795, 33.26416
795.7617, 33.82959
796.2438, 31.22314
796.7259, 28.75537
797.2080, 30.00977
797.6901, 32.45312
798.1722, 29.97168
798.6544, 23.25488
799.1365, 18.59668
799.6186, 17.48389
800.1007, 18.03418
800.5828, 18.73926
801.0649, 19.66602
801.5471, 21.45215
802.0292, 25.97314
802.5113, 27.93262
802.9934, 24.08203
803.4755, 21.08008
803.9576, 23.66992
804.4398, 28.76758
804.9219, 29.95020
805.4040, 25.17188
805.8861, 24.04980
806.3682, 37.68262
806.8503, 54.35449
807.3325, 59.86182
807.8146, 56.53564
808.2967, 52.30518
808.7788, 49.84033
809.2609, 48.06201
809.7430, 45.93848
810.2252, 43.44434
810.7073, 39.83496
811.1894, 34.27783
811.6715, 31.79541
812.1536, 36.19238
812.6357, 39.79150
813.1179, 34.76172
813.6000, 24.26367
814.0821, 17.75977
814.5642, 17.49072
815.0463, 17.52637
815.5284, 15.42139
816.0106, 14.16992
816.4927, 16.65381
816.9748, 21.42773
817.4569, 26.22314
817.9390, 30.09326
818.4211, 31.42334
818.9033, 26.25635
819.3854, 18.15283
819.8675, 16.02637
820.3496, 19.42041
820.8317, 24.41846
821.3138, 30.38672
821.7960, 33.53125
822.2781, 28.86279
822.7602, 17.83838
823.2423, 13.84033
823.7244, 21.75146
824.2065, 27.46973
824.6887, 27.85352
825.1708, 27.89941
825.6529, 31.53223
826.1350, 36.28516
826.6171, 37.07812
827.0992, 31.76807
827.5814, 27.89941
828.0635, 31.33252
828.5456, 36.32666
829.0277, 37.74561
829.5098, 36.38086
829.9919, 33.92383
830.4741, 31.17480
830.9562, 30.34766
831.4383, 34.08398
831.9204, 40.62207
832.4025, 44.28320
832.8846, 44.90625
833.3668, 42.90283
833.8489, 36.99316
834.3310, 32.61621
834.8131, 35.10010
835.2952, 42.21094
835.7773, 45.16797
836.2595, 42.14404
836.7416, 38.12500
837.2237, 30.86133
837.7058, 25.29639
838.1879, 25.11523
838.6700, 27.64355
839.1522, 28.17578
839.6343, 26.05762
840.1164, 25.97998
840.5985, 33.46924
841.0806, 41.69531
841.5627, 42.80615
842.0449, 39.41016
842.5270, 37.39990
843.0091, 37.86133
843.4912, 37.97656
843.9733, 35.30664
844.4554, 31.68848
844.9376, 33.25098
845.4197, 40.90576
845.9018, 41.54395
846.3839, 30.60156
846.8660, 22.51660
847.3481, 27.73389
847.8303, 38.03223
848.3124, 37.83496
848.7945, 23.86035
849.2766, 17.59180
849.7587, 29.15479
850.2408, 37.20996
850.7230, 29.83984
851.2051, 18.96240
851.6872, 17.82764
852.1693, 25.63916
852.6514, 31.59814
853.1335, 29.91309
853.6157, 26.33398
854.0978, 26.49316
854.5799, 27.53223
855.0620, 22.95850
855.5441, 13.85938
856.0262, 9.426270
856.5084, 14.27734
856.9905, 22.28760
857.4726, 23.94141
857.9547, 19.39355
858.4368, 15.82666
858.9189, 12.65576
859.4011, 13.16846
859.8832, 21.02295
860.3653, 28.83643
860.8474, 28.47949
861.3295, 20.98242
861.8116, 16.10986
862.2938, 15.15088
862.7759, 14.97607
863.2580, 14.56982
863.7401, 15.59326
864.2222, 21.84473
864.7043, 29.38867
865.1865, 30.28223
865.6686, 22.46338
866.1507, 15.27246
866.6328, 15.70654
867.1149, 19.46436
867.5970, 22.62500
868.0792, 24.70557
868.5613, 24.06201
869.0434, 20.71387
869.5255, 17.94385
870.0076, 18.49268
870.4897, 21.02295
870.9719, 22.06104
871.4540, 21.49658
871.9361, 20.60742
872.4182, 19.54297
872.9003, 18.03809
873.3824, 15.50146
873.8646, 12.90234
874.3467, 12.01660
874.8288, 13.28125
875.3109, 14.43604
875.7930, 15.39697
876.2751, 16.38428
876.7573, 18.11279
877.2394, 19.37158
877.7215, 19.16748
878.2036, 17.68604
878.6857, 15.59180
879.1678, 13.05811
879.6500, 10.18457
880.1321, 5.693848
880.6142, 1.861816
881.0963, 2.724609
881.5784, 6.430176
882.0605, 6.423828
882.5427, 0.9111330
883.0248, 2.923340
883.5069, 3.927246
883.9890, 16.92822
884.4711, 22.45703
884.9532, 20.85156
885.4354, 17.97900
885.9175, 14.75732
886.3996, 12.33936
886.8817, 11.73438
887.3638, 12.37256
887.8459, 12.78711
888.3281, 12.93359
888.8102, 12.71924
889.2923, 10.37598
889.7744, 10.03320
890.2565, 16.06250
890.7386, 22.68359
891.2208, 22.86914
891.7029, 17.11182
892.1850, 14.10840
892.6671, 18.47070
893.1492, 22.29199
893.6313, 24.15967
894.1135, 23.19092
894.5956, 16.75000
895.0777, 7.188477
895.5598, 0.1406250
896.0419, 3.215820
896.5240, 4.625488
897.0062, 6.888184
897.4883, 8.749023
897.9704, 7.821289
898.4525, 4.715332
898.9346, 1.573242
899.4167, 0.9897460
899.8989, 3.075195
900.3810, 4.795410
900.8631, 5.896973
901.3452, 4.812500
901.8273, 0.9741210
902.3094, 2.497559
902.7916, 12.58496
903.2737, 18.21240
903.7558, 10.55713
904.2379, 1.492188
904.7200, 3.834961
905.2021, 4.955566
905.6843, 9.447754
906.1664, 5.586426
906.6485, 3.135742
907.1306, 5.029297
907.6127, 7.410645
908.0948, 6.864746
908.5770, 4.806152
909.0591, 5.613770
909.5412, 11.77344
910.0233, 14.44141
910.5054, 4.860840
910.9875, 4.904785
911.4697, 4.220215
911.9518, 2.360840
912.4339, 7.560059
912.9160, 9.517090
913.3981, 8.630859
913.8802, 3.961914
914.3624, 0.4077150
914.8445, 2.619629
915.3265, 10.33447
915.8087, 15.38232
916.2908, 17.08936
916.7729, 17.14502
917.2550, 16.23584
917.7371, 15.86621
918.2192, 18.49805
918.7014, 23.62451
919.1835, 25.70312
919.6656, 24.24951
920.1477, 21.83887
920.6298, 17.75098
921.1119, 15.75732
921.5941, 20.47217
922.0762, 28.54395
922.5583, 29.09180
923.0404, 15.96533
923.5225, 10.87158
924.0046, 22.75830
924.4868, 31.18750
924.9689, 25.93750
925.4510, 17.39209
925.9331, 17.31494
926.4152, 24.56299
926.8973, 27.58057
927.3795, 20.17920
927.8616, 13.44678
928.3437, 14.28174
928.8258, 16.05664
929.3079, 10.31689
929.7900, 2.162109
930.2722, 3.354004
930.7543, 15.71729
931.2364, 25.62744
931.7185, 20.85840
932.2006, 10.95068
932.6827, 8.372559
933.1649, 10.83057
933.6470, 14.68213
934.1291, 19.06250
934.6112, 21.92188
935.0933, 21.66699
935.5754, 18.61230
936.0576, 11.56836
936.5397, 1.778809
937.0218, 4.384766
937.5039, 20.56396
937.9860, 29.05957
938.4681, 22.36572
938.9503, 12.94531
939.4324, 11.81494
939.9145, 16.90137
940.3966, 20.15820
940.8787, 20.88623
941.3608, 21.90137
941.8430, 22.54688
942.3251, 23.24805
942.8072, 24.26025
943.2893, 25.18018
943.7714, 25.20703
944.2535, 24.40918
944.7357, 24.61182
945.2178, 28.99268
945.6999, 30.06348
946.1820, 21.05322
946.6641, 13.41748
947.1462, 16.74219
947.6284, 26.08984
948.1105, 32.63330
948.5926, 34.46973
949.0747, 34.41943
949.5568, 32.98291
950.0389, 31.10791
950.5211, 29.36914
951.0032, 27.79150
951.4853, 26.68066
951.9674, 25.68701
952.4495, 22.99219
952.9316, 17.58203
953.4138, 13.95459
953.8959, 19.38672
954.3780, 28.58545
954.8601, 30.75928
955.3422, 27.31787
955.8243, 24.29150
956.3065, 23.31592
956.7886, 23.53076
957.2707, 24.14648
957.7528, 25.25781
958.2349, 28.26465
958.7170, 32.84326
959.1992, 31.27930
959.6813, 22.36328
960.1634, 17.59033
960.6455, 22.16846
961.1276, 28.53955
961.6097, 28.23535
962.0919, 22.39453
962.5740, 19.78418
963.0561, 22.75684
963.5382, 22.86572
964.0203, 17.04102
964.5024, 12.62451
964.9846, 14.08203
965.4667, 18.23779
965.9488, 20.57129
966.4309, 20.93262
966.9130, 21.58447
967.3951, 23.90332
967.8773, 24.58301
968.3594, 21.28467
968.8415, 17.67334
969.3236, 15.90088
969.8057, 16.30127
970.2878, 19.18213
970.7700, 24.86182
971.2521, 29.14600
971.7342, 31.23145
972.2163, 30.88574
972.6984, 25.29150
973.1805, 19.38379
973.6627, 19.25732
974.1448, 23.27588
974.6269, 25.34619
975.1090, 23.14209
975.5911, 20.35107
976.0732, 20.45996
976.5554, 20.59180
977.0375, 16.54688
977.5196, 10.60010
978.0017, 7.348145
978.4838, 7.165039
978.9659, 7.178711
979.4481, 5.789063
979.9302, 3.943359
980.4123, 2.479004
980.8944, 1.551270
981.3765, 1.986816
981.8586, 3.544922
982.3408, 4.839844
982.8229, 5.496094
983.3050, 5.409180
983.7871, 4.491211
984.2692, 3.232422
984.7513, 2.757813
985.2335, 3.009277
985.7156, 3.667480
986.1977, 4.903809
986.6798, 2.584961
987.1619, 5.812500
987.6440, 12.67627
988.1262, 9.055664
988.6083, 2.169434
989.0904, 6.070313
989.5725, 0.3935550
990.0546, 2.475586
990.5367, 0.3374020
991.0189, 0.7817380
991.5010, 3.215820
991.9831, 7.435547
992.4652, 5.009277
992.9473, 3.654297
993.4294, 8.959473
993.9116, 8.526367
994.3937, 9.068848
994.8758, 13.75732
995.3579, 16.47363
995.8400, 11.43701
996.3221, 4.169434
996.8043, 3.488281
997.2864, 9.884766
997.7685, 11.80713
998.2506, 2.480957
998.7327, 3.195801
999.2148, 0.7182620
999.6970, 6.264160
1000.179, 8.537109
1000.661, 8.884277
1001.143, 10.45752
1001.625, 13.74609
1002.108, 14.99658
1002.590, 10.80566
1003.072, 7.052246
1003.554, 6.742188
1004.036, 7.738281
1004.518, 8.347168
1005.000, 8.601074
1005.482, 8.457031
1005.964, 7.898926
1006.447, 9.386230
1006.929, 18.20068
1007.411, 25.52783
1007.893, 22.64062
1008.375, 15.29004
1008.857, 10.43115
1009.339, 8.495605
1009.821, 7.257324
1010.304, 5.852539
1010.786, 5.426758
1011.268, 7.418945
1011.750, 10.58594
1012.232, 14.58740
1012.714, 17.97070
1013.196, 16.44482
1013.678, 11.01709
1014.160, 8.540039
1014.643, 12.30029
1015.125, 17.41064
1015.607, 18.38721
1016.089, 16.55615
1016.571, 13.44873
1017.053, 10.14111
1017.535, 11.23584
1018.017, 16.97900
1018.500, 23.33154
1018.982, 28.08398
1019.464, 30.38770
1019.946, 27.20654
1020.428, 20.68896
1020.910, 22.22510
1021.392, 30.62891
1021.874, 33.76855
1022.356, 29.30615
1022.839, 23.66162
1023.321, 20.81055
1023.803, 19.05859
1024.285, 14.74658
1024.767, 8.456543
1025.249, 8.604492
1025.731, 15.67480
1026.213, 20.19385
1026.696, 19.82812
1027.178, 19.11719
1027.660, 21.28320
1028.142, 24.52246
1028.624, 24.99072
1029.106, 22.50781
1029.588, 20.99854
1030.070, 20.18457
1030.552, 22.02783
1031.035, 28.64746
1031.517, 32.40918
1031.999, 26.50635
1032.481, 16.24219
1032.963, 13.61230
1033.445, 19.72021
1033.927, 24.13330
1034.409, 26.97119
1034.891, 27.31641
1035.374, 22.45312
1035.856, 19.76855
1036.338, 26.24951
1036.820, 37.07520
1037.302, 41.18359
1037.784, 37.33398
1038.266, 33.75635
1038.748, 30.96094
1039.231, 27.39014
1039.713, 20.50049
1040.195, 15.76904
1040.677, 19.15137
1041.159, 26.30078
1041.641, 27.25000
1042.123, 19.91699
1042.605, 16.28320
1043.088, 20.09082
1043.570, 22.25684
1044.052, 19.95801
1044.534, 17.21094
1045.016, 16.12305
1045.498, 15.53174
1045.980, 13.04102
1046.462, 8.255371
1046.944, 6.159180
1047.427, 8.651367
1047.909, 11.22266
1048.391, 15.07910
1048.873, 17.33350
1049.355, 13.51953
1049.837, 7.815918
1050.319, 8.450195
1050.801, 17.04150
1051.283, 21.61035
1051.766, 17.59863
1052.248, 13.12207
1052.730, 8.048828
1053.212, 5.526855
1053.694, 9.471680
1054.176, 16.23633
1054.658, 19.21387
1055.140, 17.65088
1055.623, 16.60205
1056.105, 15.58496
1056.587, 16.62695
1057.069, 24.88184
1057.551, 31.60645
1058.033, 28.40088
1058.515, 20.79688
1058.997, 17.76416
1059.479, 20.56348
1059.962, 24.93213
1060.444, 32.54102
1060.926, 37.73535
1061.408, 36.54199
1061.890, 34.73633
1062.372, 36.83936
1062.854, 40.42236
1063.336, 41.34131
1063.818, 39.05664
1064.301, 34.95557
1064.783, 26.52930
1065.265, 20.83643
1065.747, 22.58643
1066.229, 26.19678
1066.711, 29.33887
1067.193, 30.98535
1067.675, 29.24756
1068.158, 24.70361
1068.640, 21.43262
1069.122, 21.00000
1069.604, 21.56396
1070.086, 23.37305
1070.568, 24.60596
1071.050, 23.36328
1071.532, 21.50586
1072.015, 22.13428
1072.497, 24.67725
1072.979, 24.86230
1073.461, 19.58496
1073.943, 17.14600
1074.425, 24.83203
1074.907, 32.63184
1075.389, 33.62549
1075.871, 31.26514
1076.354, 30.04297
1076.836, 29.67041
1077.318, 26.77783
1077.800, 19.60645
1078.282, 14.19434
1078.764, 16.09668
1079.246, 17.46533
1079.728, 10.21289
1080.210, 2.536133
1080.693, 5.707031
1081.175, 15.80225
1081.657, 19.46729
1082.139, 12.56396
1082.621, 8.585449
1083.103, 17.41748
1083.585, 25.79297
1084.067, 25.58154
1084.549, 22.35400
1085.032, 21.20410
1085.514, 21.51904
1085.996, 20.49854
1086.478, 17.61572
1086.960, 16.24414
1087.442, 19.18848
1087.924, 22.11133
1088.406, 23.27295
1088.889, 23.32422
1089.371, 22.21436
1089.853, 20.63965
1090.335, 19.49609
1090.817, 18.96094
1091.299, 18.86377
1091.781, 19.58057
1092.263, 19.85400
1092.745, 19.11670
1093.228, 17.80420
1093.710, 15.61133
1094.192, 13.39795
1094.674, 12.09521
1095.156, 11.85986
1095.638, 13.06396
1096.120, 17.61719
1096.602, 19.03857
1097.084, 10.95410
1097.567, 3.904297
1098.049, 5.862305
1098.531, 10.46289
1099.013, 10.39551
1099.495, 6.604004
1099.977, 4.683594
1100.459, 6.615234
1100.941, 6.949707
1101.424, 1.251953
1101.906, 2.636719
1102.388, 0.9477540
1102.870, 5.490723
1103.352, 4.799805
1103.834, 0.8681640
1104.316, 1.352051
1104.798, 1.134766
1105.281, 9.7167999E-02
1105.763, 3.762695
1106.245, 5.033691
1106.727, 1.801758
1107.209, 7.518066
1107.691, 4.620605
1108.173, 2.405273
1108.655, 7.150391
1109.137, 9.071289
1109.620, 8.645508
1110.102, 0.9833980
1110.584, 1.393555
1111.066, 10.92676
1111.548, 19.64746
1112.030, 11.68408
1112.512, 0.4829100
1112.994, 2.317383
1113.476, 4.610352
1113.959, 8.473633
1114.441, 7.116699
1114.923, 6.427246
1115.405, 8.201172
1115.887, 8.265137
1116.369, 2.796387
1116.851, 2.007324
1117.333, 0.6069340
1117.816, 6.978516
1118.298, 6.468750
1118.780, 3.942383
1119.262, 5.987305
1119.744, 7.927734
1120.226, 15.33936
1120.708, 8.932617
1121.190, 0.8139650
1121.672, 2.932617
1122.155, 3.156738
1122.637, 0.5664060
1123.119, 4.767090
1123.601, 8.614746
1124.083, 11.52002
1124.565, 10.88184
1125.047, 4.679199
1125.529, 0.2758790
1126.011, 0.7626950
1126.494, 0.2377930
1126.976, 0.8159180
1127.458, 2.841309
1127.940, 0.5815430
1128.422, 7.058105
1128.904, 11.64795
1129.386, 12.48535
1129.868, 13.22168
1130.351, 14.93164
1130.833, 16.37109
1131.315, 16.58447
1131.797, 15.84619
1132.279, 14.43994
1132.761, 12.47119
1133.243, 12.37842
1133.725, 14.15771
1134.208, 15.73291
1134.690, 16.73975
1135.172, 17.72119
1135.654, 19.04053
1136.136, 19.38574
1136.618, 16.90137
1137.100, 12.68018
1137.582, 10.26611
1138.064, 9.306152
1138.547, 7.732910
1139.029, 5.499023
1139.511, 2.470215
1139.993, 1.122070
1140.475, 0.8666990
1140.957, 7.683105
1141.439, 17.88428
1141.921, 17.79980
1142.403, 11.87109
1142.886, 11.07227
1143.368, 13.76367
1143.850, 12.79688
1144.332, 8.126465
1144.814, 7.291504
1145.296, 14.05908
1145.778, 21.51025
1146.260, 22.47314
1146.743, 20.49854
1147.225, 19.25977
1147.707, 18.82324
1148.189, 19.23096
1148.671, 20.52832
1149.153, 23.51465
1149.635, 27.96582
1150.117, 30.47949
1150.599, 28.14941
1151.082, 25.16553
1151.564, 23.81982
1152.046, 24.05371
1152.528, 28.04346
1153.010, 32.27246
1153.492, 30.34033
1153.974, 23.60693
1154.456, 20.22998
1154.938, 23.51611
1155.421, 25.90137
1155.903, 22.16797
1156.385, 19.60107
1156.867, 23.42627
1157.349, 28.36475
1157.831, 30.08154
1158.313, 29.57617
1158.795, 29.36768
1159.278, 29.73145
1159.760, 28.64795
1160.242, 24.08496
1160.724, 21.47266
1161.206, 22.77881
1161.688, 24.70752
1162.170, 25.94482
1162.652, 26.95068
1163.135, 27.55469
1163.617, 28.27734
1164.099, 31.78271
1164.581, 39.92090
1165.063, 43.04736
1165.545, 38.83350
1166.027, 37.10400
1166.509, 41.29004
1166.991, 45.03125
1167.474, 44.72217
1167.956, 41.39307
1168.438, 35.41357
1168.920, 27.75342
1169.402, 27.34375
1169.884, 35.29102
1170.366, 38.99951
1170.848, 36.96240
1171.330, 34.30957
1171.813, 32.40869
1172.295, 33.00146
1172.777, 38.20801
1173.259, 45.00049
1173.741, 46.86133
1174.223, 44.47607
1174.705, 40.14502
1175.187, 34.82373
1175.670, 31.87842
1176.152, 31.85010
1176.634, 33.96631
1177.116, 38.08691
1177.598, 41.38281
1178.080, 39.02246
1178.562, 34.79150
1179.044, 35.16113
1179.526, 37.31396
1180.009, 36.21826
1180.491, 33.19043
1180.973, 32.14648
1181.455, 33.57861
1181.937, 34.96338
1182.419, 35.13379
1182.901, 34.31592
1183.383, 31.70264
1183.865, 29.25635
1184.348, 28.56006
1184.830, 28.96094
1185.312, 30.71826
1185.794, 32.86475
1186.276, 32.15527
1186.758, 27.97217
1187.240, 25.82373
1187.722, 29.42383
1188.205, 32.09814
1188.687, 31.56006
1189.169, 30.26025
1189.651, 28.51465
1190.133, 27.40039
1190.615, 28.47607
1191.097, 31.18311
1191.579, 33.04346
1192.062, 33.95459
1192.544, 34.45605
1193.026, 35.02393
1193.508, 34.69629
1193.990, 31.98145
1194.472, 28.96533
1194.954, 27.77686
1195.436, 26.71191
1195.918, 22.98193
1196.401, 17.87256
1196.883, 17.24609
1197.365, 20.63623
1197.847, 23.69434
1198.329, 26.39307
1198.811, 26.67871
1199.293, 23.85352
1199.775, 20.29395
1200.257, 17.36523
1200.740, 16.67627
1201.222, 21.56055
1201.704, 29.56543
1202.186, 36.07227
1202.668, 40.24707
1203.150, 38.52246
1203.632, 32.12158
1204.114, 25.70850
1204.597, 20.95947
1205.079, 18.81348
1205.561, 20.46729
1206.043, 22.89600
1206.525, 24.63916
1207.007, 24.70752
1207.489, 20.61426
1207.971, 15.31787
1208.453, 12.48926
1208.936, 12.14893
1209.418, 13.95850
1209.900, 17.95459
1210.382, 18.36084
1210.864, 7.687500
1211.346, 1.536621
1211.828, 7.282715
1212.310, 14.90869
1212.792, 20.32129
1213.275, 23.72461
1213.757, 25.88184
1214.239, 26.31494
1214.721, 22.71289
1215.203, 13.08105
1215.685, 8.437500
1216.167, 9.892578
1216.649, 13.52295
1217.132, 20.03857
1217.614, 24.23193
1218.096, 23.33984
1218.578, 19.49707
1219.060, 14.54102
1219.542, 9.728027
1220.024, 10.04102
1220.506, 14.62598
1220.989, 14.06299
1221.471, 8.943359
1221.953, 7.422852
1222.435, 10.50928
1222.917, 10.26074
1223.399, 2.339844
1223.881, 5.197266
1224.363, 3.488770
1224.845, 2.439453
1225.328, 6.585938
1225.810, 9.799316
1226.292, 13.77734
1226.774, 17.61182
1227.256, 18.43848
1227.738, 16.81787
1228.220, 17.84619
1228.702, 24.27686
1229.184, 28.58643
1229.667, 24.38965
1230.149, 20.75684
1230.631, 24.87061
1231.113, 28.04785
1231.595, 20.15137
1232.077, 9.241699
1232.559, 9.754883
1233.041, 20.73389
1233.524, 24.47705
1234.006, 17.43555
1234.488, 12.38477
1234.970, 9.668945
1235.452, 8.049316
1235.934, 6.930664
1236.416, 8.170898
1236.898, 13.50781
1237.380, 19.75098
1237.863, 22.31836
1238.345, 21.80664
1238.827, 19.80176
1239.309, 16.77441
1239.791, 17.35303
1240.273, 20.86572
1240.755, 20.87744
1241.237, 16.43164
1241.719, 12.70898
1242.202, 12.55176
1242.684, 14.12793
1243.166, 17.08252
1243.648, 19.19775
1244.130, 15.32080
1244.612, 11.25977
1245.094, 16.89502
1245.576, 26.79297
1246.059, 30.47314
1246.541, 27.07617
1247.023, 21.25488
1247.505, 13.14209
1247.987, 7.775879
1248.469, 8.332031
1248.951, 9.395020
1249.433, 12.07812
1249.916, 12.10596
1250.398, 3.135742
1250.880, 6.573242
1251.362, 5.933105
1251.844, 3.091797
1252.326, 9.194824
1252.808, 12.67627
1253.290, 9.552246
1253.772, 1.789551
1254.255, 5.421875
1254.737, 2.564941
1255.219, 8.564453
1255.701, 6.873535
1256.183, 4.041016
1256.665, 6.871094
1257.147, 11.43994
1257.629, 8.899902
1258.111, 3.075195
1258.594, 2.614258
1259.076, 5.876465
1259.558, 8.265137
1260.040, 9.160645
1260.522, 8.830566
1261.004, 7.386719
1261.486, 6.796387
1261.968, 9.106934
1262.451, 11.53857
1262.933, 13.54053
1263.415, 14.37256
1263.897, 11.74023
1264.379, 9.057617
1264.861, 11.02539
1265.343, 16.13037
1265.825, 19.02441
1266.307, 19.53174
1266.790, 19.62891
1267.272, 19.33398
1267.754, 17.53076
1268.236, 13.09277
1268.718, 9.889160
1269.200, 12.69873
1269.682, 18.62598
1270.164, 20.91455
1270.646, 19.34375
1271.129, 15.68701
1271.611, 9.673828
1272.093, 8.062500
1272.575, 8.982910
1273.057, 10.94092
1273.539, 12.79541
1274.021, 12.74561
1274.503, 10.86523
1274.986, 8.301758
1275.468, 4.817871
1275.950, 3.555176
1276.432, 9.086426
1276.914, 13.83691
1277.396, 11.93896
1277.878, 8.568359
1278.360, 8.798340
1278.843, 10.16113
1279.325, 7.396973
1279.807, 1.312500
1280.289, 1.128906
1280.771, 0.3286130
1281.253, 3.536621
1281.735, 10.84326
1282.217, 15.63477
1282.699, 16.14307
1283.182, 16.16943
1283.664, 15.61572
1284.146, 16.29688
1284.628, 11.63330
1285.110, 4.573730
1285.592, 1.020020
1286.074, 0.0000000E+00
##END=



