##NAMES=Borocookeite
##RRUFFID=R080076
##IDEAL CHEMISTRY=LiAl_4_(Si_3_B)O_10_(OH)_8_
##LOCALITY=Malkhan Range, Central Transbaikal Region, Russia
##OWNER=RRUFF
##SOURCE=Michael Scott
##DESCRIPTION=Cream-colored earthy coating on tourmaline crystal
##STATUS=The identification of this mineral is not yet confirmed.
##URL=rruff.info/R080076
143.8862, 0.0000000E+00
144.3683, 2.669922
144.8504, 0.3554690
145.3326, 0.5126950
145.8147, 0.2919920
146.2968, 2.202148
146.7789, 7.777344
147.2610, 18.72461
147.7431, 31.05762
148.2253, 42.31934
148.7074, 51.49805
149.1895, 60.41309
149.6716, 68.60547
150.1537, 75.98145
150.6358, 83.94434
151.1180, 92.41797
151.6001, 101.3057
152.0822, 110.3066
152.5643, 122.4482
153.0464, 131.6494
153.5285, 137.6582
154.0107, 140.6553
154.4928, 138.2744
154.9749, 119.0693
155.4570, 99.16895
155.9391, 94.46973
156.4212, 129.0312
156.9034, 158.3506
157.3855, 167.6318
157.8676, 151.5615
158.3497, 138.2461
158.8318, 133.3604
159.3139, 133.8359
159.7961, 135.8125
160.2782, 141.6846
160.7603, 145.8896
161.2424, 144.5957
161.7245, 134.9229
162.2066, 128.8145
162.6888, 132.9277
163.1709, 142.6846
163.6530, 150.7178
164.1351, 152.1689
164.6172, 152.4971
165.0993, 155.4521
165.5815, 163.0391
166.0636, 168.7383
166.5457, 168.6816
167.0278, 164.5762
167.5099, 160.0146
167.9921, 153.8457
168.4742, 149.5879
168.9563, 151.1357
169.4384, 161.9463
169.9205, 172.6494
170.4026, 179.7539
170.8848, 182.5410
171.3669, 178.3320
171.8490, 155.3652
172.3311, 129.0820
172.8132, 117.4248
173.2953, 130.2012
173.7775, 147.2422
174.2596, 149.2910
174.7417, 139.8828
175.2238, 132.0215
175.7059, 135.8984
176.1880, 145.7744
176.6702, 153.5908
177.1523, 157.0986
177.6344, 158.1367
178.1165, 159.6904
178.5986, 161.5576
179.0807, 160.0195
179.5629, 149.8770
180.0450, 136.1270
180.5271, 128.9609
181.0092, 134.0596
181.4913, 143.2734
181.9734, 143.5820
182.4556, 135.6250
182.9377, 127.2080
183.4198, 123.0557
183.9019, 122.6973
184.3840, 123.3389
184.8661, 123.5586
185.3483, 123.4238
185.8304, 123.8623
186.3125, 125.4512
186.7946, 127.7852
187.2767, 131.0537
187.7588, 134.9385
188.2409, 137.6201
188.7231, 139.4443
189.2052, 139.3340
189.6873, 132.2686
190.1694, 117.4805
190.6515, 104.3564
191.1336, 104.6084
191.6158, 116.4746
192.0979, 125.0088
192.5800, 125.7793
193.0621, 120.2949
193.5442, 113.6865
194.0263, 105.9795
194.5085, 97.62695
194.9906, 88.77051
195.4727, 79.54785
195.9548, 71.42188
196.4369, 66.28809
196.9190, 62.85156
197.4012, 52.35938
197.8833, 33.01172
198.3654, 14.33789
198.8475, 8.947266
199.3296, 17.57129
199.8117, 24.87988
200.2939, 26.72070
200.7760, 23.59570
201.2581, 18.18359
201.7402, 8.743164
202.2223, 0.3408200
202.7044, 3.971680
203.1866, 1.547852
203.6687, 1.016602
204.1508, 1.499023
204.6329, 0.2080080
205.1150, 2.768555
205.5971, 10.68945
206.0793, 19.11621
206.5614, 21.58105
207.0435, 16.47168
207.5256, 12.43457
208.0077, 11.99902
208.4898, 15.00586
208.9720, 17.65234
209.4541, 20.40918
209.9362, 21.73340
210.4183, 19.35645
210.9004, 12.10742
211.3825, 4.794922
211.8647, 1.889648
212.3468, 8.008789
212.8289, 10.97363
213.3110, 10.55469
213.7931, 7.103516
214.2752, 0.1357420
214.7574, 12.82422
215.2395, 22.91895
215.7216, 28.18652
216.2037, 28.55664
216.6858, 25.67188
217.1679, 17.73828
217.6501, 8.908203
218.1322, 4.102539
218.6143, 4.266602
219.0964, 6.035156
219.5785, 9.354492
220.0606, 14.54492
220.5428, 14.49902
221.0249, 5.915039
221.5070, 4.500000
221.9891, 8.413086
222.4712, 2.334961
222.9533, 2.162109
223.4355, 1.521484
223.9176, 4.558594
224.3997, 8.940430
224.8818, 11.31934
225.3639, 12.17285
225.8460, 11.85547
226.3282, 10.41992
226.8103, 7.404297
227.2924, 2.709961
227.7745, 3.962891
228.2566, 11.55859
228.7387, 20.77344
229.2209, 30.19824
229.7030, 38.30371
230.1851, 46.14844
230.6672, 50.65430
231.1493, 49.68848
231.6314, 42.88184
232.1136, 40.73633
232.5957, 46.66211
233.0778, 53.57812
233.5599, 54.09375
234.0420, 45.14941
234.5241, 35.54590
235.0063, 24.93262
235.4884, 13.26953
235.9705, 11.23535
236.4526, 23.80566
236.9347, 40.89551
237.4168, 53.65430
237.8990, 61.61621
238.3811, 65.82715
238.8632, 64.84863
239.3453, 58.88477
239.8274, 56.54688
240.3095, 58.39551
240.7917, 60.75684
241.2738, 61.05566
241.7559, 58.13477
242.2380, 55.41992
242.7201, 53.47949
243.2022, 52.37598
243.6844, 51.76270
244.1665, 54.29883
244.6486, 54.77539
245.1307, 48.43262
245.6128, 30.50000
246.0949, 16.03711
246.5771, 7.122070
247.0592, 3.500000
247.5413, 2.888672
248.0234, 5.302734
248.5055, 11.30176
248.9876, 21.20605
249.4697, 38.15723
249.9519, 50.90527
250.4340, 56.80176
250.9161, 56.93066
251.3982, 58.54688
251.8803, 61.22363
252.3624, 65.18066
252.8446, 70.90723
253.3267, 80.76465
253.8088, 86.46191
254.2909, 86.59766
254.7730, 82.12305
255.2551, 75.99023
255.7373, 65.60547
256.2194, 58.05859
256.7015, 59.22266
257.1836, 76.45703
257.6657, 82.65039
258.1479, 72.39453
258.6300, 51.47754
259.1121, 37.21973
259.5942, 31.14453
260.0763, 29.31641
260.5584, 30.26855
261.0406, 34.71680
261.5227, 40.36328
262.0048, 48.66211
262.4869, 57.27148
262.9690, 60.33594
263.4511, 55.10938
263.9333, 49.85742
264.4154, 47.96875
264.8975, 49.93262
265.3796, 53.59082
265.8617, 60.44824
266.3438, 67.71777
266.8260, 69.49805
267.3081, 62.96094
267.7902, 58.27441
268.2723, 60.50977
268.7544, 71.36621
269.2365, 77.18457
269.7187, 76.28516
270.2008, 72.36523
270.6829, 71.96094
271.1650, 76.96289
271.6471, 79.42188
272.1292, 75.36035
272.6114, 64.38672
273.0935, 56.79492
273.5756, 52.61328
274.0577, 51.77539
274.5398, 55.45117
275.0219, 64.71387
275.5041, 72.29102
275.9862, 74.78516
276.4683, 72.89160
276.9504, 77.57031
277.4325, 91.29883
277.9146, 105.0488
278.3968, 107.9619
278.8788, 98.73340
279.3610, 90.10059
279.8431, 84.86621
280.3252, 83.06738
280.8073, 84.09375
281.2894, 88.75098
281.7715, 92.64551
282.2537, 91.38867
282.7358, 84.96191
283.2179, 78.52148
283.7000, 72.97461
284.1821, 68.24023
284.6642, 64.38867
285.1464, 61.61035
285.6285, 58.13770
286.1106, 50.23438
286.5927, 38.60254
287.0748, 34.47266
287.5569, 41.74414
288.0391, 54.40527
288.5212, 58.85742
289.0033, 55.11230
289.4854, 49.80664
289.9675, 46.25293
290.4496, 44.62012
290.9318, 46.27832
291.4139, 52.70801
291.8960, 59.62793
292.3781, 59.04004
292.8602, 51.61035
293.3423, 43.63477
293.8245, 38.07812
294.3066, 34.59277
294.7887, 33.41895
295.2708, 35.42676
295.7529, 35.39453
296.2350, 21.28418
296.7172, 2.987305
297.1993, 18.86719
297.6814, 11.04395
298.1635, 9.794922
298.6456, 19.82617
299.1277, 18.27734
299.6099, 14.32129
300.0920, 17.70410
300.5741, 26.10938
301.0562, 33.14648
301.5383, 38.39258
302.0204, 40.08105
302.5026, 32.74023
302.9847, 16.78809
303.4668, 2.279297
303.9489, 0.2705080
304.4310, 3.780273
304.9131, 4.663086
305.3953, 4.094727
305.8774, 13.44238
306.3595, 11.59473
306.8416, 0.6298830
307.3237, 8.945313
307.8058, 7.811523
308.2880, 2.097656
308.7701, 0.5244140
309.2522, 3.073242
309.7343, 7.832031
310.2164, 10.30176
310.6985, 10.98242
311.1807, 10.87500
311.6628, 9.470703
312.1449, 8.238281
312.6270, 8.662109
313.1091, 11.55273
313.5912, 13.76562
314.0734, 10.52930
314.5555, 5.332031
315.0376, 4.607422
315.5197, 14.05273
316.0018, 26.15918
316.4839, 35.94629
316.9661, 42.60547
317.4482, 49.21484
317.9303, 60.07422
318.4124, 70.48535
318.8945, 75.18750
319.3766, 67.30078
319.8588, 58.18359
320.3409, 52.70801
320.8230, 51.15234
321.3051, 49.65430
321.7872, 50.53320
322.2693, 49.29395
322.7515, 43.11133
323.2336, 22.47754
323.7157, 7.186523
324.1978, 2.523438
324.6799, 7.291016
325.1620, 14.16211
325.6442, 27.10059
326.1263, 37.90137
326.6084, 41.95215
327.0905, 28.50195
327.5726, 22.01367
328.0547, 30.60645
328.5369, 47.37012
329.0190, 54.53613
329.5011, 44.18359
329.9832, 31.48145
330.4653, 20.52930
330.9474, 9.466797
331.4296, 6.024414
331.9117, 17.51172
332.3938, 34.00098
332.8759, 41.30859
333.3580, 32.71191
333.8401, 25.27832
334.3223, 24.20410
334.8044, 30.60449
335.2865, 33.70215
335.7686, 31.33008
336.2507, 27.92676
336.7328, 27.35449
337.2150, 29.42285
337.6971, 34.63184
338.1792, 43.73926
338.6613, 56.00781
339.1434, 69.16602
339.6255, 85.05273
340.1077, 97.17090
340.5898, 99.06250
341.0719, 88.48438
341.5540, 83.58789
342.0361, 88.36328
342.5182, 97.28809
343.0004, 95.02344
343.4825, 79.45801
343.9646, 67.11426
344.4467, 68.64941
344.9288, 82.85254
345.4109, 97.09766
345.8931, 112.1709
346.3752, 123.0635
346.8573, 119.5908
347.3394, 102.9141
347.8215, 86.84473
348.3036, 76.65625
348.7858, 71.54688
349.2679, 71.01367
349.7500, 75.45605
350.2321, 78.50293
350.7142, 71.66016
351.1964, 58.24707
351.6785, 47.83203
352.1606, 44.03711
352.6427, 43.74121
353.1248, 44.03418
353.6069, 44.59668
354.0891, 43.02734
354.5712, 35.30469
355.0533, 24.44336
355.5354, 16.38477
356.0175, 12.18262
356.4996, 10.91016
356.9818, 12.82812
357.4639, 17.52246
357.9460, 23.96680
358.4281, 34.85059
358.9102, 45.31348
359.3923, 50.94531
359.8745, 51.00586
360.3566, 49.01660
360.8387, 45.01465
361.3208, 40.46289
361.8029, 37.07129
362.2850, 33.34766
362.7672, 32.53223
363.2493, 37.71777
363.7314, 47.90039
364.2135, 55.67480
364.6956, 55.53320
365.1777, 53.60156
365.6599, 54.45996
366.1420, 66.95703
366.6241, 72.57324
367.1062, 62.27539
367.5883, 42.08691
368.0704, 29.78223
368.5526, 35.93555
369.0347, 43.70605
369.5168, 46.60449
369.9989, 42.29102
370.4810, 38.87793
370.9631, 36.73047
371.4453, 34.66406
371.9274, 31.44824
372.4095, 25.63379
372.8916, 20.77832
373.3737, 17.40918
373.8558, 15.44824
374.3380, 15.75781
374.8201, 19.81543
375.3022, 24.24219
375.7843, 26.05762
376.2664, 24.60059
376.7485, 23.03223
377.2307, 22.27148
377.7128, 21.43848
378.1949, 15.40430
378.6770, 1.608398
379.1591, 7.080078
379.6412, 0.4765630
380.1234, 21.59180
380.6055, 37.84082
381.0876, 46.33594
381.5697, 51.04980
382.0518, 58.08008
382.5339, 67.04004
383.0161, 75.11816
383.4982, 84.04395
383.9803, 90.71680
384.4624, 82.36816
384.9445, 58.56836
385.4266, 34.29492
385.9088, 23.47070
386.3909, 22.68359
386.8730, 23.71387
387.3551, 26.92188
387.8372, 27.89941
388.3193, 18.07422
388.8015, 0.2451170
389.2836, 14.45605
389.7657, 18.52051
390.2478, 16.22656
390.7299, 11.54395
391.2120, 4.591797
391.6942, 2.424805
392.1763, 7.936523
392.6584, 12.22656
393.1405, 15.95312
393.6226, 19.34766
394.1047, 22.01855
394.5869, 23.96973
395.0690, 25.09668
395.5511, 24.35254
396.0332, 16.44434
396.5153, 9.145508
396.9974, 8.513672
397.4796, 26.57812
397.9617, 38.76074
398.4438, 36.56152
398.9259, 24.70996
399.4080, 17.79590
399.8901, 23.62207
400.3723, 29.27148
400.8544, 29.09961
401.3365, 19.04297
401.8186, 15.39453
402.3007, 24.10645
402.7828, 35.48438
403.2649, 36.63965
403.7470, 19.83398
404.2292, 7.513672
404.7113, 5.920898
405.1934, 13.88379
405.6755, 17.27441
406.1576, 14.34277
406.6397, 10.82715
407.1219, 11.56836
407.6040, 17.47754
408.0861, 21.00391
408.5682, 21.06641
409.0503, 19.50488
409.5324, 19.90332
410.0146, 22.39746
410.4967, 25.85840
410.9788, 30.21680
411.4609, 35.10156
411.9430, 38.43359
412.4251, 39.76367
412.9073, 41.99414
413.3894, 47.76367
413.8715, 56.58008
414.3536, 67.62402
414.8357, 82.02441
415.3178, 96.42188
415.8000, 107.1963
416.2821, 114.2578
416.7642, 117.2256
417.2463, 111.9414
417.7284, 104.4023
418.2105, 102.8711
418.6927, 111.3369
419.1748, 115.1191
419.6569, 102.9492
420.1390, 81.22461
420.6211, 59.99805
421.1032, 38.51953
421.5854, 22.58008
422.0675, 17.72754
422.5496, 23.58398
423.0317, 26.89648
423.5138, 22.06641
423.9959, 14.99219
424.4781, 9.504883
424.9602, 7.534180
425.4423, 5.149414
425.9244, 1.390625
426.4065, 3.034180
426.8886, 6.704102
427.3708, 13.28418
427.8529, 14.45703
428.3350, 4.840820
428.8171, 18.99219
429.2992, 30.42383
429.7813, 23.11035
430.2635, 11.10742
430.7456, 9.250000
431.2277, 20.43848
431.7098, 31.04395
432.1919, 39.75977
432.6740, 45.72754
433.1562, 44.13184
433.6383, 33.93164
434.1204, 24.65820
434.6025, 21.74121
435.0846, 24.46973
435.5667, 30.26465
436.0489, 39.55566
436.5310, 48.88477
437.0131, 53.45508
437.4952, 55.05273
437.9773, 57.19824
438.4594, 64.89062
438.9416, 70.83984
439.4237, 60.17383
439.9058, 35.89648
440.3879, 18.01855
440.8700, 27.65527
441.3521, 46.87793
441.8343, 55.56738
442.3164, 46.75391
442.7985, 37.69531
443.2806, 38.56543
443.7627, 45.63477
444.2448, 53.02344
444.7270, 61.78906
445.2091, 67.20020
445.6912, 65.63184
446.1733, 56.86035
446.6554, 49.09668
447.1375, 44.52930
447.6197, 40.49316
448.1018, 35.34766
448.5839, 25.98145
449.0660, 19.78906
449.5481, 17.28223
450.0302, 17.63867
450.5124, 19.68164
450.9945, 24.29297
451.4766, 29.19922
451.9587, 34.60156
452.4408, 40.84961
452.9229, 41.90430
453.4051, 36.72461
453.8872, 29.32422
454.3693, 22.23730
454.8514, 15.43848
455.3335, 11.53516
455.8156, 11.67676
456.2978, 13.71484
456.7799, 13.34961
457.2620, 10.44727
457.7441, 7.124023
458.2262, 3.225586
458.7083, 0.2529300
459.1905, 2.687500
459.6726, 10.87891
460.1547, 19.41309
460.6368, 23.09277
461.1189, 24.12891
461.6010, 26.28125
462.0832, 33.21289
462.5653, 37.93555
463.0474, 31.22559
463.5295, 17.54199
464.0116, 9.734375
464.4937, 19.87305
464.9759, 32.72461
465.4580, 38.89453
465.9401, 35.97070
466.4222, 34.83398
466.9043, 41.79199
467.3864, 49.98633
467.8686, 52.92773
468.3507, 41.53320
468.8328, 34.99414
469.3149, 38.12305
469.7970, 47.83691
470.2791, 52.25684
470.7613, 47.93262
471.2434, 43.61426
471.7255, 43.37207
472.2076, 48.20410
472.6897, 50.46387
473.1718, 49.02930
473.6540, 47.18945
474.1361, 49.12598
474.6182, 54.91895
475.1003, 60.56250
475.5824, 65.20703
476.0645, 68.84668
476.5467, 72.00293
477.0288, 74.61230
477.5109, 76.67090
477.9930, 77.78223
478.4751, 78.26074
478.9572, 78.62402
479.4394, 78.76270
479.9215, 79.63770
480.4036, 87.55859
480.8857, 95.56348
481.3678, 92.61523
481.8499, 66.18359
482.3321, 38.31055
482.8142, 21.71777
483.2963, 14.69043
483.7784, 11.81836
484.2605, 17.61328
484.7426, 21.97461
485.2248, 18.59180
485.7069, 4.931641
486.1890, 4.908203
486.6711, 9.177734
487.1532, 8.986328
487.6353, 4.490234
488.1175, 11.25586
488.5996, 19.54102
489.0817, 13.63281
489.5638, 0.6035160
490.0459, 2.931641
490.5280, 9.453125
491.0102, 26.18359
491.4923, 45.05664
491.9744, 66.14062
492.4565, 76.21875
492.9386, 73.04102
493.4207, 67.20898
493.9029, 71.70508
494.3850, 84.41406
494.8671, 92.45312
495.3492, 93.00977
495.8313, 87.74219
496.3134, 75.85742
496.7956, 59.64258
497.2777, 47.57812
497.7598, 47.48047
498.2419, 51.50000
498.7240, 52.71289
499.2061, 51.05273
499.6883, 48.89648
500.1704, 48.17578
500.6525, 48.10742
501.1346, 47.39648
501.6167, 42.18555
502.0988, 39.89648
502.5810, 45.93945
503.0631, 56.52734
503.5452, 62.87500
504.0273, 56.64648
504.5094, 52.63672
504.9915, 55.44531
505.4737, 65.10352
505.9558, 70.21484
506.4379, 69.79297
506.9200, 65.38477
507.4021, 56.26758
507.8842, 39.67188
508.3664, 33.23438
508.8485, 42.46094
509.3306, 55.46875
509.8127, 49.28711
510.2948, 24.73633
510.7769, 4.273438
511.2591, 1.845703
511.7412, 1.560547
512.2233, 4.208984
512.7054, 6.253906
513.1875, 6.642578
513.6696, 1.378906
514.1517, 4.802734
514.6339, 4.021484
515.1160, 6.238281
515.5981, 15.68555
516.0802, 12.94727
516.5623, 5.996094
517.0444, 5.771484
517.5266, 23.85547
518.0087, 40.45508
518.4908, 48.46484
518.9729, 48.77930
519.4550, 46.46484
519.9371, 35.16016
520.4193, 27.65820
520.9014, 30.05469
521.3835, 45.66406
521.8656, 57.10547
522.3477, 64.94336
522.8298, 68.07617
523.3120, 63.18164
523.7941, 47.00586
524.2762, 39.56250
524.7583, 47.33398
525.2404, 61.59961
525.7225, 60.26953
526.2047, 43.64453
526.6868, 27.37305
527.1689, 17.99805
527.6510, 14.85742
528.1331, 19.01172
528.6152, 30.33789
529.0974, 38.40039
529.5795, 30.36914
530.0616, 15.79883
530.5437, 9.205078
531.0258, 16.48438
531.5079, 23.11914
531.9901, 16.10742
532.4722, 3.531250
532.9543, 2.121094
533.4364, 9.601563
533.9185, 22.07617
534.4006, 31.03320
534.8828, 36.14648
535.3649, 37.69531
535.8470, 28.02734
536.3291, 21.98242
536.8112, 27.62305
537.2933, 50.65625
537.7755, 61.13672
538.2576, 53.29883
538.7397, 40.50391
539.2218, 38.00781
539.7039, 46.67188
540.1860, 56.19141
540.6682, 65.76562
541.1503, 73.58398
541.6324, 75.27539
542.1145, 71.30469
542.5966, 66.00781
543.0787, 61.09375
543.5609, 56.65625
544.0430, 53.47070
544.5251, 51.47852
545.0072, 47.82812
545.4893, 37.36914
545.9714, 26.11914
546.4536, 20.82031
546.9357, 25.33203
547.4178, 29.42969
547.8999, 27.73438
548.3820, 23.63477
548.8641, 21.28906
549.3463, 23.09570
549.8284, 24.80859
550.3105, 25.76367
550.7926, 25.85352
551.2747, 24.37695
551.7568, 18.59570
552.2390, 15.70508
552.7211, 21.68750
553.2032, 38.36719
553.6853, 38.28906
554.1674, 16.54492
554.6495, 6.666016
555.1317, 6.945313
555.6138, 12.17188
556.0959, 24.33203
556.5780, 24.59961
557.0601, 17.87891
557.5422, 6.931641
558.0244, 5.892578
558.5065, 14.06641
558.9886, 10.68359
559.4707, 3.976563
559.9528, 3.173828
560.4349, 6.603516
560.9171, 3.722656
561.3992, 19.26172
561.8813, 43.18750
562.3634, 54.10352
562.8455, 44.59570
563.3276, 40.21094
563.8098, 48.13867
564.2919, 59.48047
564.7740, 66.48242
565.2561, 66.62109
565.7382, 66.69141
566.2203, 67.73242
566.7025, 68.77148
567.1846, 67.76172
567.6667, 64.98242
568.1488, 59.65039
568.6309, 50.05859
569.1130, 38.33789
569.5952, 33.41602
570.0773, 35.42773
570.5594, 37.81641
571.0415, 34.83203
571.5236, 29.69922
572.0057, 27.64453
572.4879, 30.42773
572.9700, 34.74805
573.4521, 39.01172
573.9342, 43.19141
574.4163, 47.07422
574.8984, 47.98828
575.3806, 50.91406
575.8627, 61.19727
576.3448, 74.12109
576.8269, 77.16211
577.3090, 59.12109
577.7911, 42.98633
578.2733, 33.78320
578.7554, 31.55469
579.2375, 35.70508
579.7196, 49.42969
580.2017, 61.67383
580.6838, 62.36328
581.1660, 51.66406
581.6481, 48.50586
582.1302, 54.75000
582.6123, 64.44922
583.0944, 72.92188
583.5765, 79.27539
584.0587, 80.18555
584.5408, 72.00977
585.0229, 62.74805
585.5050, 62.04492
585.9871, 66.73828
586.4692, 68.88086
586.9514, 60.18555
587.4335, 52.71289
587.9156, 55.02148
588.3977, 66.69336
588.8798, 74.50781
589.3619, 73.56055
589.8441, 69.92773
590.3262, 65.51953
590.8083, 57.78906
591.2904, 57.54102
591.7725, 67.48438
592.2546, 80.25977
592.7368, 88.79688
593.2189, 92.88672
593.7010, 92.28906
594.1831, 85.67188
594.6652, 76.51562
595.1473, 69.59375
595.6295, 65.13086
596.1116, 64.38867
596.5937, 72.31836
597.0758, 81.51172
597.5579, 83.96484
598.0400, 79.93945
598.5222, 70.46484
599.0043, 45.84570
599.4864, 23.79688
599.9685, 19.63086
600.4506, 38.73438
600.9327, 52.00000
601.4149, 44.89844
601.8970, 34.94727
602.3791, 36.23828
602.8612, 61.19531
603.3433, 72.36328
603.8254, 62.47852
604.3076, 44.63086
604.7897, 40.33203
605.2718, 50.28711
605.7539, 60.65039
606.2360, 68.96094
606.7181, 74.20312
607.2003, 71.89844
607.6824, 62.58594
608.1645, 53.14453
608.6466, 44.81445
609.1287, 40.02734
609.6108, 45.31836
610.0930, 60.05078
610.5751, 71.04492
611.0572, 67.88086
611.5393, 60.09570
612.0214, 55.49219
612.5035, 56.55078
612.9857, 56.33008
613.4678, 49.65820
613.9499, 43.62891
614.4320, 46.83984
614.9141, 70.21289
615.3962, 80.63086
615.8784, 69.22461
616.3605, 46.69141
616.8426, 37.99609
617.3247, 44.26953
617.8068, 52.95312
618.2889, 59.93359
618.7711, 65.59375
619.2532, 70.40234
619.7353, 73.91211
620.2174, 74.89648
620.6995, 69.18555
621.1816, 62.18359
621.6638, 61.38672
622.1459, 67.33398
622.6280, 71.70312
623.1101, 70.63086
623.5922, 65.98047
624.0743, 58.79297
624.5565, 46.70703
625.0386, 37.37695
625.5207, 34.13477
626.0028, 32.83594
626.4849, 28.28516
626.9670, 17.88086
627.4492, 12.54102
627.9313, 16.61523
628.4134, 24.58984
628.8955, 20.82617
629.3776, 5.117188
629.8597, 6.490234
630.3419, 3.863281
630.8240, 5.248047
631.3061, 4.695313
631.7882, 4.171875
632.2703, 12.55859
632.7524, 16.46289
633.2346, 16.51953
633.7167, 12.85352
634.1988, 5.525391
634.6809, 3.044922
635.1630, 13.91602
635.6451, 24.22656
636.1273, 31.80859
636.6094, 34.69141
637.0915, 38.05273
637.5736, 43.40625
638.0557, 47.82031
638.5378, 47.16602
639.0200, 40.74023
639.5021, 33.33398
639.9842, 25.03906
640.4663, 17.54297
640.9484, 13.62109
641.4305, 13.37695
641.9127, 16.78516
642.3948, 29.63086
642.8769, 42.03711
643.3590, 36.75586
643.8411, 18.54492
644.3232, 8.761719
644.8054, 26.90039
645.2875, 49.70898
645.7696, 63.70703
646.2517, 66.88672
646.7338, 68.94531
647.2159, 68.15625
647.6981, 68.97656
648.1802, 74.99805
648.6623, 91.02930
649.1444, 95.50000
649.6265, 84.15430
650.1086, 69.57812
650.5908, 70.60156
651.0729, 85.51562
651.5550, 86.37891
652.0371, 64.94336
652.5192, 36.90820
653.0013, 21.34180
653.4835, 16.41797
653.9656, 18.13281
654.4477, 35.12109
654.9298, 48.33594
655.4119, 40.62305
655.8940, 18.99805
656.3762, 4.583984
656.8583, 12.90234
657.3404, 20.32812
657.8225, 17.35547
658.3046, 4.660156
658.7867, 3.521484
659.2689, 6.640625
659.7510, 6.453125
660.2331, 2.099609
660.7152, 6.380859
661.1973, 7.009766
661.6794, 1.460938
662.1616, 8.853516
662.6437, 1.783203
663.1258, 12.92578
663.6079, 17.81445
664.0900, 7.943359
664.5721, 0.2031250
665.0543, 12.40820
665.5364, 32.52539
666.0185, 45.69531
666.5006, 41.05078
666.9827, 37.91016
667.4648, 42.25000
667.9470, 50.51758
668.4291, 55.70898
668.9112, 55.83789
669.3933, 55.20703
669.8754, 51.07031
670.3575, 47.78125
670.8397, 65.09375
671.3218, 104.5918
671.8039, 136.8652
672.2860, 146.4707
672.7681, 139.9668
673.2502, 129.4258
673.7324, 115.4824
674.2145, 102.6055
674.6966, 93.09180
675.1787, 86.79297
675.6608, 83.79883
676.1429, 84.38086
676.6251, 88.01953
677.1072, 103.6035
677.5893, 115.9570
678.0714, 113.0625
678.5535, 86.06445
679.0356, 72.01367
679.5178, 75.02148
679.9999, 83.29688
680.4820, 86.74414
680.9641, 85.59766
681.4462, 74.77344
681.9283, 51.39844
682.4105, 27.08203
682.8926, 19.83203
683.3747, 26.02734
683.8568, 35.48633
684.3389, 51.11523
684.8210, 60.03711
685.3032, 46.11328
685.7853, 19.38086
686.2674, 1.001953
686.7495, 4.517578
687.2316, 9.501953
687.7137, 9.439453
688.1959, 6.277344
688.6780, 5.062500
689.1601, 4.480469
689.6422, 7.244141
690.1243, 15.71289
690.6064, 28.95508
691.0886, 38.74219
691.5707, 45.20898
692.0528, 49.58398
692.5349, 50.91406
693.0170, 50.85156
693.4991, 53.77344
693.9813, 59.68750
694.4634, 63.54102
694.9455, 58.92578
695.4276, 52.68359
695.9097, 50.53906
696.3918, 54.65820
696.8740, 58.71875
697.3561, 62.93750
697.8382, 66.04492
698.3203, 66.56836
698.8024, 63.00781
699.2845, 62.60742
699.7667, 67.09180
700.2488, 72.46484
700.7309, 72.29883
701.2130, 67.62500
701.6951, 64.10156
702.1772, 62.87891
702.6594, 64.13672
703.1415, 71.04688
703.6236, 80.08789
704.1057, 84.34570
704.5878, 78.52930
705.0699, 70.22070
705.5521, 58.06836
706.0342, 45.43164
706.5163, 43.33594
706.9984, 62.05078
707.4805, 76.75977
707.9626, 80.00781
708.4448, 74.42773
708.9269, 73.84766
709.4090, 78.36914
709.8911, 85.93359
710.3732, 99.21289
710.8553, 113.6992
711.3374, 114.7969
711.8195, 103.8203
712.3016, 93.67773
712.7838, 91.51758
713.2659, 94.66406
713.7480, 103.6699
714.2301, 119.0781
714.7122, 128.0293
715.1943, 125.1504
715.6765, 116.4238
716.1586, 104.4980
716.6407, 86.90625
717.1228, 76.08008
717.6049, 74.15234
718.0870, 75.94922
718.5692, 78.21875
719.0513, 80.33594
719.5334, 75.51172
720.0155, 61.56445
720.4976, 49.45703
720.9797, 51.98633
721.4619, 62.25977
721.9440, 69.73633
722.4261, 70.92188
722.9082, 70.05664
723.3903, 67.52148
723.8724, 64.17578
724.3546, 61.18555
724.8367, 57.53320
725.3188, 55.67188
725.8009, 55.54688
726.2830, 57.34961
726.7651, 62.77344
727.2473, 72.57812
727.7294, 78.25781
728.2115, 77.18555
728.6936, 71.21484
729.1757, 60.72461
729.6578, 47.63867
730.1400, 38.77539
730.6221, 41.42773
731.1042, 45.84766
731.5863, 47.03516
732.0684, 44.82617
732.5505, 38.59375
733.0327, 19.67773
733.5148, 6.494141
733.9969, 9.037109
734.4790, 23.65625
734.9611, 22.40820
735.4432, 1.5625000E-02
735.9254, 19.44336
736.4075, 23.70703
736.8896, 15.86914
737.3717, 4.777344
737.8538, 8.849609
738.3359, 16.28906
738.8181, 1.244141
739.3002, 16.59570
739.7823, 13.57422
740.2644, 11.23047
740.7465, 32.57812
741.2286, 36.67578
741.7108, 37.52344
742.1929, 45.02734
742.6750, 62.27734
743.1571, 66.06250
743.6392, 48.62500
744.1213, 32.00000
744.6035, 37.75391
745.0856, 63.44531
745.5677, 73.23438
746.0498, 63.99023
746.5319, 51.19141
747.0140, 48.20898
747.4962, 51.38672
747.9783, 57.04688
748.4604, 66.38477
748.9425, 70.17969
749.4246, 59.78711
749.9067, 44.25195
750.3889, 32.12891
750.8710, 23.37891
751.3531, 21.24023
751.8352, 30.60352
752.3173, 41.16797
752.7994, 36.93359
753.2816, 17.38086
753.7637, 12.37891
754.2458, 29.27344
754.7279, 49.47656
755.2100, 47.44922
755.6921, 31.79492
756.1743, 19.71875
756.6564, 16.61719
757.1385, 17.30859
757.6206, 23.47852
758.1027, 30.27930
758.5848, 30.43359
759.0670, 10.88086
759.5491, 2.648438
760.0312, 14.40820
760.5133, 34.63672
760.9954, 40.05859
761.4775, 29.68164
761.9597, 21.75781
762.4418, 21.51562
762.9239, 25.05273
763.4060, 26.88086
763.8881, 27.26172
764.3702, 26.94336
764.8524, 23.79688
765.3345, 22.37109
765.8166, 28.69727
766.2987, 38.59570
766.7808, 41.16406
767.2629, 22.80859
767.7451, 12.75781
768.2272, 19.23242
768.7093, 36.68945
769.1914, 48.10742
769.6735, 53.17578
770.1556, 56.66797
770.6378, 62.48828
771.1199, 65.94141
771.6020, 53.91602
772.0841, 30.73242
772.5662, 12.29297
773.0483, 8.757813
773.5305, 10.59766
774.0126, 13.12109
774.4947, 16.29492
774.9768, 21.11719
775.4589, 33.38086
775.9410, 39.87695
776.4232, 35.00391
776.9053, 21.14258
777.3874, 11.97461
777.8695, 7.632813
778.3516, 6.291016
778.8337, 8.630859
779.3159, 12.94531
779.7980, 13.84180
780.2801, 12.46484
780.7622, 13.42188
781.2443, 21.02148
781.7264, 30.25000
782.2086, 39.47070
782.6907, 48.38281
783.1728, 53.02539
783.6549, 50.85156
784.1370, 47.61523
784.6191, 45.30469
785.1013, 43.68750
785.5834, 40.65820
786.0655, 35.88867
786.5476, 32.73047
787.0297, 32.46289
787.5118, 35.40625
787.9940, 45.25000
788.4761, 60.52539
788.9582, 70.09180
789.4403, 62.98047
789.9224, 52.29102
790.4045, 45.53125
790.8867, 43.50977
791.3688, 40.98438
791.8509, 39.10547
792.3330, 36.05664
792.8151, 28.94336
793.2972, 18.46680
793.7794, 12.59961
794.2615, 12.21875
794.7436, 15.00000
795.2257, 20.49219
795.7078, 26.95312
796.1899, 33.62109
796.6721, 39.77930
797.1542, 39.28320
797.6363, 24.52734
798.1184, 11.14258
798.6005, 8.199219
799.0826, 16.47656
799.5648, 21.64258
800.0469, 22.58203
800.5290, 22.34180
801.0111, 22.80078
801.4932, 23.60547
801.9753, 21.38867
802.4575, 16.29297
802.9396, 13.71875
803.4217, 21.21289
803.9038, 30.96289
804.3859, 35.72266
804.8680, 34.96094
805.3502, 29.48438
805.8323, 11.12695
806.3144, 3.800781
806.7965, 5.308594
807.2786, 7.523438
807.7607, 12.02734
808.2429, 6.410156
808.7250, 0.4824220
809.2071, 1.007813
809.6892, 6.593750
810.1713, 13.32812
810.6534, 20.93359
811.1356, 26.62500
811.6177, 29.44922
812.0998, 28.89453
812.5819, 20.47266
813.0640, 3.644531
813.5461, 0.8144530
814.0283, 23.07617
814.5104, 44.40625
814.9925, 46.96680
815.4746, 31.55859
815.9567, 33.70508
816.4388, 54.85742
816.9210, 74.76953
817.4031, 77.76367
817.8852, 71.38867
818.3673, 69.61328
818.8494, 72.08203
819.3315, 72.56836
819.8137, 64.67383
820.2958, 56.94141
820.7779, 55.51758
821.2600, 61.11719
821.7421, 63.40625
822.2242, 60.72461
822.7064, 58.93359
823.1885, 62.84375
823.6706, 69.98438
824.1527, 63.98047
824.6348, 46.07617
825.1169, 32.31250
825.5991, 35.54297
826.0812, 44.09570
826.5633, 48.70703
827.0454, 49.24023
827.5275, 48.10156
828.0096, 42.89648
828.4918, 39.36719
828.9739, 41.19141
829.4560, 47.06055
829.9381, 46.84180
830.4202, 39.59570
830.9023, 32.17969
831.3845, 27.92383
831.8666, 25.91602
832.3487, 23.36914
832.8308, 20.98242
833.3129, 20.93555
833.7950, 27.39648
834.2772, 34.06836
834.7593, 39.49414
835.2414, 42.59766
835.7235, 37.08789
836.2056, 10.49219
836.6877, 3.416016
837.1699, 9.152344
837.6520, 37.55273
838.1341, 48.05078
838.6162, 41.47070
839.0983, 33.01172
839.5804, 28.22070
840.0626, 25.33984
840.5447, 20.02930
841.0268, 14.89648
841.5089, 16.69531
841.9910, 39.64258
842.4731, 56.16797
842.9553, 53.66602
843.4374, 41.05078
843.9195, 37.89648
844.4016, 48.09570
844.8837, 49.58984
845.3658, 34.25977
845.8480, 13.45508
846.3301, 7.339844
846.8122, 12.25586
847.2943, 18.27930
847.7764, 25.29297
848.2585, 27.31641
848.7407, 15.85938
849.2228, 1.259766
849.7049, 11.68359
850.1870, 11.41211
850.6691, 9.105469
851.1512, 4.085938
851.6334, 0.9238280
852.1155, 1.556641
852.5976, 1.888672
853.0797, 7.705078
853.5618, 17.54688
854.0439, 21.73242
854.5261, 4.404297
855.0082, 22.12695
855.4903, 42.11523
855.9724, 50.83594
856.4545, 54.50391
856.9366, 49.87891
857.4188, 43.98828
857.9009, 42.63867
858.3830, 46.16406
858.8651, 52.42969
859.3472, 62.59766
859.8293, 68.74414
860.3115, 56.65039
860.7936, 36.60547
861.2757, 28.65820
861.7578, 36.43359
862.2399, 45.93750
862.7220, 54.72070
863.2042, 59.45117
863.6863, 57.21680
864.1684, 47.67383
864.6505, 34.25586
865.1326, 14.53125
865.6147, 0.6425780
866.0969, 0.9589840
866.5790, 14.27734
867.0611, 17.04688
867.5432, 9.552734
868.0253, 2.371094
868.5074, 3.347656
868.9896, 6.861328
869.4717, 7.644531
869.9538, 5.546875
870.4359, 8.689453
870.9180, 21.59180
871.4001, 32.94531
871.8823, 37.49805
872.3644, 36.86328
872.8465, 41.70312
873.3286, 51.45703
873.8107, 57.57617
874.2928, 50.74023
874.7750, 41.13477
875.2571, 40.27930
875.7392, 45.75000
876.2213, 50.55469
876.7034, 54.94531
877.1855, 55.06445
877.6677, 48.20508
878.1498, 37.73047
878.6319, 32.26758
879.1140, 32.67188
879.5961, 32.63672
880.0782, 31.38867
880.5604, 27.72266
881.0425, 17.07031
881.5246, 3.181641
882.0067, 6.757813
882.4888, 12.12891
882.9709, 10.11719
883.4531, 8.736328
883.9352, 31.23828
884.4173, 39.37109
884.8994, 25.95898
885.3815, 23.69727
885.8636, 37.79297
886.3458, 54.54688
886.8279, 56.28516
887.3100, 47.59766
887.7921, 37.68750
888.2742, 26.69336
888.7563, 23.87109
889.2385, 44.56250
889.7206, 69.19141
890.2027, 79.30859
890.6848, 67.31641
891.1669, 71.02344
891.6490, 98.16016
892.1312, 122.6973
892.6133, 121.5801
893.0954, 101.6309
893.5775, 92.93164
894.0596, 95.37109
894.5417, 97.01562
895.0239, 87.54492
895.5060, 77.18164
895.9881, 73.58789
896.4702, 76.86328
896.9523, 81.88672
897.4344, 92.55469
897.9166, 96.80469
898.3987, 88.05664
898.8808, 70.95117
899.3629, 61.91016
899.8450, 60.21484
900.3271, 60.56055
900.8093, 62.50391
901.2914, 63.55273
901.7735, 60.77148
902.2556, 55.73047
902.7377, 51.57617
903.2198, 51.03516
903.7020, 48.75977
904.1841, 43.09375
904.6662, 36.64648
905.1483, 35.01562
905.6304, 37.78516
906.1125, 34.90430
906.5947, 22.22070
907.0768, 12.78906
907.5589, 25.79688
908.0410, 47.31055
908.5231, 58.71484
909.0052, 50.46094
909.4874, 46.82617
909.9695, 51.80078
910.4516, 60.38672
910.9337, 70.56250
911.4158, 82.21094
911.8979, 89.56250
912.3801, 93.34766
912.8622, 93.32031
913.3443, 85.38672
913.8264, 77.24414
914.3085, 78.15234
914.7906, 87.93945
915.2728, 92.82812
915.7549, 86.00977
916.2370, 75.85938
916.7191, 62.83203
917.2012, 48.40625
917.6833, 44.31641
918.1655, 52.58008
918.6476, 58.03320
919.1297, 50.92578
919.6118, 40.82617
920.0939, 42.88477
920.5760, 52.21484
921.0582, 55.94922
921.5403, 43.86133
922.0224, 35.96484
922.5045, 38.87695
922.9866, 45.89453
923.4688, 45.10156
923.9509, 35.56055
924.4330, 34.79297
924.9151, 46.18750
925.3972, 61.71875
925.8793, 74.91016
926.3615, 85.08398
926.8436, 90.24023
927.3257, 88.41016
927.8078, 87.08203
928.2899, 91.15820
928.7720, 93.47852
929.2542, 88.83203
929.7363, 76.64062
930.2184, 70.53125
930.7005, 71.12305
931.1826, 71.64062
931.6647, 68.26953
932.1469, 61.85547
932.6290, 51.81836
933.1111, 39.38281
933.5932, 29.90430
934.0753, 28.45117
934.5574, 27.13867
935.0396, 21.41602
935.5217, 14.97070
936.0038, 21.35156
936.4859, 41.06055
936.9680, 58.10156
937.4501, 66.83008
937.9323, 71.39453
938.4144, 72.60547
938.8965, 73.79102
939.3786, 81.05273
939.8607, 103.3066
940.3428, 117.3496
940.8250, 112.5059
941.3071, 105.4668
941.7892, 112.4570
942.2713, 133.9473
942.7534, 147.9785
943.2355, 152.8262
943.7177, 155.7227
944.1998, 168.1543
944.6819, 179.4199
945.1640, 176.1816
945.6461, 157.3027
946.1282, 138.5391
946.6104, 120.1680
947.0925, 107.9316
947.5746, 106.7168
948.0567, 113.7812
948.5388, 114.8750
949.0209, 109.2930
949.5031, 97.99219
949.9852, 76.12891
950.4673, 54.50195
950.9494, 44.09570
951.4315, 41.89844
951.9136, 42.01172
952.3958, 42.56055
952.8779, 46.11719
953.3600, 53.58594
953.8421, 63.07422
954.3242, 73.38867
954.8063, 83.87109
955.2885, 89.65430
955.7706, 89.44531
956.2527, 88.92383
956.7348, 95.40430
957.2169, 101.9980
957.6990, 101.3848
958.1811, 90.74023
958.6632, 82.61133
959.1453, 76.65234
959.6274, 74.37305
960.1096, 78.42578
960.5917, 86.39258
961.0738, 86.66211
961.5559, 80.55664
962.0380, 76.47461
962.5201, 81.16016
963.0023, 87.04102
963.4844, 91.87305
963.9665, 94.29688
964.4486, 90.72852
964.9307, 78.71680
965.4128, 67.18945
965.8950, 56.96289
966.3771, 49.25195
966.8592, 49.78125
967.3413, 53.92969
967.8234, 48.46094
968.3055, 29.61719
968.7877, 8.726563
969.2698, 18.93945
969.7519, 36.91992
970.2340, 27.32422
970.7161, 14.76367
971.1982, 31.34180
971.6804, 18.61914
972.1625, 1.185547
972.6446, 5.671875
973.1267, 7.054688
973.6088, 16.56250
974.0909, 30.04492
974.5731, 31.93750
975.0552, 2.015625
975.5373, 24.11328
976.0194, 36.77734
976.5015, 37.83203
976.9836, 24.76758
977.4658, 4.339844
977.9479, 11.01172
978.4300, 16.51758
978.9121, 49.60742
979.3942, 55.65625
979.8763, 48.38477
980.3585, 45.52148
980.8406, 51.04688
981.3227, 58.97461
981.8048, 73.18164
982.2869, 83.90820
982.7690, 86.08594
983.2512, 80.18945
983.7333, 65.56641
984.2154, 43.28125
984.6975, 26.91797
985.1796, 27.44336
985.6617, 34.19531
986.1439, 43.08984
986.6260, 51.63281
987.1081, 51.97852
987.5902, 36.28125
988.0723, 27.61133
988.5544, 30.61328
989.0366, 39.00391
989.5187, 45.41797
990.0008, 49.29688
990.4829, 47.79688
990.9650, 39.42773
991.4471, 32.46680
991.9293, 34.18750
992.4114, 37.50586
992.8935, 37.37305
993.3756, 33.75391
993.8577, 27.01172
994.3398, 15.99023
994.8220, 8.908203
995.3041, 11.97461
995.7862, 20.81250
996.2683, 32.79102
996.7504, 44.38867
997.2325, 45.90234
997.7147, 16.03516
998.1968, 1.779297
998.6789, 9.037109
999.1610, 30.72461
999.6431, 37.50195
1000.125, 29.38867
1000.607, 18.99414
1001.089, 7.281250
1001.572, 9.1797002E-02
1002.054, 3.412109
1002.536, 13.28906
1003.018, 28.83398
1003.500, 51.36914
1003.982, 58.22852
1004.464, 41.93359
1004.946, 22.28906
1005.429, 3.246094
1005.911, 10.54492
1006.393, 3.527344
1006.875, 38.35156
1007.357, 63.14062
1007.839, 55.94141
1008.321, 46.27344
1008.803, 50.64844
1009.285, 60.21094
1009.768, 61.92383
1010.250, 53.17578
1010.732, 44.96094
1011.214, 37.31445
1011.696, 33.71680
1012.178, 41.69922
1012.660, 54.31055
1013.142, 60.74609
1013.625, 60.58398
1014.107, 61.00781
1014.589, 70.75000
1015.071, 74.31055
1015.553, 64.35352
1016.035, 45.83203
1016.517, 34.78320
1016.999, 30.76172
1017.481, 29.00195
1017.964, 27.26562
1018.446, 28.36328
1018.928, 39.79883
1019.410, 52.83789
1019.892, 55.94922
1020.374, 42.19336
1020.856, 31.60352
1021.338, 23.86719
1021.820, 19.94531
1022.303, 21.36719
1022.785, 26.98438
1023.267, 36.81836
1023.749, 49.26758
1024.231, 55.38477
1024.713, 47.13281
1025.195, 35.75195
1025.677, 22.08984
1026.160, 9.708984
1026.642, 6.945313
1027.124, 12.94531
1027.606, 16.94922
1028.088, 18.30859
1028.570, 21.77344
1029.052, 29.56445
1029.534, 39.31836
1030.016, 49.62500
1030.499, 61.47461
1030.981, 64.30273
1031.463, 52.88086
1031.945, 40.17578
1032.427, 34.01953
1032.909, 34.04688
1033.391, 29.00781
1033.873, 20.52734
1034.356, 16.89062
1034.838, 25.88281
1035.320, 35.55859
1035.802, 37.62109
1036.284, 40.45898
1036.766, 54.88672
1037.248, 85.11328
1037.730, 100.4414
1038.213, 97.50586
1038.695, 89.74805
1039.177, 88.96094
1039.659, 90.82227
1040.141, 91.41016
1040.623, 90.02539
1041.105, 83.10352
1041.587, 62.15039
1042.069, 47.47070
1042.552, 45.28320
1043.034, 51.29492
1043.516, 58.08984
1043.998, 64.91406
1044.480, 68.06445
1044.962, 66.53906
1045.444, 62.04883
1045.926, 56.79883
1046.408, 48.31836
1046.891, 31.16797
1047.373, 2.087891
1047.855, 1.044922
1048.337, 31.65625
1048.819, 59.09180
1049.301, 54.71875
1049.783, 39.52734
1050.265, 40.27539
1050.748, 51.79492
1051.230, 60.22461
1051.712, 54.69727
1052.194, 56.33984
1052.676, 71.25391
1053.158, 86.68945
1053.640, 81.97266
1054.122, 63.23047
1054.604, 54.52734
1055.087, 58.36719
1055.569, 68.66992
1056.051, 95.41016
1056.533, 114.4922
1057.015, 105.2051
1057.497, 75.41992
1057.979, 61.14844
1058.461, 63.64258
1058.943, 69.02344
1059.426, 75.79297
1059.908, 77.13867
1060.390, 56.63086
1060.872, 29.35742
1061.354, 17.38281
1061.836, 35.73438
1062.318, 40.07227
1062.800, 22.05664
1063.283, 4.082031
1063.765, 0.1777340
1064.247, 8.259766
1064.729, 18.93945
1065.211, 31.99805
1065.693, 46.23047
1066.175, 70.80273
1066.657, 85.01562
1067.140, 74.00977
1067.622, 53.10938
1068.104, 41.11523
1068.586, 38.22461
1069.068, 41.67383
1069.550, 52.23633
1070.032, 57.72266
1070.514, 33.19336
1070.996, 7.554688
1071.479, 11.51953
1071.961, 45.10742
1072.443, 64.64453
1072.925, 66.42578
1073.407, 61.10547
1073.889, 49.77539
1074.371, 36.83984
1074.853, 25.65039
1075.335, 16.80859
1075.818, 14.75586
1076.300, 23.74219
1076.782, 33.62305
1077.264, 45.14844
1077.746, 51.41992
1078.228, 46.36523
1078.710, 32.73828
1079.192, 29.08398
1079.675, 33.95703
1080.157, 37.24609
1080.639, 31.00391
1081.121, 24.43555
1081.603, 21.89258
1082.085, 22.54297
1082.567, 25.55859
1083.049, 32.26953
1083.531, 32.50586
1084.014, 24.60938
1084.496, 18.71289
1084.978, 27.28711
1085.460, 40.38672
1085.942, 48.56836
1086.424, 51.23438
1086.906, 46.78516
1087.388, 27.09180
1087.870, 17.74414
1088.353, 27.63477
1088.835, 43.42773
1089.317, 39.76367
1089.799, 25.24219
1090.281, 20.71289
1090.763, 30.96094
1091.245, 42.29102
1091.727, 53.63086
1092.209, 58.98047
1092.692, 52.36914
1093.174, 37.57812
1093.656, 35.42383
1094.138, 44.52734
1094.620, 54.52539
1095.102, 62.51758
1095.584, 67.50977
1096.066, 69.92383
1096.549, 68.07812
1097.031, 59.05078
1097.513, 40.39258
1097.995, 28.38281
1098.477, 23.85547
1098.959, 20.75586
1099.441, 13.22266
1099.923, 6.265625
1100.406, 7.132813
1100.888, 13.59961
1101.370, 18.88672
1101.852, 16.33203
1102.334, 23.41797
1102.816, 46.24414
1103.298, 68.84766
1103.780, 70.58984
1104.262, 58.70508
1104.745, 48.61719
1105.227, 41.64844
1105.709, 38.33008
1106.191, 42.99023
1106.673, 46.45117
1107.155, 45.78125
1107.637, 42.00781
1108.119, 35.96484
1108.601, 28.56055
1109.084, 26.45898
1109.566, 32.61133
1110.048, 36.89453
1110.530, 28.24023
1111.012, 18.64062
1111.494, 17.42383
1111.976, 24.12305
1112.458, 31.87109
1112.941, 40.67969
1113.423, 51.26758
1113.905, 67.82227
1114.387, 79.71875
1114.869, 68.69141
1115.351, 48.67383
1115.833, 40.91797
1116.315, 57.71875
1116.797, 56.44922
1117.280, 31.44727
1117.762, 9.322266
1118.244, 12.75195
1118.726, 29.32422
1119.208, 41.09570
1119.690, 48.36523
1120.172, 52.33789
1120.654, 48.47656
1121.136, 49.41406
1121.619, 60.42383
1122.101, 69.29102
1122.583, 57.96094
1123.065, 33.56445
1123.547, 15.11133
1124.029, 4.525391
1124.511, 8.417969
1124.993, 57.15039
1125.476, 87.77930
1125.958, 71.92383
1126.440, 30.59570
1126.922, 2.425781
1127.404, 12.97070
1127.886, 17.98047
1128.368, 11.73438
1128.850, 5.376953
1129.333, 6.298828
1129.815, 10.33398
1130.297, 15.23828
1130.779, 20.66602
1131.261, 27.38672
1131.743, 35.94727
1132.225, 33.87695
1132.707, 12.75391
1133.189, 8.220703
1133.672, 5.552734
1134.154, 4.847656
1134.636, 3.285156
1135.118, 15.41016
1135.600, 24.16016
1136.082, 20.94141
1136.564, 17.78906
1137.046, 22.99219
1137.528, 29.92578
1138.011, 27.52539
1138.493, 20.13281
1138.975, 15.48633
1139.457, 15.93750
1139.939, 19.64648
1140.421, 28.03320
1140.903, 36.23633
1141.385, 41.46484
1141.868, 43.38867
1142.350, 39.49805
1142.832, 31.46680
1143.314, 25.83008
1143.796, 22.95312
1144.278, 26.84570
1144.760, 42.66016
1145.242, 58.12695
1145.724, 53.57227
1146.207, 36.22070
1146.689, 32.52344
1147.171, 43.77539
1147.653, 59.08398
1148.135, 80.29883
1148.617, 94.89258
1149.099, 98.17578
1149.581, 93.20703
1150.063, 81.38477
1150.546, 65.08008
1151.028, 65.52344
1151.510, 87.91211
1151.992, 103.1211
1152.474, 80.84766
1152.956, 55.25000
1153.438, 45.59375
1153.920, 50.32031
1154.403, 68.83789
1154.885, 100.4609
1155.367, 119.5957
1155.849, 116.8223
1156.331, 106.8223
1156.813, 94.39453
1157.295, 86.08594
1157.777, 93.49219
1158.260, 116.3516
1158.742, 118.3594
1159.224, 98.08984
1159.706, 77.71289
1160.188, 64.04688
1160.670, 58.87500
1161.152, 70.55273
1161.634, 88.66797
1162.116, 99.35938
1162.599, 100.3770
1163.081, 92.85938
1163.563, 72.94141
1164.045, 63.84570
1164.527, 86.65039
1165.009, 121.6289
1165.491, 151.0840
1165.973, 171.6270
1166.455, 175.5547
1166.938, 151.1836
1167.420, 129.9355
1167.902, 111.2734
1168.384, 98.99023
1168.866, 100.5840
1169.348, 108.4590
1169.830, 112.0215
1170.312, 111.0645
1170.795, 105.2207
1171.277, 87.77344
1171.759, 76.29102
1172.241, 72.22266
1172.723, 74.32422
1173.205, 85.39453
1173.687, 99.83594
1174.169, 106.0664
1174.651, 104.4922
1175.134, 103.0762
1175.616, 104.7852
1176.098, 106.2227
1176.580, 106.8926
1177.062, 106.6992
1177.544, 104.9629
1178.026, 102.4824
1178.508, 102.0625
1178.990, 103.8867
1179.473, 104.0391
1179.955, 95.22852
1180.437, 95.32227
1180.919, 113.4258
1181.401, 133.1250
1181.883, 116.5801
1182.365, 81.29297
1182.847, 85.22070
1183.330, 143.5156
1183.812, 185.8867
1184.294, 168.8711
1184.776, 140.6973
1185.258, 114.7188
1185.740, 94.18945
1186.222, 91.92969
1186.704, 103.8281
1187.187, 112.8750
1187.669, 114.1133
1188.151, 114.2637
1188.633, 113.1465
1189.115, 115.4746
1189.597, 125.0938
1190.079, 140.0742
1190.561, 153.7207
1191.043, 164.0469
1191.526, 160.0293
1192.008, 129.0391
1192.490, 104.0117
1192.972, 106.7344
1193.454, 116.0215
1193.936, 117.8223
1194.418, 113.0215
1194.900, 110.8242
1195.382, 110.4434
1195.865, 105.8848
1196.347, 91.33398
1196.829, 77.72852
1197.311, 71.30078
1197.793, 68.14844
1198.275, 65.48242
1198.757, 63.51172
1199.239, 61.34180
1199.722, 59.10938
1200.204, 56.81445
1200.686, 52.86914
1201.168, 50.65234
1201.650, 53.62500
1202.132, 57.79102
1202.614, 57.42578
1203.096, 52.36328
1203.578, 55.61133
1204.061, 66.81836
1204.543, 80.47852
1205.025, 99.22852
1205.507, 112.8047
1205.989, 110.9883
1206.471, 103.1348
1206.953, 99.59180
1207.435, 100.3594
1207.917, 114.7559
1208.400, 142.0273
1208.882, 157.7871
1209.364, 130.6562
1209.846, 102.6211
1210.328, 99.71094
1210.810, 109.7969
1211.292, 115.9590
1211.774, 118.3574
1212.257, 124.1230
1212.739, 133.8945
1213.221, 139.4180
1213.703, 130.6934
1214.185, 120.8750
1214.667, 113.9180
1215.149, 112.7129
1215.631, 128.6250
1216.114, 159.7246
1216.596, 169.7344
1217.078, 153.5254
1217.560, 138.2734
1218.042, 148.7559
1218.524, 158.8047
1219.006, 150.7500
1219.488, 132.9355
1219.970, 122.4902
1220.453, 119.2969
1220.935, 124.8008
1221.417, 140.1621
1221.899, 148.4961
1222.381, 131.0039
1222.863, 111.5312
1223.345, 103.1992
1223.827, 103.1250
1224.309, 104.3477
1224.792, 106.7207
1225.274, 108.5898
1225.756, 109.5527
1226.238, 110.5938
1226.720, 108.7461
1227.202, 111.1113
1227.684, 123.3516
1228.166, 140.8418
1228.649, 150.5645
1229.131, 152.5391
1229.613, 144.9062
1230.095, 125.1719
1230.577, 109.2969
1231.059, 113.2500
1231.541, 115.0957
1232.023, 100.9375
1232.505, 77.99219
1232.988, 71.68750
1233.470, 77.92578
1233.952, 78.74805
1234.434, 68.56055
1234.916, 58.45117
1235.398, 55.52734
1235.880, 52.99414
1236.362, 50.18555
1236.844, 44.32227
1237.327, 17.50195
1237.809, 20.74609
1238.291, 35.95117
1238.773, 10.82422
1239.255, 8.767578
1239.737, 0.8847660
1240.219, 10.81445
1240.701, 17.67578
1241.184, 20.00195
1241.666, 20.33398
1242.148, 17.24023
1242.630, 2.904297
1243.112, 31.29883
1243.594, 55.35352
1244.076, 60.01367
1244.558, 57.37891
1245.041, 50.68750
1245.523, 42.63672
1246.005, 38.63281
1246.487, 39.00391
1246.969, 45.64648
1247.451, 64.08398
1247.933, 73.51758
1248.415, 68.96484
1248.897, 63.42188
1249.380, 63.44531
1249.862, 67.79297
1250.344, 75.66797
1250.826, 85.27344
1251.308, 93.91406
1251.790, 103.5547
1252.272, 102.8457
1252.754, 87.78711
1253.236, 74.78320
1253.719, 74.91016
1254.201, 80.69531
1254.683, 81.61328
1255.165, 79.18555
1255.647, 75.20703
1256.129, 68.77344
1256.611, 64.93359
1257.093, 63.89844
1257.576, 64.56641
1258.058, 67.56250
1258.540, 70.16211
1259.022, 67.28711
1259.504, 62.35156
1259.986, 60.88477
1260.468, 63.49219
1260.950, 68.40820
1261.432, 76.12500
1261.915, 78.86523
1262.397, 68.94531
1262.879, 56.78320
1263.361, 46.99023
1263.843, 43.92773
1264.325, 57.52344
1264.807, 92.90820
1265.289, 93.40625
1265.771, 60.17383
1266.254, 32.80469
1266.736, 38.78320
1267.218, 49.86328
1267.700, 46.73828
1268.182, 39.90820
1268.664, 41.38477
1269.146, 50.66211
1269.628, 49.97461
1270.111, 41.50000
1270.593, 45.34570
1271.075, 85.32422
1271.557, 119.0605
1272.039, 119.0762
1272.521, 110.4883
1273.003, 91.01758
1273.485, 60.70703
1273.968, 38.63477
1274.450, 28.96484
1274.932, 23.07617
1275.414, 12.33008
1275.896, 10.99609
1276.378, 26.87695
1276.860, 45.94531
1277.342, 59.05469
1277.824, 66.74414
1278.307, 69.68945
1278.789, 68.78320
1279.271, 66.72070
1279.753, 61.24219
1280.235, 60.18750
1280.717, 65.42383
1281.199, 70.22852
1281.681, 69.49023
1282.163, 65.71875
1282.646, 62.34570
1283.128, 59.80469
1283.610, 59.14844
1284.092, 61.13086
1284.574, 65.35547
1285.056, 73.69336
1285.538, 77.04688
1286.020, 67.43164
1286.503, 51.07227
1286.985, 25.56250
1287.467, 1.705078
1287.949, 0.4843750
1288.431, 26.06641
1288.913, 32.55664
1289.395, 18.39258
1289.877, 7.074219
1290.359, 13.72852
1290.842, 23.08594
1291.324, 27.55859
1291.806, 29.08789
1292.288, 30.41992
1292.770, 31.45898
1293.252, 30.79688
1293.734, 28.73242
1294.216, 28.65820
1294.698, 33.28516
1295.181, 37.93750
1295.663, 42.62109
1296.145, 44.55859
1296.627, 40.06836
1297.109, 30.68359
1297.591, 20.00781
1298.073, 7.765625
1298.555, 0.3203130
1299.038, 4.691406
1299.520, 0.4433590
1300.002, 18.17578
1300.484, 36.32227
1300.966, 41.16016
1301.448, 38.43164
1301.930, 44.47461
1302.412, 45.93555
1302.895, 44.87305
1303.377, 29.99219
1303.859, 22.44727
1304.341, 25.52734
1304.823, 22.26758
1305.305, 0.0000000E+00
##END=



