##NAMES=Boromuscovite
##RRUFFID=R070107
##IDEAL CHEMISTRY=KAl_2_(Si_3_B)O_10_(OH)_2_
##LOCALITY=Little 3 mine, Ramona, California, USA
##OWNER=RRUFF
##SOURCE=Jeffrey E. Patterson
##DESCRIPTION=White fine-grained micaceous on elbaite
##STATUS=The identification of this mineral is not yet confirmed.
##URL=rruff.info/R070107
186.8215, 0.0000000E+00
187.3036, 1.291016
187.7857, 8.349609
188.2678, 16.61523
188.7500, 22.57617
189.2321, 26.16016
189.7142, 33.28125
190.1963, 56.89453
190.6784, 91.50000
191.1605, 97.63867
191.6427, 67.07812
192.1248, 23.57812
192.6069, 9.669922
193.0890, 26.77734
193.5711, 54.18945
194.0532, 48.04297
194.5354, 20.48633
195.0175, 20.39453
195.4996, 57.75781
195.9817, 115.6660
196.4638, 163.8242
196.9460, 203.7305
197.4281, 224.0781
197.9102, 213.6074
198.3923, 171.0723
198.8744, 119.3848
199.3565, 50.92773
199.8387, 18.51562
200.3208, 34.98242
200.8029, 12.84180
201.2850, 71.10742
201.7671, 98.52344
202.2492, 90.82031
202.7314, 90.89062
203.2135, 106.3398
203.6956, 133.5469
204.1777, 161.6172
204.6598, 196.9160
205.1419, 216.4160
205.6241, 189.3789
206.1062, 100.0234
206.5883, 43.31250
207.0704, 44.27344
207.5525, 94.12891
208.0346, 124.4512
208.5168, 130.1016
208.9989, 126.0488
209.4810, 125.4023
209.9631, 128.9746
210.4452, 132.2129
210.9273, 133.5996
211.4095, 133.3750
211.8916, 138.0117
212.3737, 150.4805
212.8558, 163.5605
213.3379, 172.2832
213.8200, 179.0801
214.3022, 173.0352
214.7843, 146.8691
215.2664, 99.59766
215.7485, 62.19336
216.2306, 29.47266
216.7127, 12.60938
217.1949, 30.14062
217.6770, 102.1934
218.1591, 164.4160
218.6412, 200.8125
219.1233, 208.2285
219.6054, 215.9004
220.0876, 233.2988
220.5697, 242.2285
221.0518, 210.0723
221.5339, 99.59766
222.0160, 23.65625
222.4981, 26.06836
222.9803, 127.2734
223.4624, 188.3906
223.9445, 192.6816
224.4266, 168.4805
224.9087, 157.7930
225.3908, 167.2207
225.8730, 178.2773
226.3551, 185.3965
226.8372, 188.3242
227.3193, 189.0176
227.8014, 183.2891
228.2835, 178.1543
228.7657, 190.3574
229.2478, 246.8066
229.7299, 276.7402
230.2120, 243.3828
230.6941, 107.9980
231.1762, 40.98242
231.6584, 69.71875
232.1405, 153.7520
232.6226, 216.8320
233.1047, 262.9297
233.5868, 281.6074
234.0689, 259.7305
234.5511, 169.7812
235.0332, 120.7578
235.5153, 128.6191
235.9974, 171.2266
236.4795, 201.7773
236.9616, 220.1621
237.4438, 226.6836
237.9259, 219.4766
238.4080, 192.4688
238.8901, 166.9238
239.3722, 137.0781
239.8543, 110.4395
240.3365, 105.1855
240.8186, 128.1777
241.3007, 162.6875
241.7828, 207.5527
242.2649, 283.1621
242.7470, 316.8047
243.2292, 290.2520
243.7113, 226.6211
244.1934, 183.4395
244.6755, 162.3926
245.1576, 156.7168
245.6397, 165.9492
246.1219, 202.6758
246.6040, 224.2188
247.0861, 227.4102
247.5682, 216.1602
248.0503, 199.6289
248.5324, 172.8594
249.0146, 148.0859
249.4967, 129.5762
249.9788, 114.2168
250.4609, 113.3945
250.9430, 132.9707
251.4251, 165.4082
251.9073, 195.5957
252.3894, 235.3145
252.8715, 254.1543
253.3536, 232.3047
253.8357, 143.5742
254.3178, 78.41406
254.8000, 37.98438
255.2821, 21.87891
255.7642, 31.77539
256.2463, 80.32031
256.7284, 133.8457
257.2105, 179.7617
257.6927, 227.6875
258.1748, 238.5586
258.6569, 195.4531
259.1390, 123.5664
259.6211, 92.28516
260.1032, 113.3672
260.5854, 148.7324
261.0675, 182.3125
261.5496, 215.1504
262.0317, 245.3242
262.5138, 279.0176
262.9959, 306.7285
263.4781, 299.2480
263.9602, 237.5957
264.4423, 181.9082
264.9244, 166.3789
265.4065, 206.9160
265.8886, 227.7773
266.3708, 219.2168
266.8529, 195.0488
267.3350, 186.9980
267.8171, 199.8418
268.2992, 216.9727
268.7813, 229.5996
269.2635, 235.8965
269.7456, 252.6680
270.2277, 290.7656
270.7098, 329.5254
271.1919, 312.4336
271.6740, 221.3086
272.1562, 136.6855
272.6383, 96.95508
273.1204, 106.1172
273.6025, 135.9121
274.0846, 197.9590
274.5667, 267.2578
275.0489, 295.1875
275.5310, 275.6133
276.0131, 243.4277
276.4952, 208.9082
276.9773, 170.7148
277.4594, 150.0195
277.9416, 148.9805
278.4237, 162.8496
278.9058, 187.3945
279.3879, 224.0273
279.8700, 260.2734
280.3521, 294.8320
280.8343, 328.1504
281.3164, 338.9902
281.7985, 322.5039
282.2806, 293.1973
282.7627, 271.4609
283.2448, 257.3379
283.7270, 249.9180
284.2091, 260.3887
284.6912, 284.5137
285.1733, 264.0918
285.6554, 187.0664
286.1375, 101.6035
286.6197, 81.40234
287.1018, 123.8027
287.5839, 169.7246
288.0660, 193.0723
288.5481, 198.5801
289.0303, 212.3867
289.5124, 236.4219
289.9945, 257.9805
290.4766, 257.7930
290.9587, 238.4844
291.4409, 217.7344
291.9230, 199.0430
292.4051, 184.6250
292.8872, 184.2109
293.3693, 200.2930
293.8514, 213.7383
294.3336, 197.7852
294.8157, 159.7578
295.2978, 130.3594
295.7799, 124.7930
296.2620, 134.0000
296.7441, 143.3672
297.2263, 153.2930
297.7084, 157.8477
298.1905, 145.2539
298.6726, 120.8086
299.1547, 97.89453
299.6368, 73.93359
300.1190, 58.48438
300.6011, 72.49219
301.0832, 117.8594
301.5653, 159.1055
302.0474, 164.1602
302.5295, 145.4922
303.0117, 125.3672
303.4938, 107.9531
303.9759, 94.51953
304.4580, 88.25391
304.9401, 88.47656
305.4222, 88.25781
305.9044, 82.05469
306.3865, 72.96875
306.8686, 65.66797
307.3507, 62.66016
307.8328, 60.45312
308.3149, 57.98438
308.7971, 54.61719
309.2792, 48.32422
309.7613, 20.69922
310.2434, 1.871094
310.7255, 9.839844
311.2076, 80.78516
311.6898, 157.5469
312.1719, 222.6719
312.6540, 269.3398
313.1361, 277.4297
313.6182, 196.4062
314.1003, 98.18359
314.5825, 38.10938
315.0646, 41.93359
315.5467, 48.65625
316.0288, 13.20312
316.5109, 38.20312
316.9930, 49.50391
317.4752, 59.84375
317.9573, 170.7656
318.4394, 209.7422
318.9215, 139.3008
319.4036, 80.77344
319.8857, 81.60938
320.3679, 115.1445
320.8500, 140.3281
321.3321, 141.9297
321.8142, 137.5938
322.2963, 135.5859
322.7784, 140.2383
323.2606, 132.0977
323.7427, 84.82812
324.2248, 31.34766
324.7069, 10.23438
325.1890, 58.79297
325.6711, 107.4102
326.1533, 146.1133
326.6354, 176.1523
327.1175, 181.0391
327.5996, 125.3008
328.0817, 62.69922
328.5638, 41.50781
329.0460, 109.2031
329.5281, 155.2656
330.0102, 155.2188
330.4923, 109.8438
330.9744, 83.48438
331.4565, 86.29688
331.9387, 98.33984
332.4208, 105.7227
332.9029, 107.7578
333.3850, 105.3008
333.8671, 95.38672
334.3492, 80.25391
334.8314, 76.85156
335.3135, 92.39453
335.7956, 108.9805
336.2777, 116.6289
336.7598, 114.6914
337.2419, 104.9023
337.7241, 82.89844
338.2062, 55.83594
338.6883, 43.76953
339.1704, 48.66406
339.6525, 61.92578
340.1346, 85.41016
340.6168, 120.4961
341.0989, 135.3750
341.5810, 122.7695
342.0631, 97.18359
342.5452, 93.86328
343.0273, 114.9492
343.5095, 132.1680
343.9916, 132.8086
344.4737, 118.1797
344.9558, 94.15625
345.4379, 56.31641
345.9200, 29.83203
346.4022, 64.28125
346.8843, 147.1953
347.3664, 205.2656
347.8485, 204.5859
348.3306, 162.6055
348.8127, 107.6797
349.2949, 38.49219
349.7770, 9.851563
350.2591, 16.63281
350.7412, 90.04297
351.2233, 140.5703
351.7054, 139.0039
352.1876, 111.5156
352.6697, 86.96094
353.1518, 65.08203
353.6339, 43.97266
354.1160, 15.48828
354.5981, 12.58203
355.0803, 26.61719
355.5624, 15.69141
356.0445, 3.523438
356.5266, 22.08594
357.0087, 57.59375
357.4908, 67.57812
357.9730, 8.707031
358.4551, 96.58594
358.9372, 132.4336
359.4193, 88.27734
359.9014, 45.17969
360.3835, 43.80859
360.8657, 68.91797
361.3478, 94.38672
361.8299, 122.3672
362.3120, 139.3242
362.7941, 133.0820
363.2762, 96.66406
363.7584, 73.50781
364.2405, 94.62891
364.7226, 126.7188
365.2047, 134.6445
365.6868, 85.28906
366.1689, 36.35938
366.6511, 3.167969
367.1332, 33.42969
367.6153, 41.45312
368.0974, 18.72656
368.5795, 18.22266
369.0616, 64.82031
369.5438, 156.5898
370.0259, 208.5547
370.5080, 197.6797
370.9901, 137.2461
371.4722, 95.26953
371.9543, 81.10938
372.4365, 72.42578
372.9186, 56.58984
373.4007, 28.14062
373.8828, 8.746094
374.3649, 0.3437500
374.8470, 1.054688
375.3292, 5.789063
375.8113, 20.19141
376.2934, 22.28906
376.7755, 3.425781
377.2576, 58.55859
377.7397, 94.64453
378.2219, 107.9414
378.7040, 108.8281
379.1861, 104.9297
379.6682, 96.48438
380.1503, 98.08984
380.6324, 126.7930
381.1146, 166.3750
381.5967, 148.9727
382.0788, 70.09375
382.5609, 4.613281
383.0430, 54.05078
383.5251, 176.4023
384.0073, 235.0820
384.4894, 172.9844
384.9715, 63.97266
385.4536, 4.765625
385.9357, 8.886719
386.4178, 0.6054690
386.9000, 33.06641
387.3821, 72.64844
387.8642, 88.16797
388.3463, 66.12500
388.8284, 47.78906
389.3105, 87.86719
389.7927, 155.3789
390.2748, 187.4922
390.7569, 97.89844
391.2390, 4.496094
391.7211, 2.585938
392.2032, 108.7578
392.6854, 195.5312
393.1675, 178.9023
393.6496, 124.1953
394.1317, 100.9023
394.6138, 178.3047
395.0959, 239.4727
395.5781, 240.2344
396.0602, 184.8633
396.5423, 135.1250
397.0244, 106.0312
397.5065, 82.62109
397.9886, 56.26562
398.4708, 2.203125
398.9529, 27.21094
399.4350, 7.679688
399.9171, 80.75781
400.3992, 114.8008
400.8813, 67.09766
401.3635, 23.78125
401.8456, 20.38281
402.3277, 74.06250
402.8098, 93.67969
403.2919, 57.55078
403.7740, 10.59766
404.2562, 26.51562
404.7383, 131.9688
405.2204, 204.2266
405.7025, 196.9336
406.1846, 123.3125
406.6667, 92.47266
407.1489, 111.6172
407.6310, 143.0039
408.1131, 155.8672
408.5952, 150.8750
409.0773, 136.2109
409.5594, 110.0469
410.0416, 79.67188
410.5237, 49.42578
411.0058, 21.66406
411.4879, 19.96484
411.9700, 81.09375
412.4521, 175.1133
412.9343, 244.8516
413.4164, 288.4062
413.8985, 300.2539
414.3806, 245.2305
414.8628, 155.3047
415.3449, 94.38672
415.8270, 120.1328
416.3091, 167.9219
416.7912, 185.7773
417.2733, 173.6406
417.7555, 158.1523
418.2376, 144.8398
418.7197, 139.7148
419.2018, 149.6445
419.6839, 207.0625
420.1660, 244.0977
420.6482, 226.0625
421.1303, 166.7773
421.6124, 112.9492
422.0945, 54.96484
422.5766, 18.68359
423.0587, 23.70703
423.5409, 110.4648
424.0230, 151.7500
424.5051, 95.24219
424.9872, 5.746094
425.4693, 23.89844
425.9514, 41.58203
426.4336, 119.5156
426.9157, 203.3750
427.3978, 293.4492
427.8799, 321.9883
428.3620, 262.1992
428.8441, 182.2695
429.3263, 138.8945
429.8084, 138.2500
430.2905, 139.6055
430.7726, 137.7344
431.2547, 134.4453
431.7368, 135.9609
432.2190, 142.5273
432.7011, 145.7422
433.1832, 137.3789
433.6653, 119.5898
434.1474, 105.4336
434.6295, 96.64453
435.1117, 93.54688
435.5938, 101.8359
436.0759, 117.9531
436.5580, 130.3711
437.0401, 122.0469
437.5222, 114.9023
438.0044, 148.8594
438.4865, 218.6562
438.9686, 275.7500
439.4507, 276.1094
439.9328, 251.5508
440.4149, 238.2266
440.8971, 256.6172
441.3792, 265.1602
441.8613, 232.2578
442.3434, 174.1445
442.8255, 125.6367
443.3076, 97.62109
443.7898, 83.02734
444.2719, 81.39062
444.7540, 97.12891
445.2361, 112.7695
445.7182, 127.3711
446.2003, 139.4883
446.6825, 148.0820
447.1646, 152.6367
447.6467, 154.7656
448.1288, 150.4844
448.6109, 142.6914
449.0930, 147.8555
449.5752, 176.5820
450.0573, 201.3242
450.5394, 205.2227
451.0215, 183.8828
451.5036, 158.7109
451.9857, 124.2891
452.4679, 95.11328
452.9500, 102.0469
453.4321, 147.6094
453.9142, 184.2188
454.3963, 191.7070
454.8784, 177.7422
455.3606, 177.2578
455.8427, 191.1836
456.3248, 186.1055
456.8069, 87.56641
457.2890, 47.82422
457.7711, 78.45312
458.2533, 68.94922
458.7354, 240.1602
459.2175, 260.4375
459.6996, 168.9883
460.1817, 80.10938
460.6638, 39.32031
461.1460, 35.33203
461.6281, 75.87500
462.1102, 168.9805
462.5923, 234.2344
463.0744, 202.5430
463.5565, 139.9062
464.0387, 110.1445
464.5208, 165.2695
465.0029, 217.8320
465.4850, 254.1445
465.9671, 273.7109
466.4492, 269.1836
466.9314, 203.0078
467.4135, 147.5391
467.8956, 135.0352
468.3777, 190.8633
468.8598, 217.4219
469.3419, 204.9375
469.8241, 173.0117
470.3062, 147.6680
470.7883, 133.3125
471.2704, 108.3047
471.7525, 55.18750
472.2346, 14.03125
472.7168, 22.79688
473.1989, 35.24609
473.6810, 109.2930
474.1631, 168.2109
474.6452, 211.6406
475.1273, 233.9805
475.6095, 230.1758
476.0916, 218.3828
476.5737, 235.1367
477.0558, 266.4922
477.5379, 268.5820
478.0201, 178.6758
478.5022, 73.14062
478.9843, 31.83984
479.4664, 55.26172
479.9485, 109.9102
480.4306, 225.9727
480.9128, 338.6953
481.3949, 383.7500
481.8770, 293.4805
482.3591, 207.1992
482.8412, 170.8203
483.3233, 170.0039
483.8055, 176.6250
484.2876, 200.1211
484.7697, 210.7422
485.2518, 187.7695
485.7339, 118.3945
486.2160, 97.05078
486.6982, 155.0547
487.1803, 225.9219
487.6624, 257.1172
488.1445, 226.6328
488.6266, 218.5977
489.1087, 256.6406
489.5909, 316.2578
490.0730, 317.5898
490.5551, 249.4570
491.0372, 192.4219
491.5193, 210.8594
492.0014, 286.1016
492.4836, 288.8203
492.9657, 208.3164
493.4478, 112.0938
493.9299, 64.09375
494.4120, 57.87500
494.8941, 79.69141
495.3763, 146.7500
495.8584, 215.2812
496.3405, 228.9492
496.8226, 200.4023
497.3047, 171.2969
497.7868, 169.2969
498.2690, 173.9375
498.7511, 170.3594
499.2332, 156.2188
499.7153, 133.9609
500.1974, 75.86719
500.6795, 21.35547
501.1617, 12.49609
501.6438, 121.1445
502.1259, 202.7148
502.6080, 228.2383
503.0901, 206.3008
503.5722, 172.4883
504.0544, 104.3320
504.5365, 55.40234
505.0186, 57.43750
505.5007, 128.2695
505.9828, 155.0078
506.4649, 118.5742
506.9471, 73.18359
507.4292, 103.4062
507.9113, 212.8008
508.3934, 275.9961
508.8755, 245.1445
509.3576, 162.4297
509.8398, 115.1445
510.3219, 101.6641
510.8040, 104.5898
511.2861, 123.6680
511.7682, 148.3867
512.2504, 156.7930
512.7325, 144.2148
513.2146, 139.1836
513.6967, 173.8477
514.1788, 226.8516
514.6609, 267.8594
515.1431, 281.4219
515.6252, 280.5234
516.1073, 264.4219
516.5894, 235.2812
517.0715, 227.1484
517.5536, 289.8008
518.0358, 338.7305
518.5179, 332.2266
519.0000, 253.0898
519.4821, 171.1133
519.9642, 66.50781
520.4464, 24.67188
520.9285, 62.27734
521.4106, 34.62500
521.8927, 15.31250
522.3748, 97.87109
522.8569, 188.6016
523.3391, 199.7852
523.8212, 123.7852
524.3033, 45.69531
524.7854, 6.296875
525.2675, 3.500000
525.7496, 43.58203
526.2318, 130.7422
526.7139, 214.4922
527.1960, 242.5703
527.6781, 231.4766
528.1602, 213.2578
528.6423, 192.0664
529.1245, 173.9258
529.6066, 166.8828
530.0887, 164.5234
530.5708, 156.7422
531.0529, 137.3047
531.5350, 115.7148
532.0172, 96.16797
532.4993, 78.67578
532.9814, 63.83203
533.4635, 48.05078
533.9456, 38.35938
534.4277, 41.58203
534.9099, 73.26562
535.3920, 88.94141
535.8741, 77.90234
536.3562, 52.17578
536.8383, 40.59766
537.3204, 47.56250
537.8026, 56.00000
538.2847, 57.57031
538.7668, 53.78906
539.2489, 58.27344
539.7310, 72.34375
540.2131, 81.28906
540.6953, 63.24609
541.1774, 30.79297
541.6595, 21.73438
542.1416, 51.59766
542.6237, 80.25781
543.1058, 42.26953
543.5880, 26.00781
544.0701, 51.12109
544.5522, 62.23828
545.0343, 173.0508
545.5164, 180.9297
545.9985, 94.04297
546.4807, 43.05078
546.9628, 112.0977
547.4449, 192.7148
547.9270, 224.5781
548.4091, 182.6367
548.8912, 130.7891
549.3734, 52.69531
549.8555, 24.41016
550.3376, 62.48828
550.8197, 51.59766
551.3018, 30.94922
551.7839, 8.757813
552.2661, 16.46484
552.7482, 59.94531
553.2303, 124.5391
553.7124, 162.4336
554.1945, 121.5625
554.6766, 30.75391
555.1588, 24.80469
555.6409, 39.73438
556.1230, 27.50000
556.6051, 21.13672
557.0872, 84.05078
557.5693, 125.2188
558.0515, 121.7344
558.5336, 111.3203
559.0157, 121.2617
559.4978, 145.1562
559.9799, 160.0430
560.4620, 151.4336
560.9442, 139.8984
561.4263, 132.6328
561.9084, 131.0312
562.3905, 131.2891
562.8726, 132.2148
563.3547, 136.5547
563.8369, 148.2656
564.3190, 174.5469
564.8011, 179.6445
565.2832, 153.0820
565.7653, 117.5547
566.2474, 120.1094
566.7296, 161.7344
567.2117, 179.7969
567.6938, 139.9805
568.1759, 74.26953
568.6580, 56.17188
569.1401, 79.98438
569.6223, 100.3281
570.1044, 68.69922
570.5865, 25.35156
571.0686, 21.76172
571.5507, 69.00000
572.0328, 114.9805
572.5150, 143.7461
572.9971, 151.9219
573.4792, 136.8672
573.9613, 47.34766
574.4434, 7.667969
574.9255, 21.87500
575.4077, 100.6914
575.8898, 130.0742
576.3719, 73.13281
576.8540, 24.44531
577.3361, 13.52344
577.8182, 40.10938
578.3004, 77.47656
578.7825, 134.0977
579.2646, 176.1680
579.7467, 155.9961
580.2288, 83.90625
580.7109, 48.25391
581.1931, 62.57812
581.6752, 99.48438
582.1573, 143.5000
582.6394, 182.9531
583.1215, 194.4453
583.6036, 143.7500
584.0858, 86.96875
584.5679, 70.23047
585.0500, 84.75391
585.5321, 97.82422
586.0142, 93.69141
586.4963, 87.18359
586.9785, 89.65625
587.4606, 107.5781
587.9427, 104.6484
588.4248, 59.67969
588.9069, 10.68359
589.3890, 15.72656
589.8712, 20.03906
590.3533, 6.144531
590.8354, 80.28906
591.3175, 164.0742
591.7996, 172.5117
592.2817, 104.9922
592.7639, 61.97266
593.2460, 94.35547
593.7281, 166.0312
594.2102, 201.9922
594.6923, 204.9805
595.1744, 188.2031
595.6566, 138.3516
596.1387, 85.22656
596.6208, 64.02734
597.1029, 82.21484
597.5850, 102.9609
598.0671, 120.1523
598.5493, 125.6445
599.0314, 111.3320
599.5135, 32.89062
599.9956, 11.43359
600.4777, 4.6875000E-02
600.9598, 46.76172
601.4420, 90.67578
601.9241, 139.3203
602.4062, 171.4180
602.8883, 171.4531
603.3704, 144.2852
603.8525, 117.4453
604.3347, 90.50781
604.8168, 67.79297
605.2989, 54.95703
605.7810, 48.64453
606.2631, 37.03516
606.7452, 18.28516
607.2274, 4.761719
607.7095, 4.093750
608.1916, 13.80859
608.6737, 33.69922
609.1558, 68.06641
609.6379, 106.6914
610.1201, 155.8906
610.6022, 204.6055
611.0843, 233.7227
611.5664, 229.8984
612.0485, 214.9570
612.5306, 192.4141
613.0128, 161.0352
613.4949, 126.6016
613.9770, 89.42188
614.4591, 54.28125
614.9412, 10.80078
615.4233, 42.16406
615.9055, 29.83984
616.3876, 60.94922
616.8697, 154.0195
617.3518, 162.8867
617.8339, 109.0781
618.3160, 50.73828
618.7982, 7.539063
619.2803, 45.68359
619.7624, 41.33984
620.2445, 3.160156
620.7266, 52.00391
621.2087, 149.4961
621.6909, 230.2617
622.1730, 261.9414
622.6551, 249.9922
623.1372, 241.8477
623.6193, 252.7227
624.1014, 258.0625
624.5836, 248.0508
625.0657, 220.9219
625.5478, 184.6094
626.0299, 129.3203
626.5120, 87.11328
626.9941, 99.76953
627.4763, 162.4727
627.9584, 204.0742
628.4405, 211.4023
628.9226, 205.8242
629.4047, 222.8125
629.8868, 249.0898
630.3690, 251.8711
630.8511, 187.7656
631.3332, 124.0625
631.8153, 114.1484
632.2974, 145.4531
632.7795, 175.5312
633.2617, 187.0273
633.7438, 195.6484
634.2259, 212.6953
634.7080, 241.8438
635.1901, 243.6094
635.6722, 197.0078
636.1544, 150.0898
636.6365, 137.6133
637.1186, 165.0078
637.6007, 185.8984
638.0828, 198.0586
638.5649, 204.8672
639.0471, 205.5039
639.5292, 203.0938
640.0113, 210.8477
640.4934, 234.4766
640.9755, 265.6094
641.4576, 309.6211
641.9398, 354.1484
642.4219, 367.8242
642.9040, 307.3125
643.3861, 240.0117
643.8682, 198.4531
644.3503, 182.3008
644.8325, 172.8594
645.3146, 156.5195
645.7967, 157.6445
646.2788, 195.0977
646.7609, 282.3828
647.2430, 320.6367
647.7252, 298.1016
648.2073, 254.9023
648.6894, 222.4766
649.1715, 200.7461
649.6536, 188.0156
650.1357, 183.2734
650.6179, 190.7148
651.1000, 229.3086
651.5821, 284.1953
652.0642, 318.1562
652.5463, 295.8008
653.0284, 273.9531
653.5106, 310.5820
653.9927, 378.1367
654.4748, 400.7656
654.9569, 300.4219
655.4390, 207.7266
655.9211, 174.0703
656.4033, 196.5703
656.8854, 212.2188
657.3675, 215.8633
657.8496, 222.3633
658.3317, 246.0195
658.8138, 287.8828
659.2960, 304.1133
659.7781, 290.5391
660.2602, 272.6406
660.7423, 282.0664
661.2244, 306.8008
661.7065, 315.2617
662.1887, 295.5938
662.6708, 275.5703
663.1529, 280.1406
663.6350, 300.7266
664.1171, 319.7812
664.5992, 328.3984
665.0814, 333.1719
665.5635, 333.9219
666.0456, 331.3047
666.5277, 328.8203
667.0098, 333.5352
667.4919, 325.4180
667.9741, 289.8438
668.4562, 233.2422
668.9383, 217.7109
669.4204, 248.1797
669.9025, 278.5977
670.3846, 272.0078
670.8668, 241.8359
671.3489, 218.6250
671.8310, 203.5391
672.3131, 212.4062
672.7952, 303.6797
673.2773, 403.7617
673.7595, 421.5117
674.2416, 293.5664
674.7237, 190.1406
675.2058, 184.7383
675.6879, 230.0234
676.1700, 264.1992
676.6522, 283.9727
677.1343, 294.7344
677.6164, 297.4375
678.0985, 293.0898
678.5806, 280.4258
679.0627, 258.7930
679.5449, 232.8867
680.0270, 193.7500
680.5091, 158.7344
680.9912, 176.0625
681.4733, 239.9609
681.9554, 308.0430
682.4376, 354.7148
682.9197, 383.7852
683.4018, 401.6758
683.8839, 408.1992
684.3660, 390.2109
684.8481, 310.6914
685.3303, 228.5781
685.8124, 185.6914
686.2945, 200.5508
686.7766, 199.7734
687.2587, 180.5898
687.7408, 149.1836
688.2230, 101.9805
688.7051, 37.08203
689.1872, 7.519531
689.6693, 25.28906
690.1514, 65.59766
690.6335, 103.9297
691.1157, 136.4336
691.5978, 151.6602
692.0799, 129.9766
692.5620, 108.8555
693.0441, 116.7461
693.5262, 146.2812
694.0084, 179.7695
694.4905, 233.6562
694.9726, 267.7500
695.4547, 252.7500
695.9368, 199.6914
696.4189, 191.7969
696.9011, 255.9531
697.3832, 305.0781
697.8653, 288.0664
698.3474, 213.6133
698.8295, 179.6289
699.3116, 187.7227
699.7938, 197.5781
700.2759, 172.9922
700.7580, 129.7383
701.2401, 90.23047
701.7222, 55.96875
702.2043, 35.31250
702.6865, 35.50781
703.1686, 50.34375
703.6507, 75.61328
704.1328, 130.8750
704.6149, 161.9141
705.0970, 144.3945
705.5792, 113.9258
706.0613, 122.9062
706.5434, 189.9805
707.0255, 214.4492
707.5076, 161.6836
707.9897, 84.69141
708.4719, 108.6914
708.9540, 213.6680
709.4361, 282.1094
709.9182, 242.6445
710.4003, 163.4570
710.8824, 108.9219
711.3646, 76.02734
711.8467, 58.08203
712.3288, 58.37109
712.8109, 76.23438
713.2930, 122.3555
713.7751, 196.0000
714.2573, 234.8438
714.7394, 220.6133
715.2215, 197.8633
715.7036, 184.8828
716.1857, 181.7422
716.6678, 194.2500
717.1500, 226.0859
717.6321, 250.1211
718.1142, 238.7305
718.5963, 204.4336
719.0784, 177.1953
719.5605, 162.8086
720.0427, 136.3164
720.5248, 37.53516
721.0070, 62.12109
721.4891, 82.39844
721.9712, 54.35938
722.4533, 164.5781
722.9354, 224.3672
723.4175, 243.7148
723.8997, 224.7070
724.3818, 151.4492
724.8639, 92.53516
725.3460, 58.25391
725.8281, 43.42969
726.3102, 35.08984
726.7924, 36.01953
727.2745, 67.42969
727.7566, 166.5859
728.2387, 264.8633
728.7208, 272.7266
729.2029, 214.7422
729.6851, 163.3906
730.1672, 160.4727
730.6493, 158.6328
731.1314, 141.2539
731.6135, 103.0430
732.0956, 59.80469
732.5778, 7.953125
733.0599, 44.82812
733.5420, 16.79297
734.0241, 67.26953
734.5062, 113.3359
734.9883, 120.0039
735.4705, 112.7656
735.9526, 94.73438
736.4347, 80.57422
736.9168, 116.4805
737.3989, 206.0430
737.8810, 251.0586
738.3632, 125.8008
738.8453, 27.96094
739.3274, 93.29297
739.8095, 20.39453
740.2916, 46.76562
740.7737, 101.9180
741.2559, 143.6133
741.7380, 168.3945
742.2201, 173.6289
742.7022, 173.6133
743.1843, 165.6445
743.6664, 164.0508
744.1486, 204.2969
744.6307, 267.1523
745.1128, 292.4141
745.5949, 255.1562
746.0770, 201.6484
746.5591, 144.4883
747.0413, 101.5078
747.5234, 100.2031
748.0055, 236.3477
748.4876, 306.9102
748.9697, 220.3945
749.4518, 62.78906
749.9340, 24.53516
750.4161, 148.2539
750.8982, 238.6289
751.3803, 233.3594
751.8624, 174.3086
752.3445, 164.2773
752.8267, 197.4609
753.3088, 247.0820
753.7909, 307.7344
754.2730, 346.3828
754.7551, 342.8320
755.2372, 303.0039
755.7194, 253.8867
756.2015, 191.0586
756.6836, 135.0508
757.1657, 78.81250
757.6478, 25.13672
758.1299, 58.43359
758.6121, 224.6953
759.0942, 363.3633
759.5763, 375.0820
760.0584, 280.0859
760.5405, 195.8320
761.0226, 122.8359
761.5048, 76.06641
761.9869, 77.68359
762.4690, 106.2930
762.9511, 142.1562
763.4332, 184.5938
763.9153, 211.7773
764.3975, 191.9297
764.8796, 170.5664
765.3617, 185.5859
765.8438, 263.8047
766.3259, 291.3125
766.8080, 255.1523
767.2902, 183.2266
767.7723, 67.36328
768.2544, 79.80469
768.7365, 124.0781
769.2186, 44.35938
769.7007, 81.67578
770.1829, 220.5156
770.6650, 339.7656
771.1471, 384.2148
771.6292, 318.4688
772.1113, 238.6719
772.5934, 151.1523
773.0756, 83.17969
773.5577, 70.61328
774.0398, 161.4414
774.5219, 203.5039
775.0040, 167.1016
775.4861, 106.2383
775.9683, 109.8203
776.4504, 171.5547
776.9325, 221.3672
777.4146, 246.3047
777.8967, 246.7461
778.3788, 201.7578
778.8610, 133.0586
779.3431, 86.60938
779.8252, 111.3086
780.3073, 130.6445
780.7894, 105.1211
781.2715, 60.20703
781.7537, 54.63672
782.2358, 111.7109
782.7179, 158.5859
783.2000, 182.5078
783.6821, 186.1133
784.1642, 172.4844
784.6464, 142.8164
785.1285, 106.8516
785.6106, 55.40625
786.0927, 17.91016
786.5748, 36.66016
787.0569, 91.84766
787.5391, 118.8594
788.0212, 30.39062
788.5033, 28.64453
788.9854, 24.81250
789.4675, 161.1875
789.9496, 244.2266
790.4318, 266.5430
790.9139, 254.6680
791.3960, 210.4023
791.8781, 146.2344
792.3602, 108.4336
792.8423, 94.88672
793.3245, 84.06641
793.8066, 60.47656
794.2887, 35.50781
794.7708, 11.60547
795.2529, 7.121094
795.7350, 2.519531
796.2172, 77.80859
796.6993, 153.0156
797.1814, 203.4102
797.6635, 235.7695
798.1456, 259.5273
798.6277, 278.4258
799.1099, 272.0781
799.5920, 200.7422
800.0741, 97.12109
800.5562, 100.8398
801.0383, 203.8867
801.5204, 282.1094
802.0026, 224.1641
802.4847, 128.9062
802.9668, 72.78906
803.4489, 61.54297
803.9310, 59.46094
804.4131, 63.36719
804.8953, 71.14062
805.3774, 84.88281
805.8595, 105.3984
806.3416, 110.4492
806.8237, 97.85156
807.3058, 83.31641
807.7880, 70.26172
808.2701, 64.21484
808.7522, 98.90234
809.2343, 172.9609
809.7164, 202.9492
810.1985, 50.05859
810.6807, 103.7109
811.1628, 101.6875
811.6449, 115.7266
812.1270, 231.2539
812.6091, 181.7773
813.0912, 96.58203
813.5734, 44.34375
814.0555, 26.32031
814.5376, 43.18359
815.0197, 98.54688
815.5018, 157.5703
815.9839, 198.9844
816.4661, 221.0820
816.9482, 218.5391
817.4303, 189.6523
817.9124, 154.7305
818.3945, 113.1602
818.8766, 76.35938
819.3588, 48.78516
819.8409, 24.10156
820.3230, 43.84375
820.8051, 127.3984
821.2872, 210.5039
821.7693, 246.9805
822.2515, 239.2227
822.7336, 181.1641
823.2157, 68.76562
823.6978, 4.304688
824.1799, 105.6289
824.6620, 255.1133
825.1442, 282.4336
825.6263, 135.6445
826.1084, 26.76953
826.5905, 46.89062
827.0726, 101.0352
827.5547, 129.5703
828.0369, 121.0820
828.5190, 136.0469
829.0011, 181.2852
829.4832, 218.9570
829.9653, 204.4883
830.4474, 159.9570
830.9296, 139.6328
831.4117, 150.3750
831.8938, 152.1641
832.3759, 104.4336
832.8580, 49.72266
833.3401, 20.94531
833.8223, 33.04297
834.3044, 36.85547
834.7865, 25.37500
835.2686, 16.21094
835.7507, 21.90625
836.2328, 42.00781
836.7150, 71.98047
837.1971, 112.3828
837.6792, 149.7695
838.1613, 187.0273
838.6434, 207.8945
839.1255, 180.4922
839.6077, 94.32812
840.0898, 31.47656
840.5719, 32.79297
841.0540, 54.50781
841.5361, 76.89062
842.0182, 104.9375
842.5004, 86.68359
842.9825, 3.894531
843.4646, 54.17969
843.9467, 21.09375
844.4288, 169.6953
844.9109, 219.1797
845.3931, 160.6992
845.8752, 103.8672
846.3573, 118.5117
846.8394, 165.0781
847.3215, 216.8672
847.8036, 276.2500
848.2858, 302.3672
848.7679, 287.2812
849.2500, 251.1758
849.7321, 190.4609
850.2142, 109.4102
850.6964, 94.80469
851.1785, 147.0625
851.6606, 205.4023
852.1427, 228.3359
852.6248, 230.5664
853.1069, 228.9805
853.5891, 226.0547
854.0712, 212.5039
854.5533, 172.7734
855.0354, 130.0664
855.5175, 94.10938
855.9996, 64.77734
856.4818, 35.72656
856.9639, 3.527344
857.4460, 8.226563
857.9281, 41.19531
858.4102, 113.0234
858.8923, 115.7578
859.3745, 57.92188
859.8566, 4.914063
860.3387, 8.417969
860.8208, 5.085938
861.3029, 2.589844
861.7850, 14.40234
862.2672, 42.94141
862.7493, 107.3320
863.2314, 144.3320
863.7135, 115.5664
864.1956, 42.63281
864.6777, 5.500000
865.1599, 3.085938
865.6420, 25.86328
866.1241, 89.42578
866.6062, 158.3359
867.0883, 203.1484
867.5704, 226.9648
868.0526, 246.1484
868.5347, 275.8164
869.0168, 275.6680
869.4989, 233.7578
869.9810, 156.4805
870.4631, 82.56250
870.9453, 11.00781
871.4274, 22.25781
871.9095, 9.445313
872.3916, 72.26562
872.8737, 140.0430
873.3558, 198.2266
873.8380, 225.1992
874.3201, 196.0195
874.8022, 152.6133
875.2843, 81.25000
875.7664, 10.77344
876.2485, 6.667969
876.7307, 85.72656
877.2128, 160.2539
877.6949, 216.6875
878.1770, 250.7031
878.6591, 242.3555
879.1412, 204.5039
879.6234, 171.2422
880.1055, 162.1289
880.5876, 147.6641
881.0697, 87.51953
881.5518, 16.14453
882.0339, 2.007813
882.5161, 86.24609
882.9982, 130.8203
883.4803, 107.6094
883.9624, 70.00391
884.4445, 102.7266
884.9266, 187.3594
885.4088, 251.5664
885.8909, 284.0352
886.3730, 286.2422
886.8551, 230.3398
887.3372, 159.9961
887.8193, 124.3359
888.3015, 166.2305
888.7836, 165.9727
889.2657, 93.89062
889.7478, 16.92188
890.2299, 7.718750
890.7120, 17.48047
891.1942, 71.83203
891.6763, 157.7461
892.1584, 218.3438
892.6405, 170.3086
893.1226, 93.33984
893.6047, 78.51172
894.0869, 144.9336
894.5690, 192.8398
895.0511, 180.6602
895.5332, 166.1211
896.0153, 179.9492
896.4974, 220.7656
896.9796, 240.0352
897.4617, 237.7539
897.9438, 214.1484
898.4259, 140.6406
898.9080, 63.42578
899.3901, 52.50781
899.8723, 100.4609
900.3544, 146.9297
900.8365, 165.2734
901.3186, 178.5195
901.8007, 206.7578
902.2828, 242.3906
902.7650, 270.0273
903.2471, 292.7891
903.7292, 284.2422
904.2113, 218.1289
904.6934, 132.3984
905.1755, 80.44922
905.6577, 61.53906
906.1398, 73.79297
906.6219, 154.6992
907.1040, 223.6641
907.5861, 242.1055
908.0682, 234.0703
908.5504, 245.6328
909.0325, 287.6992
909.5146, 301.6016
909.9967, 271.6250
910.4788, 222.0625
910.9609, 185.7188
911.4431, 159.7500
911.9252, 135.2773
912.4073, 103.4805
912.8894, 88.24609
913.3715, 114.5938
913.8536, 155.9219
914.3358, 184.3359
914.8179, 199.2070
915.3000, 193.6250
915.7821, 161.6523
916.2642, 133.3320
916.7463, 149.6836
917.2285, 193.3789
917.7106, 218.7070
918.1927, 220.0156
918.6748, 217.6094
919.1569, 243.1367
919.6390, 253.8125
920.1212, 202.8789
920.6033, 77.30859
921.0854, 15.90625
921.5675, 36.34766
922.0496, 69.31250
922.5317, 74.76172
923.0139, 61.76172
923.4960, 53.36719
923.9781, 50.37109
924.4602, 59.00391
924.9423, 95.79297
925.4244, 133.6484
925.9066, 161.0508
926.3887, 175.7969
926.8708, 168.9102
927.3529, 128.4961
927.8350, 98.46484
928.3171, 97.02344
928.7993, 104.6328
929.2814, 64.34766
929.7635, 2.839844
930.2456, 34.53906
930.7277, 13.75781
931.2098, 67.00391
931.6920, 94.28125
932.1741, 104.6641
932.6562, 110.9766
933.1383, 103.5938
933.6204, 119.7305
934.1025, 171.0430
934.5847, 226.0273
935.0668, 243.1211
935.5489, 230.4727
936.0310, 214.6758
936.5131, 201.3164
936.9952, 170.8867
937.4774, 73.35156
937.9595, 20.39453
938.4416, 38.27734
938.9237, 45.55078
939.4058, 69.00781
939.8879, 12.05078
940.3701, 51.78516
940.8522, 85.86719
941.3343, 88.40625
941.8164, 41.05469
942.2985, 50.35156
942.7806, 138.4531
943.2628, 216.9375
943.7449, 264.2578
944.2270, 247.5508
944.7091, 182.1250
945.1912, 156.2344
945.6733, 182.0078
946.1555, 211.1016
946.6376, 230.6367
947.1197, 244.9688
947.6018, 275.1797
948.0839, 306.6602
948.5660, 299.2383
949.0482, 197.9766
949.5303, 116.6328
950.0124, 140.9570
950.4945, 201.9375
950.9766, 201.5664
951.4587, 104.4297
951.9409, 58.97266
952.4230, 83.14453
952.9051, 127.3203
953.3872, 123.5469
953.8693, 102.6523
954.3514, 148.6328
954.8336, 278.6680
955.3157, 364.0078
955.7978, 293.0781
956.2799, 196.4609
956.7620, 158.3125
957.2441, 180.6016
957.7263, 165.3750
958.2084, 101.4648
958.6905, 68.42188
959.1726, 146.4219
959.6547, 264.8594
960.1368, 304.4688
960.6190, 279.0039
961.1011, 237.0977
961.5832, 175.7227
962.0653, 128.9102
962.5474, 112.3906
963.0295, 117.8672
963.5117, 128.6758
963.9938, 143.4766
964.4759, 133.5586
964.9580, 81.34375
965.4401, 37.44141
965.9222, 84.60156
966.4044, 175.8672
966.8865, 241.0234
967.3686, 271.7109
967.8507, 256.5820
968.3329, 137.6094
968.8150, 29.89453
969.2971, 34.55469
969.7792, 156.3945
970.2614, 188.3555
970.7435, 125.2500
971.2256, 60.62500
971.7077, 69.39844
972.1898, 109.2070
972.6719, 152.4727
973.1541, 193.8203
973.6362, 201.8984
974.1183, 121.1172
974.6004, 84.23438
975.0825, 139.8203
975.5646, 254.5625
976.0468, 342.6094
976.5289, 402.3477
977.0110, 422.2539
977.4931, 381.4609
977.9752, 326.4531
978.4573, 290.0586
978.9395, 261.8711
979.4216, 227.1602
979.9037, 171.2852
980.3858, 136.1641
980.8679, 128.5117
981.3500, 129.5625
981.8322, 111.6094
982.3143, 86.37500
982.7964, 97.14844
983.2785, 148.0000
983.7606, 191.1562
984.2427, 189.7070
984.7249, 178.2734
985.2070, 186.7734
985.6891, 211.3477
986.1712, 195.1953
986.6533, 130.0664
987.1354, 60.90625
987.6176, 16.89844
988.0997, 61.25391
988.5818, 58.57031
989.0639, 265.7422
989.5460, 389.2891
990.0281, 252.4609
990.5103, 155.7734
990.9924, 222.7656
991.4745, 340.4766
991.9566, 357.9844
992.4387, 266.7656
992.9208, 202.2969
993.4030, 180.8438
993.8851, 181.1016
994.3672, 175.4062
994.8493, 182.5391
995.3314, 239.3438
995.8135, 360.3438
996.2957, 429.4922
996.7778, 432.8203
997.2599, 382.3203
997.7420, 251.9375
998.2241, 72.00781
998.7062, 28.88281
999.1884, 108.0000
999.6705, 195.2266
1000.153, 234.6094
1000.635, 251.9922
1001.117, 264.1875
1001.599, 267.5625
1002.081, 253.0469
1002.563, 192.7812
1003.045, 164.3516
1003.527, 183.6172
1004.010, 219.1172
1004.492, 233.1250
1004.974, 231.1719
1005.456, 227.6094
1005.938, 225.3984
1006.420, 212.0078
1006.902, 158.2266
1007.384, 112.0312
1007.866, 100.6406
1008.349, 123.7188
1008.831, 174.3359
1009.313, 256.9375
1009.795, 308.0469
1010.277, 267.0312
1010.759, 198.6562
1011.241, 195.3359
1011.723, 229.8047
1012.206, 235.8047
1012.688, 142.0625
1013.170, 90.62500
1013.652, 108.5625
1014.134, 162.0547
1014.616, 217.3594
1015.098, 270.4844
1015.580, 289.3672
1016.062, 267.6328
1016.545, 237.6953
1017.027, 205.8359
1017.509, 189.1406
1017.991, 220.3984
1018.473, 314.0938
1018.955, 305.8672
1019.437, 164.2734
1019.919, 29.92969
1020.401, 36.00000
1020.884, 44.79688
1021.366, 8.265625
1021.848, 100.7422
1022.330, 164.0625
1022.812, 142.5625
1023.294, 122.9453
1023.776, 132.3281
1024.258, 152.4531
1024.740, 165.7656
1025.223, 173.2188
1025.705, 184.2734
1026.187, 201.8203
1026.669, 213.7422
1027.151, 191.8750
1027.633, 158.6016
1028.115, 133.0391
1028.597, 118.4062
1029.080, 110.4844
1029.562, 113.8125
1030.044, 116.9062
1030.526, 116.7656
1031.008, 112.0781
1031.490, 86.75781
1031.972, 52.04688
1032.454, 47.34375
1032.937, 113.5312
1033.419, 179.7656
1033.901, 234.1250
1034.383, 257.1016
1034.865, 216.3828
1035.347, 93.04688
1035.829, 21.41406
1036.311, 11.22656
1036.793, 30.97656
1037.276, 61.90625
1037.758, 100.3438
1038.240, 146.1016
1038.722, 197.5391
1039.204, 243.0469
1039.686, 301.8047
1040.168, 318.5312
1040.650, 267.0312
1041.132, 174.5156
1041.615, 85.22656
1042.097, 9.523438
1042.579, 2.023438
1043.061, 97.67969
1043.543, 188.7891
1044.025, 210.0781
1044.507, 180.5000
1044.989, 106.6641
1045.472, 41.71094
1045.954, 73.03906
1046.436, 35.71094
1046.918, 159.6016
1047.400, 209.0234
1047.882, 220.8672
1048.364, 250.6797
1048.846, 291.7031
1049.328, 305.8047
1049.811, 274.7812
1050.293, 219.5469
1050.775, 123.3359
1051.257, 27.92969
1051.739, 16.38281
1052.221, 75.01562
1052.703, 154.1172
1053.185, 254.8906
1053.667, 312.5625
1054.150, 252.4453
1054.632, 155.0938
1055.114, 73.96094
1055.596, 9.109375
1056.078, 7.953125
1056.560, 76.19531
1057.042, 164.3047
1057.524, 310.1406
1058.007, 424.6641
1058.489, 317.7031
1058.971, 85.54688
1059.453, 47.50781
1059.935, 75.24219
1060.417, 174.9688
1060.899, 232.4844
1061.381, 252.2500
1061.864, 224.7734
1062.346, 162.6562
1062.828, 117.0547
1063.310, 92.42969
1063.792, 93.28906
1064.274, 162.1641
1064.756, 219.7344
1065.238, 198.9531
1065.720, 123.6562
1066.203, 108.4922
1066.685, 161.8906
1067.167, 179.7344
1067.649, 105.0312
1068.131, 41.01562
1068.613, 162.8750
1069.095, 354.2188
1069.577, 445.8750
1070.059, 353.2891
1070.542, 277.6719
1071.024, 232.8281
1071.506, 193.5781
1071.988, 137.7109
1072.470, 73.47656
1072.952, 30.14062
1073.434, 5.695313
1073.916, 9.992188
1074.399, 45.18750
1074.881, 44.53906
1075.363, 33.34375
1075.845, 147.4375
1076.327, 243.7031
1076.809, 323.4531
1077.291, 340.7969
1077.773, 283.5156
1078.255, 203.0391
1078.738, 134.4375
1079.220, 81.50000
1079.702, 42.73438
1080.184, 18.80469
1080.666, 0.7734380
1081.148, 27.47656
1081.630, 5.539063
1082.112, 122.2266
1082.594, 262.5547
1083.077, 212.3359
1083.559, 50.94531
1084.041, 53.20312
1084.523, 9.453125
1085.005, 23.00000
1085.487, 2.054688
1085.969, 21.35938
1086.451, 1.5625000E-02
1086.934, 58.22656
1087.416, 84.10156
1087.898, 80.11719
1088.380, 88.64844
1088.862, 184.3516
1089.344, 249.6562
1089.826, 175.6250
1090.308, 32.23438
1090.791, 10.94531
1091.273, 60.71875
1091.755, 127.2734
1092.237, 173.2812
1092.719, 194.5312
1093.201, 161.4297
1093.683, 118.3984
1094.165, 121.5547
1094.647, 182.7109
1095.130, 225.5703
1095.612, 245.6484
1096.094, 246.5000
1096.576, 222.4141
1097.058, 187.0391
1097.540, 170.3906
1098.022, 165.7422
1098.504, 154.3516
1098.987, 114.3359
1099.469, 99.20312
1099.951, 152.5781
1100.433, 203.9297
1100.915, 196.0000
1101.397, 132.8594
1101.879, 89.08594
1102.361, 64.43750
1102.844, 51.56250
1103.326, 26.07031
1103.808, 26.32812
1104.290, 126.5938
1104.772, 257.9062
1105.254, 261.6016
1105.736, 105.5078
1106.218, 50.90625
1106.700, 148.1250
1107.182, 256.3359
1107.665, 220.2422
1108.147, 127.6172
1108.629, 64.13281
1109.111, 39.18750
1109.593, 40.71875
1110.075, 86.31250
1110.557, 105.2734
1111.039, 58.98438
1111.522, 4.195313
1112.004, 27.85156
1112.486, 104.1875
1112.968, 107.4844
1113.450, 51.17188
1113.932, 126.2031
1114.414, 9.500000
1114.896, 135.0703
1115.379, 221.2188
1115.861, 250.1250
1116.343, 197.4141
1116.825, 80.12500
1117.307, 0.2890630
1117.789, 67.74219
1118.271, 137.5703
1118.753, 140.5000
1119.235, 111.7969
1119.718, 94.90625
1120.200, 90.41406
1120.682, 86.46875
1121.164, 81.94531
1121.646, 86.21875
1122.128, 123.9609
1122.610, 159.4609
1123.092, 143.7500
1123.574, 92.75000
1124.057, 119.2578
1124.539, 256.9766
1125.021, 331.7344
1125.503, 290.5156
1125.985, 218.5938
1126.467, 217.5547
1126.949, 257.8828
1127.431, 312.8672
1127.914, 389.1406
1128.396, 395.8750
1128.878, 287.3438
1129.360, 196.8672
1129.842, 187.7344
1130.324, 229.5391
1130.806, 251.2500
1131.288, 257.3672
1131.771, 247.5469
1132.253, 174.3594
1132.735, 180.6094
1133.217, 391.1641
1133.699, 578.8047
1134.181, 539.7969
1134.663, 313.3125
1135.145, 224.3984
1135.627, 258.8125
1136.109, 279.5859
1136.592, 157.4219
1137.074, 71.78125
1137.556, 147.1094
1138.038, 284.9297
1138.520, 357.8984
1139.002, 363.7109
1139.484, 329.7031
1139.966, 256.1484
1140.449, 187.4062
1140.931, 127.4531
1141.413, 113.3281
1141.895, 215.5234
1142.377, 403.4219
1142.859, 462.4219
1143.341, 365.6953
1143.823, 312.9297
1144.306, 365.7891
1144.788, 437.0703
1145.270, 408.5859
1145.752, 354.8672
1146.234, 371.5312
1146.716, 488.5469
1147.198, 554.5391
1147.680, 558.0000
1148.162, 536.1406
1148.645, 488.1484
1149.127, 447.4609
1149.609, 474.3203
1150.091, 544.0547
1150.573, 613.1875
1151.055, 686.6875
1151.537, 718.4922
1152.019, 707.9062
1152.501, 661.8125
1152.984, 567.5703
1153.466, 450.8672
1153.948, 359.2734
1154.430, 302.0469
1154.912, 313.2344
1155.394, 517.5703
1155.876, 633.5234
1156.358, 582.4062
1156.841, 472.7031
1157.323, 416.8047
1157.805, 411.2188
1158.287, 451.9766
1158.769, 527.7969
1159.251, 562.8594
1159.733, 505.9688
1160.215, 446.4453
1160.698, 420.8359
1161.180, 412.6719
1161.662, 394.7734
1162.144, 366.4219
1162.626, 304.4531
1163.108, 199.0781
1163.590, 129.5547
1164.072, 180.6328
1164.554, 261.0703
1165.036, 328.1016
1165.519, 373.1562
1166.001, 328.9062
1166.483, 198.6719
1166.965, 138.7734
1167.447, 212.1250
1167.929, 319.4062
1168.411, 419.8203
1168.893, 484.5938
1169.376, 471.3906
1169.858, 381.5312
1170.340, 289.2500
1170.822, 191.3281
1171.304, 145.2109
1171.786, 226.6328
1172.268, 316.5625
1172.750, 237.8203
1173.233, 90.49219
1173.715, 29.03125
1174.197, 84.68750
1174.679, 160.7422
1175.161, 266.2344
1175.643, 340.1016
1176.125, 306.3438
1176.607, 244.5469
1177.089, 270.6328
1177.572, 342.2734
1178.054, 338.7969
1178.536, 187.7344
1179.018, 111.5938
1179.500, 138.2500
1179.982, 188.0000
1180.464, 170.8203
1180.946, 134.1172
1181.428, 161.3828
1181.911, 239.2656
1182.393, 259.5938
1182.875, 148.2500
1183.357, 106.4141
1183.839, 189.5156
1184.321, 293.0625
1184.803, 264.9922
1185.285, 172.7734
1185.768, 147.1328
1186.250, 201.3984
1186.732, 198.4844
1187.214, 41.55469
1187.696, 38.00000
1188.178, 51.03906
1188.660, 202.1172
1189.142, 217.1641
1189.625, 151.3516
1190.107, 118.6250
1190.589, 148.1562
1191.071, 169.5859
1191.553, 179.5469
1192.035, 155.2578
1192.517, 58.72656
1192.999, 50.91406
1193.481, 3.765625
1193.964, 148.7188
1194.446, 280.5156
1194.928, 357.7422
1195.410, 396.8516
1195.892, 382.6562
1196.374, 361.8516
1196.856, 372.3516
1197.338, 393.1484
1197.820, 333.9922
1198.303, 218.8594
1198.785, 125.3203
1199.267, 94.59375
1199.749, 74.42969
1200.231, 47.58594
1200.713, 35.04688
1201.195, 57.86719
1201.677, 110.2969
1202.160, 179.1719
1202.642, 255.7266
1203.124, 293.9609
1203.606, 226.6016
1204.088, 180.7812
1204.570, 196.9922
1205.052, 234.5781
1205.534, 256.1016
1206.016, 260.3906
1206.499, 233.3516
1206.981, 178.4141
1207.463, 128.2500
1207.945, 113.2969
1208.427, 86.08594
1208.909, 10.03906
1209.391, 61.81250
1209.873, 35.87500
1210.355, 66.93750
1210.838, 159.1406
1211.320, 230.7578
1211.802, 276.8125
1212.284, 289.4062
1212.766, 278.2188
1213.248, 245.8516
1213.730, 196.7812
1214.212, 138.9922
1214.695, 71.99219
1215.177, 28.90625
1215.659, 176.7422
1216.141, 238.2266
1216.623, 38.30469
1217.105, 141.4219
1217.587, 170.3516
1218.069, 109.5938
1218.552, 135.9062
1219.034, 223.7422
1219.516, 271.1328
1219.998, 246.1172
1220.480, 214.6406
1220.962, 222.2734
1221.444, 211.5781
1221.926, 139.2109
1222.408, 35.33594
1222.891, 13.74219
1223.373, 59.28906
1223.855, 114.4375
1224.337, 168.5469
1224.819, 210.3594
1225.301, 235.8125
1225.783, 245.4844
1226.265, 236.6641
1226.747, 212.4141
1227.230, 167.1797
1227.712, 116.2578
1228.194, 120.6016
1228.676, 248.7031
1229.158, 343.1406
1229.640, 333.6328
1230.122, 301.6797
1230.604, 303.1016
1231.087, 325.4453
1231.569, 317.4141
1232.051, 279.8516
1232.533, 212.4453
1233.015, 61.83594
1233.497, 38.98438
1233.979, 54.86719
1234.461, 26.25781
1234.943, 29.55469
1235.426, 102.4766
1235.908, 148.5625
1236.390, 172.3750
1236.872, 192.9375
1237.354, 241.5547
1237.836, 247.2344
1238.318, 170.8594
1238.800, 98.64062
1239.282, 147.2578
1239.765, 259.7734
1240.247, 266.4766
1240.729, 180.3438
1241.211, 94.57031
1241.693, 12.89062
1242.175, 9.632813
1242.657, 51.64844
1243.139, 137.8984
1243.622, 176.1719
1244.104, 192.3594
1244.586, 272.0234
1245.068, 397.7266
1245.550, 423.2891
1246.032, 185.8281
1246.514, 53.54688
1246.996, 99.92969
1247.479, 204.4453
1247.961, 215.8359
1248.443, 183.9766
1248.925, 194.8125
1249.407, 248.2500
1249.889, 287.7422
1250.371, 291.6875
1250.853, 304.9922
1251.335, 349.4141
1251.818, 392.3281
1252.300, 388.4531
1252.782, 356.9141
1253.264, 311.1641
1253.746, 256.8281
1254.228, 252.1641
1254.710, 334.1094
1255.192, 341.7969
1255.674, 218.2656
1256.157, 90.87500
1256.639, 140.1641
1257.121, 256.7031
1257.603, 321.5000
1258.085, 320.8281
1258.567, 290.4922
1259.049, 213.7109
1259.531, 195.9062
1260.014, 299.3516
1260.496, 414.3906
1260.978, 431.2969
1261.460, 403.9062
1261.942, 386.9453
1262.424, 364.0781
1262.906, 297.2734
1263.388, 209.6094
1263.870, 173.8281
1264.353, 229.6719
1264.835, 294.6875
1265.317, 297.6250
1265.799, 271.7266
1266.281, 232.9922
1266.763, 190.1406
1267.245, 200.0781
1267.727, 259.4375
1268.209, 312.3047
1268.692, 344.0234
1269.174, 356.3594
1269.656, 317.5469
1270.138, 294.7500
1270.620, 358.8906
1271.102, 476.8828
1271.584, 405.6328
1272.066, 206.0469
1272.549, 151.1094
1273.031, 396.5703
1273.513, 579.2578
1273.995, 427.2031
1274.477, 258.2422
1274.959, 257.9297
1275.441, 371.7500
1275.923, 384.4844
1276.406, 332.4141
1276.888, 332.2031
1277.370, 451.2266
1277.852, 540.4688
1278.334, 566.6562
1278.816, 547.2891
1279.298, 474.0000
1279.780, 374.2500
1280.262, 324.8984
1280.745, 303.8516
1281.227, 249.6250
1281.709, 89.12500
1282.191, 68.69531
1282.673, 264.4375
1283.155, 432.4688
1283.637, 411.1875
1284.119, 314.5781
1284.601, 357.4766
1285.084, 464.3672
1285.566, 500.6172
1286.048, 400.3672
1286.530, 352.3359
1287.012, 363.6562
1287.494, 388.6250
1287.976, 409.4844
1288.458, 422.1797
1288.941, 427.2422
1289.423, 418.5469
1289.905, 382.0234
1290.387, 313.0859
1290.869, 248.7812
1291.351, 187.8984
1291.833, 172.3359
1292.315, 263.8750
1292.797, 353.2188
1293.280, 357.2344
1293.762, 316.1250
1294.244, 268.1094
1294.726, 213.1094
1295.208, 222.6562
1295.690, 289.6484
1296.172, 350.1328
1296.654, 382.8359
1297.136, 387.4375
1297.619, 343.6250
1298.101, 288.7500
1298.583, 250.6641
1299.065, 224.1172
1299.547, 169.4766
1300.029, 98.79688
1300.511, 56.32812
1300.993, 68.32031
1301.476, 102.0156
1301.958, 171.9297
1302.440, 221.0859
1302.922, 162.1875
1303.404, 76.10156
1303.886, 228.1016
1304.368, 494.0312
1304.850, 577.8203
1305.333, 196.8203
1305.815, 5.851563
1306.297, 3.632813
1306.779, 71.60938
1307.261, 169.6797
1307.743, 140.5312
1308.225, 76.87500
1308.707, 0.0000000E+00
##END=



