##NAMES=Boromuscovite
##RRUFFID=R070107
##IDEAL CHEMISTRY=KAl_2_(Si_3_B)O_10_(OH)_2_
##LOCALITY=Little 3 mine, Ramona, California, USA
##OWNER=RRUFF
##SOURCE=Jeffrey E. Patterson
##DESCRIPTION=White fine-grained micaceous on elbaite
##STATUS=The identification of this mineral is not yet confirmed.
##URL=rruff.info/R070107
202.3056, 0.0000000E+00
202.7878, 25.01172
203.2699, 0.3085940
203.7520, 11.42578
204.2341, 43.94922
204.7162, 55.33594
205.1983, 58.37500
205.6805, 52.51953
206.1626, 50.11328
206.6447, 49.10547
207.1268, 38.37109
207.6089, 18.42969
208.0910, 58.78906
208.5732, 66.29297
209.0553, 115.8750
209.5374, 148.3242
210.0195, 136.4531
210.5016, 105.5625
210.9837, 95.66016
211.4659, 118.3867
211.9480, 139.1250
212.4301, 101.5000
212.9122, 3.792969
213.3943, 70.12500
213.8764, 54.72266
214.3586, 4.644531
214.8407, 27.85547
215.3228, 33.93359
215.8049, 30.30078
216.2870, 26.01172
216.7691, 20.80859
217.2513, 48.89453
217.7334, 146.1484
218.2155, 258.7812
218.6976, 333.7695
219.1797, 366.2422
219.6618, 389.0352
220.1440, 433.3477
220.6261, 497.3672
221.1082, 535.0469
221.5903, 520.0625
222.0724, 495.9688
222.5546, 497.8320
223.0367, 525.4727
223.5188, 556.0781
224.0009, 578.3008
224.4830, 588.8750
224.9651, 579.7969
225.4473, 541.1562
225.9294, 491.9609
226.4115, 439.6289
226.8936, 385.4727
227.3757, 330.0664
227.8578, 265.6289
228.3400, 204.7617
228.8221, 194.5469
229.3042, 274.5078
229.7863, 356.5625
230.2684, 401.9766
230.7505, 419.7383
231.2327, 435.5938
231.7148, 460.5781
232.1969, 492.0117
232.6790, 522.9922
233.1611, 561.3945
233.6432, 587.6758
234.1254, 583.7109
234.6075, 564.7031
235.0896, 564.8945
235.5717, 601.3398
236.0538, 647.2422
236.5359, 643.1758
237.0181, 568.5195
237.5002, 505.2695
237.9823, 454.2070
238.4644, 428.4297
238.9465, 454.0859
239.4286, 539.9883
239.9108, 653.6719
240.3929, 756.5781
240.8750, 858.6641
241.3571, 910.9141
241.8392, 875.5859
242.3213, 807.2227
242.8035, 751.5508
243.2856, 717.0391
243.7677, 697.9688
244.2498, 691.9609
244.7319, 703.9062
245.2140, 698.6367
245.6962, 632.4492
246.1783, 583.4062
246.6604, 636.2148
247.1425, 774.6914
247.6246, 883.5508
248.1067, 860.2148
248.5889, 701.4297
249.0710, 597.0781
249.5531, 569.5703
250.0352, 564.9766
250.5173, 564.2891
250.9994, 567.1016
251.4816, 578.8984
251.9637, 604.7188
252.4458, 641.3750
252.9279, 666.0859
253.4100, 671.0781
253.8921, 674.9453
254.3743, 679.3633
254.8564, 685.9609
255.3385, 697.8242
255.8206, 716.7695
256.3027, 739.3398
256.7849, 756.1484
257.2670, 749.1133
257.7491, 758.9453
258.2312, 806.4414
258.7133, 862.3984
259.1954, 893.1602
259.6776, 889.3086
260.1597, 869.7148
260.6418, 874.2305
261.1239, 935.6680
261.6060, 952.5352
262.0881, 880.4141
262.5703, 800.8203
263.0524, 772.7461
263.5345, 801.2461
264.0166, 849.4766
264.4987, 877.7734
264.9808, 882.0781
265.4630, 885.9883
265.9451, 907.3203
266.4272, 912.3008
266.9093, 861.9102
267.3914, 778.1641
267.8735, 723.8008
268.3557, 755.5117
268.8378, 867.5117
269.3199, 923.1602
269.8020, 853.5898
270.2841, 794.4141
270.7662, 778.5469
271.2484, 785.4727
271.7305, 788.0508
272.2126, 769.4102
272.6947, 739.3594
273.1768, 738.7578
273.6589, 789.2227
274.1411, 835.9336
274.6232, 885.8789
275.1053, 921.2109
275.5874, 912.1094
276.0695, 850.2305
276.5516, 780.4102
277.0338, 786.3594
277.5159, 905.4531
277.9980, 983.5859
278.4801, 973.7188
278.9622, 940.7188
279.4443, 913.7422
279.9265, 899.3125
280.4086, 897.6758
280.8907, 914.2383
281.3728, 950.2227
281.8549, 977.4648
282.3370, 986.3633
282.8192, 995.2383
283.3013, 1014.266
283.7834, 1040.703
284.2655, 1066.695
284.7476, 1090.977
285.2297, 1110.684
285.7119, 1113.363
286.1940, 1094.828
286.6761, 1067.188
287.1582, 1026.250
287.6403, 982.8984
288.1224, 955.8359
288.6046, 961.7109
289.0867, 972.5508
289.5688, 942.7773
290.0509, 866.5469
290.5330, 795.0977
291.0151, 743.9297
291.4973, 711.5000
291.9794, 699.5703
292.4615, 712.9766
292.9436, 728.0312
293.4257, 731.7539
293.9078, 723.2148
294.3900, 694.3633
294.8721, 633.1094
295.3542, 565.2578
295.8363, 519.9180
296.3184, 496.2812
296.8005, 482.2969
297.2827, 484.0508
297.7648, 489.5508
298.2469, 475.4766
298.7290, 436.4102
299.2111, 393.1992
299.6932, 355.9922
300.1754, 328.0430
300.6575, 332.7695
301.1396, 411.3398
301.6217, 494.3867
302.1038, 517.0391
302.5859, 487.1250
303.0680, 468.9258
303.5501, 509.5859
304.0323, 588.1602
304.5144, 609.4023
304.9965, 498.6211
305.4786, 425.2500
305.9607, 477.8164
306.4428, 599.2852
306.9250, 691.0547
307.4071, 715.0391
307.8892, 690.0117
308.3713, 649.7930
308.8534, 577.1211
309.3355, 520.4492
309.8177, 467.8008
310.2998, 439.5703
310.7819, 470.3984
311.2640, 556.6602
311.7461, 644.8281
312.2282, 678.6094
312.7104, 651.6914
313.1925, 606.6523
313.6746, 516.8359
314.1567, 437.8555
314.6388, 397.9531
315.1209, 386.8281
315.6031, 377.6875
316.0852, 352.4453
316.5673, 316.8477
317.0494, 302.3320
317.5315, 336.4023
318.0136, 354.6836
318.4958, 336.7422
318.9779, 304.5977
319.4600, 277.1328
319.9421, 261.3047
320.4242, 260.5312
320.9063, 286.6172
321.3885, 352.5156
321.8706, 398.9062
322.3527, 415.4883
322.8348, 413.3555
323.3169, 388.1367
323.7990, 345.0703
324.2812, 304.8789
324.7633, 274.3906
325.2454, 256.8008
325.7275, 291.6992
326.2096, 429.4102
326.6917, 542.0469
327.1739, 540.1914
327.6560, 472.0508
328.1381, 427.1523
328.6202, 455.3125
329.1023, 507.1133
329.5844, 502.9219
330.0666, 435.8438
330.5487, 377.3203
331.0308, 363.5859
331.5129, 375.7188
331.9950, 386.1484
332.4771, 393.9609
332.9593, 401.2461
333.4414, 415.1523
333.9235, 428.5234
334.4056, 417.1172
334.8877, 369.3828
335.3698, 312.8750
335.8520, 284.1797
336.3341, 282.9258
336.8162, 272.3984
337.2983, 233.7461
337.7804, 191.4922
338.2625, 170.2500
338.7447, 169.9727
339.2268, 171.5312
339.7089, 156.5117
340.1910, 130.9141
340.6731, 149.2852
341.1552, 265.8438
341.6374, 357.2148
342.1195, 377.0664
342.6016, 348.8320
343.0837, 307.1328
343.5658, 265.2461
344.0479, 224.0430
344.5301, 183.8164
345.0122, 136.0273
345.4943, 106.8008
345.9764, 101.4609
346.4585, 108.5508
346.9406, 119.9297
347.4228, 137.7188
347.9049, 167.1914
348.3870, 227.3594
348.8691, 321.7031
349.3512, 368.1328
349.8333, 323.9219
350.3155, 275.8594
350.7976, 235.4570
351.2797, 208.1914
351.7618, 202.4766
352.2439, 224.2344
352.7260, 261.3789
353.2082, 291.7188
353.6903, 314.8750
354.1724, 332.5312
354.6545, 342.2891
355.1366, 348.0039
355.6187, 355.4844
356.1009, 364.5234
356.5830, 361.5000
357.0651, 334.8828
357.5472, 287.1055
358.0293, 220.7969
358.5114, 117.5625
358.9936, 36.68750
359.4757, 42.75391
359.9578, 107.1016
360.4399, 164.5625
360.9220, 216.0898
361.4041, 239.3594
361.8863, 197.3750
362.3684, 98.24609
362.8505, 1.019531
363.3326, 75.81641
363.8147, 124.8828
364.2968, 125.9375
364.7790, 67.77734
365.2611, 1.613281
365.7432, 101.0430
366.2253, 191.4492
366.7074, 207.2539
367.1895, 138.5547
367.6717, 54.64453
368.1538, 30.02344
368.6359, 74.51172
369.1180, 118.4961
369.6001, 179.8672
370.0822, 223.2031
370.5644, 223.0430
371.0465, 193.5391
371.5286, 162.1484
372.0107, 143.1602
372.4928, 137.7656
372.9749, 150.5742
373.4571, 188.2734
373.9392, 234.4766
374.4213, 328.1875
374.9034, 401.8398
375.3855, 381.8125
375.8676, 267.4883
376.3498, 144.1680
376.8319, 107.3750
377.3140, 158.8047
377.7961, 183.8477
378.2782, 168.2734
378.7603, 143.2578
379.2425, 115.4219
379.7246, 90.99219
380.2067, 83.81250
380.6888, 108.6367
381.1709, 140.9258
381.6530, 149.3203
382.1352, 133.8008
382.6173, 96.62109
383.0994, 21.41797
383.5815, 60.05078
384.0636, 102.9609
384.5457, 102.9102
385.0279, 95.89062
385.5100, 96.72266
385.9921, 99.39844
386.4742, 98.52344
386.9563, 93.35547
387.4384, 70.82812
387.9206, 8.906250
388.4027, 89.57031
388.8848, 129.6641
389.3669, 57.64062
389.8490, 10.57812
390.3311, 27.79688
390.8133, 8.464844
391.2954, 22.69922
391.7775, 55.43750
392.2596, 85.64844
392.7417, 104.1602
393.2238, 101.2812
393.7060, 105.4570
394.1881, 131.8672
394.6702, 151.8945
395.1523, 138.2500
395.6344, 99.33203
396.1165, 68.50781
396.5987, 72.96094
397.0808, 108.0039
397.5629, 149.1016
398.0450, 218.7109
398.5271, 251.9609
399.0092, 201.0391
399.4914, 121.0469
399.9735, 72.12891
400.4556, 71.41406
400.9377, 84.59375
401.4198, 71.70703
401.9019, 37.94141
402.3841, 34.89844
402.8662, 93.87500
403.3483, 145.3164
403.8304, 95.11328
404.3125, 29.03906
404.7946, 97.41016
405.2768, 29.43359
405.7589, 72.50781
406.2410, 116.5742
406.7231, 107.9102
407.2052, 87.58984
407.6873, 72.08203
408.1695, 63.41797
408.6516, 68.26953
409.1337, 93.92969
409.6158, 118.3711
410.0979, 151.9844
410.5800, 175.2930
411.0622, 161.7617
411.5443, 113.3086
412.0264, 60.80859
412.5085, 32.39453
412.9906, 28.23047
413.4727, 33.69922
413.9549, 50.42969
414.4370, 76.14453
414.9191, 131.7344
415.4012, 188.0547
415.8833, 204.9336
416.3654, 167.5547
416.8476, 106.9297
417.3297, 54.95703
417.8118, 8.097656
418.2939, 11.54297
418.7760, 108.3555
419.2581, 219.6836
419.7403, 292.3516
420.2224, 333.5977
420.7045, 365.0430
421.1866, 405.2305
421.6687, 432.6641
422.1508, 404.1562
422.6330, 324.3438
423.1151, 267.5000
423.5972, 276.5234
424.0793, 321.7070
424.5614, 327.2383
425.0435, 275.1289
425.5257, 235.3477
426.0078, 232.0977
426.4899, 247.6016
426.9720, 275.5195
427.4541, 309.9727
427.9362, 322.7930
428.4184, 286.2461
428.9005, 202.1328
429.3826, 134.7852
429.8647, 75.95312
430.3468, 43.75781
430.8289, 60.80859
431.3111, 98.30859
431.7932, 114.0586
432.2753, 97.83984
432.7574, 91.54688
433.2395, 177.3594
433.7216, 380.8750
434.2038, 473.1875
434.6859, 363.6992
435.1680, 236.8672
435.6501, 176.7344
436.1322, 168.3281
436.6143, 176.9258
437.0965, 193.3789
437.5786, 214.0508
438.0607, 240.5312
438.5428, 271.5352
439.0249, 278.9648
439.5070, 237.8828
439.9892, 191.4023
440.4713, 219.8359
440.9534, 332.2539
441.4355, 392.8711
441.9176, 311.8750
442.3997, 213.2031
442.8819, 233.9062
443.3640, 352.0625
443.8461, 425.5547
444.3282, 355.9492
444.8103, 188.0938
445.2924, 104.7852
445.7746, 197.1211
446.2567, 268.3438
446.7388, 309.4023
447.2209, 318.3828
447.7030, 278.7188
448.1852, 202.1680
448.6673, 145.8750
449.1494, 169.6172
449.6315, 264.6328
450.1136, 335.1680
450.5957, 379.2227
451.0779, 398.3398
451.5600, 375.0898
452.0421, 337.2031
452.5242, 318.8555
453.0063, 330.7461
453.4884, 344.6641
453.9706, 325.8086
454.4527, 289.9727
454.9348, 303.4297
455.4169, 392.4844
455.8990, 457.5391
456.3811, 385.9570
456.8633, 188.3711
457.3454, 78.19141
457.8275, 133.7305
458.3096, 196.7578
458.7917, 196.9375
459.2738, 156.0664
459.7560, 106.5703
460.2381, 60.80469
460.7202, 32.02734
461.2023, 54.11719
461.6844, 155.9102
462.1665, 204.2227
462.6487, 134.8594
463.1308, 83.53516
463.6129, 113.0273
464.0950, 190.4453
464.5771, 255.7617
465.0592, 281.5195
465.5414, 280.7891
466.0235, 269.7656
466.5056, 246.8516
466.9877, 236.0547
467.4698, 260.2578
467.9519, 276.9453
468.4341, 237.0742
468.9162, 150.4219
469.3983, 83.41016
469.8804, 58.85938
470.3625, 64.23438
470.8446, 99.33203
471.3268, 157.3398
471.8089, 207.7695
472.2910, 235.6992
472.7731, 251.0000
473.2552, 276.3906
473.7373, 340.6484
474.2195, 354.9375
474.7016, 285.7422
475.1837, 193.4766
475.6658, 92.48828
476.1479, 3.261719
476.6300, 28.54297
477.1122, 35.88672
477.5943, 156.2266
478.0764, 192.6602
478.5585, 103.9883
479.0406, 45.59766
479.5227, 88.26953
480.0049, 133.8828
480.4870, 108.9102
480.9691, 18.93750
481.4512, 55.21875
481.9333, 55.55078
482.4154, 14.45312
482.8976, 9.238281
483.3797, 13.91406
483.8618, 41.00781
484.3439, 124.7344
484.8260, 232.5586
485.3081, 282.4375
485.7903, 258.9258
486.2724, 227.8047
486.7545, 177.2539
487.2366, 140.3438
487.7187, 156.7891
488.2008, 219.2695
488.6830, 289.3789
489.1651, 343.0234
489.6472, 377.1445
490.1293, 364.2266
490.6114, 241.1484
491.0935, 168.4180
491.5757, 202.2891
492.0578, 267.3633
492.5399, 317.7930
493.0220, 344.9727
493.5041, 349.1094
493.9862, 307.8945
494.4684, 246.1562
494.9505, 240.5234
495.4326, 300.5742
495.9147, 333.4453
496.3968, 282.4922
496.8789, 188.4961
497.3611, 126.0078
497.8432, 93.57031
498.3253, 77.30859
498.8074, 83.89062
499.2895, 97.69922
499.7716, 96.89453
500.2538, 85.15625
500.7359, 96.18750
501.2180, 161.8867
501.7001, 255.2969
502.1822, 248.5273
502.6643, 35.37500
503.1465, 101.0938
503.6286, 113.7227
504.1107, 64.84375
504.5928, 35.06250
505.0749, 163.0195
505.5570, 247.3906
506.0392, 215.6484
506.5213, 113.5859
507.0034, 48.66406
507.4855, 22.95312
507.9676, 21.25781
508.4497, 45.64844
508.9319, 84.45312
509.4140, 120.4102
509.8961, 154.4258
510.3782, 181.4531
510.8603, 204.5977
511.3424, 217.1055
511.8246, 197.2539
512.3067, 157.4648
512.7888, 152.7188
513.2709, 220.9844
513.7531, 321.5859
514.2352, 328.6016
514.7173, 157.5156
515.1994, 58.66016
515.6815, 106.7969
516.1636, 167.2109
516.6458, 140.0625
517.1279, 52.70703
517.6100, 14.25781
518.0921, 115.7617
518.5742, 264.8711
519.0563, 294.9727
519.5385, 205.1875
520.0206, 117.6680
520.5027, 57.19531
520.9848, 28.79297
521.4669, 56.15625
521.9490, 138.9961
522.4312, 195.3750
522.9133, 205.5508
523.3954, 193.0664
523.8775, 156.2148
524.3596, 109.9609
524.8417, 87.03906
525.3239, 101.0703
525.8060, 134.0039
526.2881, 156.8555
526.7702, 169.1953
527.2523, 172.8008
527.7344, 158.4258
528.2166, 144.4102
528.6987, 142.2539
529.1808, 144.0156
529.6629, 132.8125
530.1450, 98.66016
530.6271, 64.09766
531.1093, 51.21094
531.5914, 57.91406
532.0735, 76.85156
532.5556, 108.1289
533.0377, 146.7422
533.5198, 197.3047
534.0020, 254.3242
534.4841, 268.2422
534.9662, 226.6680
535.4483, 166.3438
535.9304, 58.20312
536.4125, 42.41016
536.8947, 61.04688
537.3768, 12.32422
537.8589, 121.1914
538.3410, 219.3320
538.8231, 303.4805
539.3052, 334.9375
539.7874, 294.6445
540.2695, 251.6953
540.7516, 224.5234
541.2337, 204.5469
541.7158, 181.3359
542.1979, 152.9219
542.6801, 140.4922
543.1622, 183.3281
543.6443, 236.1484
544.1264, 216.1602
544.6085, 127.9922
545.0906, 66.45312
545.5728, 91.50000
546.0549, 159.5000
546.5370, 159.1641
547.0191, 15.91406
547.5012, 65.67969
547.9833, 52.93359
548.4655, 9.792969
548.9476, 46.33984
549.4297, 100.2578
549.9117, 123.8438
550.3939, 96.02734
550.8760, 52.67188
551.3581, 68.85547
551.8402, 147.7305
552.3223, 185.0625
552.8044, 149.0664
553.2866, 88.13281
553.7687, 20.30469
554.2508, 42.85938
554.7329, 47.81250
555.2150, 74.07031
555.6971, 191.5547
556.1793, 229.4570
556.6614, 221.2070
557.1435, 217.4727
557.6256, 231.1992
558.1077, 250.6992
558.5898, 262.9062
559.0720, 268.1523
559.5541, 289.9883
560.0362, 352.9727
560.5183, 393.4297
561.0004, 393.7734
561.4825, 366.2852
561.9647, 310.5039
562.4468, 230.7070
562.9289, 156.8594
563.4110, 98.27344
563.8931, 64.75391
564.3752, 88.28516
564.8574, 164.5938
565.3395, 226.9492
565.8216, 242.9180
566.3037, 230.4531
566.7858, 222.2578
567.2679, 218.7422
567.7501, 217.8398
568.2322, 222.3711
568.7143, 226.7383
569.1964, 232.3555
569.6785, 234.7734
570.1606, 222.3906
570.6428, 188.8672
571.1249, 154.4570
571.6070, 156.3789
572.0891, 193.3984
572.5712, 202.6055
573.0533, 162.0273
573.5355, 126.1641
574.0176, 138.5781
574.4997, 181.5586
574.9818, 207.3477
575.4639, 201.4844
575.9460, 200.5117
576.4282, 215.3086
576.9103, 240.1328
577.3924, 273.7930
577.8745, 312.5703
578.3566, 344.8828
578.8387, 363.9844
579.3209, 369.1680
579.8030, 344.3672
580.2851, 254.8086
580.7672, 215.5781
581.2493, 311.4648
581.7314, 409.9180
582.2136, 420.0664
582.6957, 358.1680
583.1778, 307.4062
583.6599, 304.7305
584.1420, 323.4375
584.6241, 367.1484
585.1063, 413.0820
585.5884, 367.1133
586.0705, 197.6445
586.5526, 42.39844
587.0347, 64.83984
587.5168, 274.6016
587.9990, 399.2695
588.4811, 389.0898
588.9632, 350.4141
589.4453, 273.8125
589.9274, 194.2969
590.4095, 145.1953
590.8917, 131.3945
591.3738, 134.8633
591.8559, 144.0078
592.3380, 146.3242
592.8201, 118.4805
593.3022, 60.46094
593.7844, 39.47266
594.2665, 92.81641
594.7486, 168.8047
595.2307, 186.3359
595.7128, 121.8242
596.1949, 86.17969
596.6771, 99.55078
597.1592, 121.6914
597.6413, 140.8438
598.1234, 154.0273
598.6055, 156.4297
599.0876, 147.2461
599.5698, 136.6445
600.0519, 136.9883
600.5340, 147.1094
601.0161, 154.6094
601.4982, 156.1562
601.9803, 167.1289
602.4625, 202.1133
602.9446, 245.9727
603.4267, 276.3750
603.9088, 295.7305
604.3909, 292.3398
604.8730, 235.0586
605.3552, 172.6406
605.8373, 156.3047
606.3194, 174.7070
606.8015, 184.8320
607.2836, 166.0859
607.7657, 142.2344
608.2479, 159.4336
608.7300, 228.6719
609.2121, 235.0820
609.6942, 123.4023
610.1763, 35.82031
610.6584, 80.24219
611.1406, 182.9844
611.6227, 234.5352
612.1048, 206.5742
612.5869, 187.3750
613.0690, 222.7656
613.5511, 262.6953
614.0333, 255.0820
614.5154, 204.6289
614.9975, 150.4688
615.4796, 113.9297
615.9617, 88.76172
616.4438, 58.06250
616.9260, 14.34375
617.4081, 6.718750
617.8902, 18.31641
618.3723, 40.39453
618.8544, 26.94531
619.3365, 2.371094
619.8187, 10.96875
620.3008, 14.12109
620.7829, 45.40234
621.2650, 69.49609
621.7471, 86.92969
622.2292, 96.77734
622.7114, 100.1094
623.1935, 105.5625
623.6756, 119.3828
624.1577, 136.0859
624.6398, 140.3984
625.1219, 128.7188
625.6041, 113.1953
626.0862, 75.49219
626.5683, 52.51953
627.0504, 74.66016
627.5325, 120.4648
628.0146, 143.8047
628.4968, 121.5352
628.9789, 105.2305
629.4610, 155.1914
629.9431, 232.7461
630.4252, 254.7070
630.9073, 216.4453
631.3895, 183.6953
631.8716, 202.7891
632.3537, 251.8555
632.8358, 262.8828
633.3179, 211.8125
633.8000, 170.8555
634.2822, 142.5078
634.7643, 123.4258
635.2464, 114.5938
635.7285, 113.5117
636.2106, 119.0039
636.6927, 135.9453
637.1749, 140.3203
637.6570, 89.11328
638.1391, 16.44922
638.6212, 7.183594
639.1033, 66.42969
639.5854, 110.9570
640.0676, 83.03906
640.5497, 11.66797
641.0318, 15.83594
641.5139, 26.95312
641.9960, 62.65234
642.4781, 91.34375
642.9603, 112.7422
643.4424, 119.8906
643.9245, 121.1367
644.4066, 137.9180
644.8887, 185.4023
645.3708, 212.8125
645.8530, 152.7344
646.3351, 50.06641
646.8172, 3.312500
647.2993, 18.40625
647.7814, 22.02344
648.2635, 36.23047
648.7457, 116.9023
649.2278, 113.6367
649.7099, 38.75000
650.1920, 130.6680
650.6741, 97.28906
651.1563, 73.51562
651.6384, 142.5469
652.1205, 249.7031
652.6026, 298.4102
653.0847, 257.5352
653.5668, 187.1562
654.0490, 104.7812
654.5311, 33.57031
655.0132, 28.23828
655.4953, 83.25391
655.9774, 124.5898
656.4595, 110.6250
656.9417, 76.21484
657.4238, 95.20703
657.9059, 192.7461
658.3880, 262.0586
658.8701, 315.1914
659.3522, 323.6602
659.8344, 232.4648
660.3165, 110.9102
660.7986, 55.12109
661.2807, 87.66797
661.7628, 136.9688
662.2449, 177.1094
662.7271, 198.5586
663.2092, 181.6875
663.6913, 132.8984
664.1734, 70.99609
664.6555, 2.253906
665.1376, 43.83594
665.6198, 11.42969
666.1019, 115.8984
666.5840, 185.0000
667.0661, 152.4336
667.5482, 125.5820
668.0303, 179.9688
668.5125, 231.8359
668.9946, 163.3398
669.4767, 35.24609
669.9588, 170.1016
670.4409, 106.9297
670.9230, 12.74219
671.4052, 66.78906
671.8873, 74.74219
672.3694, 95.85156
672.8515, 148.0078
673.3336, 204.7812
673.8157, 232.9609
674.2979, 236.6172
674.7800, 285.6211
675.2621, 426.7305
675.7442, 489.6953
676.2263, 347.9570
676.7084, 177.5586
677.1906, 157.8672
677.6727, 272.1484
678.1548, 353.6016
678.6369, 347.0625
679.1190, 315.2148
679.6011, 269.7852
680.0833, 230.4922
680.5654, 233.7617
681.0475, 278.3945
681.5296, 320.1016
682.0117, 321.7148
682.4938, 299.1172
682.9760, 307.7070
683.4581, 355.5664
683.9402, 356.9414
684.4223, 268.4023
684.9044, 179.9023
685.3865, 169.4688
685.8687, 223.5156
686.3508, 266.9922
686.8329, 308.5117
687.3150, 325.4102
687.7971, 293.1289
688.2792, 249.6758
688.7614, 226.4883
689.2435, 220.9180
689.7256, 212.7930
690.2077, 189.9688
690.6898, 172.2070
691.1719, 205.6797
691.6541, 274.5703
692.1362, 273.9883
692.6183, 182.5625
693.1004, 111.2969
693.5825, 128.1914
694.0646, 203.4531
694.5468, 268.4961
695.0289, 328.2656
695.5110, 364.0703
695.9931, 363.0000
696.4752, 353.1523
696.9573, 334.4531
697.4395, 319.7500
697.9216, 330.7539
698.4037, 372.4531
698.8858, 413.2539
699.3679, 439.2891
699.8500, 445.2695
700.3322, 399.5117
700.8143, 318.5234
701.2964, 297.0156
701.7785, 373.0234
702.2606, 477.4023
702.7427, 520.8398
703.2249, 501.0586
703.7070, 495.3086
704.1891, 526.5547
704.6712, 532.5547
705.1533, 455.0391
705.6354, 380.1758
706.1176, 392.2891
706.5997, 476.5391
707.0818, 535.7695
707.5639, 522.8203
708.0460, 494.1328
708.5281, 478.5234
709.0103, 476.6211
709.4924, 508.3867
709.9745, 563.6406
710.4566, 573.6602
710.9387, 477.4805
711.4208, 334.4805
711.9030, 312.1680
712.3851, 425.4766
712.8672, 490.1562
713.3493, 473.8086
713.8314, 423.9727
714.3135, 344.9375
714.7957, 260.9844
715.2778, 250.6367
715.7599, 372.0508
716.2420, 437.8086
716.7241, 364.4492
717.2062, 282.3047
717.6884, 279.5156
718.1705, 328.6367
718.6526, 370.7383
719.1347, 385.7500
719.6168, 387.1367
720.0989, 394.4531
720.5811, 396.1602
721.0632, 345.9570
721.5453, 252.8555
722.0274, 211.6484
722.5095, 264.3945
722.9916, 343.5430
723.4738, 361.8125
723.9559, 313.6719
724.4380, 291.6953
724.9201, 331.7227
725.4022, 344.0547
725.8843, 280.9297
726.3665, 209.0625
726.8486, 180.7422
727.3307, 195.1758
727.8128, 213.5391
728.2949, 258.0938
728.7770, 291.2773
729.2592, 264.5820
729.7413, 216.2734
730.2234, 195.4258
730.7055, 209.5352
731.1876, 252.1602
731.6697, 324.9531
732.1519, 394.7227
732.6340, 377.2188
733.1161, 269.0859
733.5982, 191.1914
734.0803, 154.0117
734.5624, 151.1367
735.0446, 203.1758
735.5267, 272.9609
736.0088, 266.3242
736.4909, 138.5781
736.9730, 75.07812
737.4551, 145.6172
737.9373, 217.1445
738.4194, 225.2422
738.9015, 197.9141
739.3836, 166.5820
739.8657, 140.9961
740.3478, 131.8281
740.8300, 162.5742
741.3121, 204.2227
741.7942, 207.8516
742.2763, 186.0273
742.7584, 183.0117
743.2405, 210.1680
743.7227, 252.2266
744.2048, 299.8672
744.6869, 347.3398
745.1690, 359.8320
745.6511, 323.1289
746.1332, 282.6484
746.6154, 238.1797
747.0975, 206.4648
747.5796, 194.6719
748.0617, 203.4805
748.5438, 241.1797
749.0259, 334.4453
749.5081, 393.2734
749.9902, 367.3633
750.4723, 320.6875
750.9544, 304.7422
751.4365, 305.5430
751.9186, 282.6562
752.4008, 223.6914
752.8829, 167.3672
753.3650, 150.0742
753.8471, 165.0312
754.3292, 208.6367
754.8113, 276.0586
755.2935, 323.0938
755.7756, 343.6602
756.2577, 338.6055
756.7398, 306.5352
757.2219, 248.6055
757.7040, 183.3320
758.1862, 86.37891
758.6683, 28.06250
759.1504, 47.08203
759.6325, 82.38281
760.1146, 102.7500
760.5967, 109.9219
761.0789, 112.0938
761.5610, 109.5352
762.0431, 105.0664
762.5252, 96.85156
763.0073, 89.85156
763.4894, 87.01953
763.9716, 90.62500
764.4537, 109.0664
764.9358, 148.6523
765.4179, 189.8984
765.9000, 209.1055
766.3821, 210.9922
766.8643, 216.2695
767.3464, 224.8281
767.8285, 206.1797
768.3106, 141.6875
768.7927, 84.07031
769.2748, 102.3789
769.7570, 192.3945
770.2391, 210.3516
770.7212, 70.96484
771.2033, 3.812500
771.6854, 100.0273
772.1675, 220.7383
772.6497, 302.2188
773.1318, 336.8828
773.6139, 306.1094
774.0960, 164.7812
774.5781, 57.88672
775.0602, 78.30859
775.5424, 140.1406
776.0245, 178.3203
776.5066, 186.6875
776.9887, 165.6797
777.4708, 116.3594
777.9529, 57.14844
778.4351, 3.125000
778.9172, 55.80078
779.3993, 66.79688
779.8814, 38.21484
780.3635, 17.67578
780.8456, 20.91016
781.3278, 27.92578
781.8099, 18.01953
782.2920, 6.750000
782.7741, 26.93750
783.2562, 48.72266
783.7383, 57.05078
784.2205, 14.82422
784.7026, 17.71875
785.1847, 23.16797
785.6668, 99.10156
786.1489, 119.2891
786.6310, 45.58984
787.1132, 1.246094
787.5953, 50.72266
788.0774, 115.0430
788.5595, 123.6484
789.0416, 98.58594
789.5237, 82.86328
790.0059, 90.16406
790.4880, 118.6328
790.9701, 189.3633
791.4522, 264.6562
791.9343, 257.4883
792.4164, 186.3008
792.8986, 146.6914
793.3807, 160.3516
793.8628, 165.8633
794.3449, 105.3242
794.8270, 9.359375
795.3091, 6.082031
795.7913, 89.82422
796.2734, 149.7891
796.7555, 155.6367
797.2376, 138.7812
797.7197, 103.0156
798.2018, 60.26172
798.6840, 31.08984
799.1661, 16.55078
799.6482, 9.851563
800.1303, 16.26562
800.6124, 23.42578
801.0945, 30.91016
801.5767, 32.25781
802.0588, 8.480469
802.5409, 32.19141
803.0230, 42.26172
803.5051, 21.27734
803.9872, 93.73047
804.4694, 104.5352
804.9515, 80.99219
805.4336, 74.51172
805.9157, 87.67969
806.3978, 95.66016
806.8799, 85.08984
807.3621, 61.94922
807.8442, 28.25000
808.3263, 14.21875
808.8084, 27.69922
809.2905, 9.488281
809.7726, 29.31250
810.2548, 100.5469
810.7369, 154.2422
811.2190, 112.0234
811.7011, 24.40234
812.1832, 52.57812
812.6653, 154.1367
813.1475, 280.2070
813.6296, 232.0078
814.1117, 157.9141
814.5938, 150.9062
815.0759, 188.6836
815.5580, 209.5156
816.0402, 195.6172
816.5223, 183.1562
817.0044, 194.4180
817.4865, 206.7734
817.9686, 200.0781
818.4507, 181.7734
818.9329, 172.9688
819.4150, 175.7266
819.8971, 158.9766
820.3792, 76.94141
820.8613, 18.37109
821.3434, 34.30859
821.8256, 14.58594
822.3077, 83.35938
822.7898, 161.3711
823.2719, 219.3750
823.7540, 236.9883
824.2361, 226.1875
824.7183, 212.4883
825.2004, 195.4023
825.6825, 179.6250
826.1646, 164.4180
826.6467, 151.3516
827.1288, 131.9805
827.6110, 126.2891
828.0931, 173.5352
828.5752, 281.2227
829.0573, 329.6914
829.5394, 255.6758
830.0215, 217.7656
830.5037, 287.5430
830.9858, 360.2734
831.4679, 347.6445
831.9500, 273.9531
832.4321, 211.0664
832.9142, 174.3516
833.3964, 163.6523
833.8785, 207.3047
834.3606, 251.6445
834.8427, 235.6602
835.3248, 186.9102
835.8069, 158.4766
836.2891, 165.6211
836.7712, 197.9727
837.2533, 274.1953
837.7354, 351.5195
838.2175, 326.9414
838.6996, 230.1641
839.1818, 194.5547
839.6639, 237.9844
840.1460, 242.6367
840.6281, 122.9297
841.1102, 34.90234
841.5923, 33.92578
842.0745, 145.0117
842.5566, 250.2695
843.0387, 269.5938
843.5208, 268.0312
844.0029, 269.7305
844.4850, 258.7773
844.9672, 202.9805
845.4493, 105.4922
845.9314, 71.07031
846.4135, 164.8945
846.8956, 227.5664
847.3777, 222.3320
847.8599, 207.3672
848.3420, 223.6094
848.8241, 252.2852
849.3062, 257.6406
849.7883, 233.1562
850.2704, 190.5898
850.7526, 97.60547
851.2347, 27.00391
851.7168, 47.72266
852.1989, 107.8281
852.6810, 128.7812
853.1631, 105.7305
853.6453, 100.3438
854.1274, 155.8281
854.6095, 220.8281
855.0916, 235.8711
855.5737, 219.8945
856.0558, 214.2422
856.5380, 217.4102
857.0201, 194.8672
857.5022, 131.5430
857.9843, 71.98047
858.4664, 86.74219
858.9485, 154.1523
859.4307, 153.0977
859.9128, 82.41016
860.3949, 35.27734
860.8770, 37.00000
861.3591, 72.07422
861.8412, 126.1719
862.3234, 190.9570
862.8055, 244.3672
863.2876, 293.1094
863.7697, 308.5898
864.2518, 279.7891
864.7339, 235.1055
865.2161, 169.3828
865.6982, 105.5391
866.1803, 75.01953
866.6624, 79.03906
867.1445, 94.34375
867.6266, 146.8125
868.1088, 173.8672
868.5909, 134.7773
869.0730, 91.25391
869.5551, 82.05469
870.0372, 101.9180
870.5193, 144.5352
871.0015, 211.4648
871.4836, 241.8320
871.9657, 170.3242
872.4478, 89.73438
872.9299, 63.48438
873.4120, 78.55859
873.8942, 126.1641
874.3763, 190.2383
874.8584, 230.6328
875.3405, 220.3359
875.8226, 181.3789
876.3047, 123.7422
876.7869, 62.09375
877.2690, 18.33984
877.7511, 3.320313
878.2332, 16.64844
878.7153, 83.10156
879.1974, 163.7500
879.6796, 232.1992
880.1617, 280.8984
880.6438, 280.9453
881.1259, 234.6289
881.6080, 183.6211
882.0901, 133.9141
882.5723, 110.7617
883.0544, 138.1289
883.5365, 187.4883
884.0186, 184.3828
884.5007, 113.9648
884.9828, 87.49609
885.4650, 133.8438
885.9471, 140.3359
886.4292, 32.00781
886.9113, 80.19141
887.3934, 62.94922
887.8755, 68.40625
888.3577, 135.1250
888.8398, 67.70703
889.3219, 38.76562
889.8040, 77.83984
890.2861, 132.3125
890.7682, 194.7461
891.2504, 249.4531
891.7325, 272.5078
892.2146, 260.8359
892.6967, 238.2773
893.1788, 202.2617
893.6609, 165.3008
894.1431, 125.0195
894.6252, 91.72266
895.1073, 70.38281
895.5894, 64.64844
896.0715, 89.77344
896.5536, 161.9922
897.0358, 204.4336
897.5179, 131.0820
898.0000, 45.80859
898.4821, 42.57031
898.9642, 90.22656
899.4464, 159.5859
899.9285, 233.5977
900.4106, 256.8828
900.8927, 180.9609
901.3748, 83.44141
901.8569, 53.37891
902.3391, 70.62109
902.8212, 110.0078
903.3033, 159.4570
903.7854, 190.2109
904.2675, 191.9922
904.7496, 164.3438
905.2318, 84.91016
905.7139, 2.558594
906.1960, 62.18750
906.6781, 248.5234
907.1602, 315.8516
907.6423, 226.6797
908.1245, 119.0781
908.6066, 68.64062
909.0887, 63.40234
909.5708, 95.83203
910.0529, 164.9180
910.5350, 191.9180
911.0172, 174.1289
911.4993, 129.6172
911.9814, 40.17578
912.4635, 14.96094
912.9456, 178.3477
913.4277, 445.3789
913.9099, 513.1250
914.3920, 283.9062
914.8741, 159.6094
915.3562, 198.1484
915.8383, 231.7422
916.3204, 191.1016
916.8026, 129.9141
917.2847, 111.8359
917.7668, 134.6172
918.2489, 128.5625
918.7310, 39.05859
919.2131, 4.011719
919.6953, 64.69141
920.1774, 142.8477
920.6595, 231.3320
921.1416, 299.6758
921.6237, 293.0391
922.1058, 205.4414
922.5880, 145.4453
923.0701, 136.4062
923.5522, 153.4727
924.0343, 225.2070
924.5164, 287.8945
924.9985, 267.5195
925.4807, 204.7070
925.9628, 202.6562
926.4449, 294.2422
926.9270, 351.0469
927.4091, 287.8438
927.8912, 203.9062
928.3734, 154.3945
928.8555, 126.3750
929.3376, 109.4180
929.8197, 96.62109
930.3018, 69.35938
930.7839, 12.22656
931.2661, 18.10938
931.7482, 47.48047
932.2303, 139.0273
932.7124, 200.3672
933.1945, 222.2695
933.6766, 168.9609
934.1588, 56.21094
934.6409, 10.67578
935.1230, 44.01172
935.6051, 139.4883
936.0872, 185.2969
936.5693, 204.2812
937.0515, 250.1523
937.5336, 307.5977
938.0157, 307.8867
938.4978, 234.4844
938.9799, 144.9453
939.4620, 80.20703
939.9442, 46.16406
940.4263, 78.63281
940.9084, 150.1133
941.3905, 153.3516
941.8726, 86.23828
942.3547, 17.12109
942.8369, 25.34375
943.3190, 31.01562
943.8011, 27.50391
944.2832, 117.8086
944.7653, 103.8320
945.2474, 3.320313
945.7296, 37.94531
946.2117, 2.578125
946.6938, 59.12500
947.1759, 124.0703
947.6580, 177.8242
948.1401, 196.7227
948.6223, 182.0273
949.1044, 140.3594
949.5865, 66.77734
950.0686, 28.82812
950.5507, 44.56641
951.0328, 75.64062
951.5150, 99.66797
951.9971, 116.0312
952.4792, 121.9453
952.9613, 116.3008
953.4434, 115.2461
953.9255, 120.4023
954.4077, 123.2383
954.8898, 118.9648
955.3719, 118.7539
955.8540, 133.8789
956.3361, 157.1445
956.8182, 165.6680
957.3004, 153.7461
957.7825, 147.8203
958.2646, 144.7852
958.7467, 155.8750
959.2288, 193.5820
959.7109, 233.9492
960.1931, 260.9766
960.6752, 270.6992
961.1573, 254.5273
961.6394, 187.7227
962.1215, 153.3125
962.6036, 188.4883
963.0858, 198.0078
963.5679, 112.3086
964.0500, 20.00781
964.5321, 25.40625
965.0142, 113.3398
965.4963, 163.0703
965.9785, 154.9453
966.4606, 139.3789
966.9427, 118.1719
967.4248, 87.96484
967.9069, 17.04297
968.3890, 43.21094
968.8712, 15.36719
969.3533, 91.39062
969.8354, 146.4062
970.3175, 106.8516
970.7996, 67.91406
971.2817, 21.63281
971.7639, 3.734375
972.2460, 23.16016
972.7281, 68.34375
973.2102, 93.18359
973.6923, 94.74219
974.1744, 72.93359
974.6566, 8.828125
975.1387, 57.75391
975.6208, 41.35156
976.1029, 9.566406
976.5850, 18.69141
977.0671, 41.35938
977.5493, 54.41016
978.0314, 57.92578
978.5135, 67.25391
978.9956, 71.20703
979.4777, 101.9766
979.9598, 233.5742
980.4420, 329.6250
980.9241, 240.2852
981.4062, 78.64844
981.8883, 44.00000
982.3704, 162.9180
982.8525, 273.9805
983.3347, 345.3008
983.8168, 380.2266
984.2989, 370.7852
984.7810, 333.9609
985.2631, 258.4258
985.7452, 174.4609
986.2274, 131.0664
986.7095, 137.2695
987.1916, 168.4141
987.6737, 255.0117
988.1558, 313.8281
988.6379, 294.0781
989.1201, 243.9688
989.6022, 195.5742
990.0843, 154.5352
990.5664, 118.2188
991.0485, 86.42578
991.5306, 92.38672
992.0128, 215.7539
992.4949, 293.9453
992.9770, 204.9727
993.4591, 85.10938
993.9412, 32.19922
994.4233, 40.56250
994.9055, 72.29688
995.3876, 119.0195
995.8697, 171.9414
996.3518, 264.1953
996.8339, 314.6562
997.3160, 250.6445
997.7982, 153.3242
998.2803, 66.78906
998.7624, 16.26953
999.2445, 53.50000
999.7266, 189.9414
1000.209, 303.3164
1000.691, 342.5742
1001.173, 340.3867
1001.655, 290.8906
1002.137, 229.5312
1002.619, 175.8594
1003.101, 141.0352
1003.584, 146.3711
1004.066, 200.8711
1004.548, 249.1641
1005.030, 271.6562
1005.512, 275.9805
1005.994, 259.9102
1006.476, 233.0391
1006.958, 183.8203
1007.440, 137.4219
1007.923, 159.3867
1008.405, 262.0547
1008.887, 309.6836
1009.369, 190.7773
1009.851, 73.51562
1010.333, 37.89844
1010.815, 41.75000
1011.297, 58.34375
1011.780, 81.10156
1012.262, 107.1289
1012.744, 135.6875
1013.226, 161.0820
1013.708, 197.1680
1014.190, 208.4570
1014.672, 143.9297
1015.154, 81.72266
1015.636, 112.1328
1016.119, 179.0781
1016.601, 163.8125
1017.083, 51.22266
1017.565, 20.37109
1018.047, 29.40625
1018.529, 84.56641
1019.011, 117.4414
1019.493, 124.0273
1019.976, 72.16406
1020.458, 5.828125
1020.940, 5.140625
1021.422, 75.34766
1021.904, 118.4922
1022.386, 69.90234
1022.868, 42.23828
1023.350, 97.48828
1023.832, 153.5234
1024.315, 151.9609
1024.797, 120.6758
1025.279, 101.5547
1025.761, 97.88281
1026.243, 89.82031
1026.725, 59.91406
1027.207, 57.03516
1027.689, 116.4453
1028.172, 175.7852
1028.654, 199.0977
1029.136, 204.7852
1029.618, 225.3867
1030.100, 257.2422
1030.582, 250.5156
1031.064, 174.9258
1031.546, 100.4141
1032.028, 15.01562
1032.511, 42.87109
1032.993, 47.13672
1033.475, 21.43750
1033.957, 13.18750
1034.439, 51.96875
1034.921, 81.33203
1035.403, 88.98047
1035.885, 109.1211
1036.368, 177.5898
1036.850, 216.1094
1037.332, 172.0898
1037.814, 109.7812
1038.296, 87.10547
1038.778, 95.50781
1039.260, 102.2227
1039.742, 110.3672
1040.224, 108.3008
1040.707, 87.09375
1041.189, 69.17969
1041.671, 60.12109
1042.153, 56.53516
1042.635, 59.19922
1043.117, 63.94531
1043.599, 58.90234
1044.081, 41.68359
1044.563, 25.64062
1045.046, 3.312500
1045.528, 0.9218750
1046.010, 37.07812
1046.492, 68.31250
1046.974, 60.63672
1047.456, 35.62500
1047.938, 37.05859
1048.420, 66.57812
1048.902, 94.30469
1049.385, 131.8477
1049.867, 112.7383
1050.349, 6.640625
1050.831, 77.24609
1051.313, 1.660156
1051.795, 126.2891
1052.277, 135.6836
1052.759, 45.22266
1053.242, 19.33984
1053.724, 65.63672
1054.206, 88.73438
1054.688, 75.77344
1055.170, 54.58594
1055.652, 35.87109
1056.134, 24.29688
1056.616, 23.93359
1057.099, 36.98438
1057.581, 83.36328
1058.063, 157.6055
1058.545, 170.1094
1059.027, 114.6641
1059.509, 83.96094
1059.991, 109.7852
1060.473, 147.5078
1060.955, 154.0078
1061.438, 140.5820
1061.920, 140.5742
1062.402, 146.4492
1062.884, 112.4180
1063.366, 56.30469
1063.848, 73.47656
1064.330, 171.2344
1064.812, 228.6758
1065.294, 157.9688
1065.777, 64.07422
1066.259, 117.0156
1066.741, 225.8984
1067.223, 200.1367
1067.705, 90.93750
1068.187, 26.10938
1068.669, 23.42969
1069.151, 49.10547
1069.634, 87.92188
1070.116, 135.5508
1070.598, 217.4805
1071.080, 282.2969
1071.562, 239.5078
1072.044, 156.5664
1072.526, 127.7812
1073.008, 142.7070
1073.490, 139.4297
1073.973, 102.0000
1074.455, 86.80078
1074.937, 162.5742
1075.419, 221.7852
1075.901, 179.3789
1076.383, 108.5430
1076.865, 55.46484
1077.347, 32.60938
1077.829, 70.57031
1078.312, 159.2969
1078.794, 198.7500
1079.276, 122.7539
1079.758, 59.33594
1080.240, 33.98047
1080.722, 50.01172
1081.204, 156.5781
1081.686, 270.6758
1082.169, 299.4141
1082.651, 252.8711
1083.133, 193.9531
1083.615, 117.6523
1084.097, 62.22656
1084.579, 23.80469
1085.061, 16.78125
1085.543, 73.70703
1086.026, 132.8047
1086.508, 149.5625
1086.990, 140.1016
1087.472, 139.7109
1087.954, 151.8203
1088.436, 136.2734
1088.918, 65.01953
1089.400, 46.89844
1089.882, 122.3047
1090.365, 186.4062
1090.847, 190.7109
1091.329, 156.6719
1091.811, 97.97266
1092.293, 27.41406
1092.775, 54.03125
1093.257, 190.1758
1093.739, 219.5156
1094.221, 117.5742
1094.704, 58.61719
1095.186, 105.2773
1095.668, 182.9609
1096.150, 231.7305
1096.632, 250.8555
1097.114, 226.4062
1097.596, 170.8281
1098.078, 136.6523
1098.561, 123.9727
1099.043, 131.1562
1099.525, 153.3516
1100.007, 162.5938
1100.489, 143.0898
1100.971, 112.8281
1101.453, 82.65234
1101.935, 62.21094
1102.417, 64.48438
1102.900, 88.62109
1103.382, 151.8516
1103.864, 233.4375
1104.346, 274.7148
1104.828, 258.7188
1105.310, 217.8359
1105.792, 163.4922
1106.274, 106.8398
1106.756, 34.63281
1107.239, 17.62109
1107.721, 0.2109380
1108.203, 59.57031
1108.685, 132.3281
1109.167, 210.5820
1109.649, 240.2383
1110.131, 184.9414
1110.613, 142.1289
1111.096, 152.7969
1111.578, 163.3438
1112.060, 145.7891
1112.542, 123.9805
1113.024, 119.7227
1113.506, 125.8594
1113.988, 132.2461
1114.470, 143.4922
1114.953, 121.6992
1115.435, 24.97266
1115.917, 14.03516
1116.399, 61.88672
1116.881, 113.2070
1117.363, 55.90234
1117.845, 27.16797
1118.327, 28.57031
1118.809, 32.33984
1119.292, 54.69922
1119.774, 36.10938
1120.256, 0.7460940
1120.738, 53.58984
1121.220, 54.72266
1121.702, 20.00000
1122.184, 131.7656
1122.666, 261.9141
1123.148, 359.5586
1123.631, 295.7188
1124.113, 143.2148
1124.595, 158.0117
1125.077, 284.0898
1125.559, 334.1445
1126.041, 290.1797
1126.523, 212.2539
1127.005, 126.4688
1127.488, 47.43750
1127.970, 35.55078
1128.452, 71.86328
1128.934, 38.05859
1129.416, 185.3984
1129.898, 256.2266
1130.380, 256.3750
1130.862, 191.3867
1131.344, 83.62891
1131.827, 16.48828
1132.309, 21.92578
1132.791, 63.24609
1133.273, 175.4141
1133.755, 257.5625
1134.237, 244.8125
1134.719, 196.9805
1135.201, 152.0703
1135.683, 118.9023
1136.166, 115.7461
1136.648, 148.7266
1137.130, 161.9766
1137.612, 131.5156
1138.094, 133.1406
1138.576, 199.8906
1139.058, 243.7969
1139.540, 220.4375
1140.023, 171.0195
1140.505, 135.5898
1140.987, 113.7734
1141.469, 106.4648
1141.951, 113.8750
1142.433, 124.5156
1142.915, 137.9258
1143.397, 122.7305
1143.880, 73.07422
1144.362, 38.50781
1144.844, 47.89844
1145.326, 73.11328
1145.808, 77.10547
1146.290, 74.58984
1146.772, 96.55078
1147.254, 133.0625
1147.736, 173.6758
1148.219, 207.6289
1148.701, 197.4023
1149.183, 145.7969
1149.665, 139.0430
1150.147, 251.5156
1150.629, 337.8086
1151.111, 265.8633
1151.593, 171.1875
1152.075, 146.1523
1152.558, 157.7930
1153.040, 171.6914
1153.522, 185.2852
1154.004, 209.4766
1154.486, 250.7188
1154.968, 260.8359
1155.450, 208.0586
1155.932, 166.9180
1156.415, 138.8281
1156.897, 119.9531
1157.379, 106.0664
1157.861, 102.2969
1158.343, 118.1328
1158.825, 146.0977
1159.307, 155.6680
1159.789, 144.7461
1160.271, 134.0586
1160.754, 123.0312
1161.236, 137.3086
1161.718, 182.4141
1162.200, 200.0195
1162.682, 156.3555
1163.164, 84.85938
1163.646, 8.507813
1164.128, 46.35938
1164.610, 1.320313
1165.093, 91.00000
1165.575, 123.9531
1166.057, 107.4609
1166.539, 90.73438
1167.021, 86.19922
1167.503, 85.16797
1167.985, 84.14062
1168.467, 83.10938
1168.950, 89.66016
1169.432, 87.03125
1169.914, 36.61719
1170.396, 3.011719
1170.878, 53.90625
1171.360, 152.2305
1171.842, 160.7227
1172.324, 64.39062
1172.807, 29.98438
1173.289, 129.6680
1173.771, 168.0312
1174.253, 107.0508
1174.735, 51.81250
1175.217, 28.70312
1175.699, 42.80078
1176.181, 114.5000
1176.663, 208.5195
1177.146, 237.4961
1177.628, 207.8867
1178.110, 189.2227
1178.592, 175.7695
1179.074, 133.4258
1179.556, 70.12109
1180.038, 54.81250
1180.520, 110.2930
1181.002, 149.3398
1181.485, 90.92578
1181.967, 16.18750
1182.449, 5.488281
1182.931, 48.21875
1183.413, 137.9062
1183.895, 224.9180
1184.377, 229.6094
1184.859, 168.2695
1185.342, 99.19531
1185.824, 34.16406
1186.306, 14.41797
1186.788, 92.26562
1187.270, 157.5234
1187.752, 178.9102
1188.234, 186.8672
1188.716, 197.0195
1189.198, 199.4766
1189.681, 176.9336
1190.163, 142.7617
1190.645, 143.9531
1191.127, 185.9219
1191.609, 220.8633
1192.091, 251.4414
1192.573, 236.4258
1193.055, 168.1211
1193.537, 119.3516
1194.020, 123.0352
1194.502, 145.0938
1194.984, 156.5312
1195.466, 153.7422
1195.948, 108.0391
1196.430, 58.86719
1196.912, 99.37891
1197.394, 182.4766
1197.877, 204.3516
1198.359, 167.6992
1198.841, 145.2852
1199.323, 161.6445
1199.805, 164.1289
1200.287, 79.06641
1200.769, 43.42578
1201.251, 159.1641
1201.734, 261.8750
1202.216, 233.4844
1202.698, 159.5391
1203.180, 135.6289
1203.662, 145.9727
1204.144, 145.8945
1204.626, 128.4062
1205.108, 126.4492
1205.590, 138.4883
1206.073, 174.5000
1206.555, 241.2773
1207.037, 280.5312
1207.519, 266.9648
1208.001, 225.0938
1208.483, 168.6523
1208.965, 128.8008
1209.447, 187.4805
1209.929, 280.5977
1210.412, 269.7461
1210.894, 201.3477
1211.376, 188.9766
1211.858, 220.0156
1212.340, 179.2578
1212.822, 34.86328
1213.304, 52.70703
1213.786, 24.57812
1214.269, 114.2852
1214.751, 198.8164
1215.233, 245.4453
1215.715, 203.2188
1216.197, 146.4688
1216.679, 141.5234
1217.161, 171.4922
1217.643, 198.4492
1218.125, 222.5938
1218.608, 228.6289
1219.090, 215.8359
1219.572, 196.9102
1220.054, 173.2539
1220.536, 125.1641
1221.018, 47.87109
1221.500, 25.47656
1221.982, 133.6719
1222.464, 252.2461
1222.947, 187.8828
1223.429, 70.82422
1223.911, 95.66406
1224.393, 177.5312
1224.875, 167.7539
1225.357, 122.3203
1225.839, 102.1914
1226.321, 118.1445
1226.804, 120.7109
1227.286, 79.63281
1227.768, 60.15234
1228.250, 110.4062
1228.732, 126.6133
1229.214, 43.99219
1229.696, 14.87109
1230.178, 36.55078
1230.661, 130.4648
1231.143, 167.1602
1231.625, 159.3828
1232.107, 175.4492
1232.589, 209.7148
1233.071, 178.0547
1233.553, 130.7109
1234.035, 80.75391
1234.517, 36.77344
1235.000, 10.30859
1235.482, 0.3125000
1235.964, 0.0000000E+00
##END=



