##NAMES=Bowieite
##RRUFFID=R070409
##IDEAL CHEMISTRY=Rh^3+^_2_S^2-^_3_
##LOCALITY=Novoseltsi, Burgas Oblast (Bourgas Oblast), Bulgaria
##OWNER=RRUFF
##SOURCE=Michael Scott
##DESCRIPTION=Polished grey metallic grains embedded in epoxy
##STATUS=The identification of this mineral is not yet confirmed.
##URL=rruff.info/R070409
130.3772, 0.0000000E+00
130.8593, 2.449783
131.3414, 6.504883
131.8235, 8.658997
132.3056, 3.936264
132.7877, 0.8911290
133.2699, 1.018066
133.7520, 3.624466
134.2341, 10.01749
134.7162, 17.45393
135.1983, 25.94322
135.6804, 33.35561
136.1626, 38.64674
136.6447, 44.06639
137.1268, 54.92209
137.6089, 72.73164
138.0910, 90.24701
138.5731, 104.9415
139.0553, 118.4758
139.5374, 121.4780
140.0195, 109.6101
140.5016, 87.33749
140.9837, 72.40369
141.4658, 66.43604
141.9480, 65.01382
142.4301, 65.72650
142.9122, 70.06366
143.3943, 73.33966
143.8764, 74.79979
144.3585, 74.46281
144.8407, 74.15419
145.3228, 73.84174
145.8049, 73.57567
146.2870, 73.65677
146.7691, 77.35078
147.2512, 77.06998
147.7334, 69.73145
148.2155, 52.53899
148.6976, 40.56735
149.1797, 34.40657
149.6618, 33.31465
150.1439, 36.29402
150.6261, 48.38055
151.1082, 59.97873
151.5903, 68.30858
152.0724, 71.37708
152.5545, 75.46021
153.0366, 82.96411
153.5188, 91.68155
154.0009, 97.25104
154.4830, 98.15088
154.9651, 96.52393
155.4472, 93.34807
155.9293, 89.09224
156.4115, 82.76709
156.8936, 70.73087
157.3757, 55.56673
157.8578, 45.99162
158.3399, 49.35304
158.8221, 56.34193
159.3042, 60.91771
159.7863, 59.50128
160.2684, 57.53845
160.7505, 55.68472
161.2326, 54.22374
161.7148, 55.45129
162.1969, 64.92297
162.6790, 75.80804
163.1611, 81.41678
163.6432, 74.87399
164.1253, 66.30411
164.6075, 60.09634
165.0896, 56.37407
165.5717, 55.43842
166.0538, 59.81265
166.5359, 66.68311
167.0180, 72.03073
167.5002, 71.87839
167.9823, 71.06621
168.4644, 73.58569
168.9465, 80.08765
169.4286, 87.42224
169.9107, 96.34668
170.3929, 104.5102
170.8750, 107.1783
171.3571, 95.70166
171.8392, 80.15002
172.3213, 72.16693
172.8034, 74.90082
173.2856, 79.87805
173.7677, 78.86920
174.2498, 73.37186
174.7319, 68.55408
175.2140, 69.51738
175.6961, 72.68581
176.1783, 72.01251
176.6604, 64.87048
177.1425, 56.35873
177.6246, 52.24095
178.1067, 52.28232
178.5888, 54.84882
179.0710, 61.30580
179.5531, 69.18988
180.0352, 73.71985
180.5173, 73.20352
180.9994, 68.95355
181.4815, 62.46152
181.9637, 53.80557
182.4458, 47.22676
182.9279, 46.67841
183.4100, 51.29663
183.8921, 57.88799
184.3742, 66.31873
184.8564, 75.81027
185.3385, 84.77829
185.8206, 93.37624
186.3027, 100.5136
186.7848, 104.3469
187.2669, 105.3064
187.7491, 107.1046
188.2312, 111.5006
188.7133, 117.4049
189.1954, 120.0255
189.6775, 119.6711
190.1596, 115.0443
190.6418, 100.8333
191.1239, 77.30759
191.6060, 58.69115
192.0881, 52.90062
192.5702, 58.20784
193.0524, 60.58066
193.5345, 59.66711
194.0166, 57.37819
194.4987, 56.88812
194.9808, 58.35446
195.4629, 59.22736
195.9451, 57.07104
196.4272, 51.97984
196.9093, 51.38390
197.3914, 56.68646
197.8735, 64.64323
198.3556, 68.70961
198.8378, 68.22836
199.3199, 67.95743
199.8020, 71.43546
200.2841, 79.09825
200.7662, 83.21803
201.2483, 82.41690
201.7305, 78.68713
202.2126, 77.30554
202.6947, 79.07045
203.1768, 80.20271
203.6589, 78.09232
204.1410, 72.29488
204.6232, 66.48834
205.1053, 60.82930
205.5874, 55.43974
206.0695, 51.10117
206.5516, 48.46652
207.0337, 45.16768
207.5159, 38.24782
207.9980, 26.03741
208.4801, 19.04437
208.9622, 19.91672
209.4443, 26.96692
209.9264, 32.22475
210.4086, 35.77985
210.8907, 37.36040
211.3728, 35.84924
211.8549, 29.51299
212.3370, 26.17972
212.8191, 28.06810
213.3013, 34.32259
213.7834, 37.45424
214.2655, 35.88165
214.7476, 33.72697
215.2297, 35.02295
215.7118, 41.62337
216.1940, 46.58215
216.6761, 48.68536
217.1582, 48.00934
217.6403, 45.34386
218.1224, 39.14226
218.6045, 33.05847
219.0867, 31.28064
219.5688, 36.55533
220.0509, 39.70630
220.5330, 38.33080
221.0151, 32.18723
221.4972, 26.18050
221.9794, 19.80888
222.4615, 14.14378
222.9436, 10.13098
223.4257, 7.543198
223.9078, 7.285553
224.3899, 10.99948
224.8721, 19.47890
225.3542, 21.66663
225.8363, 14.48488
226.3184, 3.954559
226.8005, 2.941391
227.2827, 4.908401
227.7648, 5.560501
228.2469, 5.533203
228.7290, 4.712570
229.2111, 4.228073
229.6932, 4.950409
230.1754, 5.375793
230.6575, 2.533356
231.1396, 7.074478
231.6217, 13.91116
232.1038, 14.21423
232.5859, 5.965744
233.0681, 2.408844
233.5502, 6.315414
234.0323, 12.91983
234.5144, 14.98201
234.9965, 9.259598
235.4786, 4.481796
235.9608, 3.896729
236.4429, 9.043076
236.9250, 10.96852
237.4071, 7.432327
237.8892, 2.052704
238.3713, 1.002823
238.8535, 7.626755
239.3356, 12.96918
239.8177, 13.73479
240.2998, 8.321564
240.7819, 4.457718
241.2640, 2.377121
241.7462, 1.643677
242.2283, 1.683777
242.7104, 3.369278
243.1925, 4.382217
243.6746, 3.737640
244.1567, 0.6992950
244.6389, 1.519684
245.1210, 2.851456
245.6031, 3.410400
246.0852, 3.064987
246.5673, 0.5173800
247.0494, 0.6608890
247.5316, 1.499268
248.0137, 9.033356
248.4958, 12.85033
248.9779, 12.27713
249.4600, 8.329544
249.9421, 2.189423
250.4243, 8.935654
250.9064, 17.32651
251.3885, 19.40991
251.8706, 12.61032
252.3527, 8.113678
252.8348, 6.607178
253.3170, 6.972183
253.7991, 6.943634
254.2812, 5.593719
254.7633, 5.646088
255.2454, 8.719757
255.7275, 16.25008
256.2097, 21.40860
256.6918, 23.96747
257.1739, 24.26070
257.6560, 22.33728
258.1381, 16.48933
258.6202, 11.95209
259.1024, 10.99916
259.5845, 14.61081
260.0666, 17.92574
260.5487, 21.35939
261.0308, 24.16965
261.5129, 24.82314
261.9951, 22.46265
262.4772, 19.96585
262.9593, 18.19653
263.4414, 16.92288
263.9235, 17.86919
264.4056, 22.56703
264.8878, 28.06139
265.3699, 28.41670
265.8520, 21.39481
266.3341, 15.65230
266.8162, 15.49921
267.2983, 22.38556
267.7805, 25.12669
268.2626, 22.12918
268.7447, 16.72351
269.2268, 15.05418
269.7089, 18.29459
270.1910, 21.24883
270.6732, 21.46680
271.1553, 18.34669
271.6374, 16.12834
272.1195, 14.81729
272.6016, 14.56866
273.0837, 15.76694
273.5659, 18.81471
274.0480, 21.29457
274.5301, 22.52924
275.0122, 22.52289
275.4943, 20.36603
275.9764, 15.41032
276.4586, 9.523590
276.9407, 4.998840
277.4228, 1.895493
277.9049, 1.073196
278.3870, 3.399139
278.8691, 8.838898
279.3513, 13.91721
279.8334, 18.86096
280.3155, 22.86000
280.7976, 24.76591
281.2798, 24.53023
281.7619, 22.98332
282.2440, 19.76988
282.7261, 15.23555
283.2082, 11.91084
283.6903, 9.787155
284.1725, 8.906998
284.6546, 10.44638
285.1367, 14.23117
285.6188, 15.56209
286.1009, 10.96497
286.5830, 2.447937
287.0652, 1.130020
287.5473, 0.6656800
288.0294, 4.541504
288.5115, 7.136353
288.9936, 8.648483
289.4757, 10.82675
289.9579, 15.30240
290.4400, 20.65703
290.9221, 22.87535
291.4042, 21.82797
291.8863, 19.25827
292.3684, 15.64526
292.8506, 11.60133
293.3327, 9.833664
293.8148, 12.50717
294.2969, 17.20926
294.7790, 18.98665
295.2611, 17.83614
295.7433, 16.25092
296.2254, 16.93240
296.7075, 18.96042
297.1896, 19.62164
297.6717, 17.20248
298.1538, 13.84016
298.6360, 12.94849
299.1181, 14.36032
299.6002, 16.20589
300.0823, 17.63316
300.5644, 18.42191
301.0465, 18.12595
301.5287, 16.38016
302.0108, 13.80905
302.4929, 10.35136
302.9750, 6.295151
303.4571, 3.314392
303.9392, 1.882187
304.4214, 2.523270
304.9035, 6.344925
305.3856, 15.78069
305.8677, 24.09352
306.3498, 24.92908
306.8319, 20.01903
307.3141, 14.72339
307.7962, 10.58711
308.2783, 8.280243
308.7604, 8.899277
309.2425, 14.01411
309.7246, 19.18602
310.2068, 21.41423
310.6889, 21.47128
311.1710, 21.40086
311.6531, 22.46550
312.1352, 23.64790
312.6173, 24.27023
313.0995, 24.38487
313.5816, 23.70688
314.0637, 20.62737
314.5458, 16.74292
315.0279, 15.02226
315.5100, 20.45819
315.9922, 25.45248
316.4743, 25.21486
316.9564, 17.76178
317.4385, 11.02856
317.9206, 7.495819
318.4027, 6.539520
318.8849, 6.563217
319.3670, 8.366974
319.8491, 10.14688
320.3312, 11.33629
320.8133, 11.94423
321.2954, 11.62349
321.7776, 8.188873
322.2597, 4.599457
322.7418, 4.008881
323.2239, 11.34859
323.7060, 17.25839
324.1881, 18.96883
324.6703, 16.02487
325.1524, 13.69011
325.6345, 13.93065
326.1166, 14.08510
326.5987, 11.97791
327.0808, 3.796478
327.5630, 2.185272
328.0451, 5.206772
328.5272, 5.280975
329.0093, 2.291473
329.4914, 8.039520
329.9735, 17.49852
330.4557, 20.20671
330.9378, 10.04774
331.4199, 3.963226
331.9020, 5.329865
332.3841, 12.18668
332.8662, 14.73030
333.3484, 10.93358
333.8305, 5.860886
334.3126, 1.872330
334.7947, 1.378723
335.2768, 2.189041
335.7589, 0.6295170
336.2411, 5.529663
336.7232, 8.073914
337.2053, 6.676666
337.6874, 5.913101
338.1695, 10.22403
338.6516, 20.86520
339.1338, 25.10320
339.6159, 21.00177
340.0980, 13.12396
340.5801, 9.104614
341.0622, 9.207199
341.5443, 10.40355
342.0265, 12.02887
342.5086, 13.97247
342.9907, 14.48950
343.4728, 13.46523
343.9549, 12.34476
344.4370, 13.16104
344.9192, 15.58249
345.4013, 17.95639
345.8834, 20.22173
346.3655, 21.65173
346.8476, 19.61850
347.3297, 14.01175
347.8119, 8.361084
348.2940, 5.827194
348.7761, 5.951996
349.2582, 7.451752
349.7403, 10.35031
350.2225, 14.07425
350.7046, 19.02144
351.1867, 24.81599
351.6688, 28.20538
352.1509, 23.79457
352.6331, 16.27472
353.1152, 13.24707
353.5973, 18.45441
354.0794, 24.66451
354.5615, 24.01878
355.0436, 18.76764
355.5258, 15.74181
356.0079, 21.98837
356.4900, 30.27144
356.9721, 34.25435
357.4542, 32.39131
357.9363, 28.16914
358.4185, 20.42386
358.9006, 11.96524
359.3827, 7.676132
359.8648, 12.93683
360.3469, 20.02647
360.8290, 25.60677
361.3112, 29.42758
361.7933, 31.21271
362.2754, 29.94809
362.7575, 27.06184
363.2396, 24.04504
363.7217, 21.13219
364.2039, 18.28926
364.6860, 14.59344
365.1681, 10.03564
365.6502, 8.778046
366.1323, 16.09647
366.6144, 23.71187
367.0966, 26.04013
367.5787, 17.51454
368.0608, 10.38905
368.5429, 4.469437
369.0250, 0.1694030
369.5071, 0.2160950
369.9893, 8.600861
370.4714, 16.72685
370.9535, 20.08408
371.4356, 15.55875
371.9177, 13.36032
372.3998, 14.38144
372.8820, 17.41089
373.3641, 20.42604
373.8462, 24.70656
374.3283, 25.56177
374.8104, 19.20491
375.2925, 4.402985
375.7747, 2.997818
376.2568, 1.402267
376.7389, 4.291580
377.2210, 7.755219
377.7031, 8.845413
378.1852, 9.791122
378.6674, 11.48856
379.1495, 13.58113
379.6316, 13.98451
380.1137, 12.42323
380.5958, 11.64409
381.0779, 16.28877
381.5601, 24.73668
382.0422, 28.26201
382.5243, 23.36517
383.0064, 14.73158
383.4885, 9.494781
383.9706, 7.429794
384.4528, 7.177994
384.9349, 9.117233
385.4170, 11.73058
385.8991, 12.92362
386.3812, 12.58388
386.8633, 11.16982
387.3455, 7.016785
387.8276, 1.702637
388.3097, 0.7441860
388.7918, 5.235092
389.2739, 12.68127
389.7560, 15.56235
390.2382, 13.07043
390.7203, 10.21092
391.2024, 10.02222
391.6845, 10.84012
392.1666, 10.72992
392.6487, 8.751846
393.1309, 5.860718
393.6130, 0.9338530
394.0951, 5.646027
394.5772, 8.106522
395.0593, 0.3316960
395.5414, 9.092422
396.0236, 14.72028
396.5057, 11.53206
396.9878, 9.600494
397.4699, 11.81297
397.9520, 16.20181
398.4341, 16.46432
398.9163, 7.048141
399.3984, 0.7315670
399.8805, 2.360977
400.3626, 4.742615
400.8447, 10.90567
401.3268, 15.68251
401.8090, 18.78317
402.2911, 18.92508
402.7732, 15.08339
403.2553, 10.86549
403.7374, 6.628418
404.2195, 2.513855
404.7017, 1.737274
405.1838, 5.369156
405.6659, 9.454132
406.1480, 9.395721
406.6301, 5.088699
407.1122, 3.893173
407.5944, 8.018829
408.0765, 15.11009
408.5586, 20.18187
409.0407, 23.33617
409.5228, 24.39607
410.0049, 22.51878
410.4871, 18.62239
410.9692, 14.34348
411.4513, 9.586349
411.9334, 5.466064
412.4155, 3.400986
412.8976, 2.981827
413.3798, 3.072678
413.8619, 3.096619
414.3440, 3.382874
414.8261, 4.862564
415.3082, 7.530945
415.7903, 9.058411
416.2725, 5.929169
416.7546, 1.576904
417.2367, 0.1162410
417.7188, 4.205475
418.2009, 9.124664
418.6830, 13.24077
419.1652, 16.21535
419.6473, 16.64095
420.1294, 11.23677
420.6115, 5.253906
421.0937, 1.608398
421.5758, 1.970993
422.0579, 2.053131
422.5400, 0.6879430
423.0221, 1.163177
423.5042, 1.935425
423.9864, 0.3791660
424.4685, 0.9023130
424.9506, 1.013351
425.4327, 0.2408750
425.9148, 0.2181240
426.3969, 0.9359440
426.8791, 3.466583
427.3612, 8.604294
427.8433, 18.63586
428.3254, 23.95937
428.8075, 21.96245
429.2896, 14.80998
429.7718, 9.328384
430.2539, 5.348862
430.7360, 3.739136
431.2181, 6.276642
431.7002, 12.56522
432.1823, 16.66528
432.6645, 18.03941
433.1466, 18.04156
433.6287, 18.55728
434.1108, 19.58284
434.5929, 19.21800
435.0750, 14.14546
435.5572, 8.038162
436.0393, 8.286850
436.5214, 14.63409
437.0035, 21.63216
437.4856, 26.66876
437.9677, 29.17807
438.4499, 27.89244
438.9320, 20.59373
439.4141, 12.66118
439.8962, 7.453430
440.3783, 4.575958
440.8604, 2.858398
441.3426, 1.433517
441.8247, 1.323044
442.3068, 3.689529
442.7889, 9.373459
443.2710, 14.05783
443.7531, 17.30142
444.2353, 18.67336
444.7174, 17.75055
445.1995, 9.117996
445.6816, 4.038513
446.1637, 6.276855
446.6458, 15.07884
447.1280, 20.85260
447.6101, 22.33784
448.0922, 22.18285
448.5743, 21.85916
449.0564, 21.81413
449.5385, 20.18692
450.0207, 16.18567
450.5028, 11.27396
450.9849, 8.036499
451.4670, 6.485016
451.9491, 6.265701
452.4312, 8.429306
452.9134, 13.09201
453.3955, 15.69961
453.8776, 16.05518
454.3597, 15.30211
454.8418, 13.73940
455.3239, 11.92903
455.8061, 12.14386
456.2882, 16.34927
456.7703, 20.13327
457.2524, 14.29863
457.7345, 1.559158
458.2166, 6.697617
458.6988, 2.145721
459.1809, 15.88496
459.6630, 20.17784
460.1451, 12.85333
460.6272, 5.053970
461.1093, 3.682571
461.5915, 6.005478
462.0736, 8.670761
462.5557, 11.16656
463.0378, 13.25694
463.5199, 15.58456
464.0020, 17.79704
464.4842, 17.38026
464.9663, 10.64325
465.4484, 3.472794
465.9305, 1.209595
466.4126, 3.914444
466.8947, 2.905762
467.3769, 5.350677
467.8590, 15.76550
468.3411, 19.36703
468.8232, 11.46120
469.3053, 6.225174
469.7874, 8.830505
470.2696, 18.59615
470.7517, 22.18494
471.2338, 17.97714
471.7159, 12.58908
472.1980, 12.33957
472.6801, 17.08229
473.1623, 20.23251
473.6444, 20.89026
474.1265, 19.56120
474.6086, 15.60527
475.0907, 9.641388
475.5728, 5.905365
476.0550, 7.752960
476.5371, 12.74348
477.0192, 17.67856
477.5013, 22.50017
477.9834, 25.55342
478.4655, 24.71101
478.9477, 21.56995
479.4298, 18.18248
479.9119, 14.02441
480.3940, 11.10973
480.8761, 11.44392
481.3582, 13.98073
481.8404, 15.72661
482.3225, 12.99225
482.8046, 11.29953
483.2867, 14.35240
483.7688, 25.38300
484.2509, 31.22517
484.7331, 25.04468
485.2152, 16.08208
485.6973, 13.15820
486.1794, 21.24620
486.6615, 26.79390
487.1436, 27.09337
487.6258, 23.39209
488.1079, 21.71362
488.5900, 22.69525
489.0721, 23.96983
489.5542, 24.11198
490.0363, 23.10899
490.5185, 22.71039
491.0006, 23.07962
491.4827, 23.66818
491.9648, 24.22351
492.4470, 24.55531
492.9291, 23.41953
493.4112, 19.32440
493.8933, 14.48244
494.3754, 12.43997
494.8575, 12.91760
495.3397, 14.27409
495.8218, 16.06268
496.3039, 17.87230
496.7860, 19.15897
497.2681, 19.58107
497.7502, 20.21368
498.2324, 23.65910
498.7145, 27.07977
499.1966, 26.67505
499.6787, 15.58060
500.1608, 6.295090
500.6429, 3.571686
501.1251, 7.040222
501.6072, 9.493073
502.0893, 9.458817
502.5714, 9.187790
503.0535, 9.733582
503.5356, 11.43596
504.0178, 13.16638
504.4999, 15.01256
504.9820, 16.78992
505.4641, 18.63647
505.9462, 20.84575
506.4283, 21.14954
506.9105, 18.39453
507.3926, 13.45390
507.8747, 9.396790
508.3568, 6.182404
508.8389, 4.484360
509.3210, 5.353165
509.8032, 8.093765
510.2853, 11.47054
510.7674, 15.93401
511.2495, 18.41252
511.7316, 13.53287
512.2137, 4.430176
512.6959, 2.440353
513.1780, 3.503189
513.6601, 2.247940
514.1422, 0.4496920
514.6243, 4.094788
515.1064, 5.609116
515.5886, 0.1412660
516.0707, 6.071945
516.5528, 6.227570
517.0349, 3.304016
517.5170, 10.43286
517.9991, 11.88400
518.4813, 11.11165
518.9634, 12.56090
519.4455, 18.31494
519.9276, 22.78885
520.4097, 25.25282
520.8918, 25.57419
521.3740, 21.86618
521.8561, 12.30856
522.3382, 4.751480
522.8203, 6.746811
523.3024, 17.40977
523.7845, 20.36624
524.2667, 13.18402
524.7488, 4.086838
525.2309, 4.243530
525.7130, 10.87019
526.1951, 14.79764
526.6772, 10.30392
527.1594, 4.029190
527.6415, 5.205811
528.1236, 12.03815
528.6057, 16.65079
529.0878, 9.529434
529.5699, 1.734604
530.0521, 3.472870
530.5342, 19.12962
531.0163, 30.24603
531.4984, 26.68465
531.9805, 17.50424
532.4626, 12.33920
532.9448, 18.96320
533.4269, 21.90582
533.9090, 16.56686
534.3911, 5.877777
534.8732, 1.367188
535.3553, 5.684189
535.8375, 11.19189
536.3196, 14.67892
536.8017, 16.10176
537.2838, 17.46852
537.7659, 18.88084
538.2480, 19.87471
538.7302, 19.31961
539.2123, 17.58290
539.6944, 17.59784
540.1765, 20.93802
540.6586, 24.57739
541.1407, 23.85921
541.6229, 19.70192
542.1050, 15.42247
542.5871, 11.73152
543.0692, 9.409271
543.5513, 9.961243
544.0334, 13.42018
544.5156, 16.30646
544.9977, 17.66843
545.4798, 17.39711
545.9619, 15.17807
546.4440, 7.847061
546.9261, 3.393784
547.4083, 4.145081
547.8904, 7.983154
548.3725, 10.78365
548.8546, 12.29602
549.3367, 13.22551
549.8188, 13.79141
550.3010, 13.95541
550.7831, 13.12570
551.2652, 11.08279
551.7473, 8.770889
552.2294, 6.835007
552.7115, 5.240417
553.1937, 3.268219
553.6758, 0.4451600
554.1579, 1.023987
554.6400, 3.119171
555.1221, 11.01382
555.6042, 17.26331
556.0864, 19.69098
556.5685, 19.98878
557.0506, 18.97026
557.5327, 16.97710
558.0148, 15.29303
558.4969, 15.70251
558.9791, 15.73427
559.4612, 13.11145
559.9433, 6.608154
560.4254, 2.730881
560.9075, 5.963379
561.3896, 10.47028
561.8718, 10.95868
562.3539, 3.326401
562.8360, 1.328644
563.3181, 1.631454
563.8002, 1.291000
564.2823, 5.396378
564.7645, 11.22598
565.2466, 15.59697
565.7287, 16.60039
566.2108, 15.04492
566.6929, 14.94786
567.1750, 16.36070
567.6572, 18.08867
568.1393, 19.34154
568.6214, 20.13771
569.1035, 20.45944
569.5856, 20.29552
570.0677, 19.71146
570.5499, 18.34297
571.0320, 16.70430
571.5141, 15.31790
571.9962, 14.59944
572.4783, 14.41650
572.9604, 15.32605
573.4426, 16.97256
573.9247, 17.29234
574.4068, 16.26152
574.8889, 14.62097
575.3710, 11.47594
575.8531, 5.883835
576.3353, 5.144669
576.8174, 12.17661
577.2995, 19.74359
577.7816, 19.69897
578.2637, 11.00798
578.7458, 6.247208
579.2280, 8.278549
579.7101, 13.09233
580.1922, 12.93054
580.6743, 8.739655
581.1564, 5.865295
581.6385, 8.891006
582.1207, 13.50479
582.6028, 12.79224
583.0849, 7.580170
583.5670, 4.292648
584.0491, 10.19954
584.5313, 17.32535
585.0134, 18.52727
585.4955, 10.02878
585.9776, 4.508804
586.4597, 8.411072
586.9418, 15.61353
587.4240, 19.13060
587.9061, 16.90944
588.3882, 13.88530
588.8703, 10.16174
589.3524, 6.085281
589.8345, 2.314682
590.3167, 1.603760
590.7988, 3.375977
591.2809, 0.7736360
591.7630, 4.983490
592.2451, 7.219864
592.7272, 5.876816
593.2094, 3.606842
593.6915, 1.687439
594.1736, 0.1573030
594.6557, 0.1799770
595.1378, 0.9518280
595.6199, 2.542191
596.1021, 4.505524
596.5842, 6.273560
597.0663, 7.038040
597.5485, 5.127609
598.0306, 3.641876
598.5127, 3.633682
598.9948, 4.887955
599.4769, 6.446503
599.9590, 8.987595
600.4412, 10.93634
600.9233, 11.60588
601.4054, 10.89804
601.8875, 10.83757
602.3696, 12.09148
602.8517, 12.34239
603.3339, 7.951706
603.8160, 0.4666290
604.2981, 3.424774
604.7802, 1.085022
605.2623, 7.943237
605.7444, 11.35280
606.2266, 11.84941
606.7087, 10.63692
607.1908, 6.143356
607.6729, 2.227325
608.1550, 2.578140
608.6371, 6.142517
609.1193, 9.507263
609.6014, 10.72467
610.0835, 11.91112
610.5656, 15.29137
611.0477, 21.62848
611.5298, 22.72336
612.0120, 14.53577
612.4941, 5.304077
612.9762, 0.4869380
613.4583, 1.224792
613.9404, 2.399109
614.4225, 4.006332
614.9047, 5.670380
615.3868, 7.034668
615.8689, 8.080536
616.3510, 8.237839
616.8331, 6.637283
617.3152, 5.017975
617.7974, 7.365631
618.2795, 12.12346
618.7616, 15.01569
619.2437, 12.37411
619.7258, 8.238327
620.2079, 5.380112
620.6901, 3.921951
621.1722, 3.026062
621.6543, 2.859497
622.1364, 2.900955
622.6185, 2.786362
623.1006, 1.951355
623.5828, 2.295944
624.0649, 4.936111
624.5470, 7.731979
625.0291, 7.658417
625.5112, 3.939316
625.9933, 1.705017
626.4755, 2.446701
626.9576, 4.423569
627.4397, 2.807877
627.9218, 1.660004
628.4039, 3.330902
628.8860, 4.519302
629.3682, 14.71677
629.8503, 16.74020
630.3324, 11.44693
630.8145, 5.407623
631.2966, 0.1453700
631.7787, 2.827530
632.2609, 1.451813
632.7430, 6.229446
633.2251, 11.48528
633.7072, 11.26460
634.1893, 8.703171
634.6714, 6.172684
635.1536, 2.939972
635.6357, 1.507339
636.1178, 2.661362
636.5999, 5.071533
637.0820, 5.755066
637.5641, 4.565369
638.0463, 5.671112
638.5284, 12.36201
639.0105, 20.49669
639.4926, 20.43532
639.9747, 13.52997
640.4568, 7.648193
640.9390, 8.585907
641.4211, 12.02751
641.9032, 14.19961
642.3853, 14.82390
642.8674, 15.01979
643.3495, 14.54382
643.8317, 14.25429
644.3138, 14.87520
644.7959, 17.78586
645.2780, 18.95972
645.7601, 16.95352
646.2422, 14.40846
646.7244, 15.08563
647.2065, 20.12141
647.6886, 22.32904
648.1707, 19.92358
648.6528, 14.61218
649.1349, 9.106812
649.6171, 3.546112
650.0992, 0.5443120
650.5813, 2.819412
651.0634, 2.994980
651.5455, 0.6720580
652.0276, 7.384048
652.5098, 12.66159
652.9919, 13.85025
653.4740, 13.10545
653.9561, 10.78259
654.4382, 6.118973
654.9203, 5.160156
655.4025, 13.42590
655.8846, 21.27617
656.3667, 21.30336
656.8488, 9.319489
657.3309, 2.120911
657.8130, 0.7028810
658.2952, 3.323273
658.7773, 9.299774
659.2594, 18.19080
659.7415, 23.91434
660.2236, 24.15630
660.7057, 21.73378
661.1879, 20.56807
661.6700, 20.02109
662.1521, 18.23592
662.6342, 12.28488
663.1163, 7.112396
663.5984, 6.957123
664.0806, 11.23949
664.5627, 14.30365
665.0448, 13.94350
665.5269, 12.99353
666.0090, 13.03226
666.4911, 14.59369
666.9733, 12.48979
667.4554, 4.515640
667.9375, 2.750763
668.4196, 2.910126
668.9017, 3.775131
669.3839, 8.563690
669.8660, 10.36661
670.3481, 11.60612
670.8302, 16.99753
671.3123, 23.78180
671.7944, 25.53726
672.2766, 17.21301
672.7587, 8.315628
673.2408, 5.854218
673.7229, 7.165039
674.2050, 6.973282
674.6871, 7.1273997E-02
675.1693, 4.527512
675.6514, 2.133286
676.1335, 5.443253
676.6156, 9.239014
677.0977, 7.444183
677.5798, 5.994247
678.0620, 7.884521
678.5441, 12.67093
679.0262, 15.79021
679.5083, 17.19887
679.9904, 18.06129
680.4725, 20.22435
680.9547, 22.21729
681.4368, 20.69289
681.9189, 14.87000
682.4010, 9.478287
682.8831, 6.839859
683.3652, 6.704529
683.8474, 9.072891
684.3295, 16.64072
684.8116, 22.43443
685.2937, 25.19785
685.7758, 25.65248
686.2579, 24.08086
686.7401, 18.75354
687.2222, 17.77196
687.7043, 24.85388
688.1864, 35.01999
688.6685, 34.62531
689.1506, 24.36287
689.6328, 15.42787
690.1149, 14.78882
690.5970, 17.58897
691.0791, 15.31102
691.5612, 9.231155
692.0433, 5.874069
692.5255, 12.09267
693.0076, 19.40295
693.4897, 21.77675
693.9718, 18.21210
694.4539, 16.67836
694.9360, 20.89917
695.4182, 24.96329
695.9003, 25.66176
696.3824, 22.24937
696.8645, 18.07407
697.3466, 12.39735
697.8287, 7.896515
698.3109, 9.163162
698.7930, 14.73492
699.2751, 16.25713
699.7572, 11.41142
700.2393, 5.442963
700.7214, 4.030869
701.2036, 5.209259
701.6857, 5.657120
702.1678, 1.690735
702.6499, 0.2841640
703.1320, 4.037140
703.6141, 12.07381
704.0963, 17.24916
704.5784, 17.07028
705.0605, 17.49449
705.5426, 20.64189
706.0247, 25.61678
706.5068, 25.60789
706.9890, 20.09138
707.4711, 15.32722
707.9532, 16.03447
708.4353, 19.34810
708.9174, 16.88649
709.3995, 9.560089
709.8817, 4.177948
710.3638, 9.303940
710.8459, 16.10837
711.3280, 15.15257
711.8101, 4.151749
712.2922, 2.486542
712.7744, 2.711624
713.2565, 11.14590
713.7386, 17.09265
714.2207, 19.96175
714.7028, 21.95151
715.1849, 23.39893
715.6671, 23.40547
716.1492, 19.87651
716.6313, 13.27626
717.1134, 8.630753
717.5955, 6.657242
718.0776, 7.449875
718.5598, 15.05692
719.0419, 25.02608
719.5240, 28.54230
720.0061, 16.91431
720.4882, 4.969055
720.9703, 2.329330
721.4525, 4.923157
721.9346, 2.650055
722.4167, 11.33879
722.8988, 21.46313
723.3809, 23.41910
723.8630, 19.41098
724.3452, 18.16664
724.8273, 19.90009
725.3094, 23.01846
725.7915, 28.17833
726.2736, 33.59581
726.7557, 33.00639
727.2379, 27.00310
727.7200, 21.91518
728.2021, 22.84453
728.6842, 25.71323
729.1663, 27.69565
729.6484, 28.54778
730.1306, 27.82498
730.6127, 22.24904
731.0948, 17.73170
731.5769, 17.91914
732.0590, 24.52493
732.5411, 28.55115
733.0233, 29.22035
733.5054, 28.70224
733.9875, 28.92673
734.4696, 29.38403
734.9517, 26.98660
735.4338, 20.79037
735.9160, 15.35130
736.3981, 16.78758
736.8802, 21.49994
737.3623, 24.06430
737.8444, 21.87833
738.3266, 19.61934
738.8087, 19.32486
739.2908, 19.92622
739.7729, 19.96158
740.2551, 20.15297
740.7372, 18.00529
741.2193, 11.35165
741.7014, 3.784012
742.1835, 4.367310
742.6656, 13.21008
743.1478, 19.76389
743.6299, 19.63120
744.1120, 16.73830
744.5941, 17.37743
745.0762, 20.22073
745.5583, 22.69162
746.0405, 23.88748
746.5226, 24.17792
747.0047, 23.78929
747.4868, 22.68532
747.9689, 20.47299
748.4510, 14.55774
748.9332, 10.92284
749.4153, 12.39531
749.8974, 18.34836
750.3795, 21.04494
750.8616, 20.08578
751.3438, 18.92697
751.8259, 19.87454
752.3080, 22.19377
752.7901, 25.00124
753.2722, 28.10907
753.7543, 28.98257
754.2365, 22.56998
754.7186, 15.51888
755.2007, 14.05925
755.6828, 20.16026
756.1649, 24.01389
756.6470, 22.19792
757.1292, 19.25099
757.6113, 18.24861
758.0934, 20.33957
758.5755, 18.31807
759.0576, 10.81619
759.5397, 3.711578
760.0219, 4.058395
760.5040, 9.877182
760.9861, 16.08633
761.4682, 21.97487
761.9503, 24.05884
762.4324, 15.09766
762.9146, 2.543381
763.3967, 4.703140
763.8788, 1.174927
764.3609, 2.022095
764.8430, 1.745010
765.3251, 1.009460
765.8073, 4.032043
766.2894, 12.78085
766.7715, 16.71851
767.2536, 12.50923
767.7357, 6.403351
768.2178, 11.78177
768.7000, 25.21806
769.1821, 31.85124
769.6642, 23.67502
770.1463, 12.15820
770.6284, 6.660049
771.1105, 5.334869
771.5927, 4.925568
772.0748, 4.181366
772.5569, 4.620544
773.0390, 7.937515
773.5211, 12.41325
774.0032, 13.14018
774.4854, 8.810379
774.9675, 5.671112
775.4496, 5.804733
775.9317, 8.194275
776.4138, 10.70801
776.8959, 13.16142
777.3781, 15.02011
777.8602, 17.38579
778.3423, 17.94722
778.8244, 12.76430
779.3065, 3.429764
779.7886, 2.997971
780.2708, 3.222061
780.7529, 1.527039
781.2350, 0.6309510
781.7171, 3.356689
782.1992, 8.440689
782.6813, 17.01659
783.1635, 23.22993
783.6456, 22.59187
784.1277, 17.49838
784.6098, 16.52333
785.0919, 19.24176
785.5740, 20.63948
786.0562, 14.50235
786.5383, 7.987518
787.0204, 8.369339
787.5025, 15.99582
787.9846, 21.23555
788.4667, 21.18399
788.9489, 18.69968
789.4310, 14.21994
789.9131, 7.565872
790.3952, 2.882278
790.8773, 0.7423400
791.3594, 0.5008240
791.8416, 2.627060
792.3237, 6.264801
792.8058, 6.905548
793.2879, 4.410080
793.7700, 3.329514
794.2521, 9.433502
794.7343, 16.53389
795.2164, 18.91467
795.6985, 14.51254
796.1806, 12.00862
796.6627, 14.28870
797.1448, 16.52095
797.6270, 14.93372
798.1091, 8.642044
798.5912, 6.279037
799.0733, 8.454498
799.5554, 11.45801
800.0375, 12.36630
800.5197, 11.35092
801.0018, 7.653030
801.4839, 0.6198270
801.9660, 4.116898
802.4481, 1.079102
802.9302, 4.470337
803.4124, 8.007645
803.8945, 7.421570
804.3766, 8.328979
804.8587, 11.97392
805.3408, 15.46851
805.8229, 15.55559
806.3051, 12.26726
806.7872, 10.90173
807.2693, 12.12656
807.7514, 13.94208
808.2335, 14.68800
808.7156, 14.54089
809.1978, 13.73225
809.6799, 12.25674
810.1620, 10.30447
810.6441, 6.094269
811.1262, 2.516922
811.6083, 2.836670
812.0905, 10.83105
812.5726, 13.43492
813.0547, 8.289047
813.5368, 1.761658
814.0189, 2.019226
814.5010, 7.888565
814.9832, 12.80411
815.4653, 15.87680
815.9474, 16.96747
816.4295, 15.32422
816.9116, 11.90904
817.3937, 7.533829
817.8759, 0.2068020
818.3580, 3.635544
818.8401, 1.110794
819.3222, 7.682831
819.8043, 8.362381
820.2864, 1.064636
820.7686, 0.3919980
821.2507, 6.163406
821.7328, 15.17862
822.2149, 19.22113
822.6970, 19.17380
823.1791, 16.93472
823.6613, 12.01721
824.1434, 8.132462
824.6255, 8.503601
825.1076, 10.94667
825.5897, 13.02832
826.0718, 13.77916
826.5540, 15.02945
827.0361, 17.27530
827.5182, 19.48114
828.0003, 20.02115
828.4824, 18.92264
828.9645, 19.60638
829.4467, 23.19849
829.9288, 26.01419
830.4109, 22.99863
830.8930, 16.71664
831.3751, 10.93584
831.8572, 6.452103
832.3394, 3.067215
832.8215, 0.8240660
833.3036, 0.3915560
833.7857, 0.7792360
834.2678, 0.1509700
834.7499, 0.6442570
835.2321, 1.320999
835.7142, 2.703125
836.1963, 7.122604
836.6784, 13.30630
837.1605, 16.03387
837.6426, 13.52411
838.1248, 10.07858
838.6069, 7.741714
839.0890, 6.930527
839.5711, 8.385483
840.0532, 15.77443
840.5353, 18.71300
841.0175, 14.55525
841.4996, 7.999298
841.9817, 3.027374
842.4638, 0.4755250
842.9459, 0.6763150
843.4280, 7.647354
843.9102, 14.77437
844.3923, 15.28961
844.8744, 11.96712
845.3565, 9.171127
845.8386, 7.844803
846.3207, 6.754776
846.8029, 6.400436
847.2850, 5.399292
847.7671, 1.939743
848.2492, 7.511337
848.7313, 8.905457
849.2134, 0.1619870
849.6956, 11.23373
850.1777, 15.47836
850.6598, 14.65288
851.1419, 15.24295
851.6240, 18.23846
852.1061, 20.30653
852.5883, 17.89520
853.0704, 14.00865
853.5525, 11.55382
854.0346, 11.88249
854.5167, 10.63779
854.9988, 5.744644
855.4810, 1.612579
855.9631, 1.899658
856.4452, 6.696457
856.9273, 10.10016
857.4094, 11.85405
857.8915, 13.67036
858.3737, 17.36288
858.8558, 21.80890
859.3379, 26.02946
859.8200, 29.73312
860.3021, 31.60808
860.7842, 30.48721
861.2664, 27.29395
861.7485, 21.63924
862.2306, 12.67738
862.7127, 10.76871
863.1948, 17.65009
863.6769, 23.87019
864.1591, 20.65715
864.6412, 12.28194
865.1233, 9.277985
865.6054, 11.60478
866.0875, 14.30438
866.5696, 13.48647
867.0518, 12.90547
867.5339, 16.33910
868.0160, 23.95807
868.4981, 25.99399
868.9802, 19.35339
869.4623, 14.21387
869.9445, 17.25464
870.4266, 25.60774
870.9087, 23.51106
871.3908, 12.16489
871.8729, 4.624237
872.3550, 14.77565
872.8372, 27.20102
873.3193, 27.42151
873.8014, 17.45764
874.2835, 10.55562
874.7656, 14.29125
875.2477, 15.71309
875.7299, 9.837250
876.2120, 0.6604770
876.6941, 3.422577
877.1762, 1.292389
877.6583, 6.305710
878.1404, 8.584274
878.6226, 9.319748
879.1047, 9.798035
879.5869, 10.09543
880.0690, 10.64761
880.5511, 12.88290
881.0332, 13.89333
881.5153, 10.97722
881.9974, 6.879211
882.4796, 8.081604
882.9617, 16.02376
883.4438, 20.71552
883.9259, 18.72575
884.4080, 14.56731
884.8901, 16.17273
885.3723, 21.16043
885.8544, 23.97614
886.3365, 22.27893
886.8186, 18.70251
887.3007, 12.27452
887.7828, 5.551804
888.2650, 2.035980
888.7471, 2.333832
889.2292, 4.819885
889.7113, 10.38710
890.1934, 15.80432
890.6755, 15.26257
891.1577, 11.06053
891.6398, 11.81395
892.1219, 20.62979
892.6040, 26.89456
893.0861, 17.66237
893.5682, 5.571915
894.0504, 3.463974
894.5325, 19.71829
895.0146, 28.83820
895.4967, 28.75307
895.9788, 25.28590
896.4609, 23.23303
896.9431, 22.11905
897.4252, 17.70009
897.9073, 9.698669
898.3894, 4.486465
898.8715, 9.070099
899.3536, 17.08711
899.8358, 23.28297
900.3179, 27.27591
900.8000, 28.35547
901.2821, 24.20215
901.7642, 20.54189
902.2463, 20.18295
902.7285, 23.04985
903.2106, 25.51331
903.6927, 27.29501
904.1748, 27.90585
904.6569, 25.36339
905.1390, 22.53171
905.6212, 23.42453
906.1033, 26.38904
906.5854, 26.70573
907.0675, 20.11803
907.5496, 15.07739
908.0317, 14.43246
908.5139, 16.48106
908.9960, 15.24759
909.4781, 10.74622
909.9602, 8.071823
910.4423, 9.685501
910.9244, 12.89798
911.4066, 15.21401
911.8887, 16.73869
912.3708, 17.51004
912.8529, 17.20757
913.3350, 16.21854
913.8171, 13.24127
914.2993, 10.53262
914.7814, 12.01442
915.2635, 18.25339
915.7456, 20.47418
916.2277, 16.65451
916.7098, 12.00543
917.1920, 14.06389
917.6741, 18.64944
918.1562, 19.14009
918.6383, 12.83426
919.1204, 7.342117
919.6025, 4.196136
920.0847, 3.378250
920.5668, 5.661880
921.0489, 12.07407
921.5310, 13.90994
922.0131, 10.69667
922.4952, 6.850677
922.9774, 6.736450
923.4595, 7.874664
923.9416, 5.740082
924.4237, 0.4185790
924.9058, 3.045654
925.3879, 1.762665
925.8701, 0.9634700
926.3522, 3.746002
926.8343, 6.670456
927.3164, 11.08452
927.7985, 17.45926
928.2806, 21.04086
928.7628, 17.51424
929.2449, 11.92218
929.7270, 12.93698
930.2091, 18.44498
930.6912, 22.75139
931.1733, 23.59111
931.6555, 22.74284
932.1376, 19.36377
932.6197, 15.19830
933.1018, 13.34798
933.5839, 14.15656
934.0660, 14.57234
934.5482, 14.03470
935.0303, 13.11440
935.5124, 11.24593
935.9945, 9.176651
936.4766, 8.396118
936.9587, 9.858032
937.4409, 10.87253
937.9230, 9.831924
938.4051, 8.586685
938.8872, 8.602661
939.3693, 5.813141
939.8514, 12.61876
940.3336, 16.44023
940.8157, 17.43767
941.2978, 7.153473
941.7799, 11.43713
942.2620, 9.882568
942.7441, 8.088669
943.2263, 14.42264
943.7084, 5.779068
944.1905, 11.98410
944.6726, 12.26192
945.1547, 15.25240
945.6368, 12.36871
946.1190, 11.29929
946.6011, 16.11617
947.0832, 10.95273
947.5653, 17.21992
948.0474, 15.29901
948.5295, 8.561829
949.0117, 4.851822
949.4938, 11.44368
949.9759, 15.43138
950.4580, 13.44998
950.9401, 8.439880
951.4222, 4.024643
951.9044, 0.1382290
952.3865, 7.5229998E-03
952.8686, 4.893234
953.3507, 9.785400
953.8328, 7.893234
954.3149, 3.443481
954.7971, 2.360352
955.2792, 7.431778
955.7613, 9.224731
956.2434, 2.186554
956.7255, 3.450790
957.2076, 3.4088001E-02
957.6898, 12.05772
958.1719, 18.83626
958.6540, 20.36702
959.1361, 17.65567
959.6182, 5.370575
960.1003, 6.111679
960.5825, 4.856323
961.0646, 6.937576
961.5467, 14.46956
962.0288, 12.80573
962.5109, 9.895462
962.9930, 6.984390
963.4752, 4.482422
963.9573, 4.073944
964.4394, 5.335007
964.9215, 5.410675
965.4036, 2.411926
965.8857, 0.1348420
966.3679, 1.750122
966.8500, 5.307663
967.3321, 6.898605
967.8142, 4.951889
968.2963, 2.850464
968.7784, 0.4876860
969.2606, 1.755753
969.7427, 4.015411
970.2248, 5.831116
970.7069, 4.940872
971.1890, 1.218307
971.6711, 2.251282
972.1533, 1.498001
972.6354, 1.402405
973.1175, 6.718704
973.5996, 17.29350
974.0817, 23.04243
974.5638, 23.36324
975.0460, 20.80586
975.5281, 15.31535
976.0102, 8.620117
976.4923, 3.627426
976.9744, 0.4656370
977.4565, 0.4884030
977.9387, 2.766571
978.4208, 6.106735
978.9029, 7.953766
979.3850, 9.124390
979.8671, 11.04709
980.3492, 14.19540
980.8314, 14.61168
981.3135, 11.18739
981.7956, 8.064178
982.2777, 11.22746
982.7598, 16.70004
983.2419, 19.22418
983.7241, 17.76176
984.2062, 15.75980
984.6883, 12.95285
985.1704, 11.27469
985.6525, 12.56363
986.1346, 15.91605
986.6168, 15.24483
987.0989, 10.69269
987.5810, 6.735474
988.0631, 6.266800
988.5452, 7.299637
989.0273, 8.869797
989.5095, 10.42546
989.9916, 10.49588
990.4737, 7.060684
990.9558, 5.000153
991.4379, 5.539993
991.9200, 0.9055180
992.4022, 8.596954
992.8843, 13.92162
993.3664, 15.29315
993.8485, 0.8706360
994.3306, 6.843613
994.8127, 4.643417
995.2949, 2.108444
995.7770, 10.95287
996.2591, 1.170868
996.7412, 7.493362
997.2233, 7.859695
997.7054, 12.02429
998.1876, 7.965195
998.6697, 6.446548
999.1518, 13.15483
999.6339, 15.30840
1000.116, 10.30399
1000.598, 14.71204
1001.080, 2.303925
1001.562, 4.653885
1002.044, 13.37161
1002.527, 8.784103
1003.009, 13.34598
1003.491, 14.42371
1003.973, 0.3334960
1004.455, 12.44876
1004.937, 13.32161
1005.419, 1.966003
1005.901, 13.80579
1006.384, 4.136963
1006.866, 2.145813
1007.348, 5.936508
1007.830, 3.773041
1008.312, 11.08324
1008.794, 9.197342
1009.276, 7.431671
1009.758, 6.175583
1010.240, 5.380325
1010.723, 7.494949
1011.205, 10.30753
1011.687, 13.20056
1012.169, 15.64029
1012.651, 16.37163
1013.133, 15.00122
1013.615, 12.53287
1014.097, 8.107437
1014.580, 5.088333
1015.062, 12.05551
1015.544, 23.40988
1016.026, 28.05806
1016.508, 22.83427
1016.990, 17.43718
1017.472, 15.69179
1017.954, 14.59396
1018.436, 13.10062
1018.919, 11.50493
1019.401, 10.04178
1019.883, 8.705063
1020.365, 9.870697
1020.847, 19.78058
1021.329, 28.79747
1021.811, 23.97954
1022.293, 10.93613
1022.776, 3.532028
1023.258, 9.086761
1023.740, 12.59756
1024.222, 12.19275
1024.704, 10.11449
1025.186, 8.583038
1025.668, 7.981140
1026.150, 10.39688
1026.632, 16.41464
1027.115, 21.42145
1027.597, 24.20184
1028.079, 23.66510
1028.561, 17.47758
1029.043, 6.327835
1029.525, 0.8343350
1030.007, 1.391434
1030.489, 4.432770
1030.972, 9.795410
1031.454, 15.10646
1031.936, 16.93262
1032.418, 16.23412
1032.900, 15.05821
1033.382, 13.17470
1033.864, 12.08546
1034.346, 11.94928
1034.828, 12.57152
1035.311, 14.02464
1035.793, 16.19232
1036.275, 15.99272
1036.757, 5.513458
1037.239, 15.42754
1037.721, 21.16405
1038.203, 22.94797
1038.685, 8.938019
1039.167, 15.32390
1039.650, 13.53783
1040.132, 11.41641
1040.614, 26.17989
1041.096, 31.49411
1041.578, 31.27121
1042.060, 18.41380
1042.542, 0.8849640
1043.024, 5.736237
1043.507, 10.97148
1043.989, 23.43167
1044.471, 25.96487
1044.953, 23.77380
1045.435, 18.98976
1045.917, 12.16156
1046.399, 11.89330
1046.881, 18.00366
1047.364, 23.37976
1047.846, 23.25148
1048.328, 20.70815
1048.810, 16.49524
1049.292, 11.51517
1049.774, 8.924652
1050.256, 9.194794
1050.738, 10.89053
1051.220, 14.29639
1051.703, 17.49368
1052.185, 17.07399
1052.667, 14.68303
1053.149, 12.98410
1053.631, 12.50848
1054.113, 12.68733
1054.595, 14.70442
1055.077, 15.96591
1055.559, 14.93178
1056.042, 11.96010
1056.524, 8.721619
1057.006, 5.466660
1057.488, 4.240845
1057.970, 7.714294
1058.452, 11.96414
1058.934, 15.68925
1059.416, 18.12669
1059.899, 18.37326
1060.381, 16.00291
1060.863, 13.53937
1061.345, 11.01530
1061.827, 9.110016
1062.309, 9.366440
1062.791, 10.27357
1063.273, 9.528107
1063.755, 6.949448
1064.238, 4.015457
1064.720, 0.2252810
1065.202, 2.860779
1065.684, 2.207672
1066.166, 0.7562100
1066.648, 3.620789
1067.130, 6.278564
1067.612, 9.260910
1068.094, 13.10255
1068.577, 16.36044
1069.059, 19.39351
1069.541, 20.49548
1070.023, 17.69518
1070.505, 9.471863
1070.987, 6.577911
1071.469, 9.252975
1071.951, 14.43614
1072.434, 24.56551
1072.916, 32.75475
1073.398, 27.93071
1073.880, 13.84187
1074.362, 3.967758
1074.844, 3.078720
1075.326, 3.208588
1075.808, 3.603104
1076.291, 4.319183
1076.773, 6.076172
1077.255, 8.167816
1077.737, 7.429520
1078.219, 3.136337
1078.701, 2.008423
1079.183, 12.81577
1079.665, 22.13919
1080.147, 22.37816
1080.630, 15.39670
1081.112, 12.56117
1081.594, 13.72676
1082.076, 14.49660
1082.558, 13.38028
1083.040, 10.93329
1083.522, 4.875671
1084.004, 0.9729920
1084.486, 0.6683040
1084.969, 10.52792
1085.451, 15.45404
1085.933, 12.93602
1086.415, 8.443558
1086.897, 3.147354
1087.379, 0.1407780
1087.861, 9.830841
1088.343, 27.95300
1088.826, 36.29887
1089.308, 14.43741
1089.790, 1.174057
1090.272, 6.741135
1090.754, 19.82507
1091.236, 22.44852
1091.718, 16.62643
1092.200, 13.44777
1092.682, 14.70764
1093.165, 16.26796
1093.647, 15.26138
1094.129, 14.00179
1094.611, 14.33850
1095.093, 15.87196
1095.575, 15.21715
1096.057, 12.25914
1096.539, 9.982407
1097.022, 9.674683
1097.504, 10.20981
1097.986, 10.97643
1098.468, 11.64505
1098.950, 11.56793
1099.432, 9.569473
1099.914, 10.48228
1100.396, 15.73996
1100.879, 19.03510
1101.361, 14.10428
1101.843, 5.372711
1102.325, 1.264771
1102.807, 1.266098
1103.289, 3.137344
1103.771, 8.761642
1104.253, 12.31885
1104.735, 11.75739
1105.218, 10.24333
1105.700, 13.64352
1106.182, 20.26776
1106.664, 20.87938
1107.146, 14.37723
1107.628, 8.537094
1108.110, 7.356766
1108.592, 8.748474
1109.074, 12.98944
1109.557, 18.75104
1110.039, 19.84189
1110.521, 16.21608
1111.003, 11.32458
1111.485, 5.018936
1111.967, 1.463715
1112.449, 8.626266
1112.931, 18.34825
1113.414, 20.98744
1113.896, 13.64970
1114.378, 10.33745
1114.860, 12.30170
1115.342, 12.70433
1115.824, 4.929718
1116.306, 4.434738
1116.788, 3.030640
1117.271, 4.780258
1117.753, 9.285507
1118.235, 3.400711
1118.717, 0.2229310
1119.199, 1.518982
1119.681, 3.869644
1120.163, 3.593521
1120.645, 1.658951
1121.127, 1.131409
1121.609, 2.059418
1122.092, 4.890991
1122.574, 4.793350
1123.056, 10.23114
1123.538, 12.05098
1124.020, 1.074081
1124.502, 5.756073
1124.984, 3.740189
1125.466, 1.386551
1125.949, 10.41216
1126.431, 1.530411
1126.913, 7.313965
1127.395, 7.859879
1127.877, 12.20360
1128.359, 8.323044
1128.841, 6.982559
1129.323, 13.86850
1129.806, 16.21112
1130.288, 11.47684
1130.770, 16.12679
1131.252, 3.893982
1131.734, 6.417740
1132.216, 15.30804
1132.698, 16.17390
1133.180, 18.60855
1133.662, 14.03232
1134.145, 9.809967
1134.627, 11.82761
1135.109, 16.16695
1135.591, 16.81842
1136.073, 14.74327
1136.555, 12.36240
1137.037, 8.101517
1137.519, 7.637527
1138.001, 13.09849
1138.484, 18.56755
1138.966, 16.32396
1139.448, 9.707947
1139.930, 7.074295
1140.412, 8.501785
1140.894, 10.09485
1141.376, 10.97736
1141.858, 10.80118
1142.341, 9.227158
1142.823, 6.962158
1143.305, 4.443588
1143.787, 2.220169
1144.269, 3.440048
1144.751, 9.015396
1145.233, 13.61694
1145.715, 13.39168
1146.198, 12.19049
1146.680, 12.74568
1147.162, 14.14546
1147.644, 10.46681
1148.126, 2.333862
1148.608, 1.302551
1149.090, 3.767151
1149.572, 10.23228
1150.054, 14.07158
1150.536, 15.57401
1151.019, 14.47349
1151.501, 10.53810
1151.983, 8.953217
1152.465, 9.808716
1152.947, 10.72586
1153.429, 9.344055
1153.911, 8.659439
1154.393, 14.29015
1154.876, 21.75403
1155.358, 22.31088
1155.840, 11.83727
1156.322, 6.242142
1156.804, 6.261078
1157.286, 8.703262
1157.768, 12.89915
1158.250, 16.71208
1158.733, 16.80592
1159.215, 14.05315
1159.697, 11.86465
1160.179, 9.618256
1160.661, 11.05858
1161.143, 18.01674
1161.625, 24.78207
1162.107, 23.24731
1162.589, 17.77655
1163.072, 16.86847
1163.554, 20.65784
1164.036, 20.01122
1164.518, 8.504730
1165.000, 0.6452640
1165.482, 4.501511
1165.964, 4.189224
1166.446, 0.3062130
1166.928, 6.936234
1167.411, 11.30687
1167.893, 12.57829
1168.375, 11.75696
1168.857, 6.677994
1169.339, 2.699173
1169.821, 1.924728
1170.303, 3.664825
1170.785, 7.374725
1171.268, 11.93767
1171.750, 13.28937
1172.232, 8.135025
1172.714, 4.882965
1173.196, 7.540756
1173.678, 12.77597
1174.160, 19.49976
1174.642, 27.35085
1175.125, 32.08327
1175.607, 33.40948
1176.089, 30.17970
1176.571, 16.68530
1177.053, 5.355850
1177.535, 2.222961
1178.017, 3.529160
1178.499, 6.974243
1178.981, 12.53146
1179.464, 16.18600
1179.946, 17.45844
1180.428, 14.57686
1180.910, 2.848923
1181.392, 15.60753
1181.874, 8.637054
1182.356, 7.166687
1182.838, 14.77266
1183.320, 13.93100
1183.803, 14.19289
1184.285, 15.93314
1184.767, 17.85690
1185.249, 20.10536
1185.731, 20.66501
1186.213, 16.93567
1186.695, 10.51189
1187.177, 5.178391
1187.660, 0.7621610
1188.142, 1.541275
1188.624, 9.055344
1189.106, 14.91080
1189.588, 8.196350
1190.070, 0.3667300
1190.552, 1.696625
1191.034, 3.677826
1191.516, 9.208420
1191.999, 15.10022
1192.481, 19.54353
1192.963, 22.27220
1193.445, 22.98146
1193.927, 19.87192
1194.409, 15.60193
1194.891, 12.65596
1195.373, 11.22444
1195.855, 11.64320
1196.338, 14.35843
1196.820, 14.72557
1197.302, 9.451370
1197.784, 4.198212
1198.266, 5.905716
1198.748, 10.93578
1199.230, 15.03961
1199.712, 17.81384
1200.195, 18.67630
1200.677, 17.30894
1201.159, 16.30688
1201.641, 17.66075
1202.123, 19.31650
1202.605, 18.99199
1203.087, 17.29897
1203.569, 14.97928
1204.052, 10.96211
1204.534, 10.13286
1205.016, 12.87419
1205.498, 16.47990
1205.980, 20.35170
1206.462, 22.91498
1206.944, 22.70981
1207.426, 20.13232
1207.908, 16.00514
1208.391, 8.390823
1208.873, 5.418991
1209.355, 7.843338
1209.837, 12.56126
1210.319, 20.39070
1210.801, 26.39236
1211.283, 21.62872
1211.765, 9.835770
1212.247, 5.248795
1212.730, 12.06563
1213.212, 14.87952
1213.694, 11.10677
1214.176, 8.051987
1214.658, 16.35214
1215.140, 26.72145
1215.622, 27.04808
1216.104, 18.80495
1216.587, 14.58852
1217.069, 16.35773
1217.551, 18.01144
1218.033, 18.56172
1218.515, 18.78595
1218.997, 18.57256
1219.479, 19.17369
1219.961, 23.88278
1220.443, 32.58665
1220.926, 33.78201
1221.408, 24.11272
1221.890, 17.89453
1222.372, 18.95686
1222.854, 22.15042
1223.336, 23.16295
1223.818, 22.05388
1224.300, 17.27393
1224.782, 8.384827
1225.265, 6.127472
1225.747, 12.19174
1226.229, 17.58945
1226.711, 19.05989
1227.193, 19.25832
1227.675, 21.28136
1228.157, 23.72893
1228.639, 25.11514
1229.122, 25.27670
1229.604, 22.25404
1230.086, 15.03267
1230.568, 11.56575
1231.050, 16.29163
1231.532, 23.24496
1232.014, 27.54543
1232.496, 28.92781
1232.979, 25.58884
1233.461, 16.34447
1233.943, 16.01518
1234.425, 25.92024
1234.907, 31.08800
1235.389, 20.95157
1235.871, 8.798004
1236.353, 7.646164
1236.835, 12.30141
1237.318, 16.30484
1237.800, 19.22195
1238.282, 22.12881
1238.764, 24.79039
1239.246, 24.56790
1239.728, 21.01292
1240.210, 16.16396
1240.692, 6.797729
1241.175, 1.265335
1241.657, 1.436859
1242.139, 18.27766
1242.621, 21.89771
1243.103, 12.21169
1243.585, 3.355026
1244.067, 4.519943
1244.549, 8.537155
1245.031, 12.79958
1245.514, 15.95514
1245.996, 16.20352
1246.478, 13.43762
1246.960, 15.92584
1247.442, 23.41261
1247.924, 27.58438
1248.406, 17.13347
1248.888, 8.412521
1249.370, 14.29320
1249.853, 25.05666
1250.335, 27.61638
1250.817, 22.24670
1251.299, 17.68683
1251.781, 14.39149
1252.263, 12.87759
1252.745, 13.51567
1253.227, 16.04211
1253.710, 22.34740
1254.192, 28.85489
1254.674, 30.22609
1255.156, 27.35701
1255.638, 27.67831
1256.120, 31.18033
1256.602, 32.52072
1257.084, 26.21867
1257.567, 20.49571
1258.049, 17.72008
1258.531, 17.10165
1259.013, 18.48981
1259.495, 21.11333
1259.977, 21.65233
1260.459, 20.12492
1260.941, 19.61823
1261.423, 25.04741
1261.906, 26.19179
1262.388, 18.43948
1262.870, 9.500610
1263.352, 12.94556
1263.834, 23.08722
1264.316, 25.55286
1264.798, 19.83226
1265.280, 17.14650
1265.762, 24.10303
1266.245, 29.05728
1266.727, 29.73344
1267.209, 28.24254
1267.691, 26.37796
1268.173, 24.85265
1268.655, 25.60168
1269.137, 28.52994
1269.619, 28.97058
1270.102, 25.68063
1270.584, 22.35654
1271.066, 19.59653
1271.548, 16.79364
1272.030, 10.70941
1272.512, 4.715515
1272.994, 3.295456
1273.476, 6.717728
1273.958, 11.59311
1274.441, 18.94873
1274.923, 21.33865
1275.405, 16.28363
1275.887, 9.649063
1276.369, 8.170944
1276.851, 7.575104
1277.333, 1.508850
1277.815, 8.067551
1278.297, 6.525879
1278.780, 6.835938
1279.262, 15.28650
1279.744, 14.12425
1280.226, 12.57220
1280.708, 21.51624
1281.190, 29.64232
1281.672, 27.93561
1282.154, 18.91766
1282.637, 9.102371
1283.119, 0.7662200
1283.601, 1.975693
1284.083, 8.556412
1284.565, 18.16019
1285.047, 19.04767
1285.529, 16.82124
1286.011, 13.41006
1286.494, 9.917953
1286.976, 9.894363
1287.458, 12.56461
1287.940, 15.18555
1288.422, 17.17966
1288.904, 19.33359
1289.386, 19.77721
1289.868, 19.37231
1290.350, 18.99011
1290.833, 17.35167
1291.315, 16.71278
1291.797, 16.71004
1292.279, 13.71227
1292.761, 12.49176
1293.243, 13.34718
1293.725, 18.33710
1294.207, 20.23521
1294.689, 15.82455
1295.172, 9.324249
1295.654, 6.487839
1296.136, 5.483597
1296.618, 4.117783
1297.100, 2.060104
1297.582, 3.993988
1298.064, 11.09489
1298.546, 15.33974
1299.029, 13.98047
1299.511, 10.09116
1299.993, 3.904327
1300.475, 0.0000000E+00
##END=



