##NAMES=Bowieite
##RRUFFID=R070409
##IDEAL CHEMISTRY=Rh^3+^_2_S^2-^_3_
##LOCALITY=Novoseltsi, Burgas Oblast (Bourgas Oblast), Bulgaria
##OWNER=RRUFF
##SOURCE=Michael Scott
##DESCRIPTION=Polished grey metallic grains embedded in epoxy
##STATUS=The identification of this mineral is not yet confirmed.
##URL=rruff.info/R070409
164.4099, 0.0000000E+00
164.8920, 9.112549
165.3741, 14.56738
165.8563, 19.92798
166.3384, 34.46777
166.8205, 52.49683
167.3026, 60.91003
167.7847, 59.67505
168.2668, 59.52881
168.7490, 63.03833
169.2311, 71.61938
169.7132, 72.41467
170.1953, 58.13733
170.6774, 34.70630
171.1595, 11.71362
171.6417, 0.2276610
172.1238, 2.269043
172.6059, 8.502869
173.0880, 18.21545
173.5701, 28.82678
174.0522, 39.76953
174.5344, 49.08704
175.0165, 53.44934
175.4986, 48.56140
175.9807, 37.94305
176.4628, 34.61249
176.9449, 48.16602
177.4271, 56.03595
177.9092, 43.66931
178.3913, 21.52313
178.8734, 3.767090
179.3555, 4.506409
179.8376, 6.415710
180.3197, 6.044617
180.8019, 0.2639160
181.2840, 7.022888
181.7661, 13.75659
182.2482, 18.33948
182.7303, 22.54846
183.2124, 28.44348
183.6946, 34.84534
184.1767, 40.12720
184.6588, 43.15503
185.1409, 51.15479
185.6230, 62.37109
186.1051, 75.27423
186.5873, 90.73602
187.0694, 110.3242
187.5515, 130.6821
188.0336, 142.0886
188.5157, 142.4095
188.9978, 136.4546
189.4800, 118.1935
189.9621, 96.51215
190.4442, 80.92242
190.9263, 76.42914
191.4084, 77.91034
191.8905, 73.51764
192.3727, 54.89819
192.8548, 39.84247
193.3369, 30.66101
193.8190, 27.85468
194.3011, 34.03387
194.7832, 50.42285
195.2654, 70.81873
195.7475, 81.63495
196.2296, 81.09875
196.7117, 73.79669
197.1938, 54.35095
197.6759, 30.79803
198.1581, 12.59509
198.6402, 2.862030
199.1223, 0.2465210
199.6044, 1.824982
200.0865, 13.32254
200.5686, 21.69101
201.0508, 22.99509
201.5329, 23.25497
202.0150, 28.33780
202.4971, 39.34479
202.9792, 50.78137
203.4613, 53.04529
203.9435, 42.41760
204.4256, 31.08206
204.9077, 14.82013
205.3898, 1.144257
205.8719, 4.328094
206.3540, 0.7799680
206.8362, 7.957031
207.3183, 17.83124
207.8004, 31.76071
208.2825, 39.36243
208.7646, 37.97360
209.2467, 33.17068
209.7289, 26.75858
210.2110, 19.63251
210.6931, 13.00925
211.1752, 8.557068
211.6573, 6.891296
212.1395, 4.813843
212.6216, 0.2495420
213.1037, 2.850616
213.5858, 1.834045
214.0679, 2.885834
214.5500, 8.777252
215.0322, 13.73816
215.5143, 18.09946
215.9964, 19.37418
216.4785, 14.94666
216.9606, 9.983429
217.4427, 5.931061
217.9249, 2.896576
218.4070, 0.1561280
218.8891, 3.295776
219.3712, 7.526581
219.8533, 7.791565
220.3354, 1.513062
220.8176, 9.575684
221.2997, 13.78677
221.7818, 14.37964
222.2639, 17.61218
222.7460, 18.64975
223.2281, 17.62537
223.7103, 16.50388
224.1924, 15.84216
224.6745, 14.45517
225.1566, 11.07053
225.6387, 6.990784
226.1208, 4.316467
226.6030, 4.599640
227.0851, 6.924347
227.5672, 6.960052
228.0493, 2.333893
228.5314, 1.650574
229.0135, 5.725800
229.4957, 8.312592
229.9778, 6.302185
230.4599, 2.067474
230.9420, 13.12286
231.4241, 16.78583
231.9062, 6.401581
232.3884, 8.3984002E-02
232.8705, 1.289993
233.3526, 5.914322
233.8347, 10.00333
234.3168, 12.34489
234.7989, 13.91432
235.2811, 16.16345
235.7632, 19.57823
236.2453, 21.95020
236.7274, 23.85114
237.2095, 23.98154
237.6916, 20.45529
238.1738, 13.60243
238.6559, 7.728073
239.1380, 8.712936
239.6201, 19.19810
240.1022, 26.04948
240.5843, 25.09993
241.0665, 23.46715
241.5486, 25.44025
242.0307, 30.54268
242.5128, 34.62636
242.9949, 32.29088
243.4770, 22.54141
243.9592, 18.41925
244.4413, 26.34036
244.9234, 34.17244
245.4055, 37.66751
245.8876, 37.31540
246.3697, 35.24907
246.8519, 32.48192
247.3340, 29.13394
247.8161, 26.75476
248.2982, 24.30846
248.7803, 24.64687
249.2624, 30.86032
249.7446, 39.83615
250.2267, 46.32097
250.7088, 46.89485
251.1909, 43.94711
251.6730, 44.92307
252.1551, 52.59035
252.6373, 58.75264
253.1194, 60.43575
253.6015, 59.56943
254.0836, 57.81735
254.5657, 55.55130
255.0478, 53.34074
255.5300, 52.51630
256.0121, 53.74632
256.4942, 53.72507
256.9763, 49.36722
257.4584, 44.88979
257.9406, 43.54260
258.4227, 45.93028
258.9048, 49.62112
259.3869, 52.49521
259.8690, 54.60844
260.3511, 55.94302
260.8333, 55.88658
261.3154, 55.42807
261.7975, 55.48869
262.2796, 56.00816
262.7617, 55.78813
263.2438, 53.11952
263.7260, 48.47803
264.2081, 46.29166
264.6902, 47.96635
265.1723, 50.46895
265.6544, 51.87408
266.1365, 52.29298
266.6187, 52.23634
267.1008, 52.20273
267.5829, 51.82295
268.0650, 49.60571
268.5471, 44.54741
269.0292, 40.81592
269.5114, 42.93993
269.9935, 48.25826
270.4756, 52.42574
270.9577, 53.83646
271.4398, 54.10631
271.9219, 55.09575
272.4041, 56.76680
272.8862, 57.16264
273.3683, 54.23509
273.8504, 49.85802
274.3325, 47.79962
274.8146, 49.39000
275.2968, 51.22324
275.7789, 51.14658
276.2610, 49.42479
276.7431, 46.70926
277.2252, 42.41901
277.7073, 38.46234
278.1895, 38.33510
278.6716, 42.14540
279.1537, 46.01193
279.6358, 49.36327
280.1179, 51.66283
280.6000, 51.50865
281.0822, 48.33731
281.5643, 44.25966
282.0464, 41.76794
282.5285, 41.00833
283.0106, 40.05983
283.4927, 38.71271
283.9749, 37.09660
284.4570, 35.02180
284.9391, 32.59384
285.4212, 30.72571
285.9033, 30.29715
286.3854, 31.26753
286.8676, 31.44261
287.3497, 30.17691
287.8318, 29.17984
288.3139, 29.47379
288.7960, 30.57278
289.2781, 31.80057
289.7603, 32.91484
290.2424, 33.55943
290.7245, 32.13777
291.2066, 25.47569
291.6887, 20.85039
292.1708, 19.58540
292.6530, 20.83308
293.1351, 24.58368
293.6172, 30.73064
294.0993, 36.75549
294.5814, 37.84813
295.0635, 28.89639
295.5457, 24.72763
296.0278, 29.67509
296.5099, 35.92039
296.9920, 37.45654
297.4741, 34.03104
297.9562, 29.73100
298.4384, 28.95264
298.9205, 32.46248
299.4026, 34.22028
299.8847, 31.72371
300.3668, 30.04465
300.8489, 31.73859
301.3311, 35.56749
301.8131, 38.64485
302.2953, 38.91333
302.7774, 37.19771
303.2595, 37.84711
303.7416, 43.45352
304.2237, 47.45041
304.7058, 48.56670
305.1880, 47.57379
305.6701, 44.58069
306.1522, 39.53415
306.6343, 34.43431
307.1164, 33.39204
307.5985, 38.33797
308.0807, 40.31371
308.5628, 32.89468
309.0449, 25.22018
309.5270, 23.20889
310.0091, 27.26796
310.4912, 33.16057
310.9734, 38.54108
311.4555, 43.09741
311.9376, 43.39233
312.4197, 36.66299
312.9018, 29.35545
313.3839, 24.87642
313.8661, 22.92494
314.3482, 22.91994
314.8303, 26.33525
315.3124, 30.75125
315.7945, 31.60905
316.2766, 28.45177
316.7588, 24.48705
317.2409, 20.76778
317.7230, 17.56316
318.2051, 15.31976
318.6872, 14.17639
319.1693, 13.85811
319.6515, 14.70068
320.1336, 16.39539
320.6157, 17.45821
321.0978, 17.18246
321.5799, 16.34756
322.0620, 16.26413
322.5442, 17.04617
323.0263, 17.74316
323.5084, 18.95306
323.9905, 19.55298
324.4726, 17.40663
324.9547, 12.16785
325.4369, 6.764709
325.9190, 3.863937
326.4011, 3.739914
326.8832, 4.608551
327.3653, 7.816086
327.8474, 10.81102
328.3296, 12.05368
328.8117, 11.83617
329.2938, 11.08868
329.7759, 10.22176
330.2580, 9.490753
330.7401, 10.07719
331.2223, 13.23065
331.7044, 16.13130
332.1865, 18.99245
332.6686, 21.26988
333.1507, 22.41698
333.6328, 22.24628
334.1150, 20.86047
334.5971, 18.01070
335.0792, 12.07716
335.5613, 9.224136
336.0434, 10.92743
336.5255, 14.03638
337.0077, 18.03159
337.4898, 22.15300
337.9719, 24.97481
338.4540, 25.15161
338.9361, 22.95425
339.4182, 20.80473
339.9004, 18.10484
340.3825, 16.46886
340.8646, 16.62613
341.3467, 17.86885
341.8288, 19.83987
342.3109, 22.63741
342.7931, 24.63264
343.2752, 23.16974
343.7573, 17.82860
344.2394, 14.20154
344.7215, 14.80409
345.2036, 16.71112
345.6858, 17.81024
346.1679, 17.95064
346.6500, 17.63860
347.1321, 17.31631
347.6142, 17.00209
348.0963, 16.73511
348.5785, 16.56790
349.0606, 16.24242
349.5427, 15.88640
350.0248, 15.26556
350.5069, 14.17891
350.9890, 13.17682
351.4712, 12.14801
351.9533, 11.13565
352.4354, 10.25174
352.9175, 8.695175
353.3996, 5.685623
353.8817, 2.258835
354.3639, 1.368607
354.8460, 3.932648
355.3281, 6.580200
355.8102, 8.864105
356.2923, 10.69206
356.7744, 12.01678
357.2566, 12.81790
357.7387, 12.91823
358.2208, 12.13231
358.7029, 10.43050
359.1850, 7.952545
359.6671, 2.960022
360.1493, 1.007584
360.6314, 1.704193
361.1135, 0.1464540
361.5956, 1.109741
362.0777, 0.4658660
362.5598, 1.161575
363.0420, 9.8007001E-02
363.5241, 7.614197
364.0062, 11.49481
364.4883, 7.371414
364.9704, 1.205048
365.4525, 1.796661
365.9347, 0.6349030
366.4168, 1.636261
366.8989, 1.353058
367.3810, 1.694672
367.8631, 3.641556
368.3452, 4.671295
368.8274, 4.187714
369.3095, 1.308533
369.7916, 3.181656
370.2737, 7.482239
370.7558, 11.11424
371.2379, 13.77721
371.7201, 14.61526
372.2022, 13.45772
372.6843, 12.23544
373.1664, 11.93486
373.6485, 11.87161
374.1306, 10.95389
374.6128, 8.915924
375.0949, 6.855911
375.5770, 4.207809
376.0591, 2.152649
376.5412, 3.998611
377.0233, 10.87563
377.5055, 18.10776
377.9876, 20.59956
378.4697, 17.71214
378.9518, 16.36824
379.4339, 18.44147
379.9160, 20.46028
380.3982, 20.30486
380.8803, 18.36357
381.3624, 15.73495
381.8445, 12.84982
382.3266, 10.23189
382.8087, 9.503609
383.2909, 13.22135
383.7730, 15.54567
384.2551, 15.78944
384.7372, 15.00294
385.2193, 13.58785
385.7014, 11.87019
386.1836, 10.67503
386.6657, 11.20037
387.1478, 13.61617
387.6299, 14.34968
388.1120, 11.56760
388.5941, 9.263489
389.0763, 8.856819
389.5584, 9.534279
390.0405, 10.16986
390.5226, 10.15908
391.0047, 10.18783
391.4868, 12.01134
391.9690, 16.03235
392.4511, 17.79869
392.9332, 14.49362
393.4153, 9.877457
393.8974, 7.746994
394.3795, 8.120590
394.8617, 8.396980
395.3438, 6.904381
395.8259, 4.645775
396.3080, 3.310394
396.7901, 3.075584
397.2722, 3.327751
397.7544, 4.185432
398.2365, 5.147728
398.7186, 4.011932
399.2007, 3.246536
399.6828, 8.067268
400.1649, 4.814857
400.6471, 2.544708
401.1292, 7.398521
401.6113, 7.573212
402.0934, 5.040672
402.5755, 2.392082
403.0576, 1.113113
403.5398, 2.219139
404.0219, 0.8066330
404.5040, 4.259796
404.9861, 7.346405
405.4682, 9.278412
405.9503, 8.063614
406.4325, 1.758514
406.9146, 6.924438
407.3967, 7.678818
407.8788, 5.762749
408.3609, 14.07085
408.8430, 9.695923
409.3252, 1.711319
409.8073, 3.287964
410.2894, 4.187607
410.7715, 3.242500
411.2536, 1.669540
411.7357, 0.2927700
412.2179, 1.238052
412.7000, 0.7084200
413.1821, 8.7142996E-02
413.6642, 0.2931290
414.1463, 1.081673
414.6284, 2.053818
415.1106, 3.040909
415.5927, 4.314735
416.0748, 6.961761
416.5569, 10.17239
417.0390, 10.88272
417.5211, 7.555023
418.0033, 3.085526
418.4854, 1.915421
418.9675, 5.270538
419.4496, 8.388145
419.9317, 11.45000
420.4138, 13.67761
420.8960, 14.65570
421.3781, 14.60267
421.8602, 13.75115
422.3423, 12.15911
422.8244, 10.11596
423.3065, 9.098907
423.7887, 10.80569
424.2708, 10.89883
424.7529, 6.092300
425.2350, 1.471519
425.7171, 2.525841
426.1992, 9.457832
426.6814, 16.27955
427.1635, 16.35498
427.6456, 10.30974
428.1277, 6.546257
428.6098, 5.928879
429.0919, 6.065544
429.5741, 5.922493
430.0562, 5.660202
430.5383, 5.520210
431.0204, 5.583237
431.5025, 5.726738
431.9846, 5.870049
432.4668, 6.013123
432.9489, 6.057739
433.4310, 5.869339
433.9131, 5.953156
434.3952, 7.191948
434.8773, 9.748138
435.3595, 11.32764
435.8416, 8.567459
436.3237, 7.737282
436.8058, 16.28541
437.2879, 29.99806
437.7701, 37.58913
438.2522, 32.95941
438.7343, 20.78196
439.2164, 12.86232
439.6985, 11.31622
440.1806, 10.52267
440.6628, 10.64835
441.1449, 11.11395
441.6270, 11.97150
442.1091, 12.90861
442.5912, 13.04234
443.0733, 11.41525
443.5555, 8.602890
444.0376, 7.097382
444.5197, 7.620598
445.0018, 7.570671
445.4839, 4.426506
445.9660, 1.018387
446.4482, 0.5993800
446.9303, 3.959114
447.4124, 7.305206
447.8945, 8.092422
448.3766, 7.178871
448.8587, 6.349548
449.3409, 5.819458
449.8230, 5.559189
450.3051, 5.400841
450.7872, 5.470734
451.2693, 6.648514
451.7514, 10.52824
452.2336, 13.57806
452.7157, 14.51469
453.1978, 13.97326
453.6799, 12.49334
454.1620, 10.37569
454.6441, 8.379387
455.1263, 7.820076
455.6084, 9.220695
456.0905, 9.707069
456.5726, 8.516388
457.0547, 6.963501
457.5368, 4.651466
458.0190, 2.810013
458.5011, 3.027657
458.9832, 5.879051
459.4653, 9.566856
459.9474, 11.75704
460.4295, 12.42738
460.9117, 12.06118
461.3938, 10.27473
461.8759, 8.400894
462.3580, 7.648834
462.8401, 7.716034
463.3222, 7.011978
463.8044, 3.440369
464.2865, 0.2094880
464.7686, 0.5683590
465.2507, 3.946358
465.7328, 6.969223
466.2149, 7.417679
466.6971, 6.570351
467.1792, 6.905342
467.6613, 9.028915
468.1434, 10.64101
468.6255, 11.75731
469.1076, 12.56856
469.5898, 12.96770
470.0719, 13.08178
470.5540, 13.26979
471.0361, 13.77245
471.5182, 14.57137
472.0003, 15.93562
472.4825, 18.92310
472.9646, 19.52113
473.4467, 13.88731
473.9288, 7.719765
474.4109, 5.140968
474.8930, 6.081581
475.3752, 6.890175
475.8573, 4.837921
476.3394, 1.556770
476.8215, 0.7312160
477.3036, 1.981682
477.7857, 0.2129140
478.2679, 7.354996
478.7500, 17.04371
479.2321, 19.24339
479.7142, 10.92245
480.1963, 4.029060
480.6784, 1.123650
481.1606, 0.4113770
481.6427, 1.128319
482.1248, 2.659439
482.6069, 3.371330
483.0890, 1.805542
483.5711, 1.406479
484.0533, 2.675201
484.5354, 1.021286
485.0175, 1.057823
485.4996, 3.519699
485.9817, 5.982094
486.4638, 8.291344
486.9460, 10.35836
487.4281, 11.85184
487.9102, 12.17326
488.3923, 11.73981
488.8744, 12.18141
489.3565, 13.86436
489.8387, 14.26668
490.3208, 11.28425
490.8029, 6.614578
491.2850, 3.740173
491.7671, 2.820343
492.2492, 3.141365
492.7314, 5.285721
493.2135, 8.270378
493.6956, 11.00345
494.1777, 12.93020
494.6598, 13.90604
495.1419, 13.57901
495.6241, 12.23149
496.1062, 11.73697
496.5883, 13.69543
497.0704, 14.14943
497.5525, 11.32864
498.0346, 7.872894
498.5168, 6.173485
498.9989, 6.340286
499.4810, 6.556007
499.9631, 4.779289
500.4452, 1.871185
500.9273, 1.441872
501.4095, 4.086655
501.8916, 6.756233
502.3737, 8.604851
502.8558, 9.387604
503.3379, 8.609550
503.8200, 5.682114
504.3022, 3.171272
504.7843, 1.586006
505.2664, 1.244492
505.7485, 3.732285
506.2306, 8.530167
506.7127, 11.85670
507.1949, 10.93278
507.6770, 6.905792
508.1591, 4.833046
508.6412, 6.727440
509.1233, 7.664970
509.6054, 7.199837
510.0876, 5.881462
510.5697, 3.322624
511.0518, 8.8202998E-02
511.5339, 1.909973
512.0161, 0.9137190
512.4982, 2.125595
512.9803, 4.609482
513.4624, 6.499252
513.9445, 7.463440
514.4266, 7.027359
514.9088, 5.884438
515.3909, 4.416710
515.8730, 2.394150
516.3551, 2.503876
516.8372, 8.505630
517.3193, 14.83937
517.8015, 15.30859
518.2836, 11.06277
518.7657, 7.864029
519.2478, 8.854706
519.7299, 12.34763
520.2120, 14.44272
520.6942, 15.32735
521.1763, 14.33336
521.6584, 8.838531
522.1405, 4.022491
522.6226, 3.751160
523.1047, 6.697517
523.5869, 8.764839
524.0690, 7.576782
524.5511, 5.144638
525.0332, 4.783409
525.5153, 6.490318
525.9974, 7.708138
526.4796, 7.590302
526.9617, 7.187912
527.4438, 7.794594
527.9259, 9.260071
528.4080, 10.21334
528.8901, 11.11839
529.3723, 10.81161
529.8544, 7.260834
530.3365, 2.253387
530.8186, 0.7446440
531.3007, 0.5716860
531.7828, 1.493011
532.2650, 3.963493
532.7471, 7.143898
533.2292, 8.876945
533.7113, 8.310005
534.1934, 7.158676
534.6755, 4.569092
535.1577, 2.188301
535.6398, 3.063759
536.1219, 8.398064
536.6040, 13.30357
537.0861, 12.15432
537.5682, 6.953201
538.0504, 4.605789
538.5325, 6.237694
539.0146, 7.828308
539.4967, 6.175064
539.9788, 2.203453
540.4609, 0.6301500
540.9431, 3.109756
541.4252, 5.219002
541.9073, 6.167595
542.3894, 6.598152
542.8715, 6.807716
543.3536, 6.875000
543.8358, 6.969872
544.3179, 7.260239
544.8000, 7.708992
545.2821, 8.232834
545.7642, 9.077789
546.2463, 9.373405
546.7285, 8.580521
547.2106, 7.442146
547.6927, 6.430748
548.1748, 5.579956
548.6569, 4.885262
549.1390, 4.972511
549.6211, 4.767921
550.1032, 1.993408
550.5853, 2.387672
551.0674, 3.823135
551.5496, 8.1992999E-02
552.0317, 5.446953
552.5138, 7.044617
552.9959, 2.736824
553.4780, 1.214256
553.9601, 5.303322
554.4423, 8.734749
554.9244, 8.199425
555.4065, 5.591934
555.8886, 3.951889
556.3707, 4.387985
556.8528, 6.033272
557.3350, 8.463104
557.8171, 11.43459
558.2992, 13.00869
558.7813, 13.00919
559.2634, 11.68963
559.7455, 8.069176
560.2277, 3.402832
560.7098, 1.360413
561.1919, 3.203537
561.6740, 5.123276
562.1561, 6.390587
562.6382, 6.981232
563.1204, 6.479965
563.6025, 5.214630
564.0846, 4.430695
564.5667, 5.124367
565.0488, 6.889336
565.5309, 8.151634
566.0131, 8.848999
566.4952, 9.200928
566.9773, 9.293228
567.4594, 8.986176
567.9415, 8.154381
568.4236, 6.814514
568.9058, 5.010345
569.3879, 1.796425
569.8700, 0.8779750
570.3521, 1.020523
570.8342, 0.8648990
571.3163, 3.887718
571.7985, 7.969925
572.2806, 11.19821
572.7627, 11.00948
573.2448, 6.929527
573.7269, 3.858055
574.2090, 1.062767
574.6912, 0.1265870
575.1733, 3.077278
575.6554, 7.193077
576.1375, 9.468712
576.6196, 9.267937
577.1017, 8.117470
577.5839, 6.980011
578.0660, 6.006798
578.5481, 5.938622
579.0302, 6.927361
579.5123, 7.570427
579.9944, 7.286232
580.4766, 6.230171
580.9587, 4.319031
581.4408, 0.9407040
581.9229, 0.7580110
582.4050, 8.8523999E-02
582.8871, 2.364807
583.3693, 6.969078
583.8514, 12.20321
584.3335, 14.35636
584.8156, 11.69141
585.2977, 7.212708
585.7798, 5.888062
586.2620, 8.140678
586.7441, 8.920975
587.2262, 7.298660
587.7083, 5.324165
588.1904, 3.530090
588.6725, 2.213272
589.1547, 2.354843
589.6368, 4.702179
590.1189, 7.016869
590.6010, 8.713501
591.0831, 9.482086
591.5652, 8.037086
592.0474, 4.884583
592.5295, 3.158577
593.0116, 5.166130
593.4937, 9.377800
593.9758, 10.81313
594.4579, 7.972992
594.9401, 5.890198
595.4222, 5.896736
595.9043, 5.914268
596.3864, 3.420433
596.8685, 0.1563030
597.3506, 1.023560
597.8328, 10.10667
598.3149, 19.44914
598.7970, 21.29514
599.2791, 17.55981
599.7612, 13.38418
600.2433, 9.720078
600.7255, 7.183495
601.2076, 6.591965
601.6897, 7.570236
602.1718, 7.019966
602.6539, 2.139885
603.1360, 0.3947600
603.6182, 1.754349
604.1003, 4.933380
604.5824, 6.394447
605.0645, 6.242210
605.5466, 6.322685
606.0287, 8.330200
606.5109, 10.28656
606.9930, 7.900314
607.4751, 2.002747
607.9572, 0.1928940
608.4393, 3.671509
608.9214, 8.894058
609.4036, 10.58833
609.8857, 8.320274
610.3678, 6.706497
610.8499, 5.960800
611.3320, 5.605621
611.8141, 6.118439
612.2963, 6.641685
612.7784, 6.186066
613.2605, 4.770508
613.7426, 3.240860
614.2247, 1.888969
614.7068, 1.158691
615.1890, 3.107155
615.6711, 7.965103
616.1532, 10.00502
616.6353, 6.600189
617.1174, 1.517273
617.5995, 1.524017
618.0817, 2.476517
618.5638, 1.439346
619.0459, 4.846031
619.5280, 9.406723
620.0101, 8.209007
620.4922, 4.439293
620.9744, 1.869972
621.4565, 1.345970
621.9386, 1.795601
622.4207, 2.327202
622.9028, 3.031349
623.3849, 4.371658
623.8671, 6.483650
624.3492, 8.498276
624.8313, 10.44196
625.3134, 11.85091
625.7955, 11.80194
626.2776, 10.39432
626.7598, 9.497673
627.2419, 10.34682
627.7240, 10.63589
628.2061, 7.918839
628.6882, 4.612373
629.1703, 5.013390
629.6525, 9.578186
630.1346, 13.81254
630.6167, 12.98139
631.0988, 8.080872
631.5809, 4.207268
632.0630, 0.7856900
632.5452, 0.8899380
633.0273, 8.757004
633.5094, 17.42000
633.9915, 18.04692
634.4736, 11.14694
634.9557, 6.557625
635.4379, 8.349777
635.9200, 10.97522
636.4021, 11.32571
636.8842, 10.38749
637.3663, 9.240791
637.8484, 8.238182
638.3306, 7.441818
638.8127, 6.757851
639.2948, 6.352600
639.7769, 7.931999
640.2590, 12.93566
640.7411, 15.00468
641.2233, 10.26661
641.7054, 3.763062
642.1875, 0.1756670
642.6696, 0.5959320
643.1517, 0.7553630
643.6339, 6.865280
644.1160, 12.09665
644.5981, 12.94868
645.0802, 11.08382
645.5623, 8.319611
646.0444, 5.453003
646.5266, 3.985130
647.0087, 5.874977
647.4908, 10.00414
647.9729, 10.60302
648.4550, 6.539841
648.9371, 3.433899
649.4193, 2.643990
649.9014, 3.396454
650.3835, 5.842781
650.8656, 9.555084
651.3477, 11.38273
651.8298, 9.454536
652.3120, 7.071220
652.7941, 5.404602
653.2762, 4.383171
653.7583, 4.354874
654.2404, 5.059761
654.7225, 4.922005
655.2047, 2.317444
655.6868, 1.547218
656.1689, 2.335686
656.6510, 0.4846800
657.1331, 3.077118
657.6152, 4.414421
658.0974, 5.634026
658.5795, 8.473030
659.0616, 12.27243
659.5437, 13.84919
660.0258, 10.90794
660.5079, 8.216499
660.9901, 7.581779
661.4722, 7.883812
661.9543, 7.728279
662.4364, 7.145515
662.9185, 7.267731
663.4006, 9.066277
663.8828, 11.39576
664.3649, 11.90603
664.8470, 10.57951
665.3291, 7.627632
665.8112, 1.770042
666.2933, 3.055725
666.7755, 3.581978
667.2576, 0.4293820
667.7397, 3.335503
668.2218, 9.253845
668.7039, 13.27282
669.1860, 14.39945
669.6682, 13.51692
670.1503, 10.08561
670.6324, 5.300102
671.1145, 1.786301
671.5966, 0.8265990
672.0787, 1.658752
672.5609, 3.910896
673.0430, 7.261848
673.5251, 9.162682
674.0072, 9.190430
674.4893, 8.839676
674.9714, 8.832298
675.4536, 9.080200
675.9357, 9.842667
676.4178, 11.29973
676.8999, 12.47057
677.3820, 13.24105
677.8641, 13.89785
678.3463, 15.13146
678.8284, 16.17149
679.3105, 15.33775
679.7926, 12.10752
680.2747, 9.038307
680.7568, 8.946808
681.2390, 10.71539
681.7211, 11.61446
682.2032, 11.58755
682.6853, 12.14176
683.1674, 14.24690
683.6495, 16.12677
684.1317, 14.62807
684.6138, 8.587959
685.0959, 5.366692
685.5780, 6.992508
686.0601, 9.010628
686.5422, 11.41539
687.0244, 13.05368
687.5065, 12.05537
687.9886, 8.530586
688.4707, 5.878647
688.9528, 6.772072
689.4349, 8.947746
689.9171, 10.17295
690.3992, 10.52965
690.8813, 10.46121
691.3634, 10.06575
691.8455, 8.367363
692.3276, 3.735649
692.8098, 2.998886
693.2919, 3.859718
693.7740, 4.532738
694.2561, 11.34388
694.7382, 14.73568
695.2203, 15.75376
695.7025, 14.13119
696.1846, 10.62825
696.6667, 7.924942
697.1488, 6.849037
697.6309, 6.473488
698.1130, 6.793930
698.5952, 7.372261
699.0773, 7.603867
699.5594, 7.000763
700.0415, 6.225792
700.5236, 5.631615
701.0057, 5.211922
701.4879, 4.600395
701.9700, 3.731270
702.4521, 4.120796
702.9342, 6.627068
703.4163, 8.496567
703.8984, 7.601494
704.3806, 5.154251
704.8627, 4.038948
705.3448, 4.462669
705.8269, 5.494186
706.3090, 8.415611
706.7911, 10.51072
707.2733, 9.269341
707.7554, 6.376404
708.2375, 4.509064
708.7196, 4.521835
709.2017, 5.949974
709.6838, 9.596207
710.1660, 14.02170
710.6481, 14.79787
711.1302, 12.13808
711.6123, 10.98161
712.0944, 13.45402
712.5765, 16.43122
713.0587, 15.79246
713.5408, 11.18767
714.0229, 8.137894
714.5050, 7.879143
714.9871, 7.878922
715.4692, 7.372787
715.9514, 7.265594
716.4335, 8.667122
716.9156, 11.25378
717.3977, 13.47038
717.8798, 15.30301
718.3619, 15.66807
718.8441, 12.16520
719.3262, 7.207680
719.8083, 5.383362
720.2904, 6.887016
720.7725, 8.440758
721.2546, 7.877663
721.7368, 5.791840
722.2189, 2.971809
722.7010, 1.153839
723.1831, 1.578743
723.6652, 4.324532
724.1473, 9.285934
724.6295, 8.572525
725.1116, 5.015343
725.5937, 3.990639
726.0758, 6.361931
726.5579, 8.129684
727.0400, 7.560600
727.5222, 7.206932
728.0043, 9.552834
728.4864, 12.79739
728.9685, 13.51909
729.4506, 11.02111
729.9327, 8.451065
730.4149, 9.204865
730.8970, 11.67226
731.3791, 12.53304
731.8612, 11.78667
732.3433, 8.644897
732.8254, 2.336586
733.3076, 2.824097
733.7897, 1.951759
734.2718, 4.371986
734.7539, 8.520775
735.2360, 10.10326
735.7181, 10.12705
736.2003, 6.711662
736.6824, 3.684113
737.1645, 3.912704
737.6466, 6.421547
738.1287, 8.176308
738.6108, 7.713669
739.0930, 8.017052
739.5751, 12.96886
740.0572, 18.11717
740.5393, 17.12465
741.0214, 11.34370
741.5035, 6.625946
741.9857, 5.745796
742.4678, 6.597626
742.9499, 6.191322
743.4320, 4.660805
743.9141, 3.807076
744.3962, 3.618080
744.8784, 4.501038
745.3605, 7.414474
745.8426, 10.24222
746.3247, 9.475212
746.8068, 4.373756
747.2889, 2.799782
747.7711, 8.346169
748.2532, 12.54459
748.7353, 12.07404
749.2174, 10.42585
749.6995, 11.57083
750.1816, 14.78149
750.6638, 15.35412
751.1459, 10.19361
751.6280, 4.265228
752.1101, 1.358459
752.5922, 0.5565190
753.0743, 0.1288530
753.5565, 4.6211001E-02
754.0386, 1.420479
754.5207, 5.629875
755.0028, 9.939156
755.4849, 7.883118
755.9670, 1.788513
756.4492, 5.582161
756.9313, 1.386284
757.4134, 4.114479
757.8955, 9.478485
758.3776, 13.52075
758.8597, 13.89729
759.3419, 10.29172
759.8240, 7.190781
760.3061, 4.096031
760.7882, 2.581299
761.2703, 4.994690
761.7524, 8.237404
762.2346, 8.099663
762.7167, 4.902657
763.1988, 3.420464
763.6809, 7.503555
764.1630, 12.31213
764.6451, 11.57678
765.1273, 7.331863
765.6094, 4.131065
766.0915, 2.756622
766.5736, 3.639458
767.0557, 7.365959
767.5378, 12.04554
768.0200, 13.04573
768.5021, 9.359276
768.9842, 8.393822
769.4663, 12.01947
769.9484, 14.52287
770.4305, 12.18966
770.9127, 8.228317
771.3948, 7.687881
771.8769, 10.91710
772.3590, 12.68739
772.8411, 11.71807
773.3232, 10.01102
773.8054, 7.776543
774.2875, 5.561516
774.7696, 3.569199
775.2517, 2.072517
775.7338, 1.964836
776.2159, 4.406822
776.6981, 7.004669
777.1802, 6.263313
777.6623, 4.112602
778.1444, 4.902740
778.6265, 8.124565
779.1086, 9.633026
779.5908, 6.657257
780.0729, 2.069962
780.5550, 1.552650
781.0371, 5.799782
781.5192, 7.999573
782.0013, 7.500702
782.4835, 6.072723
782.9656, 3.709381
783.4477, 1.367340
783.9298, 0.2712250
784.4119, 0.4274750
784.8940, 1.152672
785.3762, 3.075363
785.8583, 4.715660
786.3404, 5.902000
786.8225, 6.465195
787.3046, 5.890968
787.7867, 4.565163
788.2689, 3.661659
788.7510, 3.720543
789.2331, 4.158318
789.7152, 4.663719
790.1973, 5.134644
790.6794, 5.391167
791.1616, 5.269348
791.6437, 5.168205
792.1258, 5.231750
792.6079, 5.209633
793.0900, 4.728722
793.5721, 3.936966
794.0543, 4.555717
794.5364, 6.891472
795.0185, 8.794289
795.5006, 9.831825
795.9827, 9.761055
796.4648, 7.594780
796.9470, 3.774147
797.4291, 3.116913
797.9112, 10.67623
798.3933, 14.12012
798.8754, 9.411530
799.3575, 3.924774
799.8397, 1.437126
800.3218, 1.352638
800.8039, 2.282837
801.2860, 4.082428
801.7681, 5.694298
802.2502, 6.750404
802.7324, 7.247208
803.2145, 6.573769
803.6966, 5.528435
804.1787, 5.921295
804.6608, 7.975357
805.1429, 9.754898
805.6251, 9.455612
806.1072, 8.043243
806.5893, 7.421333
807.0714, 7.563385
807.5535, 8.465576
808.0356, 10.35983
808.5178, 12.49052
808.9999, 14.44159
809.4820, 15.36572
809.9641, 12.78785
810.4462, 4.700432
810.9283, 0.5882190
811.4105, 2.558380
811.8926, 5.072395
812.3747, 6.550491
812.8568, 7.130219
813.3389, 6.313889
813.8210, 4.030647
814.3032, 3.458397
814.7853, 8.097717
815.2674, 11.63485
815.7495, 11.19285
816.2316, 9.219711
816.7137, 7.906647
817.1959, 7.146736
817.6780, 5.588654
818.1601, 2.416939
818.6422, 0.4771120
819.1243, 1.673645
819.6064, 1.481300
820.0886, 0.1880490
820.5707, 2.839088
821.0528, 5.011314
821.5349, 6.184914
822.0170, 6.529327
822.4991, 6.010567
822.9813, 4.950157
823.4634, 4.744072
823.9455, 5.419693
824.4276, 6.468628
824.9097, 7.928040
825.3918, 9.215607
825.8740, 9.983055
826.3561, 10.17515
826.8382, 9.528671
827.3203, 7.433067
827.8024, 5.908028
828.2845, 5.171730
828.7667, 4.751251
829.2488, 4.601387
829.7309, 4.593880
830.2130, 4.673805
830.6951, 4.829094
831.1772, 4.665634
831.6594, 2.931862
832.1415, 2.277466
832.6236, 5.725075
833.1057, 9.433304
833.5878, 9.184776
834.0699, 5.513504
834.5521, 0.8706740
835.0342, 4.341896
835.5163, 6.366470
835.9984, 1.858879
836.4805, 13.61525
836.9626, 17.83457
837.4448, 15.25966
837.9269, 10.14940
838.4090, 4.220749
838.8911, 3.1212000E-02
839.3732, 0.5780410
839.8553, 4.532745
840.3375, 6.056381
840.8196, 5.090363
841.3017, 4.817230
841.7838, 5.920654
842.2659, 7.061142
842.7480, 7.152489
843.2302, 6.899887
843.7123, 8.315102
844.1944, 12.53405
844.6765, 14.56757
845.1586, 13.16433
845.6407, 11.44105
846.1229, 10.10602
846.6050, 9.153236
847.0871, 8.491463
847.5692, 8.155571
848.0513, 8.549965
848.5334, 11.85857
849.0156, 13.02177
849.4977, 8.369026
849.9798, 3.117531
850.4619, 1.617149
850.9440, 2.854233
851.4261, 3.463165
851.9083, 2.518814
852.3904, 1.883293
852.8725, 3.017830
853.3546, 4.780403
853.8367, 6.643486
854.3188, 7.992584
854.8010, 6.900925
855.2831, 3.579788
855.7652, 1.637817
856.2473, 4.126427
856.7294, 8.300301
857.2115, 9.382622
857.6937, 7.892273
858.1758, 5.052834
858.6579, 1.190193
859.1400, 1.572266
859.6221, 9.226196
860.1042, 18.06474
860.5864, 18.85561
861.0685, 11.98541
861.5506, 8.666367
862.0327, 9.883705
862.5148, 10.87849
862.9969, 10.83911
863.4791, 9.904510
863.9612, 8.042336
864.4433, 5.401230
864.9254, 2.424805
865.4075, 2.367203
865.8896, 4.390663
866.3718, 2.151993
866.8539, 0.9381180
867.3360, 4.635605
867.8181, 7.976158
868.3002, 9.176056
868.7823, 8.435570
869.2645, 9.602295
869.7466, 17.05360
870.2287, 22.14415
870.7108, 19.45830
871.1929, 14.74368
871.6750, 13.29435
872.1572, 14.09173
872.6393, 13.48888
873.1214, 10.21568
873.6035, 6.906097
874.0856, 5.106194
874.5677, 4.544029
875.0499, 5.879700
875.5320, 7.913940
876.0141, 7.828812
876.4962, 5.415283
876.9783, 3.057442
877.4604, 2.361496
877.9426, 3.213028
878.4247, 6.169586
878.9068, 10.29156
879.3889, 11.75265
879.8710, 10.48647
880.3531, 9.035576
880.8353, 8.246536
881.3174, 7.781532
881.7995, 7.277687
882.2816, 6.767883
882.7637, 6.481140
883.2458, 6.445328
883.7280, 6.418076
884.2101, 6.328064
884.6922, 6.413223
885.1743, 7.066818
885.6564, 7.704201
886.1385, 6.845322
886.6207, 3.811317
887.1028, 2.407646
887.5849, 3.619759
888.0670, 4.889153
888.5491, 5.858398
889.0313, 6.349289
889.5134, 5.918114
889.9955, 4.828178
890.4776, 4.294052
890.9597, 4.665634
891.4418, 5.108360
891.9240, 5.959137
892.4061, 6.364822
892.8882, 5.197243
893.3703, 3.399956
893.8524, 2.203484
894.3345, 1.418213
894.8167, 2.122757
895.2988, 6.128540
895.7809, 10.04807
896.2630, 12.43840
896.7451, 13.55805
897.2272, 13.72406
897.7094, 12.89781
898.1915, 10.36615
898.6736, 5.854279
899.1557, 2.318642
899.6378, 2.213379
900.1199, 4.338165
900.6021, 9.143631
901.0842, 14.43675
901.5663, 14.79166
902.0484, 10.17652
902.5305, 6.025917
903.0126, 5.820320
903.4948, 7.164902
903.9769, 6.196732
904.4590, 3.978630
904.9411, 4.210815
905.4232, 6.708107
905.9053, 9.333710
906.3875, 11.36286
906.8696, 11.03858
907.3517, 5.984459
907.8338, 1.583229
908.3159, 4.118027
908.7980, 1.547226
909.2802, 0.8540190
909.7623, 2.274239
910.2444, 3.708542
910.7265, 5.487198
911.2086, 7.802200
911.6907, 11.33486
912.1729, 16.02567
912.6550, 17.42739
913.1371, 14.57797
913.6192, 11.39793
914.1013, 8.098946
914.5834, 5.390503
915.0656, 3.437386
915.5477, 2.594009
916.0298, 4.082855
916.5119, 9.377991
916.9940, 11.42093
917.4761, 7.598091
917.9583, 4.217682
918.4404, 2.042282
918.9225, 1.430763
919.4046, 3.263802
919.8867, 6.946136
920.3688, 10.39449
920.8510, 13.96046
921.3331, 16.34492
921.8152, 17.61385
922.2973, 17.02245
922.7794, 12.33232
923.2615, 6.825165
923.7437, 5.310593
924.2258, 7.702065
924.7079, 8.570526
925.1900, 4.049255
925.6721, 1.015900
926.1542, 3.734573
926.6364, 7.667122
927.1185, 9.739410
927.6006, 10.16929
928.0827, 9.784370
928.5648, 8.796555
929.0469, 7.195328
929.5291, 3.865341
930.0112, 1.206604
930.4933, 2.075279
930.9754, 3.993172
931.4575, 3.555107
931.9396, 1.831253
932.4218, 2.581444
932.9039, 7.117546
933.3860, 11.68334
933.8681, 13.30850
934.3502, 12.93066
934.8323, 10.34700
935.3145, 7.161690
935.7966, 7.969696
936.2787, 12.12080
936.7608, 12.77674
937.2429, 6.176163
937.7250, 1.215157
938.2072, 0.4819870
938.6893, 4.902824
939.1714, 7.097176
939.6535, 6.607132
940.1356, 5.919464
940.6177, 5.661926
941.0999, 5.765480
941.5820, 6.244209
942.0641, 6.717033
942.5462, 6.194794
943.0283, 4.953255
943.5104, 5.128387
943.9926, 6.708214
944.4747, 8.679474
944.9568, 10.76410
945.4389, 11.62061
945.9210, 9.666077
946.4031, 6.470123
946.8853, 7.259148
947.3674, 11.99744
947.8495, 12.81312
948.3316, 8.801872
948.8137, 5.757889
949.2958, 6.086090
949.7780, 7.285965
950.2601, 6.413635
950.7422, 4.105141
951.2243, 4.034271
951.7064, 6.701248
952.1885, 8.548027
952.6707, 8.836761
953.1528, 8.266861
953.6349, 7.262207
954.1170, 6.329910
954.5991, 6.303688
955.0812, 7.098717
955.5634, 6.678909
956.0455, 4.319611
956.5276, 3.072174
957.0097, 3.850914
957.4918, 4.552650
957.9739, 3.545479
958.4561, 2.387192
958.9382, 4.153435
959.4203, 9.300598
959.9024, 10.67355
960.3845, 5.256294
960.8666, 2.177879
961.3488, 4.215118
961.8309, 6.905731
962.3130, 7.751656
962.7951, 7.310448
963.2772, 6.302078
963.7593, 4.160408
964.2415, 4.537590
964.7236, 12.12410
965.2057, 15.40365
965.6878, 7.789856
966.1699, 0.4287190
966.6520, 1.977036
967.1342, 0.8878630
967.6163, 3.227867
968.0984, 4.949562
968.5805, 6.052315
969.0626, 6.778755
969.5447, 6.606049
970.0269, 3.581009
970.5090, 1.137398
970.9911, 3.560585
971.4732, 8.580360
971.9553, 9.673553
972.4374, 4.650093
972.9196, 1.428757
973.4017, 1.910210
973.8838, 3.289574
974.3659, 5.560730
974.8480, 7.497917
975.3301, 7.777786
975.8123, 6.845741
976.2944, 6.327003
976.7765, 6.935944
977.2586, 6.417252
977.7407, 2.732277
978.2228, 0.3083570
978.7050, 1.833282
979.1871, 1.287468
979.6692, 3.570930
980.1513, 10.94643
980.6334, 14.65806
981.1155, 12.18356
981.5977, 9.751953
982.0798, 9.287857
982.5619, 9.221664
983.0440, 8.992981
983.5261, 8.556168
984.0082, 8.025162
984.4904, 7.295341
984.9725, 5.811317
985.4546, 2.768028
985.9367, 0.9390950
986.4188, 3.185715
986.9009, 4.816841
987.3831, 0.9534680
987.8652, 3.589417
988.3473, 2.192055
988.8294, 4.237679
989.3115, 9.294067
989.7936, 11.10395
990.2758, 11.23792
990.7579, 8.264793
991.2400, 6.073845
991.7221, 9.339203
992.2042, 13.39646
992.6863, 11.20080
993.1685, 3.856209
993.6506, 0.6365890
994.1327, 1.150566
994.6148, 3.753380
995.0969, 4.367439
995.5790, 5.307594
996.0612, 9.934708
996.5433, 14.93272
997.0254, 15.72552
997.5075, 12.57794
997.9896, 9.133461
998.4717, 6.467178
998.9539, 4.151009
999.4360, 1.182373
999.9181, 0.6621480
1000.400, 0.7870790
1000.882, 3.515419
1001.364, 4.916145
1001.847, 5.077827
1002.329, 5.441597
1002.811, 6.729660
1003.293, 8.081039
1003.775, 9.892021
1004.257, 10.77231
1004.739, 8.750000
1005.221, 5.880905
1005.703, 5.105011
1006.186, 6.096840
1006.668, 5.998260
1007.150, 3.278595
1007.632, 1.384560
1008.114, 3.626587
1008.596, 5.289955
1009.078, 1.338493
1009.560, 3.615677
1010.043, 3.477234
1010.525, 1.177841
1011.007, 5.763512
1011.489, 9.310028
1011.971, 11.13832
1012.453, 9.276833
1012.935, 7.549927
1013.417, 9.363731
1013.899, 11.79522
1014.382, 11.09863
1014.864, 7.879837
1015.346, 5.277634
1015.828, 4.085251
1016.310, 3.850555
1016.792, 4.461365
1017.274, 5.921089
1017.756, 9.448410
1018.239, 12.86724
1018.721, 13.63958
1019.203, 12.36542
1019.685, 11.51267
1020.167, 11.89473
1020.649, 11.44539
1021.131, 7.587753
1021.613, 5.111244
1022.095, 7.803528
1022.578, 11.52974
1023.060, 12.58393
1023.542, 11.43842
1024.024, 9.760765
1024.506, 7.547729
1024.988, 6.678642
1025.470, 9.973381
1025.952, 11.25423
1026.435, 5.516701
1026.917, 0.6488270
1027.399, 1.278374
1027.881, 1.583641
1028.363, 2.756935
1028.845, 1.002846
1029.327, 1.062363
1029.809, 6.643700
1030.292, 10.16940
1030.774, 7.565605
1031.256, 4.323738
1031.738, 4.916092
1032.220, 7.175072
1032.702, 6.573814
1033.184, 2.473839
1033.666, 0.1821370
1034.148, 0.6536180
1034.630, 2.353844
1035.113, 6.334824
1035.595, 10.08116
1036.077, 13.24208
1036.559, 14.68684
1037.041, 12.17384
1037.523, 5.670227
1038.005, 3.244247
1038.487, 8.597496
1038.970, 12.12206
1039.452, 12.29693
1039.934, 11.82872
1040.416, 11.57622
1040.898, 11.56434
1041.380, 12.32846
1041.862, 13.61141
1042.344, 12.16113
1042.826, 3.804924
1043.309, 2.506317
1043.791, 14.81521
1044.273, 22.56345
1044.755, 16.47842
1045.237, 6.918243
1045.719, 4.240646
1046.201, 7.295479
1046.683, 9.044800
1047.166, 8.730453
1047.648, 9.208923
1048.130, 11.04974
1048.612, 11.96687
1049.094, 10.99034
1049.576, 9.644142
1050.058, 9.294174
1050.540, 9.416946
1051.022, 8.472946
1051.505, 6.237946
1051.987, 4.695000
1052.469, 3.802910
1052.951, 3.768440
1053.433, 4.880379
1053.915, 5.449867
1054.397, 4.193680
1054.879, 2.170692
1055.361, 0.9504850
1055.844, 0.6845400
1056.326, 4.092171
1056.808, 11.16870
1057.290, 15.38286
1057.772, 15.57649
1058.254, 12.09084
1058.736, 4.585297
1059.218, 1.481636
1059.701, 2.434372
1060.183, 12.48651
1060.665, 15.99858
1061.147, 14.05168
1061.629, 12.27943
1062.111, 11.28651
1062.593, 9.636024
1063.075, 6.839470
1063.557, 5.038864
1064.040, 6.821709
1064.522, 9.836044
1065.004, 9.401512
1065.486, 6.942604
1065.968, 5.794533
1066.450, 5.949593
1066.932, 6.737877
1067.414, 7.485992
1067.896, 6.798843
1068.379, 3.128372
1068.861, 3.8040001E-02
1069.343, 3.453438
1069.825, 8.851204
1070.307, 9.814423
1070.789, 7.834999
1071.271, 5.862457
1071.753, 4.752472
1072.236, 5.083641
1072.718, 7.330658
1073.200, 9.510857
1073.682, 10.23430
1074.164, 10.24890
1074.646, 10.18517
1075.128, 9.783180
1075.610, 8.455551
1076.093, 6.527985
1076.575, 4.796562
1077.057, 3.455307
1077.539, 2.711014
1078.021, 1.558083
1078.503, 2.479301
1078.985, 9.965462
1079.467, 16.63248
1079.949, 15.03344
1080.432, 9.524849
1080.914, 7.900009
1081.396, 10.85140
1081.878, 13.08004
1082.360, 14.11890
1082.842, 13.64600
1083.324, 10.24654
1083.806, 6.958710
1084.288, 5.408020
1084.771, 4.420906
1085.253, 1.685623
1085.735, 1.637123
1086.217, 7.9323001E-02
1086.699, 9.539307
1087.181, 15.61987
1087.663, 17.96429
1088.145, 16.78445
1088.628, 10.11376
1089.110, 3.641022
1089.592, 1.486015
1090.074, 2.536934
1090.556, 4.357460
1091.038, 6.815704
1091.520, 8.177101
1092.002, 8.738129
1092.484, 6.512741
1092.967, 0.4714580
1093.449, 3.481888
1093.931, 2.206879
1094.413, 1.748199
1094.895, 5.615471
1095.377, 8.917953
1095.859, 9.128448
1096.341, 6.816559
1096.823, 6.867973
1097.306, 9.332993
1097.788, 10.69594
1098.270, 9.825577
1098.752, 7.440437
1099.234, 3.605186
1099.716, 0.7304460
1100.198, 4.842117
1100.680, 11.35918
1101.163, 9.492455
1101.645, 2.373840
1102.127, 1.415115
1102.609, 0.7662120
1103.091, 1.151299
1103.573, 2.938934
1104.055, 4.264511
1104.537, 4.918510
1105.020, 4.903618
1105.502, 2.813820
1105.984, 1.129524
1106.466, 4.147430
1106.948, 9.673447
1107.430, 12.27666
1107.912, 10.90797
1108.394, 9.208565
1108.876, 7.965843
1109.359, 7.710358
1109.841, 10.37064
1110.323, 12.14033
1110.805, 9.151794
1111.287, 5.020630
1111.769, 4.866882
1112.251, 7.869263
1112.733, 8.889465
1113.215, 6.372490
1113.698, 4.999008
1114.180, 4.873894
1114.662, 5.708382
1115.144, 9.398117
1115.626, 11.39543
1116.108, 7.334778
1116.590, 0.9251480
1117.072, 0.8973080
1117.555, 2.055992
1118.037, 5.263229
1118.519, 9.135109
1119.001, 10.55151
1119.483, 8.693954
1119.965, 7.550789
1120.447, 8.949844
1120.929, 10.72019
1121.411, 10.68613
1121.894, 9.252289
1122.376, 6.554848
1122.858, 3.335243
1123.340, 4.652115
1123.822, 9.464958
1124.304, 10.40223
1124.786, 6.437744
1125.268, 3.987167
1125.750, 6.825806
1126.233, 10.33527
1126.715, 8.615059
1127.197, 5.078781
1127.679, 4.639633
1128.161, 5.556023
1128.643, 4.518974
1129.125, 2.336304
1129.607, 2.326065
1130.090, 5.106758
1130.572, 7.447327
1131.054, 7.833900
1131.536, 7.202271
1132.018, 4.970360
1132.500, 3.072182
1132.982, 3.065720
1133.464, 3.971581
1133.947, 4.712273
1134.429, 5.222801
1134.911, 5.713936
1135.393, 6.203506
1135.875, 6.694214
1136.357, 6.928581
1136.839, 7.587250
1137.321, 9.489906
1137.803, 10.78404
1138.286, 10.16018
1138.768, 8.604424
1139.250, 7.379852
1139.732, 6.568260
1140.214, 7.367310
1140.696, 10.32734
1141.178, 9.971161
1141.660, 5.461479
1142.142, 3.602478
1142.625, 6.753059
1143.107, 9.803062
1143.589, 8.540611
1144.071, 5.535500
1144.553, 4.768913
1145.035, 5.695717
1145.517, 7.750732
1145.999, 9.878334
1146.482, 7.995476
1146.964, 2.754982
1147.446, 1.535538
1147.928, 3.114082
1148.410, 1.610008
1148.892, 5.280769
1149.374, 12.07026
1149.856, 13.45839
1150.339, 12.20190
1150.821, 9.148582
1151.303, 6.108513
1151.785, 6.642311
1152.267, 10.17842
1152.749, 12.33360
1153.231, 11.52344
1153.713, 11.53642
1154.195, 15.63358
1154.677, 17.33999
1155.160, 12.59960
1155.642, 7.182655
1156.124, 3.865730
1156.606, 2.796341
1157.088, 4.211876
1157.570, 7.982285
1158.052, 10.83129
1158.534, 12.75540
1159.017, 13.50427
1159.499, 12.71361
1159.981, 12.87349
1160.463, 15.02105
1160.945, 17.34399
1161.427, 18.61272
1161.909, 18.58180
1162.391, 16.32396
1162.874, 12.63239
1163.356, 9.584457
1163.838, 7.500244
1164.320, 8.616371
1164.802, 11.89468
1165.284, 11.67089
1165.766, 6.800713
1166.248, 4.794037
1166.730, 12.78058
1167.213, 19.73241
1167.695, 14.74607
1168.177, 6.563301
1168.659, 1.329430
1169.141, 1.194962
1169.623, 0.7559810
1170.105, 1.381332
1170.587, 1.672195
1171.069, 1.029106
1171.552, 1.071060
1172.034, 6.244781
1172.516, 10.51848
1172.998, 7.403687
1173.480, 4.958275
1173.962, 7.285210
1174.444, 10.80075
1174.926, 12.00224
1175.409, 11.21817
1175.891, 8.410545
1176.373, 3.196976
1176.855, 2.173157
1177.337, 5.474236
1177.819, 6.419556
1178.301, 3.834488
1178.783, 1.487984
1179.266, 1.211060
1179.748, 2.330055
1180.230, 4.450500
1180.712, 6.946960
1181.194, 8.818123
1181.676, 10.36523
1182.158, 12.43233
1182.640, 14.26790
1183.122, 13.73553
1183.604, 11.24653
1184.087, 10.00033
1184.569, 11.49798
1185.051, 11.65976
1185.533, 5.718689
1186.015, 2.016258
1186.497, 7.439369
1186.979, 12.71100
1187.461, 9.284874
1187.944, 3.128120
1188.426, 3.539352
1188.908, 9.292358
1189.390, 12.52400
1189.872, 12.51800
1190.354, 12.62466
1190.836, 13.09070
1191.318, 12.32542
1191.801, 9.721100
1192.283, 7.654739
1192.765, 7.476143
1193.247, 8.375587
1193.729, 9.557739
1194.211, 11.57605
1194.693, 14.72089
1195.175, 17.45625
1195.657, 14.21526
1196.140, 7.168877
1196.622, 2.872452
1197.104, 2.488800
1197.586, 4.230797
1198.068, 7.579376
1198.550, 10.09526
1199.032, 10.51216
1199.514, 9.313042
1199.996, 4.743256
1200.479, 0.7619090
1200.961, 0.8515470
1201.443, 3.276360
1201.925, 5.454948
1202.407, 7.333252
1202.889, 9.908623
1203.371, 14.29366
1203.853, 15.59226
1204.336, 12.63612
1204.818, 9.646545
1205.300, 6.622299
1205.782, 3.737732
1206.264, 0.1010210
1206.746, 1.971428
1207.228, 0.8286130
1207.710, 6.140755
1208.193, 8.036964
1208.675, 7.590477
1209.157, 7.569107
1209.639, 8.011253
1210.121, 8.409241
1210.603, 8.576614
1211.085, 8.273109
1211.567, 7.396881
1212.049, 6.350708
1212.531, 5.609810
1213.014, 4.443573
1213.496, 0.5446780
1213.978, 1.840118
1214.460, 2.582153
1214.942, 8.508369
1215.424, 8.349960
1215.906, 3.965118
1216.388, 3.338547
1216.871, 7.559586
1217.353, 8.399155
1217.835, 4.525070
1218.317, 3.303307
1218.799, 6.281502
1219.281, 7.919510
1219.763, 5.692719
1220.245, 3.891968
1220.728, 6.665947
1221.210, 11.25237
1221.692, 13.00414
1222.174, 13.02881
1222.656, 13.60047
1223.138, 13.63091
1223.620, 12.21072
1224.102, 9.508759
1224.584, 8.328827
1225.067, 9.330551
1225.549, 10.91308
1226.031, 13.53574
1226.513, 13.51270
1226.995, 9.616959
1227.477, 6.285149
1227.959, 7.100708
1228.441, 7.869179
1228.923, 4.423325
1229.406, 0.1570740
1229.888, 0.3887560
1230.370, 3.286743
1230.852, 6.023003
1231.334, 7.797173
1231.816, 11.01658
1232.298, 15.60779
1232.780, 16.14783
1233.263, 11.58711
1233.745, 6.285721
1234.227, 2.167969
1234.709, 0.3988570
1235.191, 5.311012
1235.673, 10.59365
1236.155, 9.522774
1236.637, 5.800362
1237.120, 2.692207
1237.602, 0.6072460
1238.084, 1.6960001E-02
1238.566, 0.0000000E+00
##END=



