##NAMES=Brannerite
##RRUFFID=R080091
##IDEAL CHEMISTRY=U^4+^Ti^4+^_2_O_6_
##LOCALITY=Crocker's Well, South Australia, Australia
##OWNER=RRUFF
##SOURCE=Michael Scott
##DESCRIPTION=Light brown fragment from metamict sample R060613, after heating at T = 1000 C for 18 hours
##STATUS=The identification of this mineral has been confirmed by X-ray diffraction.
##URL=rruff.info/R080091
146.0384, 0.0000000E+00
146.5205, 4.208496
147.0026, 0.7576900
147.4847, 2.072998
147.9668, 1.091431
148.4490, 7.933472
148.9311, 17.73901
149.4132, 29.97473
149.8953, 44.01135
150.3774, 59.21167
150.8595, 77.14941
151.3417, 98.16101
151.8238, 120.9608
152.3059, 144.5707
152.7880, 168.3799
153.2701, 192.7150
153.7522, 218.1731
154.2344, 244.7520
154.7165, 272.5024
155.1986, 301.7224
155.6807, 331.9194
156.1628, 362.5459
156.6449, 393.2009
157.1271, 424.0203
157.6092, 455.6820
158.0913, 488.7227
158.5734, 521.9984
159.0555, 555.2556
159.5376, 588.4359
160.0198, 621.4603
160.5019, 654.4171
160.9840, 687.4359
161.4661, 720.0867
161.9482, 751.6785
162.4303, 783.5825
162.9125, 817.0647
163.3946, 851.8379
163.8767, 885.1978
164.3588, 914.8639
164.8409, 942.0308
165.3230, 969.0847
165.8052, 996.8201
166.2873, 1024.120
166.7694, 1049.425
167.2515, 1073.075
167.7336, 1093.766
168.2157, 1110.959
168.6979, 1125.125
169.1800, 1136.492
169.6621, 1145.041
170.1442, 1150.929
170.6263, 1154.858
171.1084, 1157.952
171.5906, 1156.678
172.0727, 1150.296
172.5548, 1139.599
173.0369, 1125.605
173.5190, 1108.837
174.0011, 1089.416
174.4833, 1068.491
174.9654, 1047.087
175.4475, 1024.735
175.9296, 999.5935
176.4117, 972.6570
176.8938, 944.5852
177.3760, 916.2117
177.8581, 887.4277
178.3402, 857.1174
178.8223, 823.3672
179.3044, 788.3973
179.7865, 753.3160
180.2687, 718.3978
180.7508, 682.6594
181.2329, 646.0413
181.7150, 608.9574
182.1971, 573.7738
182.6792, 540.4324
183.1614, 508.7413
183.6435, 478.5228
184.1256, 449.8528
184.6077, 422.9398
185.0898, 398.1649
185.5719, 375.8119
186.0541, 354.1195
186.5362, 332.6810
187.0183, 312.1335
187.5004, 293.1718
187.9825, 275.8282
188.4646, 259.8452
188.9468, 245.2314
189.4289, 231.8723
189.9110, 219.2417
190.3931, 207.3958
190.8752, 196.1868
191.3573, 185.2504
191.8395, 174.4729
192.3216, 164.2532
192.8037, 155.1720
193.2858, 146.9077
193.7679, 138.7443
194.2500, 130.1766
194.7322, 121.4740
195.2143, 113.3915
195.6964, 106.1663
196.1785, 99.33618
196.6606, 92.74731
197.1427, 86.28101
197.6249, 79.73511
198.1070, 72.97571
198.5891, 66.01013
199.0712, 58.89685
199.5533, 51.17651
200.0354, 43.82397
200.5176, 37.41113
200.9997, 31.68347
201.4818, 26.07178
201.9639, 20.13220
202.4460, 13.85071
202.9281, 7.804077
203.4103, 1.664185
203.8924, 3.858765
204.3745, 8.276489
204.8566, 11.76013
205.3387, 14.77551
205.8208, 17.82739
206.3030, 21.07812
206.7851, 23.31714
207.2672, 24.08752
207.7493, 24.42188
208.2314, 24.66223
208.7135, 24.81909
209.1957, 24.77966
209.6778, 24.48096
210.1599, 23.97144
210.6420, 22.59839
211.1241, 20.35400
211.6062, 17.49927
212.0884, 13.88623
212.5705, 9.698486
213.0526, 5.559937
213.5347, 2.128418
214.0168, 0.4704590
214.4989, 4.367676
214.9811, 10.36951
215.4632, 16.98816
215.9453, 23.30969
216.4274, 29.23840
216.9095, 35.00171
217.3916, 40.68542
217.8737, 46.28284
218.3559, 52.15637
218.8380, 58.59399
219.3201, 65.35083
219.8022, 72.26526
220.2843, 79.31348
220.7664, 86.39026
221.2486, 93.43567
221.7307, 100.4631
222.2128, 107.2344
222.6949, 113.7688
223.1770, 120.0189
223.6591, 125.6522
224.1413, 130.5330
224.6234, 135.7217
225.1055, 142.4817
225.5876, 150.0372
226.0697, 156.9788
226.5518, 162.8234
227.0340, 167.8735
227.5161, 172.4974
227.9982, 176.6641
228.4803, 180.4840
228.9624, 183.8755
229.4445, 186.9706
229.9267, 189.9673
230.4088, 192.9720
230.8909, 195.8551
231.3730, 198.4084
231.8551, 200.7577
232.3372, 202.4056
232.8194, 202.7095
233.3015, 202.4097
233.7836, 202.4537
234.2657, 203.4097
234.7478, 204.6467
235.2299, 204.6573
235.7121, 202.8868
236.1942, 200.9684
236.6763, 199.3164
237.1584, 197.8313
237.6405, 196.5747
238.1227, 195.6674
238.6048, 194.6567
239.0869, 192.3433
239.5690, 188.2087
240.0511, 183.5422
240.5332, 178.3365
241.0154, 172.9386
241.4975, 167.6359
241.9796, 162.5448
242.4617, 157.7729
242.9438, 153.7327
243.4259, 151.2645
243.9081, 148.1740
244.3902, 143.9445
244.8723, 139.1931
245.3544, 134.3513
245.8365, 129.5876
246.3186, 125.0945
246.8008, 121.3274
247.2829, 119.3467
247.7650, 116.5463
248.2471, 112.2323
248.7292, 107.3995
249.2113, 103.0441
249.6935, 99.48315
250.1756, 96.19080
250.6577, 92.06970
251.1398, 85.45422
251.6219, 80.52734
252.1040, 78.61133
252.5862, 77.61365
253.0683, 75.74268
253.5504, 72.47278
254.0325, 68.37329
254.5146, 64.31689
254.9967, 60.04529
255.4789, 56.44470
255.9610, 54.06580
256.4431, 52.05908
256.9252, 49.47534
257.4073, 46.14880
257.8894, 42.95520
258.3716, 41.13672
258.8537, 41.47241
259.3358, 41.27869
259.8179, 40.05176
260.3000, 38.46118
260.7821, 37.07385
261.2643, 35.91797
261.7464, 34.68616
262.2285, 33.21643
262.7106, 31.57068
263.1927, 29.76611
263.6748, 27.76550
264.1570, 25.59338
264.6391, 23.37036
265.1212, 21.18201
265.6033, 18.95166
266.0854, 16.59839
266.5675, 14.10437
267.0497, 11.46863
267.5318, 8.290649
268.0139, 5.278320
268.4960, 3.120850
268.9781, 1.880005
269.4602, 1.092651
269.9424, 0.6169430
270.4245, 0.3779300
270.9066, 0.1578370
271.3887, 1.141357
271.8708, 2.439453
272.3529, 4.160156
272.8351, 6.196533
273.3172, 7.742188
273.7993, 8.485229
274.2814, 8.305542
274.7635, 7.161255
275.2456, 4.272217
275.7278, 1.367676
276.2099, 7.6660000E-02
276.6920, 0.2532960
277.1741, 0.7852780
277.6562, 2.599976
278.1383, 5.151001
278.6205, 7.111572
279.1026, 8.170532
279.5847, 9.367188
280.0668, 11.31763
280.5489, 13.99084
281.0310, 17.15881
281.5132, 20.76477
281.9953, 24.85791
282.4774, 29.52393
282.9595, 34.89941
283.4416, 40.02698
283.9237, 44.09583
284.4059, 47.35535
284.8880, 50.90503
285.3701, 54.98926
285.8522, 59.45898
286.3343, 64.04773
286.8164, 68.75391
287.2986, 73.86902
287.7807, 79.79187
288.2628, 86.29431
288.7449, 92.52515
289.2270, 98.28125
289.7091, 103.9611
290.1913, 109.9124
290.6734, 116.0796
291.1555, 122.4960
291.6376, 129.2798
292.1197, 136.2695
292.6018, 143.2278
293.0840, 150.1288
293.5661, 156.9060
294.0482, 163.5302
294.5303, 169.9847
295.0124, 176.3130
295.4945, 182.2853
295.9767, 188.2021
296.4588, 194.6724
296.9409, 201.8618
297.4230, 209.1058
297.9051, 216.5033
298.3872, 223.6692
298.8694, 230.0085
299.3515, 235.0881
299.8336, 239.8177
300.3157, 245.5720
300.7978, 252.6102
301.2799, 259.3313
301.7621, 264.9236
302.2442, 270.0270
302.7263, 275.2744
303.2084, 280.8430
303.6905, 286.1959
304.1726, 290.7222
304.6548, 294.3748
305.1369, 298.0280
305.6190, 302.1146
306.1011, 306.1007
306.5832, 309.5792
307.0653, 312.5287
307.5475, 315.1617
308.0296, 317.6233
308.5117, 319.9097
308.9938, 322.0391
309.4759, 324.2003
309.9580, 325.9221
310.4402, 326.9120
310.9223, 327.2458
311.4044, 327.2257
311.8865, 327.1686
312.3686, 326.9355
312.8507, 325.8275
313.3329, 323.3486
313.8150, 320.7910
314.2971, 319.1533
314.7792, 317.8971
315.2613, 315.9861
315.7434, 312.7334
316.2256, 308.6609
316.7077, 305.0549
317.1898, 302.2974
317.6719, 298.8165
318.1540, 293.2831
318.6361, 286.9197
319.1183, 281.0236
319.6004, 276.0244
320.0825, 271.4231
320.5646, 266.8517
321.0467, 262.4965
321.5288, 256.9756
322.0110, 248.7056
322.4931, 239.7445
322.9752, 231.7554
323.4573, 225.0375
323.9394, 218.5867
324.4215, 211.3849
324.9037, 203.4929
325.3858, 195.9233
325.8679, 189.1132
326.3500, 182.3812
326.8321, 175.2589
327.3142, 167.7819
327.7964, 160.2640
328.2785, 152.8552
328.7606, 145.5558
329.2427, 138.3113
329.7248, 131.0114
330.2069, 123.9462
330.6891, 117.5729
331.1712, 111.5468
331.6533, 105.0463
332.1354, 97.28625
332.6175, 89.12048
333.0996, 82.33301
333.5818, 77.11780
334.0639, 72.44250
334.5460, 68.17773
335.0281, 64.01355
335.5102, 59.49280
335.9923, 54.18506
336.4745, 49.01489
336.9566, 45.32178
337.4387, 43.23547
337.9208, 40.60022
338.4029, 35.95984
338.8850, 31.01233
339.3671, 27.61780
339.8492, 26.00537
340.3314, 24.52283
340.8135, 21.73926
341.2956, 17.88574
341.7777, 14.59448
342.2598, 12.39111
342.7419, 10.48474
343.2241, 8.020752
343.7062, 5.144531
344.1883, 2.685791
344.6704, 1.049805
345.1525, 9.8389000E-02
345.6346, 0.3438720
346.1168, 0.1339110
346.5989, 9.1430999E-02
347.0810, 0.2647710
347.5631, 0.9155270
348.0452, 1.335327
348.5273, 1.050049
349.0095, 0.7789310
349.4916, 1.560547
349.9737, 3.418579
350.4558, 4.994385
350.9379, 5.593018
351.4200, 5.537109
351.9022, 5.404663
352.3843, 5.214478
352.8664, 4.953979
353.3485, 4.510864
353.8306, 3.960938
354.3127, 3.729126
354.7949, 4.214355
355.2770, 4.574341
355.7591, 3.559082
356.2412, 1.215088
356.7233, 1.037842
357.2054, 2.931152
357.6876, 4.344360
358.1697, 4.802490
358.6518, 4.093506
359.1339, 3.505005
359.6160, 4.233398
360.0981, 6.102051
360.5803, 8.106201
361.0624, 10.21680
361.5445, 12.35449
362.0266, 14.29797
362.5087, 16.11682
362.9908, 18.33459
363.4730, 21.36499
363.9551, 24.94031
364.4372, 28.26001
364.9193, 31.33289
365.4014, 34.15332
365.8835, 36.20569
366.3657, 38.03540
366.8478, 40.88733
367.3299, 45.26331
367.8120, 50.36536
368.2941, 54.92896
368.7762, 58.71545
369.2584, 63.01953
369.7405, 68.33215
370.2226, 74.03650
370.7047, 79.38428
371.1868, 84.35352
371.6689, 89.60840
372.1511, 95.76562
372.6332, 102.9023
373.1153, 110.4424
373.5974, 119.1947
374.0795, 127.5935
374.5616, 134.3445
375.0438, 140.1168
375.5259, 146.7444
376.0080, 155.2272
376.4901, 165.1548
376.9722, 175.0759
377.4543, 184.9789
377.9365, 194.8510
378.4186, 204.1898
378.9007, 213.7197
379.3828, 224.2263
379.8649, 235.9116
380.3470, 248.3545
380.8292, 260.9800
381.3113, 273.8949
381.7934, 286.8282
382.2755, 299.4530
382.7576, 312.3860
383.2397, 325.9081
383.7219, 340.0627
384.2040, 354.6619
384.6861, 369.5436
385.1682, 384.7198
385.6503, 399.8854
386.1324, 415.4424
386.6146, 430.4937
387.0967, 444.1473
387.5788, 457.3455
388.0609, 471.3926
388.5430, 486.7977
389.0251, 503.0225
389.5073, 519.1467
389.9894, 535.3931
390.4715, 551.0587
390.9536, 566.0969
391.4357, 580.6158
391.9178, 594.5615
392.4000, 608.0076
392.8821, 621.3835
393.3642, 635.3542
393.8463, 649.9961
394.3284, 663.0320
394.8105, 673.4015
395.2927, 683.3743
395.7748, 694.0339
396.2569, 704.7740
396.7390, 714.6499
397.2211, 723.1816
397.7032, 730.6021
398.1854, 737.4702
398.6675, 744.0684
399.1496, 749.3285
399.6317, 752.7559
400.1138, 754.8787
400.5959, 755.8909
401.0781, 755.8452
401.5602, 754.9199
402.0423, 753.2874
402.5244, 750.9565
403.0065, 747.7897
403.4886, 743.8289
403.9708, 738.8789
404.4529, 732.7664
404.9350, 725.6940
405.4171, 718.1216
405.8992, 710.5809
406.3813, 702.5785
406.8635, 693.1050
407.3456, 682.0115
407.8277, 670.2891
408.3098, 658.4150
408.7919, 646.0352
409.2740, 632.5846
409.7562, 617.5897
410.2383, 602.6101
410.7204, 588.6106
411.2025, 575.2361
411.6846, 561.3331
412.1667, 546.5031
412.6489, 531.2684
413.1310, 516.1069
413.6131, 500.9316
414.0952, 486.0798
414.5773, 471.1217
415.0594, 456.7267
415.5416, 444.0549
416.0237, 432.9517
416.5058, 421.7787
416.9879, 409.4523
417.4700, 396.1714
417.9521, 383.0031
418.4343, 369.0912
418.9164, 356.2065
419.3985, 345.0837
419.8806, 335.1514
420.3627, 325.8599
420.8448, 316.9567
421.3270, 308.0492
421.8091, 298.5297
422.2912, 288.1328
422.7733, 278.1971
423.2554, 269.0895
423.7375, 260.1198
424.2197, 250.7672
424.7018, 241.2288
425.1839, 232.2107
425.6660, 224.2670
426.1481, 217.2983
426.6302, 210.3325
427.1124, 203.4141
427.5945, 196.5573
428.0766, 189.2565
428.5587, 182.3021
429.0408, 176.4988
429.5229, 172.0817
430.0051, 168.4567
430.4872, 164.9166
430.9693, 161.6025
431.4514, 157.9084
431.9335, 153.2482
432.4156, 148.6836
432.8978, 144.4650
433.3799, 140.6788
433.8620, 137.4376
434.3441, 135.0919
434.8262, 133.1499
435.3083, 129.9866
435.7905, 124.9718
436.2726, 120.5137
436.7547, 117.9481
437.2368, 116.0469
437.7189, 113.7275
438.2010, 110.7585
438.6832, 107.8297
439.1653, 105.6229
439.6474, 104.0065
440.1295, 102.2054
440.6116, 100.0100
441.0938, 97.79944
441.5759, 95.85022
442.0580, 94.14050
442.5401, 92.65918
443.0222, 91.88025
443.5043, 91.00952
443.9865, 89.10083
444.4686, 86.25745
444.9507, 83.30298
445.4328, 80.52258
445.9149, 77.96765
446.3970, 75.82092
446.8792, 74.23975
447.3613, 72.55701
447.8434, 70.60278
448.3255, 68.44580
448.8076, 66.08813
449.2897, 63.53723
449.7719, 61.03125
450.2540, 58.80994
450.7361, 56.88110
451.2182, 54.88147
451.7003, 52.72144
452.1824, 50.60522
452.6646, 48.71960
453.1467, 46.89136
453.6288, 44.90149
454.1109, 42.64282
454.5930, 40.10059
455.0751, 37.13330
455.5573, 33.12732
456.0394, 29.92639
456.5215, 27.51660
457.0036, 25.76379
457.4857, 25.15601
457.9678, 25.22400
458.4500, 24.57495
458.9321, 21.90967
459.4142, 17.71228
459.8963, 14.88049
460.3784, 14.16516
460.8605, 13.53308
461.3427, 12.77246
461.8248, 11.63513
462.3069, 9.659424
462.7890, 6.734619
463.2711, 3.747681
463.7532, 1.589111
464.2354, 0.2130130
464.7175, 0.7375490
465.1996, 1.079590
465.6817, 1.342529
466.1638, 1.871460
466.6459, 2.614258
467.1281, 3.469849
467.6102, 4.607666
468.0923, 5.662720
468.5744, 6.074219
469.0565, 5.929077
469.5386, 6.015991
470.0208, 6.757080
470.5029, 7.754150
470.9850, 8.315796
471.4671, 8.465088
471.9492, 8.334717
472.4313, 7.766602
472.9135, 7.052612
473.3956, 6.498535
473.8777, 6.126831
474.3598, 5.816650
474.8419, 5.508057
475.3240, 5.172852
475.8062, 4.562622
476.2883, 3.675415
476.7704, 2.538696
477.2525, 1.303101
477.7346, 0.2561040
478.2167, 2.557739
478.6989, 5.658569
479.1810, 8.970947
479.6631, 11.75562
480.1452, 13.86157
480.6273, 16.13013
481.1094, 18.44641
481.5916, 21.02673
482.0737, 24.03564
482.5558, 27.33789
483.0379, 30.66260
483.5200, 33.86938
484.0021, 37.16528
484.4843, 41.11255
484.9664, 45.97327
485.4485, 50.31738
485.9306, 53.49902
486.4127, 56.37585
486.8948, 59.43701
487.3770, 62.70459
487.8591, 66.06653
488.3412, 69.38281
488.8233, 72.76636
489.3054, 76.65332
489.7875, 81.13867
490.2697, 84.98267
490.7518, 86.98816
491.2339, 88.25708
491.7160, 91.16846
492.1981, 96.40894
492.6802, 101.2449
493.1624, 104.0941
493.6445, 105.9641
494.1266, 108.3274
494.6087, 111.4637
495.0908, 114.8038
495.5729, 117.8442
496.0551, 120.5920
496.5372, 123.5942
497.0193, 127.4384
497.5014, 130.8452
497.9835, 133.0510
498.4656, 134.7803
498.9478, 137.0911
499.4299, 140.2914
499.9120, 143.8219
500.3941, 146.8533
500.8762, 149.1982
501.3583, 151.8625
501.8405, 155.1299
502.3226, 158.4504
502.8047, 161.7516
503.2868, 164.9565
503.7689, 167.9401
504.2510, 170.6636
504.7331, 173.0830
505.2152, 175.0691
505.6974, 176.5422
506.1795, 177.8850
506.6616, 179.0831
507.1437, 180.3195
507.6258, 181.7582
508.1079, 183.3285
508.5901, 184.7476
509.0722, 185.8031
509.5543, 186.6652
510.0364, 187.7845
510.5185, 189.2205
511.0006, 190.3026
511.4828, 190.7499
511.9649, 190.6001
512.4470, 189.8374
512.9291, 188.2468
513.4113, 186.8633
513.8934, 185.9050
514.3755, 185.3058
514.8576, 185.2660
515.3397, 185.6510
515.8218, 185.7406
516.3040, 184.9963
516.7861, 183.4792
517.2682, 181.6506
517.7503, 179.5393
518.2324, 177.0491
518.7145, 173.7063
519.1967, 170.2289
519.6788, 167.2733
520.1609, 164.9369
520.6430, 162.9000
521.1251, 161.0024
521.6072, 159.2032
522.0894, 156.4880
522.5715, 152.3730
523.0536, 148.1722
523.5357, 144.4033
524.0178, 140.7448
524.4999, 136.7960
524.9821, 132.4244
525.4642, 127.9584
525.9463, 123.5217
526.4284, 119.2616
526.9105, 115.7899
527.3926, 113.5148
527.8748, 111.0103
528.3569, 106.9218
528.8390, 101.7029
529.3211, 96.82202
529.8032, 92.88306
530.2853, 88.86694
530.7675, 83.83215
531.2496, 78.39429
531.7317, 73.92395
532.2138, 70.81555
532.6959, 68.09888
533.1780, 64.50464
533.6602, 59.74939
534.1423, 56.02014
534.6244, 53.98083
535.1065, 52.09058
535.5886, 49.93347
536.0707, 47.55359
536.5529, 44.99377
537.0350, 42.26477
537.5171, 39.48401
537.9992, 36.87939
538.4813, 34.45361
538.9634, 32.20447
539.4456, 29.96265
539.9277, 28.13245
540.4098, 26.99951
540.8919, 26.37476
541.3740, 25.98474
541.8561, 25.89709
542.3383, 25.61926
542.8204, 24.36694
543.3025, 22.25549
543.7846, 20.38940
544.2667, 19.06372
544.7488, 18.01514
545.2310, 17.06299
545.7131, 16.18408
546.1952, 15.12183
546.6773, 13.67590
547.1594, 12.18762
547.6415, 10.76978
548.1237, 9.490479
548.6058, 8.549683
549.0879, 8.047485
549.5700, 7.641724
550.0521, 6.658691
550.5342, 4.473022
551.0164, 3.700684
551.4985, 5.687622
551.9806, 7.497070
552.4627, 7.905518
552.9448, 7.178833
553.4269, 5.940308
553.9091, 4.457764
554.3912, 2.848022
554.8733, 1.290894
555.3554, 0.2327880
555.8375, 1.670776
556.3196, 3.247681
556.8018, 4.455322
557.2839, 4.855103
557.7660, 4.668945
558.2481, 4.497681
558.7302, 4.492432
559.2123, 4.665771
559.6945, 5.070801
560.1766, 5.674805
560.6587, 6.354370
561.1408, 7.101318
561.6229, 7.804810
562.1050, 8.375732
562.5872, 8.821655
563.0693, 8.871338
563.5514, 8.113892
564.0335, 7.366943
564.5156, 7.339722
564.9977, 7.560303
565.4799, 7.116699
565.9620, 5.652222
566.4441, 3.598389
566.9262, 1.527222
567.4083, 0.7109380
567.8904, 2.331421
568.3726, 2.473633
568.8547, 2.868530
569.3368, 4.216309
569.8189, 6.184204
570.3010, 8.232788
570.7831, 10.21240
571.2653, 12.05713
571.7474, 13.58789
572.2295, 14.86267
572.7116, 16.39587
573.1937, 18.22424
573.6758, 20.40894
574.1580, 23.03186
574.6401, 26.07141
575.1222, 29.45752
575.6043, 33.76721
576.0864, 37.76379
576.5685, 40.23901
577.0507, 42.14185
577.5328, 45.18457
578.0149, 49.75354
578.4970, 54.81409
578.9791, 59.29370
579.4612, 63.17542
579.9434, 66.92749
580.4255, 69.78992
580.9076, 73.44702
581.3897, 78.75391
581.8718, 84.77075
582.3539, 90.47925
582.8361, 95.67114
583.3182, 100.7136
583.8003, 105.8464
584.2824, 111.1338
584.7645, 116.9398
585.2466, 123.2578
585.7288, 130.2043
586.2108, 138.3719
586.6929, 146.9779
587.1750, 154.6682
587.6572, 161.1031
588.1393, 167.6826
588.6214, 175.0690
589.1035, 182.9496
589.5856, 190.9236
590.0677, 198.9500
590.5499, 206.9906
591.0320, 215.0134
591.5141, 223.1168
591.9962, 231.5707
592.4783, 240.6536
592.9604, 249.6562
593.4426, 258.3805
593.9247, 267.1879
594.4068, 276.5034
594.8889, 286.1460
595.3710, 295.5615
595.8531, 304.2324
596.3353, 312.6447
596.8174, 322.0253
597.2995, 332.3693
597.7816, 343.6721
598.2637, 357.0690
598.7458, 370.1665
599.2280, 380.9392
599.7101, 389.6639
600.1922, 397.9683
600.6743, 405.2556
601.1564, 413.2469
601.6385, 424.1553
602.1207, 437.0145
602.6028, 448.9530
603.0849, 458.9236
603.5670, 468.1191
604.0491, 477.9871
604.5313, 488.5732
605.0134, 499.5177
605.4955, 511.4979
605.9776, 523.0353
606.4597, 533.5503
606.9418, 543.4384
607.4240, 552.9742
607.9061, 562.2693
608.3882, 571.5499
608.8703, 581.2817
609.3524, 591.4131
609.8345, 600.5664
610.3167, 608.1230
610.7988, 616.1094
611.2809, 626.0803
611.7630, 636.8130
612.2451, 646.7759
612.7272, 655.8224
613.2094, 664.0531
613.6915, 671.1074
614.1736, 677.5988
614.6557, 684.1367
615.1378, 690.9010
615.6199, 698.1105
616.1021, 705.9609
616.5842, 714.0321
617.0663, 720.9979
617.5484, 725.8158
618.0305, 731.3124
618.5126, 738.6691
618.9948, 745.5109
619.4769, 750.0581
619.9590, 753.0073
620.4411, 756.1322
620.9232, 760.4166
621.4053, 765.1503
621.8875, 769.1814
622.3696, 772.4736
622.8517, 775.5140
623.3338, 778.4209
623.8159, 781.1989
624.2980, 783.9805
624.7802, 786.6310
625.2623, 788.5452
625.7444, 789.0657
626.2265, 789.4550
626.7086, 790.5232
627.1907, 791.7318
627.6729, 792.3569
628.1550, 792.2526
628.6371, 791.5746
629.1192, 790.4324
629.6013, 788.8514
630.0834, 787.1011
630.5656, 785.0632
631.0477, 783.0181
631.5298, 781.3984
632.0119, 779.4902
632.4940, 776.5361
632.9761, 772.6844
633.4583, 768.9086
633.9404, 765.8337
634.4225, 763.1553
634.9046, 760.6716
635.3867, 758.2881
635.8688, 755.0115
636.3510, 750.4005
636.8331, 745.2386
637.3152, 740.4634
637.7973, 736.1134
638.2794, 731.1283
638.7615, 724.9637
639.2437, 718.6875
639.7258, 712.9122
640.2079, 707.1021
640.6900, 700.7173
641.1721, 693.6293
641.6542, 685.8843
642.1364, 677.2727
642.6185, 667.7922
643.1006, 658.7158
643.5827, 650.4738
644.0648, 641.9065
644.5469, 632.4149
645.0291, 622.4777
645.5112, 612.4940
645.9933, 602.5295
646.4754, 592.2532
646.9575, 581.2570
647.4396, 570.0695
647.9218, 559.5396
648.4039, 549.3789
648.8860, 538.3671
649.3681, 525.9635
649.8502, 512.8812
650.3323, 500.0619
650.8145, 487.5459
651.2966, 475.0997
651.7787, 462.1956
652.2608, 449.9935
652.7429, 439.5338
653.2250, 429.6969
653.7072, 419.1353
654.1893, 407.4707
654.6714, 395.5553
655.1535, 384.1128
655.6356, 373.0686
656.1177, 361.9175
656.5999, 350.5825
657.0820, 339.9828
657.5641, 330.8031
658.0462, 322.3916
658.5283, 313.2633
659.0104, 303.1993
659.4926, 293.7574
659.9747, 285.5640
660.4568, 277.7196
660.9389, 269.9528
661.4210, 262.0331
661.9031, 253.5679
662.3853, 244.3739
662.8674, 235.0173
663.3495, 226.1522
663.8316, 217.7535
664.3137, 209.9274
664.7958, 202.9170
665.2780, 196.0380
665.7601, 188.4908
666.2422, 181.1014
666.7243, 175.1099
667.2064, 170.8091
667.6885, 166.4189
668.1707, 161.1324
668.6528, 155.3206
669.1349, 149.5984
669.6170, 143.8073
670.0991, 136.8638
670.5812, 128.1887
671.0634, 119.1581
671.5455, 112.1991
672.0276, 107.9316
672.5097, 103.5925
672.9918, 99.21094
673.4739, 94.74377
673.9561, 90.16504
674.4382, 85.54285
674.9203, 80.85486
675.4024, 76.11841
675.8845, 71.60754
676.3666, 67.52539
676.8488, 63.86206
677.3309, 60.62781
677.8130, 57.82275
678.2951, 55.23267
678.7772, 52.77783
679.2593, 50.39185
679.7415, 47.95264
680.2236, 45.56189
680.7057, 42.74097
681.1878, 39.02344
681.6699, 35.35498
682.1520, 32.21924
682.6342, 29.35046
683.1163, 26.18506
683.5984, 22.56628
684.0805, 19.29712
684.5626, 17.57446
685.0447, 17.02026
685.5269, 15.34351
686.0090, 12.22131
686.4911, 9.623291
686.9732, 8.618042
687.4553, 8.429077
687.9374, 7.850464
688.4196, 6.877075
688.9017, 5.816162
689.3838, 4.907837
689.8659, 3.749634
690.3480, 1.804688
690.8301, 0.4630130
691.3123, 2.328735
691.7944, 3.543335
692.2765, 4.252319
692.7586, 4.477905
693.2407, 4.292236
693.7228, 4.664185
694.2050, 5.809937
694.6871, 6.994019
695.1692, 8.156860
695.6513, 9.100952
696.1334, 9.693726
696.6155, 9.936279
697.0977, 9.715088
697.5798, 8.240723
698.0619, 7.013672
698.5440, 7.663940
699.0261, 9.282227
699.5082, 9.842529
699.9904, 8.816895
700.4725, 7.419067
700.9546, 6.983643
701.4367, 7.430298
701.9188, 7.598267
702.4009, 7.351807
702.8831, 7.082520
703.3652, 7.188477
703.8473, 7.076904
704.3294, 6.233521
704.8115, 4.715210
705.2936, 3.008179
705.7758, 0.9011230
706.2579, 0.9217530
706.7400, 1.423340
707.2221, 1.292236
707.7042, 2.101685
708.1863, 4.203857
708.6685, 6.853638
709.1506, 9.436035
709.6327, 11.93604
710.1148, 14.26562
710.5969, 16.54675
711.0790, 18.41248
711.5612, 19.12207
712.0433, 20.03625
712.5254, 22.12537
713.0075, 25.16943
713.4896, 28.32739
713.9717, 31.22742
714.4539, 34.23462
714.9360, 37.90173
715.4181, 41.88635
715.9002, 45.28906
716.3823, 48.00293
716.8644, 50.67297
717.3466, 53.74292
717.8287, 57.17346
718.3108, 60.86597
718.7929, 64.97864
719.2750, 69.03467
719.7571, 72.95435
720.2393, 76.86926
720.7214, 80.90234
721.2035, 84.95056
721.6856, 88.73901
722.1677, 92.08069
722.6498, 95.65149
723.1320, 100.4944
723.6141, 105.8281
724.0962, 109.4656
724.5783, 111.4767
725.0604, 115.0793
725.5425, 122.4243
726.0247, 131.1469
726.5068, 136.2296
726.9889, 135.8385
727.4710, 137.4132
727.9531, 142.3461
728.4352, 147.6168
728.9174, 152.0680
729.3995, 156.3713
729.8816, 161.5385
730.3637, 167.7622
730.8458, 173.9772
731.3279, 179.5135
731.8101, 184.5530
732.2922, 189.3804
732.7743, 193.9794
733.2564, 198.1809
733.7385, 201.9120
734.2206, 205.2687
734.7028, 208.2675
735.1849, 210.8397
735.6670, 214.0878
736.1491, 218.4789
736.6312, 222.9700
737.1133, 228.1368
737.5955, 232.8196
738.0776, 235.5552
738.5597, 236.6533
739.0418, 238.2083
739.5239, 241.9948
740.0060, 245.8898
740.4882, 246.9065
740.9703, 246.0015
741.4524, 246.2961
741.9345, 248.4362
742.4166, 250.6676
742.8987, 251.5354
743.3809, 251.2925
743.8630, 251.2050
744.3451, 251.3396
744.8272, 251.5035
745.3093, 252.2476
745.7914, 252.4646
746.2736, 251.2880
746.7557, 249.1974
747.2378, 247.1588
747.7199, 245.4994
748.2020, 243.8538
748.6841, 241.9610
749.1663, 239.7850
749.6484, 237.3370
750.1305, 234.6497
750.6126, 231.8939
751.0947, 229.1971
751.5768, 226.3581
752.0590, 222.9410
752.5411, 218.7839
753.0232, 214.8033
753.5053, 211.4262
753.9874, 207.6907
754.4695, 203.0474
754.9517, 198.1215
755.4338, 193.6437
755.9159, 189.6697
756.3980, 185.7521
756.8801, 181.6957
757.3622, 177.5531
757.8444, 173.4933
758.3265, 169.4316
758.8086, 164.9908
759.2907, 160.1122
759.7728, 155.2956
760.2549, 151.1886
760.7371, 147.5748
761.2192, 143.1385
761.7013, 137.3763
762.1834, 132.1990
762.6655, 128.4034
763.1476, 124.9012
763.6298, 120.8405
764.1119, 116.4875
764.5940, 112.5529
765.0761, 109.4995
765.5582, 106.2924
766.0403, 102.2055
766.5225, 97.86292
767.0046, 93.89557
767.4867, 90.31238
767.9688, 86.81427
768.4509, 83.22784
768.9330, 79.81921
769.4152, 77.10120
769.8973, 75.06110
770.3794, 73.16486
770.8615, 71.67584
771.3436, 69.56720
771.8257, 65.93781
772.3079, 61.94543
772.7900, 59.20551
773.2721, 57.79614
773.7542, 56.37164
774.2363, 54.39136
774.7184, 52.58173
775.2006, 51.47235
775.6827, 50.84021
776.1648, 50.32214
776.6469, 49.81372
777.1290, 49.34070
777.6111, 48.93121
778.0933, 48.51965
778.5754, 47.81732
779.0575, 46.86151
779.5396, 46.79413
780.0217, 48.07037
780.5038, 49.23566
780.9860, 48.99731
781.4681, 47.74207
781.9502, 47.12439
782.4323, 47.53644
782.9144, 47.94507
783.3965, 48.34265
783.8787, 48.70123
784.3608, 48.77246
784.8429, 48.78271
785.3250, 49.27985
785.8071, 50.44202
786.2892, 51.51465
786.7714, 51.78796
787.2535, 51.60370
787.7356, 51.44873
788.2177, 51.38617
788.6998, 51.65771
789.1819, 52.37323
789.6641, 53.18835
790.1462, 53.60669
790.6283, 53.63831
791.1104, 54.42383
791.5925, 56.69482
792.0746, 58.48993
792.5568, 59.60901
793.0389, 60.05542
793.5210, 59.04224
794.0031, 57.28754
794.4852, 57.23975
794.9673, 60.51752
795.4495, 63.85663
795.9316, 65.06793
796.4137, 65.24664
796.8958, 65.69409
797.3779, 66.51288
797.8600, 67.39276
798.3422, 68.17719
798.8243, 68.79749
799.3064, 69.08606
799.7885, 69.01837
800.2706, 69.04279
800.7527, 69.15411
801.2349, 69.42096
801.7170, 70.11835
802.1991, 70.76691
802.6812, 70.60547
803.1633, 69.65143
803.6454, 68.75348
804.1276, 67.70532
804.6097, 67.09753
805.0918, 67.49103
805.5739, 68.24188
806.0560, 68.72620
806.5381, 68.89569
807.0203, 69.01404
807.5024, 69.31183
807.9845, 69.42810
808.4666, 68.76306
808.9487, 67.47748
809.4308, 66.23297
809.9130, 65.09930
810.3951, 63.69641
810.8772, 61.73853
811.3593, 59.51672
811.8414, 57.59613
812.3235, 56.01923
812.8057, 54.48932
813.2878, 52.92615
813.7699, 51.48853
814.2520, 50.40814
814.7341, 49.33203
815.2162, 47.87842
815.6984, 46.04181
816.1805, 44.11279
816.6626, 42.14966
817.1447, 40.17621
817.6268, 38.16693
818.1089, 36.19702
818.5911, 34.47693
819.0732, 32.96326
819.5553, 31.30902
820.0374, 29.26355
820.5195, 26.96570
821.0016, 24.55072
821.4838, 21.99890
821.9659, 20.13104
822.4480, 19.22833
822.9301, 18.25323
823.4122, 16.60419
823.8943, 14.64197
824.3765, 13.01337
824.8586, 11.83228
825.3407, 10.35126
825.8228, 8.082214
826.3049, 6.090393
826.7870, 4.743408
827.2692, 3.832642
827.7513, 3.446594
828.2334, 3.349426
828.7155, 2.679077
829.1976, 0.7928470
829.6797, 1.546814
830.1619, 3.838135
830.6440, 5.841370
831.1261, 6.635803
831.6082, 6.287964
832.0903, 6.301331
832.5724, 7.595154
833.0546, 9.525696
833.5367, 10.88055
834.0188, 11.65411
834.5009, 11.90320
834.9830, 11.31415
835.4651, 10.84503
835.9473, 10.96857
836.4294, 11.26660
836.9115, 11.30609
837.3936, 11.08777
837.8757, 10.80029
838.3578, 10.42682
838.8400, 10.04773
839.3221, 9.610840
839.8042, 9.243225
840.2863, 9.269104
840.7684, 9.486755
841.2505, 9.250610
841.7327, 8.225159
842.2148, 6.842957
842.6969, 5.569763
843.1790, 4.359192
843.6611, 3.009766
844.1432, 1.537109
844.6254, 0.3836670
845.1075, 0.2075810
845.5896, 0.7452390
846.0717, 1.908752
846.5538, 3.699280
847.0359, 5.607239
847.5181, 7.724915
848.0002, 9.764282
848.4823, 11.47266
848.9644, 13.27087
849.4465, 15.45959
849.9286, 17.96997
850.4108, 20.61572
850.8929, 23.50220
851.3750, 26.21039
851.8571, 28.27826
852.3392, 30.39508
852.8214, 33.22626
853.3035, 36.53174
853.7856, 39.80872
854.2677, 42.87994
854.7498, 45.76050
855.2319, 48.20294
855.7141, 50.59814
856.1962, 54.03625
856.6783, 58.35339
857.1604, 62.40033
857.6425, 65.85510
858.1246, 69.41034
858.6068, 73.66693
859.0889, 78.41742
859.5710, 82.87207
860.0531, 86.80664
860.5352, 91.05780
861.0173, 95.78516
861.4995, 100.6582
861.9816, 105.5200
862.4637, 110.4584
862.9458, 115.6563
863.4279, 121.1295
863.9100, 126.5102
864.3922, 131.7554
864.8743, 136.8545
865.3564, 141.6725
865.8385, 146.4021
866.3206, 151.1356
866.8027, 155.9837
867.2849, 161.2838
867.7670, 167.3104
868.2491, 173.4633
868.7312, 178.7770
869.2133, 183.5839
869.6954, 188.9230
870.1776, 194.8454
870.6597, 200.7607
871.1418, 206.4067
871.6239, 211.9349
872.1060, 217.5784
872.5881, 223.3307
873.0703, 229.0960
873.5524, 234.9142
874.0345, 240.6561
874.5166, 246.4473
874.9987, 252.0090
875.4808, 256.8654
875.9630, 261.3345
876.4451, 266.4511
876.9272, 272.8898
877.4093, 278.6563
877.8914, 282.7715
878.3735, 286.7139
878.8557, 291.4047
879.3378, 296.5571
879.8199, 301.3887
880.3020, 305.8706
880.7841, 311.2554
881.2662, 319.4155
881.7484, 327.9969
882.2305, 334.3917
882.7126, 338.8688
883.1947, 341.5852
883.6768, 342.8249
884.1589, 344.0204
884.6411, 346.0768
885.1232, 348.8182
885.6053, 352.0876
886.0874, 355.9192
886.5695, 359.1305
887.0516, 361.5754
887.5338, 363.5624
888.0159, 365.1585
888.4980, 366.5228
888.9801, 367.9551
889.4622, 369.5273
889.9443, 370.6794
890.4265, 370.8908
890.9086, 371.2046
891.3907, 372.2941
891.8728, 373.0648
892.3549, 372.7913
892.8370, 371.7911
893.3192, 370.5856
893.8013, 369.2215
894.2834, 367.8187
894.7655, 366.4751
895.2476, 365.1325
895.7297, 363.9177
896.2119, 362.5940
896.6940, 360.6619
897.1761, 358.1185
897.6582, 355.5132
898.1403, 353.1855
898.6224, 350.9734
899.1046, 348.8098
899.5867, 346.6121
900.0688, 343.5823
900.5509, 339.6564
901.0330, 336.1234
901.5151, 333.6578
901.9973, 331.4875
902.4794, 328.4035
902.9615, 324.3633
903.4436, 320.6483
903.9257, 317.3710
904.4078, 314.1088
904.8900, 310.7137
905.3721, 307.3802
905.8542, 304.5641
906.3363, 301.8959
906.8184, 298.2501
907.3005, 292.9313
907.7827, 288.3981
908.2648, 285.4819
908.7469, 282.8156
909.2290, 280.0692
909.7111, 276.9963
910.1932, 273.1215
910.6754, 268.5487
911.1575, 264.1633
911.6396, 260.5826
912.1217, 257.0508
912.6038, 252.7910
913.0859, 248.2830
913.5681, 244.2084
914.0502, 240.5363
914.5323, 236.8069
915.0144, 232.8210
915.4965, 228.8768
915.9786, 225.4341
916.4607, 222.2885
916.9428, 218.5986
917.4249, 214.4088
917.9070, 210.4297
918.3892, 206.8357
918.8713, 203.5149
919.3534, 200.4398
919.8355, 197.5133
920.3176, 194.5047
920.7997, 191.3455
921.2819, 188.2767
921.7640, 185.3353
922.2461, 182.4084
922.7282, 179.4630
923.2103, 176.5260
923.6924, 173.6803
924.1746, 170.9125
924.6567, 168.0726
925.1388, 164.8722
925.6209, 161.9648
926.1030, 159.7269
926.5851, 157.5912
927.0673, 155.0990
927.5494, 152.4608
928.0315, 150.1066
928.5136, 148.1741
928.9957, 146.3543
929.4778, 144.5786
929.9600, 142.7663
930.4421, 140.7656
930.9242, 138.6939
931.4063, 136.6854
931.8884, 134.7692
932.3705, 133.0212
932.8527, 131.4897
933.3348, 129.9301
933.8169, 128.0214
934.2990, 125.8522
934.7811, 123.4743
935.2632, 120.9941
935.7454, 119.2188
936.2275, 118.4247
936.7096, 117.8567
937.1917, 116.7500
937.6738, 115.2477
938.1559, 114.0405
938.6381, 113.2403
939.1202, 112.0353
939.6023, 110.1312
940.0844, 108.5280
940.5665, 107.9326
941.0486, 107.7071
941.5308, 106.7790
942.0129, 105.0289
942.4950, 103.5926
942.9771, 102.8026
943.4592, 101.7920
943.9413, 100.2670
944.4235, 98.68542
944.9056, 97.26797
945.3877, 95.98782
945.8698, 94.80698
946.3519, 93.75534
946.8340, 92.77231
947.3162, 91.87094
947.7983, 91.02280
948.2804, 90.27383
948.7625, 89.53125
949.2446, 88.61044
949.7267, 87.53912
950.2089, 86.57236
950.6910, 85.88971
951.1731, 85.23169
951.6552, 84.27957
952.1373, 83.27979
952.6194, 82.54245
953.1016, 82.04269
953.5837, 81.67496
954.0658, 81.38589
954.5479, 81.06747
955.0300, 80.65179
955.5121, 80.12894
955.9943, 79.36911
956.4764, 78.41321
956.9585, 77.54623
957.4406, 76.80206
957.9227, 76.14258
958.4048, 75.54166
958.8870, 74.92599
959.3691, 74.17404
959.8512, 73.30383
960.3333, 72.56180
960.8154, 71.98410
961.2975, 71.32516
961.7797, 70.55716
962.2618, 69.67786
962.7439, 68.56982
963.2260, 67.51947
963.7081, 67.28250
964.1902, 68.20813
964.6724, 68.04630
965.1545, 65.83212
965.6366, 64.09308
966.1187, 63.82458
966.6008, 63.89542
967.0829, 63.49237
967.5651, 62.68668
968.0472, 61.73703
968.5293, 60.64325
969.0114, 59.46570
969.4935, 57.88727
969.9756, 56.62943
970.4578, 56.25211
970.9399, 56.17188
971.4220, 55.71088
971.9041, 54.86768
972.3862, 54.07892
972.8683, 53.63190
973.3505, 53.00992
973.8326, 51.74039
974.3147, 50.34659
974.7968, 49.27103
975.2789, 48.44202
975.7610, 47.67517
976.2432, 46.93100
976.7253, 46.29294
977.2074, 45.95657
977.6895, 45.49921
978.1716, 44.20419
978.6537, 42.59302
979.1359, 41.62668
979.6180, 41.22385
980.1001, 40.74167
980.5822, 39.93140
981.0643, 38.92502
981.5464, 37.77386
982.0286, 36.62524
982.5107, 35.98538
982.9928, 35.70523
983.4749, 34.93127
983.9570, 33.58432
984.4391, 32.39688
984.9213, 31.76935
985.4034, 31.35794
985.8855, 30.66348
986.3676, 29.71927
986.8497, 28.82257
987.3318, 27.97366
987.8140, 27.16751
988.2961, 26.40875
988.7782, 25.65509
989.2603, 24.85284
989.7424, 24.08655
990.2245, 23.56778
990.7067, 23.36423
991.1888, 22.83371
991.6709, 21.80539
992.1530, 20.87720
992.6351, 20.26395
993.1172, 19.66525
993.5994, 18.73114
994.0815, 17.66537
994.5636, 17.14359
995.0457, 17.50363
995.5278, 17.44647
996.0099, 16.59372
996.4921, 15.82025
996.9742, 15.58911
997.4563, 15.31686
997.9384, 14.37158
998.4205, 12.95880
998.9026, 11.84537
999.3848, 11.20764
999.8669, 10.65155
1000.349, 10.22113
1000.831, 9.718384
1001.313, 8.966492
1001.795, 8.152679
1002.277, 7.532288
1002.760, 7.062836
1003.242, 6.468323
1003.724, 5.637299
1004.206, 4.729980
1004.688, 3.712769
1005.170, 2.757996
1005.652, 1.928406
1006.134, 1.288055
1006.617, 1.045654
1007.099, 1.120453
1007.581, 0.9893800
1008.063, 0.3269040
1008.545, 0.4397580
1009.027, 0.9717410
1009.509, 1.416748
1009.991, 1.936310
1010.473, 2.509796
1010.956, 3.051056
1011.438, 3.555420
1011.920, 4.189240
1012.402, 5.168701
1012.884, 6.067200
1013.366, 6.185120
1013.848, 5.927856
1014.330, 6.049805
1014.813, 6.523224
1015.295, 7.092346
1015.777, 7.647949
1016.259, 8.082764
1016.741, 8.287354
1017.223, 8.348999
1017.705, 8.379974
1018.187, 8.408508
1018.669, 8.601501
1019.152, 8.938202
1019.634, 9.169342
1020.116, 9.203674
1020.598, 9.311707
1021.080, 9.851440
1021.562, 10.56223
1022.044, 10.58505
1022.526, 10.01956
1023.008, 10.01453
1023.491, 10.67661
1023.973, 11.22623
1024.455, 11.33710
1024.937, 11.23727
1025.419, 11.15271
1025.901, 11.11890
1026.383, 11.29160
1026.865, 11.68167
1027.348, 12.24969
1027.830, 13.09827
1028.312, 13.33801
1028.794, 12.42340
1029.276, 11.19366
1029.758, 10.74316
1030.240, 10.93930
1030.722, 10.85284
1031.204, 10.43100
1031.687, 9.988190
1032.169, 9.489105
1032.651, 9.171051
1033.133, 9.238647
1033.615, 9.393097
1034.097, 9.265930
1034.579, 8.867767
1035.061, 8.468292
1035.544, 8.226318
1036.026, 7.541565
1036.508, 5.949341
1036.990, 4.716003
1037.472, 4.700104
1037.954, 5.080475
1038.436, 4.778442
1038.918, 3.826752
1039.401, 2.901825
1039.883, 1.932678
1040.365, 1.169312
1040.847, 0.7998660
1041.329, 0.4079590
1041.811, 0.1683960
1042.293, 0.9096680
1042.775, 1.946075
1043.257, 3.254211
1043.740, 4.016937
1044.222, 3.897888
1044.704, 3.751495
1045.186, 3.195007
1045.668, 3.138000
1046.150, 4.455872
1046.632, 6.184998
1047.114, 7.060242
1047.596, 7.121948
1048.079, 7.448303
1048.561, 8.543762
1049.043, 9.284851
1049.525, 9.029724
1050.007, 8.941040
1050.489, 9.678101
1050.971, 10.84638
1051.453, 12.13544
1051.936, 13.44690
1052.418, 14.24799
1052.900, 14.06671
1053.382, 14.11676
1053.864, 14.67566
1054.346, 15.47009
1054.828, 16.71710
1055.310, 17.91833
1055.792, 18.28076
1056.275, 17.92621
1056.757, 17.91608
1057.239, 18.79932
1057.721, 19.43665
1058.203, 19.25183
1058.685, 19.05280
1059.167, 19.32275
1059.649, 19.76044
1060.131, 19.92426
1060.614, 19.90332
1061.096, 20.32886
1061.578, 21.61041
1062.060, 22.57446
1062.542, 22.49402
1063.024, 22.31598
1063.506, 22.62738
1063.988, 23.11609
1064.471, 23.32385
1064.953, 23.36047
1065.435, 23.72711
1065.917, 24.66321
1066.399, 25.53223
1066.881, 26.08374
1067.363, 26.54688
1067.845, 26.87488
1068.328, 27.30701
1068.810, 28.12244
1069.292, 29.25262
1069.774, 30.42517
1070.256, 31.51135
1070.738, 32.79602
1071.220, 34.51849
1071.702, 36.41937
1072.184, 38.45166
1072.667, 40.40039
1073.149, 41.67145
1073.631, 42.70093
1074.113, 44.66138
1074.595, 47.92480
1075.077, 51.25964
1075.559, 53.98608
1076.041, 56.70819
1076.523, 59.58496
1077.006, 62.72449
1077.488, 66.32465
1077.970, 70.29205
1078.452, 74.36951
1078.934, 78.46997
1079.416, 82.86658
1079.898, 87.69208
1080.380, 93.02808
1080.862, 98.67291
1081.345, 105.0035
1081.827, 112.6898
1082.309, 121.2498
1082.791, 129.8596
1083.273, 138.3055
1083.755, 145.7338
1084.237, 150.9811
1084.719, 156.3292
1085.202, 162.4103
1085.684, 169.4028
1086.166, 177.8574
1086.648, 187.2156
1087.130, 196.3610
1087.612, 205.2389
1088.094, 215.2216
1088.576, 227.3343
1089.058, 239.5249
1089.541, 250.6016
1090.023, 261.8442
1090.505, 274.3014
1090.987, 287.3615
1091.469, 300.1570
1091.951, 312.7795
1092.433, 326.1345
1092.915, 340.5538
1093.397, 355.3489
1093.880, 370.0236
1094.362, 385.2067
1094.844, 401.2944
1095.326, 417.7903
1095.808, 434.0395
1096.290, 450.1702
1096.772, 467.0321
1097.254, 484.7838
1097.737, 502.9131
1098.219, 521.8858
1098.701, 540.1989
1099.183, 556.1830
1099.665, 572.1789
1100.147, 590.4357
1100.629, 610.3391
1101.111, 630.5405
1101.594, 650.9921
1102.076, 670.8981
1102.558, 689.6664
1103.040, 708.5575
1103.522, 728.2134
1104.004, 748.0554
1104.486, 767.5408
1104.968, 786.9411
1105.450, 806.5646
1105.932, 826.4073
1106.415, 846.3938
1106.897, 866.0805
1107.379, 886.4246
1107.861, 908.6996
1108.343, 930.3618
1108.825, 950.1548
1109.307, 968.6689
1109.789, 986.2793
1110.272, 1003.159
1110.754, 1020.976
1111.236, 1041.016
1111.718, 1059.691
1112.200, 1076.218
1112.682, 1092.010
1113.164, 1107.257
1113.646, 1122.446
1114.129, 1138.474
1114.611, 1154.864
1115.093, 1169.659
1115.575, 1182.319
1116.057, 1195.226
1116.539, 1208.872
1117.021, 1222.054
1117.503, 1234.994
1117.985, 1246.851
1118.468, 1256.910
1118.950, 1265.513
1119.432, 1273.028
1119.914, 1279.268
1120.396, 1286.742
1120.878, 1297.143
1121.360, 1304.949
1121.842, 1307.973
1122.324, 1311.213
1122.807, 1317.825
1123.289, 1324.906
1123.771, 1328.757
1124.253, 1329.677
1124.735, 1330.224
1125.217, 1330.467
1125.699, 1330.177
1126.181, 1329.446
1126.664, 1327.857
1127.146, 1325.184
1127.628, 1321.813
1128.110, 1318.005
1128.592, 1313.913
1129.074, 1310.316
1129.556, 1307.549
1130.038, 1301.469
1130.521, 1291.504
1131.003, 1282.338
1131.485, 1275.148
1131.967, 1267.862
1132.449, 1259.059
1132.931, 1249.750
1133.413, 1241.678
1133.895, 1234.553
1134.377, 1226.396
1134.859, 1217.147
1135.342, 1206.956
1135.824, 1195.829
1136.306, 1183.098
1136.788, 1168.445
1137.270, 1153.731
1137.752, 1141.134
1138.234, 1129.678
1138.716, 1116.873
1139.199, 1103.082
1139.681, 1089.990
1140.163, 1077.512
1140.645, 1064.483
1141.127, 1050.632
1141.609, 1036.094
1142.091, 1020.904
1142.573, 1005.620
1143.056, 991.4141
1143.538, 977.5734
1144.020, 962.4656
1144.502, 946.5996
1144.984, 931.3712
1145.466, 916.7655
1145.948, 901.8667
1146.430, 886.2223
1146.912, 870.7615
1147.395, 856.3796
1147.877, 842.4803
1148.359, 828.6815
1148.841, 814.6328
1149.323, 799.3868
1149.805, 783.4484
1150.287, 768.0498
1150.769, 753.4155
1151.251, 738.7586
1151.734, 723.4615
1152.216, 708.7227
1152.698, 696.3242
1153.180, 683.8898
1153.662, 668.9312
1154.144, 653.2693
1154.626, 639.7756
1155.108, 627.8992
1155.591, 614.7866
1156.073, 599.4723
1156.555, 584.5564
1157.037, 570.8586
1157.519, 557.9009
1158.001, 545.9257
1158.483, 534.1080
1158.965, 521.5385
1159.448, 508.7411
1159.930, 496.8376
1160.412, 485.8947
1160.894, 474.3019
1161.376, 461.4407
1161.858, 448.7383
1162.340, 436.0710
1162.822, 423.9664
1163.304, 412.6119
1163.786, 402.0757
1164.269, 392.8488
1164.751, 384.3674
1165.233, 374.3834
1165.715, 362.3018
1166.197, 351.5130
1166.679, 342.2407
1167.161, 333.7317
1167.643, 326.1830
1168.126, 318.2489
1168.608, 308.7220
1169.090, 298.9551
1169.572, 291.3337
1170.054, 285.6661
1170.536, 279.2087
1171.018, 271.7906
1171.500, 264.2333
1171.983, 256.4459
1172.465, 249.4171
1172.947, 243.5450
1173.429, 238.2924
1173.911, 233.1218
1174.393, 227.7942
1174.875, 221.7106
1175.357, 215.1656
1175.839, 209.3047
1176.322, 204.1072
1176.804, 199.1472
1177.286, 194.2413
1177.768, 189.4186
1178.250, 184.6421
1178.732, 180.0221
1179.214, 175.8262
1179.696, 171.8759
1180.178, 168.2128
1180.661, 164.2155
1181.143, 158.3087
1181.625, 151.4588
1182.107, 146.2200
1182.589, 142.9096
1183.071, 139.6702
1183.553, 135.4806
1184.035, 131.8345
1184.518, 130.5857
1185.000, 129.1885
1185.482, 125.5259
1185.964, 121.0015
1186.446, 116.8370
1186.928, 113.2968
1187.410, 110.8420
1187.892, 109.5851
1188.375, 107.1136
1188.857, 101.3895
1189.339, 96.61719
1189.821, 94.17157
1190.303, 92.26501
1190.785, 90.19800
1191.267, 88.06049
1191.749, 86.03308
1192.231, 84.00500
1192.714, 81.45105
1193.196, 78.11298
1193.678, 75.29059
1194.160, 73.07428
1194.642, 71.08331
1195.124, 69.29401
1195.606, 67.63873
1196.088, 66.18750
1196.570, 64.60992
1197.053, 62.36151
1197.535, 59.62170
1198.017, 57.25830
1198.499, 55.26575
1198.981, 53.56171
1199.463, 52.09857
1199.945, 50.08124
1200.427, 47.29211
1200.910, 45.11993
1201.392, 44.55341
1201.874, 44.46448
1202.356, 43.41431
1202.838, 41.55933
1203.320, 38.78119
1203.802, 35.66669
1204.284, 33.56940
1204.766, 32.41089
1205.249, 31.52283
1205.731, 30.67554
1206.213, 30.01343
1206.695, 29.85034
1207.177, 29.31964
1207.659, 27.43860
1208.141, 25.24701
1208.623, 23.72015
1209.105, 22.41498
1209.588, 20.60925
1210.070, 18.47620
1210.552, 16.56512
1211.034, 14.95197
1211.516, 14.05084
1211.998, 14.94537
1212.480, 15.06641
1212.962, 13.32782
1213.445, 11.20453
1213.927, 9.157288
1214.409, 7.377136
1214.891, 6.175781
1215.373, 5.405518
1215.855, 4.411072
1216.337, 3.102356
1216.819, 2.044739
1217.302, 1.339661
1217.784, 0.4976200
1218.266, 0.5805050
1218.748, 1.851685
1219.230, 3.363220
1219.712, 4.836121
1220.194, 5.895325
1220.676, 6.693848
1221.158, 7.787903
1221.641, 9.108704
1222.123, 10.25806
1222.605, 11.23901
1223.087, 12.30115
1223.569, 13.46985
1224.051, 14.44446
1224.533, 15.05200
1225.015, 15.56464
1225.497, 16.78326
1225.980, 17.54388
1226.462, 15.09741
1226.944, 12.42902
1227.426, 14.25946
1227.908, 18.73633
1228.390, 21.63300
1228.872, 22.30872
1229.354, 20.59888
1229.837, 18.44672
1230.319, 16.99329
1230.801, 17.59912
1231.283, 17.71649
1231.765, 16.00024
1232.247, 13.63330
1232.729, 10.95862
1233.211, 8.568726
1233.693, 7.673889
1234.176, 8.196411
1234.658, 7.943176
1235.140, 6.883057
1235.622, 5.010986
1236.104, 1.932556
1236.586, 0.4910280
1237.068, 1.607849
1237.550, 2.404419
1238.032, 3.541382
1238.515, 5.032227
1238.997, 7.052002
1239.479, 9.359680
1239.961, 10.86041
1240.443, 11.74939
1240.925, 12.84021
1241.407, 14.23322
1241.889, 15.89716
1242.372, 17.83569
1242.854, 20.21729
1243.336, 23.24725
1243.818, 26.12909
1244.300, 27.89722
1244.782, 29.39960
1245.264, 31.30225
1245.746, 33.55927
1246.229, 36.25122
1246.711, 39.16199
1247.193, 41.94147
1247.675, 44.52295
1248.157, 46.93152
1248.639, 49.06396
1249.121, 51.24780
1249.603, 53.73633
1250.085, 56.00134
1250.568, 57.50037
1251.050, 59.20129
1251.532, 61.80945
1252.014, 64.95404
1252.496, 68.04376
1252.978, 70.92181
1253.460, 73.19720
1253.942, 74.80304
1254.424, 76.48828
1254.907, 78.30106
1255.389, 79.80508
1255.871, 80.99908
1256.353, 81.51862
1256.835, 82.31543
1257.317, 81.98676
1257.799, 79.46436
1258.281, 76.90997
1258.764, 75.13617
1259.246, 73.26642
1259.728, 71.85004
1260.210, 70.67767
1260.692, 68.30176
1261.174, 65.40424
1261.656, 63.78003
1262.138, 63.22778
1262.620, 62.12592
1263.103, 59.61102
1263.585, 57.22595
1264.067, 55.41357
1264.549, 54.08661
1265.031, 53.49854
1265.513, 53.38776
1265.995, 53.12030
1266.477, 52.79425
1266.959, 52.25739
1267.442, 51.36945
1267.924, 50.06976
1268.406, 48.25311
1268.888, 46.24896
1269.370, 44.23145
1269.852, 42.85632
1270.334, 42.34882
1270.816, 41.56702
1271.299, 39.29065
1271.781, 36.41937
1272.263, 35.00653
1272.745, 34.39886
1273.227, 32.98407
1273.709, 31.05511
1274.191, 29.63397
1274.673, 28.73358
1275.156, 27.40466
1275.638, 25.42780
1276.120, 23.61328
1276.602, 22.40576
1277.084, 21.31677
1277.566, 19.86005
1278.048, 18.58746
1278.530, 18.45111
1279.012, 18.41412
1279.495, 16.96667
1279.977, 14.76794
1280.459, 12.92346
1280.941, 11.43549
1281.423, 9.907654
1281.905, 8.582397
1282.387, 7.084839
1282.869, 5.661255
1283.351, 4.089722
1283.834, 2.179932
1284.316, 0.7462770
1284.798, 0.3447270
1285.280, 0.2717900
1285.762, 1.9835999E-02
1286.244, 0.0000000E+00
##END=



