##NAMES=Brezinaite
##RRUFFID=R070042
##IDEAL CHEMISTRY=Cr^2+^Cr^3+^_2_S^2-^_4_
##LOCALITY=Tucson meteorite, Pima County, Arizona, USA
##OWNER=RRUFF
##SOURCE=Michael Scott
##DESCRIPTION=Bright gray polished fragment embedded in epoxy
##STATUS=The identification of this mineral is not yet confirmed.
##URL=rruff.info/R070042
148.7359, 0.0000000E+00
149.2180, 4.287689
149.7001, 6.446198
150.1822, 1.462677
150.6643, 0.4008180
151.1464, 2.820374
151.6286, 7.804382
152.1107, 12.97104
152.5928, 15.22714
153.0749, 21.00974
153.5570, 33.39072
154.0391, 51.57904
154.5213, 65.85587
155.0034, 78.80145
155.4855, 85.27502
155.9676, 81.29446
156.4497, 50.53476
156.9318, 24.59976
157.4140, 12.16776
157.8961, 15.99210
158.3782, 19.26584
158.8603, 15.48965
159.3424, 9.146851
159.8245, 5.616730
160.3067, 8.164246
160.7888, 12.80316
161.2709, 17.89636
161.7530, 23.41763
162.2351, 28.79364
162.7172, 37.28592
163.1993, 45.52405
163.6815, 46.72589
164.1636, 29.02515
164.6457, 8.124603
165.1278, 3.786621
165.6099, 0.8550110
166.0920, 5.354797
166.5742, 8.488708
167.0563, 9.342194
167.5384, 10.90582
168.0205, 14.32874
168.5026, 19.57507
168.9847, 26.58826
169.4669, 36.55106
169.9490, 47.20633
170.4311, 60.00458
170.9132, 74.16403
171.3953, 81.06564
171.8774, 68.18039
172.3596, 44.67847
172.8417, 25.06470
173.3238, 15.95621
173.8059, 13.21732
174.2880, 13.08548
174.7701, 15.53091
175.2523, 19.92944
175.7344, 28.03275
176.2165, 37.94577
176.6986, 45.06070
177.1807, 43.72937
177.6628, 39.07056
178.1450, 40.07391
178.6271, 48.52264
179.1092, 57.74329
179.5913, 60.53391
180.0734, 57.56369
180.5555, 51.95874
181.0376, 41.84344
181.5198, 30.55234
182.0019, 26.07104
182.4840, 30.88403
182.9661, 40.30978
183.4482, 50.55661
183.9303, 61.51312
184.4125, 68.54572
184.8946, 62.75510
185.3767, 48.49527
185.8588, 45.37701
186.3409, 61.69806
186.8230, 86.99783
187.3052, 97.91614
187.7873, 94.07736
188.2694, 85.40170
188.7515, 79.06943
189.2336, 75.21204
189.7157, 75.72330
190.1979, 85.83490
190.6800, 100.7545
191.1621, 100.7203
191.6442, 83.56610
192.1263, 61.97256
192.6084, 50.59265
193.0906, 49.33804
193.5727, 49.54749
194.0548, 49.14893
194.5369, 43.69922
195.0190, 41.86029
195.5011, 46.04593
195.9832, 53.45663
196.4654, 60.95859
196.9475, 66.36346
197.4296, 69.47119
197.9117, 68.50354
198.3938, 63.46622
198.8759, 61.62573
199.3581, 63.62366
199.8402, 68.00336
200.3223, 72.93457
200.8044, 78.88687
201.2865, 83.02261
201.7686, 84.07504
202.2508, 81.95703
202.7329, 76.25439
203.2150, 64.71826
203.6971, 51.58920
204.1792, 48.17328
204.6613, 56.85764
205.1435, 67.34006
205.6256, 74.41113
206.1077, 78.07059
206.5898, 77.96188
207.0719, 72.83640
207.5540, 63.98761
208.0362, 55.59146
208.5183, 46.91754
209.0004, 40.48389
209.4825, 38.60760
209.9646, 42.63019
210.4467, 46.09827
210.9289, 48.24835
211.4110, 49.11523
211.8931, 49.72089
212.3752, 50.61578
212.8573, 50.44901
213.3394, 48.18481
213.8215, 43.79224
214.3037, 36.98288
214.7858, 26.11829
215.2679, 11.60242
215.7500, 3.245056
216.2321, 2.647919
216.7142, 6.138580
217.1964, 10.83023
217.6785, 18.18417
218.1606, 22.98865
218.6427, 23.48242
219.1248, 19.37189
219.6069, 15.90787
220.0891, 12.04803
220.5712, 9.920502
221.0533, 13.25601
221.5354, 26.56677
222.0175, 35.67188
222.4996, 34.64154
222.9818, 20.72400
223.4639, 15.65396
223.9460, 24.85593
224.4281, 38.31857
224.9102, 40.42368
225.3923, 23.68115
225.8745, 9.290527
226.3566, 5.609619
226.8387, 16.88934
227.3208, 21.39059
227.8029, 15.99799
228.2850, 5.617676
228.7672, 0.7655640
229.2493, 2.186005
229.7314, 1.253113
230.2135, 1.611877
230.6956, 7.820374
231.1777, 11.91922
231.6599, 13.61795
232.1420, 13.32596
232.6241, 11.47672
233.1062, 5.886444
233.5883, 2.053619
234.0704, 2.548096
234.5526, 9.627502
235.0347, 16.11551
235.5168, 22.87372
235.9989, 28.85281
236.4810, 31.35785
236.9631, 30.82336
237.4453, 26.13956
237.9274, 15.22195
238.4095, 9.033875
238.8916, 23.27646
239.3737, 23.76752
239.8558, 13.94772
240.3380, 6.054321
240.8201, 2.8809000E-02
241.3022, 4.000702
241.7843, 5.809998
242.2664, 4.588898
242.7485, 2.590759
243.2307, 1.549896
243.7128, 6.534332
244.1949, 6.061646
244.6770, 3.424347
245.1591, 13.70941
245.6412, 19.84708
246.1233, 20.14020
246.6055, 19.71561
247.0876, 18.31311
247.5697, 16.33371
248.0518, 16.50406
248.5339, 20.46683
249.0160, 24.39145
249.4982, 25.23877
249.9803, 20.10364
250.4624, 18.46030
250.9445, 23.15442
251.4266, 32.75723
251.9087, 37.40961
252.3909, 35.30273
252.8730, 30.64175
253.3551, 26.07376
253.8372, 20.62881
254.3193, 17.52499
254.8014, 17.84570
255.2836, 21.16431
255.7657, 23.69019
256.2478, 24.67838
256.7299, 25.90619
257.2120, 29.43222
257.6941, 37.69656
258.1762, 42.11459
258.6584, 40.49042
259.1405, 33.41177
259.6226, 27.06210
260.1047, 20.39496
260.5868, 15.92935
261.0689, 16.62073
261.5511, 25.10147
262.0332, 31.06720
262.5153, 31.58914
262.9974, 27.45895
263.4795, 28.13910
263.9616, 37.11212
264.4438, 45.11142
264.9259, 42.07578
265.4080, 22.81500
265.8901, 10.25140
266.3722, 11.46362
266.8543, 24.54623
267.3365, 27.38556
267.8186, 15.06931
268.3007, 2.097748
268.7828, 4.274475
269.2649, 27.03683
269.7470, 42.89853
270.2292, 44.69965
270.7113, 34.14413
271.1934, 26.64557
271.6755, 22.00391
272.1576, 20.71167
272.6397, 25.25635
273.1219, 37.58984
273.6040, 44.45026
274.0861, 41.78922
274.5682, 31.04532
275.0503, 21.76425
275.5324, 12.85870
276.0146, 8.287537
276.4967, 14.92545
276.9788, 34.82266
277.4609, 47.92477
277.9430, 47.53140
278.4251, 36.56528
278.9073, 31.99411
279.3894, 35.39926
279.8715, 39.39392
280.3536, 34.83917
280.8357, 21.27011
281.3178, 14.08963
281.8000, 20.01849
282.2821, 34.42010
282.7642, 36.97141
283.2463, 25.93332
283.7284, 12.58167
284.2105, 7.529602
284.6927, 10.57227
285.1748, 14.97586
285.6569, 20.27347
286.1390, 25.28287
286.6211, 24.76111
287.1032, 18.12836
287.5853, 12.24301
288.0674, 14.80374
288.5496, 24.56580
289.0317, 32.14304
289.5138, 35.06393
289.9959, 34.42361
290.4780, 32.07037
290.9601, 27.89261
291.4423, 23.58533
291.9244, 19.44043
292.4065, 16.17010
292.8886, 16.89584
293.3707, 24.07529
293.8528, 34.11331
294.3350, 41.35651
294.8171, 45.80127
295.2992, 46.55905
295.7813, 40.21945
296.2634, 28.64117
296.7455, 19.11884
297.2277, 14.34329
297.7098, 13.68204
298.1919, 16.56461
298.6740, 22.50766
299.1561, 27.66135
299.6382, 28.28943
300.1204, 26.21167
300.6025, 25.34518
301.0846, 27.71072
301.5667, 29.37088
302.0488, 24.20645
302.5309, 14.06268
303.0131, 6.071991
303.4952, 6.440460
303.9773, 11.89758
304.4594, 17.98486
304.9415, 24.02164
305.4236, 28.33240
305.9058, 26.93576
306.3879, 21.71054
306.8700, 19.56445
307.3521, 30.83344
307.8342, 44.65726
308.3163, 48.06857
308.7985, 33.90414
309.2806, 19.16251
309.7627, 17.56808
310.2448, 25.30780
310.7269, 32.14410
311.2090, 31.77060
311.6912, 28.82007
312.1733, 26.80246
312.6554, 26.38620
313.1375, 26.86575
313.6196, 29.30707
314.1017, 32.56631
314.5839, 33.83398
315.0660, 29.43549
315.5481, 23.84174
316.0302, 19.32751
316.5123, 16.09222
316.9944, 14.16205
317.4766, 13.62756
317.9587, 14.39139
318.4408, 16.27063
318.9229, 19.65756
319.4050, 23.82474
319.8871, 29.10648
320.3692, 36.47754
320.8513, 41.36719
321.3335, 40.53671
321.8156, 37.17505
322.2977, 35.64978
322.7798, 39.86993
323.2619, 43.16507
323.7440, 42.89996
324.2262, 37.96780
324.7083, 34.36392
325.1904, 33.33792
325.6725, 33.60922
326.1546, 33.70895
326.6367, 33.48694
327.1189, 33.40231
327.6010, 33.64871
328.0831, 34.76572
328.5652, 35.01926
329.0473, 34.41599
329.5294, 33.08435
330.0116, 30.95117
330.4937, 28.49481
330.9758, 24.31570
331.4579, 15.46335
331.9400, 2.136688
332.4221, 0.4778440
332.9043, 17.89691
333.3864, 38.75314
333.8685, 50.59689
334.3506, 50.67578
334.8327, 47.85623
335.3148, 42.05530
335.7970, 34.23770
336.2791, 28.94986
336.7612, 27.04742
337.2433, 26.59427
337.7254, 26.04730
338.2076, 25.04980
338.6897, 26.05283
339.1718, 30.29611
339.6539, 36.17389
340.1360, 38.74173
340.6181, 37.52014
341.1003, 35.60626
341.5824, 35.86673
342.0645, 38.43872
342.5466, 36.00543
343.0287, 26.15903
343.5108, 13.85596
343.9930, 9.171234
344.4751, 12.16055
344.9572, 16.63382
345.4393, 18.35739
345.9214, 18.44193
346.4035, 23.78833
346.8857, 36.72415
347.3678, 49.03854
347.8499, 47.28741
348.3320, 34.16336
348.8141, 23.27405
349.2962, 22.84662
349.7784, 28.80423
350.2605, 33.39398
350.7426, 36.39328
351.2247, 37.75510
351.7068, 36.56345
352.1889, 33.65961
352.6710, 30.98590
353.1531, 28.92923
353.6353, 27.71317
354.1174, 28.42130
354.5995, 30.98074
355.0816, 32.38354
355.5637, 28.04303
356.0458, 21.86710
356.5280, 19.11572
357.0101, 24.03317
357.4922, 30.73053
357.9743, 36.37137
358.4564, 40.83142
358.9385, 43.33191
359.4207, 45.87827
359.9028, 44.99518
360.3849, 37.28894
360.8670, 13.15594
361.3491, 6.193542
361.8312, 11.04862
362.3134, 4.569794
362.7955, 3.035400
363.2776, 12.11093
363.7597, 19.01904
364.2418, 21.39795
364.7239, 15.47986
365.2061, 11.54523
365.6882, 12.71307
366.1703, 16.83984
366.6524, 19.64282
367.1345, 18.41663
367.6166, 17.89502
368.0988, 20.06445
368.5809, 26.68555
369.0630, 30.88455
369.5451, 33.79944
370.0272, 33.79407
370.5093, 27.93167
370.9915, 9.290558
371.4736, 4.384308
371.9557, 7.450317
372.4378, 0.8413390
372.9199, 6.049713
373.4020, 7.257690
373.8842, 6.653778
374.3663, 6.189850
374.8484, 6.230042
375.3305, 6.498993
375.8126, 6.284180
376.2947, 6.197021
376.7769, 8.684082
377.2590, 14.84540
377.7411, 19.57275
378.2232, 17.73105
378.7053, 9.219238
379.1874, 3.125244
379.6696, 0.4354250
380.1517, 1.015167
380.6338, 6.772766
381.1159, 17.54352
381.5980, 25.76926
382.0801, 23.43948
382.5623, 14.43155
383.0444, 13.15668
383.5265, 22.82928
384.0086, 32.69522
384.4907, 25.62537
384.9728, 6.529327
385.4549, 7.526672
385.9370, 4.672058
386.4192, 6.442474
386.9013, 15.52859
387.3834, 22.17288
387.8655, 25.92636
388.3476, 22.56152
388.8297, 15.34229
389.3119, 10.48508
389.7940, 12.48416
390.2761, 15.63837
390.7582, 16.66000
391.2403, 15.61935
391.7224, 13.25345
392.2046, 6.074829
392.6867, 0.9866640
393.1688, 3.174988
393.6509, 5.518677
394.1330, 12.62390
394.6151, 11.78601
395.0973, 5.981720
395.5794, 4.550812
396.0615, 18.19452
396.5436, 29.81787
397.0257, 30.52023
397.5078, 11.13663
397.9900, 1.275146
398.4721, 1.606262
398.9542, 5.156586
399.4363, 11.72668
399.9184, 20.36948
400.4005, 25.81506
400.8827, 25.73395
401.3648, 19.17941
401.8469, 15.37708
402.3290, 16.39841
402.8111, 17.90085
403.2932, 14.44061
403.7754, 2.968445
404.2575, 3.357513
404.7396, 1.571716
405.2217, 6.803101
405.7038, 15.08929
406.1859, 23.90903
406.6681, 30.52170
407.1502, 31.52426
407.6323, 27.27618
408.1144, 22.06073
408.5965, 15.32169
409.0786, 9.655365
409.5608, 11.38565
410.0429, 19.92368
410.5250, 28.07321
411.0071, 31.51941
411.4892, 31.61850
411.9713, 31.73141
412.4535, 32.09085
412.9356, 32.03018
413.4177, 31.24960
413.8998, 29.53741
414.3819, 26.45377
414.8640, 20.55020
415.3462, 14.00656
415.8283, 7.878937
416.3104, 2.315308
416.7925, 0.7523190
417.2746, 0.2903140
417.7567, 4.150116
418.2388, 9.969757
418.7209, 21.67667
419.2031, 29.50635
419.6852, 26.44189
420.1673, 16.39835
420.6494, 8.595306
421.1315, 5.395111
421.6136, 5.111389
422.0958, 7.648682
422.5779, 15.31989
423.0600, 20.04401
423.5421, 19.34909
424.0242, 15.60297
424.5063, 12.18188
424.9885, 6.246490
425.4706, 4.218750
425.9527, 9.587158
426.4348, 23.21826
426.9169, 29.42090
427.3990, 24.55511
427.8812, 16.80795
428.3633, 12.47086
428.8454, 11.82629
429.3275, 14.32428
429.8096, 22.32272
430.2917, 32.78217
430.7739, 31.54520
431.2560, 16.89038
431.7381, 2.220978
432.2202, 5.554840
432.7023, 6.216522
433.1844, 0.2759090
433.6666, 15.95380
434.1487, 32.21606
434.6308, 36.05789
435.1129, 29.45239
435.5950, 22.35010
436.0771, 17.47824
436.5593, 15.34457
437.0414, 19.25363
437.5235, 28.98569
438.0056, 36.05316
438.4877, 28.51312
438.9698, 14.92502
439.4520, 7.098328
439.9341, 11.60245
440.4162, 17.99713
440.8983, 19.48822
441.3804, 17.39685
441.8625, 15.84604
442.3447, 18.05734
442.8268, 20.29736
443.3089, 19.96664
443.7910, 17.09418
444.2731, 13.23395
444.7552, 3.233673
445.2374, 6.324249
445.7195, 6.561707
446.2016, 19.47675
446.6837, 37.81635
447.1658, 38.93713
447.6479, 22.67108
448.1301, 10.30893
448.6122, 1.758392
449.0943, 2.789703
449.5764, 2.617432
450.0585, 3.896301
450.5406, 10.68353
451.0227, 18.29630
451.5049, 25.34894
451.9870, 26.36783
452.4691, 20.24158
452.9512, 14.09735
453.4333, 10.54395
453.9154, 9.683350
454.3976, 15.05685
454.8797, 28.22018
455.3618, 40.38425
455.8439, 37.07196
456.3260, 22.47162
456.8081, 13.67221
457.2903, 20.00418
457.7724, 31.72665
458.2545, 34.67389
458.7366, 29.75174
459.2187, 23.62967
459.7008, 21.40680
460.1830, 20.08789
460.6651, 15.50677
461.1472, 4.741364
461.6293, 3.497620
462.1114, 1.209137
462.5935, 6.912781
463.0757, 11.85641
463.5578, 3.287170
464.0399, 2.902130
464.5220, 2.570313
465.0041, 21.70535
465.4862, 34.24371
465.9684, 31.48096
466.4505, 24.25861
466.9326, 21.15936
467.4147, 25.77731
467.8968, 29.54831
468.3789, 31.95547
468.8611, 33.11478
469.3432, 33.27139
469.8253, 31.98663
470.3074, 30.54941
470.7895, 28.89734
471.2716, 26.64993
471.7538, 28.99374
472.2359, 37.95215
472.7180, 46.75790
473.2001, 45.42935
473.6822, 34.33615
474.1643, 23.88599
474.6465, 16.94901
475.1286, 12.74969
475.6107, 9.016602
476.0928, 5.782745
476.5749, 4.404449
477.0570, 7.129730
477.5392, 12.02734
478.0213, 16.09778
478.5034, 18.92499
478.9855, 20.67062
479.4676, 20.32678
479.9497, 19.12949
480.4319, 19.34412
480.9140, 23.68182
481.3961, 28.20224
481.8782, 30.79547
482.3603, 31.39355
482.8424, 31.62668
483.3246, 32.59955
483.8066, 33.00113
484.2888, 31.91000
484.7709, 26.63416
485.2530, 23.13556
485.7351, 23.62552
486.2172, 25.79193
486.6993, 23.92719
487.1815, 15.55273
487.6636, 7.049011
488.1457, 0.9165040
488.6278, 9.004517
489.1099, 6.160828
489.5920, 11.29782
490.0742, 30.94363
490.5563, 41.64679
491.0384, 43.84616
491.5205, 38.96622
492.0026, 23.96112
492.4847, 6.189362
492.9669, 4.188507
493.4490, 16.11258
493.9311, 25.26523
494.4132, 16.52432
494.8953, 0.1417240
495.3774, 5.948364
495.8596, 1.113647
496.3417, 11.68115
496.8238, 20.23920
497.3059, 27.09576
497.7880, 32.51813
498.2701, 37.67236
498.7523, 40.47473
499.2344, 38.27969
499.7165, 32.39157
500.1986, 28.47681
500.6807, 32.91696
501.1628, 35.96921
501.6450, 31.44034
502.1271, 11.53720
502.6092, 1.566162
503.0913, 9.017426
503.5734, 22.45712
504.0555, 27.83923
504.5377, 18.98593
505.0198, 13.34592
505.5019, 15.44931
505.9840, 23.63016
506.4661, 28.20248
506.9482, 28.54904
507.4304, 26.74414
507.9125, 23.64743
508.3946, 19.12796
508.8767, 14.42136
509.3588, 9.349731
509.8409, 5.080688
510.3231, 3.176239
510.8052, 3.375580
511.2873, 4.748077
511.7694, 7.385559
512.2515, 10.68170
512.7336, 14.79126
513.2158, 19.36630
513.6979, 22.16879
514.1800, 20.36823
514.6621, 17.12045
515.1442, 14.72595
515.6263, 13.19305
516.1085, 13.59109
516.5906, 18.25223
517.0727, 24.52756
517.5548, 28.66110
518.0369, 27.74728
518.5190, 27.16000
519.0012, 29.21878
519.4833, 33.20981
519.9654, 32.32672
520.4475, 22.89224
520.9296, 13.75171
521.4117, 11.11951
521.8939, 17.01132
522.3760, 18.25894
522.8581, 12.59348
523.3402, 4.908661
523.8223, 2.167389
524.3044, 4.324738
524.7866, 9.941132
525.2687, 21.34598
525.7508, 34.92896
526.2329, 40.41415
526.7150, 37.04172
527.1971, 31.90146
527.6793, 32.74747
528.1614, 34.99533
528.6435, 31.64944
529.1256, 19.94986
529.6077, 9.080475
530.0898, 4.772278
530.5720, 5.077240
531.0541, 7.284058
531.5362, 12.25177
532.0183, 16.89200
532.5004, 20.30957
532.9825, 22.49432
533.4646, 23.98029
533.9467, 25.22864
534.4288, 25.38300
534.9109, 23.90601
535.3931, 20.05829
535.8752, 16.32864
536.3573, 11.76984
536.8394, 8.450989
537.3215, 10.46518
537.8036, 18.92438
538.2858, 24.64056
538.7679, 24.53979
539.2500, 20.62085
539.7321, 17.26071
540.2142, 4.593872
540.6964, 17.50897
541.1785, 25.01810
541.6606, 27.41183
542.1427, 9.370300
542.6248, 17.85226
543.1069, 15.87558
543.5891, 13.21234
544.0712, 25.27127
544.5533, 10.20029
545.0354, 22.02515
545.5175, 23.11322
545.9996, 29.00964
546.4818, 23.75818
546.9639, 21.97162
547.4460, 31.26208
547.9281, 34.66083
548.4102, 28.79993
548.8923, 35.11655
549.3745, 19.67584
549.8566, 23.32703
550.3387, 34.63690
550.8208, 30.16452
551.3029, 5.924835
551.7850, 4.390350
552.2672, 8.372925
552.7493, 32.28250
553.2314, 38.87625
553.7135, 29.26923
554.1956, 19.81204
554.6777, 20.42169
555.1599, 26.55908
555.6420, 28.69147
556.1241, 26.83032
556.6062, 24.36722
557.0883, 24.38882
557.5704, 25.12839
558.0526, 24.00021
558.5347, 19.28186
559.0168, 16.78519
559.4989, 19.99707
559.9810, 26.02634
560.4631, 30.41241
560.9453, 27.40195
561.4274, 14.78430
561.9095, 25.69141
562.3916, 31.19250
562.8737, 31.57812
563.3558, 11.52835
563.8380, 17.86536
564.3201, 13.62753
564.8022, 8.956970
565.2843, 15.22067
565.7664, 22.09619
566.2485, 31.07486
566.7307, 28.21219
567.2128, 15.05344
567.6949, 10.42526
568.1770, 25.06192
568.6591, 45.44882
569.1412, 46.23697
569.6234, 30.96683
570.1055, 16.81726
570.5876, 14.90640
571.0697, 18.22717
571.5518, 20.49060
572.0339, 21.00681
572.5161, 21.84174
572.9982, 25.03799
573.4803, 28.38760
573.9624, 30.02798
574.4445, 30.37509
574.9266, 27.95419
575.4088, 19.88959
575.8909, 9.516785
576.3730, 3.495911
576.8551, 2.253784
577.3372, 5.004150
577.8193, 13.79669
578.3015, 27.44516
578.7836, 30.81979
579.2657, 21.90158
579.7478, 13.76892
580.2299, 20.41367
580.7120, 37.40723
581.1942, 45.24832
581.6763, 41.37335
582.1584, 30.66757
582.6405, 11.50092
583.1226, 10.00308
583.6047, 21.73148
584.0869, 11.84814
584.5690, 2.076263
585.0511, 8.990906
585.5332, 10.74103
586.0153, 14.14795
586.4974, 28.77609
586.9796, 39.14713
587.4617, 35.44379
587.9438, 11.60934
588.4259, 4.2328000E-02
588.9080, 9.174500
589.3901, 22.12338
589.8723, 24.47562
590.3544, 12.20862
590.8365, 5.959717
591.3186, 9.023682
591.8007, 16.75027
592.2828, 20.47998
592.7650, 20.46274
593.2471, 21.56107
593.7292, 27.42178
594.2113, 34.44507
594.6934, 36.61462
595.1755, 34.16089
595.6577, 28.68811
596.1398, 15.72308
596.6219, 3.487244
597.1040, 2.119781
597.5861, 14.61685
598.0682, 23.55850
598.5503, 21.77426
599.0324, 15.18341
599.5145, 9.329803
599.9966, 0.2637630
600.4788, 1.617554
600.9609, 9.066559
601.4430, 26.07785
601.9251, 33.19870
602.4072, 26.87689
602.8893, 21.06805
603.3715, 21.14615
603.8536, 25.91809
604.3357, 28.09772
604.8178, 27.63370
605.2999, 25.54059
605.7820, 20.33960
606.2642, 14.38449
606.7463, 14.13754
607.2284, 21.18765
607.7105, 28.52786
608.1926, 29.70685
608.6747, 27.75165
609.1569, 26.87073
609.6390, 31.96808
610.1211, 34.49304
610.6032, 27.46939
611.0853, 14.85675
611.5674, 7.864777
612.0496, 14.90649
612.5317, 19.99130
613.0138, 17.35614
613.4959, 7.126801
613.9780, 3.930511
614.4601, 11.15289
614.9423, 17.30997
615.4244, 11.44778
615.9065, 5.583527
616.3886, 14.74026
616.8707, 14.22025
617.3528, 7.771118
617.8350, 2.805145
618.3171, 15.89404
618.7992, 27.73355
619.2813, 38.28345
619.7634, 45.55173
620.2455, 47.89401
620.7277, 45.56473
621.2098, 39.30734
621.6919, 21.26483
622.1740, 6.900085
622.6561, 4.087463
623.1382, 13.72064
623.6204, 22.54477
624.1025, 32.53922
624.5846, 38.93631
625.0667, 38.30695
625.5488, 28.45959
626.0309, 20.37415
626.5131, 13.65387
626.9952, 9.744476
627.4773, 11.98190
627.9594, 19.55344
628.4415, 25.29617
628.9236, 26.61880
629.4058, 27.11298
629.8879, 34.55560
630.3700, 45.34628
630.8521, 49.59885
631.3342, 34.74817
631.8163, 18.14270
632.2985, 10.80231
632.7806, 12.54794
633.2627, 17.22278
633.7448, 31.28885
634.2269, 41.16565
634.7090, 37.09344
635.1912, 11.02008
635.6733, 1.796326
636.1554, 18.69058
636.6375, 40.02469
637.1196, 41.05389
637.6017, 19.53214
638.0839, 8.643524
638.5660, 15.12976
639.0481, 29.51617
639.5302, 39.41412
640.0123, 44.52872
640.4944, 44.25739
640.9766, 32.20248
641.4587, 18.42072
641.9408, 14.34402
642.4229, 18.71127
642.9050, 24.18512
643.3871, 31.04294
643.8693, 35.43396
644.3514, 33.93854
644.8335, 24.79889
645.3156, 19.66809
645.7977, 22.17642
646.2798, 25.69717
646.7620, 26.25909
647.2441, 23.25616
647.7262, 18.20630
648.2083, 9.733459
648.6904, 2.314026
649.1725, 4.510315
649.6547, 14.79843
650.1368, 20.44519
650.6189, 15.00372
651.1010, 7.771149
651.5831, 15.04877
652.0652, 31.27109
652.5474, 40.44861
653.0295, 29.50928
653.5116, 13.63065
653.9937, 1.726898
654.4758, 15.61346
654.9579, 20.09796
655.4401, 3.808197
655.9222, 14.05252
656.4043, 25.16321
656.8864, 28.86914
657.3685, 27.63306
657.8506, 17.98505
658.3328, 9.190277
658.8149, 13.90942
659.2970, 31.49539
659.7791, 38.35455
660.2612, 28.93329
660.7433, 15.84119
661.2255, 17.77933
661.7076, 29.45721
662.1897, 37.43076
662.6718, 32.10892
663.1539, 26.05161
663.6360, 29.62982
664.1182, 39.61899
664.6002, 46.65643
665.0823, 44.37189
665.5645, 41.95847
666.0466, 44.43442
666.5287, 51.73169
667.0108, 52.26416
667.4929, 42.39990
667.9750, 32.06244
668.4572, 26.67297
668.9393, 26.25150
669.4214, 30.63620
669.9035, 41.14993
670.3856, 49.25909
670.8677, 41.86572
671.3499, 25.52023
671.8320, 15.92609
672.3141, 17.32169
672.7962, 23.17728
673.2783, 32.09930
673.7604, 40.63934
674.2426, 44.03964
674.7247, 38.90829
675.2068, 32.11826
675.6889, 23.32541
676.1710, 13.65616
676.6531, 8.119904
677.1353, 8.003693
677.6174, 9.813110
678.0995, 13.05386
678.5816, 17.46777
679.0637, 20.59735
679.5458, 22.37735
680.0280, 24.10669
680.5101, 27.29739
680.9922, 30.97400
681.4743, 33.48300
681.9564, 34.72974
682.4385, 33.40500
682.9207, 24.74570
683.4028, 14.98318
683.8849, 10.92865
684.3670, 16.66580
684.8491, 21.65268
685.3312, 21.92111
685.8134, 20.64563
686.2955, 21.68396
686.7776, 26.23532
687.2597, 30.85153
687.7418, 36.30255
688.2239, 40.49750
688.7061, 37.02216
689.1882, 25.74274
689.6703, 17.85275
690.1524, 18.15695
690.6345, 23.70898
691.1166, 32.38025
691.5988, 42.60025
692.0809, 47.55423
692.5630, 36.95056
693.0451, 24.42178
693.5272, 21.38422
694.0093, 28.44638
694.4915, 31.61163
694.9736, 21.50244
695.4557, 11.84442
695.9378, 10.71851
696.4199, 21.86658
696.9020, 26.22632
697.3842, 22.04745
697.8663, 14.58307
698.3484, 5.370056
698.8305, 4.415314
699.3126, 1.423767
699.7947, 29.00870
700.2769, 57.19473
700.7590, 58.71115
701.2411, 43.33530
701.7232, 29.45383
702.2053, 23.10800
702.6874, 20.25504
703.1696, 21.15042
703.6517, 23.95923
704.1338, 24.72540
704.6159, 17.74271
705.0980, 14.67410
705.5801, 19.47009
706.0623, 30.01016
706.5444, 36.72421
707.0265, 38.89694
707.5086, 40.40424
707.9907, 43.73297
708.4728, 47.79636
708.9550, 49.15732
709.4371, 47.74960
709.9192, 42.76758
710.4013, 27.06433
710.8834, 11.19049
711.3655, 8.422363
711.8477, 21.47302
712.3298, 32.26889
712.8119, 32.04361
713.2940, 30.14746
713.7761, 32.67957
714.2582, 45.70331
714.7404, 49.28149
715.2225, 38.48688
715.7046, 24.35464
716.1867, 20.20407
716.6688, 26.35541
717.1509, 32.11313
717.6331, 36.35315
718.1152, 38.42935
718.5973, 35.26392
719.0794, 28.75244
719.5615, 23.93796
720.0436, 24.20502
720.5258, 24.79602
721.0079, 21.10397
721.4900, 15.48080
721.9721, 13.85333
722.4542, 23.84857
722.9363, 30.90851
723.4185, 30.88599
723.9006, 24.85883
724.3827, 18.76364
724.8648, 11.95752
725.3469, 7.031006
725.8290, 4.077484
726.3112, 3.944611
726.7933, 12.62759
727.2754, 29.68811
727.7575, 44.88040
728.2396, 50.41772
728.7217, 50.31790
729.2039, 48.89926
729.6860, 46.71964
730.1681, 41.40680
730.6501, 24.98080
731.1323, 10.46301
731.6144, 8.687225
732.0965, 28.03012
732.5786, 36.28299
733.0607, 29.41428
733.5428, 18.69156
734.0250, 16.40735
734.5071, 22.35599
734.9892, 26.64954
735.4713, 27.78159
735.9534, 27.37079
736.4355, 27.98108
736.9177, 28.45987
737.3998, 25.89221
737.8819, 13.51126
738.3640, 6.530792
738.8461, 21.34064
739.3282, 45.63480
739.8104, 56.34528
740.2925, 31.92505
740.7746, 16.25198
741.2567, 19.90158
741.7388, 35.18506
742.2209, 37.81055
742.7031, 25.76828
743.1852, 16.36789
743.6673, 18.19815
744.1494, 26.13440
744.6315, 28.72647
745.1136, 26.66278
745.5958, 23.12592
746.0779, 15.79211
746.5600, 10.99759
747.0421, 16.45023
747.5242, 31.56445
748.0063, 41.01627
748.4885, 35.80630
748.9706, 29.04620
749.4527, 26.36136
749.9348, 28.15359
750.4169, 28.39615
750.8990, 26.49445
751.3812, 24.98859
751.8633, 27.02274
752.3454, 31.25769
752.8275, 31.39606
753.3096, 26.76163
753.7917, 22.80655
754.2739, 26.37387
754.7560, 32.08923
755.2381, 33.76193
755.7202, 29.27380
756.2023, 23.73260
756.6844, 12.81204
757.1666, 5.058167
757.6487, 9.567505
758.1308, 36.43167
758.6129, 47.75793
759.0950, 36.42545
759.5771, 18.15048
760.0593, 17.55283
760.5414, 31.48996
761.0235, 39.17767
761.5056, 33.33023
761.9877, 25.66135
762.4698, 31.90381
762.9520, 44.55423
763.4341, 52.12119
763.9162, 49.87640
764.3983, 43.49887
764.8804, 30.38251
765.3625, 14.90939
765.8447, 6.875977
766.3268, 9.754242
766.8089, 12.32361
767.2910, 11.36884
767.7731, 9.230347
768.2552, 11.92120
768.7374, 18.57397
769.2195, 27.44080
769.7016, 43.52612
770.1837, 57.97632
770.6658, 57.57248
771.1479, 45.57968
771.6301, 34.18375
772.1122, 28.82269
772.5943, 24.87048
773.0764, 21.16180
773.5585, 17.48672
774.0406, 12.03094
774.5228, 3.277008
775.0049, 4.206177
775.4870, 8.445190
775.9691, 9.226746
776.4512, 8.522858
776.9333, 6.957733
777.4155, 2.185577
777.8976, 11.23856
778.3797, 26.36380
778.8618, 34.70129
779.3439, 35.85208
779.8260, 32.68759
780.3082, 19.71597
780.7903, 8.183807
781.2724, 6.158417
781.7545, 15.57422
782.2366, 22.67987
782.7188, 27.08194
783.2009, 29.96341
783.6830, 33.44269
784.1651, 36.87369
784.6472, 31.74289
785.1293, 16.98242
785.6115, 4.073822
786.0936, 7.742523
786.5757, 17.29892
787.0578, 18.71686
787.5399, 7.788269
788.0220, 2.534943
788.5042, 9.744476
788.9863, 12.98474
789.4684, 11.27792
789.9505, 1.180511
790.4326, 4.771484
790.9147, 4.757111
791.3969, 4.100342
791.8790, 10.77759
792.3611, 22.93228
792.8432, 28.91553
793.3253, 26.22574
793.8074, 20.66037
794.2896, 16.17538
794.7717, 12.90784
795.2538, 11.10672
795.7359, 10.54739
796.2180, 11.91763
796.7001, 19.66016
797.1822, 27.16049
797.6643, 25.29700
798.1464, 8.863647
798.6285, 2.475006
799.1107, 11.93961
799.5928, 25.70255
800.0749, 23.14005
800.5570, 9.116425
801.0391, 2.430389
801.5212, 11.81967
802.0034, 22.53000
802.4855, 22.08682
802.9676, 15.17148
803.4497, 8.900574
803.9318, 4.066589
804.4139, 1.610626
804.8961, 2.147858
805.3782, 4.709137
805.8603, 7.523468
806.3424, 10.44702
806.8245, 14.77194
807.3066, 21.10397
807.7888, 28.38171
808.2709, 38.09433
808.7530, 47.50592
809.2351, 48.44827
809.7172, 28.85727
810.1993, 10.46127
810.6815, 6.748474
811.1636, 12.98987
811.6457, 19.38434
812.1278, 27.26221
812.6099, 31.07376
813.0920, 28.85928
813.5742, 22.76733
814.0563, 17.20782
814.5384, 12.21912
815.0205, 9.134399
815.5026, 8.185028
815.9847, 9.691864
816.4669, 15.42960
816.9490, 24.04126
817.4311, 32.04562
817.9132, 44.93195
818.3953, 49.89853
818.8774, 33.93109
819.3596, 5.617767
819.8417, 8.771606
820.3238, 4.140930
820.8059, 3.436310
821.2880, 11.74893
821.7701, 19.04364
822.2523, 18.40961
822.7344, 11.19244
823.2165, 6.868835
823.6986, 14.18845
824.1807, 21.87943
824.6628, 15.48709
825.1450, 0.5650630
825.6271, 8.049408
826.1092, 5.054016
826.5913, 4.599396
827.0734, 26.97729
827.5555, 53.79419
828.0377, 55.75070
828.5198, 27.30978
829.0019, 4.961273
829.4840, 2.910217
829.9661, 12.73398
830.4482, 21.27164
830.9304, 27.85864
831.4125, 30.46890
831.8946, 26.12991
832.3767, 19.36911
832.8588, 8.187775
833.3409, 4.335327
833.8231, 6.090088
834.3052, 13.11255
834.7873, 26.80420
835.2694, 27.67203
835.7515, 19.75363
836.2336, 13.68970
836.7158, 9.732391
837.1979, 11.55106
837.6800, 26.09183
838.1621, 41.40036
838.6442, 41.91998
839.1263, 31.51202
839.6085, 22.66760
840.0906, 21.51535
840.5727, 21.95706
841.0548, 21.82269
841.5369, 21.92856
842.0190, 26.06381
842.5012, 36.90143
842.9833, 40.22043
843.4654, 28.20587
843.9475, 10.50076
844.4296, 8.682068
844.9117, 19.35110
845.3939, 30.91791
845.8760, 40.82468
846.3581, 46.56747
846.8402, 46.32272
847.3223, 41.41635
847.8044, 34.48206
848.2866, 19.79187
848.7687, 12.24780
849.2508, 18.05481
849.7329, 29.43262
850.2150, 27.91309
850.6971, 15.04306
851.1793, 7.916199
851.6614, 15.00598
852.1435, 25.86481
852.6256, 27.72141
853.1077, 24.41409
853.5898, 23.76141
854.0720, 36.53815
854.5541, 42.60046
855.0362, 30.28754
855.5183, 10.88248
856.0004, 4.076538
856.4825, 12.96552
856.9647, 19.01425
857.4468, 17.56961
857.9289, 13.67685
858.4110, 16.52890
858.8931, 23.43292
859.3752, 27.24475
859.8574, 23.34134
860.3395, 19.62347
860.8216, 19.43829
861.3037, 22.27307
861.7858, 27.75601
862.2679, 39.33643
862.7500, 46.71860
863.2321, 49.22525
863.7142, 47.00958
864.1964, 35.37338
864.6785, 17.26831
865.1606, 13.75418
865.6427, 34.03229
866.1248, 53.83990
866.6069, 45.29739
867.0891, 24.95383
867.5712, 13.94434
868.0533, 22.69595
868.5354, 31.77698
869.0175, 40.72873
869.4996, 47.76978
869.9818, 50.97992
870.4639, 49.96942
870.9460, 45.45807
871.4281, 36.47302
871.9102, 29.22162
872.3923, 33.90985
872.8745, 43.43600
873.3566, 47.23804
873.8387, 42.78574
874.3208, 34.52771
874.8029, 16.66080
875.2850, 1.248169
875.7672, 1.770905
876.2493, 12.06757
876.7314, 21.00293
877.2135, 24.45630
877.6956, 24.29346
878.1777, 22.57452
878.6599, 20.33484
879.1420, 19.56659
879.6241, 20.42569
880.1062, 21.68307
880.5883, 22.31094
881.0704, 23.24542
881.5526, 26.62289
882.0347, 33.84442
882.5168, 31.81271
882.9989, 14.12704
883.4810, 5.7434000E-02
883.9631, 6.339752
884.4453, 28.38440
884.9274, 32.73206
885.4095, 20.80920
885.8916, 10.70700
886.3737, 16.61264
886.8558, 27.51376
887.3380, 35.81595
887.8201, 41.17395
888.3022, 45.01385
888.7843, 49.06708
889.2664, 49.24377
889.7485, 41.99365
890.2307, 30.03644
890.7128, 29.22614
891.1949, 38.49042
891.6770, 42.37085
892.1591, 25.44308
892.6412, 5.403107
893.1234, 5.976563
893.6055, 20.34000
894.0876, 28.92801
894.5697, 21.48196
895.0518, 12.19376
895.5339, 1.112274
896.0161, 8.129059
896.4982, 4.093140
896.9803, 14.28357
897.4624, 30.30151
897.9445, 39.40201
898.4266, 44.33841
898.9088, 49.84445
899.3909, 53.89474
899.8730, 52.46613
900.3551, 35.19186
900.8372, 24.32916
901.3193, 33.64059
901.8015, 48.10092
902.2836, 48.81207
902.7657, 31.92899
903.2478, 22.07315
903.7299, 23.27371
904.2120, 27.93433
904.6942, 29.00662
905.1763, 26.17719
905.6584, 16.55707
906.1405, 3.511322
906.6226, 16.31409
907.1047, 10.71716
907.5869, 3.897888
908.0690, 21.38889
908.5511, 45.15176
909.0332, 56.65558
909.5153, 55.78091
909.9974, 49.34073
910.4796, 36.19199
910.9617, 22.00848
911.4438, 20.35690
911.9259, 31.65363
912.4080, 43.62616
912.8901, 55.12521
913.3723, 60.04340
913.8544, 50.63956
914.3365, 27.20963
914.8186, 12.68155
915.3007, 8.438995
915.7828, 9.096466
916.2650, 12.91492
916.7471, 19.39359
917.2292, 30.04767
917.7113, 43.06058
918.1934, 49.93079
918.6755, 39.57407
919.1577, 28.19781
919.6398, 24.11591
920.1219, 26.43777
920.6040, 31.87430
921.0861, 44.50815
921.5682, 49.18826
922.0504, 40.44995
922.5325, 25.31180
923.0146, 15.35648
923.4967, 10.69769
923.9788, 11.91705
924.4609, 22.68839
924.9431, 32.25046
925.4252, 34.74631
925.9073, 31.91965
926.3894, 24.50903
926.8715, 5.422119
927.3536, 0.9228820
927.8357, 16.39816
928.3178, 36.71295
928.7999, 46.05814
929.2820, 46.33652
929.7642, 43.20084
930.2463, 36.92175
930.7284, 32.49472
931.2105, 35.79016
931.6926, 40.69595
932.1747, 41.70056
932.6569, 37.64026
933.1390, 36.99521
933.6211, 42.44061
934.1032, 47.28040
934.5853, 46.08041
935.0674, 40.73755
935.5496, 40.58319
936.0317, 45.10989
936.5138, 44.76025
936.9959, 26.00671
937.4780, 10.29214
937.9601, 13.97058
938.4423, 33.46448
938.9244, 47.64835
939.4065, 57.68152
939.8886, 57.42316
940.3707, 41.43439
940.8528, 19.24652
941.3350, 12.65698
941.8171, 18.46164
942.2992, 24.30234
942.7813, 26.97391
943.2634, 26.90799
943.7455, 21.71741
944.2277, 15.02292
944.7098, 12.13803
945.1919, 15.64447
945.6740, 17.18851
946.1561, 16.03271
946.6382, 13.78760
947.1204, 10.61789
947.6025, 7.906281
948.0846, 11.01303
948.5667, 20.93903
949.0488, 29.21655
949.5309, 30.69223
950.0131, 28.56870
950.4952, 23.68057
950.9773, 15.73029
951.4594, 12.91946
951.9415, 16.73746
952.4236, 20.66376
952.9058, 18.17880
953.3879, 14.35785
953.8700, 25.49911
954.3521, 48.33398
954.8342, 65.68765
955.3163, 66.02890
955.7985, 61.29175
956.2806, 56.86285
956.7627, 51.22363
957.2448, 38.42307
957.7269, 14.56320
958.2090, 1.411926
958.6912, 5.520538
959.1733, 17.77863
959.6554, 26.23322
960.1375, 32.03836
960.6196, 37.89243
961.1017, 46.28510
961.5839, 50.20422
962.0660, 42.64627
962.5481, 32.66025
963.0302, 28.54663
963.5123, 32.18799
963.9944, 30.24869
964.4766, 21.34229
964.9587, 12.75311
965.4408, 13.61517
965.9229, 15.78043
966.4050, 3.366058
966.8871, 22.51572
967.3693, 34.81409
967.8514, 9.000763
968.3335, 16.66406
968.8156, 28.61874
969.2977, 29.17029
969.7798, 25.91101
970.2620, 18.81067
970.7441, 15.61810
971.2262, 21.99231
971.7083, 29.98141
972.1904, 28.18460
972.6725, 21.87610
973.1547, 20.54608
973.6368, 36.91245
974.1189, 43.41904
974.6010, 32.39807
975.0831, 17.41647
975.5652, 15.84827
976.0474, 26.31689
976.5295, 34.86227
977.0116, 40.24203
977.4937, 40.33365
977.9758, 24.77744
978.4579, 8.982849
978.9401, 9.666290
979.4222, 31.87747
979.9043, 42.02542
980.3864, 35.00903
980.8685, 24.72388
981.3506, 17.32861
981.8328, 11.90714
982.3149, 2.794098
982.7970, 8.126862
983.2791, 11.19016
983.7612, 6.023132
984.2433, 24.43802
984.7255, 35.36044
985.2076, 39.80945
985.6897, 40.83957
986.1718, 35.78952
986.6539, 36.50955
987.1360, 46.50809
987.6182, 57.63376
988.1003, 61.60016
988.5824, 58.21301
989.0645, 42.46732
989.5466, 9.026520
990.0287, 9.688690
990.5109, 17.91159
990.9930, 48.52173
991.4751, 55.33447
991.9572, 37.81540
992.4393, 17.87323
992.9214, 5.059113
993.4036, 18.56870
993.8856, 6.244629
994.3677, 14.02097
994.8499, 17.46262
995.3320, 9.457001
995.8141, 7.522308
996.2962, 27.93726
996.7783, 39.64761
997.2604, 34.13733
997.7426, 20.72363
998.2247, 17.35229
998.7068, 22.58923
999.1889, 26.20450
999.6710, 26.17801
1000.153, 23.58920
1000.635, 13.07205
1001.117, 4.253418
1001.599, 9.454376
1002.082, 38.22403
1002.564, 47.19122
1003.046, 28.52774
1003.528, 10.77835
1004.010, 17.96738
1004.492, 39.42819
1004.974, 40.73538
1005.456, 25.67172
1005.939, 14.10669
1006.421, 20.09247
1006.903, 27.40469
1007.385, 28.52832
1007.867, 26.17206
1008.349, 26.37390
1008.831, 29.81064
1009.313, 28.88199
1009.795, 19.65076
1010.278, 14.45560
1010.760, 36.74326
1011.242, 68.79303
1011.724, 84.53769
1012.206, 75.26694
1012.688, 64.19916
1013.170, 52.72546
1013.652, 44.23447
1014.135, 42.34595
1014.617, 45.75687
1015.099, 41.84427
1015.581, 30.99478
1016.063, 21.43018
1016.545, 16.57791
1017.027, 16.49210
1017.509, 23.23438
1017.991, 34.79523
1018.474, 45.71799
1018.956, 57.54578
1019.438, 63.57529
1019.920, 61.94305
1020.402, 56.29901
1020.884, 48.17459
1021.366, 40.81909
1021.848, 43.20352
1022.331, 59.16922
1022.813, 71.25076
1023.295, 72.27237
1023.777, 66.35834
1024.259, 53.41238
1024.741, 32.38129
1025.223, 26.83319
1025.705, 40.13232
1026.188, 49.98419
1026.670, 37.10516
1027.152, 19.62616
1027.634, 18.16449
1028.116, 26.57657
1028.598, 29.82172
1029.080, 16.69434
1029.562, 12.15234
1030.044, 21.12119
1030.526, 34.70016
1031.009, 40.82343
1031.491, 41.42853
1031.973, 43.62323
1032.455, 48.54514
1032.937, 50.88086
1033.419, 41.48819
1033.901, 33.77356
1034.383, 39.64743
1034.865, 57.40570
1035.348, 62.73428
1035.830, 54.56821
1036.312, 42.85471
1036.794, 27.88013
1037.276, 16.63733
1037.758, 20.49216
1038.240, 34.47720
1038.722, 49.24722
1039.205, 68.15820
1039.687, 77.96518
1040.169, 75.48959
1040.651, 67.10446
1041.133, 58.07700
1041.615, 50.10022
1042.097, 49.64426
1042.579, 56.85532
1043.062, 60.63818
1043.544, 47.65637
1044.026, 34.36267
1044.508, 30.93259
1044.990, 36.59454
1045.472, 47.39627
1045.954, 66.34726
1046.436, 74.11472
1046.918, 62.05920
1047.401, 42.72513
1047.883, 29.59738
1048.365, 22.77737
1048.847, 19.73334
1049.329, 19.31647
1049.811, 25.25333
1050.293, 44.16760
1050.775, 60.21609
1051.257, 60.61447
1051.740, 48.79608
1052.222, 36.52139
1052.704, 24.16718
1053.186, 18.15973
1053.668, 27.60196
1054.150, 39.33655
1054.632, 48.85416
1055.114, 54.00891
1055.597, 49.16037
1056.079, 31.28036
1056.561, 17.63245
1057.043, 10.82495
1057.525, 9.209259
1058.007, 12.24017
1058.489, 18.55765
1058.971, 27.43933
1059.453, 39.52109
1059.936, 47.79340
1060.418, 51.80215
1060.900, 50.43408
1061.382, 40.28830
1061.864, 25.51807
1062.346, 22.51126
1062.828, 29.12967
1063.310, 35.17310
1063.792, 35.32529
1064.275, 35.03973
1064.757, 39.06467
1065.239, 43.08899
1065.721, 40.70410
1066.203, 29.53033
1066.685, 25.27795
1067.167, 29.07968
1067.649, 34.91336
1068.132, 39.01956
1068.614, 41.23303
1069.096, 40.39856
1069.578, 36.98453
1070.060, 35.03729
1070.542, 39.69089
1071.024, 36.67438
1071.506, 19.19568
1071.989, 2.322754
1072.471, 7.750549
1072.953, 0.7207340
1073.435, 9.730011
1073.917, 23.15298
1074.399, 33.28314
1074.881, 33.74530
1075.363, 33.20383
1075.845, 39.86694
1076.328, 53.22195
1076.810, 46.79276
1077.292, 21.07480
1077.774, 1.296021
1078.256, 5.815826
1078.738, 17.54718
1079.220, 25.26309
1079.702, 27.72342
1080.184, 23.60376
1080.667, 9.483398
1081.149, 2.150177
1081.631, 12.28201
1082.113, 14.61530
1082.595, 4.502289
1083.077, 32.92300
1083.559, 49.52963
1084.041, 53.10574
1084.524, 50.78354
1085.006, 37.48929
1085.488, 27.90305
1085.970, 26.19849
1086.452, 30.75101
1086.934, 41.73920
1087.416, 56.59497
1087.898, 58.71051
1088.380, 38.96616
1088.863, 24.39297
1089.345, 44.69568
1089.827, 68.77661
1090.309, 66.88251
1090.791, 36.35736
1091.273, 20.07706
1091.755, 18.64688
1092.237, 26.88617
1092.719, 54.51788
1093.202, 78.24353
1093.684, 63.39944
1094.166, 27.38922
1094.648, 6.599701
1095.130, 16.87021
1095.612, 27.19287
1096.094, 37.02481
1096.576, 44.18158
1097.058, 45.40039
1097.541, 42.60999
1098.023, 38.42923
1098.505, 34.75012
1098.987, 35.82480
1099.469, 49.56799
1099.951, 57.56033
1100.433, 52.22089
1100.915, 40.17651
1101.398, 38.99329
1101.880, 46.35721
1102.362, 44.43033
1102.844, 26.36035
1103.326, 12.80923
1103.808, 26.59747
1104.290, 44.07660
1104.772, 43.92111
1105.255, 26.30399
1105.737, 17.67834
1106.219, 18.58203
1106.701, 21.78842
1107.183, 24.11743
1107.665, 26.46381
1108.147, 29.30447
1108.629, 32.89722
1109.111, 37.59586
1109.594, 42.29770
1110.076, 51.36832
1110.558, 66.99365
1111.040, 81.01300
1111.522, 89.65488
1112.004, 90.56088
1112.486, 73.53528
1112.968, 42.62854
1113.450, 18.59793
1113.933, 5.413971
1114.415, 8.052460
1114.897, 33.83069
1115.379, 65.18655
1115.861, 69.42255
1116.343, 52.99536
1116.825, 43.78323
1117.307, 46.12601
1117.790, 50.28952
1118.272, 51.11783
1118.754, 51.53656
1119.236, 54.12518
1119.718, 57.75436
1120.200, 56.61523
1120.682, 50.72498
1121.164, 41.13000
1121.646, 25.03729
1122.129, 13.50574
1122.611, 21.08914
1123.093, 35.64182
1123.575, 43.60297
1124.057, 43.48383
1124.539, 40.92447
1125.021, 35.90271
1125.503, 31.56711
1125.985, 29.55719
1126.468, 28.79718
1126.950, 29.18741
1127.432, 29.40363
1127.914, 26.18967
1128.396, 9.160004
1128.878, 7.248322
1129.360, 26.69092
1129.842, 48.76819
1130.325, 54.57266
1130.807, 49.72449
1131.289, 44.98349
1131.771, 40.67615
1132.253, 34.87646
1132.735, 22.94736
1133.217, 14.89423
1133.699, 14.99808
1134.182, 17.60657
1134.664, 11.08652
1135.146, 1.921936
1135.628, 11.37189
1136.110, 15.88098
1136.592, 14.77017
1137.074, 1.558960
1137.556, 11.18671
1138.038, 16.00085
1138.521, 14.87445
1139.003, 17.05627
1139.485, 21.85159
1139.967, 25.80066
1140.449, 28.65256
1140.931, 30.16705
1141.413, 26.88754
1141.895, 25.10733
1142.377, 33.52866
1142.860, 53.99417
1143.342, 58.71704
1143.824, 46.54956
1144.306, 37.06631
1144.788, 46.43759
1145.270, 58.24634
1145.752, 52.75748
1146.234, 38.78970
1146.717, 33.59879
1147.199, 44.19675
1147.681, 48.94388
1148.163, 47.28983
1148.645, 40.20343
1149.127, 22.61969
1149.609, 3.820953
1150.091, 2.969147
1150.573, 1.027191
1151.056, 9.484406
1151.538, 28.94705
1152.020, 37.13043
1152.502, 28.17599
1152.984, 14.33224
1153.466, 12.20801
1153.948, 16.52985
1154.430, 17.56146
1154.912, 14.25482
1155.395, 7.304352
1155.877, 16.21429
1156.359, 24.73190
1156.841, 4.608734
1157.323, 28.46576
1157.805, 43.14563
1158.287, 43.80350
1158.769, 41.12213
1159.251, 38.39917
1159.734, 14.04526
1160.216, 35.01978
1160.698, 46.42877
1161.180, 48.78632
1161.662, 14.98801
1162.144, 27.87341
1162.626, 22.05893
1163.108, 15.49231
1163.591, 34.97324
1164.073, 6.450562
1164.555, 25.48477
1165.037, 25.52167
1165.519, 34.25012
1166.001, 24.15186
1166.483, 19.86618
1166.965, 34.40982
1167.448, 38.52307
1167.930, 26.25018
1168.412, 35.52051
1168.894, 6.295227
1169.376, 10.84634
1169.858, 29.96893
1170.340, 18.63257
1170.822, 28.23676
1171.304, 29.86328
1171.786, 4.765564
1172.269, 23.64087
1172.751, 7.296112
1173.233, 5.504913
1173.715, 4.612549
1174.197, 10.64313
1174.679, 26.13831
1175.161, 34.43857
1175.643, 32.79819
1176.126, 30.74420
1176.608, 40.78564
1177.090, 52.00476
1177.572, 52.46484
1178.054, 43.01773
1178.536, 37.75690
1179.018, 37.98645
1179.500, 38.96469
1179.983, 40.48334
1180.465, 39.54990
1180.947, 30.85620
1181.429, 18.70874
1181.911, 6.731384
1182.393, 4.660828
1182.875, 7.632996
1183.357, 0.5621950
1183.839, 8.518616
1184.322, 12.13812
1184.804, 14.63620
1185.286, 18.59427
1185.768, 25.69241
1186.250, 40.69376
1186.732, 69.10474
1187.214, 83.51144
1187.696, 79.42432
1188.178, 71.48154
1188.661, 65.92862
1189.143, 61.76004
1189.625, 57.42169
1190.107, 52.97937
1190.589, 48.71265
1191.071, 45.42645
1191.553, 39.22165
1192.035, 25.25925
1192.518, 19.66235
1193.000, 44.00549
1193.482, 77.69980
1193.964, 65.30212
1194.446, 25.25171
1194.928, 6.329681
1195.410, 49.74814
1195.892, 75.83517
1196.375, 77.45374
1196.857, 65.47638
1197.339, 39.24344
1197.821, 10.16302
1198.303, 11.45731
1198.785, 36.04913
1199.267, 51.91110
1199.749, 36.00153
1200.231, 27.15735
1200.714, 33.08221
1201.196, 43.07416
1201.678, 43.64072
1202.160, 39.22324
1202.642, 42.66251
1203.124, 53.26364
1203.606, 59.60623
1204.088, 53.90512
1204.570, 47.40045
1205.053, 41.00824
1205.535, 36.78326
1206.017, 40.79565
1206.499, 48.44885
1206.981, 47.29880
1207.463, 36.14554
1207.945, 25.76743
1208.427, 15.70670
1208.910, 11.95303
1209.392, 17.29282
1209.874, 27.46460
1210.356, 35.82828
1210.838, 42.46671
1211.320, 47.40192
1211.802, 50.70660
1212.284, 52.44089
1212.766, 52.57419
1213.249, 51.45398
1213.731, 48.74249
1214.213, 42.81244
1214.695, 24.91614
1215.177, 1.553314
1215.659, 8.419098
1216.141, 1.528717
1216.623, 13.37857
1217.105, 24.57837
1217.588, 32.97577
1218.070, 38.06064
1218.552, 39.24661
1219.034, 32.53116
1219.516, 20.91772
1219.998, 12.06915
1220.480, 7.956055
1220.962, 7.132324
1221.445, 8.298889
1221.927, 14.35995
1222.409, 31.19879
1222.891, 51.67569
1223.373, 50.69604
1223.855, 36.50110
1224.337, 31.31311
1224.819, 50.71936
1225.301, 61.18198
1225.784, 54.12628
1226.266, 44.84607
1226.748, 44.37393
1227.230, 48.49319
1227.712, 42.11075
1228.194, 29.57303
1228.676, 22.70026
1229.158, 30.95901
1229.641, 36.83859
1230.123, 41.31418
1230.605, 41.26877
1231.087, 28.89905
1231.569, 12.48810
1232.051, 15.26953
1232.533, 31.62766
1233.015, 43.90149
1233.497, 41.80414
1233.979, 41.63803
1234.462, 46.37949
1234.944, 49.30014
1235.426, 41.75766
1235.908, 29.37241
1236.390, 22.78513
1236.872, 21.43329
1237.354, 21.93948
1237.836, 24.58011
1238.319, 27.31479
1238.801, 30.29407
1239.283, 32.61819
1239.765, 34.80713
1240.247, 34.39041
1240.729, 24.82773
1241.211, 10.26416
1241.693, 3.619171
1242.176, 12.19760
1242.658, 16.74619
1243.140, 14.01794
1243.622, 11.33029
1244.104, 20.13971
1244.586, 31.24936
1245.068, 29.15317
1245.550, 16.50439
1246.032, 14.20255
1246.515, 27.71820
1246.997, 39.36520
1247.479, 47.12378
1247.961, 50.53146
1248.443, 42.37820
1248.925, 34.77664
1249.407, 47.47736
1249.889, 75.68884
1250.371, 81.52423
1250.854, 58.86819
1251.336, 36.10400
1251.818, 16.90399
1252.300, 4.695526
1252.782, 7.460297
1253.264, 15.41934
1253.746, 17.84430
1254.228, 16.50446
1254.711, 27.63815
1255.193, 54.23700
1255.675, 63.05887
1256.157, 45.59787
1256.639, 23.22931
1257.121, 10.05630
1257.603, 4.784180
1258.085, 4.945221
1258.568, 9.800232
1259.050, 20.05807
1259.532, 35.64166
1260.014, 45.02054
1260.496, 45.26123
1260.978, 41.53415
1261.460, 33.85364
1261.942, 27.35995
1262.424, 25.35175
1262.906, 27.14755
1263.389, 34.38000
1263.871, 45.04767
1264.353, 39.29141
1264.835, 8.540710
1265.317, 11.35178
1265.799, 18.27805
1266.281, 45.10034
1266.763, 37.93927
1267.246, 11.16376
1267.728, 8.945862
1268.210, 24.35593
1268.692, 30.18155
1269.174, 18.67160
1269.656, 7.001953
1270.138, 0.3088380
1270.620, 2.372528
1271.103, 1.149292
1271.585, 3.472687
1272.067, 10.90195
1272.549, 20.59842
1273.031, 32.93298
1273.513, 50.20010
1273.995, 55.71942
1274.477, 38.61798
1274.959, 25.18951
1275.442, 26.97437
1275.924, 35.64722
1276.406, 33.86130
1276.888, 28.32266
1277.370, 33.39783
1277.852, 56.05307
1278.334, 59.53943
1278.816, 35.08243
1279.298, 16.65948
1279.781, 20.02945
1280.263, 30.49490
1280.745, 25.44772
1281.227, 16.39288
1281.709, 20.07507
1282.191, 46.88663
1282.673, 46.96231
1283.155, 15.64075
1283.638, 0.3114620
1284.120, 24.48999
1284.602, 50.04459
1285.084, 29.76419
1285.566, 0.9699400
1286.048, 1.005920
1286.530, 33.23648
1287.012, 36.31876
1287.495, 11.67831
1287.977, 1.808167
1288.459, 13.84464
1288.941, 31.67239
1289.423, 35.92786
1289.905, 32.05862
1290.387, 21.27374
1290.869, 6.240387
1291.351, 10.83585
1291.833, 29.14099
1292.316, 38.48941
1292.798, 27.66986
1293.280, 15.35754
1293.762, 15.47653
1294.244, 15.50110
1294.726, 9.054901
1295.208, 0.1178280
1295.690, 3.268555
1296.172, 13.27936
1296.655, 16.10260
1297.137, 4.974426
1297.619, 0.0000000E+00
##END=



