##NAMES=Brezinaite
##RRUFFID=R070042
##IDEAL CHEMISTRY=Cr^2+^Cr^3+^_2_S^2-^_4_
##LOCALITY=Tucson meteorite, Pima County, Arizona, USA
##OWNER=RRUFF
##SOURCE=Michael Scott
##DESCRIPTION=Bright gray polished fragment embedded in epoxy
##STATUS=The identification of this mineral is not yet confirmed.
##URL=rruff.info/R070042
166.1469, 0.0000000E+00
166.6290, 12.53882
167.1111, 12.70190
167.5933, 0.5405270
168.0754, 6.021240
168.5575, 26.29419
169.0396, 40.97852
169.5217, 46.00110
170.0038, 45.44250
170.4860, 35.60754
170.9681, 28.05750
171.4502, 28.61841
171.9323, 37.73254
172.4144, 51.04407
172.8965, 61.98108
173.3787, 69.05627
173.8608, 79.85547
174.3429, 98.15381
174.8250, 120.1442
175.3071, 146.5485
175.7892, 173.1801
176.2714, 184.6978
176.7535, 190.0216
177.2356, 194.1806
177.7177, 191.1759
178.1998, 177.8159
178.6819, 161.2136
179.1641, 145.5811
179.6462, 132.8356
180.1283, 119.3815
180.6104, 104.6898
181.0925, 89.66931
181.5746, 74.28986
182.0567, 57.61847
182.5389, 41.64923
183.0210, 26.95239
183.5031, 13.40198
183.9852, 2.205872
184.4673, 5.104065
184.9494, 9.758118
185.4316, 7.136292
185.9137, 6.294800
186.3958, 23.49719
186.8779, 41.45947
187.3600, 58.26862
187.8421, 72.95508
188.3243, 83.41504
188.8064, 88.15820
189.2885, 89.74261
189.7706, 89.00433
190.2527, 86.03607
190.7348, 80.83905
191.2170, 74.13495
191.6991, 65.74847
192.1812, 55.10223
192.6633, 36.86810
193.1454, 32.43964
193.6275, 52.02563
194.1097, 75.13403
194.5918, 89.71704
195.0739, 94.03180
195.5560, 95.21539
196.0381, 98.21399
196.5202, 103.6840
197.0024, 111.0500
197.4845, 119.4120
197.9666, 123.6332
198.4487, 120.0694
198.9308, 112.3949
199.4129, 101.3690
199.8951, 92.59656
200.3772, 87.38330
200.8593, 84.27240
201.3414, 83.30035
201.8235, 83.60565
202.3056, 85.77179
202.7878, 89.61273
203.2699, 94.30963
203.7520, 99.45642
204.2341, 105.4598
204.7162, 108.6130
205.1983, 109.2142
205.6805, 107.1771
206.1626, 100.1428
206.6447, 90.15387
207.1268, 82.91248
207.6089, 84.24542
208.0910, 94.47382
208.5732, 94.69739
209.0553, 78.48785
209.5374, 60.29639
210.0195, 41.08453
210.5016, 23.40442
210.9837, 12.36932
211.4659, 12.02661
211.9480, 21.26495
212.4301, 26.91656
212.9122, 24.75873
213.3943, 23.70074
213.8764, 27.98627
214.3586, 34.99695
214.8407, 39.75165
215.3228, 39.32788
215.8049, 34.85791
216.2870, 32.04034
216.7691, 34.16632
217.2513, 34.05847
217.7334, 27.96118
218.2155, 19.32068
218.6976, 13.40723
219.1797, 12.88489
219.6618, 16.12628
220.1440, 18.34814
220.6261, 20.13452
221.1082, 19.78748
221.5903, 14.62610
222.0724, 8.426086
222.5546, 6.531311
223.0367, 10.97858
223.5188, 17.65906
224.0009, 20.64111
224.4830, 7.028809
224.9651, 1.721008
225.4473, 1.461792
225.9294, 1.832336
226.4115, 1.665955
226.8936, 3.635651
227.3757, 10.16119
227.8578, 11.41962
228.3400, 3.543182
228.8221, 2.437653
229.3042, 8.350403
229.7863, 11.48364
230.2684, 7.727814
230.7505, 2.612366
231.2327, 13.51917
231.7148, 17.21567
232.1969, 10.97861
232.6790, 5.960297
233.1611, 2.658112
233.6432, 1.1292000E-02
234.1254, 2.525269
234.6075, 5.048553
235.0896, 7.581665
235.5717, 9.872192
236.0538, 11.46301
236.5359, 16.21860
237.0181, 28.70975
237.5002, 39.57611
237.9823, 44.12427
238.4644, 43.58636
238.9465, 41.85745
239.4286, 41.94223
239.9108, 43.82568
240.3929, 45.60452
240.8750, 48.41663
241.3571, 49.72446
241.8392, 47.77963
242.3213, 43.75040
242.8035, 39.92996
243.2856, 38.00659
243.7677, 38.31454
244.2498, 39.56686
244.7319, 45.32657
245.2140, 47.21048
245.6962, 39.46402
246.1783, 28.90134
246.6604, 24.28088
247.1425, 29.71417
247.6246, 40.81473
248.1067, 46.60123
248.5889, 43.62677
249.0710, 40.62524
249.5531, 36.74518
250.0352, 34.05106
250.5173, 34.73407
250.9994, 39.40170
251.4816, 46.10617
251.9637, 51.07175
252.4458, 52.05704
252.9279, 56.84058
253.4100, 70.01462
253.8921, 83.39685
254.3743, 92.87576
254.8564, 97.58450
255.3385, 98.10977
255.8206, 93.85028
256.3027, 83.31055
256.7849, 75.61652
257.2670, 73.85254
257.7491, 72.42242
258.2312, 68.19009
258.7133, 62.18106
259.1954, 58.10956
259.6776, 60.18115
260.1597, 67.83340
260.6418, 70.55008
261.1239, 63.40854
261.6060, 57.05948
262.0881, 55.95996
262.5703, 58.08621
263.0524, 59.85345
263.5345, 59.40457
264.0166, 56.99341
264.4987, 53.02893
264.9808, 45.82776
265.4630, 40.51331
265.9451, 39.66025
266.4272, 40.98752
266.9093, 41.79315
267.3914, 40.86948
267.8735, 39.92230
268.3557, 41.79706
268.8378, 47.00067
269.3199, 53.00592
269.8020, 61.72662
270.2841, 69.51373
270.7662, 72.86258
271.2484, 71.02133
271.7305, 68.04828
272.2126, 68.60709
272.6947, 72.54443
273.1768, 73.46848
273.6589, 67.05090
274.1411, 60.43698
274.6232, 60.03033
275.1053, 65.41956
275.5874, 70.46066
276.0695, 71.71854
276.5516, 69.71683
277.0338, 65.65332
277.5159, 58.20563
277.9980, 51.73160
278.4801, 50.49500
278.9622, 52.97424
279.4443, 55.17416
279.9265, 56.28055
280.4086, 56.03784
280.8907, 53.16568
281.3728, 47.15631
281.8549, 42.43240
282.3370, 42.24234
282.8192, 45.06604
283.3013, 47.92203
283.7834, 51.41187
284.2655, 53.90512
284.7476, 53.31482
285.2297, 49.94568
285.7119, 46.91586
286.1940, 46.34790
286.6761, 46.90207
287.1582, 45.77261
287.6403, 42.20630
288.1224, 38.70190
288.6046, 35.48645
289.0867, 32.49835
289.5688, 31.26813
290.0509, 33.08817
290.5330, 35.74411
291.0151, 35.77316
291.4973, 32.54736
291.9794, 29.70535
292.4615, 28.38876
292.9436, 27.21021
293.4257, 24.40955
293.9078, 19.88354
294.3900, 15.33905
294.8721, 12.12820
295.3542, 10.23752
295.8363, 10.91937
296.3184, 17.89319
296.8005, 23.69247
297.2827, 22.52631
297.7648, 16.67804
298.2469, 13.48672
298.7290, 18.11661
299.2111, 28.63834
299.6932, 33.38873
300.1754, 25.68625
300.6575, 20.34143
301.1396, 21.18591
301.6217, 25.23035
302.1038, 29.03848
302.5859, 31.25067
303.0680, 31.90866
303.5501, 30.72049
304.0323, 24.16013
304.5144, 22.06335
304.9965, 27.15448
305.4786, 34.30774
305.9607, 40.64847
306.4428, 45.42355
306.9250, 48.91159
307.4071, 51.77493
307.8892, 54.49069
308.3713, 53.56485
308.8534, 44.45401
309.3355, 35.95804
309.8177, 30.33667
310.2998, 27.44095
310.7819, 26.49847
311.2640, 27.22052
311.7461, 29.38751
312.2282, 32.45584
312.7104, 38.29251
313.1925, 41.37271
313.6746, 38.22562
314.1567, 32.95108
314.6388, 29.54623
315.1209, 29.25769
315.6031, 30.32291
316.0852, 29.57654
316.5673, 26.58902
317.0494, 25.29684
317.5315, 28.06131
318.0136, 31.83221
318.4958, 34.79871
318.9779, 36.75537
319.4600, 36.92307
319.9421, 33.04950
320.4242, 26.74017
320.9063, 24.35455
321.3885, 28.16977
321.8706, 32.36035
322.3527, 31.32089
322.8348, 26.68124
323.3169, 22.96533
323.7990, 21.89816
324.2812, 22.14981
324.7633, 22.81073
325.2454, 23.81412
325.7275, 23.64984
326.2096, 21.06378
326.6917, 16.87067
327.1739, 13.59225
327.6560, 11.51108
328.1381, 9.906891
328.6202, 7.100616
329.1023, 4.620361
329.5844, 6.868652
330.0666, 16.03549
330.5487, 26.79996
331.0308, 30.11044
331.5129, 22.70145
331.9950, 17.03931
332.4771, 15.26080
332.9593, 14.65582
333.4414, 12.12982
333.9235, 7.875549
334.4056, 5.543976
334.8877, 9.129913
335.3698, 19.11987
335.8520, 23.05826
336.3341, 15.44846
336.8162, 8.611115
337.2983, 6.608673
337.7804, 8.005615
338.2625, 10.43478
338.7447, 12.76993
339.2268, 14.48221
339.7089, 13.86487
340.1910, 8.107086
340.6731, 5.012360
341.1552, 7.137451
341.6374, 10.57132
342.1195, 12.10678
342.6016, 11.28903
343.0837, 10.28271
343.5658, 12.24545
344.0479, 17.74750
344.5301, 19.86719
345.0122, 15.04620
345.4943, 10.71344
345.9764, 10.23263
346.4585, 12.74130
346.9406, 15.95679
347.4228, 18.79553
347.9049, 21.50363
348.3870, 25.31595
348.8691, 31.19907
349.3512, 34.38681
349.8333, 30.65680
350.3155, 24.03683
350.7976, 18.61288
351.2797, 15.05676
351.7618, 13.03925
352.2439, 12.86295
352.7260, 13.98676
353.2082, 14.31702
353.6903, 12.99213
354.1724, 11.49319
354.6545, 11.93918
355.1366, 14.12442
355.6187, 16.25385
356.1009, 18.90091
356.5830, 20.77716
357.0651, 19.99231
357.5472, 16.68103
358.0293, 13.30161
358.5114, 11.45782
358.9936, 11.07892
359.4757, 11.35123
359.9578, 13.66916
360.4399, 14.90839
360.9220, 13.82172
361.4041, 11.19882
361.8863, 7.869995
362.3684, 4.199219
362.8505, 0.7983400
363.3326, 1.389099
363.8147, 2.531769
364.2968, 1.952942
364.7790, 3.128174
365.2611, 7.369324
365.7432, 6.181396
366.2253, 0.8210140
366.7074, 3.383575
367.1895, 1.950592
367.6717, 4.456970
368.1538, 9.601685
368.6359, 13.71692
369.1180, 16.01276
369.6001, 16.97217
370.0822, 15.96381
370.5644, 10.97968
371.0465, 0.8680420
371.5286, 8.852753
372.0107, 9.368805
372.4928, 0.1351620
372.9749, 6.727875
373.4571, 5.890656
373.9392, 3.584503
374.4213, 4.995789
374.9034, 9.632019
375.3855, 13.38141
375.8676, 13.19485
376.3498, 11.13574
376.8319, 10.91980
377.3140, 12.85123
377.7961, 15.21964
378.2782, 17.31836
378.7603, 18.98911
379.2425, 19.85062
379.7246, 19.21713
380.2067, 18.45178
380.6888, 17.72803
381.1709, 17.15649
381.6530, 17.50830
382.1352, 18.99606
382.6173, 21.11456
383.0994, 23.52045
383.5815, 27.20990
384.0636, 27.21017
384.5457, 18.94241
385.0279, 10.90335
385.5100, 9.360321
385.9921, 13.08438
386.4742, 16.84048
386.9563, 16.75385
387.4384, 13.68451
387.9206, 13.04330
388.4027, 18.86240
388.8848, 21.45758
389.3669, 16.17374
389.8490, 8.964996
390.3311, 6.139496
390.8133, 9.155060
391.2954, 13.77588
391.7775, 14.21213
392.2596, 9.967377
392.7417, 8.689331
393.2238, 13.33014
393.7060, 18.02576
394.1881, 19.11990
394.6702, 17.71982
395.1523, 16.90668
395.6344, 19.17300
396.1165, 21.82520
396.5987, 20.22324
397.0808, 14.23022
397.5629, 8.463501
398.0450, 4.669800
398.5271, 2.310883
399.0092, 0.2912900
399.4914, 1.460480
399.9735, 2.634796
400.4556, 3.301453
400.9377, 3.254272
401.4198, 2.126404
401.9019, 0.1440430
402.3841, 3.475922
402.8662, 7.925446
403.3483, 13.39294
403.8304, 16.40863
404.3125, 16.38245
404.7946, 14.91089
405.2768, 11.93033
405.7589, 8.034882
406.2410, 3.601563
406.7231, 1.184235
407.2052, 5.275787
407.6873, 6.330688
408.1695, 2.121857
408.6516, 4.7118999E-02
409.1337, 2.353058
409.6158, 4.779572
410.0979, 5.310516
410.5800, 3.942352
411.0622, 1.540802
411.5443, 1.247955
412.0264, 4.644684
412.5085, 10.45746
412.9906, 21.02957
413.4727, 27.31052
413.9549, 19.91339
414.4370, 9.121277
414.9191, 6.237457
415.4012, 14.22253
415.8833, 22.31747
416.3654, 21.69992
416.8476, 15.63162
417.3297, 13.42609
417.8118, 17.36029
418.2939, 21.67487
418.7760, 20.58728
419.2581, 14.35556
419.7403, 10.26886
420.2224, 9.215546
420.7045, 9.725464
421.1866, 11.98172
421.6687, 15.13184
422.1508, 17.71429
422.6330, 19.20190
423.1151, 19.32776
423.5972, 16.66934
424.0793, 7.764465
424.5614, 3.500244
425.0435, 7.293091
425.5257, 12.43195
426.0078, 15.21927
426.4899, 15.69128
426.9720, 15.36908
427.4541, 15.15598
427.9362, 15.17026
428.4184, 15.99362
428.9005, 18.12152
429.3826, 19.64984
429.8647, 20.47928
430.3468, 21.03973
430.8289, 21.24701
431.3111, 21.13138
431.7932, 20.00623
432.2753, 15.89511
432.7574, 10.32852
433.2395, 8.797516
433.7216, 12.93668
434.2038, 16.76578
434.6859, 15.46201
435.1680, 9.981659
435.6501, 5.101044
436.1322, 0.5045780
436.6143, 2.874268
437.0965, 4.892120
437.5786, 5.308319
438.0607, 2.687744
438.5428, 3.539154
439.0249, 9.836700
439.5070, 10.62506
439.9892, 2.803711
440.4713, 0.3888550
440.9534, 9.802002
441.4355, 17.51218
441.9176, 14.76547
442.3997, 5.857300
442.8819, 0.6498410
443.3640, 4.858795
443.8461, 14.00177
444.3282, 17.39841
444.8103, 13.35806
445.2924, 9.270691
445.7746, 5.114990
446.2567, 2.324066
446.7388, 2.380157
447.2209, 5.429596
447.7030, 9.206207
448.1852, 13.48160
448.6673, 17.29068
449.1494, 18.06122
449.6315, 15.52115
450.1136, 14.33905
450.5957, 18.31247
451.0779, 24.40726
451.5600, 24.67889
452.0421, 15.95480
452.5242, 9.080627
453.0063, 8.395966
453.4884, 10.57196
453.9706, 11.88992
454.4527, 11.88516
454.9348, 12.05585
455.4169, 14.20911
455.8990, 18.20758
456.3811, 19.62381
456.8633, 15.46954
457.3454, 12.02008
457.8275, 11.30789
458.3096, 11.30017
458.7917, 9.125977
459.2738, 4.248840
459.7560, 0.2207950
460.2381, 1.3763000E-02
460.7202, 4.804138
461.2023, 7.677856
461.6844, 7.477417
462.1665, 6.723114
462.6487, 6.135468
463.1308, 6.131104
463.6129, 7.703918
464.0950, 11.77267
464.5771, 16.32840
465.0592, 20.43607
465.5414, 23.84521
466.0235, 25.51273
466.5056, 24.90451
466.9877, 22.36642
467.4698, 17.48666
467.9519, 9.191010
468.4341, 7.424927
468.9162, 21.43375
469.3983, 32.56949
469.8804, 28.40228
470.3625, 15.09250
470.8446, 4.589661
471.3268, 2.302917
471.8089, 5.143250
472.2910, 7.584534
472.7731, 8.829132
473.2552, 10.41681
473.7373, 12.46609
474.2195, 15.29730
474.7016, 19.64932
475.1837, 24.93735
475.6658, 30.10257
476.1479, 36.26837
476.6300, 39.95975
477.1122, 32.94189
477.5943, 15.56909
478.0764, 4.574951
478.5585, 7.878815
479.0406, 16.19427
479.5227, 15.61038
480.0049, 5.705170
480.4870, 0.5002750
480.9691, 2.445526
481.4512, 7.666840
481.9333, 10.18414
482.4154, 9.926971
482.8976, 8.443085
483.3797, 6.326660
483.8618, 4.440826
484.3439, 5.210968
484.8260, 11.19199
485.3081, 15.11496
485.7903, 15.89783
486.2724, 15.64490
486.7545, 14.81711
487.2366, 14.00989
487.7187, 14.53656
488.2008, 17.82004
488.6830, 22.36322
489.1651, 24.57098
489.6472, 23.49353
490.1293, 22.63705
490.6114, 23.18069
491.0935, 24.65460
491.5757, 27.09924
492.0578, 30.62534
492.5399, 32.02414
493.0220, 28.81299
493.5041, 23.93558
493.9862, 19.62119
494.4684, 16.18005
494.9505, 14.57568
495.4326, 15.25345
495.9147, 17.00168
496.3968, 17.26562
496.8789, 15.24057
497.3611, 12.40747
497.8432, 5.620209
498.3253, 0.6178890
498.8074, 3.387299
499.2895, 11.72214
499.7716, 18.39740
500.2538, 18.15189
500.7359, 13.09381
501.2180, 9.971924
501.7001, 9.339966
502.1822, 7.421448
502.6643, 0.2551880
503.1465, 5.909210
503.6286, 3.956085
504.1107, 5.863403
504.5928, 14.64493
505.0749, 19.60788
505.5570, 21.71295
506.0392, 21.12158
506.5213, 18.34909
507.0034, 15.25589
507.4855, 12.59161
507.9676, 10.68063
508.4497, 10.26559
508.9319, 12.20795
509.4140, 14.06897
509.8961, 17.86478
510.3782, 19.77161
510.8603, 14.93213
511.3424, 6.384399
511.8246, 2.152924
512.3067, 7.566925
512.7888, 17.50415
513.2709, 21.17120
513.7531, 17.70798
514.2352, 14.23108
514.7173, 11.88309
515.1994, 10.37766
515.6815, 9.343475
516.1636, 8.817261
516.6458, 9.094086
517.1279, 11.41861
517.6100, 13.45648
518.0921, 13.29633
518.5742, 11.58884
519.0563, 9.461456
519.5385, 7.297974
520.0206, 5.898773
520.5027, 6.701569
520.9848, 10.72281
521.4669, 13.38501
521.9490, 13.37082
522.4312, 13.56534
522.9133, 15.44455
523.3954, 18.25375
523.8775, 20.86484
524.3596, 22.88803
524.8417, 23.83069
525.3239, 22.01282
525.8060, 17.58752
526.2881, 16.55234
526.7702, 21.78622
527.2523, 26.35678
527.7344, 24.10040
528.2166, 17.02972
528.6987, 10.14703
529.1808, 1.810272
529.6629, 3.322327
530.1450, 1.538666
530.6271, 4.513367
531.1093, 11.91113
531.5914, 19.54523
532.0735, 24.19266
532.5556, 21.56427
533.0377, 11.60571
533.5198, 7.165222
534.0020, 13.45438
534.4841, 18.82718
534.9662, 21.94452
535.4483, 22.66248
535.9304, 19.84921
536.4125, 13.66132
536.8947, 7.896545
537.3768, 6.562134
537.8589, 8.075439
538.3410, 6.690430
538.8231, 1.900055
539.3052, 0.1610110
539.7874, 5.041290
540.2695, 14.21860
540.7516, 19.76041
541.2337, 21.44135
541.7158, 20.79825
542.1979, 15.30280
542.6801, 9.469604
543.1622, 7.000397
543.6443, 7.763794
544.1264, 10.41150
544.6085, 14.51746
545.0906, 18.33783
545.5728, 15.96033
546.0549, 3.738098
546.5370, 3.590179
547.0191, 0.3078000
547.5012, 5.058838
547.9833, 7.929901
548.4655, 8.688141
548.9476, 9.413513
549.4297, 11.51822
549.9117, 13.29028
550.3939, 13.04370
550.8760, 10.99722
551.3581, 7.183014
551.8402, 1.279266
552.3223, 3.658997
552.8044, 3.629395
553.2866, 2.125793
553.7687, 6.404114
554.2508, 8.366028
554.7329, 10.06427
555.2150, 13.62234
555.6971, 16.57614
556.1793, 14.45926
556.6614, 6.843506
557.1435, 0.7894290
557.6256, 1.950562
558.1077, 2.325043
558.5898, 4.461517
559.0720, 3.807739
559.5541, 2.958130
560.0362, 2.953583
560.5183, 3.534546
561.0004, 4.147736
561.4825, 5.313843
561.9647, 7.219147
562.4468, 9.186066
562.9289, 11.74750
563.4110, 16.78354
563.8931, 23.24612
564.3752, 26.39297
564.8574, 23.07874
565.3395, 16.60883
565.8216, 16.31943
566.3037, 26.57559
566.7858, 30.95917
567.2679, 22.75259
567.7501, 13.51041
568.2322, 7.465210
568.7143, 4.724060
569.1964, 6.004730
569.6785, 14.00641
570.1606, 21.91739
570.6428, 22.02448
571.1249, 16.47623
571.6070, 11.32663
572.0891, 7.878113
572.5712, 6.071991
573.0533, 5.939911
573.5355, 7.523773
574.0176, 9.695313
574.4997, 13.62775
574.9818, 16.62869
575.4639, 18.54764
575.9460, 19.18036
576.4282, 17.82751
576.9103, 14.76566
577.3924, 11.55524
577.8745, 9.139587
578.3566, 7.644867
578.8387, 7.966125
579.3209, 10.37680
579.8030, 11.14755
580.2851, 7.215332
580.7672, 3.189972
581.2493, 7.798431
581.7314, 21.69296
582.2136, 28.73077
582.6957, 19.39108
583.1778, 10.03876
583.6599, 12.21402
584.1420, 20.75259
584.6241, 25.60983
585.1063, 23.30652
585.5884, 17.69797
586.0705, 13.47684
586.5526, 10.66687
587.0347, 8.787781
587.5168, 7.502502
587.9990, 7.129456
588.4811, 8.837158
588.9632, 10.81595
589.4453, 10.46680
589.9274, 6.866333
590.4095, 5.041321
590.8917, 9.197510
591.3738, 15.20975
591.8559, 18.74945
592.3380, 19.56570
592.8201, 18.23822
593.3022, 14.87622
593.7844, 10.60010
594.2665, 7.760254
594.7486, 6.132477
595.2307, 6.481537
595.7128, 10.52536
596.1949, 14.90067
596.6771, 20.48724
597.1592, 24.89697
597.6413, 23.34360
598.1234, 12.59171
598.6055, 1.663818
599.0876, 1.016602
599.5698, 1.958557
600.0519, 4.938446
600.5340, 7.156494
601.0161, 8.557831
601.4982, 8.858337
601.9803, 8.507080
602.4625, 9.316833
602.9446, 11.68213
603.4267, 14.72824
603.9088, 21.72870
604.3909, 26.15836
604.8730, 22.47351
605.3552, 13.28418
605.8373, 5.927643
606.3194, 4.432495
606.8015, 5.884796
607.2836, 7.033173
607.7657, 7.763977
608.2479, 6.577820
608.7300, 2.382629
609.2121, 6.0883000E-02
609.6942, 3.878387
610.1763, 13.07288
610.6584, 19.61996
611.1406, 26.19458
611.6227, 27.43207
612.1048, 17.12885
612.5869, 4.851166
613.0690, 1.076843
613.5511, 0.5843510
614.0333, 1.775146
614.5154, 3.121887
614.9975, 4.222351
615.4796, 7.303894
615.9617, 12.82022
616.4438, 14.15921
616.9260, 7.909393
617.4081, 1.001160
617.8902, 0.8887940
618.3723, 6.618683
618.8544, 8.721893
619.3365, 2.753540
619.8187, 1.879700
620.3008, 2.120636
620.7829, 0.5918270
621.2650, 5.896515
621.7471, 12.86908
622.2292, 18.70535
622.7114, 21.37039
623.1935, 21.08044
623.6756, 17.80774
624.1577, 10.97058
624.6398, 4.813599
625.1219, 0.6087040
625.6041, 3.826202
626.0862, 2.153839
626.5683, 3.480774
627.0504, 8.036530
627.5325, 12.03891
628.0146, 13.43787
628.4968, 8.957458
628.9789, 2.465546
629.4610, 1.458038
629.9431, 1.801239
630.4252, 1.081055
630.9073, 7.899628
631.3895, 16.75443
631.8716, 18.75970
632.3537, 11.94357
632.8358, 6.598480
633.3179, 5.440796
633.8000, 6.245544
634.2822, 7.522461
634.7643, 9.100464
635.2464, 9.882874
635.7285, 9.474335
636.2106, 8.432556
636.6927, 5.267273
637.1749, 2.597961
637.6570, 5.245514
638.1391, 12.97592
638.6212, 19.34305
639.1033, 18.25491
639.5854, 11.69113
640.0676, 8.793457
640.5497, 10.74115
641.0318, 11.81311
641.5139, 10.19113
641.9960, 7.860626
642.4781, 6.873993
642.9603, 6.860718
643.4424, 5.829285
643.9245, 0.7686460
644.4066, 2.472473
644.8887, 1.102814
645.3708, 7.341034
645.8530, 9.952057
646.3351, 8.359497
646.8172, 7.058746
647.2993, 10.11539
647.7814, 15.84540
648.2635, 17.83002
648.7457, 15.20721
649.2278, 12.49725
649.7099, 10.29422
650.1920, 8.619690
650.6741, 7.241943
651.1563, 6.322998
651.6384, 6.616211
652.1205, 10.59329
652.6026, 12.97186
653.0847, 9.149567
653.5668, 3.724457
654.0490, 2.587433
654.5311, 6.090424
655.0132, 11.05255
655.4953, 15.66843
655.9774, 18.91599
656.4595, 16.66971
656.9417, 7.398682
657.4238, 2.490784
657.9059, 4.859100
658.3880, 10.07608
658.8701, 16.23386
659.3522, 22.56531
659.8344, 26.36151
660.3165, 26.70209
660.7986, 25.50323
661.2807, 22.48795
661.7628, 18.83792
662.2449, 15.69510
662.7271, 13.10019
663.2092, 10.32632
663.6913, 6.786560
664.1734, 3.653992
664.6555, 3.746887
665.1376, 7.165497
665.6198, 9.522064
666.1019, 9.877472
666.5840, 10.28607
667.0661, 13.16605
667.5482, 16.94345
668.0303, 16.23755
668.5125, 6.883453
668.9946, 1.564484
669.4767, 5.906647
669.9588, 12.33862
670.4409, 17.02316
670.9230, 18.77539
671.4052, 15.16971
671.8873, 4.708557
672.3694, 5.366455
672.8515, 2.708221
673.3336, 10.05078
673.8157, 15.39783
674.2979, 11.14496
674.7800, 5.511993
675.2621, 1.986633
675.7442, 0.6566160
676.2263, 2.166443
676.7084, 8.567841
677.1906, 12.30713
677.6727, 11.00369
678.1548, 9.233063
678.6369, 9.043976
679.1190, 9.892090
679.6011, 11.02933
680.0833, 12.21466
680.5654, 13.26804
681.0475, 13.95078
681.5296, 14.40500
682.0117, 15.65302
682.4938, 17.51477
682.9760, 15.95526
683.4581, 8.134949
683.9402, 0.6402590
684.4223, 3.394226
684.9044, 18.61414
685.3865, 26.84540
685.8687, 21.56943
686.3508, 17.16428
686.8329, 18.07648
687.3150, 20.10120
687.7971, 18.49231
688.2792, 13.35898
688.7614, 9.407471
689.2435, 9.840118
689.7256, 12.23196
690.2077, 14.86230
690.6898, 17.20938
691.1719, 17.01132
691.6541, 13.87112
692.1362, 12.02112
692.6183, 16.42117
693.1004, 25.14520
693.5825, 24.19250
694.0646, 7.175323
694.5468, 4.696167
695.0289, 4.871765
695.5110, 1.727600
695.9931, 0.7571410
696.4752, 0.9129940
696.9573, 1.772369
697.4395, 10.83844
697.9216, 18.33173
698.4037, 18.75681
698.8858, 16.15213
699.3679, 14.65076
699.8500, 14.92517
700.3322, 17.13333
700.8143, 21.59061
701.2964, 26.35516
701.7785, 27.57135
702.2606, 25.01010
702.7427, 21.67609
703.2249, 17.07642
703.7070, 13.05045
704.1891, 9.807404
704.6712, 8.183441
705.1533, 10.81354
705.6354, 20.24329
706.1176, 25.09045
706.5997, 20.47812
707.0818, 14.55331
707.5639, 10.85052
708.0460, 8.834351
708.5281, 6.504059
709.0103, 3.429291
709.4924, 2.212067
709.9745, 7.591217
710.4566, 16.02319
710.9387, 17.53152
711.4208, 12.58112
711.9030, 9.583038
712.3851, 11.72626
712.8672, 15.19965
713.3493, 15.46655
713.8314, 12.45135
714.3135, 9.754883
714.7957, 6.313110
715.2778, 4.775909
715.7599, 7.562988
716.2420, 10.86499
716.7241, 11.22479
717.2062, 8.986969
717.6884, 6.391418
718.1705, 3.013367
718.6526, 1.564819
719.1347, 5.739349
719.6168, 12.63031
720.0989, 17.70898
720.5811, 20.27783
721.0632, 21.02899
721.5453, 20.31223
722.0274, 18.53442
722.5095, 16.07358
722.9916, 12.43069
723.4738, 11.97589
723.9559, 16.34097
724.4380, 21.25674
724.9201, 25.49179
725.4022, 28.22275
725.8843, 27.80396
726.3665, 23.41336
726.8486, 19.00381
727.3307, 14.26242
727.8128, 10.76224
728.2949, 9.976898
728.7770, 10.82449
729.2592, 11.56522
729.7413, 11.75906
730.2234, 12.01315
730.7055, 13.10272
731.1876, 15.25055
731.6697, 20.90915
732.1519, 29.22778
732.6340, 30.17542
733.1161, 19.77588
733.5982, 9.582184
734.0803, 12.41272
734.5624, 26.76419
735.0446, 32.54382
735.5267, 23.97406
736.0088, 16.66620
736.4909, 11.90738
736.9730, 9.296509
737.4551, 9.688446
737.9373, 12.00052
738.4194, 13.53119
738.9015, 13.56003
739.3836, 12.80618
739.8657, 10.62311
740.3478, 8.457764
740.8300, 8.071533
741.3121, 9.578979
741.7942, 11.42981
742.2763, 13.89505
742.7584, 17.01959
743.2405, 22.53497
743.7227, 29.74939
744.2048, 28.67752
744.6869, 17.36078
745.1690, 8.187347
745.6511, 6.796265
746.1332, 8.623810
746.6154, 6.991241
747.0975, 0.7997130
747.5796, 9.2254996E-02
748.0617, 11.42010
748.5438, 19.16226
749.0259, 16.30066
749.5081, 10.26193
749.9902, 7.687775
750.4723, 8.600739
750.9544, 9.374542
751.4365, 7.995056
751.9186, 6.444885
752.4008, 6.080383
752.8829, 6.938599
753.3650, 9.746277
753.8471, 13.93768
754.3292, 16.88297
754.8113, 17.04437
755.2935, 14.94138
755.7756, 10.74332
756.2577, 3.880157
756.7398, 1.149933
757.2219, 4.579987
757.7040, 7.905975
758.1862, 7.650726
758.6683, 6.223175
759.1504, 8.141663
759.6325, 14.17075
760.1146, 17.01379
760.5967, 14.12827
761.0789, 10.30725
761.5610, 5.379547
762.0431, 1.682404
762.5252, 3.519684
763.0073, 9.782654
763.4894, 12.57495
763.9716, 4.615875
764.4537, 4.526489
764.9358, 1.307007
765.4179, 9.038147
765.9000, 12.96259
766.3821, 8.963898
766.8643, 4.319763
767.3464, 3.620880
767.8285, 5.674286
768.3106, 8.273895
768.7927, 11.86035
769.2748, 12.91394
769.7570, 9.965820
770.2391, 7.301941
770.7212, 6.271332
771.2033, 7.062347
771.6854, 11.63165
772.1675, 21.28247
772.6497, 23.70395
773.1318, 8.703918
773.6139, 3.212189
774.0960, 1.407867
774.5781, 6.052582
775.0602, 11.16092
775.5424, 12.55350
776.0245, 11.44693
776.5066, 7.115540
776.9887, 3.290741
777.4708, 5.071625
777.9529, 9.754028
778.4351, 12.87848
778.9172, 13.91898
779.3993, 12.87781
779.8814, 9.539398
780.3635, 5.373199
780.8456, 3.594788
781.3278, 4.559570
781.8099, 4.133240
782.2920, 0.7057800
782.7741, 0.3318180
783.2562, 8.428314
783.7383, 18.19373
784.2205, 18.62894
784.7026, 8.636475
785.1847, 4.090912
785.6668, 11.39175
786.1489, 16.81195
786.6310, 14.43396
787.1132, 9.926300
787.5953, 9.215912
788.0774, 11.70782
788.5595, 12.86392
789.0416, 10.19797
789.5237, 6.730774
790.0059, 4.635620
790.4880, 3.651306
790.9701, 3.725433
791.4522, 4.600769
791.9343, 5.248291
792.4164, 5.164612
792.8986, 5.331635
793.3807, 7.425201
793.8628, 11.27646
794.3449, 15.14050
794.8270, 19.65573
795.3091, 19.31561
795.7913, 10.04630
796.2734, 9.6892998E-02
796.7555, 0.4946900
797.2376, 7.691589
797.7197, 10.04276
798.2018, 2.793549
798.6840, 8.396942
799.1661, 1.602509
799.6482, 12.85287
800.1303, 16.60266
800.6124, 14.73273
801.0945, 12.22635
801.5767, 10.06750
802.0588, 8.337585
802.5409, 7.878174
803.0230, 7.196075
803.5051, 3.422058
803.9872, 1.298309
804.4694, 1.866211
804.9515, 2.798767
805.4336, 8.373749
805.9157, 11.31403
806.3978, 12.08340
806.8799, 11.16263
807.3621, 8.814575
807.8442, 7.053650
808.3263, 6.297424
808.8084, 5.869324
809.2905, 5.092560
809.7726, 4.578827
810.2548, 6.759033
810.7369, 13.79276
811.2190, 16.16852
811.7011, 10.28915
812.1832, 5.136902
812.6653, 6.360992
813.1475, 9.561340
813.6296, 8.098419
814.1117, 1.397491
814.5938, 2.698196
815.0759, 2.090881
815.5580, 2.4901999E-02
816.0402, 3.735352
816.5223, 7.472961
817.0044, 9.861938
817.4865, 10.82101
817.9686, 10.58179
818.4507, 8.581879
818.9329, 7.371277
819.4150, 11.23587
819.8971, 16.29868
820.3792, 15.42514
820.8613, 9.699982
821.3434, 5.104218
821.8256, 4.071106
822.3077, 4.916534
822.7898, 6.745941
823.2719, 9.130890
823.7540, 9.844727
824.2361, 8.690399
824.7183, 10.02063
825.2004, 15.66476
825.6825, 21.24258
826.1646, 23.05099
826.6467, 21.63303
827.1288, 19.57166
827.6110, 16.68372
828.0931, 13.33633
828.5752, 7.642319
829.0573, 3.787262
829.5394, 3.879379
830.0215, 6.690979
830.5037, 11.87552
830.9858, 19.97987
831.4679, 23.04886
831.9500, 14.91997
832.4321, 7.402527
832.9142, 7.489792
833.3964, 9.794189
833.8785, 6.346619
834.3606, 1.793854
834.8427, 6.268005
835.3248, 1.963516
835.8069, 4.357834
836.2891, 6.043686
836.7712, 5.324905
837.2533, 5.782349
837.7354, 7.527771
838.2175, 9.811249
838.6996, 12.29037
839.1818, 13.95642
839.6639, 13.04745
840.1460, 10.40370
840.6281, 10.58060
841.1102, 13.70729
841.5923, 15.57182
842.0745, 15.27960
842.5566, 12.96463
843.0387, 7.827911
843.5208, 1.498184
844.0029, 9.8830998E-02
844.4850, 6.167587
844.9672, 10.71198
845.4493, 14.28200
845.9314, 15.39635
846.4135, 10.42685
846.8956, 4.399536
847.3777, 4.202728
847.8599, 10.19926
848.3420, 14.53915
848.8241, 15.72684
849.3062, 15.71875
849.7883, 14.97008
850.2704, 13.41684
850.7526, 9.682434
851.2347, 5.186646
851.7168, 4.001602
852.1989, 8.316757
852.6810, 12.63974
853.1631, 13.82352
853.6453, 12.83405
854.1274, 8.850204
854.6095, 3.947601
855.0916, 3.372467
855.5737, 7.932556
856.0558, 12.19009
856.5380, 11.18289
857.0201, 8.357819
857.5022, 8.008575
857.9843, 9.760986
858.4664, 12.35741
858.9485, 15.68611
859.4307, 17.59048
859.9128, 17.24678
860.3949, 15.51935
860.8770, 13.72572
861.3591, 11.78290
861.8412, 11.20334
862.3234, 12.75720
862.8055, 13.14754
863.2876, 10.12144
863.7697, 7.354446
864.2518, 9.207062
864.7339, 14.69754
865.2161, 16.70378
865.6982, 11.29114
866.1803, 8.878830
866.6624, 13.17279
867.1445, 16.57010
867.6266, 14.79274
868.1088, 10.54419
868.5909, 7.703430
869.0730, 6.704025
869.5551, 5.792282
870.0372, 2.718079
870.5193, 1.850922
871.0015, 8.060028
871.4836, 15.19888
871.9657, 16.74258
872.4478, 13.25043
872.9299, 9.199127
873.4120, 5.894684
873.8942, 5.127960
874.3763, 11.04442
874.8584, 17.69659
875.3405, 15.33124
875.8226, 8.193878
876.3047, 9.676239
876.7869, 21.76167
877.2690, 30.40042
877.7511, 22.39200
878.2332, 6.899094
878.7153, 0.6725620
879.1974, 1.981461
879.6796, 5.136124
880.1617, 8.769897
880.6438, 11.33215
881.1259, 11.93141
881.6080, 11.31967
882.0901, 10.63983
882.5723, 9.844574
883.0544, 7.864914
883.5365, 4.370071
884.0186, 1.765869
884.5007, 0.4632570
884.9828, 0.6993560
885.4650, 2.921616
885.9471, 6.644974
886.4292, 10.23036
886.9113, 14.13536
887.3934, 16.89354
887.8755, 20.23366
888.3577, 19.67529
888.8398, 8.700211
889.3219, 3.506927
889.8040, 5.379852
890.2861, 2.549286
890.7682, 8.953781
891.2504, 12.46927
891.7325, 15.34111
892.2146, 18.25529
892.6967, 19.87868
893.1788, 18.68747
893.6609, 16.54179
894.1431, 17.59314
894.6252, 23.08180
895.1073, 25.47404
895.5894, 19.07359
896.0715, 11.67163
896.5536, 6.673615
897.0358, 4.210983
897.5179, 4.895599
898.0000, 8.080872
898.4821, 12.20079
898.9642, 17.02142
899.4464, 20.26740
899.9285, 18.91051
900.4106, 15.59956
900.8927, 13.50700
901.3748, 12.38474
901.8569, 10.86009
902.3391, 8.927383
902.8212, 8.480301
903.3033, 11.93629
903.7854, 15.85118
904.2675, 12.63765
904.7496, 5.019470
905.2318, 2.987381
905.7139, 6.863129
906.1960, 10.21538
906.6781, 10.16269
907.1602, 9.604431
907.6423, 13.16711
908.1245, 19.41199
908.6066, 16.63164
909.0887, 4.625702
909.5708, 0.3852540
910.0529, 5.301819
910.5350, 13.33859
911.0172, 18.90855
911.4993, 21.93320
911.9814, 21.64461
912.4635, 17.29839
912.9456, 16.08594
913.4277, 19.51093
913.9099, 21.85944
914.3920, 22.13773
914.8741, 19.61232
915.3562, 11.67900
915.8383, 0.6157070
916.3204, 2.701462
916.8026, 8.243790
917.2847, 13.67539
917.7668, 8.827682
918.2489, 4.678833
918.7310, 7.055786
919.2131, 10.91061
919.6953, 9.554749
920.1774, 3.481918
920.6595, 1.807739
921.1416, 9.779572
921.6237, 15.76419
922.1058, 17.52692
922.5880, 17.17929
923.0701, 12.82242
923.5522, 8.593521
924.0343, 13.14154
924.5164, 27.84639
924.9985, 35.90790
925.4807, 26.06003
925.9628, 15.85631
926.4449, 13.06100
926.9270, 13.88606
927.4091, 16.75832
927.8912, 19.61429
928.3734, 17.90324
928.8555, 9.770676
929.3376, 2.833496
929.8197, 3.594223
930.3018, 5.524643
930.7839, 2.259506
931.2661, 3.031631
931.7482, 5.985626
932.2303, 5.875885
932.7124, 3.147568
933.1945, 2.460129
933.6766, 7.888351
934.1588, 9.810669
934.6409, 10.06671
935.1230, 12.20233
935.6051, 14.64632
936.0872, 11.46169
936.5693, 2.579880
937.0515, 2.864624
937.5336, 2.224655
938.0157, 11.65083
938.4978, 18.16908
938.9799, 21.35519
939.4620, 18.47328
939.9442, 10.83493
940.4263, 5.012909
940.9084, 3.248276
941.3905, 3.209122
941.8726, 2.556015
942.3547, 1.645981
942.8369, 1.434067
943.3190, 2.038620
943.8011, 4.663605
944.2832, 9.212769
944.7653, 12.03619
945.2474, 11.42232
945.7296, 9.207809
946.2117, 7.030945
946.6938, 5.672821
947.1759, 10.83414
947.6580, 22.85129
948.1401, 27.28467
948.6223, 20.76596
949.1044, 13.21338
949.5865, 10.09174
950.0686, 9.822250
950.5507, 10.21092
951.0328, 11.19522
951.5150, 9.622711
951.9971, 4.412811
952.4792, 3.653641
952.9613, 10.59091
953.4434, 16.56602
953.9255, 14.97144
954.4077, 9.665588
954.8898, 9.666718
955.3719, 16.05164
955.8540, 19.83966
956.3361, 21.13902
956.8182, 18.89331
957.3004, 10.09804
957.7825, 2.848190
958.2646, 4.241333
958.7467, 11.71774
959.2288, 17.78685
959.7109, 22.80054
960.1931, 25.04163
960.6752, 23.37747
961.1573, 20.99579
961.6394, 18.80156
962.1215, 16.17319
962.6036, 11.70875
963.0858, 6.272186
963.5679, 4.122711
964.0500, 8.720139
964.5321, 9.226425
965.0142, 0.2252960
965.4963, 5.695908
965.9785, 1.566299
966.4606, 5.239426
966.9427, 7.229691
967.4248, 5.125549
967.9069, 4.695557
968.3890, 7.433655
968.8712, 9.355347
969.3533, 10.24353
969.8354, 10.33893
970.3175, 8.927185
970.7996, 7.322632
971.2817, 7.515350
971.7639, 9.197754
972.2460, 9.228271
972.7281, 4.076538
973.2102, 2.130157
973.6923, 7.465515
974.1744, 12.71078
974.6566, 14.12952
975.1387, 13.80154
975.6208, 15.33173
976.1029, 18.67722
976.5850, 19.73938
977.0671, 15.84250
977.5493, 12.30341
978.0314, 10.54361
978.5135, 9.208282
978.9956, 7.023590
979.4777, 5.042297
979.9598, 4.963928
980.4420, 6.883667
980.9241, 9.184418
981.4062, 12.46829
981.8883, 14.63007
982.3704, 13.87650
982.8525, 13.04034
983.3347, 15.36112
983.8168, 18.04321
984.2989, 15.11990
984.7810, 6.177307
985.2631, 0.7378230
985.7452, 5.409393
986.2274, 9.362885
986.7095, 7.641571
987.1916, 4.450073
987.6737, 1.593292
988.1558, 0.2431640
988.6379, 2.921814
989.1201, 9.749756
989.6022, 14.72266
990.0843, 12.25604
990.5664, 10.67502
991.0485, 16.94064
991.5306, 23.10541
992.0128, 21.13513
992.4949, 14.63025
992.9770, 10.86551
993.4591, 11.22983
993.9412, 12.14578
994.4233, 12.16241
994.9055, 12.14038
995.3876, 13.56693
995.8697, 14.88937
996.3518, 15.39340
996.8339, 14.67288
997.3160, 11.54089
997.7982, 5.895569
998.2803, 1.478729
998.7624, 1.761444
999.2445, 1.285309
999.7266, 7.739166
1000.209, 17.84680
1000.691, 23.80176
1001.173, 25.23730
1001.655, 20.57419
1002.137, 9.964417
1002.619, 4.104370
1003.101, 12.70267
1003.584, 20.74896
1004.066, 20.30948
1004.548, 16.37534
1005.030, 11.46606
1005.512, 7.181091
1005.994, 6.139801
1006.476, 8.691193
1006.958, 10.81424
1007.440, 9.424500
1007.923, 8.957825
1008.405, 12.27625
1008.887, 16.75378
1009.369, 21.56802
1009.851, 25.28809
1010.333, 25.64886
1010.815, 22.35516
1011.297, 17.92371
1011.780, 9.932434
1012.262, 4.798828
1012.744, 7.611938
1013.226, 13.30893
1013.708, 20.09991
1014.190, 25.83200
1014.672, 27.24527
1015.154, 24.03635
1015.636, 19.82645
1016.119, 12.45529
1016.601, 9.171204
1017.083, 18.33060
1017.565, 27.13776
1018.047, 24.07196
1018.529, 15.29080
1019.011, 11.47949
1019.493, 13.72903
1019.976, 14.67929
1020.458, 9.546295
1020.940, 6.461517
1021.422, 10.63443
1021.904, 15.00681
1022.386, 14.34204
1022.868, 11.21667
1023.350, 8.824280
1023.832, 8.229889
1024.315, 8.931915
1024.797, 12.36890
1025.279, 14.27228
1025.761, 9.015625
1026.243, 7.044891
1026.725, 21.46005
1027.207, 37.83939
1027.689, 34.54126
1028.172, 13.82291
1028.654, 2.395996
1029.136, 11.50638
1029.618, 17.76462
1030.100, 13.72122
1030.582, 9.802734
1031.064, 11.56802
1031.546, 15.29733
1032.028, 16.71036
1032.511, 16.12842
1032.993, 16.45557
1033.475, 18.22369
1033.957, 20.37375
1034.439, 26.08774
1034.921, 28.01703
1035.403, 20.46970
1035.885, 10.60556
1036.368, 3.842194
1036.850, 0.3820500
1037.332, 0.9205320
1037.814, 7.707245
1038.296, 12.82068
1038.778, 18.21307
1039.260, 18.97516
1039.742, 8.435852
1040.224, 1.292419
1040.707, 0.3853150
1041.189, 9.552673
1041.671, 16.05301
1042.153, 19.91565
1042.635, 20.69583
1043.117, 15.14893
1043.599, 13.07559
1044.081, 19.01373
1044.563, 24.81485
1045.046, 25.94012
1045.528, 22.48050
1046.010, 13.42123
1046.492, 2.287781
1046.974, 10.57544
1047.456, 10.99295
1047.938, 4.121887
1048.420, 13.98386
1048.902, 28.71384
1049.385, 31.69077
1049.867, 27.18216
1050.349, 20.66617
1050.831, 12.54147
1051.313, 9.321899
1051.795, 11.92395
1052.277, 13.38287
1052.759, 12.52307
1053.242, 12.88440
1053.724, 16.57028
1054.206, 19.94296
1054.688, 18.36575
1055.170, 13.21555
1055.652, 10.90067
1056.134, 11.39026
1056.616, 9.311523
1057.099, 4.271332
1057.581, 3.168671
1058.063, 8.474304
1058.545, 15.59882
1059.027, 20.78229
1059.509, 23.40558
1059.991, 20.65833
1060.473, 13.76346
1060.955, 9.429779
1061.438, 7.828156
1061.920, 7.933105
1062.402, 9.386414
1062.884, 11.41397
1063.366, 13.47830
1063.848, 15.75543
1064.330, 20.43433
1064.812, 24.73212
1065.294, 18.36191
1065.777, 6.017975
1066.259, 4.774292
1066.741, 14.91599
1067.223, 20.65881
1067.705, 13.91388
1068.187, 3.698151
1068.669, 3.240112
1069.151, 6.121979
1069.634, 0.3063050
1070.116, 8.402222
1070.598, 7.670807
1071.080, 0.4011840
1071.562, 0.2523800
1072.044, 11.44916
1072.526, 22.35797
1073.008, 26.23145
1073.490, 25.08139
1073.973, 16.70895
1074.455, 7.331665
1074.937, 2.908966
1075.419, 3.097778
1075.901, 6.974121
1076.383, 13.86627
1076.865, 21.36655
1077.347, 31.97452
1077.829, 36.12357
1078.312, 20.60364
1078.794, 6.827057
1079.276, 14.63193
1079.758, 28.62979
1080.240, 27.17819
1080.722, 12.70181
1081.204, 5.803619
1081.686, 13.60434
1082.169, 19.32907
1082.651, 18.86020
1083.133, 17.35519
1083.615, 15.47693
1084.097, 14.30396
1084.579, 15.89609
1085.061, 18.77936
1085.543, 18.99573
1086.026, 16.12820
1086.508, 12.70459
1086.990, 7.239563
1087.472, 4.075378
1087.954, 3.671814
1088.436, 6.427429
1088.918, 15.40115
1089.400, 24.59796
1089.882, 24.32867
1090.365, 16.23383
1090.847, 13.78021
1091.329, 18.97446
1091.811, 17.94824
1092.293, 7.533112
1092.775, 2.465759
1093.257, 9.454102
1093.739, 17.51639
1094.221, 15.59570
1094.704, 7.948914
1095.186, 6.044403
1095.668, 9.523132
1096.150, 15.43069
1096.632, 23.15106
1097.114, 26.50601
1097.596, 24.11752
1098.078, 18.51257
1098.561, 11.22501
1099.043, 4.951385
1099.525, 3.474731
1100.007, 5.743744
1100.489, 11.19138
1100.971, 17.88382
1101.453, 21.38208
1101.935, 21.18350
1102.417, 16.91434
1102.900, 8.872803
1103.382, 3.235718
1103.864, 5.903503
1104.346, 11.40451
1104.828, 16.66302
1105.310, 19.83588
1105.792, 16.09702
1106.274, 9.568024
1106.756, 8.507233
1107.239, 13.56909
1107.721, 18.11871
1108.203, 19.69531
1108.685, 20.07883
1109.167, 20.05893
1109.649, 19.05121
1110.131, 14.19815
1110.613, 10.25430
1111.096, 14.49475
1111.578, 23.43570
1112.060, 25.57965
1112.542, 17.59854
1113.024, 12.88538
1113.506, 16.37726
1113.988, 17.64575
1114.470, 10.57010
1114.953, 6.978790
1115.435, 16.71982
1115.917, 30.04593
1116.399, 32.61200
1116.881, 25.47900
1117.363, 21.96048
1117.845, 22.70102
1118.327, 24.69724
1118.809, 28.37198
1119.292, 30.72394
1119.774, 30.90988
1120.256, 28.31802
1120.738, 21.86798
1121.220, 13.99292
1121.702, 9.580048
1122.184, 8.656189
1122.666, 13.42957
1123.148, 22.53717
1123.631, 25.30679
1124.113, 20.53256
1124.595, 14.98096
1125.077, 11.97299
1125.559, 12.27533
1126.041, 18.91794
1126.523, 26.36255
1127.005, 26.23218
1127.488, 21.84961
1127.970, 15.74619
1128.452, 9.830414
1128.934, 8.086975
1129.416, 10.73682
1129.898, 12.96597
1130.380, 12.06775
1130.862, 10.78922
1131.344, 10.74905
1131.827, 10.99960
1132.309, 11.90604
1132.791, 11.90579
1133.273, 7.256500
1133.755, 0.6670530
1134.237, 0.5366210
1134.719, 9.680969
1135.201, 14.72437
1135.683, 8.717438
1136.166, 6.386047
1136.648, 14.72437
1137.130, 19.94720
1137.612, 13.45380
1138.094, 3.254669
1138.576, 1.036652
1139.058, 0.2679750
1139.540, 0.5643010
1140.023, 1.581543
1140.505, 1.477539
1140.987, 0.5909420
1141.469, 2.053192
1141.951, 12.23166
1142.433, 19.10275
1142.915, 14.45703
1143.397, 5.392487
1143.880, 4.119263
1144.362, 8.313660
1144.844, 10.43915
1145.326, 10.13464
1145.808, 2.865601
1146.290, 8.789703
1146.772, 10.42902
1147.254, 2.015106
1147.736, 16.43060
1148.219, 25.00635
1148.701, 29.21939
1149.183, 29.32968
1149.665, 27.04941
1150.147, 23.28830
1150.629, 19.03171
1151.111, 14.48672
1151.593, 10.78754
1152.075, 11.80869
1152.558, 19.33514
1153.040, 24.50949
1153.522, 22.86185
1154.004, 20.63501
1154.486, 18.01202
1154.968, 17.37814
1155.450, 23.78098
1155.932, 30.69449
1156.415, 28.10370
1156.897, 17.38110
1157.379, 9.596619
1157.861, 4.054749
1158.343, 4.582855
1158.825, 13.24261
1159.307, 20.59982
1159.789, 24.57907
1160.271, 24.52213
1160.754, 19.43436
1161.236, 12.32571
1161.718, 7.381592
1162.200, 5.058533
1162.682, 10.05280
1163.164, 19.53116
1163.646, 18.69574
1164.128, 8.777649
1164.610, 4.016693
1165.093, 8.343872
1165.575, 12.77600
1166.057, 10.73663
1166.539, 8.189972
1167.021, 12.26849
1167.503, 17.78500
1167.985, 19.33704
1168.467, 18.46057
1168.950, 17.24512
1169.432, 15.61383
1169.914, 11.68420
1170.396, 4.824890
1170.878, 1.666992
1171.360, 7.472290
1171.842, 11.97708
1172.324, 12.10101
1172.807, 11.35251
1173.289, 10.76892
1173.771, 10.69644
1174.253, 11.45102
1174.735, 13.04047
1175.217, 15.77267
1175.699, 20.07794
1176.181, 21.62302
1176.663, 19.90100
1177.146, 20.09552
1177.628, 23.07684
1178.110, 26.07074
1178.592, 27.80573
1179.074, 27.73575
1179.556, 24.93890
1180.038, 20.65326
1180.520, 16.56577
1181.002, 13.25412
1181.485, 11.70535
1181.967, 12.18152
1182.449, 16.32648
1182.931, 23.11856
1183.413, 28.04541
1183.895, 29.27530
1184.377, 27.86270
1184.859, 22.41080
1185.342, 17.48077
1185.824, 12.48807
1186.306, 12.24866
1186.788, 25.97559
1187.270, 43.47931
1187.752, 49.32086
1188.234, 43.82806
1188.716, 36.55722
1189.198, 25.73950
1189.681, 18.46094
1190.163, 14.98978
1190.645, 12.56644
1191.127, 15.20599
1191.609, 18.26242
1192.091, 20.63150
1192.573, 19.32672
1193.055, 8.133331
1193.537, 6.855042
1194.020, 3.145111
1194.502, 13.71964
1194.984, 20.73581
1195.466, 18.80557
1195.948, 18.46771
1196.430, 21.22592
1196.912, 20.16406
1197.394, 11.27689
1197.877, 3.564026
1198.359, 6.575897
1198.841, 10.42520
1199.323, 5.953522
1199.805, 0.2838440
1200.287, 0.2291560
1200.769, 3.036621
1201.251, 8.043854
1201.734, 14.19223
1202.216, 19.36676
1202.698, 22.88812
1203.180, 26.59393
1203.662, 32.71948
1204.144, 33.41772
1204.626, 24.55899
1205.108, 16.93445
1205.590, 17.11224
1206.073, 19.82526
1206.555, 17.62732
1207.037, 13.06186
1207.519, 17.32812
1208.001, 27.03287
1208.483, 22.43707
1208.965, 6.975830
1209.447, 0.1227720
1209.929, 4.324707
1210.412, 7.258331
1210.894, 3.042114
1211.376, 1.505066
1211.858, 16.70184
1212.340, 29.43390
1212.822, 19.31165
1213.304, 7.057892
1213.786, 15.45807
1214.269, 28.01404
1214.751, 24.29474
1215.233, 5.970886
1215.715, 2.358551
1216.197, 21.84903
1216.679, 31.94104
1217.161, 29.55261
1217.643, 23.84756
1218.125, 15.05920
1218.608, 9.785950
1219.090, 11.94513
1219.572, 15.51056
1220.054, 13.85855
1220.536, 10.15656
1221.018, 12.93964
1221.500, 19.39276
1221.982, 18.93411
1222.464, 14.64679
1222.947, 14.00751
1223.429, 17.05344
1223.911, 14.48065
1224.393, 4.206848
1224.875, 1.331146
1225.357, 8.329498
1225.839, 18.41608
1226.321, 23.59747
1226.804, 23.59601
1227.286, 12.45193
1227.768, 1.063019
1228.250, 2.249847
1228.732, 10.81628
1229.214, 14.57123
1229.696, 11.57974
1230.178, 10.15698
1230.661, 8.705872
1231.143, 5.455383
1231.625, 0.4934690
1232.107, 6.2804997E-02
1232.589, 5.387970
1233.071, 9.254547
1233.553, 5.746521
1234.035, 0.0000000E+00
##END=



