##NAMES=Brochantite
##RRUFFID=R060117
##IDEAL CHEMISTRY=Cu^2+^_4_S^6+^O_4_(OH)_6_
##LOCALITY=M'sesa mine, Likasi, Katanga Province, Democratic Republic of the Congo
##OWNER=RRUFF
##SOURCE=University of Arizona Mineral Museum
##DESCRIPTION=Emerald-green thick acicular crystals
##STATUS=The identification of this mineral has been confirmed by X-ray diffraction and chemical analysis
##URL=rruff.info/R060117
##MEASURED CHEMISTRY=Cu_4.00_S_1.00_O_4_(OH)_6_
144.5761, 0.0000000E+00
145.0582, 0.5826800
145.5403, 0.9859960
146.0224, 0.9569890
146.5045, 0.4096620
146.9866, 0.7133460
147.4688, 1.026325
147.9509, 1.388477
148.4330, 1.226873
148.9151, 0.4217110
149.3972, 0.1593360
149.8793, 0.3950520
150.3615, 1.424810
150.8436, 2.132635
151.3257, 2.065969
151.8078, 1.528166
152.2899, 1.333401
152.7720, 1.680813
153.2542, 2.003239
153.7363, 2.108002
154.2184, 2.044567
154.7005, 1.933846
155.1826, 1.828016
155.6647, 1.716940
156.1469, 1.536020
156.6290, 1.019119
157.1111, 0.6556240
157.5932, 0.6119080
158.0753, 0.8870390
158.5574, 1.137594
159.0396, 1.175156
159.5217, 1.016870
160.0038, 0.8641950
160.4859, 0.6839890
160.9680, 0.6214450
161.4501, 0.7490830
161.9323, 1.077890
162.4144, 1.330256
162.8965, 0.7003880
163.3786, 1.163242
163.8607, 1.406572
164.3428, 1.442110
164.8250, 0.5789390
165.3071, 0.8586100
165.7892, 0.6647400
166.2713, 0.4523200
166.7534, 0.8885750
167.2355, 0.1387180
167.7177, 0.5540370
168.1998, 0.5126740
168.6819, 0.6894320
169.1640, 0.3861050
169.6461, 0.2289600
170.1282, 0.5354270
170.6104, 0.5812740
171.0925, 0.2364410
171.5746, 0.1234950
172.0567, 7.1993001E-02
172.5388, 0.4374470
173.0209, 0.6593060
173.5031, 0.5544490
173.9852, 0.4233910
174.4673, 0.6243360
174.9494, 1.127935
175.4315, 1.500887
175.9136, 1.318787
176.3958, 0.6162720
176.8779, 0.1650580
177.3600, 0.3218960
177.8421, 0.5600550
178.3242, 0.5398290
178.8063, 0.2670630
179.2885, 3.9960002E-03
179.7706, 8.7660002E-03
180.2527, 0.3800050
180.7348, 0.7297550
181.2169, 1.178402
181.6990, 1.483801
182.1812, 1.419203
182.6633, 0.9910140
183.1454, 0.4600490
183.6275, 0.2042050
184.1096, 0.3901520
184.5917, 0.5114840
185.0738, 0.4768350
185.5560, 0.4448970
186.0381, 0.5818120
186.5202, 0.9083420
187.0023, 1.255278
187.4844, 1.321922
187.9665, 0.7787900
188.4487, 0.4746720
188.9308, 0.5830730
189.4129, 0.8351860
189.8950, 1.001904
190.3771, 1.005796
190.8592, 0.8894730
191.3414, 0.7134040
191.8235, 0.3385410
192.3056, 0.1724240
192.7877, 0.4665320
193.2698, 0.9369410
193.7519, 1.175966
194.2341, 1.014856
194.7162, 0.6617700
195.1983, 0.5705720
195.6804, 0.8242490
196.1625, 0.9833740
196.6446, 0.8736550
197.1268, 0.5729260
197.6089, 0.2099630
198.0910, 0.2599160
198.5731, 0.6253260
199.0552, 0.4970380
199.5373, 0.2155720
200.0195, 0.8554170
200.5016, 0.9815580
200.9837, 0.6979750
201.4658, 0.5275040
201.9479, 0.6902690
202.4300, 0.9818740
202.9122, 1.143906
203.3943, 1.170576
203.8764, 1.082365
204.3585, 0.8138330
204.8406, 0.3176040
205.3227, 4.2500999E-02
205.8048, 0.2322750
206.2870, 0.5976260
206.7691, 0.9526580
207.2512, 1.262075
207.7333, 1.552031
208.2154, 1.824493
208.6975, 2.111595
209.1797, 2.194052
209.6618, 1.740677
210.1439, 1.281517
210.6260, 1.147484
211.1081, 1.379547
211.5902, 1.703671
212.0724, 1.736423
212.5545, 1.334892
213.0366, 1.078138
213.5187, 1.021505
214.0008, 1.095085
214.4829, 1.372272
214.9651, 1.816418
215.4472, 2.201653
215.9293, 2.125851
216.4114, 1.126051
216.8935, 0.6432230
217.3756, 1.033972
217.8578, 1.597721
218.3399, 1.829588
218.8220, 1.631577
219.3041, 1.283255
219.7862, 1.216997
220.2683, 1.649765
220.7505, 1.948566
221.2326, 2.040892
221.7147, 2.067371
222.1968, 2.121857
222.6789, 2.228552
223.1610, 2.385536
223.6432, 2.599087
224.1253, 3.009192
224.6074, 3.148596
225.0895, 2.691439
225.5716, 2.145435
226.0537, 2.032440
226.5358, 2.459742
227.0180, 3.029774
227.5001, 3.179165
227.9822, 2.754023
228.4643, 2.381571
228.9464, 1.964167
229.4285, 1.669333
229.9107, 1.812859
230.3928, 2.437038
230.8749, 3.175037
231.3570, 3.519730
231.8391, 3.437998
232.3212, 3.376902
232.8034, 3.437246
233.2855, 3.541847
233.7676, 3.576361
234.2497, 3.509287
234.7318, 3.455494
235.2139, 3.545391
235.6961, 3.736675
236.1782, 3.879593
236.6603, 3.930367
237.1424, 3.917892
237.6245, 3.877916
238.1066, 3.794954
238.5888, 3.771564
239.0709, 4.017117
239.5530, 4.431856
240.0351, 4.667889
240.5172, 4.434299
240.9993, 3.978186
241.4815, 3.783066
241.9636, 3.958088
242.4457, 4.206141
242.9278, 4.270233
243.4099, 4.239456
243.8920, 4.308691
244.3742, 4.700886
244.8563, 5.228828
245.3384, 5.439533
245.8205, 5.236584
246.3026, 4.918118
246.7847, 4.631863
247.2668, 4.359999
247.7490, 4.067404
248.2311, 3.719675
248.7132, 3.351858
249.1953, 3.029814
249.6774, 2.750008
250.1595, 2.536676
250.6417, 2.381920
251.1238, 2.295944
251.6059, 2.313431
252.0880, 2.486513
252.5701, 2.722441
253.0522, 2.773693
253.5344, 2.550146
254.0165, 2.314159
254.4986, 2.183262
254.9807, 2.070414
255.4628, 1.862720
255.9449, 1.484009
256.4271, 1.007938
256.9092, 0.6407970
257.3913, 0.4300520
257.8734, 0.2969320
258.3555, 0.2232860
258.8376, 0.2037720
259.3198, 0.2624570
259.8019, 0.4116760
260.2840, 0.5803380
260.7661, 0.5868000
261.2482, 0.2264000
261.7303, 0.3683700
262.2125, 0.2766210
262.6946, 0.6622850
263.1767, 0.7993090
263.6588, 3.7703000E-02
264.1409, 0.3862480
264.6230, 0.3070300
265.1052, 0.2082290
265.5873, 0.8126070
266.0694, 0.1225130
266.5515, 0.7153800
267.0336, 6.7668997E-02
267.5157, 0.1313720
267.9979, 4.3669000E-02
268.4800, 0.2322350
268.9621, 0.8746240
269.4442, 1.316696
269.9263, 1.602545
270.4084, 1.702169
270.8906, 1.490211
271.3727, 1.007626
271.8548, 0.4983370
272.3369, 0.2546270
272.8190, 0.3356970
273.3011, 0.5145360
273.7833, 0.9428520
274.2654, 1.324287
274.7475, 1.497541
275.2296, 1.459173
275.7117, 1.272446
276.1938, 0.9736290
276.6760, 0.5135840
277.1581, 0.2561700
277.6402, 0.3132380
278.1223, 0.4176860
278.6044, 0.4568440
279.0865, 0.4320740
279.5686, 0.3968410
280.0508, 0.3956640
280.5329, 0.4297180
281.0150, 0.4352460
281.4971, 0.4199980
281.9792, 0.3740020
282.4613, 0.2292770
282.9435, 4.6587002E-02
283.4256, 2.5400000E-02
283.9077, 0.1242710
284.3898, 0.4612200
284.8719, 0.6682000
285.3540, 0.7728080
285.8362, 0.7435650
286.3183, 0.3862820
286.8004, 9.3773000E-02
287.2825, 0.2965770
287.7646, 1.1070000E-02
288.2467, 0.6578540
288.7289, 1.040054
289.2110, 1.034229
289.6931, 0.9449040
290.1752, 0.7892060
290.6573, 0.5826400
291.1394, 0.3081680
291.6216, 4.9968999E-02
292.1037, 0.3864130
292.5858, 0.4707030
293.0679, 0.1849630
293.5500, 0.1282960
294.0321, 0.1295810
294.5143, 0.6675620
294.9964, 0.9710670
295.4785, 1.052671
295.9606, 0.2478940
296.4427, 0.5875240
296.9248, 0.4688340
297.4070, 0.3308110
297.8891, 0.8312590
298.3712, 0.1549510
298.8533, 0.6451050
299.3354, 0.6695380
299.8175, 0.9070260
300.2997, 0.6829430
300.7818, 0.6013300
301.2639, 0.9833570
301.7460, 1.136198
302.2281, 0.8946890
302.7102, 1.173841
303.1924, 0.4887770
303.6745, 0.6243570
304.1566, 1.116525
304.6387, 0.8620430
305.1208, 1.120898
305.6029, 1.184130
306.0851, 0.3586620
306.5672, 1.078496
307.0493, 1.129928
307.5314, 0.4950490
308.0135, 1.161724
308.4956, 0.6213210
308.9778, 0.5127330
309.4599, 0.7296310
309.9420, 0.5207640
310.4241, 0.4939780
310.9062, 0.5645050
311.3883, 0.5963750
311.8705, 0.5246760
312.3526, 0.4157290
312.8347, 0.4299340
313.3168, 0.6311110
313.7989, 0.7834670
314.2810, 0.7613500
314.7632, 0.6907250
315.2453, 0.7890230
315.7274, 1.125085
316.2095, 1.478265
316.6916, 1.517603
317.1737, 1.146134
317.6559, 0.8906040
318.1380, 0.9196890
318.6201, 1.005808
319.1022, 0.8408460
319.5843, 0.3885280
320.0664, 0.1136270
320.5485, 0.4892010
321.0306, 1.577660
321.5128, 2.084729
321.9949, 1.568719
322.4770, 0.8779830
322.9591, 0.5407560
323.4412, 0.5362540
323.9233, 0.5584580
324.4055, 0.3872310
324.8876, 7.9223998E-02
325.3697, 6.6656001E-02
325.8518, 0.6116010
326.3339, 1.137509
326.8160, 1.496244
327.2982, 1.676979
327.7803, 1.631224
328.2624, 1.300029
328.7445, 0.8169060
329.2266, 0.5504670
329.7087, 0.6201100
330.1909, 0.6516960
330.6730, 0.4744900
331.1551, 0.2598520
331.6372, 0.2481510
332.1193, 0.5089950
332.6014, 0.9157940
333.0836, 1.327388
333.5657, 1.829114
334.0478, 2.022236
334.5299, 1.638909
335.0120, 1.105854
335.4941, 0.7607500
335.9763, 0.6466160
336.4584, 0.6216360
336.9405, 0.5605130
337.4226, 0.4582610
337.9047, 0.3812200
338.3868, 0.2831950
338.8690, 0.2481010
339.3511, 0.3700350
339.8332, 0.6005710
340.3153, 0.7861560
340.7974, 0.8194120
341.2795, 0.7340430
341.7617, 0.7564300
342.2438, 0.9543320
342.7259, 1.160871
343.2080, 1.463141
343.6901, 1.720950
344.1722, 1.650981
344.6544, 1.122787
345.1365, 0.3970190
345.6186, 6.2360000E-02
346.1007, 0.4482980
346.5828, 0.7124380
347.0649, 0.7744830
347.5471, 0.7545480
348.0292, 0.7786300
348.5113, 0.8604210
348.9934, 0.8872070
349.4755, 0.6919070
349.9576, 0.1363030
350.4398, 0.1205100
350.9219, 0.1089170
351.4040, 0.4514120
351.8861, 0.7984410
352.3682, 1.092719
352.8503, 1.219563
353.3325, 1.062478
353.8146, 0.6498120
354.2967, 0.4747770
354.7788, 0.7924720
355.2609, 1.051422
355.7430, 1.115216
356.2252, 1.054373
356.7073, 1.010012
357.1894, 1.046445
357.6715, 1.078377
358.1536, 0.8692410
358.6357, 7.4432999E-02
359.1179, 0.4281940
359.5999, 0.5462840
360.0821, 0.4283680
360.5642, 0.1024840
361.0463, 0.3816230
361.5284, 0.8764880
362.0105, 1.122157
362.4926, 1.045685
362.9748, 0.9548320
363.4569, 0.7745500
363.9390, 0.6492870
364.4211, 0.7324010
364.9032, 0.9380880
365.3853, 1.032826
365.8675, 0.8132500
366.3496, 0.3241220
366.8317, 3.2069001E-02
367.3138, 2.1302000E-02
367.7959, 8.9254998E-02
368.2780, 0.2047780
368.7602, 0.3706660
369.2423, 0.6116580
369.7244, 0.9559800
370.2065, 1.288063
370.6886, 1.319521
371.1707, 0.8850610
371.6529, 0.6158140
372.1350, 0.8007340
372.6171, 1.053962
373.0992, 1.101884
373.5813, 0.9196690
374.0634, 0.7069660
374.5456, 0.6945910
375.0277, 0.8951120
375.5098, 1.019516
375.9919, 1.025010
376.4740, 0.9854050
376.9561, 0.8705430
377.4383, 0.7422120
377.9204, 0.7356460
378.4025, 0.9764250
378.8846, 1.357428
379.3667, 1.539341
379.8488, 1.444361
380.3310, 1.350346
380.8131, 1.487518
381.2952, 1.631218
381.7773, 1.473146
382.2594, 0.8666640
382.7415, 0.2631640
383.2237, 0.2509100
383.7058, 0.8274450
384.1879, 1.262550
384.6700, 1.350500
385.1521, 1.260695
385.6342, 1.117404
386.1164, 0.9324790
386.5985, 0.8028950
387.0806, 0.7926330
387.5627, 0.8765450
388.0448, 1.033307
388.5269, 1.310178
389.0091, 1.488912
389.4912, 1.299406
389.9733, 0.8922820
390.4554, 0.5907600
390.9375, 0.4720480
391.4196, 0.4693640
391.9018, 0.5643880
392.3839, 0.7453300
392.8660, 0.9040740
393.3481, 1.001849
393.8302, 1.039443
394.3123, 1.019797
394.7945, 0.9292320
395.2766, 0.8328650
395.7587, 0.6777410
396.2408, 0.5528370
396.7229, 0.6808990
397.2050, 1.139917
397.6872, 1.596772
398.1693, 1.636384
398.6514, 1.208103
399.1335, 0.9660650
399.6156, 1.126011
400.0977, 1.329188
400.5798, 1.305803
401.0620, 1.083364
401.5441, 0.8441710
402.0262, 0.6969710
402.5083, 0.6255450
402.9904, 0.5528800
403.4725, 0.4331560
403.9547, 0.3700930
404.4368, 0.3997460
404.9189, 0.4881940
405.4010, 0.6168180
405.8831, 0.7750220
406.3652, 0.9113930
406.8474, 0.9405240
407.3295, 0.7964890
407.8116, 0.7356830
408.2937, 0.7994220
408.7758, 0.9033130
409.2579, 1.037264
409.7401, 1.161671
410.2222, 1.183128
410.7043, 1.017786
411.1864, 0.6952500
411.6685, 0.4685240
412.1506, 0.3017730
412.6328, 0.2936950
413.1149, 0.6211210
413.5970, 1.038103
414.0791, 1.265808
414.5612, 1.212112
415.0433, 1.018147
415.5255, 0.8922130
416.0076, 0.8439600
416.4897, 0.8273930
416.9718, 0.9843030
417.4539, 1.020949
417.9360, 0.6452610
418.4182, 4.4359998E-03
418.9003, 0.4459280
419.3824, 0.3120960
419.8645, 0.2675260
420.3466, 0.7018140
420.8287, 1.010744
421.3109, 1.117221
421.7930, 0.8218930
422.2751, 0.3915830
422.7572, 0.1370450
423.2393, 0.1633590
423.7214, 0.2809720
424.2036, 0.1363900
424.6857, 0.3838420
425.1678, 0.6693220
425.6499, 0.7335100
426.1320, 8.8157997E-02
426.6141, 0.2353010
427.0963, 0.1009550
427.5784, 5.2212998E-02
428.0605, 0.4331260
428.5426, 0.2582290
429.0247, 0.2167990
429.5068, 0.2261300
429.9890, 0.4485650
430.4711, 0.2094790
430.9532, 0.1129060
431.4353, 0.4779540
431.9174, 0.5136000
432.3995, 0.9023960
432.8817, 1.032412
433.3638, 0.9548460
433.8459, 0.7176600
434.3280, 0.3084630
434.8101, 7.6966003E-02
435.2922, 0.1398250
435.7744, 0.2234430
436.2565, 0.5075180
436.7386, 0.6704020
437.2207, 0.7695060
437.7028, 0.7988590
438.1849, 0.7895510
438.6671, 0.8573500
439.1492, 1.105227
439.6313, 1.467510
440.1134, 1.550807
440.5955, 1.088202
441.0776, 0.6694550
441.5598, 0.2718480
442.0418, 7.3150001E-03
442.5240, 9.7780004E-03
443.0061, 0.2795560
443.4882, 0.6625850
443.9703, 0.8798390
444.4524, 0.8947350
444.9345, 0.9180560
445.4167, 0.8761830
445.8988, 0.9244580
446.3809, 1.197141
446.8630, 1.574714
447.3451, 1.897202
447.8272, 2.093518
448.3094, 2.128724
448.7915, 1.831032
449.2736, 0.9908810
449.7557, 0.4214230
450.2378, 0.5435940
450.7199, 0.8596170
451.2021, 1.069978
451.6842, 1.128900
452.1663, 1.075991
452.6484, 0.8799740
453.1305, 0.5836850
453.6126, 0.3923870
454.0948, 0.3588530
454.5769, 0.3690750
455.0590, 0.2784710
455.5411, 0.1559300
456.0232, 0.1630390
456.5053, 0.4193960
456.9875, 0.6967240
457.4696, 0.7863990
457.9517, 0.7244800
458.4338, 0.6696260
458.9159, 0.6622700
459.3980, 0.7078700
459.8802, 0.8671400
460.3623, 1.170469
460.8444, 1.305826
461.3265, 0.9878960
461.8086, 0.6461370
462.2907, 0.7328070
462.7729, 1.200623
463.2550, 1.610540
463.7371, 1.649457
464.2192, 1.402626
464.7013, 1.324190
465.1834, 1.626371
465.6656, 1.816266
466.1477, 1.716451
466.6298, 1.525615
467.1119, 1.483356
467.5940, 1.633317
468.0761, 1.809689
468.5583, 1.807174
469.0404, 1.592380
469.5225, 1.412786
470.0046, 1.275392
470.4867, 1.167397
470.9688, 1.073314
471.4510, 1.009957
471.9331, 1.004990
472.4152, 1.074249
472.8973, 1.201202
473.3794, 1.399588
473.8615, 1.735862
474.3437, 1.855207
474.8258, 1.357236
475.3079, 0.8942910
475.7900, 0.9693080
476.2721, 1.505628
476.7542, 1.951558
477.2364, 1.941225
477.7185, 1.678236
478.2006, 1.601036
478.6827, 1.748012
479.1648, 1.851589
479.6469, 1.751641
480.1291, 1.528866
480.6112, 1.329749
481.0933, 1.162408
481.5754, 1.021575
482.0575, 0.8431930
482.5396, 0.7104380
483.0217, 0.7750150
483.5038, 1.076795
483.9860, 1.382947
484.4681, 0.9596630
484.9502, 1.478672
485.4323, 1.759631
485.9144, 1.822386
486.3965, 0.9816820
486.8787, 1.301789
487.3608, 1.163246
487.8429, 1.006607
488.3250, 1.487702
488.8071, 0.7917050
489.2892, 1.263426
489.7714, 1.269453
490.2535, 1.488587
490.7356, 1.246190
491.2177, 1.146317
491.6998, 1.508070
492.1819, 1.613824
492.6641, 1.312413
493.1462, 0.7596190
493.6283, 0.4775140
494.1104, 0.4220210
494.5925, 0.7216550
495.0746, 0.8959860
495.5568, 0.6421150
496.0389, 0.3557980
496.5210, 0.3578770
497.0031, 0.6510730
497.4852, 0.9346140
497.9673, 0.9489730
498.4495, 0.7957630
498.9316, 0.7630340
499.4137, 0.8797180
499.8958, 1.027455
500.3779, 1.209807
500.8600, 1.357090
501.3422, 1.321808
501.8243, 1.037854
502.3064, 0.6972790
502.7885, 0.2860890
503.2706, 9.0798996E-02
503.7527, 0.2214120
504.2349, 5.7195000E-02
504.7170, 0.2365760
505.1991, 0.5277620
505.6812, 0.8204580
506.1633, 0.9754790
506.6454, 0.9023750
507.1276, 0.8100090
507.6097, 0.7605270
508.0918, 0.7458290
508.5739, 0.7682470
509.0560, 0.8251700
509.5381, 0.8567280
510.0203, 0.7586170
510.5024, 0.4863630
510.9845, 0.2357190
511.4666, 0.1271960
511.9487, 0.3336940
512.4308, 0.1864050
512.9130, 0.1860290
513.3951, 0.5454030
513.8772, 0.7822700
514.3593, 0.9035810
514.8414, 0.9042360
515.3235, 0.7632470
515.8057, 0.6789870
516.2878, 0.7681470
516.7699, 0.8543170
517.2520, 0.7846220
517.7341, 0.5737290
518.2162, 0.3388660
518.6984, 6.7621998E-02
519.1805, 0.1668400
519.6626, 0.2631150
520.1447, 0.2244940
520.6268, 0.1143890
521.1089, 6.1402999E-02
521.5911, 0.2622780
522.0732, 0.4318100
522.5553, 0.6005010
523.0374, 0.6772900
523.5195, 0.4853030
524.0016, 0.3062040
524.4838, 0.4823140
524.9659, 0.9563560
525.4480, 1.348999
525.9301, 1.381482
526.4122, 1.112888
526.8943, 0.8378160
527.3765, 0.4956250
527.8586, 0.2437320
528.3407, 7.7499002E-02
528.8228, 4.4129998E-03
529.3049, 0.1529150
529.7870, 0.4820980
530.2692, 0.7519250
530.7513, 0.6996890
531.2334, 0.3945350
531.7155, 0.2135390
532.1976, 0.1655820
532.6797, 0.2240030
533.1619, 0.5428550
533.6440, 0.8696500
534.1261, 0.8806840
534.6082, 0.4852370
535.0903, 0.1251370
535.5724, 0.1575260
536.0546, 0.4151920
536.5367, 0.4982440
537.0188, 0.3407250
537.5009, 0.2662300
537.9830, 0.5756570
538.4651, 1.170407
538.9473, 1.486967
539.4294, 1.385183
539.9115, 1.211571
540.3936, 1.033442
540.8757, 0.8493330
541.3578, 0.6124390
541.8400, 0.3351230
542.3221, 0.1543840
542.8042, 0.2268540
543.2863, 0.5571860
543.7684, 0.8557890
544.2505, 0.7538320
544.7326, 1.264116
545.2147, 1.539920
545.6968, 1.593850
546.1790, 0.7614090
546.6611, 1.073447
547.1432, 0.9267920
547.6253, 0.7612920
548.1074, 1.234307
548.5895, 0.5306280
549.0717, 0.9934430
549.5538, 0.9905750
550.0359, 1.107842
550.5180, 1.362761
551.0001, 1.393479
551.4822, 1.074744
551.9644, 0.7463830
552.4465, 0.6237170
552.9286, 0.6416680
553.4107, 0.6821950
553.8928, 0.7232910
554.3749, 0.7424300
554.8571, 0.7077600
555.3392, 0.6222130
555.8213, 0.6041330
556.3034, 0.7939950
556.7855, 0.8709420
557.2676, 0.6275150
557.7498, 0.2864120
558.2319, 9.7759999E-02
558.7140, 0.1251190
559.1961, 0.3058310
559.6782, 0.6211420
560.1603, 1.073935
560.6425, 1.280973
561.1246, 1.099921
561.6067, 0.8501210
562.0888, 0.5344900
562.5709, 0.2795570
563.0530, 0.2909850
563.5352, 0.6287530
564.0173, 0.9429660
564.4994, 0.8565860
564.9815, 0.5033520
565.4636, 0.3515560
565.9457, 0.4820110
566.4279, 0.6147230
566.9100, 0.5385520
567.3921, 0.3210550
567.8742, 0.2158930
568.3563, 0.3010590
568.8384, 0.3668310
569.3206, 0.3224930
569.8027, 0.2136760
570.2848, 8.6462997E-02
570.7669, 3.3043999E-02
571.2490, 6.7291997E-02
571.7311, 7.8571998E-02
572.2133, 0.3807630
572.6954, 0.5725540
573.1775, 0.6238570
573.6596, 0.6151140
574.1417, 0.4664290
574.6238, 0.2928700
575.1060, 0.2049000
575.5881, 0.2126190
576.0702, 0.2530830
576.5523, 0.2987730
577.0344, 0.3253750
577.5165, 0.2455360
577.9987, 2.3286000E-02
578.4808, 0.1188990
578.9629, 3.7326999E-02
579.4450, 0.1403260
579.9271, 0.2126870
580.4092, 0.1611140
580.8914, 0.1508620
581.3735, 0.3091530
581.8556, 0.4990100
582.3377, 0.5538650
582.8198, 0.4824590
583.3019, 0.4107300
583.7841, 0.4131290
584.2662, 0.4580850
584.7483, 0.4492320
585.2304, 0.1720330
585.7125, 0.2200240
586.1946, 0.3339920
586.6768, 0.6523720
587.1589, 0.7503350
587.6410, 3.6874000E-02
588.1231, 0.3203540
588.6052, 0.2188780
589.0873, 9.8375998E-02
589.5695, 0.6156470
590.0516, 4.3745000E-02
590.5337, 0.4653220
591.0158, 0.5084510
591.4979, 0.7640360
591.9800, 0.5579920
592.4622, 0.4943230
592.9443, 0.8909530
593.4264, 1.032076
593.9085, 0.7725330
594.3906, 1.041237
594.8727, 0.3729110
595.3549, 0.5253960
595.8370, 1.035679
596.3191, 0.7992650
596.8012, 1.077930
597.2833, 1.182589
597.7654, 0.3988540
598.2476, 1.143642
598.7297, 1.213406
599.2118, 0.5968630
599.6939, 1.281472
600.1760, 0.7582750
600.6581, 0.6752010
601.1403, 0.9280130
601.6224, 0.8412040
602.1045, 1.271900
602.5866, 1.186273
603.0687, 1.054722
603.5508, 1.123302
604.0330, 0.6246390
604.5151, 1.178205
604.9972, 1.012938
605.4793, 1.204931
605.9614, 1.477861
606.4435, 0.9449210
606.9257, 0.6038880
607.4078, 0.7901130
607.8899, 0.9320970
608.3720, 1.397540
608.8541, 1.605049
609.3362, 1.568534
609.8184, 0.5570140
610.3005, 1.313254
610.7826, 1.425412
611.2647, 1.168253
611.7468, 0.8599520
612.2289, 0.6785460
612.7111, 0.6212300
613.1932, 0.6148410
613.6753, 0.6162700
614.1574, 0.6520250
614.6395, 0.8272490
615.1216, 1.167049
615.6038, 1.298923
616.0859, 1.055463
616.5680, 0.7305530
617.0501, 0.5173050
617.5322, 0.4155570
618.0143, 0.4531220
618.4965, 0.7083980
618.9786, 1.020325
619.4607, 1.417169
619.9428, 1.772425
620.4249, 1.787805
620.9070, 1.408869
621.3892, 0.9465240
621.8713, 0.7085750
622.3534, 0.6917710
622.8355, 0.7098480
623.3176, 0.8604030
623.7997, 0.9164160
624.2819, 0.7178670
624.7640, 0.4947250
625.2461, 0.4728940
625.7282, 0.6653870
626.2103, 0.9003660
626.6924, 1.052769
627.1745, 1.150032
627.6566, 1.300550
628.1387, 1.519931
628.6208, 1.554479
629.1030, 1.253217
629.5851, 0.7991060
630.0672, 0.3938060
630.5493, 1.8828999E-02
631.0314, 0.1660260
631.5135, 5.8908001E-02
631.9957, 0.1688250
632.4778, 0.5627750
632.9599, 0.9684540
633.4420, 1.023835
633.9241, 0.6064440
634.4063, 8.7222002E-02
634.8884, 4.0938001E-02
635.3705, 0.5591690
635.8526, 0.7682490
636.3347, 0.3366510
636.8168, 2.4652001E-02
637.2990, 0.3273580
637.7811, 0.3993750
638.2632, 0.9261250
638.7453, 1.221254
639.2274, 1.292242
639.7095, 0.4771090
640.1917, 0.8064440
640.6738, 0.6770670
641.1559, 0.5288490
641.6380, 1.019140
642.1201, 0.3327200
642.6022, 0.8128070
643.0844, 0.8277360
643.5665, 1.039398
644.0486, 0.7234880
644.5307, 0.6079350
645.0128, 0.5113980
645.4949, 0.6058050
645.9771, 0.7914470
646.4592, 0.8188770
646.9413, 0.5754750
647.4234, 0.2530940
647.9055, 0.1215570
648.3876, 0.1868140
648.8698, 0.2482840
649.3519, 0.2709720
649.8340, 0.3382110
650.3161, 0.6174500
650.7982, 0.9438260
651.2803, 0.9376380
651.7625, 0.3845130
652.2446, 1.0801000E-02
652.7267, 0.2494930
653.2088, 0.6672020
653.6909, 0.6110910
654.1730, 0.1301040
654.6552, 0.2682190
655.1373, 0.2726780
655.6194, 4.3640002E-03
656.1015, 0.2565680
656.5836, 0.5919030
657.0657, 0.7056790
657.5479, 0.3195410
658.0300, 4.2800002E-02
658.5121, 0.2154940
658.9942, 0.1904870
659.4763, 7.2998002E-02
659.9584, 0.6739680
660.4406, 1.230653
660.9227, 1.373231
661.4048, 1.209002
661.8869, 0.9695790
662.3690, 0.6862800
662.8511, 0.4750550
663.3333, 0.4141340
663.8154, 0.4909700
664.2975, 0.6534790
664.7796, 1.126175
665.2617, 1.364105
665.7438, 1.248032
666.2260, 0.9880930
666.7081, 0.6206800
667.1902, 0.2387350
667.6723, 2.5690001E-02
668.1544, 9.6802004E-02
668.6365, 0.3140280
669.1187, 0.4826910
669.6008, 0.6024500
670.0829, 0.6562970
670.5650, 0.6247010
671.0471, 0.5708890
671.5292, 0.5324070
672.0114, 0.5090030
672.4935, 0.5004940
672.9756, 0.5402450
673.4577, 0.5366830
673.9398, 0.4258630
674.4219, 0.3055320
674.9041, 0.2222510
675.3862, 0.1830450
675.8683, 0.2450780
676.3504, 0.4463260
676.8325, 0.7207400
677.3146, 0.9195000
677.7968, 1.039479
678.2789, 1.097966
678.7610, 1.087092
679.2431, 1.042742
679.7252, 0.8971600
680.2073, 0.7125840
680.6895, 0.6642060
681.1716, 0.8889510
681.6537, 1.047813
682.1358, 0.8349220
682.6179, 0.4906370
683.1000, 0.4005580
683.5822, 0.5698010
684.0643, 0.6990940
684.5464, 0.5843630
685.0285, 0.3301320
685.5106, 0.2360830
685.9927, 0.3566650
686.4749, 0.5097240
686.9570, 0.7996300
687.4391, 1.008781
687.9212, 0.9939500
688.4033, 0.8489380
688.8854, 0.6913320
689.3676, 0.5702650
689.8497, 0.5418810
690.3318, 0.7404920
690.8139, 1.028048
691.2960, 1.095127
691.7781, 0.9139530
692.2603, 0.6264540
692.7424, 0.2756460
693.2245, 3.6235999E-02
693.7066, 4.4521999E-02
694.1887, 0.5102250
694.6708, 0.8417060
695.1530, 0.9222670
695.6351, 0.8403920
696.1172, 7.9545997E-02
696.5993, 0.6178300
697.0814, 0.9216330
697.5635, 1.003559
698.0457, 0.1991310
698.5278, 0.5391900
699.0099, 0.4205570
699.4920, 0.2831010
699.9741, 0.7840910
700.4562, 0.1084710
700.9384, 0.5993680
701.4205, 0.6246420
701.9026, 0.8630190
702.3847, 0.6398840
702.8668, 0.5592690
703.3489, 0.9402960
703.8311, 1.065693
704.3132, 0.7893730
704.7953, 1.041223
705.2774, 0.3491050
705.7595, 0.4833450
706.2416, 0.9759850
706.7238, 0.7225690
707.2059, 0.9826510
707.6880, 1.047321
708.1701, 0.2233540
708.6522, 0.9447650
709.1343, 0.9978290
709.6164, 0.3646610
710.0985, 1.025982
710.5806, 0.4872260
711.0627, 0.3794480
711.5449, 0.5958790
712.0270, 0.4725930
712.5091, 0.8606300
712.9912, 0.7350150
713.4733, 0.5803800
713.9554, 0.6325470
714.4376, 0.1175460
714.9197, 0.6548190
715.4018, 0.4732860
715.8839, 0.6400210
716.3660, 0.8769110
716.8481, 0.4952810
717.3303, 0.7854820
717.8124, 6.0538001E-02
718.2945, 0.1874410
718.7766, 0.2226240
719.2587, 0.8022990
719.7408, 8.2315996E-02
720.2230, 0.1855760
720.7051, 0.6393480
721.1872, 0.6026610
721.6693, 0.7710390
722.1514, 0.3323600
722.6335, 0.5933070
723.1157, 0.4158070
723.5978, 9.9274002E-02
724.0799, 8.6065002E-02
724.5620, 0.1402800
725.0441, 4.7894001E-02
725.5262, 0.2939720
726.0084, 0.5972840
726.4905, 0.5384830
726.9726, 0.2268000
727.4547, 0.1042070
727.9368, 0.3728930
728.4189, 0.5496530
728.9011, 0.4076820
729.3832, 0.1717460
729.8653, 6.6201001E-02
730.3474, 7.1381003E-02
730.8295, 1.3622000E-02
731.3116, 0.2140940
731.7938, 0.4587670
732.2759, 0.4087790
732.7580, 5.8371998E-02
733.2401, 0.1644580
733.7222, 0.1813860
734.2043, 0.1972030
734.6865, 0.4103160
735.1686, 0.6636990
735.6507, 0.5813420
736.1328, 1.3864000E-02
736.6149, 0.3686570
737.0970, 0.4318090
737.5792, 0.2667180
738.0613, 0.2811610
738.5434, 0.9567330
739.0255, 1.260478
739.5076, 1.035285
739.9897, 0.6330270
740.4719, 0.4541940
740.9540, 0.4701360
741.4361, 0.4746530
741.9182, 0.4611380
742.4003, 0.4707090
742.8824, 0.5257980
743.3646, 0.6031240
743.8467, 0.7251080
744.3288, 0.8991340
744.8109, 0.8415860
745.2930, 0.1809990
745.7751, 0.3083860
746.2573, 0.1673550
746.7394, 0.2342350
747.2215, 0.4714580
747.7036, 0.4781630
748.1857, 0.4117310
748.6678, 0.3675810
749.1500, 0.3610970
749.6321, 0.4842190
750.1142, 0.7367490
750.5963, 0.7524040
751.0784, 0.3475160
751.5605, 1.8320000E-03
752.0427, 0.1940610
752.5248, 0.7795550
753.0069, 1.003891
753.4890, 0.6030070
753.9711, 0.2821030
754.4532, 0.1468660
754.9354, 0.1122500
755.4175, 0.1356190
755.8996, 0.2083840
756.3817, 0.3646930
756.8638, 0.6298770
757.3459, 0.8298770
757.8281, 0.6570050
758.3102, 0.2387440
758.7923, 0.1111160
759.2744, 0.3186380
759.7565, 0.5280870
760.2386, 0.5886430
760.7208, 0.5438010
761.2029, 0.4524090
761.6850, 0.2779870
762.1671, 0.2098060
762.6492, 0.3183960
763.1313, 0.4404280
763.6135, 0.5151910
764.0956, 0.5827830
764.5777, 0.7286790
765.0598, 0.9402970
765.5419, 1.057342
766.0240, 0.9114590
766.5062, 0.6699830
766.9883, 0.6243810
767.4704, 0.7026660
767.9525, 0.1200510
768.4346, 0.6569730
768.9167, 0.9595030
769.3989, 1.040241
769.8810, 0.2347260
770.3631, 0.5738610
770.8452, 0.4545060
771.3273, 0.3164220
771.8094, 0.8169690
772.2916, 0.1408980
772.7737, 0.6314280
773.2558, 0.6563620
773.7379, 0.8945260
774.2200, 0.6713410
774.7021, 0.5908280
775.1843, 0.9720520
775.6664, 1.097720
776.1485, 0.8217540
776.6306, 1.074021
777.1127, 0.3826860
777.5948, 0.5194960
778.0770, 1.013662
778.5591, 0.7612350
779.0412, 1.022274
779.5233, 1.087841
780.0054, 1.017446
780.4875, 1.176698
780.9697, 0.7612990
781.4518, 0.2241580
781.9339, 2.3298001E-02
782.4160, 0.1377720
782.8981, 0.2302890
783.3802, 8.0316000E-02
783.8624, 4.0204000E-02
784.3445, 0.4590530
784.8266, 1.001504
785.3087, 1.217978
785.7908, 1.086536
786.2729, 0.8524990
786.7551, 0.6566740
787.2372, 0.5396030
787.7193, 0.6399270
788.2014, 0.9533530
788.6835, 1.142997
789.1656, 1.164449
789.6478, 1.019731
790.1299, 0.6190380
790.6120, 0.1535160
791.0941, 8.1042998E-02
791.5762, 0.6160350
792.0583, 0.8674180
792.5404, 0.5280800
793.0225, 0.1795520
793.5046, 4.4475000E-02
793.9868, 8.7995999E-02
794.4689, 0.2931420
794.9510, 0.6382810
795.4331, 0.9010500
795.9152, 0.8195430
796.3973, 0.5997310
796.8795, 0.6749540
797.3616, 0.9603950
797.8437, 0.9807250
798.3258, 0.6068600
798.8079, 0.2430520
799.2900, 0.2668770
799.7722, 0.5927400
800.2543, 0.7326080
800.7364, 0.5465540
801.2185, 0.4617960
801.7006, 0.6319840
802.1827, 0.7881690
802.6649, 0.7575100
803.1470, 0.6386000
803.6291, 0.6237130
804.1112, 0.8045640
804.5933, 0.9393470
805.0754, 0.7977760
805.5576, 0.6289530
806.0397, 0.7108170
806.5218, 0.9702630
807.0039, 1.220944
807.4860, 1.391794
807.9681, 1.476045
808.4503, 1.441652
808.9324, 1.319981
809.4145, 1.296203
809.8966, 1.393634
810.3787, 1.444853
810.8608, 1.411802
811.3430, 1.310031
811.8251, 1.076632
812.3072, 0.7649040
812.7893, 0.7269330
813.2714, 1.260611
813.7535, 1.619086
814.2357, 1.606630
814.7178, 1.469804
815.1999, 1.357144
815.6820, 1.256466
816.1641, 1.058702
816.6462, 0.7212550
817.1284, 0.5121880
817.6105, 0.8858680
818.0926, 1.470716
818.5747, 1.430234
819.0568, 0.8550980
819.5389, 0.4591860
820.0211, 0.4918820
820.5032, 0.7887750
820.9853, 1.214667
821.4674, 1.743277
821.9495, 1.947604
822.4316, 1.689919
822.9138, 1.406219
823.3959, 1.050379
823.8780, 0.8125140
824.3601, 0.9501610
824.8422, 1.291131
825.3243, 1.343428
825.8065, 0.8267000
826.2886, 0.5064600
826.7707, 0.8542960
827.2528, 1.371427
827.7349, 1.692424
828.2170, 1.805106
828.6992, 1.740233
829.1813, 1.520580
829.6634, 1.273972
830.1455, 1.154658
830.6276, 1.114785
831.1097, 0.9134840
831.5919, 0.5587900
832.0740, 0.5581390
832.5561, 1.137502
833.0382, 1.770438
833.5203, 1.947585
834.0024, 1.728567
834.4846, 1.569350
834.9667, 1.471025
835.4488, 1.435281
835.9309, 1.450100
836.4130, 1.535019
836.8951, 1.855320
837.3773, 2.204172
837.8594, 2.138404
838.3415, 1.493597
838.8236, 1.027090
839.3057, 1.387012
839.7878, 1.895816
840.2700, 1.776699
840.7521, 1.282820
841.2342, 1.095688
841.7163, 1.358863
842.1984, 1.609695
842.6805, 1.399144
843.1627, 0.9100880
843.6448, 0.5961840
844.1269, 0.4288180
844.6090, 0.4723850
845.0911, 0.7940850
845.5732, 1.126537
846.0554, 1.320354
846.5375, 1.366044
847.0196, 1.212814
847.5017, 0.5947050
847.9838, 0.3518890
848.4659, 0.7634970
848.9481, 1.211622
849.4302, 1.493773
849.9123, 1.664250
850.3944, 1.832087
850.8765, 1.995960
851.3586, 1.996433
851.8408, 1.656505
852.3229, 1.216363
852.8050, 0.7093940
853.2871, 0.3102870
853.7692, 0.4655140
854.2513, 1.112369
854.7335, 1.645166
855.2156, 1.634660
855.6977, 1.322426
856.1798, 1.091363
856.6619, 0.9437840
857.1440, 1.019725
857.6262, 1.379839
858.1083, 1.669574
858.5904, 1.694387
859.0725, 1.642223
859.5546, 1.812026
860.0367, 2.244150
860.5189, 2.416012
861.0010, 2.120533
861.4831, 1.858176
861.9652, 1.748329
862.4473, 1.673596
862.9294, 1.502786
863.4116, 1.298120
863.8937, 1.196345
864.3758, 1.247136
864.8579, 1.403636
865.3400, 1.625849
865.8221, 1.854733
866.3043, 2.050904
866.7864, 2.179198
867.2685, 2.030980
867.7506, 1.594058
868.2327, 1.135008
868.7148, 0.8770240
869.1970, 0.8491320
869.6791, 1.083224
870.1612, 1.600269
870.6433, 1.917058
871.1254, 1.911497
871.6075, 1.794999
872.0897, 1.720160
872.5718, 1.662164
873.0539, 1.530727
873.5360, 1.222750
874.0181, 1.080068
874.5002, 1.247847
874.9823, 1.410577
875.4644, 1.464622
875.9465, 1.461514
876.4286, 1.469272
876.9108, 1.495671
877.3929, 1.468670
877.8750, 1.297644
878.3571, 1.159963
878.8392, 1.220323
879.3214, 1.326107
879.8035, 1.285694
880.2856, 1.109183
880.7677, 0.8934420
881.2498, 0.6774840
881.7319, 0.5477680
882.2141, 0.7342270
882.6962, 1.078350
883.1783, 1.040372
883.6604, 0.6598120
884.1425, 0.4136320
884.6246, 0.4972360
885.1068, 0.7163700
885.5889, 0.9408530
886.0710, 1.171472
886.5531, 1.455439
887.0352, 1.909261
887.5173, 1.991953
887.9995, 1.322688
888.4816, 0.7124510
888.9637, 0.8293870
889.4458, 1.297388
889.9279, 1.338410
890.4100, 0.7881990
890.8922, 0.4311340
891.3743, 0.4905850
891.8564, 0.6331090
892.3385, 0.8086350
892.8206, 0.9224600
893.3027, 0.7713790
893.7849, 0.4310220
894.2670, 0.3415580
894.7491, 0.8873790
895.2312, 1.398944
895.7133, 1.139440
896.1954, 0.4986660
896.6776, 2.1906000E-02
897.1597, 0.2175660
897.6418, 0.1807300
898.1239, 0.1429490
898.6060, 0.5137380
899.0881, 0.6517230
899.5703, 0.5743860
900.0524, 0.2638950
900.5345, 0.3104880
901.0166, 0.4190710
901.4987, 0.2246610
901.9808, 0.9155480
902.4630, 1.102469
902.9451, 0.8865050
903.4272, 0.5955240
903.9093, 4.2366002E-02
904.3914, 0.1465890
904.8735, 0.4351430
905.3557, 0.8734660
905.8378, 0.7320200
906.3199, 2.6519999E-03
906.8020, 0.5592650
907.2841, 0.8814250
907.7662, 0.9817330
908.2484, 0.1957090
908.7305, 0.5541820
909.2126, 0.4539920
909.6947, 0.3349990
910.1768, 0.8545490
910.6589, 0.1974160
911.1411, 0.7068390
911.6232, 0.1036530
912.1053, 0.2562730
912.5874, 6.1933000E-02
913.0695, 0.3599560
913.5516, 0.5155420
914.0338, 0.4583340
914.5159, 0.3581710
914.9980, 0.2703170
915.4801, 0.2720640
915.9622, 0.4394390
916.4443, 0.6864030
916.9265, 0.8334560
917.4086, 0.8802780
917.8907, 0.7416360
918.3728, 0.3692820
918.8549, 2.7473999E-02
919.3370, 0.2198540
919.8192, 6.4391658E-02
920.3013, 0.2920828
920.7834, 0.4193621
921.2655, 0.4516252
921.7476, 0.1042883
922.2297, 0.2471262
922.7119, 0.1935238
923.1940, 0.1318670
923.6761, 0.3436947
924.1582, 5.1569961E-02
924.6403, 0.1153700
925.1224, 7.1919998E-03
925.6046, 0.1197970
926.0867, 0.3916510
926.5688, 0.2735940
927.0509, 0.2275110
927.5330, 0.2630340
928.0151, 0.5117590
928.4973, 0.2989700
928.9794, 0.2286990
929.4615, 0.6200470
929.9436, 0.7557610
930.4257, 0.4897550
930.9078, 0.7519090
931.3900, 7.0358001E-02
931.8721, 0.2168520
932.3542, 0.7206070
932.8363, 0.4776770
933.3184, 0.7481250
933.8005, 0.8230180
934.2827, 9.2669996E-03
934.7648, 0.7408320
935.2469, 0.8040520
935.7290, 0.1810060
936.2111, 0.8595450
936.6932, 0.3310580
937.1754, 0.2333690
937.6575, 0.4598740
938.1396, 0.3483690
938.6217, 0.7697250
939.1038, 0.1794230
939.5859, 0.1093120
940.0681, 0.1427600
940.5502, 0.3569860
941.0323, 0.8273750
941.5144, 0.7223900
941.9965, 0.2496580
942.4786, 0.3260490
942.9608, 0.6590640
943.4429, 0.7701850
943.9250, 5.0440002E-03
944.4071, 0.3641290
944.8892, 0.2746070
945.3713, 0.1662440
945.8535, 0.6964150
946.3356, 5.4827999E-02
946.8177, 0.5907920
947.2998, 0.6452830
947.7819, 0.9126260
948.2640, 0.7184360
948.7462, 0.6667570
949.2283, 1.078087
949.7104, 1.238143
950.1925, 0.9916950
950.6746, 1.272374
951.1567, 0.6093490
951.6389, 0.7743920
952.1210, 1.299287
952.6031, 1.074956
953.0852, 1.364012
953.5673, 1.457491
954.0494, 0.6623130
954.5316, 1.412499
955.0137, 1.484054
955.4958, 0.8712190
955.9779, 1.568349
956.4600, 1.058431
956.9421, 0.9792980
957.4242, 1.525718
957.9063, 1.665633
958.3884, 1.469903
958.8705, 1.274340
959.3527, 1.384218
959.8348, 1.668462
960.3169, 1.792611
960.7990, 1.705725
961.2811, 1.754364
961.7632, 2.017379
962.2454, 2.185129
962.7275, 2.057053
963.2096, 1.952382
963.6917, 2.251486
964.1738, 2.461522
964.6559, 2.632975
965.1381, 2.767464
965.6202, 2.754148
966.1023, 2.931566
966.5844, 3.032498
967.0665, 3.130268
967.5486, 3.334411
968.0308, 3.342450
968.5129, 4.172560
968.9950, 4.361676
969.4771, 4.511688
969.9592, 4.608275
970.4413, 4.568356
970.9235, 4.725484
971.4056, 4.806428
971.8877, 4.883216
972.3698, 5.065972
972.8519, 5.006412
973.3340, 4.712684
973.8162, 4.359060
974.2983, 4.066715
974.7804, 3.988673
975.2625, 4.005678
975.7446, 3.947805
976.2267, 3.813228
976.7089, 3.717176
977.1910, 3.708932
977.6731, 3.609980
978.1552, 3.083503
978.6373, 2.429855
979.1194, 2.137914
979.6016, 2.144289
980.0837, 2.083571
980.5658, 2.013863
981.0479, 1.796391
981.5300, 1.769638
982.0121, 1.648109
982.4943, 1.542953
982.9764, 1.552152
983.4585, 1.344922
983.9406, 1.343177
984.4227, 1.244032
984.9048, 1.224902
985.3870, 1.126135
985.8691, 1.030364
986.3512, 1.010160
986.8333, 0.9473200
987.3154, 0.8174990
987.7975, 0.7756880
988.2797, 0.5774340
988.7618, 0.6884700
989.2439, 0.6421580
989.7260, 0.5257740
990.2081, 0.5884990
990.6902, 0.6121380
991.1724, 0.5987600
991.6545, 0.4376420
992.1366, 0.4621980
992.6187, 0.4153220
993.1008, 0.3652830
993.5829, 0.4220970
994.0651, 0.2823010
994.5472, 0.3369130
995.0293, 0.3138820
995.5114, 0.3263420
995.9935, 0.2618560
996.4756, 0.2211210
996.9578, 0.2570860
997.4399, 0.2372370
997.9220, 0.1482280
998.4041, 0.1631960
998.8862, 2.0461001E-02
999.3683, 1.7070999E-02
999.8505, 7.4666001E-02
1000.333, 0.2535510
1000.815, 0.5333240
1001.297, 0.5707930
1001.779, 0.5067240
1002.261, 0.4866930
1002.743, 0.4688020
1003.225, 0.3095600
1003.707, 2.6077000E-02
1004.190, 0.2038770
1004.672, 0.1645590
1005.154, 0.5282280
1005.636, 0.4784030
1006.118, 0.2506250
1006.600, 5.4455999E-02
1007.082, 4.3136999E-02
1007.564, 8.0472000E-02
1008.046, 0.4749240
1008.529, 0.7599850
1009.011, 0.4095250
1009.493, 1.0038000E-02
1009.975, 0.3858590
1010.457, 1.075510
1010.939, 1.176902
1011.421, 0.7238870
1011.903, 0.4316270
1012.385, 0.6522250
1012.868, 1.014986
1013.350, 1.180857
1013.832, 1.175850
1014.314, 0.9636770
1014.796, 0.6335580
1015.278, 0.4210270
1015.760, 0.3751340
1016.242, 0.5169390
1016.725, 0.8740480
1017.207, 1.219748
1017.689, 1.185686
1018.171, 0.8717500
1018.653, 0.5763590
1019.135, 0.3239470
1019.617, 0.2666990
1020.099, 0.4333920
1020.581, 0.6907030
1021.064, 0.9621910
1021.546, 1.188166
1022.028, 1.243388
1022.510, 1.140293
1022.992, 1.019693
1023.474, 0.8816840
1023.956, 0.7462470
1024.438, 0.6181600
1024.921, 0.4825930
1025.403, 0.3102880
1025.885, 0.1723990
1026.367, 0.3005610
1026.849, 0.7309510
1027.331, 0.7813770
1027.813, 0.3654920
1028.295, 6.2509999E-02
1028.777, 3.7909999E-02
1029.260, 0.1348640
1029.742, 0.2390830
1030.224, 0.3548330
1030.706, 0.4962780
1031.188, 0.6745490
1031.670, 0.8334130
1032.152, 1.012480
1032.634, 1.046362
1033.116, 0.8304740
1033.599, 0.5598090
1034.081, 0.3579110
1034.563, 0.2489010
1035.045, 0.3285400
1035.527, 0.6929580
1036.009, 0.9142690
1036.491, 0.9795720
1036.973, 0.9169630
1037.456, 0.6206660
1037.938, 0.3453320
1038.420, 0.3671910
1038.902, 0.5674720
1039.384, 0.5184130
1039.866, 3.7760999E-02
1040.348, 0.1731460
1040.830, 0.1825830
1041.313, 0.3824790
1041.795, 2.4015000E-02
1042.277, 0.3619060
1042.759, 0.3197830
1043.241, 3.6556002E-02
1043.723, 0.3809760
1044.205, 0.8060270
1044.687, 0.9457310
1045.169, 0.4072520
1045.651, 7.8455001E-02
1046.134, 0.3459420
1046.616, 0.3239730
1047.098, 0.8917640
1047.580, 1.201962
1048.062, 1.271049
1048.544, 0.3624470
1049.026, 0.7122760
1049.508, 0.5578080
1049.991, 0.3823030
1050.473, 0.9092380
1050.955, 0.1418340
1051.437, 0.6576040
1051.919, 0.6611300
1052.401, 0.8996960
1052.883, 0.6299910
1053.365, 0.5170810
1053.848, 0.9162640
1054.330, 1.035453
1054.812, 0.7071700
1055.294, 0.9598880
1055.776, 0.1741190
1056.258, 0.8652230
1056.740, 2.7850000E-02
1057.222, 0.4735020
1057.704, 0.4019970
1058.187, 0.5843470
1058.669, 1.330657
1059.151, 1.275671
1059.633, 0.8626750
1060.115, 0.4016350
1060.597, 3.3820000E-02
1061.079, 2.9937999E-02
1061.561, 0.2638550
1062.043, 0.6512240
1062.526, 1.413252
1063.008, 1.825486
1063.490, 1.172092
1063.972, 0.3862810
1064.454, 0.4262580
1064.936, 0.9337930
1065.418, 1.027301
1065.900, 0.5149810
1066.383, 6.1120000E-02
1066.865, 0.1231440
1067.347, 0.1335370
1067.829, 6.8990001E-03
1068.311, 0.2770800
1068.793, 1.007069
1069.275, 1.806172
1069.757, 1.900460
1070.240, 1.174953
1070.722, 0.5404150
1071.204, 0.3838290
1071.686, 0.3891330
1072.168, 0.5006640
1072.650, 0.6251150
1073.132, 0.7122970
1073.614, 0.7455550
1074.096, 0.6690030
1074.578, 0.4961680
1075.061, 0.4234390
1075.543, 0.6439000
1076.025, 0.8014280
1076.507, 0.5540600
1076.989, 0.3449760
1077.471, 0.7114740
1077.953, 1.256310
1078.435, 1.270872
1078.918, 0.7437490
1079.400, 0.3351020
1079.882, 0.3135030
1080.364, 0.4064210
1080.846, 0.5287460
1081.328, 0.6811970
1081.810, 0.9632130
1082.292, 1.218764
1082.774, 0.4116670
1083.257, 0.9965330
1083.739, 1.323174
1084.221, 1.406088
1084.703, 0.5140260
1085.185, 0.8809040
1085.667, 0.7432340
1086.149, 0.5837060
1086.631, 1.126257
1087.114, 0.3754150
1087.596, 0.9082140
1088.078, 0.9288140
1088.560, 1.183835
1089.042, 0.9311930
1089.524, 0.8353310
1090.006, 1.247265
1090.488, 1.378002
1090.970, 1.066859
1091.453, 1.336673
1091.935, 0.5684420
1092.417, 0.7110800
1092.899, 1.246726
1093.381, 0.9610290
1093.863, 1.240060
1094.345, 1.303990
1094.827, 0.3904240
1095.309, 1.176778
1095.792, 1.228076
1096.274, 0.5249200
1096.756, 1.255565
1097.238, 0.6683060
1097.720, 0.5621120
1098.202, 0.7955050
1098.684, 0.6546170
1099.166, 1.099816
1099.649, 0.9788760
1100.131, 0.7844740
1100.613, 0.8125450
1101.095, 0.2374420
1101.577, 0.8211680
1102.059, 0.6141990
1102.541, 0.6948070
1103.023, 1.156903
1103.505, 1.374456
1103.988, 1.324358
1104.470, 0.7923720
1104.952, 0.1818990
1105.434, 2.6023000E-02
1105.916, 0.1250810
1106.398, 0.2436350
1106.880, 0.1822830
1107.362, 0.3021370
1107.844, 1.043430
1108.327, 1.488817
1108.809, 0.9965380
1109.291, 0.3094770
1109.773, 0.1056970
1110.255, 0.2500480
1110.737, 0.2466280
1111.219, 4.4275001E-02
1111.701, 6.5479003E-02
1112.184, 0.5576290
1112.666, 0.9849460
1113.148, 0.8988160
1113.630, 0.7005480
1114.112, 0.6935830
1114.594, 0.7361270
1115.076, 0.4785230
1115.558, 0.1576320
1116.041, 0.3027690
1116.523, 0.5521520
1117.005, 1.018813
1117.487, 0.6777980
1117.969, 0.3285340
1118.451, 0.3763050
1118.933, 0.5868380
1119.415, 0.6683130
1119.897, 0.6330160
1120.380, 0.6751280
1120.862, 0.8518510
1121.344, 0.9656120
1121.826, 1.009466
1122.308, 0.9953060
1122.790, 0.9284190
1123.272, 0.7745830
1123.754, 0.4260440
1124.236, 1.4763000E-02
1124.719, 4.3931998E-02
1125.201, 0.6857050
1125.683, 0.8478120
1126.165, 0.3088990
1126.647, 0.1643370
1127.129, 0.8047680
1127.611, 1.443602
1128.093, 1.546898
1128.576, 1.319392
1129.058, 1.123032
1129.540, 0.9578330
1130.022, 0.7808320
1130.504, 0.5798590
1130.986, 0.5509620
1131.468, 0.7394050
1131.950, 0.9452230
1132.432, 1.082534
1132.915, 1.116210
1133.397, 0.9759550
1133.879, 0.7350650
1134.361, 0.6749080
1134.843, 0.7770050
1135.325, 0.8405700
1135.807, 0.8486000
1136.289, 0.7903740
1136.771, 0.6617080
1137.254, 0.4504130
1137.736, 0.1220440
1138.218, 0.1808450
1138.700, 0.1811870
1139.182, 5.6111999E-02
1139.664, 0.4149070
1140.146, 0.8150280
1140.628, 0.8952590
1141.111, 0.6351500
1141.593, 0.3692990
1142.075, 0.2716300
1142.557, 0.2793800
1143.039, 0.3621390
1143.521, 0.4695690
1144.003, 0.5267000
1144.485, 0.5394580
1144.968, 0.4913020
1145.450, 0.4127460
1145.932, 0.4020090
1146.414, 0.4826050
1146.896, 0.5617070
1147.378, 0.5726200
1147.860, 0.5588250
1148.342, 0.5136820
1148.824, 0.5077270
1149.307, 0.7144320
1149.789, 0.9797160
1150.271, 1.004496
1150.753, 0.7886510
1151.235, 0.5625090
1151.717, 0.4116280
1152.199, 0.3001270
1152.681, 0.2345380
1153.163, 0.1699120
1153.646, 7.3670998E-02
1154.128, 3.4522001E-02
1154.610, 0.1930380
1155.092, 0.3287510
1155.574, 0.2422520
1156.056, 0.1124080
1156.538, 0.3461920
1157.020, 0.1767000
1157.503, 0.1166310
1157.985, 0.4310490
1158.467, 0.7673870
1158.949, 0.9138680
1159.431, 0.9597160
1159.913, 1.062289
1160.395, 1.201071
1160.877, 1.156406
1161.359, 0.3431840
1161.842, 0.8873900
1162.324, 1.173802
1162.806, 1.215847
1163.288, 0.2799860
1163.770, 0.6057850
1164.252, 0.4277690
1164.734, 0.2285890
1165.216, 0.7321400
1165.698, 5.8667000E-02
1166.181, 0.4336020
1166.663, 0.4137380
1167.145, 0.6560830
1167.627, 0.8962120
1168.109, 1.033702
1168.591, 1.019198
1169.073, 0.8818430
1169.555, 0.6266550
1170.037, 0.3399410
1170.520, 0.3683700
1171.002, 0.6998340
1171.484, 0.8467000
1171.966, 0.7887970
1172.448, 0.6038150
1172.930, 0.3157750
1173.412, 6.8805002E-02
1173.894, 3.0967999E-02
1174.377, 4.3410002E-03
1174.859, 0.1263500
1175.341, 0.2991930
1175.823, 0.4540160
1176.305, 0.5558260
1176.787, 0.5697460
1177.269, 0.5375750
1177.751, 0.7320380
1178.234, 1.204082
1178.716, 1.398709
1179.198, 0.7153640
1179.680, 5.3006999E-02
1180.162, 8.3448000E-02
1180.644, 0.5426880
1181.126, 0.5204550
1181.608, 0.2964550
1182.090, 0.6085360
1182.573, 1.333327
1183.055, 1.516580
1183.537, 0.7043290
1184.019, 2.2403000E-02
1184.501, 5.6357000E-02
1184.983, 0.1400160
1185.465, 0.5172520
1185.947, 0.8151020
1186.429, 0.7529730
1186.912, 0.4842580
1187.394, 0.2624550
1187.876, 0.1228920
1188.358, 0.1191900
1188.840, 0.3928940
1189.322, 0.5905080
1189.804, 0.6425750
1190.286, 0.6559310
1190.769, 0.6105710
1191.251, 0.6078570
1191.733, 0.8237820
1192.215, 1.099224
1192.697, 0.9681570
1193.179, 0.3430810
1193.661, 9.9036001E-02
1194.143, 0.3654250
1194.625, 0.5268290
1195.108, 0.4763260
1195.590, 0.3619230
1196.072, 0.2122850
1196.554, 0.1730760
1197.036, 0.4422320
1197.518, 0.8814680
1198.000, 1.108078
1198.482, 1.131745
1198.964, 1.000489
1199.447, 0.7446120
1199.929, 0.5734370
1200.411, 0.5346240
1200.893, 0.5895500
1201.375, 0.7191510
1201.857, 0.8466900
1202.339, 0.8786140
1202.821, 0.8568040
1203.304, 0.8510820
1203.786, 0.8417600
1204.268, 0.6622300
1204.750, 0.4798070
1205.232, 0.7353917
1205.714, 0.9268817
1206.196, 1.018281
1206.678, 1.014987
1207.161, 0.6332594
1207.643, 0.7401767
1208.125, 0.6512920
1208.607, 0.5543792
1209.089, 0.7300603
1209.571, 0.4034392
1210.053, 0.5747982
1210.535, 0.5473675
1211.017, 0.6109234
1211.500, 0.4773930
1211.982, 0.2220990
1212.464, 0.1876360
1212.946, 0.5264430
1213.428, 0.7783930
1213.910, 0.7599020
1214.392, 0.5889670
1214.874, 0.3229630
1215.356, 4.3538000E-02
1215.839, 2.5854001E-02
1216.321, 0.3098120
1216.803, 0.4627490
1217.285, 0.4677760
1217.767, 0.4512190
1218.249, 0.4489930
1218.731, 0.4364030
1219.213, 0.3858020
1219.696, 0.3571450
1220.178, 0.4092760
1220.660, 0.4806770
1221.142, 0.3608810
1221.624, 0.1540220
1222.106, 0.2596020
1222.588, 0.5970250
1223.070, 0.8520640
1223.552, 0.9541680
1224.035, 0.9149740
1224.517, 0.7343010
1224.999, 0.6347650
1225.481, 0.9394850
1225.963, 1.255035
1226.445, 1.175382
1226.927, 0.9608560
1227.409, 0.8163610
1227.891, 0.7775900
1228.374, 0.9734760
1228.856, 1.313968
1229.338, 1.292702
1229.820, 0.5905670
1230.302, 0.1464620
1230.784, 0.3811150
1231.266, 0.6265590
1231.748, 0.7797030
1232.231, 0.7531980
1232.713, 0.2320200
1233.195, 0.2644660
1233.677, -3.7801000E-03
1234.159, 0.2909243
1234.641, 0.4855310
1235.123, 0.5854515
1235.605, 0.3070056
1236.088, 0.5172713
1236.570, 0.5315939
1237.052, 0.5379049
1237.534, 0.8168005
1238.016, 0.5933865
1238.498, 0.8679601
1238.980, 0.8303940
1239.462, 0.6501210
1239.944, 0.2903260
1240.427, 0.1251890
1240.909, 0.2009380
1241.391, 1.2341000E-02
1241.873, 0.2723060
1242.355, 0.5035240
1242.837, 0.7059990
1243.319, 0.8860220
1243.801, 0.9950740
1244.283, 0.9265160
1244.766, 0.8572570
1245.248, 1.015899
1245.730, 1.155427
1246.212, 0.9634440
1246.694, 0.6045370
1247.176, 0.3497420
1247.658, 0.2399020
1248.140, 0.2885180
1248.622, 0.6271730
1249.105, 0.8491520
1249.587, 0.9152670
1250.069, 0.8797070
1250.551, 0.6567560
1251.033, 0.5101310
1251.515, 0.6393860
1251.997, 0.8826530
1252.479, 1.007501
1252.962, 1.019804
1253.444, 0.9248360
1253.926, 0.7259980
1254.408, 0.5863600
1254.890, 0.5266980
1255.372, 0.8078740
1255.854, 1.434090
1256.336, 1.705051
1256.818, 1.207141
1257.301, 0.5763700
1257.783, 0.5331950
1258.265, 0.7306260
1258.747, 0.7297050
1259.229, 0.6501500
1259.711, 0.6513420
1260.193, 0.6679040
1260.675, 0.6544190
1261.157, 0.6036080
1261.640, 0.3283060
1262.122, 0.9106240
1262.604, 1.235147
1263.086, 1.315733
1263.568, 0.3991590
1264.050, 0.7248740
1264.532, 0.5839150
1265.014, 0.4223120
1265.497, 0.9631530
1265.979, 0.2097230
1266.461, 0.7395470
1266.943, 0.7571950
1267.425, 1.008942
1267.907, 0.7534690
1268.389, 0.6548310
1268.871, 1.064024
1269.354, 0.6521780
1269.836, 0.6727230
1270.318, 0.4551230
1270.800, 0.3500430
1271.282, 0.7512290
1271.764, 1.302271
1272.246, 1.390544
1272.728, 1.258721
1273.210, 1.416294
1273.693, 1.641645
1274.175, 1.418163
1274.657, 0.8342110
1275.139, 0.2618290
1275.621, 0.1740130
1276.103, 0.1890100
1276.585, 0.7395840
1277.067, 1.431843
1277.549, 1.406674
1278.032, 1.168894
1278.514, 0.7496720
1278.996, 0.4277110
1279.478, 0.4647060
1279.960, 0.7405590
1280.442, 1.073858
1280.924, 1.445465
1281.406, 1.016602
1281.889, 0.4855020
1282.371, 0.5224720
1282.853, 1.239952
1283.335, 1.475636
1283.817, 0.9006380
1284.299, 0.3310240
1284.781, 0.1838010
1285.263, 0.2090470
1285.745, 0.1390240
1286.228, 0.0000000E+00
##END=



