##NAMES=Brochantite
##RRUFFID=R060133
##IDEAL CHEMISTRY=Cu^2+^_4_S^6+^O_4_(OH)_6_
##LOCALITY=Shattuck mine, Bisbee, Cochise County, Arizona, USA
##OWNER=RRUFF
##SOURCE=University of Arizona Mineral Museum
##DESCRIPTION=Deep green thick prismatic crystals
##STATUS=The identification of this mineral has been confirmed by X-ray diffraction and chemical analysis
##URL=rruff.info/R060133
##MEASURED CHEMISTRY=Cu_4.00_S_1.00_O_4_(OH)_6_
149.8793, 0.0000000E+00
150.3615, 7.3982000E-02
150.8436, 5.0209998E-03
151.3257, 0.1241660
151.8078, 0.3286470
152.2899, 0.4879610
152.7720, 0.5841220
153.2542, 0.6539120
153.7363, 0.7515670
154.2184, 0.8337070
154.7005, 0.8214690
155.1826, 0.6216670
155.6647, 0.2683250
156.1469, 0.1236660
156.6290, 0.3958460
157.1111, 0.7109730
157.5932, 1.008143
158.0753, 1.244094
158.5574, 1.385557
159.0396, 1.401841
159.5217, 1.281345
160.0038, 1.177734
160.4859, 1.084576
160.9680, 1.018466
161.4501, 1.047701
161.9323, 1.132404
162.4144, 1.154859
162.8965, 1.228796
163.3786, 1.464640
163.8607, 1.604102
164.3428, 1.596534
164.8250, 1.526749
165.3071, 1.453222
165.7892, 1.424511
166.2713, 1.417767
166.7534, 1.479095
167.2355, 1.636174
167.7177, 1.684414
168.1998, 1.697356
168.6819, 1.667332
169.1640, 1.575318
169.6461, 1.394670
170.1282, 1.233702
170.6104, 1.323284
171.0925, 1.615901
171.5746, 1.781670
172.0567, 1.655457
172.5388, 1.302936
173.0209, 0.9777770
173.5031, 0.4714890
173.9852, 0.6041330
174.4673, 0.6700870
174.9494, 0.6579740
175.4315, 0.3514650
175.9136, 0.4185230
176.3958, 0.3343560
176.8779, 0.2440490
177.3600, 0.3644120
177.8421, 9.6795999E-02
178.3242, 0.2138900
178.8063, 8.8092998E-02
179.2885, 8.6855002E-02
179.7706, 0.1901970
180.2527, 0.4580240
180.7348, 0.5449880
181.2169, 0.2751150
181.6990, 6.0483001E-02
182.1812, 2.3465000E-02
182.6633, 2.6257001E-02
183.1454, 9.0300001E-02
183.6275, 6.7264996E-02
184.1096, 1.4640000E-02
184.5917, 1.0183000E-02
185.0738, 0.1335610
185.5560, 0.4345080
186.0381, 0.5619430
186.5202, 0.4912830
187.0023, 0.3098690
187.4844, 0.1620380
187.9665, 2.8917000E-02
188.4487, 2.7969999E-02
188.9308, 8.3189003E-02
189.4129, 0.2227450
189.8950, 0.2429800
190.3771, 9.6593998E-02
190.8592, 2.0083999E-02
191.3414, 1.4052000E-02
191.8235, 3.7425999E-02
192.3056, 1.0863000E-02
192.7877, 1.4211000E-02
193.2698, 5.6035999E-02
193.7519, 4.2715002E-02
194.2341, 4.1510002E-03
194.7162, 5.4380000E-03
195.1983, 6.4962998E-02
195.6804, 5.3668998E-02
196.1625, 5.6719999E-03
196.6446, 6.0284998E-02
197.1268, 0.1018200
197.6089, 0.1819550
198.0910, 0.1220470
198.5731, 9.2580002E-03
199.0552, 6.5947004E-02
199.5373, 4.0557001E-02
200.0195, 1.3010000E-03
200.5016, 1.4920000E-03
200.9837, 2.6427001E-02
201.4658, 1.6403999E-02
201.9479, 0.1999960
202.4300, 0.4081500
202.9122, 0.5367830
203.3943, 0.5840240
203.8764, 0.5533440
204.3585, 0.3712880
204.8406, 4.2745002E-02
205.3227, 1.7565999E-02
205.8048, 1.6868999E-02
206.2870, 0.2564200
206.7691, 0.3555500
207.2512, 0.2889650
207.7333, 0.2046300
208.2154, 0.3081940
208.6975, 0.6656600
209.1797, 0.8497150
209.6618, 0.5236130
210.1439, 0.1763850
210.6260, 0.1087950
211.1081, 0.3610230
211.5902, 0.7234600
212.0724, 0.9241110
212.5545, 0.9170300
213.0366, 0.8700180
213.5187, 0.7211890
214.0008, 0.5923950
214.4829, 0.5631010
214.9651, 0.6469070
215.4472, 0.7969060
215.9293, 0.9709260
216.4114, 1.256935
216.8935, 1.368309
217.3756, 1.211253
217.8578, 0.9805600
218.3399, 0.7801050
218.8220, 0.6454520
219.3041, 0.5782590
219.7862, 0.5908250
220.2683, 0.7381040
220.7505, 0.8512020
221.2326, 0.9027090
221.7147, 0.9414660
222.1968, 1.016373
222.6789, 1.135167
223.1610, 1.255293
223.6432, 1.310764
224.1253, 1.252501
224.6074, 1.233993
225.0895, 1.291330
225.5716, 1.352361
226.0537, 1.352089
226.5358, 1.276070
227.0180, 1.177952
227.5001, 1.130380
227.9822, 1.144488
228.4643, 1.182326
228.9464, 1.234818
229.4285, 1.317381
229.9107, 1.464367
230.3928, 1.678821
230.8749, 1.898184
231.3570, 2.042546
231.8391, 2.090348
232.3212, 2.128339
232.8034, 2.165805
233.2855, 2.201647
233.7676, 2.244316
234.2497, 2.298946
234.7318, 2.326814
235.2139, 2.232106
235.6961, 2.033598
236.1782, 1.942362
236.6603, 2.069320
237.1424, 2.325262
237.6245, 2.566666
238.1066, 2.769680
238.5888, 2.963233
239.0709, 3.232498
239.5530, 3.528064
240.0351, 3.661918
240.5172, 3.403709
240.9993, 2.985846
241.4815, 2.913933
241.9636, 3.355262
242.4457, 3.812482
242.9278, 3.820868
243.4099, 3.560172
243.8920, 3.420303
244.3742, 3.694944
244.8563, 4.181195
245.3384, 4.399674
245.8205, 4.269320
246.3026, 4.041102
246.7847, 3.852712
247.2668, 3.675453
247.7490, 3.457079
248.2311, 3.146375
248.7132, 2.787125
249.1953, 2.495607
249.6774, 2.293519
250.1595, 2.144047
250.6417, 2.075310
251.1238, 2.020140
251.6059, 1.899084
252.0880, 1.667015
252.5701, 1.371716
253.0522, 1.110016
253.5344, 0.8475970
254.0165, 0.6864770
254.4986, 0.7379430
254.9807, 0.8659150
255.4628, 0.9160180
255.9449, 0.8210650
256.4271, 0.6186450
256.9092, 0.3772880
257.3913, 3.5941999E-02
257.8734, 3.4148000E-02
258.3555, 1.4520000E-03
258.8376, 4.5460002E-03
259.3198, 3.6518000E-02
259.8019, 3.8024999E-02
260.2840, 0.3027360
260.7661, 0.3972260
261.2482, 0.2107810
261.7303, 5.6651000E-02
262.2125, 9.2690000E-03
262.6946, 1.6270000E-03
263.1767, 1.1135000E-02
263.6588, 0.1572700
264.1409, 0.4569330
264.6230, 0.6330260
265.1052, 0.6627370
265.5873, 0.6222970
266.0694, 0.4496550
266.5515, 0.2568550
267.0336, 0.1161510
267.5157, 4.3513998E-02
267.9979, 1.4492000E-02
268.4800, 1.7424000E-02
268.9621, 3.1892002E-02
269.4442, 1.2519000E-02
269.9263, 0.1538490
270.4084, 0.3726850
270.8906, 0.4157350
271.3727, 0.2776910
271.8548, 8.5084997E-02
272.3369, 1.2682000E-02
272.8190, 3.8160000E-03
273.3011, 7.3109001E-02
273.7833, 5.9209999E-02
274.2654, 0.2322230
274.7475, 0.3202810
275.2296, 0.3296530
275.7117, 1.6171999E-02
276.1938, 0.1190700
276.6760, 5.4086000E-02
277.1581, 1.6042000E-02
277.6402, 0.1269180
278.1223, 0.2526800
278.6044, 0.3728790
279.0865, 0.4643890
279.5686, 0.5099050
280.0508, 0.4940670
280.5329, 0.4165460
281.0150, 0.3047430
281.4971, 6.4543001E-02
281.9792, 2.0679999E-03
282.4613, 1.1110000E-03
282.9435, 2.1752000E-02
283.4256, 0.1673250
283.9077, 0.2638590
284.3898, 0.3083630
284.8719, 0.3356010
285.3540, 0.4299110
285.8362, 0.4449440
286.3183, 0.2637420
286.8004, 1.6151000E-02
287.2825, 1.2460000E-02
287.7646, 1.6911000E-02
288.2467, 1.2730000E-02
288.7289, 0.1117670
289.2110, 8.9505002E-02
289.6931, 0.2134720
290.1752, 0.2642760
290.6573, 2.2802001E-02
291.1394, 0.1590940
291.6216, 0.1437880
292.1037, 0.1222730
292.5858, 0.2617530
293.0679, 0.2911920
293.5500, 0.2687160
294.0321, 9.9629000E-02
294.5143, 8.0249999E-03
294.9964, 1.8720001E-03
295.4785, 0.1187660
295.9606, 0.3831420
296.4427, 0.4499720
296.9248, 0.2163240
297.4070, 9.4258003E-02
297.8891, 0.1699670
298.3712, 0.3197070
298.8533, 0.4541240
299.3354, 0.5542540
299.8175, 0.6148340
300.2997, 0.6280810
300.7818, 0.5860180
301.2639, 0.5203210
301.7460, 0.3939680
302.2281, 0.2739280
302.7102, 0.1743290
303.1924, 0.1097140
303.6745, 0.1447610
304.1566, 0.3540470
304.6387, 0.7271010
305.1208, 1.014298
305.6029, 1.216465
306.0851, 1.344648
306.5672, 1.388450
307.0493, 1.359754
307.5314, 1.281769
308.0135, 1.150806
308.4956, 0.9940630
308.9778, 0.9346010
309.4599, 1.042135
309.9420, 1.140929
310.4241, 1.170523
310.9062, 1.152716
311.3883, 1.134049
311.8705, 1.137766
312.3526, 1.137264
312.8347, 1.059802
313.3168, 0.8518530
313.7989, 0.7035700
314.2810, 0.6740210
314.7632, 0.7172710
315.2453, 0.7974620
315.7274, 0.9024620
316.2095, 0.9742190
316.6916, 0.9039370
317.1737, 0.6447230
317.6559, 0.4657630
318.1380, 0.4219940
318.6201, 0.4343810
319.1022, 0.4169550
319.5843, 0.2067900
320.0664, 0.3364500
320.5485, 0.3814860
321.0306, 0.3458770
321.5128, 7.8130001E-03
321.9949, 5.3183001E-02
322.4770, 1.1260000E-02
322.9591, 2.7560000E-03
323.4412, 2.8049999E-03
323.9233, 0.3362860
324.4055, 0.3493050
324.8876, 8.2056001E-02
325.3697, 4.4649998E-03
325.8518, 6.0430001E-03
326.3339, 0.1504660
326.8160, 8.5734002E-02
327.2982, 3.7819999E-03
327.7803, 2.0477001E-02
328.2624, 1.1619000E-02
328.7445, 1.3891000E-02
329.2266, 1.0697000E-02
329.7087, 1.6407000E-02
330.1909, 7.6075003E-02
330.6730, 0.2419880
331.1551, 0.3826780
331.6372, 0.3388840
332.1193, 6.1480999E-02
332.6014, 7.8689996E-03
333.0836, 2.0638000E-02
333.5657, 9.1639999E-03
334.0478, 5.0590001E-03
334.5299, 7.2599999E-03
335.0120, 2.2421001E-02
335.4941, 8.5200003E-04
335.9763, 0.1478710
336.4584, 0.2786590
336.9405, 0.3224950
337.4226, 0.2704550
337.9047, 0.2019070
338.3868, 6.1567999E-02
338.8690, 3.3460001E-03
339.3511, 1.0410000E-02
339.8332, 0.1078060
340.3153, 0.1429690
340.7974, 1.2711000E-02
341.2795, 4.1850000E-03
341.7617, 7.4220002E-03
342.2438, 0.1717520
342.7259, 0.6200590
343.2080, 0.7164870
343.6901, 0.5898290
344.1722, 0.4077570
344.6544, 0.2347190
345.1365, 8.7752998E-02
345.6186, 2.1645000E-02
346.1007, 0.1949780
346.5828, 3.5300001E-03
347.0649, 0.1946550
347.5471, 0.3381850
348.0292, 0.3673830
348.5113, 9.3149999E-03
348.9934, 0.1004370
349.4755, 2.4889000E-02
349.9576, 0.5345320
350.4398, 0.7164720
350.9219, 0.5597310
351.4040, 0.3534620
351.8861, 0.2127370
352.3682, 0.1461540
352.8503, 0.1568060
353.3325, 0.2559700
353.8146, 0.4342270
354.2967, 0.5636820
354.7788, 0.6381360
355.2609, 0.6694740
355.7430, 0.6286960
356.2252, 0.5552950
356.7073, 0.5089160
357.1894, 0.5183940
357.6715, 0.5512630
358.1536, 0.5235180
358.6357, 0.3804200
359.1179, 0.2638970
359.5999, 0.1337380
360.0821, 4.3839999E-02
360.5642, 6.1712999E-02
361.0463, 0.1888180
361.5284, 0.3498330
362.0105, 0.4564940
362.4926, 0.5057210
362.9748, 0.5050080
363.4569, 0.3934730
363.9390, 0.2922590
364.4211, 0.2436070
364.9032, 0.2495210
365.3853, 0.3052820
365.8675, 0.4175980
366.3496, 0.5759580
366.8317, 0.6794550
367.3138, 0.7174260
367.7959, 0.7192550
368.2780, 0.6417290
368.7602, 0.5462960
369.2423, 0.4914880
369.7244, 0.5025740
370.2065, 0.5671190
370.6886, 0.6724130
371.1707, 0.8532200
371.6529, 0.9985660
372.1350, 1.056163
372.6171, 1.094157
373.0992, 1.200218
373.5813, 1.369129
374.0634, 1.471061
374.5456, 1.297098
375.0277, 0.8248300
375.5098, 0.5820440
375.9919, 0.7805090
376.4740, 1.001631
376.9561, 1.008211
377.4383, 0.8851320
377.9204, 0.8547200
378.4025, 1.121316
378.8846, 1.525856
379.3667, 1.562797
379.8488, 1.045817
380.3310, 0.6509580
380.8131, 0.8168060
381.2952, 1.195541
381.7773, 1.407242
382.2594, 1.340837
382.7415, 1.168947
383.2237, 1.051204
383.7058, 0.9857840
384.1879, 0.9662900
384.6700, 1.053800
385.1521, 1.154111
385.6342, 1.181382
386.1164, 1.134811
386.5985, 1.048093
387.0806, 0.9175410
387.5627, 0.7751470
388.0448, 0.6718770
388.5269, 0.6201970
389.0091, 0.5750390
389.4912, 0.4991400
389.9733, 0.3995920
390.4554, 0.2884150
390.9375, 0.1521160
391.4196, 4.6539001E-02
391.9018, 1.2762000E-02
392.3839, 4.6126999E-02
392.8660, 0.1407340
393.3481, 0.3251290
393.8302, 0.5344180
394.3123, 0.6531480
394.7945, 0.6674250
395.2766, 0.6711670
395.7587, 0.7499460
396.2408, 0.8293680
396.7229, 0.7442180
397.2050, 0.4457290
397.6872, 0.1263580
398.1693, 9.8519996E-03
398.6514, 0.1174790
399.1335, 0.1990280
399.6156, 0.3004520
400.0977, 0.3781790
400.5798, 0.3465130
401.0620, 0.2309970
401.5441, 0.1404250
402.0262, 0.1593680
402.5083, 0.2518180
402.9904, 0.2364710
403.4725, 9.1070002E-03
403.9547, 5.4850001E-03
404.4368, 2.6487000E-02
404.9189, 7.7891998E-02
405.4010, 0.3690710
405.8831, 0.6857860
406.3652, 0.9401540
406.8474, 0.9945240
407.3295, 0.7856430
407.8116, 0.5595700
408.2937, 0.2488920
408.7758, 1.8424001E-02
409.2579, 4.5340001E-03
409.7401, 1.3381000E-02
410.2222, 2.0195000E-02
410.7043, 2.6565000E-02
411.1864, 0.2516890
411.6685, 0.4211600
412.1506, 0.3423130
412.6328, 0.3228220
413.1149, 0.4962610
413.5970, 0.7117000
414.0791, 0.7985340
414.5612, 0.6997170
415.0433, 0.4935030
415.5255, 0.2722460
416.0076, 8.8090003E-03
416.4897, 8.7890001E-03
416.9718, 1.6331000E-02
417.4539, 0.1310410
417.9360, 0.2990770
418.4182, 0.4467350
418.9003, 0.5429490
419.3824, 0.5548600
419.8645, 0.4986570
420.3466, 0.4470420
420.8287, 0.4074680
421.3109, 0.3569910
421.7930, 0.2549010
422.2751, 0.1508530
422.7572, 0.1219880
423.2393, 0.2078230
423.7214, 0.2840840
424.2036, 0.1418240
424.6857, 2.4682000E-02
425.1678, 1.1108000E-02
425.6499, 3.9370999E-02
426.1320, 0.4709250
426.6141, 0.6028870
427.0963, 0.4651100
427.5784, 0.2772590
428.0605, 7.5336002E-02
428.5426, 1.3120000E-03
429.0247, 9.8600006E-04
429.5068, 1.5221000E-02
429.9890, 2.4580001E-03
430.4711, 9.1761999E-02
430.9532, 0.2554840
431.4353, 0.3279520
431.9174, 0.2633750
432.3995, 0.1750550
432.8817, 0.1052520
433.3638, 5.4037001E-02
433.8459, 1.6119000E-02
434.3280, 1.2415000E-02
434.8101, 9.5670000E-03
435.2922, 7.8276001E-02
435.7744, 0.3015220
436.2565, 0.3835570
436.7386, 0.1585190
437.2207, 1.0950000E-02
437.7028, 2.0849001E-02
438.1849, 6.2599999E-04
438.6671, 0.1567120
439.1492, 0.2435340
439.6313, 0.2700490
440.1134, 0.2936920
440.5955, 0.3124990
441.0776, 0.3309280
441.5598, 0.3316200
442.0418, 0.3412910
442.5240, 0.4266640
443.0061, 0.5875420
443.4882, 0.7021890
443.9703, 0.5805150
444.4524, 0.1352880
444.9345, 1.3458000E-02
445.4167, 3.3780001E-03
445.8988, 1.1036000E-02
446.3809, 2.4075000E-02
446.8630, 1.4153000E-02
447.3451, 1.4663000E-02
447.8272, 0.1802790
448.3094, 0.4794690
448.7915, 0.5523930
449.2736, 0.3138980
449.7557, 9.1610998E-02
450.2378, 1.1680000E-03
450.7199, 2.0543000E-02
451.2021, 2.5330000E-02
451.6842, 0.1303710
452.1663, 0.3423150
452.6484, 0.2947060
453.1305, 6.2013000E-02
453.6126, 1.4520000E-02
454.0948, 0.2771370
454.5769, 0.4793760
455.0590, 0.2146020
455.5411, 5.0969999E-03
456.0232, 0.1779430
456.5053, 7.7169999E-03
456.9875, 0.1161350
457.4696, 8.8495001E-02
457.9517, 1.0969000E-02
458.4338, 0.1302430
458.9159, 6.1436001E-02
459.3980, 1.0376000E-02
459.8802, 2.9095000E-02
460.3623, 0.1741940
460.8444, 0.2952840
461.3265, 0.4383180
461.8086, 0.5192770
462.2907, 0.3968420
462.7729, 0.1162290
463.2550, 9.0910001E-03
463.7371, 7.0923999E-02
464.2192, 9.9682003E-02
464.7013, 0.2497850
465.1834, 0.3172620
465.6656, 6.3600004E-02
466.1477, 0.2246200
466.6298, 0.2182100
467.1119, 0.2058580
467.5940, 0.4226900
468.0761, 0.6295070
468.5583, 0.7969390
469.0404, 0.8087600
469.5225, 0.8233100
470.0046, 0.8527200
470.4867, 0.8725100
470.9688, 0.8747160
471.4510, 0.8670300
471.9331, 0.8701890
472.4152, 0.8975230
472.8973, 0.9303390
473.3794, 0.8931750
473.8615, 0.7448190
474.3437, 0.6990430
474.8258, 0.9091550
475.3079, 1.150180
475.7900, 1.326627
476.2721, 1.416583
476.7542, 1.372426
477.2364, 0.9862740
477.7185, 0.4938400
478.2006, 0.4720230
478.6827, 1.004369
479.1648, 1.466278
479.6469, 1.487834
480.1291, 1.263542
480.6112, 1.157065
481.0933, 1.229438
481.5754, 1.299895
482.0575, 1.240360
482.5396, 1.114458
483.0217, 1.080329
483.5038, 1.185443
483.9860, 1.299549
484.4681, 1.309443
484.9502, 1.207395
485.4323, 1.090371
485.9144, 0.9256050
486.3965, 0.7794900
486.8787, 0.6461360
487.3608, 0.5640530
487.8429, 0.6420970
488.3250, 0.9203630
488.8071, 1.231412
489.2892, 1.262689
489.7714, 0.8313660
490.2535, 0.5682880
490.7356, 0.5254730
491.2177, 0.5724260
491.6998, 0.7134070
492.1819, 0.8884630
492.6641, 0.9717870
493.1462, 0.8630340
493.6283, 0.6534940
494.1104, 0.6515690
494.5925, 0.9949340
495.0746, 1.167091
495.5568, 0.7990670
496.0389, 0.4019670
496.5210, 0.3739800
497.0031, 0.7200170
497.4852, 1.073595
497.9673, 1.177063
498.4495, 1.091865
498.9316, 0.9488600
499.4137, 0.7214890
499.8958, 0.5862030
500.3779, 0.7143360
500.8600, 0.9816740
501.3422, 1.117231
501.8243, 1.038112
502.3064, 0.9791480
502.7885, 1.131512
503.2706, 1.366103
503.7527, 1.424301
504.2349, 1.240749
504.7170, 0.9527850
505.1991, 0.6878120
505.6812, 0.4446760
506.1633, 0.2929900
506.6454, 0.2365680
507.1276, 0.2551650
507.6097, 0.4196380
508.0918, 0.6332420
508.5739, 0.7389060
509.0560, 0.6822370
509.5381, 0.5507360
510.0203, 0.4638690
510.5024, 0.4155760
510.9845, 0.4126630
511.4666, 0.5550700
511.9487, 0.6522570
512.4308, 0.6186790
512.9130, 0.4853660
513.3951, 0.3065750
513.8772, 8.6681999E-02
514.3593, 2.3683000E-02
514.8414, 7.3040002E-03
515.3235, 1.1990000E-03
515.8057, 4.8202999E-02
516.2878, 0.2358440
516.7699, 0.3887400
517.2520, 0.3861170
517.7341, 0.2498510
518.2162, 0.1400110
518.6984, 0.1186900
519.1805, 0.1553250
519.6626, 0.2708170
520.1447, 0.4573910
520.6268, 0.5234260
521.1089, 0.3301260
521.5911, 1.0313000E-02
522.0732, 1.4197000E-02
522.5553, 2.4762999E-02
523.0374, 0.1469020
523.5195, 0.2131240
524.0016, 0.2542480
524.4838, 0.2787020
524.9659, 0.2987160
525.4480, 0.3666020
525.9301, 0.5381800
526.4122, 0.7633900
526.8943, 0.7757070
527.3765, 0.3639490
527.8586, 3.4894999E-02
528.3407, 2.8099000E-02
528.8228, 7.9880003E-03
529.3049, 8.7010004E-03
529.7870, 0.2391520
530.2692, 0.5899390
530.7513, 0.5043540
531.2334, 8.5111998E-02
531.7155, 1.1456000E-02
532.1976, 0.1539480
532.6797, 0.3912160
533.1619, 0.5811570
533.6440, 0.6656260
534.1261, 0.5139470
534.6082, 6.8843000E-02
535.0903, 2.7539000E-02
535.5724, 7.9089999E-03
536.0546, 1.2897000E-02
536.5367, 1.0203000E-02
537.0188, 4.9200002E-03
537.5009, 1.7960001E-03
537.9830, 2.1655999E-02
538.4651, 0.3399560
538.9473, 0.5614890
539.4294, 0.3756430
539.9115, 0.1760960
540.3936, 5.0237000E-02
540.8757, 1.9472999E-02
541.3578, 6.2870001E-03
541.8400, 9.0429997E-03
542.3221, 1.1994000E-02
542.8042, 6.5200001E-02
543.2863, 0.1859010
543.7684, 0.2378500
544.2505, 0.1405590
544.7326, 6.9121003E-02
545.2147, 3.8215999E-02
545.6968, 5.8706999E-02
546.1790, 0.1616780
546.6611, 0.3483900
547.1432, 0.5431220
547.6253, 0.6866840
548.1074, 0.7752980
548.5895, 0.7292550
549.0717, 0.4569180
549.5538, 0.2412420
550.0359, 0.3416360
550.5180, 0.5844850
551.0001, 0.7081860
551.4822, 0.6350460
551.9644, 0.5261540
552.4465, 0.4832640
552.9286, 0.4759480
553.4107, 0.4286490
553.8928, 0.3253550
554.3749, 0.2391130
554.8571, 0.2371610
555.3392, 0.3179780
555.8213, 0.4075760
556.3034, 0.6003390
556.7855, 0.6870140
557.2676, 0.5209030
557.7498, 0.2644100
558.2319, 0.1174480
558.7140, 0.1214700
559.1961, 0.1717800
559.6782, 0.1521030
560.1603, 6.1546002E-02
560.6425, 8.5209999E-03
561.1246, 9.3120001E-03
561.6067, 3.2569999E-03
562.0888, 5.5091001E-02
562.5709, 0.2647270
563.0530, 0.4320200
563.5352, 0.5351630
564.0173, 0.5444330
564.4994, 0.3756980
564.9815, 9.0112999E-02
565.4636, 9.6930005E-03
565.9457, 2.7292000E-02
566.4279, 5.4720002E-03
566.9100, 9.8299999E-03
567.3921, 2.5843000E-02
567.8742, 2.1152001E-02
568.3563, 0.2548910
568.8384, 0.4883280
569.3206, 0.4892560
569.8027, 0.3456440
570.2848, 9.9088997E-02
570.7669, 2.2802001E-02
571.2490, 7.2070003E-02
571.7311, 4.3981999E-02
572.2133, 1.2528000E-02
572.6954, 4.7860001E-03
573.1775, 9.9440003E-03
573.6596, 4.1260002E-03
574.1417, 7.7669002E-02
574.6238, 0.1536430
575.1060, 9.7092003E-02
575.5881, 2.3862001E-02
576.0702, 9.0760002E-03
576.5523, 1.3953000E-02
577.0344, 0.1387240
577.5165, 0.2439790
577.9987, 0.1616730
578.4808, 7.5622000E-02
578.9629, 3.4283999E-02
579.4450, 5.2951999E-02
579.9271, 0.1785720
580.4092, 0.4514670
580.8914, 0.6183440
581.3735, 0.4907480
581.8556, 0.2681070
582.3377, 0.1699810
582.8198, 0.1980400
583.3019, 0.2546680
583.7841, 0.2888240
584.2662, 0.3013180
584.7483, 0.2950880
585.2304, 0.2758130
585.7125, 0.2248140
586.1946, 7.6142997E-02
586.6768, 3.5280001E-03
587.1589, 2.1214001E-02
587.6410, 1.5651001E-02
588.1231, 3.6093999E-02
588.6052, 0.4537030
589.0873, 0.9322270
589.5695, 1.004185
590.0516, 0.6013540
590.5337, 0.3475220
591.0158, 0.4333020
591.4979, 0.6221010
591.9800, 0.7342170
592.4622, 0.7815090
592.9443, 0.7983300
593.4264, 0.8144630
593.9085, 0.8257060
594.3906, 0.8319150
594.8727, 0.8082850
595.3549, 0.6919040
595.8370, 0.4647150
596.3191, 0.2514450
596.8012, 0.2118490
597.2833, 0.3662590
597.7654, 0.4861420
598.2476, 0.5805070
598.7297, 0.6372210
599.2118, 0.6044390
599.6939, 0.5552420
600.1760, 0.6018100
600.6581, 0.7681840
601.1403, 0.9460510
601.6224, 1.015831
602.1045, 0.9809910
602.5866, 0.8930800
603.0687, 0.6815450
603.5508, 0.5755880
604.0330, 0.8095910
604.5151, 1.173176
604.9972, 1.367165
605.4793, 1.337512
605.9614, 1.332487
606.4435, 1.566763
606.9257, 1.856076
607.4078, 1.919447
607.8899, 1.750488
608.3720, 1.529480
608.8541, 1.367483
609.3362, 1.254903
609.8184, 1.153786
610.3005, 1.070513
610.7826, 1.018224
611.2647, 1.029478
611.7468, 1.042158
612.2289, 1.003918
612.7111, 0.9325240
613.1932, 0.8859010
613.6753, 0.9010750
614.1574, 0.9451290
614.6395, 0.9547200
615.1216, 0.9269970
615.6038, 0.9073180
616.0859, 0.9248560
616.5680, 0.9217510
617.0501, 0.8242580
617.5322, 0.6620630
618.0143, 0.5349860
618.4965, 0.4017670
618.9786, 0.3731380
619.4607, 0.6478260
619.9428, 1.051318
620.4249, 1.217752
620.9070, 1.068248
621.3892, 0.8415570
621.8713, 0.7915340
622.3534, 0.9134780
622.8355, 0.8682890
623.3176, 0.4255850
623.7997, 9.9964000E-02
624.2819, 5.4500001E-03
624.7640, 4.0061999E-02
625.2461, 0.1636370
625.7282, 0.3466730
626.2103, 0.4949250
626.6924, 0.4991920
627.1745, 0.3938600
627.6566, 0.2876360
628.1387, 0.1957210
628.6208, 0.1065350
629.1030, 2.8260001E-03
629.5851, 2.2900000E-03
630.0672, 2.1927999E-02
630.5493, 0.1866470
631.0314, 0.2658840
631.5135, 4.7612999E-02
631.9957, 3.5372000E-02
632.4778, 1.6000000E-03
632.9599, 1.9172000E-02
633.4420, 2.2066001E-02
633.9241, 1.8975001E-02
634.4063, 0.2497240
634.8884, 0.4803190
635.3705, 0.7178940
635.8526, 0.7941470
636.3347, 0.6120800
636.8168, 0.4262970
637.2990, 0.3089360
637.7811, 0.2450570
638.2632, 0.2184090
638.7453, 0.2263360
639.2274, 0.2643230
639.7095, 0.3794770
640.1917, 0.5040550
640.6738, 0.4808960
641.1559, 0.3089370
641.6380, 0.1838680
642.1201, 0.2221150
642.6022, 0.3546730
643.0844, 0.4377770
643.5665, 0.4517500
644.0486, 0.4581560
644.5307, 0.3649620
645.0128, 0.3407000
645.4949, 0.5975720
645.9771, 0.9781460
646.4592, 1.139795
646.9413, 0.9344740
647.4234, 0.6063170
647.9055, 0.5314520
648.3876, 0.7027580
648.8698, 0.7495630
649.3519, 0.5967550
649.8340, 0.4211050
650.3161, 0.2978820
650.7982, 0.2364400
651.2803, 0.2756360
651.7625, 0.4929300
652.2446, 0.6163470
652.7267, 0.4604540
653.2088, 0.2066100
653.6909, 3.6960000E-03
654.1730, 2.4754001E-02
654.6552, 2.4271000E-02
655.1373, 0.3028840
655.6194, 0.7210850
656.1015, 0.8352180
656.5836, 0.4742930
657.0657, 0.2509710
657.5479, 0.3074520
658.0300, 0.4036370
658.5121, 0.4522130
658.9942, 0.4679840
659.4763, 0.4993780
659.9584, 0.5677430
660.4406, 0.5723810
660.9227, 0.3007720
661.4048, 2.2727000E-02
661.8869, 6.1999999E-05
662.3690, 9.0382002E-02
662.8511, 0.3677630
663.3333, 0.3488800
663.8154, 0.1247650
664.2975, 7.7702001E-02
664.7796, 0.5218210
665.2617, 0.6977170
665.7438, 0.3038320
666.2260, 4.3119998E-03
666.7081, 2.1677000E-02
667.1902, 7.9285003E-02
667.6723, 0.3217160
668.1544, 0.4188240
668.6365, 0.4257290
669.1187, 0.4168230
669.6008, 0.3929970
670.0829, 0.3263570
670.5650, 0.1797220
671.0471, 8.6845003E-02
671.5292, 0.1860250
672.0114, 0.4090950
672.4935, 0.4856640
672.9756, 0.3092240
673.4577, 0.1726810
673.9398, 0.1754650
674.4219, 0.2290450
674.9041, 0.2603320
675.3862, 0.2595510
675.8683, 0.2329150
676.3504, 0.1796580
676.8325, 0.1264200
677.3146, 0.1441750
677.7968, 0.2505350
678.2789, 0.3430130
678.7610, 0.4143810
679.2431, 0.4664210
679.7252, 0.5041550
680.2073, 0.5244500
680.6895, 0.5179080
681.1716, 0.4752710
681.6537, 0.4239150
682.1358, 0.4230210
682.6179, 0.4022940
683.1000, 0.1841520
683.5822, 2.3530001E-02
684.0643, 0.1115470
684.5464, 2.3990000E-02
685.0285, 5.7270002E-02
685.5106, 0.1809340
685.9927, 1.8304000E-02
686.4749, 2.4180000E-03
686.9570, 1.9067001E-02
687.4391, 1.1141000E-02
687.9212, 0.1560180
688.4033, 0.3020750
688.8854, 0.4799820
689.3676, 0.7337780
689.8497, 0.8571920
690.3318, 0.5800370
690.8139, 8.7484002E-02
691.2960, 6.1710002E-03
691.7781, 1.6559999E-02
692.2603, 1.4990000E-03
692.7424, 8.5100001E-03
693.2245, 4.5588002E-02
693.7066, 0.2151770
694.1887, 0.2720710
694.6708, 0.3102430
695.1530, 0.3104150
695.6351, 0.3206630
696.1172, 0.3832730
696.5993, 0.4667210
697.0814, 0.5266080
697.5635, 0.5493070
698.0457, 0.5101810
698.5278, 0.3206190
699.0099, 5.0590001E-02
699.4920, 6.9780000E-03
699.9741, 7.2563000E-02
700.4562, 0.1537190
700.9384, 6.2013999E-02
701.4205, 1.6075000E-02
701.9026, 1.7175000E-02
702.3847, 2.1160999E-02
702.8668, 1.1631000E-02
703.3489, 9.2550004E-03
703.8311, 1.9583000E-02
704.3132, 0.1047130
704.7953, 0.1339020
705.2774, 0.1136230
705.7595, 4.9906000E-02
706.2416, 1.3223000E-02
706.7238, 7.3400000E-03
707.2059, 2.0955000E-02
707.6880, 6.1007001E-02
708.1701, 0.2402720
708.6522, 0.3540070
709.1343, 0.3121440
709.6164, 0.2114790
710.0985, 0.2342320
710.5806, 0.4221690
711.0627, 0.4256050
711.5449, 8.6979996E-03
712.0270, 0.1157770
712.5091, 1.6743001E-02
712.9912, 8.2440004E-03
713.4733, 0.2875260
713.9554, 0.4241140
714.4376, 0.4758390
714.9197, 0.5109140
715.4018, 0.5052260
715.8839, 0.3249320
716.3660, 5.3320001E-03
716.8481, 9.5469998E-03
717.3303, 3.3498999E-02
717.8124, 0.4534960
718.2945, 0.6356340
718.7766, 0.5992670
719.2587, 0.5439320
719.7408, 0.4337650
720.2230, 0.3870970
720.7051, 0.5015410
721.1872, 0.6492720
721.6693, 0.6663090
722.1514, 0.5427810
722.6335, 0.4019860
723.1157, 0.3325820
723.5978, 0.3173870
724.0799, 0.3230360
724.5620, 0.3611040
725.0441, 0.3292570
725.5262, 0.1396890
726.0084, 2.6640000E-03
726.4905, 3.1790000E-03
726.9726, 0.1733320
727.4547, 0.2282400
727.9368, 1.2385000E-02
728.4189, 1.5213000E-02
728.9011, 0.2200460
729.3832, 0.5618380
729.8653, 0.4911280
730.3474, 0.1036500
730.8295, 2.2941999E-02
731.3116, 1.1115000E-02
731.7938, 0.2560000
732.2759, 0.4125840
732.7580, 0.4296840
733.2401, 0.4627390
733.7222, 0.5491860
734.2043, 0.5705840
734.6865, 0.4172190
735.1686, 0.1816900
735.6507, 7.0739001E-02
736.1328, 0.1228570
736.6149, 0.1821940
737.0970, 0.1775440
737.5792, 0.1986110
738.0613, 0.3461330
738.5434, 0.5607750
739.0255, 0.7462680
739.5076, 0.8645850
739.9897, 0.9006730
740.4719, 0.8206400
740.9540, 0.6348980
741.4361, 0.4175410
741.9182, 0.1514050
742.4003, 4.1390001E-03
742.8824, 3.7268002E-02
743.3646, 0.1552880
743.8467, 0.2340040
744.3288, 0.2723140
744.8109, 0.2855330
745.2930, 0.2414470
745.7751, 0.2113700
746.2573, 0.2477430
746.7394, 0.3045010
747.2215, 0.3125090
747.7036, 0.2737030
748.1857, 0.2700020
748.6678, 0.3944140
749.1500, 0.5311880
749.6321, 0.3976000
750.1142, 1.1020000E-03
750.5963, 2.1537000E-02
751.0784, 1.2510000E-02
751.5605, 3.0779999E-03
752.0427, 7.8993998E-02
752.5248, 0.2257260
753.0069, 0.2947130
753.4890, 0.2045930
753.9711, 0.1699020
754.4532, 0.2902850
754.9354, 0.4106450
755.4175, 0.4078200
755.8996, 0.3151590
756.3817, 0.2198350
756.8638, 0.1559530
757.3459, 0.1307590
757.8281, 0.1791000
758.3102, 0.2783040
758.7923, 0.3563840
759.2744, 0.4035260
759.7565, 0.3934730
760.2386, 0.2992140
760.7208, 0.1803290
761.2029, 0.1420720
761.6850, 0.2045160
762.1671, 0.2788920
762.6492, 0.4135360
763.1313, 0.4979100
763.6135, 0.4925300
764.0956, 0.4199310
764.5777, 0.2634030
765.0598, 4.7814999E-02
765.5419, 5.7190000E-03
766.0240, 9.9309999E-03
766.5062, 0.1547700
766.9883, 0.2160690
767.4704, 0.2039610
767.9525, 0.2686790
768.4346, 0.4510000
768.9167, 0.5773340
769.3989, 0.4679080
769.8810, 0.1637030
770.3631, 4.1187000E-02
770.8452, 0.2992870
771.3273, 0.3806600
771.8094, 3.5751000E-02
772.2916, 1.8921999E-02
772.7737, 2.2174001E-02
773.2558, 9.0669999E-03
773.7379, 5.5613998E-02
774.2200, 1.0986000E-02
774.7021, 2.0128001E-02
775.1843, 1.6942000E-02
775.6664, 0.1287560
776.1485, 0.3674850
776.6306, 0.5909850
777.1127, 0.6451500
777.5948, 0.4579100
778.0770, 0.1765110
778.5591, 1.4517000E-02
779.0412, 2.5389001E-02
779.5233, 9.6899999E-04
780.0054, 0.1422380
780.4875, 0.2339650
780.9697, 0.1616000
781.4518, 5.6768000E-02
781.9339, 8.2842000E-02
782.4160, 0.2227030
782.8981, 0.2542520
783.3802, 1.2991000E-02
783.8624, 1.5503000E-02
784.3445, 2.8949999E-03
784.8266, 0.2756790
785.3087, 0.3528570
785.7908, 0.1554400
786.2729, 6.4119999E-03
786.7551, 9.3787000E-02
787.2372, 0.3226720
787.7193, 0.4336800
788.2014, 0.4270890
788.6835, 0.3449280
789.1656, 0.1851860
789.6478, 1.3800000E-02
790.1299, 1.3993000E-02
790.6120, 3.1945001E-02
791.0941, 2.3821000E-02
791.5762, 0.5002140
792.0583, 0.8537880
792.5404, 0.6435000
793.0225, 0.3010260
793.5046, 6.0069999E-03
793.9868, 3.0548999E-02
794.4689, 7.5291999E-02
794.9510, 1.3909000E-02
795.4331, 1.0567000E-02
795.9152, 0.2279000
796.3973, 0.5473920
796.8795, 0.4964730
797.3616, 0.1582180
797.8437, 3.9455999E-02
798.3258, 1.3090000E-02
798.8079, 9.6303999E-02
799.2900, 3.7590000E-03
799.7722, 1.3700000E-03
800.2543, 8.6890003E-03
800.7364, 0.1590590
801.2185, 0.4807960
801.7006, 0.7633840
802.1827, 0.9303770
802.6649, 0.8733260
803.1470, 0.6916100
803.6291, 0.5720180
804.1112, 0.5675960
804.5933, 0.5399460
805.0754, 0.3655390
805.5576, 0.1792080
806.0397, 0.1469810
806.5218, 0.2119960
807.0039, 0.2041450
807.4860, 7.1416996E-02
807.9681, 3.0843999E-02
808.4503, 1.4566000E-02
808.9324, 6.7560002E-03
809.4145, 0.1021070
809.8966, 0.2047490
810.3787, 0.3031060
810.8608, 0.4047790
811.3430, 0.4844400
811.8251, 0.5264520
812.3072, 0.5267820
812.7893, 0.4680960
813.2714, 0.2397300
813.7535, 0.1181650
814.2357, 0.2166140
814.7178, 0.3656890
815.1999, 0.4516200
815.6820, 0.4962850
816.1641, 0.5940860
816.6462, 0.7806590
817.1284, 0.8890610
817.6105, 0.7019170
818.0926, 0.3579530
818.5747, 7.4532002E-02
819.0568, 1.4218000E-02
819.5389, 8.2660001E-03
820.0211, 0.1444850
820.5032, 0.4504770
820.9853, 0.5378470
821.4674, 0.4297910
821.9495, 0.5062310
822.4316, 0.9528260
822.9138, 1.176495
823.3959, 0.8845410
823.8780, 0.5269400
824.3601, 0.4023890
824.8422, 0.4355300
825.3243, 0.4180280
825.8065, 0.2783560
826.2886, 0.1777400
826.7707, 0.2184450
827.2528, 0.2898240
827.7349, 0.2902160
828.2170, 0.2416990
828.6992, 0.2114220
829.1813, 0.2224660
829.6634, 0.2450990
830.1455, 0.2421920
830.6276, 0.2250860
831.1097, 0.1857360
831.5919, 0.1246730
832.0740, 0.1970210
832.5561, 0.4814420
833.0382, 0.7813730
833.5203, 0.9040690
834.0024, 0.8542270
834.4846, 0.7515610
834.9667, 0.4982200
835.4488, 0.3560460
835.9309, 0.4027420
836.4130, 0.4886690
836.8951, 0.5664010
837.3773, 0.6211410
837.8594, 0.6057210
838.3415, 0.4938220
838.8236, 0.4514070
839.3057, 0.6267180
839.7878, 0.8578980
840.2700, 1.025470
840.7521, 1.116576
841.2342, 1.083369
841.7163, 0.9321510
842.1984, 0.8224190
842.6805, 0.9263970
843.1627, 1.128509
843.6448, 1.012053
844.1269, 0.5560200
844.6090, 0.3076190
845.0911, 0.3925780
845.5732, 0.5943300
846.0554, 0.8082880
846.5375, 0.9977130
847.0196, 1.051332
847.5017, 0.8907030
847.9838, 0.7616080
848.4659, 0.7309580
848.9481, 0.6621370
849.4302, 0.3911210
849.9123, 0.1204840
850.3944, 0.1476150
850.8765, 0.4815480
851.3586, 0.7760250
851.8408, 0.8155470
852.3229, 0.7841670
852.8050, 0.8642020
853.2871, 0.9759970
853.7692, 0.9577260
854.2513, 0.8090030
854.7335, 0.6911780
855.2156, 0.7125540
855.6977, 0.7752190
856.1798, 0.6719050
856.6619, 0.4150990
857.1440, 0.3260120
857.6262, 0.4438950
858.1083, 0.5357490
858.5904, 0.4685980
859.0725, 0.3958700
859.5546, 0.5808600
860.0367, 1.068485
860.5189, 1.282133
861.0010, 0.9620150
861.4831, 0.7160360
861.9652, 0.7010080
862.4473, 0.7490690
862.9294, 0.7465650
863.4116, 0.6937560
863.8937, 0.6190020
864.3758, 0.5155340
864.8579, 0.4573460
865.3400, 0.5569870
865.8221, 0.6812970
866.3043, 0.6397010
866.7864, 0.4878040
867.2685, 0.3952160
867.7506, 0.4181630
868.2327, 0.4888180
868.7148, 0.5283950
869.1970, 0.5560240
869.6791, 0.6364190
870.1612, 0.7641870
870.6433, 0.8390040
871.1254, 0.8299530
871.6075, 0.8122180
872.0897, 0.8546360
872.5718, 0.9230420
873.0539, 0.9010650
873.5360, 0.6931470
874.0181, 0.5910170
874.5002, 0.6612810
874.9823, 0.7627620
875.4644, 0.9439770
875.9465, 1.082818
876.4286, 0.9577190
876.9108, 0.5757760
877.3929, 0.2880150
877.8750, 0.2401780
878.3571, 0.2889680
878.8392, 0.4215480
879.3214, 0.5609420
879.8035, 0.6181680
880.2856, 0.5968990
880.7677, 0.4938580
881.2498, 0.2961270
881.7319, 0.1721930
882.2141, 0.4410900
882.6962, 0.9310280
883.1783, 1.094105
883.6604, 0.9348210
884.1425, 0.7256090
884.6246, 0.5563200
885.1068, 0.4394600
885.5889, 0.3948570
886.0710, 0.4155960
886.5531, 0.4619580
887.0352, 0.5817510
887.5173, 0.5792280
887.9995, 0.3458550
888.4816, 0.1041600
888.9637, 1.2850000E-03
889.4458, 2.3552001E-02
889.9279, 1.4590000E-02
890.4100, 7.4370001E-03
890.8922, 1.5618000E-02
891.3743, 0.1424800
891.8564, 0.4608600
892.3385, 0.2728900
892.8206, 4.4000000E-03
893.3027, 4.0224999E-02
893.7849, 0.3028420
894.2670, 0.4447030
894.7491, 0.4722760
895.2312, 4.3194000E-02
895.7133, 0.2038090
896.1954, 0.1281150
896.6776, 4.2730000E-02
897.1597, 0.2863660
897.6418, 0.1888870
898.1239, 0.3564760
898.6060, 0.5262400
899.0881, 0.5772680
899.5703, 0.5120660
900.0524, 0.2883100
900.5345, 9.6519999E-03
901.0166, 1.1369000E-02
901.4987, 9.7549995E-03
901.9808, 2.2678999E-02
902.4630, 1.5426000E-02
902.9451, 0.1180420
903.4272, 0.1350900
903.9093, 1.4600000E-02
904.3914, 9.5229996E-03
904.8735, 2.7184000E-02
905.3557, 1.1612000E-02
905.8378, 1.4698000E-02
906.3199, 2.8835000E-02
906.8020, 0.1209630
907.2841, 0.3351170
907.7662, 0.4152170
908.2484, 0.1446320
908.7305, 5.6659998E-03
909.2126, 7.4721001E-02
909.6947, 0.2880960
910.1768, 0.3899770
910.6589, 0.3823520
911.1411, 0.3263070
911.6232, 0.2433070
912.1053, 0.1611080
912.5874, 0.1246630
913.0695, 9.0148002E-02
913.5516, 8.2800002E-04
914.0338, 7.5030001E-03
914.5159, 1.4464000E-02
914.9980, 5.8160000E-03
915.4801, 1.3255000E-02
915.9622, 0.1094870
916.4443, 0.3256290
916.9265, 0.2943130
917.4086, 1.6543999E-02
917.8907, 1.3010000E-03
918.3728, 1.2700000E-03
918.8549, 1.3689999E-03
919.3370, 1.9172000E-02
919.8192, 1.7140000E-03
920.3013, 1.3511000E-02
920.7834, 2.0463999E-02
921.2655, 8.5800001E-03
921.7476, 9.3144000E-02
922.2297, 0.1540450
922.7119, 9.2000002E-03
923.1940, 4.7459998E-03
923.6761, 5.8821999E-02
924.1582, 6.3203998E-02
924.6403, 3.8109999E-03
925.1224, 0.2690650
925.6046, 0.5041460
926.0867, 0.2226890
926.5688, 2.2000000E-03
927.0509, 8.3280001E-03
927.5330, 5.2643999E-02
928.0151, 0.1842340
928.4973, 0.2771510
928.9794, 0.2812850
929.4615, 0.1511210
929.9436, 1.5289000E-02
930.4257, 6.8720002E-03
930.9078, 7.3820002E-02
931.3900, 5.5820001E-03
931.8721, 6.8769999E-02
932.3542, 0.1672480
932.8363, 1.1975000E-02
933.3184, 3.8389999E-03
933.8005, 1.6054999E-02
934.2827, 0.3107500
934.7648, 0.3302200
935.2469, 7.8625999E-02
935.7290, 1.6880000E-02
936.2111, 0.1193900
936.6932, 0.2188090
937.1754, 0.1072690
937.6575, 1.7764000E-02
938.1396, 5.0479998E-03
938.6217, 0.1947300
939.1038, 0.3544670
939.5859, 0.4257300
940.0681, 0.4450260
940.5502, 0.4019670
941.0323, 0.3248340
941.5144, 0.1803440
941.9965, 2.0430000E-02
942.4786, 6.7253999E-02
942.9608, 0.4755800
943.4429, 0.7193700
943.9250, 0.6756580
944.4071, 0.5954560
944.8892, 0.5996280
945.3713, 0.6095320
945.8535, 0.4775820
946.3356, 0.2353180
946.8177, 0.1159210
947.2998, 0.2295250
947.7819, 0.4220690
948.2640, 0.7255370
948.7462, 0.9852730
949.2283, 1.062180
949.7104, 0.9751300
950.1925, 0.7426820
950.6746, 0.3924360
951.1567, 0.1779790
951.6389, 0.3613450
952.1210, 0.6926900
952.6031, 0.8957200
953.0852, 0.9952810
953.5673, 1.032961
954.0494, 1.023107
954.5316, 0.9728030
955.0137, 0.8823710
955.4958, 0.8257450
955.9779, 0.9457010
956.4600, 1.198341
956.9421, 1.362028
957.4242, 1.435494
957.9063, 1.445596
958.3884, 1.389550
958.8705, 1.353334
959.3527, 1.406490
959.8348, 1.549713
960.3169, 1.797336
960.7990, 2.178738
961.2811, 2.485731
961.7632, 2.718235
962.2454, 2.855233
962.7275, 2.837189
963.2096, 2.801169
963.6917, 2.848010
964.1738, 2.989621
964.6559, 3.265006
965.1381, 3.957308
965.6202, 4.315144
966.1023, 3.996019
966.5844, 3.711562
967.0665, 3.812986
967.5486, 4.109415
968.0308, 4.385192
968.5129, 4.630464
968.9950, 4.756012
969.4771, 4.585927
969.9592, 4.488977
970.4413, 4.688679
970.9235, 4.933966
971.4056, 5.031478
971.8877, 5.003933
972.3698, 4.956077
972.8519, 4.918062
973.3340, 4.817910
973.8162, 4.507810
974.2983, 4.221196
974.7804, 4.248114
975.2625, 4.368293
975.7446, 4.253814
976.2267, 3.916684
976.7089, 3.512639
977.1910, 3.103020
977.6731, 2.786339
978.1552, 2.689411
978.6373, 2.743106
979.1194, 2.869425
979.6016, 3.030750
980.0837, 3.143430
980.5658, 3.188827
981.0479, 3.087546
981.5300, 2.780664
982.0121, 2.415009
982.4943, 2.295402
982.9764, 2.355503
983.4585, 2.148255
983.9406, 1.671670
984.4227, 1.234271
984.9048, 0.9271290
985.3870, 0.8694660
985.8691, 1.233643
986.3512, 1.794808
986.8333, 1.720095
987.3154, 0.8847080
987.7975, 0.4934890
988.2797, 0.7253980
988.7618, 0.8952030
989.2439, 0.7084640
989.7260, 0.4626770
990.2081, 0.5134080
990.6902, 0.8088190
991.1724, 0.8395010
991.6545, 0.4315910
992.1366, 0.2196810
992.6187, 0.3293380
993.1008, 0.5088300
993.5829, 0.7649780
994.0651, 0.9446250
994.5472, 0.7393300
995.0293, 0.1407530
995.5114, 3.0300001E-04
995.9935, 9.0589998E-03
996.4756, 2.2696000E-02
996.9578, 1.2811000E-02
997.4399, 8.5800001E-03
997.9220, 5.9098002E-02
998.4041, 0.2345400
998.8862, 0.1984060
999.3683, 6.3970000E-03
999.8505, 2.3104999E-02
1000.333, 5.1110000E-03
1000.815, 6.3259996E-02
1001.297, 4.0745001E-02
1001.779, 1.5395000E-02
1002.261, 4.9879998E-03
1002.743, 1.4382000E-02
1003.225, 1.5860000E-03
1003.707, 0.4594150
1004.190, 0.7693300
1004.672, 0.6008340
1005.154, 0.3520430
1005.636, 0.2289370
1006.118, 0.2108400
1006.600, 0.3606460
1007.082, 0.5740650
1007.564, 0.5514570
1008.046, 0.1794970
1008.529, 2.0450000E-02
1009.011, 1.4035000E-02
1009.493, 0.1170960
1009.975, 0.2109060
1010.457, 0.2326630
1010.939, 0.2657310
1011.421, 0.3140770
1011.903, 0.3371310
1012.385, 0.3153780
1012.868, 0.2531620
1013.350, 0.1219980
1013.832, 1.7546000E-02
1014.314, 1.0430000E-02
1014.796, 2.7679999E-03
1015.278, 1.1627000E-02
1015.760, 7.7633001E-02
1016.242, 0.1611700
1016.725, 9.4995998E-02
1017.207, 7.7269999E-03
1017.689, 9.9597998E-02
1018.171, 0.3137830
1018.653, 0.4904420
1019.135, 0.6096950
1019.617, 0.4811030
1020.099, 7.8703001E-02
1020.581, 6.8230000E-03
1021.064, 3.5156000E-02
1021.546, 0.4450350
1022.028, 0.5459430
1022.510, 0.3726900
1022.992, 0.3789430
1023.474, 0.5718920
1023.956, 0.6465620
1024.438, 0.5210500
1024.921, 0.2987930
1025.403, 3.3527002E-02
1025.885, 6.2650000E-03
1026.367, 6.5480000E-03
1026.849, 2.7160000E-03
1027.331, 1.8110000E-02
1027.813, 0.1991980
1028.295, 0.3393890
1028.777, 0.4146000
1029.260, 0.4672120
1029.742, 0.5399190
1030.224, 0.6034840
1030.706, 0.5626820
1031.188, 0.3929780
1031.670, 0.2910340
1032.152, 0.2628320
1032.634, 0.2644540
1033.116, 0.3155420
1033.599, 0.3282730
1034.081, 0.1761580
1034.563, 4.6420000E-03
1035.045, 6.5100002E-03
1035.527, 0.2620720
1036.009, 0.4913370
1036.491, 0.6907410
1036.973, 0.6839950
1037.456, 0.2282230
1037.938, 1.8606000E-02
1038.420, 7.2079999E-03
1038.902, 0.2415050
1039.384, 0.4130890
1039.866, 0.2830380
1040.348, 0.1926840
1040.830, 0.1476430
1041.313, 0.1125310
1041.795, 2.4839999E-02
1042.277, 9.4160000E-03
1042.759, 0.1703380
1043.241, 0.4693280
1043.723, 0.5842180
1044.205, 0.4592330
1044.687, 0.2953850
1045.169, 6.2859999E-03
1045.651, 1.0064000E-02
1046.134, 1.1160000E-03
1046.616, 0.1413170
1047.098, 0.2546210
1047.580, 0.2820940
1048.062, 0.3254800
1048.544, 0.4155780
1049.026, 0.4433100
1049.508, 0.2584240
1049.991, 0.1850070
1050.473, 0.5383290
1050.955, 0.8644130
1051.437, 0.6126550
1051.919, 4.8227001E-02
1052.401, 2.0199001E-02
1052.883, 0.6787760
1053.365, 1.118623
1053.848, 0.9163850
1054.330, 0.6637340
1054.812, 0.5665060
1055.294, 0.5209690
1055.776, 0.4349780
1056.258, 0.3230710
1056.740, 0.2370530
1057.222, 0.1710040
1057.704, 0.1962940
1058.187, 0.5111730
1058.669, 0.7259520
1059.151, 0.6137360
1059.633, 0.3761370
1060.115, 0.1185130
1060.597, 8.5340003E-03
1061.079, 2.6068000E-02
1061.561, 2.8328000E-02
1062.043, 1.3568000E-02
1062.526, 0.4058040
1063.008, 0.6986430
1063.490, 0.6408900
1063.972, 0.5062890
1064.454, 0.5608660
1064.936, 0.7220220
1065.418, 0.7708940
1065.900, 0.6705600
1066.383, 0.5823750
1066.865, 0.6742910
1067.347, 0.7178810
1067.829, 0.4777480
1068.311, 0.2454200
1068.793, 0.3503510
1069.275, 0.6260560
1069.757, 0.7203140
1070.240, 0.5835890
1070.722, 0.4693780
1071.204, 0.5255880
1071.686, 0.5717970
1072.168, 0.5599480
1072.650, 0.4947540
1073.132, 0.3326180
1073.614, 0.1443840
1074.096, 1.4636000E-02
1074.578, 1.1355000E-02
1075.061, 1.9440000E-03
1075.543, 0.3042000
1076.025, 0.6044120
1076.507, 0.6151500
1076.989, 0.5516580
1077.471, 0.6123020
1077.953, 0.6966450
1078.435, 0.5465880
1078.918, 0.2006030
1079.400, 6.8457000E-02
1079.882, 0.4227500
1080.364, 0.7651090
1080.846, 0.9435180
1081.328, 0.9352620
1081.810, 0.5328730
1082.292, 5.8440998E-02
1082.774, 2.5990000E-03
1083.257, 0.3145490
1083.739, 0.4872650
1084.221, 0.2946130
1084.703, 0.1244630
1085.185, 0.1870330
1085.667, 0.2891320
1086.149, 0.3263040
1086.631, 0.3208440
1087.114, 0.3274940
1087.596, 0.3254430
1088.078, 0.2011020
1088.560, 2.5591999E-02
1089.042, 6.0281999E-02
1089.524, 0.1012920
1090.006, 1.2450001E-03
1090.488, 6.7597002E-02
1090.970, 0.4445730
1091.453, 0.5953710
1091.935, 0.5655910
1092.417, 0.4976230
1092.899, 0.4193920
1093.381, 0.4311920
1093.863, 0.7505730
1094.345, 0.9050550
1094.827, 0.4581600
1095.309, 1.4429000E-02
1095.792, 1.4475000E-02
1096.274, 0.2489980
1096.756, 0.3034350
1097.238, 3.5091002E-02
1097.720, 1.0563000E-02
1098.202, 0.1364860
1098.684, 0.3289700
1099.166, 0.2222100
1099.649, 0.1050120
1100.131, 0.2089500
1100.613, 0.3944830
1101.095, 0.4498270
1101.577, 0.3654130
1102.059, 0.3308690
1102.541, 0.4570240
1103.023, 0.5270950
1103.505, 0.3760020
1103.988, 0.2972280
1104.470, 0.5393490
1104.952, 0.8288330
1105.434, 0.8682960
1105.916, 0.6794740
1106.398, 0.4680440
1106.880, 0.1886480
1107.362, 6.9032997E-02
1107.844, 0.2876670
1108.327, 0.4880040
1108.809, 0.5439190
1109.291, 0.5201030
1109.773, 0.4321900
1110.255, 0.3178500
1110.737, 0.2946910
1111.219, 0.4030880
1111.701, 0.4667260
1112.184, 0.3953780
1112.666, 0.3868700
1113.148, 0.6246330
1113.630, 0.7962120
1114.112, 0.5967100
1114.594, 0.2329040
1115.076, 8.8730000E-02
1115.558, 0.1888520
1116.041, 0.2987540
1116.523, 0.5056430
1117.005, 0.5658830
1117.487, 0.3025360
1117.969, 0.1110960
1118.451, 0.2298440
1118.933, 0.4552830
1119.415, 0.5455450
1119.897, 0.5109790
1120.380, 0.4133740
1120.862, 0.1722530
1121.344, 8.8481002E-02
1121.826, 0.3180520
1122.308, 0.3632160
1122.790, 2.0639999E-03
1123.272, 0.1928490
1123.754, 2.0223999E-02
1124.236, 0.3174090
1124.719, 0.5323910
1125.201, 0.2293460
1125.683, 2.0888001E-02
1126.165, 4.3399999E-04
1126.647, 1.2957000E-02
1127.129, 1.5930000E-03
1127.611, 0.1791640
1128.093, 0.2381670
1128.576, 4.8090001E-03
1129.058, 3.2476000E-02
1129.540, 3.9209998E-03
1130.022, 5.0769998E-03
1130.504, 0.2245580
1130.986, 5.1650000E-03
1131.468, 0.1630410
1131.950, 4.5194000E-02
1132.432, 9.2869997E-03
1132.915, 4.9245998E-02
1133.397, 1.1689000E-02
1133.879, 0.4737490
1134.361, 0.5461680
1134.843, 0.1818990
1135.325, 1.3280000E-03
1135.807, 2.5490001E-02
1136.289, 4.7472998E-02
1136.771, 0.2716350
1137.254, 0.4989590
1137.736, 0.6264190
1138.218, 0.6308660
1138.700, 0.3511580
1139.182, 2.2270000E-03
1139.664, 3.2720000E-03
1140.146, 3.5546001E-02
1140.628, 0.2511350
1141.111, 0.4129160
1141.593, 0.4442060
1142.075, 0.3026900
1142.557, 0.1373960
1143.039, 0.1413610
1143.521, 0.2113350
1144.003, 0.1581740
1144.485, 4.6484001E-02
1144.968, 1.2545000E-02
1145.450, 2.6100001E-04
1145.932, 9.7609997E-02
1146.414, 0.2720500
1146.896, 0.4631430
1147.378, 0.6590830
1147.860, 0.8165570
1148.342, 0.9308960
1148.824, 0.9387170
1149.307, 0.7326440
1149.789, 0.3934570
1150.271, 2.1693001E-02
1150.753, 6.2523998E-02
1151.235, 0.1918260
1151.717, 2.0631000E-02
1152.199, 8.1745997E-02
1152.681, 0.3588230
1153.163, 0.5005840
1153.646, 0.3632290
1154.128, 0.1431440
1154.610, 3.8135000E-02
1155.092, 2.6676999E-02
1155.574, 1.6158000E-02
1156.056, 6.9510001E-03
1156.538, 1.0937000E-02
1157.020, 1.4940000E-03
1157.503, 3.5510000E-03
1157.985, 0.1186690
1158.467, 0.5411530
1158.949, 0.5915290
1159.431, 0.4729950
1159.913, 0.5054950
1160.395, 0.6589320
1160.877, 0.5596280
1161.359, 2.4506999E-02
1161.842, 2.1539001E-02
1162.324, 0.2227800
1162.806, 0.6683810
1163.288, 0.4832260
1163.770, 0.1747880
1164.252, 8.7031998E-02
1164.734, 0.1669690
1165.216, 0.3230090
1165.698, 0.5707460
1166.181, 0.6758830
1166.663, 0.6077440
1167.145, 0.4863820
1167.627, 0.2790780
1168.109, 0.2267660
1168.591, 0.4989060
1169.073, 0.7832080
1169.555, 0.7008980
1170.037, 0.3580270
1170.520, 0.1375010
1171.002, 3.9115001E-02
1171.484, 1.3148000E-02
1171.966, 2.6404001E-02
1172.448, 9.7384997E-02
1172.930, 0.3914520
1173.412, 0.5712950
1173.894, 0.4367620
1174.377, 0.1730250
1174.859, 1.8681999E-02
1175.341, 2.9006001E-02
1175.823, 4.6071999E-02
1176.305, 0.2029610
1176.787, 0.2611700
1177.269, 0.2336590
1177.751, 0.3096020
1178.234, 0.5386110
1178.716, 0.6777150
1179.198, 0.4784140
1179.680, 0.2407060
1180.162, 0.3063690
1180.644, 0.5117100
1181.126, 0.7336450
1181.608, 0.9146160
1182.090, 0.9026700
1182.573, 0.7127000
1183.055, 0.5198080
1183.537, 0.3874690
1184.019, 0.2569370
1184.501, 3.0097000E-02
1184.983, 6.5299999E-03
1185.465, 0.1882670
1185.947, 0.4529860
1186.429, 0.2332130
1186.912, 2.4809999E-02
1187.394, 3.0234000E-02
1187.876, 0.3349210
1188.358, 0.5964900
1188.840, 0.3609940
1189.322, 0.1370910
1189.804, 1.6664000E-02
1190.286, 3.3661999E-02
1190.769, 2.3184000E-02
1191.251, 3.0105000E-02
1191.733, 0.1043310
1192.215, 0.1996270
1192.697, 3.7331000E-02
1193.179, 1.2677000E-02
1193.661, 0.1443870
1194.143, 2.5402000E-02
1194.625, 0.1808040
1195.108, 2.0429000E-02
1195.590, 0.1221000
1196.072, 0.2439890
1196.554, 0.2819250
1197.036, 0.2333300
1197.518, 0.1517910
1198.000, 0.2572060
1198.482, 0.5024830
1198.964, 0.5082740
1199.447, 0.2925250
1199.929, 0.1242640
1200.411, 6.7948997E-02
1200.893, 0.1023050
1201.375, 0.2202850
1201.857, 0.3461140
1202.339, 0.3716440
1202.821, 0.3683690
1203.304, 0.4781890
1203.786, 0.6334850
1204.268, 0.7456180
1204.750, 0.7866900
1205.232, 0.6551920
1205.714, 0.3797710
1206.196, 0.2854810
1206.678, 0.6299300
1207.161, 0.8957850
1207.643, 0.6253320
1208.125, 0.3166670
1208.607, 0.3859300
1209.089, 0.5321940
1209.571, 0.3926730
1210.053, 8.5060999E-02
1210.535, 1.5313000E-02
1211.017, 4.0284000E-02
1211.500, 5.5610999E-02
1211.982, 0.4465940
1212.464, 0.6012610
1212.946, 0.1357840
1213.428, 5.6530000E-03
1213.910, 0.2224090
1214.392, 0.6720130
1214.874, 0.6304830
1215.356, 0.2718910
1215.839, 0.1146660
1216.321, 0.1614010
1216.803, 0.2833740
1217.285, 0.5069970
1217.767, 0.6342460
1218.249, 0.6254690
1218.731, 0.5470090
1219.213, 0.4155780
1219.696, 0.3156420
1220.178, 0.3576040
1220.660, 0.4696130
1221.142, 0.4931780
1221.624, 0.4585970
1222.106, 0.4885400
1222.588, 0.5457350
1223.070, 0.4326540
1223.552, 0.1667710
1224.035, 2.0620000E-02
1224.517, 0.1242190
1224.999, 0.2954050
1225.481, 0.4240480
1225.963, 0.5092900
1226.445, 0.5101350
1226.927, 0.4656760
1227.409, 0.4649760
1227.891, 0.4368030
1228.374, 0.1710160
1228.856, 8.6930003E-03
1229.338, 3.1404998E-02
1229.820, 0.2373520
1230.302, 0.6279700
1230.784, 0.6622600
1231.266, 0.5914550
1231.748, 0.4197770
1232.231, 0.2479350
1232.713, 0.1026810
1233.195, 1.7391000E-02
1233.677, 6.2436000E-02
1234.159, 0.2159620
1234.641, 0.4341890
1235.123, 0.8019680
1235.605, 0.8106700
1236.088, 0.3524690
1236.570, 8.9458004E-02
1237.052, 0.1785720
1237.534, 0.3346110
1238.016, 0.3434320
1238.498, 0.3802850
1238.980, 0.6731170
1239.462, 1.044942
1239.944, 0.9281480
1240.427, 0.4931610
1240.909, 0.3456890
1241.391, 0.4327760
1241.873, 0.5486080
1242.355, 0.6236590
1242.837, 0.6089130
1243.319, 0.4650690
1243.801, 0.3239300
1244.283, 0.3307530
1244.766, 0.3251340
1245.248, 8.3260000E-02
1245.730, 9.5459996E-03
1246.212, 4.5651998E-02
1246.694, 0.2383470
1247.176, 0.4551590
1247.658, 0.5650690
1248.140, 0.6100950
1248.622, 0.5565010
1249.105, 0.4919600
1249.587, 0.4258880
1250.069, 0.3397360
1250.551, 0.1985000
1251.033, 0.1038680
1251.515, 0.1200580
1251.997, 0.2237980
1252.479, 0.3973100
1252.962, 0.6115700
1253.444, 0.6726820
1253.926, 0.5854540
1254.408, 0.6265210
1254.890, 0.8005260
1255.372, 0.9377270
1255.854, 1.052580
1256.336, 0.9916470
1256.818, 0.6759130
1257.301, 0.3119050
1257.783, 9.9408999E-02
1258.265, 8.3419997E-03
1258.747, 4.9090002E-02
1259.229, 4.1636001E-02
1259.711, 7.0969999E-02
1260.193, 0.2905580
1260.675, 0.4175060
1261.157, 0.4296360
1261.640, 0.3675080
1262.122, 0.2279960
1262.604, 0.1432010
1263.086, 0.2032890
1263.568, 0.2400520
1264.050, 0.1694340
1264.532, 0.1417510
1265.014, 0.2523920
1265.497, 0.4149680
1265.979, 0.5337520
1266.461, 0.6203140
1266.943, 0.7761260
1267.425, 1.025589
1267.907, 1.096521
1268.389, 0.9710680
1268.871, 0.8511480
1269.354, 0.7803620
1269.836, 0.5837790
1270.318, 0.1385520
1270.800, 4.4700000E-03
1271.282, 0.2003780
1271.764, 0.6995120
1272.246, 0.6443680
1272.728, 0.3667430
1273.210, 0.5241060
1273.693, 0.8741610
1274.175, 0.7991730
1274.657, 0.4038030
1275.139, 0.3305160
1275.621, 0.7276770
1276.103, 0.9415480
1276.585, 0.6940310
1277.067, 0.4113100
1277.549, 8.2089998E-02
1278.032, 1.1983000E-02
1278.514, 0.1622750
1278.996, 0.4570060
1279.478, 0.5308160
1279.960, 0.3254120
1280.442, 0.1696570
1280.924, 0.0000000E+00
##END=



