##NAMES=Brownmillerite
##RRUFFID=R130105
##IDEAL CHEMISTRY=Ca_2_Fe^3+^AlO_5_
##LOCALITY=Ettringer Feld, Bellerberg volcano, Ettringen, Mayen, Eifel, Rhineland-Palatinate, Germany
##OWNER=RRUFF
##SOURCE=Donald Doell
##DESCRIPTION=Brownish-red platy crystals. Diffraction indicates an I-centered lattice
##STATUS=The identification of this mineral has been confirmed by single-crystal X-ray diffraction.
##URL=rruff.info/R130105
239.7820, 676.8619
240.2642, 676.9822
240.7463, 677.5320
241.2284, 678.3234
241.7105, 679.0861
242.1926, 679.5452
242.6747, 680.4661
243.1569, 682.3071
243.6390, 685.3201
244.1211, 687.0611
244.6032, 686.8065
245.0853, 685.9396
245.5674, 686.1425
246.0496, 688.1436
246.5317, 689.8776
247.0138, 690.7830
247.4959, 690.7659
247.9780, 691.2123
248.4601, 692.5112
248.9423, 693.9235
249.4244, 694.6082
249.9065, 694.2766
250.3886, 693.8264
250.8707, 693.4162
251.3528, 693.0517
251.8350, 692.7402
252.3171, 692.2872
252.7992, 692.0948
253.2813, 692.6681
253.7634, 694.4127
254.2455, 695.9980
254.7277, 697.1021
255.2098, 697.7103
255.6919, 698.4208
256.1740, 699.2952
256.6561, 700.1667
257.1382, 700.8305
257.6204, 701.1433
258.1025, 701.5682
258.5846, 702.0809
259.0667, 702.7028
259.5488, 704.1411
260.0309, 707.0428
260.5131, 709.7870
260.9952, 710.6483
261.4773, 708.6956
261.9594, 707.5693
262.4415, 708.1746
262.9236, 710.2983
263.4058, 711.5731
263.8879, 711.6837
264.3700, 711.5206
264.8521, 711.7516
265.3342, 712.4053
265.8163, 713.4277
266.2985, 715.1234
266.7806, 717.2098
267.2627, 717.8895
267.7448, 716.5852
268.2269, 715.0607
268.7090, 714.7342
269.1912, 715.9710
269.6733, 716.7247
270.1554, 716.4774
270.6375, 715.6172
271.1196, 715.9399
271.6017, 717.9037
272.0839, 719.7607
272.5660, 720.0643
273.0481, 718.4833
273.5302, 717.5855
274.0123, 717.7428
274.4944, 718.6559
274.9766, 719.4589
275.4587, 720.1139
275.9408, 720.8304
276.4229, 721.8796
276.9050, 723.3443
277.3871, 724.1270
277.8693, 723.8964
278.3514, 723.2455
278.8335, 723.6261
279.3156, 725.2172
279.7977, 726.8120
280.2798, 727.7796
280.7620, 728.1096
281.2441, 728.0795
281.7262, 727.5112
282.2083, 726.9152
282.6904, 727.3365
283.1725, 728.8350
283.6547, 730.4064
284.1368, 731.5236
284.6189, 732.2217
285.1010, 733.1257
285.5831, 734.3304
286.0652, 735.5062
286.5474, 736.0040
287.0295, 735.8421
287.5116, 735.9057
287.9937, 736.8927
288.4758, 738.5579
288.9579, 739.3457
289.4401, 739.1856
289.9222, 738.6093
290.4043, 737.9281
290.8864, 737.2323
291.3685, 737.2758
291.8506, 738.9442
292.3328, 741.4991
292.8149, 742.5420
293.2970, 741.9908
293.7791, 741.0221
294.2612, 740.7101
294.7433, 740.9725
295.2255, 741.5111
295.7076, 742.2743
296.1897, 743.2244
296.6718, 744.3272
297.1539, 745.5737
297.6360, 746.8223
298.1182, 748.1131
298.6003, 749.3104
299.0824, 750.0659
299.5645, 750.0800
300.0466, 749.8321
300.5287, 750.0375
301.0109, 750.6417
301.4930, 751.2663
301.9751, 751.6740
302.4572, 751.9120
302.9393, 751.9788
303.4214, 751.6911
303.9036, 751.5851
304.3857, 752.5392
304.8678, 754.2676
305.3499, 755.7328
305.8320, 755.9406
306.3141, 755.6640
306.7963, 755.8273
307.2784, 756.6418
307.7605, 757.7387
308.2426, 758.9479
308.7247, 760.2070
309.2068, 761.3716
309.6890, 762.3598
310.1711, 763.2054
310.6532, 763.8597
311.1353, 764.2549
311.6174, 764.7125
312.0995, 765.6455
312.5817, 766.7271
313.0638, 767.4506
313.5459, 767.3970
314.0280, 767.0849
314.5101, 766.6642
314.9922, 766.1213
315.4744, 766.0392
315.9565, 767.1465
316.4386, 768.7459
316.9207, 770.0278
317.4028, 770.4101
317.8849, 770.7704
318.3671, 771.7119
318.8492, 773.1979
319.3313, 774.0712
319.8134, 773.2949
320.2955, 772.0872
320.7776, 771.4241
321.2598, 771.6394
321.7419, 772.2614
322.2240, 773.3027
322.7061, 774.6964
323.1882, 776.1346
323.6703, 777.9808
324.1525, 779.5544
324.6346, 780.4393
325.1167, 779.8566
325.5988, 779.6060
326.0809, 779.9402
326.5630, 780.7332
327.0452, 781.6365
327.5273, 782.9307
328.0094, 784.0778
328.4915, 784.9011
328.9736, 785.3485
329.4557, 785.5684
329.9379, 785.2147
330.4200, 784.7421
330.9021, 784.9019
331.3842, 786.1913
331.8663, 787.4273
332.3484, 788.1580
332.8306, 788.1764
333.3127, 788.9915
333.7948, 791.2955
334.2769, 793.7714
334.7590, 794.8368
335.2411, 793.7927
335.7233, 792.9261
336.2054, 792.6854
336.6875, 793.0549
337.1696, 793.7026
337.6517, 794.6677
338.1339, 795.8619
338.6160, 797.3510
339.0981, 799.3229
339.5802, 800.6689
340.0623, 801.0148
340.5444, 800.7135
341.0266, 800.9929
341.5087, 801.9532
341.9908, 802.9621
342.4729, 803.6356
342.9550, 803.9583
343.4371, 804.0756
343.9193, 803.8463
344.4014, 803.6735
344.8835, 804.5364
345.3656, 806.4259
345.8477, 808.0725
346.3298, 808.7415
346.8120, 808.6326
347.2941, 808.2646
347.7762, 807.4901
348.2583, 807.3759
348.7404, 810.3113
349.2225, 815.3944
349.7047, 818.7161
350.1868, 817.6601
350.6689, 814.4183
351.1510, 812.7510
351.6331, 812.6456
352.1152, 813.1213
352.5974, 813.4398
353.0795, 813.7458
353.5616, 814.3576
354.0437, 815.6077
354.5258, 816.8715
355.0079, 817.5414
355.4901, 817.6781
355.9722, 817.5705
356.4543, 817.0340
356.9364, 816.5234
357.4185, 816.5621
357.9006, 817.4105
358.3828, 818.3752
358.8649, 819.1597
359.3470, 819.7503
359.8291, 820.1256
360.3112, 819.9598
360.7933, 819.8104
361.2755, 820.0035
361.7576, 820.5871
362.2397, 821.3411
362.7218, 822.3525
363.2039, 823.4202
363.6860, 824.3212
364.1682, 824.9698
364.6503, 825.4680
365.1324, 825.6798
365.6145, 825.6340
366.0966, 825.9301
366.5787, 827.1406
367.0609, 828.4316
367.5430, 829.2708
368.0251, 829.0638
368.5072, 829.0663
368.9893, 829.5805
369.4714, 830.4025
369.9536, 830.8173
370.4357, 830.2726
370.9178, 829.9119
371.3999, 830.2294
371.8820, 831.5388
372.3641, 832.7419
372.8463, 833.8839
373.3284, 834.8723
373.8105, 835.5217
374.2926, 835.6373
374.7747, 835.8400
375.2568, 836.3124
375.7390, 837.0544
376.2211, 837.8558
376.7032, 838.7686
377.1853, 839.6284
377.6674, 840.3370
378.1495, 840.9072
378.6317, 841.1351
379.1138, 840.7967
379.5959, 840.2079
380.0780, 840.4590
380.5601, 841.6210
381.0422, 842.8947
381.5244, 843.8904
382.0065, 844.5931
382.4886, 844.7449
382.9707, 844.2281
383.4528, 843.4725
383.9349, 842.9641
384.4171, 842.7167
384.8992, 842.7612
385.3813, 842.7881
385.8634, 843.2107
386.3455, 845.2481
386.8276, 849.0051
387.3098, 852.3583
387.7919, 852.9971
388.2740, 852.0322
388.7561, 851.4582
389.2382, 852.1480
389.7203, 853.2529
390.2025, 854.2470
390.6846, 855.0897
391.1667, 855.6390
391.6488, 855.6733
392.1309, 855.4399
392.6130, 855.0576
393.0952, 854.2936
393.5773, 853.9756
394.0594, 854.7011
394.5415, 856.1041
395.0236, 857.5023
395.5057, 859.2795
395.9879, 860.5157
396.4700, 860.5679
396.9521, 859.1393
397.4342, 858.2648
397.9163, 858.6864
398.3984, 859.6031
398.8806, 860.2842
399.3627, 860.4694
399.8448, 860.6566
400.3269, 860.8245
400.8090, 861.0027
401.2911, 861.4280
401.7733, 862.2317
402.2554, 863.1241
402.7375, 863.9675
403.2196, 864.7754
403.7017, 865.5143
404.1838, 866.2022
404.6660, 866.8073
405.1481, 867.2586
405.6302, 867.5634
406.1123, 867.6829
406.5944, 867.3274
407.0765, 866.5717
407.5587, 867.2912
408.0408, 869.8103
408.5229, 872.5543
409.0050, 873.7501
409.4871, 873.4927
409.9692, 873.2986
410.4514, 873.3834
410.9335, 873.8263
411.4156, 875.1364
411.8977, 877.2016
412.3798, 878.9019
412.8619, 879.1553
413.3441, 878.5670
413.8262, 878.2836
414.3083, 878.4473
414.7904, 878.8772
415.2725, 879.6429
415.7546, 880.5447
416.2368, 881.1794
416.7189, 881.0309
417.2010, 880.7824
417.6831, 880.9376
418.1652, 881.4997
418.6473, 882.3214
419.1295, 883.7764
419.6116, 885.2204
420.0937, 886.0421
420.5758, 885.7982
421.0579, 885.3577
421.5400, 884.7602
422.0222, 884.1689
422.5043, 883.9673
422.9864, 884.5957
423.4685, 885.3427
423.9506, 885.9429
424.4327, 886.3162
424.9149, 886.7756
425.3970, 887.2034
425.8791, 887.7924
426.3612, 888.7893
426.8433, 890.7207
427.3254, 892.1854
427.8076, 892.8707
428.2897, 892.8705
428.7718, 892.7880
429.2539, 892.4573
429.7360, 892.3392
430.2181, 892.7899
430.7003, 893.9061
431.1824, 894.9141
431.6645, 895.8122
432.1466, 896.5377
432.6287, 896.8371
433.1108, 896.7031
433.5930, 896.7988
434.0751, 897.5156
434.5572, 898.6565
435.0393, 899.5612
435.5214, 900.2336
436.0035, 900.7930
436.4857, 901.1782
436.9678, 901.5280
437.4499, 902.2860
437.9320, 903.8151
438.4141, 905.2383
438.8962, 905.1853
439.3784, 904.1511
439.8605, 903.6007
440.3426, 904.4683
440.8247, 906.0480
441.3068, 907.9321
441.7889, 910.1029
442.2711, 912.0569
442.7532, 913.6718
443.2353, 914.8740
443.7174, 915.5883
444.1995, 915.7092
444.6816, 915.4198
445.1638, 914.2259
445.6459, 912.4877
446.1280, 911.7886
446.6101, 913.4034
447.0922, 915.2421
447.5743, 916.3971
448.0565, 916.5626
448.5386, 916.7682
449.0207, 917.0430
449.5028, 917.3407
449.9849, 917.5870
450.4670, 917.7309
450.9492, 917.9639
451.4313, 918.3751
451.9134, 918.9352
452.3955, 919.4668
452.8776, 920.0851
453.3597, 920.2983
453.8419, 919.3858
454.3240, 917.4066
454.8061, 916.4379
455.2882, 916.7805
455.7703, 917.8635
456.2524, 919.1658
456.7346, 920.5942
457.2167, 921.4267
457.6988, 920.8958
458.1809, 919.7852
458.6630, 919.3543
459.1451, 919.5872
459.6273, 920.3023
460.1094, 921.8397
460.5915, 923.5976
461.0736, 924.7953
461.5557, 925.2147
462.0378, 925.1847
462.5200, 924.2584
463.0021, 923.0865
463.4842, 922.9520
463.9663, 925.4170
464.4484, 928.1326
464.9305, 930.1007
465.4127, 931.2637
465.8948, 931.8125
466.3769, 931.0920
466.8590, 930.1857
467.3411, 929.8782
467.8232, 930.5065
468.3054, 931.3583
468.7875, 932.4526
469.2696, 933.7313
469.7517, 935.1028
470.2338, 936.6917
470.7159, 938.1106
471.1981, 939.2606
471.6802, 940.1433
472.1623, 940.4623
472.6444, 939.9778
473.1265, 939.5605
473.6086, 940.2882
474.0908, 942.1332
474.5729, 943.5439
475.0550, 944.1227
475.5371, 944.2973
476.0192, 944.9202
476.5013, 945.9212
476.9835, 946.7840
477.4656, 947.0504
477.9477, 947.0538
478.4298, 947.3596
478.9119, 947.9949
479.3940, 948.6934
479.8762, 949.3569
480.3583, 949.9225
480.8404, 950.3181
481.3225, 950.5801
481.8046, 950.6199
482.2867, 950.1862
482.7689, 949.5007
483.2510, 949.1137
483.7331, 949.3266
484.2152, 949.8095
484.6973, 950.5103
485.1794, 951.5177
485.6616, 952.3236
486.1437, 952.8658
486.6258, 953.2013
487.1079, 953.3137
487.5900, 952.6718
488.0721, 952.7657
488.5543, 954.0076
489.0364, 955.9561
489.5185, 957.3163
490.0006, 957.8906
490.4827, 958.4085
490.9648, 959.2937
491.4470, 960.4987
491.9291, 960.9208
492.4112, 960.3974
492.8933, 959.8702
493.3754, 960.6292
493.8575, 962.3239
494.3397, 963.3145
494.8218, 963.0886
495.3039, 962.3256
495.7860, 961.7881
496.2681, 961.4720
496.7502, 961.3424
497.2324, 961.2801
497.7145, 961.4601
498.1966, 962.0170
498.6787, 962.9582
499.1608, 964.2745
499.6429, 966.6605
500.1251, 969.0365
500.6072, 970.4706
501.0893, 969.9674
501.5714, 969.5328
502.0535, 969.7842
502.5356, 970.3854
503.0178, 970.5748
503.4999, 969.2722
503.9820, 968.6960
504.4641, 969.7291
504.9462, 972.4764
505.4283, 974.2809
505.9105, 974.7719
506.3926, 974.9133
506.8747, 975.5628
507.3568, 976.9095
507.8389, 977.3918
508.3210, 976.5417
508.8032, 975.3348
509.2853, 975.7225
509.7674, 977.5934
510.2495, 979.1588
510.7316, 979.3381
511.2137, 978.8613
511.6959, 979.5328
512.1780, 981.2390
512.6601, 982.7190
513.1422, 982.7806
513.6243, 982.1644
514.1064, 981.7462
514.5886, 981.6232
515.0707, 981.9234
515.5528, 983.3478
516.0349, 985.1048
516.5170, 986.0688
516.9991, 985.0367
517.4813, 984.0466
517.9634, 983.9230
518.4455, 984.5589
518.9276, 984.8922
519.4097, 984.2750
519.8918, 983.8038
520.3740, 983.9393
520.8561, 984.8472
521.3382, 985.7761
521.8203, 986.6233
522.3024, 987.5780
522.7845, 989.0038
523.2667, 991.0459
523.7488, 992.6030
524.2309, 993.2882
524.7130, 993.4768
525.1951, 994.1721
525.6772, 995.3672
526.1594, 996.5530
526.6415, 997.5641
527.1236, 998.3616
527.6057, 998.8201
528.0878, 998.9449
528.5699, 998.8645
529.0521, 998.4584
529.5342, 998.0031
530.0163, 997.8969
530.4984, 998.4464
530.9805, 999.0057
531.4626, 998.9192
531.9448, 998.6125
532.4269, 998.9066
532.9090, 999.9008
533.3911, 1001.645
533.8732, 1004.843
534.3553, 1009.549
534.8375, 1012.300
535.3196, 1011.761
535.8017, 1010.456
536.2838, 1009.702
536.7659, 1009.593
537.2480, 1009.728
537.7302, 1010.161
538.2123, 1010.740
538.6944, 1011.262
539.1765, 1011.736
539.6586, 1012.193
540.1407, 1012.738
540.6229, 1013.211
541.1050, 1013.154
541.5871, 1012.613
542.0692, 1011.908
542.5513, 1010.823
543.0334, 1009.883
543.5156, 1010.140
543.9977, 1011.721
544.4798, 1013.225
544.9619, 1013.386
545.4440, 1013.050
545.9261, 1013.139
546.4083, 1014.058
546.8904, 1015.166
547.3725, 1016.216
547.8546, 1017.269
548.3367, 1018.492
548.8188, 1020.605
549.3010, 1022.096
549.7831, 1022.342
550.2652, 1021.361
550.7473, 1020.930
551.2294, 1021.326
551.7115, 1021.810
552.1937, 1021.832
552.6758, 1021.309
553.1579, 1021.302
553.6400, 1021.939
554.1221, 1022.934
554.6042, 1024.040
555.0864, 1025.223
555.5685, 1026.221
556.0506, 1026.938
556.5327, 1027.436
557.0148, 1027.652
557.4969, 1027.669
557.9791, 1027.830
558.4612, 1028.532
558.9433, 1029.297
559.4254, 1029.646
559.9075, 1029.536
560.3896, 1029.544
560.8718, 1030.023
561.3539, 1030.636
561.8360, 1031.145
562.3181, 1031.624
562.8002, 1031.846
563.2823, 1031.466
563.7645, 1031.003
564.2466, 1031.364
564.7287, 1033.187
565.2108, 1034.392
565.6929, 1034.260
566.1750, 1033.180
566.6572, 1032.901
567.1393, 1033.480
567.6214, 1034.420
568.1035, 1035.622
568.5856, 1036.948
569.0677, 1037.704
569.5499, 1037.788
570.0320, 1038.252
570.5141, 1041.022
570.9962, 1044.583
571.4783, 1046.312
571.9604, 1044.875
572.4426, 1042.952
572.9247, 1041.764
573.4068, 1041.363
573.8889, 1041.811
574.3710, 1044.556
574.8531, 1046.755
575.3353, 1047.094
575.8174, 1045.718
576.2995, 1045.001
576.7816, 1045.293
577.2637, 1045.921
577.7458, 1046.624
578.2280, 1047.394
578.7101, 1048.331
579.1922, 1049.581
579.6743, 1050.668
580.1564, 1050.876
580.6385, 1050.268
581.1207, 1050.035
581.6028, 1050.327
582.0849, 1051.205
582.5670, 1053.400
583.0491, 1056.360
583.5313, 1058.398
584.0134, 1057.638
584.4955, 1056.337
584.9776, 1056.621
585.4597, 1058.277
585.9418, 1060.038
586.4240, 1062.010
586.9061, 1063.358
587.3882, 1063.295
587.8703, 1061.114
588.3524, 1059.954
588.8345, 1060.688
589.3167, 1062.256
589.7988, 1063.965
590.2809, 1066.203
590.7630, 1067.684
591.2451, 1068.252
591.7272, 1068.106
592.2094, 1067.283
592.6915, 1065.702
593.1736, 1064.899
593.6557, 1065.523
594.1378, 1067.185
594.6199, 1069.394
595.1021, 1072.009
595.5842, 1073.997
596.0663, 1074.262
596.5484, 1073.752
597.0305, 1073.308
597.5126, 1072.975
597.9948, 1073.429
598.4769, 1076.424
598.9590, 1079.593
599.4411, 1080.811
599.9232, 1078.093
600.4053, 1076.026
600.8875, 1075.412
601.3696, 1075.795
601.8517, 1076.682
602.3338, 1078.606
602.8159, 1079.930
603.2980, 1080.104
603.7802, 1079.545
604.2623, 1079.879
604.7444, 1081.207
605.2265, 1082.492
605.7086, 1082.776
606.1907, 1082.573
606.6729, 1084.108
607.1550, 1087.322
607.6371, 1090.232
608.1192, 1091.111
608.6013, 1090.755
609.0834, 1089.985
609.5656, 1088.736
610.0477, 1087.957
610.5298, 1088.657
611.0119, 1089.923
611.4940, 1090.742
611.9761, 1090.273
612.4583, 1090.109
612.9404, 1090.948
613.4225, 1092.215
613.9046, 1092.451
614.3867, 1090.737
614.8688, 1089.992
615.3510, 1091.366
615.8331, 1094.451
616.3152, 1096.677
616.7973, 1097.955
617.2794, 1099.007
617.7615, 1100.470
618.2437, 1102.015
618.7258, 1102.499
619.2079, 1101.795
619.6900, 1101.318
620.1721, 1102.750
620.6542, 1104.908
621.1364, 1106.248
621.6185, 1106.109
622.1006, 1105.862
622.5827, 1106.328
623.0648, 1107.016
623.5469, 1107.235
624.0291, 1106.096
624.5112, 1105.497
624.9933, 1106.012
625.4754, 1107.277
625.9575, 1107.996
626.4396, 1108.081
626.9218, 1107.932
627.4039, 1107.406
627.8860, 1106.733
628.3681, 1107.669
628.8502, 1110.274
629.3323, 1112.752
629.8145, 1113.501
630.2966, 1113.227
630.7787, 1113.230
631.2608, 1113.620
631.7429, 1114.290
632.2250, 1115.557
632.7072, 1116.861
633.1893, 1117.573
633.6714, 1117.120
634.1535, 1116.737
634.6356, 1116.410
635.1177, 1116.436
635.5999, 1117.348
636.0820, 1120.280
636.5641, 1122.238
637.0462, 1122.530
637.5283, 1121.577
638.0104, 1120.528
638.4926, 1119.229
638.9747, 1118.849
639.4568, 1120.531
639.9389, 1123.456
640.4210, 1124.533
640.9031, 1123.887
641.3853, 1123.324
641.8674, 1124.644
642.3495, 1126.559
642.8316, 1127.292
643.3137, 1126.517
643.7958, 1126.067
644.2780, 1127.143
644.7601, 1128.790
645.2422, 1130.180
645.7243, 1131.347
646.2064, 1131.906
646.6885, 1131.142
647.1707, 1130.179
647.6528, 1130.620
648.1349, 1132.921
648.6170, 1135.204
649.0991, 1137.373
649.5812, 1139.089
650.0634, 1139.218
650.5455, 1137.892
651.0276, 1137.007
651.5097, 1137.768
651.9918, 1139.302
652.4739, 1140.249
652.9561, 1140.707
653.4382, 1141.231
653.9203, 1142.427
654.4024, 1143.576
654.8845, 1143.986
655.3666, 1143.480
655.8488, 1143.571
656.3309, 1145.524
656.8130, 1147.466
657.2951, 1148.162
657.7772, 1146.812
658.2593, 1146.468
658.7415, 1147.523
659.2236, 1148.952
659.7057, 1149.455
660.1878, 1149.058
660.6699, 1149.059
661.1520, 1149.814
661.6342, 1150.737
662.1163, 1150.558
662.5984, 1149.850
663.0805, 1150.152
663.5626, 1152.959
664.0447, 1156.078
664.5269, 1158.328
665.0090, 1159.673
665.4911, 1160.078
665.9732, 1157.998
666.4553, 1156.491
666.9374, 1157.173
667.4196, 1159.852
667.9017, 1161.365
668.3838, 1161.098
668.8659, 1160.886
669.3480, 1161.906
669.8301, 1164.134
670.3123, 1165.269
670.7944, 1165.251
671.2765, 1164.609
671.7586, 1163.034
672.2407, 1161.288
672.7228, 1161.304
673.2050, 1163.529
673.6871, 1166.196
674.1692, 1168.211
674.6513, 1169.826
675.1334, 1171.334
675.6155, 1173.199
676.0977, 1174.368
676.5798, 1174.081
677.0619, 1173.102
677.5440, 1172.564
678.0261, 1172.655
678.5082, 1172.797
678.9904, 1172.760
679.4725, 1172.838
679.9546, 1174.084
680.4367, 1176.506
680.9188, 1178.551
681.4009, 1179.589
681.8831, 1179.823
682.3652, 1179.101
682.8473, 1177.695
683.3294, 1176.957
683.8115, 1178.436
684.2936, 1180.291
684.7758, 1181.031
685.2579, 1180.565
685.7400, 1180.495
686.2221, 1181.133
686.7042, 1182.365
687.1863, 1184.245
687.6685, 1187.029
688.1506, 1189.316
688.6327, 1191.127
689.1148, 1192.437
689.5969, 1192.937
690.0790, 1192.705
690.5612, 1193.133
691.0433, 1194.428
691.5254, 1195.947
692.0075, 1197.087
692.4896, 1197.860
692.9717, 1198.240
693.4539, 1198.037
693.9360, 1197.795
694.4181, 1197.699
694.9002, 1197.803
695.3823, 1198.198
695.8644, 1199.653
696.3466, 1200.492
696.8287, 1200.206
697.3108, 1199.277
697.7929, 1198.990
698.2750, 1199.568
698.7571, 1200.077
699.2393, 1200.168
699.7214, 1200.041
700.2035, 1200.264
700.6856, 1200.815
701.1677, 1201.497
701.6498, 1202.136
702.1320, 1202.862
702.6141, 1203.972
703.0962, 1205.388
703.5783, 1206.474
704.0604, 1206.128
704.5425, 1205.990
705.0247, 1207.231
705.5068, 1210.331
705.9889, 1212.391
706.4710, 1212.759
706.9531, 1212.887
707.4352, 1213.901
707.9174, 1215.970
708.3995, 1216.848
708.8816, 1216.336
709.3637, 1215.465
709.8458, 1215.406
710.3279, 1215.832
710.8101, 1215.719
711.2922, 1214.668
711.7743, 1214.131
712.2564, 1216.127
712.7385, 1218.916
713.2206, 1220.392
713.7028, 1218.981
714.1849, 1217.646
714.6670, 1216.547
715.1491, 1215.990
715.6312, 1216.505
716.1133, 1218.416
716.5955, 1220.529
717.0776, 1222.759
717.5597, 1224.897
718.0418, 1226.497
718.5239, 1227.560
719.0060, 1228.041
719.4882, 1227.564
719.9703, 1226.849
720.4524, 1226.969
720.9345, 1227.601
721.4166, 1227.826
721.8987, 1225.720
722.3809, 1224.509
722.8630, 1226.704
723.3451, 1231.760
723.8272, 1234.717
724.3093, 1234.415
724.7914, 1233.415
725.2736, 1232.293
725.7557, 1231.162
726.2378, 1231.625
726.7199, 1233.906
727.2020, 1236.065
727.6841, 1236.632
728.1663, 1236.231
728.6484, 1236.134
729.1305, 1236.393
729.6126, 1236.851
730.0947, 1237.647
730.5768, 1238.429
731.0590, 1238.862
731.5411, 1238.819
732.0232, 1238.814
732.5053, 1238.381
732.9874, 1238.439
733.4695, 1239.836
733.9517, 1243.420
734.4338, 1245.065
734.9159, 1244.369
735.3980, 1242.875
735.8801, 1241.969
736.3622, 1241.643
736.8444, 1241.969
737.3265, 1243.059
737.8086, 1244.340
738.2907, 1245.507
738.7728, 1246.469
739.2549, 1247.104
739.7371, 1247.509
740.2192, 1247.406
740.7013, 1245.707
741.1834, 1243.906
741.6655, 1244.098
742.1476, 1247.574
742.6298, 1249.818
743.1119, 1249.841
743.5940, 1248.958
744.0761, 1249.652
744.5582, 1251.752
745.0403, 1253.830
745.5225, 1255.649
746.0046, 1256.873
746.4867, 1256.468
746.9688, 1255.190
747.4509, 1254.691
747.9330, 1256.680
748.4152, 1258.490
748.8973, 1258.981
749.3794, 1258.477
749.8615, 1258.081
750.3436, 1257.884
750.8257, 1257.749
751.3079, 1257.654
751.7900, 1257.629
752.2721, 1257.909
752.7542, 1258.510
753.2363, 1258.662
753.7184, 1257.489
754.2006, 1255.982
754.6827, 1255.870
755.1648, 1256.872
755.6469, 1257.796
756.1290, 1257.943
756.6111, 1257.930
757.0933, 1257.972
757.5754, 1258.096
758.0575, 1258.587
758.5396, 1259.820
759.0217, 1260.798
759.5038, 1260.824
759.9860, 1260.082
760.4681, 1261.241
760.9502, 1264.483
761.4323, 1267.312
761.9144, 1267.400
762.3965, 1266.192
762.8787, 1266.292
763.3608, 1267.716
763.8429, 1269.633
764.3250, 1272.527
764.8071, 1274.984
765.2892, 1275.894
765.7714, 1275.018
766.2535, 1273.895
766.7356, 1272.161
767.2177, 1270.827
767.6998, 1270.544
768.1819, 1271.379
768.6641, 1272.310
769.1462, 1273.379
769.6283, 1274.210
770.1104, 1274.252
770.5925, 1273.893
771.0746, 1273.725
771.5568, 1273.787
772.0389, 1274.491
772.5210, 1277.193
773.0031, 1279.886
773.4852, 1280.845
773.9673, 1279.103
774.4495, 1277.916
774.9316, 1277.374
775.4137, 1277.412
775.8958, 1278.207
776.3779, 1279.866
776.8600, 1280.821
777.3422, 1280.974
777.8243, 1280.765
778.3064, 1280.245
778.7885, 1279.792
779.2706, 1280.320
779.7527, 1282.168
780.2349, 1283.810
780.7170, 1284.500
781.1991, 1284.496
781.6812, 1283.944
782.1633, 1282.218
782.6454, 1281.236
783.1276, 1280.982
783.6097, 1281.508
784.0918, 1283.426
784.5739, 1286.782
785.0560, 1288.034
785.5381, 1286.566
786.0203, 1284.385
786.5024, 1283.482
786.9845, 1283.467
787.4666, 1283.590
787.9487, 1283.537
788.4308, 1284.096
788.9130, 1286.299
789.3951, 1288.956
789.8772, 1290.827
790.3593, 1291.024
790.8414, 1291.878
791.3235, 1293.710
791.8057, 1295.737
792.2878, 1296.755
792.7699, 1296.867
793.2520, 1297.842
793.7341, 1300.128
794.2162, 1302.400
794.6984, 1303.281
795.1805, 1303.191
795.6626, 1302.730
796.1447, 1301.810
796.6268, 1301.110
797.1089, 1300.876
797.5911, 1301.011
798.0732, 1301.425
798.5553, 1302.374
799.0374, 1303.047
799.5195, 1303.408
800.0016, 1303.524
800.4838, 1303.319
800.9659, 1302.904
801.4480, 1302.902
801.9301, 1303.491
802.4122, 1304.278
802.8943, 1304.961
803.3765, 1305.574
803.8586, 1306.171
804.3407, 1306.775
804.8228, 1307.323
805.3049, 1307.864
805.7870, 1308.286
806.2692, 1308.323
806.7513, 1307.631
807.2334, 1308.034
807.7155, 1309.956
808.1976, 1312.178
808.6797, 1313.243
809.1619, 1313.308
809.6440, 1312.600
810.1261, 1310.818
810.6082, 1309.621
811.0903, 1310.925
811.5724, 1313.166
812.0546, 1314.611
812.5367, 1313.985
813.0188, 1314.183
813.5009, 1315.840
813.9830, 1317.905
814.4651, 1319.247
814.9473, 1319.861
815.4294, 1320.217
815.9115, 1320.306
816.3936, 1320.498
816.8757, 1321.455
817.3578, 1322.743
817.8400, 1323.417
818.3221, 1322.876
818.8042, 1323.096
819.2863, 1325.596
819.7684, 1328.933
820.2505, 1331.790
820.7327, 1334.286
821.2148, 1335.697
821.6969, 1335.714
822.1790, 1335.121
822.6611, 1334.634
823.1432, 1334.229
823.6254, 1333.924
824.1075, 1333.729
824.5896, 1333.454
825.0717, 1332.450
825.5538, 1331.522
826.0359, 1331.746
826.5181, 1333.693
827.0002, 1335.492
827.4823, 1337.248
827.9644, 1338.354
828.4465, 1338.230
828.9286, 1336.516
829.4108, 1335.560
829.8929, 1335.492
830.3750, 1335.806
830.8571, 1336.303
831.3392, 1336.783
831.8214, 1336.595
832.3035, 1335.644
832.7856, 1335.023
833.2677, 1335.369
833.7498, 1336.324
834.2319, 1337.774
834.7141, 1339.946
835.1962, 1341.347
835.6783, 1341.451
836.1604, 1341.597
836.6425, 1342.951
837.1246, 1345.356
837.6068, 1346.201
838.0889, 1345.456
838.5710, 1345.111
839.0531, 1347.626
839.5352, 1350.781
840.0173, 1351.809
840.4995, 1350.590
840.9816, 1350.019
841.4637, 1351.293
841.9458, 1353.260
842.4279, 1355.697
842.9100, 1358.571
843.3922, 1360.106
843.8743, 1360.106
844.3564, 1359.767
844.8385, 1359.890
845.3206, 1360.144
845.8027, 1359.454
846.2849, 1358.044
846.7670, 1357.204
847.2491, 1358.343
847.7312, 1359.640
848.2133, 1359.969
848.6954, 1359.428
849.1776, 1359.301
849.6597, 1359.900
850.1418, 1360.424
850.6239, 1360.555
851.1060, 1360.481
851.5881, 1361.052
852.0703, 1362.143
852.5524, 1362.628
853.0345, 1360.946
853.5166, 1359.324
853.9987, 1360.035
854.4808, 1362.394
854.9630, 1364.688
855.4451, 1366.619
855.9272, 1368.062
856.4093, 1368.753
856.8914, 1369.032
857.3735, 1369.720
857.8557, 1370.832
858.3378, 1372.134
858.8199, 1373.692
859.3020, 1375.178
859.7841, 1376.250
860.2662, 1376.862
860.7484, 1376.841
861.2305, 1375.472
861.7126, 1374.480
862.1947, 1374.659
862.6768, 1375.567
863.1589, 1376.578
863.6411, 1377.867
864.1232, 1378.804
864.6053, 1379.325
865.0874, 1379.496
865.5695, 1379.283
866.0516, 1378.790
866.5338, 1378.162
867.0159, 1377.231
867.4980, 1377.133
867.9801, 1379.624
868.4622, 1382.794
868.9443, 1384.773
869.4265, 1384.754
869.9086, 1384.860
870.3907, 1385.346
870.8728, 1385.589
871.3549, 1384.592
871.8370, 1382.587
872.3192, 1382.582
872.8013, 1384.720
873.2834, 1387.147
873.7655, 1388.610
874.2476, 1389.418
874.7297, 1389.658
875.2119, 1389.320
875.6940, 1389.323
876.1761, 1390.565
876.6582, 1391.424
877.1403, 1390.959
877.6224, 1389.342
878.1046, 1389.198
878.5867, 1390.591
879.0688, 1392.094
879.5509, 1392.889
880.0330, 1393.263
880.5151, 1393.398
880.9973, 1393.433
881.4794, 1393.849
881.9615, 1395.331
882.4436, 1396.741
882.9257, 1397.722
883.4078, 1398.315
883.8900, 1398.656
884.3721, 1398.769
884.8542, 1398.386
885.3363, 1397.087
885.8184, 1395.793
886.3005, 1396.014
886.7827, 1397.544
887.2648, 1399.966
887.7469, 1404.294
888.2290, 1407.661
888.7111, 1408.301
889.1932, 1407.383
889.6754, 1406.570
890.1575, 1405.697
890.6396, 1405.609
891.1217, 1406.617
891.6038, 1407.860
892.0859, 1408.204
892.5681, 1407.914
893.0502, 1407.693
893.5323, 1407.607
894.0144, 1408.000
894.4965, 1409.932
894.9786, 1411.899
895.4608, 1412.298
895.9429, 1410.046
896.4250, 1409.980
896.9071, 1413.169
897.3892, 1416.377
897.8713, 1416.960
898.3535, 1415.491
898.8356, 1415.190
899.3177, 1416.062
899.7998, 1417.838
900.2819, 1421.947
900.7640, 1425.581
901.2462, 1426.012
901.7283, 1423.537
902.2104, 1422.200
902.6925, 1423.024
903.1746, 1424.043
903.6567, 1424.732
904.1389, 1425.200
904.6210, 1425.767
905.1031, 1426.434
905.5852, 1427.256
906.0673, 1428.540
906.5494, 1429.586
907.0316, 1429.350
907.5137, 1428.502
907.9958, 1428.230
908.4779, 1429.307
908.9600, 1430.353
909.4421, 1431.373
909.9243, 1432.157
910.4064, 1432.146
910.8885, 1431.428
911.3706, 1431.861
911.8527, 1433.916
912.3348, 1435.898
912.8170, 1435.885
913.2991, 1435.056
913.7812, 1434.760
914.2633, 1435.355
914.7454, 1435.927
915.2275, 1436.146
915.7097, 1436.547
916.1918, 1437.596
916.6739, 1439.278
917.1560, 1440.110
917.6381, 1440.074
918.1202, 1440.279
918.6024, 1442.043
919.0845, 1444.053
919.5666, 1444.644
920.0487, 1444.047
920.5308, 1443.893
921.0129, 1445.027
921.4951, 1446.184
921.9772, 1446.955
922.4593, 1447.542
922.9414, 1448.651
923.4235, 1450.250
923.9056, 1451.777
924.3878, 1453.094
924.8699, 1454.147
925.3520, 1455.037
925.8341, 1455.587
926.3162, 1455.506
926.7983, 1453.744
927.2805, 1452.885
927.7626, 1453.631
928.2447, 1454.960
928.7268, 1456.000
929.2089, 1456.775
929.6910, 1456.635
930.1732, 1455.429
930.6553, 1454.767
931.1374, 1456.912
931.6195, 1459.949
932.1016, 1461.523
932.5837, 1461.271
933.0659, 1461.669
933.5480, 1464.000
934.0301, 1466.182
934.5122, 1467.407
934.9943, 1467.739
935.4764, 1467.462
935.9586, 1466.567
936.4407, 1465.971
936.9228, 1465.867
937.4049, 1466.488
937.8870, 1469.072
938.3691, 1472.514
938.8513, 1474.203
939.3334, 1471.472
939.8155, 1469.610
940.2976, 1469.558
940.7797, 1470.516
941.2618, 1471.361
941.7440, 1472.121
942.2261, 1472.777
942.7082, 1473.278
943.1903, 1474.088
943.6724, 1476.085
944.1545, 1478.346
944.6367, 1479.825
945.1188, 1480.059
945.6009, 1480.524
946.0830, 1481.328
946.5651, 1482.282
947.0472, 1483.427
947.5294, 1484.647
948.0115, 1484.773
948.4936, 1483.907
948.9757, 1483.350
949.4578, 1484.729
949.9399, 1486.057
950.4221, 1485.472
950.9042, 1483.503
951.3863, 1482.338
951.8684, 1483.284
952.3505, 1482.976
952.8326, 1480.188
953.3148, 1476.816
953.7969, 1476.949
954.2790, 1479.772
954.7611, 1481.551
955.2432, 1481.050
955.7253, 1480.467
956.2075, 1481.252
956.6896, 1482.778
957.1717, 1484.549
957.6538, 1486.814
958.1359, 1488.098
958.6180, 1488.112
959.1002, 1487.741
959.5823, 1487.288
960.0644, 1486.976
960.5465, 1487.702
961.0286, 1489.365
961.5107, 1491.131
961.9929, 1491.858
962.4750, 1493.245
962.9571, 1496.921
963.4392, 1502.067
963.9213, 1505.910
964.4034, 1508.485
964.8856, 1509.343
965.3677, 1507.927
965.8498, 1505.676
966.3319, 1504.414
966.8140, 1504.135
967.2961, 1505.017
967.7783, 1507.650
968.2604, 1509.981
968.7425, 1511.567
969.2246, 1512.270
969.7067, 1511.731
970.1888, 1509.600
970.6710, 1509.010
971.1531, 1510.101
971.6352, 1511.333
972.1173, 1510.920
972.5994, 1510.289
973.0815, 1511.966
973.5637, 1515.447
974.0458, 1517.590
974.5279, 1515.747
975.0100, 1514.287
975.4921, 1513.872
975.9742, 1514.788
976.4564, 1519.030
976.9385, 1526.302
977.4206, 1529.639
977.9027, 1526.186
978.3848, 1521.626
978.8669, 1521.517
979.3491, 1523.398
979.8312, 1524.167
980.3133, 1522.250
980.7954, 1522.170
981.2775, 1525.306
981.7596, 1528.118
982.2418, 1527.260
982.7239, 1523.730
983.2060, 1523.307
983.6881, 1525.676
984.1702, 1527.983
984.6523, 1528.139
985.1345, 1527.974
985.6166, 1528.515
986.0987, 1529.635
986.5808, 1530.782
987.0629, 1532.076
987.5450, 1533.020
988.0272, 1533.563
988.5093, 1533.654
988.9914, 1532.709
989.4735, 1531.385
989.9556, 1531.128
990.4377, 1532.491
990.9199, 1533.957
991.4020, 1535.255
991.8841, 1536.129
992.3662, 1536.078
992.8483, 1535.023
993.3304, 1536.365
993.8126, 1540.270
994.2947, 1543.667
994.7768, 1544.364
995.2589, 1543.675
995.7410, 1542.449
996.2231, 1541.132
996.7053, 1540.943
997.1874, 1543.709
997.6695, 1545.567
998.1516, 1545.615
998.6337, 1544.959
999.1158, 1545.304
999.5980, 1546.527
1000.080, 1547.788
1000.562, 1549.000
1001.044, 1550.075
1001.526, 1551.271
1002.009, 1552.106
1002.491, 1551.843
1002.973, 1550.264
1003.455, 1550.217
1003.937, 1552.388
1004.419, 1553.908
1004.901, 1552.823
1005.383, 1550.817
1005.865, 1551.863
1006.348, 1555.084
1006.830, 1558.013
1007.312, 1559.408
1007.794, 1560.511
1008.276, 1561.529
1008.758, 1562.541
1009.240, 1563.743
1009.722, 1565.189
1010.205, 1565.963
1010.687, 1565.953
1011.169, 1565.788
1011.651, 1565.820
1012.133, 1566.137
1012.615, 1567.130
1013.097, 1568.742
1013.579, 1569.531
1014.061, 1568.506
1014.544, 1567.978
1015.026, 1568.807
1015.508, 1570.377
1015.990, 1571.182
1016.472, 1571.387
1016.954, 1571.703
1017.436, 1572.497
1017.918, 1573.072
1018.401, 1572.449
1018.883, 1571.745
1019.365, 1572.162
1019.847, 1574.013
1020.329, 1575.606
1020.811, 1576.979
1021.293, 1577.943
1021.775, 1578.166
1022.257, 1578.006
1022.740, 1577.746
1023.222, 1577.555
1023.704, 1578.021
1024.186, 1580.307
1024.668, 1581.965
1025.150, 1582.062
1025.632, 1581.663
1026.114, 1582.715
1026.596, 1585.021
1027.079, 1587.137
1027.561, 1588.876
1028.043, 1589.993
1028.525, 1589.775
1029.007, 1589.227
1029.489, 1589.252
1029.971, 1589.974
1030.453, 1590.560
1030.936, 1591.004
1031.418, 1591.409
1031.900, 1591.988
1032.382, 1592.383
1032.864, 1591.297
1033.346, 1589.499
1033.828, 1588.902
1034.310, 1591.662
1034.792, 1593.385
1035.275, 1591.714
1035.757, 1589.746
1036.239, 1590.572
1036.721, 1594.194
1037.203, 1596.400
1037.685, 1597.043
1038.167, 1596.913
1038.649, 1595.755
1039.132, 1594.781
1039.614, 1595.293
1040.096, 1596.967
1040.578, 1597.822
1041.060, 1597.159
1041.542, 1597.280
1042.024, 1598.715
1042.506, 1600.836
1042.989, 1602.930
1043.471, 1604.939
1043.953, 1606.728
1044.435, 1608.217
1044.917, 1609.799
1045.399, 1612.894
1045.881, 1614.701
1046.363, 1612.995
1046.845, 1608.555
1047.328, 1608.232
1047.810, 1611.781
1048.292, 1614.763
1048.774, 1614.890
1049.256, 1614.076
1049.738, 1613.417
1050.220, 1613.007
1050.702, 1612.985
1051.184, 1613.236
1051.667, 1614.311
1052.149, 1616.575
1052.631, 1618.464
1053.113, 1617.923
1053.595, 1616.317
1054.077, 1616.671
1054.559, 1618.755
1055.041, 1620.215
1055.523, 1618.725
1056.006, 1618.261
1056.488, 1620.386
1056.970, 1623.755
1057.452, 1625.873
1057.934, 1626.777
1058.416, 1626.418
1058.898, 1624.606
1059.380, 1622.820
1059.863, 1621.852
1060.345, 1621.759
1060.827, 1622.981
1061.309, 1625.551
1061.791, 1627.134
1062.273, 1627.486
1062.755, 1627.937
1063.237, 1629.182
1063.719, 1630.642
1064.202, 1631.285
1064.684, 1631.506
1065.166, 1632.075
1065.648, 1633.361
1066.130, 1634.828
1066.612, 1636.870
1067.094, 1638.427
1067.576, 1637.990
1068.059, 1636.168
1068.541, 1636.814
1069.023, 1639.707
1069.505, 1642.604
1069.987, 1644.311
1070.469, 1645.513
1070.951, 1646.329
1071.433, 1646.916
1071.916, 1647.448
1072.398, 1647.866
1072.880, 1648.806
1073.362, 1650.441
1073.844, 1651.994
1074.326, 1652.807
1074.808, 1653.038
1075.290, 1652.484
1075.772, 1651.165
1076.255, 1651.086
1076.737, 1652.741
1077.219, 1654.728
1077.701, 1656.631
1078.183, 1658.550
1078.665, 1661.157
1079.147, 1663.858
1079.629, 1665.075
1080.111, 1663.751
1080.594, 1662.847
1081.076, 1663.583
1081.558, 1664.845
1082.040, 1666.019
1082.522, 1667.130
1083.004, 1668.685
1083.486, 1670.613
1083.968, 1672.186
1084.450, 1672.639
1084.933, 1673.008
1085.415, 1673.975
1085.897, 1675.273
1086.379, 1676.453
1086.861, 1677.385
1087.343, 1678.875
1087.825, 1681.099
1088.307, 1683.050
1088.790, 1683.788
1089.272, 1683.817
1089.754, 1683.327
1090.236, 1682.585
1090.718, 1682.895
1091.200, 1685.714
1091.682, 1687.280
1092.164, 1686.609
1092.646, 1685.051
1093.129, 1684.437
1093.611, 1684.608
1094.093, 1685.587
1094.575, 1687.497
1095.057, 1688.041
1095.539, 1684.146
1096.021, 1680.897
1096.503, 1680.851
1096.986, 1683.006
1097.468, 1683.180
1097.950, 1681.710
1098.432, 1681.583
1098.914, 1684.299
1099.396, 1687.125
1099.878, 1688.217
1100.360, 1688.353
1100.843, 1688.175
1101.325, 1687.654
1101.807, 1687.661
1102.289, 1688.245
1102.771, 1688.845
1103.253, 1689.167
1103.735, 1689.314
1104.217, 1689.106
1104.699, 1688.883
1105.182, 1689.327
1105.664, 1691.312
1106.146, 1692.584
1106.628, 1693.047
1107.110, 1692.921
1107.592, 1691.717
1108.074, 1690.346
1108.556, 1691.118
1109.038, 1693.665
1109.521, 1695.637
1110.003, 1695.064
1110.485, 1695.326
1110.967, 1697.635
1111.449, 1700.460
1111.931, 1701.274
1112.413, 1700.535
1112.895, 1700.378
1113.377, 1701.065
1113.860, 1701.760
1114.342, 1701.550
1114.824, 1701.654
1115.306, 1702.925
1115.788, 1704.989
1116.270, 1706.835
1116.752, 1708.471
1117.234, 1708.978
1117.717, 1707.834
1118.199, 1706.735
1118.681, 1707.063
1119.163, 1708.225
1119.645, 1709.921
1120.127, 1712.127
1120.609, 1713.466
1121.091, 1713.791
1121.573, 1714.072
1122.056, 1714.850
1122.538, 1715.553
1123.020, 1715.156
1123.502, 1714.305
1123.984, 1714.046
1124.466, 1714.988
1124.948, 1715.576
1125.430, 1715.477
1125.913, 1715.913
1126.395, 1718.137
1126.877, 1721.301
1127.359, 1724.041
1127.841, 1726.109
1128.323, 1726.726
1128.805, 1723.705
1129.287, 1721.974
1129.770, 1722.503
1130.252, 1723.901
1130.734, 1724.729
1131.216, 1725.239
1131.698, 1726.706
1132.180, 1729.028
1132.662, 1731.221
1133.144, 1732.981
1133.626, 1734.147
1134.109, 1734.266
1134.591, 1734.079
1135.073, 1735.075
1135.555, 1737.051
1136.037, 1737.451
1136.519, 1735.959
1137.001, 1734.425
1137.483, 1733.950
1137.965, 1734.133
1138.448, 1735.567
1138.930, 1737.432
1139.412, 1736.571
1139.894, 1732.781
1140.376, 1731.074
1140.858, 1732.769
1141.340, 1735.411
1141.822, 1737.411
1142.304, 1738.793
1142.787, 1739.254
1143.269, 1738.816
1143.751, 1739.462
1144.233, 1741.364
1144.715, 1743.207
1145.197, 1744.459
1145.679, 1745.491
1146.161, 1746.704
1146.644, 1747.963
1147.126, 1749.215
1147.608, 1750.610
1148.090, 1750.819
1148.572, 1749.207
1149.054, 1748.403
1149.536, 1750.234
1150.018, 1753.041
1150.500, 1753.593
1150.983, 1753.017
1151.465, 1753.676
1151.947, 1757.729
1152.429, 1759.747
1152.911, 1758.763
1153.393, 1757.125
1153.875, 1756.062
1154.357, 1755.715
1154.840, 1757.108
1155.322, 1759.609
1155.804, 1761.148
1156.286, 1760.223
1156.768, 1759.186
1157.250, 1758.127
1157.732, 1757.456
1158.214, 1757.439
1158.697, 1758.126
1159.179, 1760.464
1159.661, 1763.998
1160.143, 1766.013
1160.625, 1762.787
1161.107, 1760.889
1161.589, 1763.093
1162.071, 1766.712
1162.553, 1768.282
1163.036, 1768.110
1163.518, 1768.516
1164.000, 1769.638
1164.482, 1770.756
1164.964, 1771.193
1165.446, 1771.855
1165.928, 1774.048
1166.410, 1776.279
1166.892, 1774.659
1167.375, 1769.652
1167.857, 1768.807
1168.339, 1773.287
1168.821, 1777.526
1169.303, 1776.174
1169.785, 1774.512
1170.267, 1776.602
1170.749, 1780.994
1171.231, 1783.571
1171.714, 1784.339
1172.196, 1784.882
1172.678, 1785.467
1173.160, 1786.101
1173.642, 1787.043
1174.124, 1787.814
1174.606, 1787.601
1175.088, 1786.748
1175.571, 1787.824
1176.053, 1791.026
1176.535, 1792.174
1177.017, 1789.350
1177.499, 1786.768
1177.981, 1789.292
1178.463, 1793.473
1178.945, 1796.001
1179.427, 1796.681
1179.910, 1797.151
1180.392, 1797.351
1180.874, 1797.996
1181.356, 1799.675
1181.838, 1801.133
1182.320, 1800.412
1182.802, 1799.067
1183.284, 1799.119
1183.767, 1801.000
1184.249, 1802.150
1184.731, 1802.557
1185.213, 1802.391
1185.695, 1801.474
1186.177, 1800.464
1186.659, 1799.705
1187.141, 1799.553
1187.624, 1800.823
1188.106, 1804.397
1188.588, 1806.098
1189.070, 1805.599
1189.552, 1805.167
1190.034, 1806.361
1190.516, 1808.064
1190.998, 1808.838
1191.480, 1809.130
1191.963, 1809.743
1192.445, 1811.099
1192.927, 1811.717
1193.409, 1811.269
1193.891, 1811.470
1194.373, 1814.318
1194.855, 1817.825
1195.337, 1819.098
1195.819, 1819.020
1196.302, 1819.596
1196.784, 1821.658
1197.266, 1823.023
1197.748, 1823.460
1198.230, 1823.982
1198.712, 1825.818
1199.194, 1827.929
1199.676, 1829.018
1200.158, 1829.214
1200.641, 1828.772
1201.123, 1826.914
1201.605, 1826.723
1202.087, 1828.769
1202.569, 1830.932
1203.051, 1830.853
1203.533, 1830.037
1204.015, 1830.527
1204.498, 1832.039
1204.980, 1833.359
1205.462, 1834.231
1205.944, 1835.039
1206.426, 1835.761
1206.908, 1836.632
1207.390, 1837.839
1207.872, 1839.347
1208.354, 1841.324
1208.837, 1843.609
1209.319, 1845.450
1209.801, 1846.638
1210.283, 1847.751
1210.765, 1848.875
1211.247, 1849.861
1211.729, 1850.553
1212.211, 1851.035
1212.694, 1851.686
1213.176, 1852.319
1213.658, 1851.526
1214.140, 1848.308
1214.622, 1846.746
1215.104, 1847.749
1215.586, 1849.267
1216.068, 1848.873
1216.551, 1847.907
1217.033, 1847.982
1217.515, 1849.121
1217.997, 1850.374
1218.479, 1851.602
1218.961, 1853.278
1219.443, 1855.662
1219.925, 1857.764
1220.407, 1857.643
1220.890, 1857.172
1221.372, 1859.071
1221.854, 1863.045
1222.336, 1864.727
1222.818, 1863.066
1223.300, 1862.966
1223.782, 1865.730
1224.264, 1868.609
1224.746, 1868.279
1225.229, 1866.694
1225.711, 1865.478
1226.193, 1864.944
1226.675, 1866.053
1227.157, 1869.380
1227.639, 1871.150
1228.121, 1870.327
1228.603, 1868.938
1229.085, 1868.833
1229.568, 1869.436
1230.050, 1870.212
1230.532, 1871.169
1231.014, 1872.896
1231.496, 1875.625
1231.978, 1876.859
1232.460, 1875.764
1232.942, 1874.371
1233.425, 1874.335
1233.907, 1875.118
1234.389, 1876.822
1234.871, 1879.056
1235.353, 1879.224
1235.835, 1877.190
1236.317, 1876.745
1236.799, 1879.148
1237.281, 1881.449
1237.764, 1880.216
1238.246, 1878.696
1238.728, 1879.925
1239.210, 1883.171
1239.692, 1885.448
1240.174, 1886.738
1240.656, 1887.474
1241.138, 1887.711
1241.621, 1887.590
1242.103, 1885.910
1242.585, 1885.230
1243.067, 1887.932
1243.549, 1892.757
1244.031, 1894.919
1244.513, 1894.789
1244.995, 1895.309
1245.478, 1897.216
1245.960, 1899.457
1246.442, 1902.004
1246.924, 1904.039
1247.406, 1905.155
1247.888, 1905.507
1248.370, 1905.152
1248.852, 1904.377
1249.334, 1904.487
1249.817, 1905.905
1250.299, 1907.406
1250.781, 1909.445
1251.263, 1910.055
1251.745, 1907.804
1252.227, 1904.337
1252.709, 1903.850
1253.191, 1905.504
1253.673, 1906.858
1254.156, 1907.379
1254.638, 1907.967
1255.120, 1908.931
1255.602, 1909.908
1256.084, 1910.541
1256.566, 1911.429
1257.048, 1914.395
1257.530, 1918.344
1258.012, 1920.811
1258.495, 1921.182
1258.977, 1922.119
1259.459, 1924.072
1259.941, 1926.478
1260.423, 1929.379
1260.905, 1932.135
1261.387, 1934.057
1261.869, 1935.004
1262.352, 1934.393
1262.834, 1932.018
1263.316, 1930.807
1263.798, 1930.994
1264.280, 1932.248
1264.762, 1934.964
1265.244, 1937.201
1265.726, 1935.450
1266.208, 1932.695
1266.691, 1932.519
1267.173, 1935.221
1267.655, 1937.213
1268.137, 1938.444
1268.619, 1939.317
1269.101, 1939.771
1269.583, 1940.564
1270.065, 1943.864
1270.548, 1946.655
1271.030, 1945.113
1271.512, 1940.531
1271.994, 1938.706
1272.476, 1939.594
1272.958, 1940.155
1273.440, 1939.574
1273.922, 1939.805
1274.405, 1944.139
1274.887, 1947.750
1275.369, 1947.240
1275.851, 1944.295
1276.333, 1943.561
1276.815, 1944.695
1277.297, 1945.989
1277.779, 1947.115
1278.261, 1948.304
1278.744, 1949.315
1279.226, 1950.850
1279.708, 1953.408
1280.190, 1956.225
1280.672, 1958.039
1281.154, 1958.959
1281.636, 1959.101
1282.118, 1958.469
1282.600, 1958.202
1283.083, 1958.473
1283.565, 1959.539
1284.047, 1961.786
1284.529, 1964.132
1285.011, 1965.039
1285.493, 1965.043
1285.975, 1964.661
1286.457, 1964.054
1286.939, 1964.291
1287.422, 1965.836
1287.904, 1966.825
1288.386, 1966.766
1288.868, 1966.824
1289.350, 1968.975
1289.832, 1971.307
1290.314, 1971.578
1290.796, 1970.124
1291.279, 1969.269
1291.761, 1968.964
1292.243, 1969.483
1292.725, 1970.887
1293.207, 1972.370
1293.689, 1972.887
1294.171, 1973.611
1294.653, 1976.202
1295.135, 1979.065
1295.618, 1978.726
1296.100, 1975.694
1296.582, 1975.140
1297.064, 1977.646
1297.546, 1980.943
1298.028, 1984.068
1298.510, 1986.400
1298.992, 1987.833
1299.475, 1988.806
1299.957, 1989.673
1300.439, 1990.631
1300.921, 1991.602
1301.403, 1992.902
1301.885, 1995.737
##END=



