##NAMES=Buddingtonite
##RRUFFID=R061115
##IDEAL CHEMISTRY=(N^3-^H_4_)AlSi_3_O_8_
##LOCALITY=Sharon Heights, Menlo Park, Santa Clara County, California, USA
##OWNER=RRUFF
##SOURCE=Michael Scott
##DESCRIPTION=Grey fine-grained massive
##STATUS=The identification of this mineral has been confirmed by X-ray diffraction.
##URL=rruff.info/R061115
151.9381, 0.0000000E+00
152.4202, 0.2070310
152.9024, 35.09961
153.3845, 79.62695
153.8666, 103.2754
154.3487, 69.61914
154.8308, 35.23438
155.3129, 11.83203
155.7950, 1.445313
156.2772, 3.7108999E-02
156.7593, 30.85352
157.2414, 59.50977
157.7235, 70.06641
158.2056, 38.44727
158.6877, 9.888672
159.1699, 1.322266
159.6520, 7.550781
160.1341, 17.64258
160.6162, 10.60742
161.0983, 1.228516
161.5804, 4.126953
162.0626, 41.11133
162.5447, 76.19727
163.0268, 97.74609
163.5089, 106.5879
163.9910, 106.5332
164.4731, 88.62695
164.9553, 64.25977
165.4374, 52.12500
165.9195, 77.60742
166.4016, 107.8613
166.8837, 111.9785
167.3658, 73.53320
167.8480, 40.99219
168.3301, 57.86719
168.8122, 108.6055
169.2943, 149.4102
169.7764, 156.3047
170.2585, 142.1113
170.7407, 117.2266
171.2228, 71.61133
171.7049, 32.45117
172.1870, 26.61133
172.6691, 51.48242
173.1512, 88.14453
173.6334, 133.3184
174.1155, 177.7734
174.5976, 204.7676
175.0797, 200.3887
175.5618, 183.5449
176.0439, 181.9609
176.5260, 195.7012
177.0082, 206.4414
177.4903, 206.0215
177.9724, 198.2246
178.4545, 190.0312
178.9366, 185.6270
179.4187, 174.4531
179.9009, 187.5312
180.3830, 226.6504
180.8651, 245.1934
181.3472, 238.4844
181.8293, 216.3359
182.3114, 201.5410
182.7936, 217.6035
183.2757, 249.7363
183.7578, 255.3457
184.2399, 229.2988
184.7220, 194.8086
185.2041, 177.1582
185.6863, 175.3535
186.1684, 182.8730
186.6505, 209.3223
187.1326, 245.8574
187.6147, 254.6426
188.0968, 230.1973
188.5790, 193.2734
189.0611, 168.7480
189.5432, 158.1191
190.0253, 155.1348
190.5074, 159.2930
190.9895, 169.6934
191.4717, 180.6094
191.9538, 194.9922
192.4359, 205.4199
192.9180, 189.0312
193.4001, 142.9121
193.8822, 103.6621
194.3644, 101.8750
194.8465, 136.0273
195.3286, 160.1992
195.8107, 166.9883
196.2928, 160.4219
196.7749, 147.9453
197.2570, 126.6426
197.7392, 112.4902
198.2213, 128.1094
198.7034, 177.1133
199.1855, 196.5508
199.6676, 166.1289
200.1497, 100.5020
200.6319, 66.88086
201.1140, 73.38281
201.5961, 86.66602
202.0782, 73.14844
202.5603, 27.89844
203.0424, 6.791016
203.5246, 18.34961
204.0067, 9.611328
204.4888, 8.744141
204.9709, 18.99609
205.4530, 28.84375
205.9352, 19.96875
206.4173, 17.28516
206.8994, 31.55078
207.3815, 2.697266
207.8636, 83.89648
208.3457, 119.3418
208.8279, 96.08594
209.3100, 48.37305
209.7921, 15.41016
210.2742, 6.917969
210.7563, 2.281250
211.2384, 16.35742
211.7206, 34.67188
212.2027, 67.45703
212.6848, 126.7070
213.1669, 186.2441
213.6490, 201.1152
214.1311, 151.0977
214.6133, 108.1289
215.0954, 98.69141
215.5775, 129.7285
216.0596, 151.6094
216.5417, 161.4609
217.0238, 164.4219
217.5059, 169.4961
217.9881, 177.5254
218.4702, 186.7559
218.9523, 201.6016
219.4344, 231.6445
219.9165, 229.5293
220.3986, 180.0605
220.8808, 108.1738
221.3629, 63.01172
221.8450, 50.30078
222.3271, 54.78320
222.8092, 75.87305
223.2913, 129.6758
223.7735, 151.8750
224.2556, 117.6094
224.7377, 60.62305
225.2198, 75.49609
225.7019, 220.9375
226.1840, 344.1367
226.6662, 365.9297
227.1483, 213.3145
227.6304, 129.5605
228.1125, 140.0996
228.5946, 214.8301
229.0767, 268.6289
229.5589, 295.8770
230.0410, 308.9609
230.5231, 313.5488
231.0052, 307.6094
231.4873, 297.2188
231.9694, 282.5410
232.4516, 263.9004
232.9337, 241.0781
233.4158, 210.5020
233.8979, 181.7871
234.3800, 158.9375
234.8621, 136.1738
235.3443, 134.4395
235.8264, 164.9883
236.3085, 218.8418
236.7906, 256.5996
237.2727, 274.1055
237.7548, 281.0977
238.2369, 280.2363
238.7191, 257.4922
239.2012, 255.8379
239.6833, 290.8691
240.1654, 350.9824
240.6475, 371.7656
241.1296, 317.3789
241.6118, 266.5078
242.0939, 273.6875
242.5760, 386.8984
243.0581, 456.8281
243.5402, 456.1680
244.0223, 397.5723
244.5045, 360.3262
244.9866, 360.0508
245.4687, 362.1152
245.9508, 340.6172
246.4329, 271.3574
246.9150, 232.8379
247.3972, 244.7285
247.8793, 298.6387
248.3614, 336.5820
248.8435, 354.6387
249.3256, 363.0781
249.8077, 366.1523
250.2899, 354.9258
250.7720, 358.6934
251.2541, 389.4375
251.7362, 440.3398
252.2183, 463.8164
252.7004, 450.3945
253.1826, 420.3164
253.6647, 382.5723
254.1468, 320.1523
254.6289, 288.5586
255.1110, 307.4062
255.5931, 367.4336
256.0753, 391.0273
256.5574, 363.2715
257.0395, 322.8125
257.5216, 298.2422
258.0037, 295.1172
258.4858, 294.7715
258.9680, 297.1074
259.4501, 301.9941
259.9322, 304.4336
260.4143, 304.0117
260.8964, 300.9824
261.3785, 296.4570
261.8607, 291.5996
262.3428, 288.5371
262.8249, 291.2441
263.3070, 296.4297
263.7891, 282.6484
264.2712, 245.0645
264.7534, 199.2031
265.2355, 148.6133
265.7176, 75.07617
266.1997, 45.69922
266.6818, 89.50000
267.1639, 191.1777
267.6461, 252.0703
268.1282, 257.5137
268.6103, 248.3750
269.0924, 256.6621
269.5745, 289.1504
270.0566, 306.5664
270.5387, 297.9434
271.0208, 270.2441
271.5030, 257.8223
271.9851, 262.4902
272.4672, 276.8438
272.9493, 303.1602
273.4314, 347.2031
273.9135, 363.0332
274.3957, 333.4062
274.8778, 274.0371
275.3599, 248.1621
275.8420, 263.4980
276.3241, 285.3613
276.8062, 287.1816
277.2884, 266.8516
277.7705, 252.8164
278.2526, 250.1914
278.7347, 255.9844
279.2168, 261.8535
279.6989, 268.9688
280.1811, 275.3926
280.6632, 283.6230
281.1453, 294.2910
281.6274, 290.0977
282.1095, 264.9590
282.5916, 227.4160
283.0738, 193.5312
283.5559, 161.5879
284.0380, 149.4648
284.5201, 182.8809
285.0022, 257.2754
285.4843, 305.0312
285.9665, 310.9707
286.4486, 296.6777
286.9307, 305.1816
287.4128, 335.1680
287.8949, 364.5703
288.3770, 376.0410
288.8592, 372.9297
289.3413, 377.1289
289.8234, 394.6602
290.3055, 413.0645
290.7876, 407.0703
291.2697, 378.2383
291.7519, 347.6348
292.2340, 326.9941
292.7161, 315.1074
293.1982, 308.6719
293.6803, 309.6895
294.1624, 312.7090
294.6446, 297.3906
295.1267, 267.6426
295.6088, 252.7910
296.0909, 285.5625
296.5730, 344.2246
297.0551, 376.1309
297.5373, 372.9648
298.0194, 358.0605
298.5015, 356.8320
298.9836, 366.6191
299.4657, 369.8594
299.9478, 349.4414
300.4300, 316.0039
300.9121, 289.1914
301.3942, 271.4258
301.8763, 253.4922
302.3584, 211.2715
302.8405, 159.7988
303.3227, 137.6445
303.8048, 193.3887
304.2869, 273.5293
304.7690, 315.8242
305.2511, 315.0547
305.7332, 298.0879
306.2154, 277.6348
306.6975, 256.9473
307.1796, 241.6152
307.6617, 241.0840
308.1438, 242.8867
308.6259, 233.7246
309.1081, 213.1289
309.5901, 197.3242
310.0723, 201.5371
310.5544, 216.1152
311.0365, 228.0195
311.5186, 229.0957
312.0007, 229.0176
312.4828, 233.1719
312.9650, 241.5156
313.4471, 252.9414
313.9292, 271.9805
314.4113, 291.1055
314.8934, 302.7324
315.3755, 296.6152
315.8577, 288.8828
316.3398, 289.6055
316.8219, 296.5059
317.3040, 294.4062
317.7861, 266.4609
318.2682, 233.0547
318.7504, 209.3965
319.2325, 203.2715
319.7146, 202.5684
320.1967, 207.1367
320.6788, 215.6074
321.1609, 221.4453
321.6431, 228.9023
322.1252, 229.8789
322.6073, 218.2715
323.0894, 164.3418
323.5715, 138.3770
324.0536, 172.8945
324.5358, 245.9004
325.0179, 293.3887
325.5000, 297.6621
325.9821, 283.1445
326.4642, 258.0137
326.9464, 209.8359
327.4285, 172.6055
327.9106, 141.3535
328.3927, 122.0000
328.8748, 128.3066
329.3569, 206.0059
329.8391, 259.5488
330.3212, 249.2402
330.8033, 135.7520
331.2854, 78.59180
331.7675, 112.6758
332.2496, 185.4961
332.7318, 216.4590
333.2139, 181.7168
333.6960, 146.1543
334.1781, 126.5039
334.6602, 124.2793
335.1423, 125.0723
335.6245, 132.5918
336.1066, 138.2246
336.5887, 130.5547
337.0708, 105.5410
337.5529, 78.17773
338.0350, 44.74219
338.5172, 8.193359
338.9993, 16.04883
339.4814, 84.67969
339.9635, 159.0078
340.4456, 187.0352
340.9277, 165.4004
341.4099, 136.5371
341.8920, 106.8633
342.3741, 76.81055
342.8562, 42.86328
343.3383, 3.072266
343.8204, 25.88477
344.3026, 29.74023
344.7847, 10.40820
345.2668, 19.47656
345.7489, 62.44531
346.2310, 106.7363
346.7131, 125.4336
347.1953, 119.2852
347.6774, 108.9922
348.1595, 109.6836
348.6416, 116.0723
349.1237, 115.0430
349.6058, 105.5586
350.0880, 87.17773
350.5700, 51.69336
351.0522, 4.716797
351.5343, 33.33008
352.0164, 43.50000
352.4985, 40.50586
352.9806, 50.92383
353.4627, 78.59375
353.9449, 94.55078
354.4270, 52.09180
354.9091, 18.36328
355.3912, 62.13281
355.8733, 25.05664
356.3554, 28.63477
356.8376, 44.85938
357.3197, 23.43359
357.8018, 4.962891
358.2839, 21.83398
358.7660, 35.33984
359.2481, 54.42773
359.7303, 87.67188
360.2124, 122.1973
360.6945, 153.2617
361.1766, 177.5586
361.6587, 197.6113
362.1408, 218.2070
362.6230, 231.4492
363.1051, 230.2871
363.5872, 191.9082
364.0693, 168.9121
364.5514, 189.4414
365.0335, 235.9863
365.5157, 261.7148
365.9978, 247.2598
366.4799, 219.6270
366.9620, 184.8008
367.4441, 122.4453
367.9262, 97.87695
368.4084, 152.5234
368.8905, 237.3359
369.3726, 275.7930
369.8547, 232.1836
370.3368, 185.7168
370.8189, 156.4375
371.3011, 147.5312
371.7832, 137.4609
372.2653, 123.5039
372.7474, 111.2422
373.2295, 108.5137
373.7116, 122.5332
374.1938, 128.0918
374.6759, 116.3965
375.1580, 90.32617
375.6401, 76.67383
376.1222, 77.72266
376.6043, 86.54688
377.0865, 100.2988
377.5686, 119.5918
378.0507, 136.0801
378.5328, 148.7930
379.0149, 157.6797
379.4970, 158.9219
379.9792, 151.3477
380.4613, 149.1348
380.9434, 168.1152
381.4255, 202.5137
381.9076, 212.2344
382.3897, 185.8086
382.8719, 160.3184
383.3540, 206.3008
383.8361, 307.7070
384.3182, 381.9082
384.8003, 368.5293
385.2824, 307.5742
385.7646, 262.2461
386.2467, 233.2480
386.7288, 226.1465
387.2109, 260.4863
387.6930, 318.9609
388.1751, 368.7285
388.6573, 400.2773
389.1394, 417.9531
389.6215, 420.3027
390.1036, 409.3848
390.5857, 398.2090
391.0678, 395.0039
391.5499, 397.5020
392.0320, 402.0039
392.5142, 404.3926
392.9963, 405.2500
393.4784, 415.6699
393.9605, 429.1855
394.4426, 424.3574
394.9247, 364.6797
395.4069, 306.7480
395.8890, 281.6797
396.3711, 307.0449
396.8532, 323.4980
397.3353, 322.8750
397.8174, 308.9727
398.2996, 285.7441
398.7817, 233.4551
399.2638, 194.3730
399.7459, 179.5273
400.2280, 190.8652
400.7101, 204.4648
401.1923, 230.3945
401.6744, 248.2891
402.1565, 242.0547
402.6386, 197.5488
403.1207, 165.8086
403.6028, 157.3301
404.0850, 164.7559
404.5671, 155.4922
405.0492, 122.2363
405.5313, 92.71875
406.0134, 79.99219
406.4955, 83.69727
406.9777, 113.6270
407.4598, 179.7168
407.9419, 253.3008
408.4240, 283.7363
408.9061, 271.2344
409.3882, 245.4258
409.8704, 214.2969
410.3525, 181.9258
410.8346, 159.2754
411.3167, 145.1562
411.7988, 139.8281
412.2809, 155.6328
412.7631, 184.6660
413.2452, 201.1934
413.7273, 197.2559
414.2094, 177.5293
414.6915, 144.3691
415.1736, 103.2812
415.6558, 68.38477
416.1379, 53.53906
416.6200, 46.31836
417.1021, 30.35156
417.5842, 6.435547
418.0663, 26.45508
418.5485, 11.09375
419.0306, 79.16406
419.5127, 127.0840
419.9948, 123.1172
420.4769, 104.9766
420.9590, 83.00000
421.4412, 54.79883
421.9233, 46.87500
422.4054, 81.89844
422.8875, 130.4414
423.3696, 166.5430
423.8517, 183.3008
424.3339, 189.7129
424.8160, 178.0098
425.2981, 152.7461
425.7802, 147.8926
426.2623, 188.4668
426.7444, 222.1836
427.2266, 220.6895
427.7087, 165.2402
428.1908, 122.9805
428.6729, 98.14062
429.1550, 84.63086
429.6371, 71.83398
430.1193, 60.71289
430.6014, 48.94922
431.0835, 32.89453
431.5656, 14.19336
432.0477, 13.62695
432.5298, 34.81445
433.0119, 58.80664
433.4940, 60.92578
433.9762, 45.41406
434.4583, 44.22852
434.9404, 71.94727
435.4225, 108.8145
435.9046, 119.7266
436.3867, 106.4570
436.8689, 84.90039
437.3510, 50.45312
437.8331, 18.40234
438.3152, 14.90625
438.7973, 47.23438
439.2794, 88.39258
439.7616, 110.7480
440.2437, 126.9102
440.7258, 159.7285
441.2079, 269.3750
441.6900, 356.4766
442.1721, 343.0898
442.6543, 230.2461
443.1364, 133.8594
443.6185, 90.29297
444.1006, 84.92188
444.5827, 106.6797
445.0648, 209.0234
445.5470, 272.5449
446.0291, 270.3535
446.5112, 216.4590
446.9933, 153.9727
447.4754, 69.71289
447.9576, 6.326172
448.4397, 67.72852
448.9218, 117.7656
449.4039, 132.5938
449.8860, 93.32227
450.3681, 37.15820
450.8503, 10.47656
451.3324, 24.12695
451.8145, 27.94141
452.2966, 6.308594
452.7787, 32.45117
453.2608, 47.02539
453.7430, 34.19922
454.2251, 15.81250
454.7072, 2.044922
455.1893, 6.027344
455.6714, 5.382813
456.1535, 43.63867
456.6357, 82.45312
457.1178, 80.79883
457.5999, 47.71484
458.0820, 17.45703
458.5641, 8.109375
459.0462, 10.64062
459.5284, 17.52930
460.0105, 28.40430
460.4926, 35.00195
460.9747, 26.72070
461.4568, 13.40625
461.9389, 5.445313
462.4211, 4.873047
462.9032, 11.44922
463.3853, 29.71680
463.8674, 55.24219
464.3495, 76.27930
464.8316, 91.38672
465.3138, 98.77539
465.7959, 93.85352
466.2780, 68.26367
466.7601, 56.94727
467.2422, 76.27734
467.7243, 103.0645
468.2065, 113.5254
468.6886, 92.47461
469.1707, 81.68750
469.6528, 89.28711
470.1349, 112.7754
470.6170, 140.6660
471.0992, 179.5977
471.5813, 208.0879
472.0634, 208.4668
472.5455, 179.3223
473.0276, 158.7793
473.5097, 148.7012
473.9918, 146.8887
474.4739, 155.2266
474.9561, 172.0664
475.4382, 180.1348
475.9203, 164.2988
476.4024, 141.1895
476.8845, 133.4160
477.3666, 140.6094
477.8488, 163.4453
478.3309, 235.4395
478.8130, 312.6875
479.2951, 323.4141
479.7772, 228.2461
480.2593, 131.6113
480.7415, 101.1895
481.2236, 118.3164
481.7057, 147.9648
482.1878, 204.4395
482.6699, 246.5156
483.1520, 244.4062
483.6342, 194.8828
484.1163, 162.8320
484.5984, 181.7559
485.0805, 210.0684
485.5626, 217.2031
486.0447, 184.1035
486.5269, 157.3457
487.0090, 138.9844
487.4911, 128.2285
487.9732, 124.1055
488.4553, 131.3496
488.9374, 134.8750
489.4196, 124.6094
489.9017, 99.84961
490.3838, 100.5625
490.8659, 134.0000
491.3480, 168.1270
491.8301, 161.8828
492.3123, 119.8672
492.7944, 94.27539
493.2765, 98.52930
493.7586, 119.3477
494.2407, 139.6504
494.7228, 158.7305
495.2050, 173.3145
495.6871, 182.2656
496.1692, 185.9609
496.6513, 181.0723
497.1334, 166.9980
497.6155, 159.7090
498.0977, 179.7969
498.5798, 209.2363
499.0619, 227.8672
499.5440, 216.6426
500.0261, 206.4121
500.5082, 210.4102
500.9904, 223.8008
501.4725, 230.1602
501.9546, 220.9609
502.4367, 207.7812
502.9188, 190.9082
503.4009, 162.6484
503.8831, 157.9336
504.3652, 187.9570
504.8473, 230.7324
505.3294, 267.2539
505.8115, 300.6562
506.2936, 310.7637
506.7758, 289.4082
507.2579, 249.0977
507.7400, 227.1914
508.2221, 226.4375
508.7042, 229.7188
509.1863, 228.4551
509.6685, 223.1328
510.1506, 211.1055
510.6327, 190.5762
511.1148, 172.4727
511.5969, 167.4824
512.0790, 173.4883
512.5612, 186.7324
513.0433, 212.2715
513.5254, 236.7891
514.0075, 242.7090
514.4896, 235.3125
514.9717, 233.7656
515.4539, 252.6973
515.9360, 276.0156
516.4181, 295.2090
516.9002, 309.8008
517.3823, 319.9648
517.8644, 327.4062
518.3466, 330.8145
518.8287, 328.5996
519.3108, 316.4727
519.7929, 305.3145
520.2750, 293.7520
520.7571, 283.7207
521.2393, 282.8438
521.7214, 291.9043
522.2035, 306.2168
522.6856, 327.6914
523.1677, 355.9922
523.6498, 360.7812
524.1320, 336.2793
524.6141, 306.7031
525.0962, 305.7871
525.5783, 325.7559
526.0604, 327.3164
526.5425, 296.4883
527.0247, 250.8516
527.5068, 210.0449
527.9889, 174.4961
528.4710, 144.4688
528.9531, 126.7031
529.4352, 112.0703
529.9174, 92.88477
530.3995, 69.17969
530.8816, 45.48633
531.3637, 25.96289
531.8458, 7.123047
532.3279, 14.33984
532.8101, 53.91602
533.2922, 78.17969
533.7743, 76.97266
534.2564, 57.76367
534.7385, 39.04883
535.2206, 22.97070
535.7027, 5.708984
536.1848, 12.96875
536.6669, 32.84961
537.1490, 56.42773
537.6312, 86.65234
538.1133, 113.3535
538.5954, 128.6719
539.0775, 132.7715
539.5596, 124.9629
540.0417, 100.1328
540.5239, 76.72852
541.0060, 93.13867
541.4881, 139.1621
541.9702, 172.6035
542.4523, 160.0020
542.9344, 132.9199
543.4166, 119.2539
543.8987, 120.0645
544.3808, 145.0977
544.8629, 233.5566
545.3450, 327.4590
545.8271, 375.5059
546.3093, 349.3672
546.7914, 324.4395
547.2735, 323.8125
547.7556, 334.3340
548.2377, 338.2207
548.7198, 336.3730
549.2020, 324.1504
549.6841, 294.6387
550.1662, 252.5234
550.6483, 227.8203
551.1304, 226.8281
551.6125, 230.3086
552.0947, 225.6367
552.5768, 212.5254
553.0589, 223.4707
553.5410, 266.2344
554.0231, 306.1914
554.5052, 297.8633
554.9874, 250.9766
555.4695, 202.9746
555.9516, 160.1504
556.4337, 125.7207
556.9158, 97.66602
557.3979, 80.23047
557.8801, 87.07617
558.3622, 156.0957
558.8443, 228.6172
559.3264, 255.1113
559.8085, 230.1855
560.2906, 218.2031
560.7728, 257.7207
561.2549, 307.3418
561.7370, 336.3828
562.2191, 327.7363
562.7012, 316.0820
563.1833, 300.7695
563.6655, 282.5605
564.1476, 259.6191
564.6297, 222.5762
565.1118, 205.2988
565.5939, 223.0684
566.0760, 268.3164
566.5582, 296.9102
567.0403, 308.7402
567.5224, 311.1172
568.0045, 304.6230
568.4866, 293.2148
568.9688, 292.9688
569.4509, 308.4102
569.9330, 316.6328
570.4151, 286.2363
570.8972, 236.3203
571.3793, 197.3867
571.8615, 179.7695
572.3436, 176.5566
572.8257, 189.5391
573.3078, 214.5898
573.7899, 240.5234
574.2720, 276.2129
574.7542, 300.1309
575.2363, 294.7461
575.7184, 252.1543
576.2005, 238.0938
576.6826, 272.1875
577.1647, 312.7070
577.6469, 328.5859
578.1290, 312.6367
578.6111, 300.1211
579.0932, 289.2461
579.5753, 290.5703
580.0574, 332.6250
580.5396, 410.5645
581.0217, 471.4746
581.5038, 489.0078
581.9859, 481.0762
582.4680, 467.0078
582.9501, 450.0078
583.4323, 451.3965
583.9144, 514.6328
584.3965, 587.5020
584.8786, 616.7148
585.3607, 591.6602
585.8428, 565.0449
586.3250, 559.0723
586.8071, 563.0352
587.2892, 567.0371
587.7713, 582.0762
588.2534, 581.1250
588.7355, 549.4531
589.2177, 504.1914
589.6998, 483.9062
590.1819, 496.0430
590.6640, 511.4160
591.1461, 519.1875
591.6282, 522.4375
592.1104, 547.5039
592.5925, 597.4688
593.0746, 635.3125
593.5567, 624.0781
594.0388, 578.1758
594.5209, 538.2324
595.0031, 507.5117
595.4852, 489.3613
595.9673, 504.9121
596.4494, 531.9980
596.9315, 535.7949
597.4136, 488.3145
597.8958, 437.3984
598.3779, 414.3945
598.8600, 407.6582
599.3421, 386.9785
599.8242, 311.9844
600.3063, 257.7871
600.7885, 258.4707
601.2706, 315.0371
601.7527, 342.0215
602.2348, 321.9824
602.7169, 301.1680
603.1990, 315.1895
603.6812, 368.9590
604.1633, 399.3945
604.6454, 399.9160
605.1275, 388.5723
605.6096, 381.3965
606.0917, 380.2754
606.5739, 396.5781
607.0560, 445.5312
607.5381, 494.7578
608.0202, 497.1387
608.5023, 468.2461
608.9844, 454.4688
609.4666, 503.4258
609.9487, 551.8691
610.4308, 554.4082
610.9129, 509.2344
611.3950, 481.6934
611.8771, 512.3555
612.3593, 543.5254
612.8414, 539.8691
613.3235, 477.3555
613.8056, 448.7812
614.2877, 469.3691
614.7698, 506.6094
615.2520, 520.3066
615.7341, 509.3398
616.2162, 498.0059
616.6983, 491.4473
617.1804, 488.3105
617.6625, 482.4766
618.1446, 476.3418
618.6267, 480.7500
619.1088, 513.9512
619.5909, 552.4844
620.0731, 562.5156
620.5552, 547.0977
621.0373, 547.9238
621.5194, 603.5449
622.0015, 668.4219
622.4836, 709.9785
622.9658, 713.7480
623.4479, 720.6836
623.9300, 745.7402
624.4121, 767.3809
624.8942, 761.6426
625.3763, 710.6094
625.8585, 680.9062
626.3406, 685.4785
626.8227, 709.7305
627.3048, 728.7266
627.7869, 743.2969
628.2690, 743.4980
628.7512, 724.3203
629.2333, 691.6270
629.7154, 657.0469
630.1975, 620.7969
630.6796, 576.1309
631.1617, 505.7480
631.6439, 435.5352
632.1260, 394.8672
632.6081, 391.9414
633.0902, 379.6387
633.5723, 341.0176
634.0544, 285.6191
634.5366, 220.0430
635.0187, 120.4297
635.5008, 44.41406
635.9829, 0.3066410
636.4650, 28.01172
636.9471, 70.74609
637.4293, 136.8223
637.9114, 184.2207
638.3935, 201.3125
638.8756, 197.1855
639.3577, 197.5410
639.8398, 201.2793
640.3220, 188.8457
640.8041, 134.0508
641.2862, 65.08008
641.7683, 19.40430
642.2504, 1.789063
642.7325, 16.60742
643.2147, 35.79102
643.6968, 52.35156
644.1789, 58.53516
644.6610, 47.05664
645.1431, 43.92969
645.6252, 63.57031
646.1074, 88.12695
646.5895, 102.1660
647.0716, 105.4355
647.5537, 96.86719
648.0358, 68.51953
648.5179, 37.35938
649.0001, 40.51758
649.4822, 77.98242
649.9643, 126.1406
650.4464, 197.2285
650.9285, 257.2031
651.4106, 219.0430
651.8928, 101.8398
652.3749, 8.513672
652.8570, 29.98633
653.3391, 80.34570
653.8212, 81.25977
654.3033, 23.54883
654.7855, 7.425781
655.2676, 37.68164
655.7497, 104.4961
656.2318, 158.9453
656.7139, 208.3320
657.1960, 223.9414
657.6782, 186.4199
658.1603, 136.0117
658.6424, 126.1641
659.1245, 160.4902
659.6066, 191.3906
660.0887, 209.1406
660.5709, 219.0156
661.0530, 227.0684
661.5351, 234.1367
662.0172, 244.5312
662.4993, 268.7812
662.9814, 290.3906
663.4636, 282.3750
663.9457, 253.3262
664.4278, 244.9844
664.9099, 287.0391
665.3920, 342.5586
665.8741, 401.5156
666.3563, 467.2422
666.8384, 495.9629
667.3205, 474.3184
667.8026, 431.9531
668.2847, 382.8340
668.7668, 323.6836
669.2490, 287.8398
669.7311, 281.9395
670.2132, 285.9902
670.6953, 277.9375
671.1774, 260.3105
671.6595, 240.2598
672.1417, 219.5762
672.6238, 198.6914
673.1059, 172.5938
673.5880, 147.1914
674.0701, 133.8438
674.5522, 151.6367
675.0344, 166.5293
675.5165, 158.5957
675.9986, 133.8613
676.4807, 126.9219
676.9628, 158.1504
677.4449, 178.5547
677.9271, 163.4004
678.4092, 115.2383
678.8913, 108.1680
679.3734, 149.7344
679.8555, 195.4043
680.3376, 210.0195
680.8198, 202.7715
681.3019, 205.5195
681.7840, 220.9707
682.2661, 238.4609
682.7482, 246.3340
683.2303, 251.3516
683.7125, 261.7402
684.1946, 282.4648
684.6767, 301.7695
685.1588, 317.8145
685.6409, 328.8984
686.1230, 330.9180
686.6052, 305.5449
687.0873, 301.2910
687.5694, 328.9141
688.0515, 377.7734
688.5336, 425.9043
689.0157, 474.9844
689.4979, 508.0859
689.9800, 519.8379
690.4621, 511.6074
690.9442, 471.3906
691.4263, 406.9844
691.9084, 365.7070
692.3906, 404.8027
692.8727, 460.2500
693.3548, 468.5723
693.8369, 425.6426
694.3190, 395.6719
694.8011, 410.9473
695.2833, 434.0742
695.7654, 446.8457
696.2475, 452.1914
696.7296, 441.4902
697.2117, 403.6660
697.6938, 364.8809
698.1760, 354.5000
698.6581, 375.1230
699.1402, 400.5957
699.6223, 430.0684
700.1044, 448.0430
700.5865, 428.6230
701.0686, 383.7695
701.5507, 340.5723
702.0328, 308.0410
702.5150, 281.3125
702.9971, 254.8223
703.4792, 233.1348
703.9613, 224.8691
704.4434, 255.5371
704.9255, 274.2090
705.4077, 263.2637
705.8898, 230.9629
706.3719, 207.3828
706.8540, 187.7070
707.3361, 192.7695
707.8182, 246.5918
708.3004, 331.5391
708.7825, 354.2988
709.2646, 315.7812
709.7467, 280.3477
710.2288, 291.1875
710.7109, 331.6133
711.1931, 396.1699
711.6752, 485.0879
712.1573, 529.1621
712.6394, 445.2188
713.1215, 334.6484
713.6036, 270.7852
714.0858, 285.4023
714.5679, 298.6367
715.0500, 311.0098
715.5321, 321.5371
716.0142, 330.6758
716.4963, 339.6660
716.9785, 338.1875
717.4606, 322.1719
717.9427, 304.4395
718.4248, 306.1270
718.9069, 321.4160
719.3890, 332.1270
719.8712, 331.3086
720.3533, 326.2422
720.8354, 323.3379
721.3175, 320.1035
721.7996, 311.7422
722.2817, 287.1113
722.7639, 267.3164
723.2460, 257.7461
723.7281, 256.9980
724.2102, 262.4980
724.6923, 278.5781
725.1744, 289.7520
725.6566, 289.4629
726.1387, 280.3848
726.6208, 269.1758
727.1029, 256.6484
727.5850, 256.5410
728.0671, 291.1406
728.5493, 337.1621
729.0314, 361.9941
729.5135, 364.9355
729.9956, 366.1660
730.4777, 368.1445
730.9598, 376.7422
731.4420, 401.2910
731.9241, 457.7676
732.4062, 473.6113
732.8883, 423.7266
733.3704, 364.4395
733.8525, 337.4824
734.3347, 343.5527
734.8168, 378.2188
735.2989, 450.9766
735.7810, 511.0000
736.2631, 482.4219
736.7452, 398.0723
737.2274, 328.3105
737.7095, 286.5312
738.1916, 272.5684
738.6737, 319.1875
739.1558, 383.5273
739.6379, 405.8906
740.1201, 314.5742
740.6022, 254.9707
741.0843, 261.8691
741.5664, 300.7207
742.0485, 297.5176
742.5306, 237.2383
743.0128, 208.2773
743.4949, 246.9980
743.9770, 314.8223
744.4591, 324.1777
744.9412, 285.4688
745.4233, 247.9160
745.9055, 226.8887
746.3876, 226.9004
746.8697, 250.1602
747.3518, 296.1387
747.8339, 367.2852
748.3160, 540.3164
748.7982, 661.2617
749.2803, 644.0234
749.7624, 502.2188
750.2445, 428.6543
750.7266, 434.2188
751.2087, 458.6836
751.6909, 468.1543
752.1730, 468.2969
752.6551, 509.0273
753.1372, 592.5176
753.6193, 665.3262
754.1014, 668.0312
754.5836, 634.7441
755.0657, 611.7520
755.5478, 608.8828
756.0299, 617.9570
756.5120, 650.4395
756.9941, 672.2402
757.4763, 658.8691
757.9584, 591.4707
758.4405, 559.4570
758.9226, 572.2754
759.4047, 603.4043
759.8868, 638.2832
760.3690, 674.6758
760.8511, 667.9863
761.3332, 606.7188
761.8153, 542.6484
762.2974, 532.9062
762.7795, 556.6973
763.2617, 584.9570
763.7438, 617.3926
764.2259, 636.5195
764.7080, 620.9062
765.1901, 593.8906
765.6722, 587.3906
766.1544, 622.1641
766.6365, 638.2734
767.1186, 621.2188
767.6007, 593.6562
768.0828, 591.9297
768.5649, 615.2539
769.0471, 655.9160
769.5292, 723.0645
770.0113, 783.6426
770.4934, 785.4609
770.9755, 747.2461
771.4576, 710.7402
771.9398, 703.2012
772.4219, 689.7617
772.9040, 649.9121
773.3861, 593.5410
773.8682, 548.0391
774.3503, 507.1973
774.8325, 492.3438
775.3146, 517.3594
775.7967, 568.0762
776.2788, 601.8301
776.7609, 618.8711
777.2430, 616.8340
777.7252, 581.7305
778.2073, 536.1426
778.6894, 512.7227
779.1715, 507.4551
779.6536, 505.5195
780.1357, 522.4238
780.6179, 520.4277
781.1000, 458.4668
781.5821, 343.7012
782.0642, 296.1777
782.5463, 350.5977
783.0284, 411.9727
783.5105, 444.3926
783.9926, 450.9141
784.4747, 456.0508
784.9568, 459.3652
785.4390, 451.0078
785.9211, 398.3691
786.4032, 343.0156
786.8853, 356.0039
787.3674, 433.0762
787.8495, 483.2910
788.3317, 438.3770
788.8138, 375.5176
789.2959, 336.5371
789.7780, 325.6387
790.2601, 324.1445
790.7422, 339.3105
791.2244, 351.5078
791.7065, 343.4570
792.1886, 318.8711
792.6707, 316.4336
793.1528, 337.9570
793.6349, 352.3906
794.1171, 324.7480
794.5992, 280.1348
795.0813, 247.1230
795.5634, 229.1074
796.0455, 213.8887
796.5276, 179.3613
797.0098, 158.2266
797.4919, 178.6484
797.9740, 258.4238
798.4561, 302.1562
798.9382, 307.4902
799.4203, 280.9414
799.9025, 207.4570
800.3846, 102.6953
800.8667, 51.45117
801.3488, 65.84570
801.8309, 86.27930
802.3130, 62.82422
802.7952, 20.14844
803.2773, 16.42969
803.7594, 42.60742
804.2415, 60.15820
804.7236, 62.18555
805.2057, 60.87305
805.6879, 63.58789
806.1700, 68.74023
806.6521, 92.82617
807.1342, 145.7266
807.6163, 189.4062
808.0984, 172.9707
808.5806, 113.6250
809.0627, 52.16797
809.5448, 10.33008
810.0269, 44.59180
810.5090, 2.853516
810.9911, 72.47656
811.4733, 100.5000
811.9554, 30.82227
812.4375, 0.3828130
812.9196, 45.19922
813.4017, 99.83398
813.8839, 91.66602
814.3660, 15.96094
814.8481, 41.85938
815.3302, 67.79102
815.8123, 96.66602
816.2944, 181.9531
816.7766, 295.7402
817.2587, 386.5840
817.7408, 432.5195
818.2229, 482.4785
818.7050, 569.6250
819.1871, 668.9219
819.6693, 751.8867
820.1514, 810.1973
820.6335, 866.6504
821.1156, 922.9395
821.5977, 976.2383
822.0798, 1033.887
822.5620, 1091.701
823.0441, 1103.336
823.5262, 1053.660
824.0083, 991.0703
824.4904, 960.1797
824.9725, 948.4102
825.4547, 938.8809
825.9368, 924.5020
826.4189, 917.9023
826.9010, 930.5312
827.3831, 947.1797
827.8652, 948.2070
828.3474, 921.8145
828.8295, 928.6797
829.3116, 980.8184
829.7937, 1045.957
830.2758, 1092.697
830.7579, 1117.568
831.2401, 1103.971
831.7222, 1028.012
832.2043, 974.9043
832.6864, 1035.479
833.1685, 1132.844
833.6506, 1179.328
834.1328, 1095.174
834.6149, 1057.357
835.0970, 1095.277
835.5791, 1146.941
836.0612, 1127.824
836.5433, 1040.689
837.0255, 980.3730
837.5076, 962.4023
837.9897, 964.4043
838.4718, 985.9258
838.9539, 1004.023
839.4360, 976.9434
839.9182, 868.5234
840.4003, 783.3086
840.8824, 772.2520
841.3645, 790.7695
841.8466, 794.5391
842.3287, 778.3320
842.8109, 763.0469
843.2930, 747.6562
843.7751, 738.1758
844.2572, 746.2734
844.7393, 765.4727
845.2214, 771.9375
845.7036, 756.7344
846.1857, 753.6914
846.6678, 800.3555
847.1499, 863.7852
847.6320, 912.1016
848.1141, 946.1953
848.5963, 946.0898
849.0784, 897.2031
849.5605, 831.0508
850.0426, 763.6289
850.5247, 695.4258
851.0068, 686.0000
851.4890, 746.2344
851.9711, 811.1211
852.4532, 806.4453
852.9353, 773.2109
853.4174, 774.5820
853.8995, 835.8047
854.3817, 856.6836
854.8638, 747.5078
855.3459, 631.6953
855.8280, 598.5820
856.3101, 670.5625
856.7922, 718.1094
857.2744, 737.1992
857.7565, 741.4258
858.2386, 748.2383
858.7207, 752.3203
859.2028, 734.0859
859.6849, 690.9688
860.1671, 657.5234
860.6492, 657.3164
861.1313, 671.0039
861.6134, 693.4531
862.0955, 731.5078
862.5776, 728.2109
863.0598, 664.8203
863.5419, 592.9219
864.0240, 534.3359
864.5061, 490.1602
864.9882, 495.5625
865.4703, 550.0938
865.9524, 592.3438
866.4345, 565.2500
866.9166, 516.7344
867.3987, 494.8320
867.8809, 499.0664
868.3630, 488.8516
868.8451, 441.0586
869.3272, 389.9375
869.8093, 346.8945
870.2914, 312.0352
870.7736, 312.6172
871.2557, 350.3945
871.7378, 388.0938
872.2199, 414.4883
872.7020, 422.7109
873.1841, 376.7227
873.6663, 294.3281
874.1484, 255.8438
874.6305, 336.4141
875.1126, 426.2812
875.5947, 483.3281
876.0768, 510.9375
876.5590, 520.8906
877.0411, 511.5000
877.5232, 490.0703
878.0053, 453.6562
878.4874, 413.5781
878.9695, 397.7383
879.4517, 400.3711
879.9338, 400.2812
880.4159, 381.8594
880.8980, 364.8398
881.3801, 363.7148
881.8622, 372.0039
882.3444, 371.8984
882.8265, 350.0898
883.3086, 349.9180
883.7907, 389.9844
884.2728, 440.5234
884.7549, 436.6211
885.2371, 387.9492
885.7192, 348.2422
886.2013, 334.7617
886.6834, 330.8203
887.1655, 317.8281
887.6476, 306.7344
888.1298, 312.7656
888.6119, 369.4531
889.0940, 396.8789
889.5761, 372.3359
890.0582, 337.6172
890.5403, 347.2383
891.0225, 398.4414
891.5046, 447.1875
891.9867, 490.0469
892.4688, 514.3242
892.9509, 502.6367
893.4330, 468.7617
893.9152, 424.2930
894.3973, 360.2148
894.8794, 327.1875
895.3615, 383.4844
895.8436, 433.7734
896.3257, 409.1836
896.8079, 299.1562
897.2900, 219.6406
897.7721, 172.6367
898.2542, 144.6055
898.7363, 127.3867
899.2184, 120.6680
899.7006, 129.5156
900.1827, 153.1133
900.6648, 166.9609
901.1469, 133.9570
901.6290, 114.9570
902.1111, 151.7109
902.5933, 238.4883
903.0754, 256.6211
903.5575, 190.2305
904.0396, 143.4297
904.5217, 197.1680
905.0038, 292.7578
905.4860, 309.8633
905.9681, 266.1133
906.4502, 231.3633
906.9323, 271.5469
907.4144, 294.0469
907.8965, 240.3242
908.3787, 137.3633
908.8608, 64.49219
909.3429, 21.44141
909.8250, 16.62500
910.3071, 69.11719
910.7892, 136.3008
911.2714, 126.1016
911.7535, 64.81250
912.2356, 22.63672
912.7177, 47.20703
913.1998, 62.69922
913.6819, 10.30859
914.1641, 63.12109
914.6462, 85.14062
915.1283, 21.53906
915.6104, 14.86719
916.0925, 4.480469
916.5746, 20.67969
917.0568, 23.01953
917.5389, 7.437500
918.0210, 15.38672
918.5031, 44.78906
918.9852, 72.50000
919.4673, 80.53125
919.9495, 93.44531
920.4316, 142.4492
920.9137, 252.7891
921.3958, 292.4805
921.8779, 240.4258
922.3600, 169.5078
922.8422, 122.5586
923.3243, 99.15625
923.8064, 107.7344
924.2885, 145.0000
924.7706, 170.8906
925.2527, 137.1758
925.7349, 104.5000
926.2170, 118.3867
926.6991, 177.2227
927.1812, 222.7305
927.6633, 259.8281
928.1454, 268.3594
928.6276, 233.1641
929.1097, 171.9336
929.5918, 127.4258
930.0739, 98.87891
930.5560, 84.51172
931.0381, 97.51562
931.5203, 108.5859
932.0024, 98.34375
932.4845, 75.33203
932.9666, 55.12891
933.4487, 30.67188
933.9308, 31.31641
934.4130, 72.39844
934.8951, 117.2383
935.3772, 99.73047
935.8593, 40.23828
936.3414, 9.988281
936.8235, 24.85938
937.3057, 60.15234
937.7878, 119.2852
938.2699, 178.0547
938.7520, 211.3086
939.2341, 209.5039
939.7162, 215.2734
940.1984, 230.6914
940.6805, 243.4258
941.1626, 245.7461
941.6447, 238.9023
942.1268, 220.0391
942.6089, 190.5117
943.0911, 169.4180
943.5732, 173.6680
944.0553, 184.4336
944.5374, 193.8555
945.0195, 198.7148
945.5016, 188.0117
945.9838, 147.5938
946.4659, 137.8711
946.9480, 196.1094
947.4301, 279.1328
947.9122, 278.3477
948.3943, 216.0586
948.8764, 165.1367
949.3585, 172.5156
949.8406, 178.4531
950.3228, 145.0195
950.8049, 96.97266
951.2870, 74.91016
951.7691, 91.91016
952.2512, 93.74609
952.7333, 68.67188
953.2155, 48.68750
953.6976, 89.14453
954.1797, 160.3594
954.6618, 190.3477
955.1439, 162.0391
955.6260, 140.2461
956.1082, 173.7188
956.5903, 211.0508
957.0724, 215.2500
957.5545, 183.0078
958.0366, 156.2734
958.5187, 135.2734
959.0009, 118.7031
959.4830, 105.2930
959.9651, 96.82422
960.4472, 94.21875
960.9293, 99.24219
961.4114, 117.2539
961.8936, 169.7188
962.3757, 214.7461
962.8578, 230.8398
963.3399, 232.0000
963.8220, 257.7500
964.3041, 312.3008
964.7863, 330.5547
965.2684, 285.4023
965.7505, 224.4727
966.2326, 202.1094
966.7147, 206.8789
967.1968, 225.5508
967.6790, 273.5039
968.1611, 290.4688
968.6432, 230.8789
969.1253, 170.8281
969.6074, 187.3555
970.0895, 286.1250
970.5717, 294.9453
971.0538, 209.2422
971.5359, 96.12891
972.0180, 32.87500
972.5001, 134.0352
972.9822, 140.3945
973.4644, 59.03516
973.9465, 1.523438
974.4286, 1.625000
974.9107, 3.847656
975.3928, 23.09766
975.8749, 55.87500
976.3571, 102.8320
976.8392, 158.8008
977.3213, 193.7539
977.8034, 193.8086
978.2855, 171.1289
978.7676, 112.1328
979.2498, 44.53906
979.7319, 11.54297
980.2140, 34.08594
980.6961, 67.35547
981.1782, 124.4766
981.6603, 165.1016
982.1425, 113.9805
982.6246, 11.76562
983.1067, 5.253906
983.5888, 107.8906
984.0709, 196.6641
984.5530, 156.7109
985.0352, 110.7266
985.5173, 154.8164
985.9994, 280.2188
986.4815, 344.2969
986.9636, 332.7383
987.4457, 316.6094
987.9279, 330.9570
988.4100, 352.9805
988.8921, 336.3750
989.3742, 293.8203
989.8563, 258.9961
990.3384, 262.7031
990.8206, 256.4336
991.3027, 212.3594
991.7848, 165.2812
992.2669, 171.4727
992.7490, 239.0977
993.2311, 231.6680
993.7133, 124.3438
994.1954, 17.27344
994.6775, 22.94141
995.1596, 70.07422
995.6417, 74.85938
996.1238, 22.16016
996.6060, 16.56250
997.0881, 32.30859
997.5702, 32.09766
998.0523, 10.42578
998.5344, 31.66797
999.0165, 49.88281
999.4987, 40.04688
999.9808, 20.76953
1000.463, 0.9843750
1000.945, 15.39844
1001.427, 24.42969
1001.909, 19.03516
1002.391, 23.95312
1002.873, 119.5352
1003.356, 187.2227
1003.838, 216.9375
1004.320, 220.9336
1004.802, 205.0273
1005.284, 175.9297
1005.766, 148.2188
1006.248, 122.0664
1006.730, 97.23438
1007.213, 63.28906
1007.695, 43.33984
1008.177, 55.82422
1008.659, 98.11328
1009.141, 122.7227
1009.623, 131.9062
1010.105, 144.6875
1010.587, 172.0078
1011.069, 195.3008
1011.552, 182.1055
1012.034, 151.7031
1012.516, 145.2422
1012.998, 196.9883
1013.480, 242.8164
1013.962, 283.1250
1014.444, 304.5508
1014.926, 279.0898
1015.409, 215.1172
1015.891, 165.3984
1016.373, 135.8711
1016.855, 118.8008
1017.337, 111.7109
1017.819, 113.0117
1018.301, 129.4414
1018.783, 161.2148
1019.265, 160.8633
1019.748, 115.0039
1020.230, 90.22266
1020.712, 119.0820
1021.194, 181.1328
1021.676, 260.7305
1022.158, 340.7578
1022.640, 377.9844
1023.122, 308.5859
1023.604, 256.8945
1024.087, 260.3359
1024.569, 288.3828
1025.051, 309.6719
1025.533, 322.8828
1026.015, 359.1484
1026.497, 421.3750
1026.979, 471.0547
1027.461, 463.9531
1027.943, 436.0234
1028.426, 417.4258
1028.908, 411.1406
1029.390, 412.6797
1029.872, 437.3477
1030.354, 427.8516
1030.836, 358.6836
1031.318, 274.6797
1031.800, 276.6523
1032.283, 336.0625
1032.765, 374.2461
1033.247, 353.9219
1033.729, 332.6641
1034.211, 350.6992
1034.693, 369.1875
1035.175, 342.7305
1035.657, 254.3984
1036.140, 233.4102
1036.622, 286.7734
1037.104, 339.8320
1037.586, 311.3984
1038.068, 263.2148
1038.550, 275.2734
1039.032, 336.8438
1039.514, 375.3242
1039.996, 377.6289
1040.479, 350.4688
1040.961, 285.8359
1041.443, 205.9336
1041.925, 138.1133
1042.407, 91.41797
1042.889, 104.9922
1043.371, 208.1797
1043.853, 289.8008
1044.335, 278.3086
1044.818, 226.5352
1045.300, 167.9961
1045.782, 99.40625
1046.264, 89.63672
1046.746, 143.6562
1047.228, 201.0312
1047.710, 222.3984
1048.192, 226.4219
1048.675, 240.0703
1049.157, 255.0703
1049.639, 251.2266
1050.121, 204.1289
1050.603, 159.3047
1051.085, 115.5078
1051.567, 83.36328
1052.049, 90.50781
1052.531, 123.5977
1053.014, 121.4336
1053.496, 75.82812
1053.978, 36.24609
1054.460, 61.89844
1054.942, 77.87891
1055.424, 10.12109
1055.906, 120.9023
1056.388, 147.5156
1056.870, 60.01953
1057.353, 43.38281
1057.835, 147.3320
1058.317, 212.4141
1058.799, 148.4609
1059.281, 26.01172
1059.763, 39.67578
1060.245, 17.75000
1060.727, 71.80859
1061.210, 127.0234
1061.692, 157.3945
1062.174, 121.2930
1062.656, 42.50391
1063.138, 9.773438
1063.620, 23.13672
1064.102, 55.04297
1064.584, 119.4219
1065.067, 167.9336
1065.549, 179.7656
1066.031, 159.7578
1066.513, 97.90234
1066.995, 12.02344
1067.477, 61.11719
1067.959, 20.44922
1068.441, 52.47266
1068.923, 97.51562
1069.406, 141.4492
1069.888, 233.2109
1070.370, 401.3633
1070.852, 442.9258
1071.334, 288.5430
1071.816, 158.3477
1072.298, 172.8242
1072.780, 277.2148
1073.262, 354.5039
1073.745, 408.7188
1074.227, 450.0391
1074.709, 481.4062
1075.191, 502.4609
1075.673, 511.8633
1076.155, 512.1367
1076.637, 509.3906
1077.119, 503.4219
1077.601, 457.4766
1078.084, 369.6992
1078.566, 301.3828
1079.048, 339.8633
1079.530, 380.7969
1080.012, 325.6875
1080.494, 194.9336
1080.976, 130.0352
1081.458, 148.4180
1081.941, 171.3203
1082.423, 182.6133
1082.905, 188.0625
1083.387, 191.8398
1083.869, 196.4141
1084.351, 213.4453
1084.833, 257.6523
1085.315, 249.1680
1085.797, 122.5898
1086.280, 22.86719
1086.762, 35.96484
1087.244, 131.9336
1087.726, 207.7422
1088.208, 260.5820
1088.690, 277.8633
1089.172, 228.8594
1089.654, 173.8281
1090.136, 133.9531
1090.619, 105.6133
1091.101, 82.95312
1091.583, 65.04297
1092.065, 70.46094
1092.547, 102.4180
1093.029, 119.5039
1093.511, 65.10547
1093.993, 1.585938
1094.476, 24.41406
1094.958, 6.621094
1095.440, 17.80859
1095.922, 51.91406
1096.404, 80.37109
1096.886, 103.4766
1097.368, 111.9141
1097.850, 74.01562
1098.333, 17.91406
1098.815, 1.710938
1099.297, 32.88281
1099.779, 53.44141
1100.261, 20.91797
1100.743, 1.132813
1101.225, 19.53125
1101.707, 70.08984
1102.189, 106.9688
1102.672, 130.3516
1103.154, 143.3281
1103.636, 132.4297
1104.118, 133.3047
1104.600, 180.6992
1105.082, 237.7109
1105.564, 266.9336
1106.046, 266.8750
1106.528, 247.2734
1107.011, 207.5039
1107.493, 179.8516
1107.975, 212.3320
1108.457, 247.5508
1108.939, 221.8242
1109.421, 155.1602
1109.903, 123.1562
1110.385, 145.0586
1110.868, 152.3477
1111.350, 129.1719
1111.832, 109.6992
1112.314, 160.5742
1112.796, 231.9023
1113.278, 232.6133
1113.760, 141.5898
1114.242, 101.3047
1114.724, 189.9258
1115.207, 271.9766
1115.689, 298.5078
1116.171, 285.9688
1116.653, 262.7695
1117.135, 232.8320
1117.617, 212.0234
1118.099, 217.8633
1118.581, 228.5820
1119.063, 248.0664
1119.546, 257.0312
1120.028, 231.8359
1120.510, 176.8906
1120.992, 184.4180
1121.474, 250.1953
1121.956, 307.5625
1122.438, 313.0469
1122.920, 303.8047
1123.403, 308.8438
1123.885, 311.2344
1124.367, 277.4141
1124.849, 188.7930
1125.331, 154.4492
1125.813, 191.8320
1126.295, 235.2930
1126.777, 223.4102
1127.260, 188.3164
1127.742, 158.1250
1128.224, 134.8555
1128.706, 116.4570
1129.188, 102.2695
1129.670, 91.44922
1130.152, 79.71094
1130.634, 82.01562
1131.116, 135.2070
1131.599, 209.3125
1132.081, 253.3203
1132.563, 256.8008
1133.045, 258.1094
1133.527, 267.9141
1134.009, 270.5117
1134.491, 251.7148
1134.973, 228.6211
1135.455, 271.4062
1135.938, 347.7500
1136.420, 352.9609
1136.902, 210.4102
1137.384, 103.4844
1137.866, 125.8438
1138.348, 187.8594
1138.830, 241.7891
1139.312, 286.7773
1139.795, 291.8203
1140.277, 262.9258
1140.759, 244.7539
1141.241, 290.4102
1141.723, 320.3867
1142.205, 266.7383
1142.687, 188.5977
1143.169, 167.6016
1143.651, 211.6602
1144.134, 230.7812
1144.616, 221.2969
1145.098, 203.0195
1145.580, 171.1367
1146.062, 153.4922
1146.544, 191.6797
1147.026, 263.9258
1147.508, 286.0977
1147.990, 245.6758
1148.473, 208.2656
1148.955, 183.7188
1149.437, 166.7930
1149.919, 158.8789
1150.401, 151.3281
1150.883, 124.9727
1151.365, 79.19141
1151.847, 71.57422
1152.330, 120.2188
1152.812, 166.4453
1153.294, 192.4062
1153.776, 203.7422
1154.258, 195.0508
1154.740, 182.5859
1155.222, 201.7266
1155.704, 275.7812
1156.186, 302.3594
1156.669, 248.8555
1157.151, 190.4023
1157.633, 158.1211
1158.115, 148.0234
1158.597, 168.1016
1159.079, 204.0352
1159.561, 209.4336
1160.043, 130.4688
1160.526, 91.66797
1161.008, 143.7656
1161.490, 208.1211
1161.972, 223.7773
1162.454, 201.2773
1162.936, 202.4414
1163.418, 221.2656
1163.900, 226.0586
1164.382, 187.7578
1164.865, 147.8398
1165.347, 113.8164
1165.829, 89.06250
1166.311, 77.80078
1166.793, 79.81641
1167.275, 99.92969
1167.757, 137.0859
1168.239, 167.1328
1168.721, 178.9883
1169.204, 174.5312
1169.686, 147.8281
1170.168, 109.1289
1170.650, 73.23047
1171.132, 40.59766
1171.614, 17.01953
1172.096, 4.250000
1172.578, 6.972656
1173.061, 30.37891
1173.543, 49.35156
1174.025, 51.62891
1174.507, 38.24609
1174.989, 7.820313
1175.471, 41.18359
1175.953, 63.33594
1176.435, 36.64062
1176.917, 17.64844
1177.400, 88.44531
1177.882, 173.5938
1178.364, 183.4492
1178.846, 108.5664
1179.328, 81.94531
1179.810, 108.2852
1180.292, 139.3984
1180.774, 152.7031
1181.256, 169.3906
1181.739, 247.1953
1182.221, 324.7422
1182.703, 311.1367
1183.185, 168.0586
1183.667, 69.42578
1184.149, 13.13281
1184.631, 18.18359
1185.113, 151.0273
1185.596, 296.9453
1186.078, 283.7266
1186.560, 182.3242
1187.042, 125.0078
1187.524, 153.8008
1188.006, 179.6055
1188.488, 203.0859
1188.970, 215.4883
1189.453, 208.8086
1189.935, 187.4375
1190.417, 149.6445
1190.899, 102.6484
1191.381, 66.96875
1191.863, 43.48828
1192.345, 47.93750
1192.827, 92.69141
1193.309, 133.5469
1193.792, 120.3398
1194.274, 77.71875
1194.756, 32.48047
1195.238, 8.164063
1195.720, 24.66406
1196.202, 9.789063
1196.684, 13.38281
1197.166, 45.32812
1197.648, 76.63281
1198.131, 78.89453
1198.613, 76.63281
1199.095, 131.5312
1199.577, 245.3047
1200.059, 301.3086
1200.541, 245.3516
1201.023, 195.7422
1201.505, 179.7578
1201.988, 184.7891
1202.470, 197.7227
1202.952, 214.9258
1203.434, 231.7227
1203.916, 249.2305
1204.398, 252.7930
1204.880, 239.8086
1205.362, 215.5078
1205.844, 176.8555
1206.327, 134.6641
1206.809, 106.3086
1207.291, 91.90625
1207.773, 93.16406
1208.255, 114.5547
1208.737, 135.3008
1209.219, 151.6875
1209.701, 168.6562
1210.183, 193.4141
1210.666, 214.7734
1211.148, 193.6406
1211.630, 150.4023
1212.112, 128.9570
1212.594, 138.4258
1213.076, 185.1289
1213.558, 302.7344
1214.040, 381.2852
1214.523, 323.5586
1215.005, 196.1641
1215.487, 175.4805
1215.969, 223.7344
1216.451, 244.2148
1216.933, 164.9375
1217.415, 131.6836
1217.897, 180.1328
1218.380, 229.3008
1218.862, 207.4570
1219.344, 145.8984
1219.826, 114.6992
1220.308, 110.1875
1220.790, 119.2500
1221.272, 148.7109
1221.754, 174.5664
1222.236, 192.3281
1222.719, 210.7891
1223.201, 242.0000
1223.683, 277.1875
1224.165, 293.9414
1224.647, 295.8398
1225.129, 302.2656
1225.611, 325.1055
1226.093, 341.9883
1226.575, 351.4453
1227.058, 350.7500
1227.540, 330.8320
1228.022, 301.7734
1228.504, 290.9844
1228.986, 293.5430
1229.468, 270.3867
1229.950, 182.8086
1230.432, 125.5938
1230.915, 119.9453
1231.397, 126.6641
1231.879, 91.64062
1232.361, 43.85938
1232.843, 38.27344
1233.325, 71.74609
1233.807, 87.05469
1234.289, 68.78906
1234.771, 38.31250
1235.254, 9.769531
1235.736, 38.92578
1236.218, 31.30469
1236.700, 134.6016
1237.182, 174.7656
1237.664, 143.5508
1238.146, 98.78125
1238.628, 22.77344
1239.110, 3.761719
1239.593, 73.91797
1240.075, 166.5938
1240.557, 194.0781
1241.039, 188.1992
1241.521, 190.2227
1242.003, 205.3789
1242.485, 199.2227
1242.967, 169.3516
1243.449, 128.6133
1243.932, 73.46094
1244.414, 26.94141
1244.896, 32.55078
1245.378, 59.31250
1245.860, 73.69922
1246.342, 70.78516
1246.824, 60.16797
1247.306, 37.09766
1247.789, 32.39062
1248.271, 62.37500
1248.753, 94.21094
1249.235, 73.14062
1249.717, 44.71875
1250.199, 78.51562
1250.681, 180.3750
1251.163, 185.1914
1251.646, 85.07422
1252.128, 5.394531
1252.610, 49.01953
1253.092, 58.56641
1253.574, 17.80859
1254.056, 30.72656
1254.538, 36.80859
1255.020, 1.753906
1255.502, 6.175781
1255.984, 12.91016
1256.467, 34.38672
1256.949, 53.66406
1257.431, 61.90625
1257.913, 42.85156
1258.395, 17.99219
1258.877, 4.367188
1259.359, 2.550781
1259.841, 20.06641
1260.324, 55.83984
1260.806, 103.5703
1261.288, 184.5273
1261.770, 228.5195
1262.252, 139.5234
1262.734, 44.94922
1263.216, 49.57812
1263.698, 137.9531
1264.181, 202.3789
1264.663, 257.0234
1265.145, 283.8984
1265.627, 263.9297
1266.109, 237.7891
1266.591, 214.8320
1267.073, 201.7656
1267.555, 211.3008
1268.037, 236.1484
1268.520, 233.6836
1269.002, 214.6602
1269.484, 211.0078
1269.966, 256.4805
1270.448, 276.7305
1270.930, 253.3477
1271.412, 218.2930
1271.894, 180.6406
1272.376, 151.0938
1272.859, 178.7109
1273.341, 273.0352
1273.823, 341.5352
1274.305, 350.0234
1274.787, 324.2812
1275.269, 236.9805
1275.751, 173.0664
1276.233, 227.9062
1276.716, 340.1836
1277.198, 409.4336
1277.680, 438.5000
1278.162, 441.4102
1278.644, 430.9180
1279.126, 358.0820
1279.608, 203.5430
1280.090, 93.05078
1280.573, 171.4062
1281.055, 292.2422
1281.537, 299.7305
1282.019, 236.7617
1282.501, 185.2266
1282.983, 151.8281
1283.465, 137.4844
1283.947, 143.4297
1284.429, 146.1016
1284.911, 130.4414
1285.394, 103.9883
1285.876, 54.91797
1286.358, 7.691406
1286.840, 2.984375
1287.322, 24.07812
1287.804, 65.00000
1288.286, 115.9453
1288.768, 138.6172
1289.251, 78.67188
1289.733, 11.03516
1290.215, 0.5781250
1290.697, 11.42969
1291.179, 35.13672
1291.661, 43.18750
1292.143, 0.0000000E+00
##END=



