##NAMES=Burbankite
##RRUFFID=R110199
##IDEAL CHEMISTRY=(Na,Ca)_3_(Sr,Ba,Ce)_3_(CO_3_)_5_
##LOCALITY=Poudrette quarry, Mont Saint-Hilaire, Quebec, Canada
##OWNER=RRUFF
##SOURCE=Donald Doell
##DESCRIPTION=Tufts of white lathlike crystals
##STATUS=The identification of this mineral has been confirmed only by single crystal X-ray diffraction.
##URL=rruff.info/R110199
202.0082, 2905.007
202.4904, 2957.974
202.9725, 3009.546
203.4546, 3056.079
203.9367, 3097.609
204.4188, 3138.019
204.9009, 3182.548
205.3831, 3233.606
205.8652, 3281.063
206.3473, 3317.455
206.8294, 3355.590
207.3115, 3403.250
207.7936, 3461.292
208.2758, 3525.286
208.7579, 3589.982
209.2400, 3660.480
209.7221, 3719.018
210.2042, 3757.014
210.6863, 3791.047
211.1685, 3830.520
211.6506, 3878.117
212.1327, 3933.081
212.6148, 3995.949
213.0969, 4075.536
213.5790, 4142.401
214.0612, 4187.867
214.5433, 4226.845
215.0254, 4269.776
215.5075, 4319.253
215.9896, 4375.193
216.4717, 4437.849
216.9539, 4512.681
217.4360, 4581.763
217.9181, 4639.368
218.4002, 4693.930
218.8823, 4755.219
219.3644, 4825.462
219.8466, 4898.198
220.3287, 4965.442
220.8108, 5027.838
221.2929, 5083.214
221.7750, 5127.340
222.2571, 5165.767
222.7393, 5202.855
223.2214, 5238.333
223.7035, 5279.168
224.1856, 5341.148
224.6677, 5422.447
225.1498, 5491.377
225.6320, 5530.253
226.1141, 5554.071
226.5962, 5587.767
227.0783, 5637.059
227.5604, 5691.403
228.0425, 5738.640
228.5247, 5780.793
229.0068, 5829.802
229.4889, 5895.969
229.9710, 5971.272
230.4531, 6039.690
230.9352, 6101.216
231.4174, 6151.079
231.8995, 6180.324
232.3816, 6195.094
232.8637, 6211.561
233.3458, 6236.792
233.8279, 6269.639
234.3101, 6309.250
234.7922, 6363.610
235.2743, 6409.889
235.7564, 6427.465
236.2385, 6428.601
236.7206, 6438.545
237.2028, 6474.899
237.6849, 6531.543
238.1670, 6583.252
238.6491, 6629.003
239.1312, 6670.598
239.6133, 6708.406
240.0955, 6743.517
240.5776, 6778.172
241.0597, 6813.361
241.5418, 6849.104
242.0239, 6884.016
242.5060, 6912.479
242.9882, 6948.835
243.4703, 7007.978
243.9524, 7074.831
244.4345, 7125.588
244.9166, 7143.480
245.3987, 7138.354
245.8809, 7157.323
246.3630, 7224.733
246.8451, 7286.099
247.3272, 7321.878
247.8093, 7347.681
248.2914, 7384.572
248.7736, 7444.576
249.2557, 7521.743
249.7378, 7591.223
250.2199, 7647.908
250.7020, 7702.737
251.1841, 7755.198
251.6663, 7807.017
252.1484, 7858.262
252.6305, 7909.148
253.1126, 7961.830
253.5947, 8024.893
254.0768, 8116.555
254.5590, 8195.989
255.0411, 8247.229
255.5232, 8290.428
256.0053, 8352.841
256.4874, 8445.564
256.9695, 8551.651
257.4517, 8629.870
257.9338, 8622.778
258.4159, 8657.554
258.8980, 8767.853
259.3801, 8906.243
259.8622, 9022.497
260.3444, 9099.382
260.8265, 9157.230
261.3086, 9234.231
261.7907, 9349.325
262.2728, 9455.575
262.7549, 9548.083
263.2371, 9634.027
263.7192, 9717.562
264.2013, 9800.412
264.6834, 9886.486
265.1655, 9983.044
265.6476, 10098.69
266.1298, 10202.56
266.6119, 10289.75
267.0940, 10367.85
267.5761, 10441.87
268.0582, 10513.43
268.5403, 10583.82
269.0225, 10654.55
269.5046, 10725.65
269.9867, 10797.25
270.4688, 10872.16
270.9509, 10945.69
271.4330, 11015.48
271.9152, 11080.80
272.3973, 11139.23
272.8794, 11188.90
273.3615, 11228.56
273.8436, 11255.43
274.3257, 11255.78
274.8079, 11253.08
275.2900, 11269.30
275.7721, 11304.28
276.2542, 11337.08
276.7363, 11352.21
277.2184, 11349.89
277.7006, 11346.66
278.1827, 11339.45
278.6648, 11333.75
279.1469, 11335.09
279.6290, 11342.58
280.1111, 11349.67
280.5933, 11354.80
281.0754, 11355.18
281.5575, 11344.38
282.0396, 11309.44
282.5217, 11279.18
283.0038, 11282.79
283.4860, 11311.73
283.9681, 11318.67
284.4502, 11273.12
284.9323, 11199.65
285.4144, 11151.13
285.8965, 11133.38
286.3787, 11124.54
286.8608, 11120.79
287.3429, 11118.11
287.8250, 11098.98
288.3071, 11050.00
288.7892, 10992.52
289.2714, 10961.64
289.7535, 10961.42
290.2356, 10952.48
290.7177, 10906.12
291.1998, 10836.72
291.6819, 10783.72
292.1641, 10760.59
292.6462, 10746.19
293.1283, 10718.58
293.6104, 10679.26
294.0925, 10634.17
294.5746, 10580.29
295.0568, 10523.22
295.5389, 10476.82
296.0210, 10446.96
296.5031, 10415.10
296.9852, 10355.21
297.4673, 10278.52
297.9495, 10216.80
298.4316, 10197.32
298.9137, 10192.39
299.3958, 10156.79
299.8779, 10083.58
300.3600, 10008.43
300.8422, 9953.499
301.3243, 9913.148
301.8064, 9880.660
302.2885, 9857.464
302.7706, 9838.319
303.2527, 9816.518
303.7349, 9791.585
304.2170, 9770.024
304.6991, 9761.049
305.1812, 9754.088
305.6633, 9731.721
306.1454, 9684.128
306.6276, 9640.414
307.1097, 9632.275
307.5918, 9657.423
308.0739, 9674.922
308.5560, 9666.515
309.0381, 9648.759
309.5203, 9642.364
310.0024, 9649.053
310.4845, 9653.844
310.9666, 9636.350
311.4487, 9604.587
311.9308, 9602.584
312.4130, 9654.697
312.8951, 9715.909
313.3772, 9739.953
313.8593, 9732.543
314.3414, 9729.989
314.8235, 9753.081
315.3057, 9794.198
315.7878, 9832.979
316.2699, 9864.450
316.7520, 9901.485
317.2341, 9955.633
317.7162, 10021.89
318.1984, 10091.56
318.6805, 10169.49
319.1626, 10245.22
319.6447, 10297.43
320.1268, 10320.89
320.6089, 10347.25
321.0911, 10395.67
321.5732, 10458.40
322.0553, 10527.61
322.5374, 10608.03
323.0195, 10684.82
323.5016, 10736.90
323.9838, 10764.35
324.4659, 10798.07
324.9480, 10849.25
325.4301, 10913.87
325.9122, 10989.40
326.3943, 11079.86
326.8765, 11162.54
327.3586, 11213.16
327.8407, 11238.68
328.3228, 11278.39
328.8049, 11348.69
329.2870, 11425.49
329.7692, 11483.96
330.2513, 11525.38
330.7334, 11562.78
331.2155, 11599.76
331.6976, 11637.26
332.1797, 11679.00
332.6619, 11727.81
333.1440, 11773.93
333.6261, 11797.12
334.1082, 11809.92
334.5903, 11846.26
335.0724, 11938.70
335.5546, 12048.62
336.0367, 12126.15
336.5188, 12168.99
337.0009, 12198.26
337.4830, 12219.28
337.9651, 12236.17
338.4473, 12256.50
338.9294, 12282.17
339.4115, 12309.79
339.8936, 12340.82
340.3757, 12373.71
340.8578, 12394.87
341.3400, 12395.66
341.8221, 12385.45
342.3042, 12379.09
342.7863, 12377.01
343.2684, 12375.72
343.7505, 12374.82
344.2327, 12373.39
344.7148, 12370.75
345.1969, 12368.68
345.6790, 12360.10
346.1611, 12327.30
346.6432, 12274.85
347.1254, 12237.75
347.6075, 12258.74
348.0896, 12283.67
348.5717, 12230.95
349.0538, 12090.79
349.5359, 11951.38
350.0181, 11886.14
350.5002, 11877.04
350.9823, 11835.73
351.4644, 11728.15
351.9465, 11612.56
352.4286, 11530.60
352.9108, 11476.20
353.3929, 11418.76
353.8750, 11344.53
354.3571, 11257.42
354.8392, 11166.46
355.3214, 11068.17
355.8035, 10974.41
356.2856, 10890.25
356.7677, 10813.61
357.2498, 10744.97
357.7319, 10686.55
358.2141, 10623.80
358.6962, 10530.20
359.1783, 10398.38
359.6604, 10283.14
360.1425, 10207.13
360.6246, 10139.68
361.1068, 10049.67
361.5889, 9934.725
362.0710, 9819.041
362.5531, 9722.840
363.0352, 9645.952
363.5173, 9566.918
363.9995, 9486.893
364.4816, 9403.481
364.9637, 9308.597
365.4458, 9209.108
365.9279, 9124.428
366.4100, 9066.892
366.8922, 9025.813
367.3743, 8966.921
367.8564, 8873.603
368.3385, 8787.131
368.8206, 8709.775
369.3027, 8643.074
369.7849, 8594.776
370.2670, 8566.027
370.7491, 8540.066
371.2312, 8492.588
371.7133, 8413.025
372.1954, 8344.302
372.6776, 8300.470
373.1597, 8255.230
373.6418, 8185.055
374.1239, 8095.602
374.6060, 8014.274
375.0881, 7963.899
375.5703, 7943.461
376.0524, 7908.972
376.5345, 7841.852
377.0166, 7782.115
377.4987, 7744.488
377.9808, 7718.206
378.4630, 7685.267
378.9451, 7637.303
379.4272, 7583.503
379.9093, 7546.265
380.3914, 7537.120
380.8735, 7525.995
381.3557, 7516.817
381.8378, 7502.053
382.3199, 7474.643
382.8020, 7434.412
383.2841, 7387.436
383.7662, 7337.838
384.2484, 7282.620
384.7305, 7244.527
385.2126, 7241.140
385.6947, 7238.468
386.1768, 7226.424
386.6589, 7206.873
387.1411, 7185.820
387.6232, 7167.256
388.1053, 7149.016
388.5874, 7121.461
389.0695, 7072.630
389.5516, 7037.826
390.0338, 7038.201
390.5159, 7046.904
390.9980, 7036.734
391.4801, 7000.370
391.9622, 6957.927
392.4443, 6935.001
392.9265, 6933.787
393.4086, 6931.472
393.8907, 6927.015
394.3728, 6919.010
394.8549, 6904.648
395.3370, 6885.606
395.8192, 6868.023
396.3013, 6857.378
396.7834, 6851.143
397.2655, 6839.751
397.7476, 6819.829
398.2297, 6803.624
398.7119, 6804.748
399.1940, 6811.227
399.6761, 6806.403
400.1582, 6782.718
400.6403, 6754.196
401.1224, 6736.763
401.6046, 6729.386
402.0867, 6716.120
402.5688, 6687.184
403.0509, 6656.048
403.5330, 6642.570
404.0151, 6647.381
404.4973, 6642.959
404.9794, 6606.973
405.4615, 6556.847
405.9436, 6524.235
406.4257, 6514.343
406.9078, 6510.835
407.3900, 6505.089
407.8721, 6495.224
408.3542, 6473.733
408.8363, 6427.412
409.3184, 6380.791
409.8005, 6348.467
410.2827, 6329.026
410.7648, 6321.074
411.2469, 6328.265
411.7290, 6338.143
412.2111, 6318.728
412.6932, 6257.066
413.1754, 6203.619
413.6575, 6170.688
414.1396, 6148.126
414.6217, 6128.419
415.1038, 6109.250
415.5859, 6085.418
416.0681, 6050.935
416.5502, 6004.517
417.0323, 5960.910
417.5144, 5916.459
417.9965, 5877.986
418.4786, 5850.816
418.9608, 5831.427
419.4429, 5814.571
419.9250, 5797.998
420.4071, 5778.602
420.8892, 5747.192
421.3713, 5692.998
421.8535, 5642.845
422.3356, 5593.865
422.8177, 5551.174
423.2998, 5524.360
423.7819, 5511.129
424.2640, 5495.245
424.7462, 5457.093
425.2283, 5393.972
425.7104, 5346.669
426.1925, 5327.855
426.6746, 5312.288
427.1567, 5298.090
427.6389, 5281.164
428.1210, 5254.690
428.6031, 5214.146
429.0852, 5167.502
429.5673, 5131.821
430.0494, 5110.218
430.5316, 5088.083
431.0137, 5062.550
431.4958, 5035.200
431.9779, 5007.831
432.4600, 4980.211
432.9421, 4949.414
433.4243, 4911.172
433.9064, 4867.486
434.3885, 4826.358
434.8706, 4787.425
435.3527, 4752.471
435.8348, 4721.605
436.3170, 4695.424
436.7991, 4676.647
437.2812, 4671.941
437.7633, 4666.491
438.2454, 4645.047
438.7275, 4609.398
439.2097, 4571.356
439.6918, 4532.233
440.1739, 4496.779
440.6560, 4473.865
441.1381, 4463.750
441.6202, 4454.435
442.1024, 4446.509
442.5845, 4435.580
443.0666, 4414.576
443.5487, 4383.523
444.0308, 4352.119
444.5129, 4328.580
444.9951, 4311.465
445.4772, 4285.999
445.9593, 4241.514
446.4414, 4202.508
446.9235, 4177.447
447.4056, 4162.229
447.8878, 4152.599
448.3699, 4146.864
448.8520, 4140.497
449.3341, 4125.474
449.8162, 4095.048
450.2983, 4075.741
450.7805, 4077.548
451.2626, 4079.548
451.7447, 4073.504
452.2268, 4058.409
452.7089, 4033.333
453.1910, 3996.044
453.6732, 3951.801
454.1553, 3924.035
454.6374, 3923.940
455.1195, 3921.778
455.6016, 3911.913
456.0837, 3898.847
456.5659, 3887.237
457.0480, 3877.499
457.5301, 3865.419
458.0122, 3844.073
458.4943, 3813.682
458.9764, 3790.909
459.4586, 3780.706
459.9407, 3771.685
460.4228, 3755.922
460.9049, 3737.455
461.3870, 3724.844
461.8691, 3725.808
462.3513, 3726.000
462.8334, 3703.946
463.3155, 3660.665
463.7976, 3622.667
464.2797, 3598.359
464.7618, 3582.813
465.2440, 3569.257
465.7261, 3557.439
466.2082, 3550.331
466.6903, 3557.482
467.1724, 3565.285
467.6545, 3553.306
468.1367, 3521.273
468.6188, 3490.169
469.1009, 3474.879
469.5830, 3471.858
470.0651, 3462.510
470.5472, 3440.803
471.0294, 3421.398
471.5115, 3408.542
471.9936, 3399.808
472.4757, 3392.813
472.9578, 3386.760
473.4399, 3380.814
473.9221, 3374.347
474.4042, 3368.034
474.8863, 3356.989
475.3684, 3339.452
475.8505, 3319.575
476.3326, 3297.860
476.8148, 3275.091
477.2969, 3252.198
477.7790, 3229.766
478.2611, 3207.636
478.7432, 3184.917
479.2253, 3159.316
479.7075, 3140.030
480.1896, 3130.326
480.6717, 3125.473
481.1538, 3128.795
481.6359, 3136.348
482.1180, 3134.511
482.6002, 3107.816
483.0823, 3067.104
483.5644, 3045.122
484.0465, 3047.591
484.5286, 3048.238
485.0107, 3034.019
485.4929, 3012.418
485.9750, 2992.148
486.4571, 2974.661
486.9392, 2955.945
487.4213, 2931.056
487.9034, 2903.515
488.3856, 2880.984
488.8677, 2864.483
489.3498, 2853.409
489.8319, 2849.524
490.3140, 2851.878
490.7961, 2848.315
491.2783, 2834.987
491.7604, 2819.854
492.2425, 2807.055
492.7246, 2794.862
493.2067, 2778.167
493.6888, 2755.223
494.1710, 2732.879
494.6531, 2723.432
495.1352, 2735.665
495.6173, 2732.495
496.0994, 2701.769
496.5815, 2669.793
497.0637, 2647.224
497.5458, 2633.664
498.0279, 2626.628
498.5100, 2625.307
498.9921, 2626.518
499.4742, 2621.544
499.9564, 2607.220
500.4385, 2594.707
500.9206, 2591.769
501.4027, 2586.105
501.8848, 2564.683
502.3669, 2530.937
502.8491, 2504.864
503.3312, 2507.223
503.8133, 2525.563
504.2954, 2523.625
504.7775, 2496.888
505.2596, 2471.219
505.7418, 2457.401
506.2239, 2452.531
506.7060, 2454.314
507.1881, 2465.794
507.6702, 2470.582
508.1523, 2456.798
508.6345, 2432.211
509.1166, 2407.492
509.5987, 2384.128
510.0808, 2366.347
510.5629, 2358.255
511.0450, 2359.323
511.5272, 2361.428
512.0093, 2371.267
512.4914, 2374.127
512.9735, 2361.094
513.4556, 2340.531
513.9377, 2321.516
514.4199, 2307.232
514.9020, 2298.787
515.3841, 2299.309
515.8662, 2311.417
516.3483, 2314.476
516.8304, 2298.501
517.3126, 2283.858
517.7947, 2277.183
518.2768, 2275.125
518.7589, 2273.122
519.2410, 2269.503
519.7231, 2263.327
520.2053, 2250.704
520.6874, 2230.695
521.1695, 2219.353
521.6516, 2226.097
522.1337, 2232.559
522.6158, 2224.693
523.0980, 2206.611
523.5801, 2189.851
524.0622, 2176.798
524.5443, 2168.502
525.0264, 2169.867
525.5085, 2178.684
525.9907, 2180.902
526.4728, 2170.038
526.9549, 2154.065
527.4370, 2144.561
527.9191, 2142.142
528.4012, 2141.173
528.8834, 2143.319
529.3655, 2144.868
529.8476, 2141.987
530.3297, 2136.192
530.8118, 2132.043
531.2939, 2131.990
531.7761, 2135.000
532.2582, 2138.710
532.7403, 2144.856
533.2224, 2148.315
533.7045, 2149.149
534.1866, 2147.505
534.6688, 2141.814
535.1509, 2133.545
535.6330, 2126.881
536.1151, 2125.408
536.5972, 2126.248
537.0793, 2119.611
537.5615, 2101.909
538.0436, 2091.835
538.5257, 2100.752
539.0078, 2115.200
539.4899, 2125.194
539.9720, 2130.220
540.4542, 2130.014
540.9363, 2116.738
541.4184, 2101.978
541.9005, 2106.268
542.3826, 2129.109
542.8647, 2147.985
543.3469, 2150.286
543.8290, 2142.106
544.3111, 2139.027
544.7932, 2143.048
545.2753, 2146.567
545.7574, 2144.587
546.2396, 2144.495
546.7217, 2157.061
547.2038, 2179.077
547.6859, 2194.478
548.1680, 2191.054
548.6501, 2173.951
549.1323, 2166.417
549.6144, 2175.891
550.0965, 2182.254
550.5786, 2180.486
551.0607, 2177.392
551.5428, 2180.253
552.0250, 2187.750
552.5071, 2189.861
552.9892, 2172.586
553.4713, 2146.761
553.9534, 2148.449
554.4355, 2184.294
554.9177, 2213.736
555.3998, 2215.630
555.8819, 2206.376
556.3640, 2208.186
556.8461, 2222.256
557.3282, 2239.880
557.8104, 2263.256
558.2925, 2285.244
558.7746, 2295.882
559.2567, 2295.691
559.7388, 2292.257
560.2209, 2288.990
560.7031, 2287.559
561.1852, 2293.277
561.6673, 2313.321
562.1494, 2330.782
562.6315, 2345.946
563.1136, 2358.079
563.5958, 2365.427
564.0779, 2369.052
564.5600, 2371.472
565.0421, 2373.614
565.5242, 2377.367
566.0063, 2390.357
566.4885, 2416.367
566.9706, 2440.318
567.4527, 2457.836
567.9348, 2472.552
568.4169, 2486.528
568.8990, 2499.818
569.3812, 2512.184
569.8633, 2522.805
570.3454, 2532.659
570.8275, 2542.355
571.3096, 2552.070
571.7917, 2564.760
572.2739, 2582.965
572.7560, 2602.972
573.2381, 2617.361
573.7202, 2623.765
574.2023, 2634.540
574.6844, 2652.262
575.1666, 2673.543
575.6487, 2699.715
576.1308, 2727.480
576.6129, 2749.609
577.0950, 2762.375
577.5771, 2768.004
578.0593, 2769.964
578.5414, 2763.637
579.0235, 2766.302
579.5056, 2785.085
579.9877, 2807.335
580.4698, 2829.807
580.9520, 2851.193
581.4341, 2869.967
581.9162, 2885.489
582.3983, 2897.975
582.8804, 2903.792
583.3625, 2904.407
583.8447, 2917.566
584.3268, 2952.181
584.8089, 2989.262
585.2910, 3005.647
585.7731, 3003.988
586.2552, 3011.969
586.7374, 3043.390
587.2195, 3073.075
587.7016, 3088.032
588.1837, 3092.289
588.6658, 3091.300
589.1479, 3087.208
589.6301, 3083.751
590.1122, 3085.375
590.5943, 3092.241
591.0764, 3102.914
591.5585, 3123.200
592.0406, 3140.521
592.5228, 3152.614
593.0049, 3159.835
593.4870, 3161.057
593.9691, 3156.263
594.4512, 3151.582
594.9333, 3151.723
595.4155, 3156.695
595.8976, 3168.618
596.3797, 3189.986
596.8618, 3207.653
597.3439, 3214.057
597.8260, 3211.021
598.3082, 3203.482
598.7903, 3187.692
599.2724, 3176.919
599.7545, 3179.450
600.2366, 3186.626
600.7188, 3188.294
601.2009, 3184.629
601.6830, 3183.862
602.1651, 3192.431
602.6472, 3205.999
603.1293, 3207.801
603.6115, 3188.623
604.0936, 3174.509
604.5757, 3166.785
605.0578, 3164.378
605.5399, 3170.101
606.0220, 3180.931
606.5042, 3188.819
606.9863, 3189.412
607.4684, 3184.441
607.9505, 3173.677
608.4326, 3157.420
608.9147, 3149.833
609.3969, 3159.360
609.8790, 3169.893
610.3611, 3161.135
610.8432, 3134.938
611.3253, 3114.245
611.8074, 3103.937
612.2896, 3097.080
612.7717, 3091.732
613.2538, 3086.879
613.7359, 3080.822
614.2180, 3073.117
614.7001, 3065.057
615.1823, 3057.924
615.6644, 3051.662
616.1465, 3047.479
616.6286, 3048.484
617.1107, 3047.214
617.5928, 3039.740
618.0750, 3030.401
618.5571, 3024.056
619.0392, 3021.530
619.5213, 3019.030
620.0034, 3010.179
620.4855, 3000.163
620.9677, 3004.584
621.4498, 3024.722
621.9319, 3037.271
622.4140, 3027.886
622.8961, 3007.057
623.3782, 2996.752
623.8604, 2998.542
624.3425, 3004.207
624.8246, 3023.390
625.3067, 3036.842
625.7888, 3024.123
626.2709, 2995.300
626.7531, 2976.246
627.2352, 2979.881
627.7173, 2995.427
628.1994, 3004.720
628.6815, 3007.763
629.1636, 3003.840
629.6458, 2984.240
630.1279, 2968.965
630.6100, 2970.098
631.0921, 2981.222
631.5742, 2990.551
632.0563, 2993.686
632.5385, 2999.145
633.0206, 3019.703
633.5027, 3045.247
633.9848, 3052.177
634.4669, 3037.540
634.9490, 3022.855
635.4312, 3023.947
635.9133, 3037.585
636.3954, 3048.514
636.8775, 3049.385
637.3596, 3057.560
637.8417, 3083.428
638.3239, 3108.698
638.8060, 3116.828
639.2881, 3112.000
639.7702, 3111.922
640.2523, 3128.931
640.7344, 3152.050
641.2166, 3158.251
641.6987, 3146.689
642.1808, 3137.692
642.6629, 3134.903
643.1450, 3136.076
643.6271, 3142.298
644.1093, 3151.481
644.5914, 3155.286
645.0735, 3143.707
645.5556, 3136.683
646.0377, 3147.571
646.5198, 3167.023
647.0020, 3184.019
647.4841, 3195.325
647.9662, 3198.969
648.4483, 3192.619
648.9304, 3177.317
649.4125, 3158.747
649.8947, 3129.172
650.3768, 3111.464
650.8589, 3114.066
651.3410, 3125.650
651.8231, 3145.407
652.3052, 3168.887
652.7874, 3179.931
653.2695, 3163.006
653.7516, 3136.778
654.2337, 3125.688
654.7158, 3126.135
655.1979, 3120.274
655.6801, 3102.088
656.1622, 3082.000
656.6443, 3071.734
657.1264, 3071.954
657.6085, 3069.858
658.0906, 3067.765
658.5728, 3060.898
659.0549, 3045.402
659.5370, 3026.193
660.0191, 3007.359
660.5012, 2989.994
660.9833, 2974.192
661.4655, 2960.024
661.9476, 2947.417
662.4297, 2938.800
662.9118, 2935.815
663.3939, 2922.702
663.8760, 2887.160
664.3582, 2848.526
664.8403, 2832.831
665.3224, 2837.985
665.8045, 2839.125
666.2866, 2835.924
666.7687, 2824.024
667.2509, 2793.094
667.7330, 2754.452
668.2151, 2728.927
668.6972, 2720.667
669.1793, 2712.825
669.6614, 2684.837
670.1436, 2639.467
670.6257, 2619.103
671.1078, 2641.788
671.5899, 2652.025
672.0720, 2625.229
672.5541, 2586.282
673.0363, 2549.965
673.5184, 2518.284
674.0005, 2495.633
674.4826, 2491.598
674.9647, 2490.983
675.4468, 2480.812
675.9290, 2461.441
676.4111, 2430.651
676.8932, 2387.466
677.3753, 2347.119
677.8574, 2329.180
678.3395, 2334.814
678.8217, 2332.811
679.3038, 2323.833
679.7859, 2305.637
680.2680, 2265.967
680.7501, 2225.173
681.2322, 2204.103
681.7144, 2202.818
682.1965, 2202.742
682.6786, 2193.175
683.1607, 2176.660
683.6428, 2155.367
684.1249, 2129.952
684.6071, 2107.426
685.0892, 2090.558
685.5713, 2074.039
686.0534, 2049.531
686.5355, 2015.932
687.0176, 1997.411
687.4998, 2005.985
687.9819, 2013.061
688.4640, 2011.694
688.9461, 2005.269
689.4282, 1997.338
689.9103, 1988.388
690.3925, 1976.765
690.8746, 1960.793
691.3567, 1941.811
691.8388, 1922.487
692.3209, 1902.765
692.8030, 1884.836
693.2852, 1870.422
693.7673, 1855.751
694.2494, 1834.778
694.7315, 1808.358
695.2136, 1789.874
695.6957, 1786.711
696.1779, 1783.088
696.6600, 1772.391
697.1421, 1759.134
697.6242, 1747.928
698.1063, 1739.633
698.5884, 1733.803
699.0706, 1731.335
699.5527, 1728.963
700.0348, 1715.147
700.5169, 1687.316
700.9990, 1664.920
701.4811, 1654.090
701.9633, 1646.272
702.4454, 1635.399
702.9275, 1621.730
703.4096, 1605.263
703.8917, 1582.326
704.3738, 1561.663
704.8560, 1546.060
705.3381, 1535.025
705.8202, 1531.098
706.3023, 1532.075
706.7844, 1527.707
707.2665, 1510.157
707.7487, 1485.473
708.2308, 1471.344
708.7129, 1470.442
709.1950, 1467.551
709.6771, 1459.993
710.1592, 1451.316
710.6414, 1444.488
711.1235, 1438.169
711.6056, 1429.338
712.0877, 1416.924
712.5698, 1403.355
713.0519, 1388.628
713.5341, 1374.226
714.0162, 1362.138
714.4983, 1352.264
714.9804, 1343.054
715.4625, 1333.561
715.9446, 1324.339
716.4268, 1316.992
716.9089, 1312.504
717.3910, 1305.147
717.8731, 1291.774
718.3552, 1279.535
718.8373, 1274.185
719.3195, 1270.965
719.8016, 1262.823
720.2837, 1248.189
720.7658, 1231.797
721.2479, 1212.681
721.7300, 1195.234
722.2122, 1186.901
722.6943, 1184.865
723.1764, 1177.955
723.6585, 1161.233
724.1406, 1141.192
724.6227, 1127.825
725.1049, 1121.657
725.5870, 1116.650
726.0691, 1114.675
726.5512, 1110.817
727.0333, 1100.673
727.5154, 1089.586
727.9976, 1083.785
728.4797, 1083.652
728.9618, 1082.579
729.4439, 1079.812
729.9260, 1073.202
730.4081, 1058.364
730.8903, 1038.444
731.3724, 1019.702
731.8545, 1004.236
732.3366, 993.8707
732.8187, 991.4467
733.3008, 996.0609
733.7830, 996.4183
734.2651, 990.1798
734.7472, 984.7802
735.2293, 985.4901
735.7114, 984.5146
736.1935, 974.9189
736.6757, 958.3442
737.1578, 942.5398
737.6399, 927.5487
738.1220, 917.0145
738.6041, 918.3974
739.0862, 923.8323
739.5684, 919.2376
740.0505, 903.7958
740.5326, 888.0013
741.0147, 879.4990
741.4968, 875.9783
741.9789, 870.2971
742.4611, 861.6718
742.9432, 853.6851
743.4253, 845.5703
743.9074, 839.6469
744.3895, 838.8895
744.8716, 840.6581
745.3538, 840.3758
745.8359, 837.6872
746.3180, 831.7701
746.8001, 818.2534
747.2822, 804.2775
747.7643, 797.4895
748.2465, 797.0519
748.7286, 798.9564
749.2107, 801.3929
749.6928, 802.7678
750.1749, 800.3564
750.6570, 793.9678
751.1392, 787.9668
751.6213, 783.6790
752.1034, 776.3647
752.5855, 757.8961
753.0676, 739.8573
753.5497, 739.2097
754.0319, 756.7364
754.5140, 767.9369
754.9961, 763.9888
755.4782, 755.1969
755.9603, 745.5728
756.4424, 736.0438
756.9246, 727.1260
757.4067, 719.1536
757.8888, 713.1003
758.3709, 709.9288
758.8530, 709.0571
759.3351, 709.7517
759.8173, 712.8477
760.2994, 709.7075
760.7815, 695.3066
761.2636, 680.0099
761.7457, 672.4005
762.2278, 671.4972
762.7100, 671.7487
763.1921, 674.1603
763.6742, 676.0244
764.1563, 677.5417
764.6384, 677.6047
765.1205, 674.5811
765.6027, 669.3394
766.0848, 663.8912
766.5669, 659.0754
767.0490, 655.5953
767.5311, 655.6292
768.0132, 658.1582
768.4954, 657.1088
768.9775, 651.7661
769.4596, 645.8807
769.9417, 641.3439
770.4238, 637.0691
770.9059, 630.7374
771.3881, 621.0535
771.8702, 614.7974
772.3523, 612.3910
772.8344, 612.7234
773.3165, 619.6091
773.7986, 626.5700
774.2808, 625.1296
774.7629, 615.1442
775.2450, 605.2280
775.7271, 601.7045
776.2092, 600.9674
776.6913, 596.3096
777.1735, 589.4950
777.6556, 589.0767
778.1377, 597.2377
778.6198, 606.2603
779.1019, 609.7755
779.5840, 608.4391
780.0662, 605.4012
780.5483, 599.6716
781.0304, 594.0972
781.5125, 589.0387
781.9946, 583.9974
782.4767, 576.3940
782.9589, 569.2013
783.4410, 569.0468
783.9231, 579.0606
784.4052, 588.2557
784.8873, 591.2958
785.3694, 589.0806
785.8516, 579.0355
786.3337, 564.4358
786.8158, 556.5365
787.2979, 559.7452
787.7800, 565.7378
788.2621, 562.7365
788.7443, 551.2148
789.2264, 546.2527
789.7085, 549.8893
790.1906, 554.5852
790.6727, 559.9081
791.1548, 563.7592
791.6370, 563.9103
792.1191, 560.6876
792.6012, 556.1250
793.0833, 549.2300
793.5654, 542.6202
794.0475, 534.4068
794.5297, 528.9655
795.0118, 534.0594
795.4939, 546.6641
795.9760, 554.9932
796.4581, 552.3171
796.9402, 544.0004
797.4224, 536.6727
797.9045, 530.5349
798.3866, 527.4246
798.8687, 527.6957
799.3508, 529.7007
799.8329, 533.8589
800.3151, 537.2305
800.7972, 533.4677
801.2793, 519.0558
801.7614, 511.4295
802.2435, 513.9527
802.7256, 518.4180
803.2078, 524.8298
803.6899, 530.4839
804.1720, 532.9357
804.6541, 531.9211
805.1362, 528.2354
805.6183, 519.3231
806.1005, 511.4403
806.5826, 514.1973
807.0647, 522.3444
807.5468, 522.3622
808.0289, 512.8618
808.5110, 504.8643
808.9932, 506.4402
809.4753, 513.9412
809.9574, 518.1991
810.4395, 519.3577
810.9216, 515.9919
811.4037, 503.4506
811.8859, 494.0543
812.3680, 498.1577
812.8501, 507.1829
813.3322, 508.2220
813.8143, 499.5634
814.2964, 491.7073
814.7786, 485.6943
815.2607, 482.5487
815.7428, 484.3832
816.2249, 488.7570
816.7070, 493.1588
817.1891, 496.5680
817.6713, 497.4503
818.1534, 493.4105
818.6355, 487.9787
819.1176, 489.9053
819.5997, 497.7507
820.0818, 499.8321
820.5640, 493.8132
821.0461, 483.7731
821.5282, 470.7393
822.0103, 457.8318
822.4924, 455.0751
822.9745, 468.7687
823.4567, 478.5531
823.9388, 485.7607
824.4209, 487.6244
824.9030, 478.9892
825.3851, 466.5959
825.8672, 458.0461
826.3494, 454.5266
826.8315, 455.7353
827.3136, 466.5635
827.7957, 477.2907
828.2778, 478.8346
828.7599, 474.6051
829.2421, 470.4465
829.7242, 467.7766
830.2063, 466.0074
830.6884, 464.7980
831.1705, 463.8484
831.6526, 462.0865
832.1348, 459.4455
832.6169, 458.5529
833.0990, 460.4387
833.5811, 461.4404
834.0632, 457.8516
834.5453, 453.1292
835.0275, 455.9790
835.5096, 471.8178
835.9917, 478.6932
836.4738, 468.0811
836.9559, 458.4282
837.4380, 458.9781
837.9202, 462.5227
838.4023, 459.4109
838.8844, 449.5952
839.3665, 442.4186
839.8486, 444.3687
840.3307, 449.2899
840.8129, 451.0674
841.2950, 451.1854
841.7771, 453.7898
842.2592, 458.6461
842.7413, 459.4718
843.2234, 451.7769
843.7056, 441.1372
844.1877, 440.2096
844.6698, 450.1710
845.1519, 454.7054
845.6340, 451.4590
846.1161, 448.2581
846.5983, 449.2333
847.0804, 451.1147
847.5625, 448.8092
848.0446, 441.9923
848.5267, 436.5818
849.0089, 432.4539
849.4910, 430.2206
849.9731, 430.1474
850.4552, 431.9571
850.9373, 436.8977
851.4194, 443.5204
851.9016, 447.9077
852.3837, 448.4061
852.8658, 446.1032
853.3479, 440.3699
853.8300, 433.2584
854.3121, 427.9242
854.7943, 424.7061
855.2764, 423.9936
855.7585, 425.9915
856.2406, 429.0589
856.7227, 431.2881
857.2048, 432.6385
857.6870, 431.9239
858.1691, 427.6505
858.6512, 427.8898
859.1333, 437.8781
859.6154, 447.8171
860.0975, 448.9774
860.5797, 442.5038
861.0618, 435.3164
861.5439, 423.7873
862.0260, 417.6052
862.5081, 422.9462
862.9902, 428.6711
863.4724, 427.0948
863.9545, 421.7942
864.4366, 419.3040
864.9187, 421.1780
865.4008, 423.7406
865.8829, 425.4630
866.3651, 425.8813
866.8472, 423.1338
867.3293, 418.9035
867.8114, 417.6515
868.2935, 420.0164
868.7756, 422.5682
869.2578, 422.6870
869.7399, 421.2225
870.2220, 419.8476
870.7041, 418.4836
871.1862, 419.6324
871.6683, 424.6915
872.1505, 427.5229
872.6326, 423.1841
873.1147, 416.9193
873.5968, 418.6098
874.0789, 431.0533
874.5610, 436.2263
875.0432, 429.2421
875.5253, 421.7690
876.0074, 412.2246
876.4895, 406.5850
876.9716, 413.7229
877.4537, 429.5921
877.9359, 438.7285
878.4180, 434.1422
878.9001, 426.5401
879.3822, 421.0277
879.8643, 417.0501
880.3464, 413.3406
880.8286, 410.6297
881.3107, 412.2064
881.7928, 418.8334
882.2749, 424.3470
882.7570, 420.1595
883.2391, 423.7719
883.7213, 424.4246
884.2034, 420.2034
884.6855, 423.7737
885.1676, 417.2219
885.6497, 410.9400
886.1318, 413.7330
886.6140, 422.2492
887.0961, 424.7831
887.5782, 418.1539
888.0603, 413.6355
888.5424, 410.9723
889.0245, 410.8742
889.5067, 416.7781
889.9888, 423.4765
890.4709, 423.5543
890.9530, 416.8511
891.4351, 414.0097
891.9172, 422.0797
892.3994, 428.3386
892.8815, 425.5354
893.3636, 420.0836
893.8457, 418.3416
894.3278, 419.8174
894.8099, 420.5977
895.2921, 418.8784
895.7742, 417.3452
896.2563, 419.8052
896.7384, 423.4851
897.2205, 422.4928
897.7026, 418.0922
898.1848, 416.6743
898.6669, 420.0736
899.1490, 423.6485
899.6311, 422.9335
900.1132, 418.7152
900.5953, 412.6297
901.0775, 403.9810
901.5596, 402.2050
902.0417, 410.3254
902.5238, 420.0357
903.0059, 427.5955
903.4880, 432.3751
903.9702, 432.6156
904.4523, 426.7578
904.9344, 422.6140
905.4165, 421.8011
905.8986, 420.5992
906.3807, 417.0073
906.8629, 413.6055
907.3450, 411.9331
907.8271, 412.3909
908.3092, 416.3720
908.7913, 427.7277
909.2734, 435.4421
909.7556, 431.3728
910.2377, 424.3930
910.7198, 421.9742
911.2019, 423.0099
911.6840, 423.5170
912.1661, 422.5491
912.6483, 423.6083
913.1304, 432.4733
913.6125, 442.6021
914.0946, 440.1541
914.5767, 429.9562
915.0588, 429.5444
915.5410, 440.7874
916.0231, 449.3343
916.5052, 445.7490
916.9873, 436.4691
917.4694, 434.7688
917.9515, 441.0767
918.4337, 441.4839
918.9158, 433.4301
919.3979, 431.8770
919.8800, 444.9933
920.3621, 460.3691
920.8442, 464.7338
921.3264, 459.0766
921.8085, 453.6371
922.2906, 445.9865
922.7727, 442.5616
923.2548, 447.2532
923.7369, 452.0992
924.2191, 452.7337
924.7012, 451.4605
925.1833, 451.7686
925.6654, 454.0858
926.1475, 457.1334
926.6296, 462.0594
927.1118, 465.8170
927.5939, 464.9010
928.0760, 463.4082
928.5581, 467.6588
929.0402, 475.6892
929.5223, 478.5666
930.0045, 471.4044
930.4866, 464.9229
930.9687, 472.0595
931.4508, 484.1794
931.9329, 487.4295
932.4150, 483.5612
932.8972, 478.9154
933.3793, 475.7700
933.8614, 476.5126
934.3435, 484.0852
934.8256, 495.0506
935.3077, 501.1143
935.7899, 502.4791
936.2720, 501.3626
936.7541, 497.6721
937.2362, 495.4292
937.7183, 496.7109
938.2004, 500.2073
938.6826, 504.2283
939.1647, 508.8165
939.6468, 512.2567
940.1289, 514.5829
940.6110, 515.5036
941.0931, 512.9738
941.5753, 511.6440
942.0574, 516.9007
942.5395, 525.4450
943.0216, 527.7712
943.5037, 520.5763
943.9858, 517.2493
944.4680, 522.5746
944.9501, 527.3994
945.4322, 526.8559
945.9143, 525.1998
946.3964, 528.2297
946.8785, 534.7863
947.3607, 537.2614
947.8428, 530.4877
948.3249, 525.0083
948.8070, 526.9560
949.2891, 532.3983
949.7712, 540.3303
950.2534, 548.0062
950.7355, 548.9006
951.2176, 542.4745
951.6997, 538.7946
952.1818, 547.3404
952.6639, 560.2800
953.1461, 567.5616
953.6282, 570.7191
954.1103, 572.9781
954.5924, 574.7880
955.0745, 575.5416
955.5566, 574.9273
956.0388, 573.7455
956.5209, 572.3121
957.0030, 571.3015
957.4851, 574.5822
957.9672, 582.1590
958.4493, 591.6604
958.9315, 603.2990
959.4136, 610.5172
959.8957, 607.3547
960.3778, 598.7245
960.8599, 597.7827
961.3420, 606.5697
961.8242, 612.4043
962.3063, 613.7699
962.7884, 616.1155
963.2705, 623.2220
963.7526, 629.2413
964.2347, 626.7814
964.7169, 617.4470
965.1990, 613.0420
965.6811, 616.1584
966.1632, 620.3432
966.6453, 624.5727
967.1274, 631.0238
967.6096, 644.1467
968.0917, 657.9813
968.5738, 664.1370
969.0559, 662.4922
969.5380, 661.8212
970.0201, 666.0449
970.5023, 669.1843
970.9844, 667.1537
971.4665, 665.0002
971.9486, 666.7944
972.4307, 671.6864
972.9128, 678.3944
973.3950, 686.4283
973.8771, 691.2308
974.3592, 686.5115
974.8413, 681.0709
975.3234, 681.2736
975.8055, 686.4838
976.2877, 699.6912
976.7698, 717.1201
977.2519, 725.2690
977.7340, 717.5164
978.2161, 707.8533
978.6982, 714.0720
979.1804, 710.9994
979.6625, 712.7996
980.1446, 721.1663
980.6267, 723.2173
981.1088, 737.1337
981.5909, 752.3002
982.0731, 761.8835
982.5552, 765.8939
983.0373, 761.6015
983.5194, 750.8896
984.0015, 748.2421
984.4836, 754.0602
984.9658, 759.6006
985.4479, 761.7344
985.9300, 767.1028
986.4121, 783.1783
986.8942, 805.2523
987.3763, 815.6664
987.8585, 812.8696
988.3406, 806.8840
988.8227, 794.6997
989.3048, 792.3688
989.7869, 810.5013
990.2690, 833.9990
990.7512, 844.6114
991.2333, 843.5004
991.7154, 844.7787
992.1975, 847.8095
992.6796, 854.9544
993.1617, 872.2107
993.6439, 885.4225
994.1260, 883.5844
994.6081, 876.4344
995.0902, 878.7244
995.5723, 890.8539
996.0544, 900.0835
996.5366, 903.0931
997.0187, 907.3162
997.5008, 916.6125
997.9829, 924.7357
998.4650, 925.4745
998.9471, 923.4509
999.4293, 926.5663
999.9114, 935.9849
1000.393, 947.5475
1000.876, 965.1678
1001.358, 978.2234
1001.840, 976.9922
1002.322, 973.6310
1002.804, 980.9203
1003.286, 994.6335
1003.768, 1002.624
1004.250, 1001.251
1004.733, 999.8213
1005.215, 1001.613
1005.697, 1006.993
1006.179, 1019.959
1006.661, 1034.308
1007.143, 1041.335
1007.625, 1041.992
1008.107, 1042.425
1008.589, 1044.991
1009.072, 1050.298
1009.554, 1059.003
1010.036, 1070.541
1010.518, 1087.181
1011.000, 1105.083
1011.482, 1116.260
1011.964, 1120.490
1012.446, 1124.181
1012.929, 1131.032
1013.411, 1137.123
1013.893, 1135.263
1014.375, 1130.497
1014.857, 1134.228
1015.339, 1144.329
1015.821, 1151.962
1016.303, 1155.569
1016.785, 1161.139
1017.268, 1173.202
1017.750, 1176.859
1018.232, 1191.663
1018.714, 1190.897
1019.196, 1195.128
1019.678, 1204.303
1020.160, 1215.364
1020.642, 1227.485
1021.125, 1238.400
1021.607, 1246.138
1022.089, 1252.342
1022.571, 1262.460
1023.053, 1275.945
1023.535, 1278.301
1024.017, 1268.345
1024.499, 1264.687
1024.981, 1273.398
1025.464, 1288.731
1025.946, 1306.499
1026.428, 1324.965
1026.910, 1338.096
1027.392, 1345.226
1027.874, 1354.032
1028.356, 1365.819
1028.838, 1373.655
1029.321, 1374.024
1029.803, 1372.699
1030.285, 1374.761
1030.767, 1380.273
1031.249, 1389.601
1031.731, 1403.327
1032.213, 1419.314
1032.695, 1439.639
1033.177, 1456.645
1033.660, 1466.556
1034.142, 1473.496
1034.624, 1481.410
1035.106, 1490.176
1035.588, 1498.891
1036.070, 1509.104
1036.552, 1514.994
1037.034, 1510.334
1037.516, 1512.290
1037.999, 1532.824
1038.481, 1556.925
1038.963, 1567.577
1039.445, 1566.786
1039.927, 1570.014
1040.409, 1576.503
1040.891, 1588.464
1041.373, 1611.713
1041.855, 1632.930
1042.338, 1645.806
1042.820, 1655.224
1043.302, 1664.910
1043.784, 1675.221
1044.266, 1689.137
1044.748, 1714.492
1045.230, 1730.314
1045.712, 1728.425
1046.195, 1725.317
1046.677, 1724.678
1047.159, 1728.112
1047.641, 1738.711
1048.123, 1755.373
1048.605, 1770.845
1049.087, 1784.814
1049.569, 1796.842
1050.052, 1804.876
1050.534, 1813.212
1051.016, 1821.414
1051.498, 1832.586
1051.980, 1853.412
1052.462, 1881.373
1052.944, 1900.783
1053.426, 1900.782
1053.908, 1908.744
1054.391, 1941.289
1054.873, 1971.033
1055.355, 1985.007
1055.837, 1988.203
1056.319, 1978.656
1056.801, 1962.919
1057.283, 1969.229
1057.765, 2014.824
1058.248, 2057.265
1058.730, 2090.451
1059.212, 2110.323
1059.694, 2102.727
1060.176, 2088.935
1060.658, 2095.517
1061.140, 2119.560
1061.622, 2136.896
1062.104, 2136.730
1062.587, 2141.743
1063.069, 2164.902
1063.551, 2189.973
1064.033, 2206.611
1064.515, 2220.633
1064.997, 2239.944
1065.479, 2263.545
1065.961, 2285.055
1066.443, 2302.682
1066.926, 2317.712
1067.408, 2327.384
1067.890, 2338.315
1068.372, 2354.958
1068.854, 2374.707
1069.336, 2395.950
1069.818, 2417.301
1070.300, 2435.381
1070.782, 2448.049
1071.265, 2463.754
1071.747, 2492.690
1072.229, 2518.426
1072.711, 2528.091
1073.193, 2531.646
1073.675, 2538.785
1074.157, 2549.870
1074.639, 2562.905
1075.122, 2578.058
1075.604, 2589.533
1076.086, 2586.599
1076.568, 2588.851
1077.050, 2611.256
1077.532, 2641.853
1078.014, 2672.556
1078.496, 2699.555
1078.979, 2714.456
1079.461, 2714.123
1079.943, 2722.343
1080.425, 2764.139
1080.907, 2799.855
1081.389, 2800.195
1081.871, 2790.381
1082.353, 2789.249
1082.835, 2799.267
1083.318, 2822.692
1083.800, 2859.694
1084.282, 2894.010
1084.764, 2926.981
1085.246, 2944.878
1085.728, 2917.468
1086.210, 2893.620
1086.692, 2925.132
1087.175, 2987.688
1087.657, 3034.262
1088.139, 3056.528
1088.621, 3074.264
1089.103, 3094.714
1089.585, 3113.009
1090.067, 3123.208
1090.549, 3134.268
1091.031, 3153.423
1091.514, 3177.756
1091.996, 3204.079
1092.478, 3230.960
1092.960, 3253.137
1093.442, 3266.131
1093.924, 3279.226
1094.406, 3291.769
1094.888, 3310.183
1095.370, 3343.274
1095.853, 3381.785
1096.335, 3416.368
1096.817, 3445.196
1097.299, 3465.930
1097.781, 3475.491
1098.263, 3483.455
1098.745, 3481.900
1099.227, 3492.487
1099.709, 3542.224
1100.192, 3598.031
1100.674, 3616.633
1101.156, 3609.795
1101.638, 3628.194
1102.120, 3691.119
1102.602, 3742.021
1103.084, 3753.688
1103.566, 3768.262
1104.049, 3811.610
1104.531, 3856.561
1105.013, 3876.093
1105.495, 3879.564
1105.977, 3892.150
1106.459, 3918.128
1106.941, 3944.646
1107.423, 3976.156
1107.906, 3998.840
1108.388, 3994.029
1108.870, 3994.506
1109.352, 4031.138
1109.834, 4083.583
1110.316, 4111.246
1110.798, 4110.253
1111.280, 4129.556
1111.762, 4191.817
1112.245, 4246.340
1112.727, 4290.644
1113.209, 4322.020
1113.691, 4330.982
1114.173, 4331.281
1114.655, 4338.996
1115.137, 4353.869
1115.619, 4372.230
1116.102, 4383.308
1116.584, 4417.974
1117.066, 4509.400
1117.548, 4574.695
1118.030, 4563.437
1118.512, 4538.175
1118.994, 4560.742
1119.476, 4618.785
1119.958, 4663.013
1120.441, 4691.760
1120.923, 4710.797
1121.405, 4712.005
1121.887, 4720.874
1122.369, 4742.158
1122.851, 4776.592
1123.333, 4829.655
1123.815, 4891.498
1124.297, 4941.103
1124.780, 4978.178
1125.262, 5003.772
1125.744, 5012.202
1126.226, 5030.519
1126.708, 5065.183
1127.190, 5104.838
1127.672, 5145.257
1128.154, 5181.994
1128.636, 5207.464
1129.119, 5223.382
1129.601, 5243.207
1130.083, 5266.889
1130.565, 5297.281
1131.047, 5335.502
1131.529, 5370.343
1132.011, 5396.187
1132.493, 5424.729
1132.976, 5469.751
1133.458, 5522.368
1133.940, 5555.500
1134.422, 5570.852
1134.904, 5587.698
1135.386, 5607.064
1135.868, 5633.841
1136.350, 5669.069
1136.833, 5697.063
1137.315, 5705.360
1137.797, 5710.099
1138.279, 5741.915
1138.761, 5791.950
1139.243, 5827.938
1139.725, 5853.695
1140.207, 5890.746
1140.689, 5939.004
1141.172, 5968.701
1141.654, 5966.220
1142.136, 5967.436
1142.618, 6017.903
1143.100, 6087.912
1143.582, 6126.800
1144.064, 6147.035
1144.546, 6172.044
1145.029, 6203.715
1145.511, 6239.386
1145.993, 6277.587
1146.475, 6313.389
1146.957, 6341.029
1147.439, 6371.217
1147.921, 6420.976
1148.403, 6473.915
1148.885, 6503.827
1149.368, 6524.661
1149.850, 6566.796
1150.332, 6627.802
1150.814, 6677.670
1151.296, 6702.217
1151.778, 6724.051
1152.260, 6759.324
1152.742, 6793.222
1153.224, 6812.167
1153.707, 6827.727
1154.189, 6852.049
1154.671, 6883.717
1155.153, 6915.675
1155.635, 6946.566
1156.117, 6984.235
1156.599, 7036.133
1157.081, 7088.110
1157.563, 7138.897
1158.046, 7185.032
1158.528, 7217.473
1159.010, 7248.082
1159.492, 7297.674
1159.974, 7363.021
1160.456, 7411.550
1160.938, 7422.714
1161.420, 7451.913
1161.903, 7526.644
1162.385, 7582.761
1162.867, 7586.127
1163.349, 7584.355
1163.831, 7616.163
1164.313, 7668.824
1164.795, 7710.271
1165.277, 7738.111
1165.760, 7776.907
1166.242, 7831.056
1166.724, 7882.512
1167.206, 7928.721
1167.688, 7969.987
1168.170, 8004.622
1168.652, 8039.003
1169.134, 8081.179
1169.616, 8129.959
1170.099, 8181.770
1170.581, 8236.866
1171.063, 8277.417
1171.545, 8302.356
1172.027, 8331.360
1172.509, 8370.722
1172.991, 8410.550
1173.473, 8442.213
1173.956, 8476.823
1174.438, 8537.490
1174.920, 8615.832
1175.402, 8687.644
1175.884, 8751.793
1176.366, 8806.688
1176.848, 8851.415
1177.330, 8878.273
1177.813, 8885.094
1178.295, 8894.820
1178.777, 8928.701
1179.259, 8962.960
1179.741, 9020.104
1180.223, 9068.986
1180.705, 9141.313
1181.187, 9221.017
1181.669, 9265.756
1182.151, 9276.070
1182.634, 9299.673
1183.116, 9359.769
1183.598, 9429.384
1184.080, 9501.154
1184.562, 9567.068
1185.044, 9618.664
1185.526, 9664.092
1186.008, 9707.246
1186.490, 9752.828
1186.973, 9813.803
1187.455, 9893.695
1187.937, 9957.214
1188.419, 9976.634
1188.901, 10010.63
1189.383, 10073.29
1189.865, 10150.10
1190.347, 10248.56
1190.830, 10345.56
1191.312, 10414.44
1191.794, 10460.05
1192.276, 10505.42
1192.758, 10544.24
1193.240, 10607.72
1193.722, 10709.55
1194.204, 10792.17
1194.687, 10834.79
1195.169, 10882.43
1195.651, 10968.36
1196.133, 11062.01
1196.615, 11109.36
1197.097, 11122.62
1197.579, 11183.81
1198.061, 11290.07
1198.543, 11376.48
1199.026, 11438.58
1199.508, 11502.07
1199.990, 11575.79
1200.472, 11666.20
1200.954, 11781.35
1201.436, 11897.49
1201.918, 11975.39
1202.400, 12031.00
1202.883, 12091.86
1203.365, 12158.05
1203.847, 12222.46
1204.329, 12289.56
1204.811, 12383.15
1205.293, 12510.30
1205.775, 12629.50
1206.257, 12704.06
1206.740, 12772.24
1207.222, 12855.83
1207.704, 12951.33
1208.186, 13058.45
1208.668, 13173.59
1209.150, 13302.71
1209.632, 13437.46
1210.114, 13538.68
1210.596, 13580.56
1211.078, 13644.80
1211.561, 13768.08
1212.043, 13888.39
1212.525, 13969.97
1213.007, 14061.62
1213.489, 14201.88
1213.971, 14365.62
1214.453, 14512.83
1214.935, 14644.73
1215.417, 14788.99
1215.900, 14914.65
1216.382, 15088.65
1216.864, 15169.55
1217.346, 15267.07
1217.828, 15405.57
1218.310, 15548.82
1218.792, 15670.33
1219.274, 15780.96
1219.757, 15897.78
1220.239, 16023.36
1220.721, 16172.92
1221.203, 16344.85
1221.685, 16539.28
1222.167, 16748.26
1222.649, 16929.73
1223.131, 17072.06
1223.614, 17210.08
1224.096, 17366.91
1224.578, 17541.48
1225.060, 17737.33
1225.542, 17945.98
1226.024, 18154.85
1226.506, 18369.70
1226.988, 18610.36
1227.470, 18863.34
1227.953, 19084.20
1228.435, 19257.96
1228.917, 19437.67
1229.399, 19646.52
1229.881, 19858.37
1230.363, 20049.24
1230.845, 20260.67
1231.327, 20536.53
1231.810, 20831.86
1232.292, 21082.78
1232.774, 21373.15
1233.256, 21661.04
1233.738, 21926.93
1234.220, 22239.41
1234.702, 22506.59
1235.184, 22779.95
1235.667, 23066.63
1236.149, 23365.21
1236.631, 23672.56
1237.113, 23996.29
1237.595, 24349.36
1238.077, 24722.36
1238.559, 25097.29
1239.041, 25471.93
1239.523, 25832.72
1240.005, 26185.62
1240.488, 26545.98
1240.970, 26918.40
1241.452, 27298.28
1241.934, 27686.32
1242.416, 28106.19
1242.898, 28610.60
1243.380, 29122.81
1243.862, 29544.80
1244.344, 29953.53
1244.827, 30448.77
1245.309, 30992.79
1245.791, 31499.44
1246.273, 31974.03
1246.755, 32510.47
1247.237, 33157.75
1247.719, 33781.59
1248.201, 34332.02
1248.684, 34886.93
1249.166, 35464.92
1249.648, 36055.04
1250.130, 36631.95
1250.612, 37233.50
1251.094, 37922.88
1251.576, 38685.66
1252.058, 39415.79
1252.541, 40105.47
1253.023, 40821.90
1253.505, 41572.93
1253.987, 42317.21
1254.469, 43046.59
1254.951, 43795.38
1255.433, 44583.56
1255.915, 45394.03
1256.397, 46206.57
1256.880, 47027.95
1257.362, 47863.95
1257.844, 48716.53
1258.326, 49591.32
1258.808, 50481.58
1259.290, 51392.68
1259.772, 52311.39
1260.254, 53199.30
1260.737, 54034.11
1261.219, 54870.50
1261.701, 55744.34
1262.183, 56616.41
1262.665, 57470.70
1263.147, 58318.75
1263.629, 59173.36
1264.111, 60025.58
1264.594, 60864.32
1265.076, 61688.14
1265.558, 62495.63
1266.040, 63284.05
1266.522, 64071.90
1267.004, 64874.38
1267.486, 65624.83
1267.968, 66306.48
1268.450, 66960.26
1268.932, 67607.82
1269.415, 68234.10
1269.897, 68828.70
1270.379, 69392.57
1270.861, 69942.08
1271.343, 70464.25
1271.825, 70903.10
1272.307, 71283.08
1272.789, 71690.98
1273.271, 72119.60
1273.754, 72469.73
1274.236, 72707.56
1274.718, 72908.02
1275.200, 73103.72
1275.682, 73302.20
1276.164, 73533.19
1276.646, 73739.86
1277.128, 73895.98
1277.611, 73993.58
1278.093, 74001.27
1278.575, 73947.36
1279.057, 73920.59
1279.539, 73931.89
1280.021, 73933.73
1280.503, 73895.91
1280.985, 73892.94
1281.468, 73957.48
1281.950, 74057.57
1282.432, 74189.73
1282.914, 74289.18
1283.396, 74297.56
1283.878, 74268.60
1284.360, 74284.41
1284.842, 74314.30
1285.324, 74284.11
##END=



