##NAMES=Calaverite
##RRUFFID=R070397
##IDEAL CHEMISTRY=AuTe_2_
##LOCALITY=Sacarambu, Transylvania, Romania
##OWNER=RRUFF
##SOURCE=Michael Scott
##DESCRIPTION=Gold metallic massive associated with quartz
##STATUS=The identification of this mineral is confirmed by single-crystal X-ray diffraction and chemical analysis.
##URL=rruff.info/R070397
##MEASURED CHEMISTRY=(Au_0.95_Ag_0.05_)_Î£=1_Te_2.00_
169.1814, 0.0000000E+00
169.6636, 11.86523
170.1457, 15.10864
170.6278, 0.6271970
171.1099, 6.756958
171.5920, 32.71838
172.0741, 54.50171
172.5563, 60.27637
173.0384, 54.26721
173.5205, 50.88757
174.0026, 49.06921
174.4847, 51.50513
174.9668, 58.50610
175.4490, 68.39856
175.9311, 74.83508
176.4132, 63.32544
176.8953, 35.63489
177.3774, 17.74292
177.8595, 22.28601
178.3417, 30.00708
178.8238, 28.93921
179.3059, 18.88232
179.7880, 6.801270
180.2701, 5.667969
180.7522, 19.70752
181.2344, 27.42151
181.7165, 17.58691
182.1986, 6.458130
182.6807, 6.086792
183.1628, 19.56091
183.6449, 36.87939
184.1271, 44.52747
184.6092, 38.17957
185.0913, 30.87622
185.5734, 21.26416
186.0555, 11.94788
186.5376, 9.054932
187.0198, 23.22803
187.5019, 36.93713
187.9840, 40.06128
188.4661, 26.01953
188.9482, 17.64465
189.4303, 21.76868
189.9125, 31.23633
190.3946, 36.63263
190.8767, 31.60553
191.3588, 19.48706
191.8409, 12.39374
192.3230, 14.37006
192.8052, 16.98840
193.2873, 19.22589
193.7694, 20.82721
194.2515, 21.58929
194.7336, 21.34546
195.2157, 20.71820
195.6979, 18.94031
196.1800, 12.45660
196.6621, 7.712402
197.1442, 9.865417
197.6263, 16.72791
198.1084, 22.08588
198.5906, 21.86920
199.0727, 16.38910
199.5548, 12.70776
200.0369, 12.28625
200.5190, 12.71423
201.0011, 10.81616
201.4833, 7.194397
201.9654, 7.086670
202.4475, 17.54083
202.9296, 35.98505
203.4117, 42.24854
203.8938, 23.88464
204.3760, 7.079163
204.8581, 18.59442
205.3402, 8.760620
205.8223, 6.393616
206.3044, 16.69281
206.7865, 23.06506
207.2687, 28.10986
207.7508, 31.25031
208.2329, 34.35785
208.7150, 40.47174
209.1971, 50.92841
209.6792, 57.42242
210.1614, 48.98706
210.6435, 31.07788
211.1256, 17.57336
211.6077, 17.21448
212.0898, 24.38263
212.5719, 26.77802
213.0541, 21.73883
213.5362, 16.67084
214.0183, 17.80719
214.5004, 22.61951
214.9825, 26.17291
215.4646, 25.21552
215.9468, 21.16077
216.4289, 18.34857
216.9110, 17.24457
217.3931, 17.32953
217.8752, 17.15375
218.3573, 17.20203
218.8395, 19.55804
219.3216, 28.82935
219.8037, 43.65125
220.2858, 49.75220
220.7679, 41.06989
221.2500, 29.96246
221.7322, 19.79565
222.2143, 11.51965
222.6964, 6.394043
223.1785, 6.744568
223.6606, 13.04456
224.1427, 16.86298
224.6249, 14.99634
225.1070, 13.75543
225.5891, 17.02081
226.0712, 23.53387
226.5533, 28.44104
227.0354, 28.20563
227.5176, 19.34216
227.9997, 13.31506
228.4818, 10.48157
228.9639, 10.69501
229.4460, 16.02863
229.9281, 25.04767
230.4103, 32.99146
230.8924, 34.36298
231.3745, 26.46497
231.8566, 24.32654
232.3387, 34.99561
232.8208, 45.15021
233.3030, 47.31586
233.7851, 41.99762
234.2672, 35.46094
234.7493, 35.28467
235.2314, 44.85724
235.7135, 48.27124
236.1957, 46.47314
236.6778, 39.12915
237.1599, 18.86560
237.6420, 10.81415
238.1241, 33.92712
238.6062, 29.30951
239.0884, 17.65771
239.5705, 43.77960
240.0526, 34.02795
240.5347, 19.15979
241.0168, 18.39246
241.4989, 33.00391
241.9811, 51.11847
242.4632, 58.80316
242.9453, 51.75433
243.4274, 46.63104
243.9095, 41.17267
244.3916, 38.91504
244.8738, 46.10449
245.3559, 61.65247
245.8380, 74.73877
246.3201, 71.61310
246.8022, 44.05890
247.2843, 26.29425
247.7665, 18.84149
248.2486, 19.51624
248.7307, 32.95007
249.2128, 57.12231
249.6949, 77.23749
250.1770, 74.61951
250.6592, 38.05804
251.1413, 17.87323
251.6234, 26.70062
252.1055, 42.18817
252.5876, 47.55652
253.0697, 40.80774
253.5519, 30.73291
254.0340, 26.85291
254.5161, 31.09253
254.9982, 35.27771
255.4803, 41.14722
255.9624, 46.69110
256.4445, 49.95129
256.9267, 48.42554
257.4088, 43.39972
257.8909, 33.50391
258.3730, 16.63214
258.8551, 9.061401
259.3372, 17.96106
259.8194, 31.47668
260.3015, 42.01697
260.7836, 48.27209
261.2657, 49.12256
261.7478, 41.20563
262.2299, 21.76221
262.7121, 11.24548
263.1942, 19.52704
263.6763, 32.97089
264.1584, 39.76990
264.6405, 38.78204
265.1227, 35.34601
265.6048, 33.47937
266.0869, 33.38513
266.5690, 36.11353
267.0511, 47.50238
267.5332, 57.89465
268.0154, 56.77478
268.4975, 43.97070
268.9796, 31.12305
269.4617, 28.07874
269.9438, 35.26971
270.4259, 41.96808
270.9081, 52.14301
271.3902, 58.75323
271.8723, 52.55768
272.3544, 34.03479
272.8365, 18.03174
273.3186, 17.00323
273.8008, 29.90350
274.2829, 37.74274
274.7650, 36.54755
275.2471, 33.03662
275.7292, 32.77411
276.2113, 35.61371
276.6935, 36.60962
277.1756, 30.46167
277.6577, 19.38312
278.1398, 16.79388
278.6219, 31.95654
279.1040, 48.03094
279.5862, 52.65048
280.0683, 46.74103
280.5504, 39.05167
281.0325, 34.58038
281.5146, 32.85553
281.9967, 30.69913
282.4789, 25.97766
282.9610, 22.62012
283.4431, 24.42166
283.9252, 30.53061
284.4073, 36.12759
284.8894, 39.68326
285.3716, 39.96484
285.8537, 34.42886
286.3358, 16.70859
286.8179, 1.518921
287.3000, 2.098267
287.7821, 4.056458
288.2643, 13.70432
288.7464, 26.28793
289.2285, 38.48569
289.7106, 41.98401
290.1927, 31.02197
290.6748, 22.60324
291.1570, 27.11606
291.6391, 40.93423
292.1212, 53.97470
292.6033, 64.03760
293.0854, 68.86252
293.5675, 61.95901
294.0497, 37.25043
294.5318, 18.34579
295.0139, 17.62109
295.4960, 28.64984
295.9781, 39.48413
296.4602, 49.42828
296.9424, 58.69376
297.4245, 61.41388
297.9066, 57.13885
298.3887, 50.82971
298.8708, 42.51566
299.3529, 33.60342
299.8351, 26.32535
300.3172, 21.18439
300.7993, 17.79968
301.2814, 16.45392
301.7635, 17.35535
302.2456, 17.33139
302.7278, 13.51639
303.2099, 9.295746
303.6920, 9.373657
304.1741, 14.86557
304.6562, 23.02985
305.1383, 32.75784
305.6205, 44.52203
306.1026, 50.32364
306.5847, 45.78976
307.0668, 36.67371
307.5489, 26.50827
308.0310, 15.73792
308.5132, 9.475006
308.9953, 14.86584
309.4774, 32.54022
309.9595, 43.67743
310.4416, 43.69763
310.9237, 39.55240
311.4059, 37.84137
311.8880, 38.38879
312.3701, 33.98795
312.8522, 16.24924
313.3343, 12.50562
313.8164, 23.75879
314.2986, 0.4986270
314.7807, 24.71542
315.2628, 31.33670
315.7449, 22.25995
316.2270, 12.04797
316.7091, 9.228394
317.1913, 13.04752
317.6734, 17.58276
318.1555, 22.05624
318.6376, 27.87869
319.1197, 38.30017
319.6018, 50.54782
320.0840, 57.83545
320.5661, 56.35495
321.0482, 48.82996
321.5303, 43.71857
322.0124, 40.53049
322.4945, 39.84778
322.9767, 37.39301
323.4588, 47.62097
323.9409, 52.74582
324.4230, 53.67004
324.9051, 37.90128
325.3872, 43.78146
325.8694, 40.99130
326.3515, 37.78802
326.8336, 46.58429
327.3157, 33.14572
327.7978, 41.78238
328.2799, 41.66977
328.7621, 45.57794
329.2442, 40.79572
329.7263, 38.67520
330.2084, 45.23340
330.6905, 46.94275
331.1726, 41.06201
331.6548, 45.16656
332.1369, 31.45255
332.6190, 33.34448
333.1011, 41.95648
333.5832, 36.46515
334.0653, 42.34763
334.5475, 42.21216
335.0296, 38.94318
335.5117, 32.79614
335.9938, 25.52722
336.4759, 21.25931
336.9580, 23.93878
337.4402, 33.33759
337.9223, 36.66309
338.4044, 26.30133
338.8865, 18.32852
339.3686, 19.65924
339.8507, 25.90512
340.3329, 28.35901
340.8150, 21.53992
341.2971, 8.888641
341.7792, 5.258209
342.2613, 21.93222
342.7434, 33.74686
343.2256, 35.76749
343.7077, 32.61349
344.1898, 29.00995
344.6719, 25.91513
345.1540, 23.38495
345.6361, 25.14435
346.1183, 35.48569
346.6004, 41.56165
347.0825, 39.40793
347.5646, 35.48911
348.0467, 35.05008
348.5288, 38.87177
349.0110, 43.10623
349.4931, 42.16162
349.9752, 34.04187
350.4573, 28.60141
350.9394, 25.59421
351.4215, 25.72833
351.9037, 32.47495
352.3858, 43.68188
352.8679, 52.09155
353.3500, 49.60440
353.8321, 36.21948
354.3142, 28.99374
354.7964, 31.56439
355.2785, 36.47159
355.7606, 43.18384
356.2427, 49.73087
356.7248, 52.53165
357.2069, 49.08722
357.6891, 40.79263
358.1712, 29.87698
358.6533, 11.77783
359.1354, 1.655151
359.6175, 14.93658
360.0996, 35.52786
360.5818, 43.35574
361.0639, 28.57547
361.5460, 7.742340
362.0281, 5.031982
362.5102, 22.77005
362.9923, 37.59659
363.4745, 40.09552
363.9566, 37.33932
364.4387, 36.53198
364.9208, 38.76270
365.4029, 39.64917
365.8850, 33.36444
366.3672, 21.89310
366.8493, 16.39780
367.3314, 21.25690
367.8135, 30.07083
368.2956, 39.77411
368.7777, 50.03503
369.2599, 50.12302
369.7420, 23.56491
370.2241, 12.62466
370.7062, 27.45663
371.1883, 15.93286
371.6704, 2.924561
372.1526, 18.39963
372.6347, 29.20905
373.1168, 35.15524
373.5989, 31.38354
374.0810, 26.13559
374.5631, 27.45444
375.0453, 34.63727
375.5274, 40.02695
376.0095, 38.32745
376.4916, 31.55185
376.9737, 28.68820
377.4558, 34.17563
377.9380, 37.96646
378.4201, 36.51117
378.9022, 30.81613
379.3843, 20.44653
379.8664, 4.102478
380.3485, 11.27451
380.8307, 9.948730
381.3128, 22.55771
381.7949, 45.02289
382.2770, 49.63055
382.7591, 45.95584
383.2412, 42.28217
383.7234, 40.41660
384.2055, 38.13861
384.6876, 32.30948
385.1697, 20.57959
385.6518, 15.69785
386.1339, 25.59143
386.6161, 33.70697
387.0982, 28.97415
387.5803, 14.96207
388.0624, 3.182343
388.5445, 2.265289
389.0266, 11.12872
389.5088, 17.99612
389.9909, 22.94641
390.4730, 25.45099
390.9551, 24.64273
391.4372, 21.59442
391.9193, 16.47803
392.4015, 9.187317
392.8836, 2.832550
393.3657, 5.078735
393.8478, 21.51501
394.3299, 32.68530
394.8120, 31.84598
395.2942, 28.15662
395.7763, 28.13651
396.2584, 32.49112
396.7405, 36.61157
397.2226, 35.28427
397.7047, 28.81863
398.1869, 23.69388
398.6690, 20.10846
399.1511, 17.60724
399.6332, 17.45947
400.1153, 18.34436
400.5974, 16.07681
401.0796, 3.472198
401.5617, 12.36871
402.0438, 13.44727
402.5259, 4.019043
403.0080, 21.42047
403.4901, 27.81265
403.9723, 28.01242
404.4544, 28.84772
404.9365, 32.20175
405.4186, 35.16302
405.9007, 34.28870
406.3828, 30.44431
406.8650, 28.48212
407.3471, 30.54849
407.8292, 34.74445
408.3113, 39.49179
408.7934, 46.65540
409.2755, 46.78226
409.7577, 28.47427
410.2398, 4.903076
410.7219, 4.202240
411.2040, 4.683929
411.6861, 18.61884
412.1682, 24.69299
412.6504, 21.54425
413.1325, 22.05591
413.6146, 31.98730
414.0967, 40.18179
414.5788, 37.49399
415.0609, 27.29892
415.5431, 20.99844
416.0252, 26.32413
416.5073, 39.70883
416.9894, 44.63916
417.4715, 31.83075
417.9536, 21.82690
418.4358, 16.88995
418.9179, 15.60266
419.4000, 17.30157
419.8821, 21.55984
420.3642, 26.23148
420.8463, 27.55692
421.3285, 23.68463
421.8106, 21.38815
422.2927, 20.38217
422.7748, 21.10178
423.2569, 25.79126
423.7390, 32.90158
424.2212, 37.48627
424.7033, 34.46805
425.1854, 25.66504
425.6675, 22.71310
426.1496, 29.96353
426.6317, 35.64484
427.1139, 33.79846
427.5960, 28.48697
428.0781, 24.35806
428.5602, 23.96268
429.0423, 25.01025
429.5244, 21.31973
430.0066, 11.73059
430.4887, 6.224731
430.9708, 9.044403
431.4529, 15.93884
431.9350, 22.99875
432.4171, 30.45599
432.8993, 34.32538
433.3814, 30.37952
433.8635, 22.15848
434.3456, 15.92993
434.8277, 12.58823
435.3098, 10.59912
435.7920, 8.593628
436.2741, 6.766479
436.7562, 6.626862
437.2383, 8.554504
437.7204, 11.77789
438.2025, 16.25217
438.6847, 21.94089
439.1668, 27.65637
439.6489, 32.12650
440.1310, 34.71268
440.6131, 33.61139
441.0952, 25.55481
441.5774, 18.31204
442.0595, 10.95593
442.5416, 5.293427
443.0237, 3.819214
443.5058, 6.502533
443.9879, 10.42480
444.4701, 12.15311
444.9522, 11.22507
445.4343, 11.31235
445.9164, 14.22034
446.3985, 16.37393
446.8806, 16.42688
447.3628, 14.95883
447.8449, 13.03494
448.3270, 10.79407
448.8091, 8.730530
449.2912, 10.01840
449.7733, 15.42337
450.2555, 23.47565
450.7376, 39.14526
451.2197, 54.02289
451.7018, 61.76648
452.1839, 61.23291
452.6660, 55.86041
453.1482, 47.07983
453.6303, 35.42477
454.1124, 22.50781
454.5945, 6.320984
455.0766, 6.504913
455.5587, 7.416901
456.0409, 2.2186000E-02
456.5230, 5.653809
457.0051, 5.024567
457.4872, 3.627991
457.9693, 7.967010
458.4514, 16.73804
458.9336, 21.55182
459.4156, 16.24939
459.8978, 6.313385
460.3799, 6.357880
460.8620, 22.13678
461.3441, 33.14755
461.8262, 32.69189
462.3083, 27.43094
462.7905, 24.27124
463.2726, 24.45135
463.7547, 25.13052
464.2368, 23.35510
464.7189, 18.89578
465.2010, 13.95703
465.6832, 2.794434
466.1653, 2.299500
466.6474, 6.860596
467.1295, 22.86157
467.6116, 36.54532
468.0938, 43.61664
468.5759, 44.48880
469.0580, 39.53281
469.5401, 24.98163
470.0222, 14.50125
470.5043, 13.05585
470.9865, 14.57434
471.4686, 15.66791
471.9507, 15.99316
472.4328, 16.74197
472.9149, 20.85986
473.3970, 26.34213
473.8792, 23.88959
474.3613, 9.362579
474.8434, 1.880066
475.3255, 4.468323
475.8076, 21.26642
476.2897, 33.05551
476.7719, 34.80872
477.2540, 32.42349
477.7361, 28.71143
478.2182, 23.93246
478.7003, 17.94208
479.1824, 9.912018
479.6646, 3.624908
480.1467, 6.115784
480.6288, 21.83466
481.1109, 32.09845
481.5930, 32.14749
482.0751, 29.43271
482.5573, 28.58932
483.0394, 29.94788
483.5215, 32.52979
484.0036, 35.92831
484.4857, 39.67188
484.9678, 40.57385
485.4500, 36.14047
485.9321, 32.00021
486.4142, 29.33270
486.8963, 27.15106
487.3784, 23.23553
487.8605, 17.28061
488.3427, 13.13412
488.8248, 16.56018
489.3069, 28.01471
489.7890, 36.54807
490.2711, 41.65408
490.7532, 43.47003
491.2354, 40.05746
491.7175, 33.92743
492.1996, 31.16931
492.6817, 37.27753
493.1638, 44.26587
493.6459, 40.24066
494.1281, 26.17041
494.6102, 16.17563
495.0923, 17.04819
495.5744, 23.01312
496.0565, 23.34299
496.5386, 16.48032
497.0208, 12.16522
497.5029, 14.04413
497.9850, 18.68411
498.4671, 23.50940
498.9492, 27.88358
499.4313, 30.70840
499.9135, 30.64575
500.3956, 28.08490
500.8777, 28.63043
501.3598, 41.23828
501.8419, 46.18100
502.3240, 32.68756
502.8062, 13.33920
503.2883, 3.287109
503.7704, 6.637878
504.2525, 13.90964
504.7346, 11.24619
505.2167, 3.734558
505.6989, 11.11444
506.1810, 5.649017
506.6631, 2.355072
507.1452, 8.616791
507.6273, 13.52875
508.1094, 18.35031
508.5916, 24.02701
509.0737, 29.35727
509.5558, 33.05167
510.0379, 35.07593
510.5200, 34.32983
511.0021, 28.98367
511.4843, 22.38449
511.9664, 19.81244
512.4485, 21.54803
512.9306, 23.33694
513.4127, 26.35422
513.8948, 28.49731
514.3770, 24.88815
514.8591, 16.43301
515.3412, 10.46979
515.8233, 12.47614
516.3054, 21.17868
516.7875, 28.37195
517.2697, 34.51871
517.7518, 38.48792
518.2339, 39.84024
518.7160, 39.19171
519.1981, 36.26599
519.6802, 31.42447
520.1624, 26.80731
520.6445, 25.02689
521.1266, 26.16714
521.6087, 27.21429
522.0908, 31.16000
522.5729, 30.28333
523.0551, 15.01230
523.5372, 5.172028
524.0193, 14.39590
524.5014, 4.727417
524.9835, 10.45767
525.4656, 18.63718
525.9478, 20.68875
526.4299, 21.02405
526.9120, 19.92807
527.3941, 19.44119
527.8762, 22.77847
528.3583, 30.15857
528.8405, 35.39786
529.3226, 39.73447
529.8047, 40.18378
530.2868, 31.19519
530.7689, 16.51138
531.2510, 6.739532
531.7332, 7.649200
532.2153, 14.19083
532.6974, 13.10013
533.1795, 5.459381
533.6616, 12.86783
534.1437, 1.734741
534.6259, 13.37766
535.1080, 26.15155
535.5901, 34.94266
536.0722, 38.05865
536.5543, 32.12186
537.0364, 20.86389
537.5186, 17.18967
538.0007, 23.80383
538.4828, 27.73407
538.9649, 20.61252
539.4470, 10.42990
539.9291, 7.183960
540.4113, 12.59311
540.8934, 17.28268
541.3755, 15.28632
541.8576, 9.952332
542.3397, 6.945496
542.8218, 6.867523
543.3040, 6.847321
543.7861, 4.327515
544.2682, 6.0394000E-02
544.7503, 0.1961980
545.2324, 9.560333
545.7145, 16.15848
546.1967, 14.61868
546.6788, 9.915009
547.1609, 7.660309
547.6430, 8.939972
548.1251, 10.53622
548.6072, 8.072632
549.0894, 1.258331
549.5715, 0.2193300
550.0536, 8.493469
550.5357, 15.62805
551.0178, 16.08856
551.4999, 12.86783
551.9821, 9.585327
552.4642, 6.859406
552.9463, 5.900787
553.4284, 9.334747
553.9105, 15.78192
554.3926, 18.95950
554.8748, 16.77802
555.3569, 15.16354
555.8390, 20.29852
556.3211, 30.70801
556.8032, 36.72995
557.2853, 36.65121
557.7675, 34.15527
558.2496, 29.84592
558.7317, 17.59671
559.2138, 26.15070
559.6959, 30.85797
560.1780, 31.92517
560.6602, 18.45145
561.1423, 23.72314
561.6244, 21.48373
562.1065, 18.95078
562.5886, 26.89343
563.0707, 15.22968
563.5529, 22.23792
564.0350, 21.94849
564.5171, 25.54648
564.9992, 21.59930
565.4813, 19.99713
565.9634, 25.96768
566.4456, 27.74426
566.9277, 22.93057
567.4098, 26.78082
567.8919, 15.14966
568.3740, 17.10263
568.8561, 24.91635
569.3383, 20.48029
569.8204, 24.46634
570.3025, 25.24420
570.7846, 11.44537
571.2667, 22.99997
571.7488, 23.59045
572.2310, 12.92279
572.7131, 23.60767
573.1952, 14.49124
573.6773, 12.44199
574.1594, 15.71115
574.6415, 13.43512
575.1237, 19.90033
575.6058, 17.94333
576.0879, 12.79291
576.5700, 9.622437
577.0521, 7.224670
577.5342, 10.81628
578.0164, 20.45300
578.4985, 24.61176
578.9806, 17.54938
579.4627, 7.729156
579.9448, 5.728271
580.4269, 10.49368
580.9091, 12.76178
581.3912, 7.505829
581.8733, 1.222351
582.3554, 1.339691
582.8375, 0.2556760
583.3196, 5.101318
583.8018, 15.32587
584.2839, 26.45709
584.7660, 31.37500
585.2481, 27.84305
585.7302, 24.32309
586.2123, 18.84042
586.6945, 15.32028
587.1766, 17.82010
587.6587, 23.17538
588.1408, 25.19208
588.6229, 18.13840
589.1050, 9.333282
589.5872, 10.25046
590.0693, 20.40359
590.5514, 25.61011
591.0335, 20.73804
591.5156, 12.95584
591.9977, 9.577423
592.4799, 9.896088
592.9620, 13.66061
593.4441, 26.30112
593.9262, 37.03015
594.4083, 38.65796
594.8904, 33.91016
595.3726, 27.91513
595.8547, 22.55203
596.3368, 17.50946
596.8189, 12.20920
597.3010, 6.244110
597.7831, 1.978638
598.2653, 0.5724790
598.7474, 1.228241
599.2295, 2.261230
599.7116, 7.078491
600.1937, 8.482056
600.6758, 4.236847
601.1580, 0.7718810
601.6401, 1.086945
602.1222, 2.365997
602.6043, 5.783813
603.0864, 8.887695
603.5685, 10.99661
604.0507, 10.41943
604.5328, 7.927704
605.0149, 10.19806
605.4970, 25.97766
605.9791, 36.26978
606.4612, 28.11081
606.9434, 13.53290
607.4255, 9.421631
607.9076, 18.95923
608.3897, 30.66394
608.8718, 31.49280
609.3539, 21.81015
609.8361, 19.82874
610.3182, 33.11365
610.8003, 41.41934
611.2824, 35.97839
611.7645, 23.80005
612.2466, 9.532593
612.7288, 6.657532
613.2109, 15.06995
613.6930, 2.569580
614.1751, 19.85681
614.6572, 32.46631
615.1393, 33.60056
615.6215, 29.19852
616.1036, 21.64392
616.5857, 12.36639
617.0678, 6.439789
617.5499, 6.211670
618.0320, 6.121979
618.5142, 3.343170
618.9963, 2.629211
619.4784, 10.18411
619.9605, 23.96829
620.4426, 34.74030
620.9247, 35.85266
621.4069, 30.87640
621.8890, 23.14490
622.3711, 31.71097
622.8532, 36.43082
623.3353, 37.51105
623.8174, 24.05109
624.2996, 29.36649
624.7817, 27.15735
625.2638, 24.63959
625.7459, 32.59726
626.2280, 21.25146
626.7101, 29.04279
627.1923, 29.19470
627.6744, 32.84293
628.1565, 28.92007
628.6386, 27.33557
629.1207, 33.32431
629.6028, 35.11954
630.0850, 30.32477
630.5671, 27.54767
631.0492, 28.92419
631.5313, 31.71487
632.0134, 33.51691
632.4955, 29.07928
632.9777, 15.35898
633.4598, 3.451080
633.9419, 9.071747
634.4240, 25.60272
634.9061, 28.16162
635.3882, 11.61313
635.8704, 4.389404
636.3525, 4.876068
636.8346, 8.005707
637.3167, 18.54694
637.7988, 29.22980
638.2809, 35.14139
638.7631, 29.34827
639.2452, 22.45837
639.7273, 28.13687
640.2094, 44.39404
640.6915, 54.58417
641.1736, 42.76587
641.6558, 17.41995
642.1379, 11.13223
642.6200, 29.27048
643.1021, 43.16861
643.5842, 45.42484
644.0663, 39.22754
644.5485, 24.15717
645.0306, 0.7172240
645.5127, 11.98865
645.9948, 0.9799190
646.4769, 16.13101
646.9590, 28.20151
647.4412, 34.86655
647.9233, 35.94833
648.4054, 31.35754
648.8875, 23.99658
649.3696, 17.74643
649.8517, 12.27133
650.3339, 9.892395
650.8160, 13.26395
651.2981, 16.69171
651.7802, 18.93185
652.2623, 19.86063
652.7444, 18.61636
653.2266, 14.43680
653.7087, 11.90076
654.1908, 17.39041
654.6729, 26.45877
655.1550, 28.15857
655.6371, 21.42896
656.1193, 14.96832
656.6014, 14.55261
657.0835, 18.93896
657.5656, 22.72067
658.0477, 25.25446
658.5298, 28.08197
659.0120, 35.66934
659.4941, 40.39108
659.9762, 33.05191
660.4583, 17.90668
660.9404, 8.810730
661.4225, 14.72824
661.9047, 27.83859
662.3868, 35.03177
662.8689, 36.49307
663.3510, 37.51318
663.8331, 39.98480
664.3152, 40.41837
664.7974, 32.75250
665.2795, 17.89386
665.7616, 12.56427
666.2437, 29.79736
666.7258, 41.86511
667.2079, 30.97357
667.6901, 12.95160
668.1722, 10.44247
668.6543, 26.02902
669.1364, 41.44397
669.6185, 37.75229
670.1006, 19.10474
670.5828, 11.46463
671.0649, 18.71353
671.5470, 25.03687
672.0291, 23.24466
672.5112, 17.87967
672.9933, 13.57739
673.4755, 10.33783
673.9576, 9.943085
674.4397, 16.96609
674.9218, 23.49973
675.4039, 22.61481
675.8860, 16.28888
676.3682, 8.547089
676.8503, 1.061035
677.3324, 3.578827
677.8145, 0.4655460
678.2966, 11.83408
678.7787, 20.32852
679.2609, 23.31479
679.7430, 24.86414
680.2251, 27.27884
680.7072, 28.94788
681.1893, 27.32831
681.6714, 21.60608
682.1536, 15.61139
682.6357, 8.183319
683.1178, 3.549805
683.5999, 10.62497
684.0820, 27.57922
684.5641, 41.67462
685.0463, 46.10101
685.5284, 43.35825
686.0105, 38.93423
686.4926, 32.11453
686.9747, 25.31320
687.4568, 15.39273
687.9390, 8.658447
688.4211, 10.63214
688.9032, 17.08859
689.3853, 19.56870
689.8674, 14.24841
690.3495, 8.845276
690.8317, 11.21738
691.3138, 18.01486
691.7959, 22.51517
692.2780, 23.73956
692.7601, 20.91702
693.2422, 12.32809
693.7244, 0.2812810
694.2065, 4.640289
694.6886, 4.660217
695.1707, 10.25668
695.6528, 6.812836
696.1349, 4.122314
696.6171, 11.09213
697.0992, 23.77930
697.5813, 30.32648
698.0634, 23.18222
698.5455, 12.78253
699.0276, 12.95880
699.5098, 20.21329
699.9919, 20.41626
700.4740, 10.32193
700.9561, 0.5463260
701.4382, 0.3521730
701.9203, 8.290894
702.4025, 12.84821
702.8846, 8.919342
703.3667, 7.671509
703.8488, 14.02066
704.3309, 22.00082
704.8130, 29.08340
705.2952, 34.18082
705.7773, 35.47290
706.2594, 30.49329
706.7415, 23.45587
707.2236, 19.46619
707.7057, 18.55170
708.1879, 22.55093
708.6700, 33.14749
709.1521, 41.25903
709.6342, 37.02045
710.1163, 21.16898
710.5984, 11.50015
711.0806, 8.927979
711.5627, 10.96567
712.0448, 23.13849
712.5269, 35.54544
713.0090, 38.69641
713.4911, 33.22763
713.9733, 27.45599
714.4554, 28.32806
714.9375, 29.88446
715.4196, 19.39182
715.9017, 1.284088
716.3839, 14.48398
716.8660, 15.20212
717.3481, 6.643066
717.8302, 11.30957
718.3123, 38.51001
718.7944, 51.82751
719.2766, 40.37741
719.7587, 30.39609
720.2408, 26.48279
720.7229, 25.91632
721.2050, 28.08133
721.6871, 31.52383
722.1693, 31.42596
722.6514, 21.64020
723.1335, 9.701965
723.6156, 10.60638
724.0977, 22.20529
724.5798, 27.98126
725.0620, 22.85928
725.5441, 14.46857
726.0262, 9.993347
726.5083, 10.00140
726.9904, 12.28644
727.4725, 21.89304
727.9547, 27.74811
728.4368, 25.20743
728.9189, 20.19043
729.4010, 16.93246
729.8831, 16.26086
730.3652, 18.43750
730.8474, 26.98077
731.3295, 34.90601
731.8116, 27.74597
732.2937, 9.523468
732.7758, 2.475311
733.2579, 13.39957
733.7401, 26.84674
734.2222, 26.64758
734.7043, 13.58484
735.1864, 7.403168
735.6685, 16.32568
736.1506, 22.13855
736.6328, 20.84894
737.1149, 17.18820
737.5970, 13.41095
738.0791, 10.56030
738.5612, 11.04160
739.0433, 18.39182
739.5255, 26.81290
740.0076, 30.21829
740.4897, 29.23276
740.9718, 23.99310
741.4539, 14.49716
741.9360, 8.193970
742.4182, 12.72070
742.9003, 26.42065
743.3824, 34.90665
743.8645, 38.60233
744.3466, 36.10196
744.8287, 18.62228
745.3109, 2.685455
745.7930, 1.368958
746.2751, 11.71127
746.7572, 20.67621
747.2393, 23.66760
747.7214, 23.19376
748.2036, 18.11234
748.6857, 11.83069
749.1678, 13.81241
749.6499, 24.89066
750.1320, 35.10522
750.6141, 36.56003
751.0963, 31.57660
751.5784, 29.76718
752.0605, 33.21347
752.5426, 33.41275
753.0247, 25.62845
753.5068, 17.70844
753.9890, 14.06232
754.4711, 14.01718
754.9532, 16.03149
755.4353, 22.88583
755.9174, 27.02740
756.3995, 19.01654
756.8817, 8.303497
757.3638, 9.670013
757.8459, 22.09454
758.3280, 34.44833
758.8101, 40.10144
759.2922, 40.13785
759.7744, 34.87119
760.2565, 23.19028
760.7386, 18.30765
761.2207, 25.01889
761.7028, 31.54660
762.1849, 29.55911
762.6671, 22.19104
763.1492, 17.46780
763.6313, 15.86069
764.1134, 16.15985
764.5955, 20.87946
765.0776, 24.98386
765.5598, 22.48553
766.0419, 16.50967
766.5240, 15.75464
767.0061, 24.14490
767.4882, 33.52304
767.9703, 31.59344
768.4525, 20.88107
768.9346, 15.09097
769.4167, 15.12830
769.8988, 20.23007
770.3809, 33.40854
770.8630, 47.04449
771.3452, 45.04581
771.8273, 18.87823
772.3094, 1.752197
772.7915, 5.036316
773.2736, 4.729034
773.7557, 7.522308
774.2379, 22.46640
774.7200, 29.08536
775.2021, 25.53027
775.6842, 20.97757
776.1663, 22.70279
776.6484, 27.06635
777.1306, 28.48938
777.6127, 27.15961
778.0948, 24.04141
778.5769, 19.26257
779.0590, 15.85150
779.5411, 18.61230
780.0233, 27.85507
780.5054, 29.00797
780.9875, 11.88086
781.4696, 3.604065
781.9517, 24.41681
782.4338, 46.65509
782.9160, 41.93231
783.3981, 12.48584
783.8802, 8.381714
784.3623, 2.478943
784.8444, 7.922272
785.3265, 6.930939
785.8087, 1.619476
786.2908, 4.624237
786.7729, 16.91367
787.2550, 28.40451
787.7371, 30.82993
788.2192, 27.40186
788.7014, 28.31995
789.1835, 34.60068
789.6656, 33.59393
790.1477, 18.35706
790.6298, 5.913513
791.1119, 11.66165
791.5941, 31.43985
792.0762, 45.77750
792.5583, 55.11307
793.0404, 57.31851
793.5225, 44.25946
794.0046, 31.30551
794.4868, 32.01691
794.9689, 41.33499
795.4510, 45.30844
795.9331, 37.56177
796.4152, 27.41968
796.8973, 25.39832
797.3795, 28.35895
797.8616, 28.44659
798.3437, 25.15704
798.8258, 20.27197
799.3079, 14.23404
799.7900, 8.740417
800.2722, 6.789154
800.7543, 8.469604
801.2364, 13.50259
801.7185, 27.68332
802.2006, 37.18130
802.6827, 35.03046
803.1649, 27.85696
803.6470, 22.97031
804.1291, 21.08310
804.6112, 17.51248
805.0933, 5.687866
805.5754, 3.777985
806.0576, 1.335907
806.5397, 8.604004
807.0218, 20.11688
807.5039, 30.81290
807.9860, 36.73831
808.4681, 33.26163
808.9503, 23.66547
809.4324, 16.51093
809.9145, 11.89716
810.3966, 12.52618
810.8787, 21.80374
811.3608, 28.95425
811.8430, 23.03592
812.3251, 6.325592
812.8072, 4.499786
813.2893, 9.655121
813.7714, 8.916473
814.2535, 3.218658
814.7357, 16.21420
815.2178, 24.16068
815.6999, 27.28522
816.1820, 27.30136
816.6641, 24.52808
817.1462, 20.21371
817.6284, 11.75571
818.1105, 4.112122
818.5926, 9.237183
819.0747, 24.50287
819.5568, 32.46738
820.0389, 24.69174
820.5211, 10.90759
821.0032, 6.590240
821.4853, 12.30472
821.9674, 18.46109
822.4495, 26.57510
822.9316, 31.18658
823.4138, 28.33499
823.8959, 22.51865
824.3780, 19.33142
824.8601, 18.77170
825.3422, 18.62003
825.8243, 19.44763
826.3065, 19.67035
826.7886, 18.36740
827.2707, 16.34805
827.7528, 13.33743
828.2349, 10.20068
828.7170, 10.29135
829.1992, 16.98700
829.6813, 25.53845
830.1633, 29.88568
830.6454, 30.40381
831.1276, 29.03436
831.6097, 26.51114
832.0918, 24.96997
832.5739, 26.16736
833.0560, 29.37698
833.5381, 33.41489
834.0203, 40.43710
834.5024, 40.43536
834.9845, 27.95578
835.4666, 15.85663
835.9487, 10.31052
836.4308, 9.123627
836.9130, 9.939117
837.3951, 13.21097
837.8772, 15.17520
838.3593, 15.97336
838.8414, 14.09729
839.3235, 3.885773
839.8057, 7.523010
840.2878, 7.199921
840.7699, 6.166595
841.2520, 18.09897
841.7341, 13.24826
842.2162, 2.047821
842.6984, 2.641968
843.1805, 12.59842
843.6626, 20.65994
844.1447, 24.19836
844.6268, 26.04929
845.1089, 28.96893
845.5911, 31.84702
846.0732, 28.71402
846.5553, 15.12292
847.0374, 7.926575
847.5195, 14.78650
848.0016, 20.76254
848.4838, 14.42731
848.9659, 1.975128
849.4480, 5.002319
849.9301, 5.473450
850.4122, 0.8322750
850.8943, 15.54611
851.3765, 30.14868
851.8586, 31.01987
852.3407, 24.44458
852.8228, 22.70728
853.3049, 28.79153
853.7870, 33.68726
854.2692, 27.61423
854.7513, 16.03833
855.2334, 7.865845
855.7155, 3.272186
856.1976, 4.515015
856.6797, 12.29373
857.1619, 19.81265
857.6440, 20.20767
858.1261, 15.52991
858.6082, 17.90176
859.0903, 31.51727
859.5724, 38.48666
860.0546, 33.65210
860.5367, 25.74817
861.0188, 18.04578
861.5009, 11.90573
861.9830, 11.16989
862.4651, 17.94543
862.9473, 25.13217
863.4294, 34.81668
863.9115, 40.91678
864.3936, 38.20294
864.8757, 29.58777
865.3578, 18.28464
865.8400, 5.638306
866.3221, 2.473297
866.8042, 1.457703
867.2863, 10.17130
867.7684, 13.42880
868.2505, 13.64825
868.7327, 16.68185
869.2148, 22.79865
869.6969, 28.51190
870.1790, 30.58521
870.6611, 29.41357
871.1432, 27.05121
871.6254, 23.35611
872.1075, 24.12073
872.5896, 31.20294
873.0717, 37.76932
873.5538, 39.69980
874.0359, 37.81537
874.5181, 34.16290
875.0002, 27.24921
875.4823, 21.81427
875.9644, 18.56726
876.4465, 16.04697
876.9286, 13.94995
877.4108, 12.06570
877.8929, 9.405457
878.3750, 6.036438
878.8571, 5.554657
879.3392, 12.92722
879.8214, 20.63477
880.3035, 22.08984
880.7856, 20.02164
881.2677, 18.65421
881.7498, 18.73700
882.2319, 19.22675
882.7141, 18.93854
883.1962, 18.76990
883.6783, 20.93008
884.1604, 24.75079
884.6425, 24.88669
885.1246, 20.46194
885.6068, 18.52606
886.0889, 23.63824
886.5710, 31.31326
887.0531, 32.62088
887.5352, 25.75009
888.0173, 23.14355
888.4995, 28.54639
888.9816, 31.71130
889.4637, 23.51031
889.9458, 16.21039
890.4279, 26.30237
890.9100, 51.70038
891.3922, 65.07474
891.8743, 54.82181
892.3564, 41.75305
892.8385, 28.40277
893.3206, 18.36609
893.8027, 16.22580
894.2849, 19.97119
894.7670, 23.26303
895.2491, 22.99725
895.7312, 24.89587
896.2133, 41.27924
896.6954, 58.65607
897.1776, 51.17670
897.6597, 24.40219
898.1418, 3.758667
898.6239, 1.329498
899.1060, 2.668549
899.5881, 10.59552
900.0703, 21.46576
900.5524, 32.68335
901.0345, 44.64285
901.5166, 46.60965
901.9987, 33.52304
902.4808, 19.96466
902.9630, 17.81769
903.4451, 24.74496
903.9272, 31.47150
904.4093, 40.51874
904.8914, 44.09842
905.3735, 37.17853
905.8557, 30.49033
906.3378, 30.86691
906.8199, 33.07614
907.3020, 28.12155
907.7841, 14.64246
908.2662, 5.608398
908.7484, 4.619537
909.2305, 6.962463
909.7126, 15.53256
910.1947, 23.57932
910.6768, 20.26871
911.1589, 7.765167
911.6411, 4.4799998E-02
912.1232, 6.927460
912.6053, 17.12082
913.0874, 20.01538
913.5695, 18.15054
914.0516, 13.90753
914.5338, 8.962708
915.0159, 9.094513
915.4980, 17.29715
915.9801, 27.06635
916.4622, 31.13455
916.9443, 29.74176
917.4265, 22.11127
917.9086, 7.772125
918.3907, 9.1461003E-02
918.8728, 3.612091
919.3549, 12.74878
919.8370, 23.48126
920.3192, 34.75684
920.8013, 38.62381
921.2834, 30.87906
921.7655, 26.06647
922.2476, 28.93265
922.7297, 30.41357
923.2119, 23.48801
923.6940, 12.57245
924.1761, 5.356262
924.6582, 3.602814
925.1403, 0.7559810
925.6224, 10.03046
926.1046, 15.10220
926.5867, 3.202209
927.0688, 13.92029
927.5509, 23.68646
928.0330, 25.24622
928.5151, 24.56592
928.9973, 23.06406
929.4794, 22.62723
929.9615, 25.56653
930.4436, 28.46112
930.9257, 26.29346
931.4078, 20.51419
931.8900, 17.33594
932.3721, 19.41556
932.8542, 21.95734
933.3363, 17.82733
933.8184, 10.52310
934.3005, 9.501190
934.7827, 14.17120
935.2648, 20.95316
935.7469, 28.86600
936.2290, 34.66147
936.7111, 35.19376
937.1932, 31.72824
937.6754, 29.12906
938.1575, 27.93692
938.6396, 21.96439
939.1217, 7.703217
939.6038, 1.575043
940.0859, 3.552246
940.5681, 15.21454
941.0502, 18.55145
941.5323, 11.11038
942.0144, 8.184906
942.4965, 14.06848
942.9786, 18.33527
943.4608, 17.31207
943.9429, 15.06723
944.4250, 15.24728
944.9071, 17.20163
945.3892, 17.53250
945.8713, 14.27490
946.3535, 11.92859
946.8356, 13.74326
947.3177, 14.79675
947.7998, 9.973175
948.2819, 2.683929
948.7640, 1.574036
949.2462, 1.433289
949.7283, 2.228607
950.2104, 12.31958
950.6925, 22.39084
951.1746, 27.57187
951.6567, 28.39120
952.1389, 23.76599
952.6210, 15.33865
953.1031, 9.975952
953.5852, 12.17300
954.0673, 16.44540
954.5494, 13.98035
955.0316, 8.220062
955.5137, 8.942169
955.9958, 15.84824
956.4779, 23.63425
956.9600, 30.61322
957.4421, 34.28012
957.9243, 31.06522
958.4064, 22.86823
958.8885, 18.80243
959.3706, 19.14264
959.8527, 18.29614
960.3348, 14.76590
960.8170, 12.78238
961.2991, 15.46277
961.7812, 21.05515
962.2633, 25.92886
962.7454, 30.86545
963.2275, 31.44690
963.7097, 26.09058
964.1918, 19.28543
964.6739, 10.75272
965.1560, 2.953705
965.6381, 3.080963
966.1202, 6.803864
966.6024, 2.524536
967.0845, 24.95718
967.5666, 37.99271
968.0487, 17.27585
968.5308, 2.455109
969.0129, 1.624634
969.4951, 18.03339
969.9772, 27.19504
970.4593, 25.67404
970.9414, 22.65140
971.4235, 22.01129
971.9056, 19.56003
972.3878, 7.591248
972.8699, 3.518646
973.3520, 1.573517
973.8341, 18.90942
974.3162, 29.19901
974.7983, 22.68008
975.2805, 13.63754
975.7626, 14.17963
976.2447, 17.21155
976.7268, 13.16495
977.2089, 4.926575
977.6910, 0.4075010
978.1732, 1.635101
978.6553, 4.936462
979.1374, 7.711609
979.6195, 10.29578
980.1016, 12.44574
980.5837, 14.96527
981.0659, 22.54703
981.5480, 34.18790
982.0301, 37.98264
982.5122, 27.47772
982.9943, 14.31616
983.4764, 16.86560
983.9586, 31.88287
984.4407, 40.37051
984.9228, 41.87064
985.4049, 34.58139
985.8870, 17.09454
986.3691, 0.4305110
986.8513, 6.700958
987.3334, 5.908234
987.8155, 0.9040530
988.2976, 9.652649
988.7797, 14.94760
989.2618, 13.19333
989.7440, 10.43610
990.2261, 8.330505
990.7082, 7.788239
991.1903, 10.43173
991.6724, 16.14868
992.1545, 19.62085
992.6367, 16.37598
993.1188, 20.62717
993.6009, 45.15057
994.0830, 63.27802
994.5651, 52.91254
995.0472, 27.64261
995.5294, 16.03647
996.0115, 21.98880
996.4936, 24.40332
996.9757, 17.99448
997.4578, 13.69849
997.9399, 17.49564
998.4221, 22.46414
998.9042, 22.49719
999.3863, 18.60739
999.8684, 15.76968
1000.351, 15.90231
1000.833, 14.68390
1001.315, 7.709167
1001.797, 2.464752
1002.279, 4.741791
1002.761, 10.74942
1003.243, 16.37100
1003.725, 20.48215
1004.207, 20.97073
1004.690, 13.72937
1005.172, 7.264740
1005.654, 6.144104
1006.136, 8.496979
1006.618, 13.89435
1007.100, 20.82617
1007.582, 27.43591
1008.064, 32.82214
1008.547, 33.72733
1009.029, 21.87180
1009.511, 9.819427
1009.993, 13.95807
1010.475, 25.33359
1010.957, 28.99442
1011.439, 24.35916
1011.921, 18.00922
1012.403, 12.95218
1012.886, 10.36835
1013.368, 13.64130
1013.850, 18.31216
1014.332, 16.22186
1014.814, 9.457764
1015.296, 3.674377
1015.778, 0.5943600
1016.260, 1.641846
1016.742, 9.087830
1017.225, 17.52106
1017.707, 14.43906
1018.189, 3.920532
1018.671, 6.3479999E-03
1019.153, 3.094086
1019.635, 7.838562
1020.117, 12.25342
1020.599, 17.54904
1021.082, 26.19034
1021.564, 35.31750
1022.046, 33.68710
1022.528, 22.22342
1023.010, 13.36374
1023.492, 8.425507
1023.974, 10.14056
1024.456, 21.58527
1024.938, 34.33444
1025.421, 35.17242
1025.903, 25.08905
1026.385, 17.83121
1026.867, 13.82394
1027.349, 12.46002
1027.831, 13.99911
1028.313, 16.80899
1028.795, 20.33423
1029.278, 23.33911
1029.760, 22.50055
1030.242, 16.97363
1030.724, 14.81683
1031.206, 17.83569
1031.688, 19.82169
1032.170, 18.68491
1032.652, 17.13077
1033.135, 17.92169
1033.617, 19.98450
1034.099, 18.80624
1034.581, 11.91010
1035.063, 9.206726
1035.545, 12.68723
1036.027, 16.47638
1036.509, 18.53979
1036.991, 19.89438
1037.474, 21.52646
1037.956, 23.43362
1038.438, 25.93893
1038.920, 32.87433
1039.402, 32.34064
1039.884, 15.47437
1040.366, 2.433807
1040.848, 5.430603
1041.330, 15.10114
1041.813, 18.47168
1042.295, 15.12631
1042.777, 14.44489
1043.259, 19.53494
1043.741, 22.69165
1044.223, 20.34290
1044.705, 18.52261
1045.187, 23.05872
1045.670, 30.36725
1046.152, 33.26721
1046.634, 30.85562
1047.116, 28.72723
1047.598, 28.74438
1048.080, 27.13010
1048.562, 17.82895
1049.044, 11.53256
1049.526, 20.08786
1050.009, 36.44614
1050.491, 43.67584
1050.973, 37.92752
1051.455, 32.47406
1051.937, 27.90491
1052.419, 25.94641
1052.901, 31.19269
1053.383, 35.95691
1053.865, 31.36575
1054.348, 20.62219
1054.830, 14.61066
1055.312, 15.41049
1055.794, 19.36844
1056.276, 31.73431
1056.758, 40.09329
1057.240, 35.61285
1057.722, 26.27823
1058.205, 18.40570
1058.687, 13.54025
1059.169, 14.59695
1059.651, 25.04517
1060.133, 34.75757
1060.615, 42.43668
1061.097, 46.38907
1061.579, 43.04919
1062.062, 37.02716
1062.544, 35.24771
1063.026, 37.06964
1063.508, 33.84274
1063.990, 17.93857
1064.472, 5.982269
1064.954, 5.791626
1065.436, 10.10410
1065.918, 17.20364
1066.401, 23.87003
1066.883, 26.47879
1067.365, 24.51233
1067.847, 18.97299
1068.329, 6.045441
1068.811, 3.973175
1069.293, 4.346863
1069.775, 2.250702
1070.257, 5.099762
1070.740, 8.547394
1071.222, 4.046814
1071.704, 9.380371
1072.186, 23.50015
1072.668, 41.97479
1073.150, 49.34595
1073.632, 25.66888
1074.114, 0.7909550
1074.597, 4.089050
1075.079, 6.792389
1075.561, 12.41855
1076.043, 8.891602
1076.525, 7.167175
1077.007, 12.85297
1077.489, 20.46704
1077.971, 31.31406
1078.453, 39.35538
1078.936, 36.97681
1079.418, 28.23434
1079.900, 21.89523
1080.382, 19.97797
1080.864, 17.85452
1081.346, 12.91827
1081.828, 7.943146
1082.310, 2.299927
1082.792, 0.8198240
1083.275, 3.542297
1083.757, 12.11740
1084.239, 16.43784
1084.721, 14.22366
1085.203, 15.14407
1085.685, 30.80762
1086.167, 41.60492
1086.649, 31.26776
1087.131, 16.01492
1087.614, 10.97348
1088.096, 14.18973
1088.578, 18.34976
1089.060, 22.23917
1089.542, 25.04843
1090.024, 27.29352
1090.506, 27.35062
1090.988, 21.47565
1091.471, 15.45712
1091.953, 16.69232
1092.435, 21.99985
1092.917, 21.84442
1093.399, 13.11499
1093.881, 7.724579
1094.363, 15.47906
1094.845, 20.87918
1095.328, 10.67380
1095.810, 0.3841550
1096.292, 2.324707
1096.774, 15.48911
1097.256, 30.07751
1097.738, 45.53757
1098.220, 52.34283
1098.702, 40.95300
1099.184, 28.49014
1099.667, 21.25974
1100.149, 17.08987
1100.631, 13.93842
1101.113, 3.849030
1101.595, 14.10168
1102.077, 19.92728
1102.559, 21.56537
1103.041, 6.469025
1103.523, 12.98355
1104.006, 10.83765
1104.488, 8.336182
1104.970, 17.89178
1105.452, 5.229126
1105.934, 14.59329
1106.416, 15.16455
1106.898, 19.75983
1107.380, 15.64099
1107.863, 14.21384
1108.345, 21.50296
1108.827, 23.96536
1109.309, 18.84274
1109.791, 23.69302
1110.273, 15.76370
1110.755, 10.96390
1111.237, 6.305878
1111.719, 0.7544560
1112.202, 2.457520
1112.684, 2.041870
1113.166, 0.3870240
1113.648, 4.701599
1114.130, 9.976624
1114.612, 13.80844
1115.094, 15.41379
1115.576, 19.27197
1116.058, 31.87787
1116.541, 36.65973
1117.023, 23.89432
1117.505, 10.85162
1117.987, 7.246399
1118.469, 11.31970
1118.951, 21.85443
1119.433, 41.55508
1119.915, 47.13354
1120.398, 29.91730
1120.880, 16.79178
1121.362, 13.85947
1121.844, 12.85684
1122.326, 8.635132
1122.808, 3.549805
1123.290, 1.764130
1123.772, 3.380585
1124.255, 6.269257
1124.737, 10.57092
1125.219, 16.18683
1125.701, 24.76581
1126.183, 29.81186
1126.665, 26.27734
1127.147, 19.81796
1127.629, 19.94815
1128.111, 25.57782
1128.594, 19.90833
1129.076, 0.1373600
1129.558, 7.042938
1130.040, 4.156860
1130.522, 12.66916
1131.004, 7.207855
1131.486, 2.194672
1131.968, 1.890167
1132.450, 5.748749
1132.933, 8.195496
1133.415, 5.237274
1133.897, 6.198517
1134.379, 12.17636
1134.861, 16.75443
1135.343, 17.11432
1135.825, 16.04651
1136.307, 16.83459
1136.790, 18.21838
1137.272, 15.40308
1137.754, 9.613831
1138.236, 9.232391
1138.718, 13.91986
1139.200, 13.42392
1139.682, 3.854584
1140.164, 1.155762
1140.646, 12.05939
1141.129, 32.79260
1141.611, 42.30441
1142.093, 43.55304
1142.575, 44.88470
1143.057, 45.27234
1143.539, 36.69656
1144.021, 18.50006
1144.503, 2.157196
1144.985, 4.520416
1145.468, 4.842010
1145.950, 0.4257510
1146.432, 7.327881
1146.914, 10.03156
1147.396, 9.420013
1147.878, 7.012421
1148.360, 3.978394
1148.842, 3.369720
1149.325, 7.140533
1149.807, 12.01987
1150.289, 11.79883
1150.771, 20.80734
1151.253, 25.73376
1151.735, 27.02063
1152.217, 13.76718
1152.699, 19.28915
1153.182, 17.28668
1153.664, 15.40625
1154.146, 24.34909
1154.628, 13.21457
1155.110, 21.21216
1155.592, 21.57028
1156.074, 25.42822
1156.556, 21.71140
1157.038, 20.33286
1157.521, 26.52762
1158.003, 28.52863
1158.485, 23.94022
1158.967, 28.01636
1159.449, 16.61136
1159.931, 18.79102
1160.413, 26.83179
1160.895, 22.62354
1161.377, 26.83740
1161.860, 27.84369
1162.342, 14.27185
1162.824, 26.05188
1163.306, 26.86761
1163.788, 16.42563
1164.270, 27.33640
1164.752, 18.44620
1165.234, 16.62357
1165.717, 20.11987
1166.199, 18.07120
1166.681, 24.76431
1167.163, 20.43497
1167.645, 21.92349
1168.127, 21.41037
1168.609, 18.00211
1169.091, 16.22464
1169.573, 18.47571
1170.056, 19.20270
1170.538, 12.47968
1171.020, 2.265442
1171.502, 0.7014770
1171.984, 7.134857
1172.466, 10.86395
1172.948, 11.62976
1173.430, 13.77841
1173.912, 18.32437
1174.395, 20.57242
1174.877, 16.62579
1175.359, 10.61459
1175.841, 7.537659
1176.323, 8.022369
1176.805, 17.38437
1177.287, 31.26080
1177.769, 34.98209
1178.252, 28.00336
1178.734, 20.35123
1179.216, 16.70178
1179.698, 14.84464
1180.180, 13.14020
1180.662, 11.66858
1181.144, 9.236176
1181.626, 7.940277
1182.109, 12.29388
1182.591, 20.06647
1183.073, 25.20389
1183.555, 26.11511
1184.037, 25.64313
1184.519, 24.52289
1185.001, 23.38361
1185.483, 22.78943
1185.965, 22.04922
1186.448, 19.64032
1186.930, 17.28091
1187.412, 17.42184
1187.894, 20.90897
1188.376, 24.10770
1188.858, 26.87418
1189.340, 28.36295
1189.822, 29.22589
1190.304, 28.38660
1190.787, 22.64703
1191.269, 17.19470
1191.751, 16.29837
1192.233, 19.37054
1192.715, 25.34262
1193.197, 36.64029
1193.679, 39.33316
1194.161, 30.25769
1194.644, 22.29514
1195.126, 18.83374
1195.608, 14.43484
1196.090, 4.201904
1196.572, 4.815277
1197.054, 1.360504
1197.536, 19.40778
1198.018, 20.19656
1198.500, 5.023987
1198.983, 1.413788
1199.465, 12.14920
1199.947, 21.08508
1200.429, 21.59189
1200.911, 17.02936
1201.393, 9.149323
1201.875, 1.693176
1202.357, 2.477966
1202.839, 8.184509
1203.322, 14.77686
1203.804, 20.48865
1204.286, 18.81610
1204.768, 10.11636
1205.250, 4.498383
1205.732, 8.296600
1206.214, 13.42294
1206.696, 14.53864
1207.179, 13.03058
1207.661, 3.235168
1208.143, 3.563477
1208.625, 15.86755
1209.107, 49.73996
1209.589, 58.94073
1210.071, 31.10275
1210.553, 6.249786
1211.036, 7.718689
1211.518, 12.23129
1212.000, 1.551117
1212.482, 14.74371
1212.964, 11.17410
1213.446, 1.856873
1213.928, 5.628418
1214.410, 21.61255
1214.892, 29.20071
1215.375, 24.77542
1215.857, 21.84671
1216.339, 21.23541
1216.821, 20.69830
1217.303, 19.35059
1217.785, 18.13089
1218.267, 18.07941
1218.749, 18.36401
1219.231, 16.86072
1219.714, 13.73462
1220.196, 11.52881
1220.678, 10.23810
1221.160, 9.845612
1221.642, 10.19543
1222.124, 10.16730
1222.606, 9.144745
1223.088, 8.501251
1223.571, 10.25189
1224.053, 12.88043
1224.535, 12.41147
1225.017, 11.99637
1225.499, 20.32068
1225.981, 32.90945
1226.463, 35.52634
1226.945, 26.25415
1227.427, 20.40707
1227.910, 29.69232
1228.392, 35.51630
1228.874, 21.53415
1229.356, 7.937775
1229.838, 12.06409
1230.320, 20.96851
1230.802, 17.83685
1231.284, 5.604248
1231.766, 1.111176
1232.249, 0.2611690
1232.731, 3.309845
1233.213, 10.88300
1233.695, 14.46783
1234.177, 10.64978
1234.659, 5.960876
1235.141, 2.776245
1235.623, 3.059509
1236.106, 11.47458
1236.588, 25.37866
1237.070, 24.13068
1237.552, 6.642761
1238.034, 3.737305
1238.516, 16.81534
1238.998, 25.22440
1239.480, 22.71732
1239.963, 18.97855
1240.445, 21.28928
1240.927, 26.39389
1241.409, 30.92560
1241.891, 33.84698
1242.373, 33.17691
1242.855, 29.36450
1243.337, 19.41174
1243.819, 7.896790
1244.302, 8.194397
1244.784, 23.97787
1245.266, 35.26614
1245.748, 27.90225
1246.230, 19.34329
1246.712, 19.95303
1247.194, 22.32498
1247.676, 20.94376
1248.158, 17.78830
1248.641, 14.09976
1249.123, 10.99136
1249.605, 16.42868
1250.087, 42.07230
1250.569, 47.15546
1251.051, 16.25510
1251.533, 1.271210
1252.015, 10.37146
1252.498, 29.26880
1252.980, 43.89398
1253.462, 50.08353
1253.944, 37.35422
1254.426, 10.88171
1254.908, 0.7916560
1255.390, 9.560425
1255.872, 14.76309
1256.354, 16.32437
1256.837, 3.336273
1257.319, 9.122955
1257.801, 7.387207
1258.283, 5.351990
1258.765, 13.79007
1259.247, 2.922150
1259.729, 11.18887
1260.211, 11.81256
1260.693, 15.92828
1261.176, 12.48083
1261.658, 11.37927
1262.140, 17.90244
1262.622, 20.23346
1263.104, 15.97601
1263.586, 20.38464
1264.068, 9.313965
1264.550, 11.82999
1265.033, 19.99490
1265.515, 16.11966
1265.997, 20.66879
1266.479, 22.01288
1266.961, 8.772156
1267.443, 20.91147
1267.925, 22.09387
1268.407, 12.02655
1268.890, 19.11380
1269.372, 19.22348
1269.854, 11.63101
1270.336, 4.738495
1270.818, 3.237762
1271.300, 5.315826
1271.782, 10.79840
1272.264, 15.89182
1272.746, 9.089722
1273.229, 1.506195
1273.711, 3.619232
1274.193, 17.89944
1274.675, 20.39188
1275.157, 9.184174
1275.639, 1.670898
1276.121, 2.814453
1276.603, 7.641571
1277.085, 7.547333
1277.568, 6.119263
1278.050, 0.0000000E+00
##END=



