##NAMES=Calaverite
##RRUFFID=R070397
##IDEAL CHEMISTRY=AuTe_2_
##LOCALITY=Sacarambu, Transylvania, Romania
##OWNER=RRUFF
##SOURCE=Michael Scott
##DESCRIPTION=Gold metallic massive associated with quartz
##STATUS=The identification of this mineral is confirmed by single-crystal X-ray diffraction and chemical analysis.
##URL=rruff.info/R070397
##MEASURED CHEMISTRY=(Au_0.95_Ag_0.05_)_Î£=1_Te_2.00_
169.9107, 0.0000000E+00
170.3929, 6.784210
170.8750, 12.70493
171.3571, 15.61026
171.8392, 19.97720
172.3213, 16.77835
172.8034, 8.990265
173.2856, 1.520447
173.7677, 0.3078000
174.2498, 4.841187
174.7319, 7.973663
175.2140, 7.963531
175.6961, 7.015503
176.1783, 8.628174
176.6604, 15.16034
177.1425, 21.43234
177.6246, 18.11594
178.1067, 6.961334
178.5888, 2.053955
179.0710, 1.287964
179.5531, 12.42236
180.0352, 20.09814
180.5173, 21.24341
180.9994, 18.73621
181.4815, 17.53836
181.9637, 16.62524
182.4458, 15.17465
182.9279, 10.25610
183.4100, 3.355957
183.8921, 0.1332400
184.3742, 3.539917
184.8564, 11.06842
185.3385, 17.84384
185.8206, 24.07211
186.3027, 27.74237
186.7848, 25.56967
187.2669, 18.25601
187.7491, 11.03012
188.2312, 4.325684
188.7133, 0.9283450
189.1954, 0.3094480
189.6775, 7.017700
190.1596, 16.49054
190.6418, 24.47446
191.1239, 30.82471
191.6060, 32.08774
192.0881, 22.82129
192.5702, 4.993103
193.0524, 2.996277
193.5345, 0.6339420
194.0166, 9.471283
194.4987, 13.45038
194.9808, 12.19449
195.4629, 11.77988
195.9451, 17.10989
196.4272, 28.03442
196.9093, 31.33920
197.3914, 24.59131
197.8735, 13.39688
198.3556, 7.740662
198.8378, 7.890381
199.3199, 11.83221
199.8020, 21.09787
200.2841, 36.47620
200.7662, 44.18665
201.2483, 41.49744
201.7305, 32.60092
202.2126, 27.67807
202.6947, 27.36789
203.1768, 28.64551
203.6589, 29.92850
204.1410, 31.20892
204.6232, 32.53979
205.1053, 34.06622
205.5874, 35.58459
206.0695, 36.58142
206.5516, 37.27545
207.0337, 36.88245
207.5159, 34.15460
207.9980, 28.23526
208.4801, 24.33673
208.9622, 23.43985
209.4443, 25.04541
209.9264, 27.35062
210.4086, 31.60742
210.8907, 34.04166
211.3728, 30.62796
211.8549, 18.76672
212.3370, 9.913666
212.8191, 6.123352
213.3013, 6.915955
213.7834, 8.004486
214.2655, 9.111206
214.7476, 10.97339
215.2297, 14.61182
215.7118, 21.21048
216.1940, 26.36145
216.6761, 29.01517
217.1582, 29.29636
217.6403, 29.86716
218.1224, 31.68878
218.6045, 32.51367
219.0867, 29.51395
219.5688, 20.31671
220.0509, 12.96298
220.5330, 9.426788
221.0151, 9.770081
221.4972, 10.62979
221.9794, 11.66449
222.4615, 13.69467
222.9436, 18.17542
223.4257, 27.42920
223.9078, 34.40561
224.3899, 37.41727
224.8721, 36.35767
225.3542, 32.86322
225.8363, 24.72574
226.3184, 16.21439
226.8005, 12.85995
227.2827, 18.12305
227.7648, 22.01410
228.2469, 21.67947
228.7290, 16.54700
229.2111, 11.30066
229.6932, 4.164490
230.1754, 1.595886
230.6575, 0.9261170
231.1396, 10.87885
231.6217, 20.56876
232.1038, 24.05524
232.5859, 19.79160
233.0681, 17.25882
233.5502, 17.17963
234.0323, 18.31537
234.5144, 18.73227
234.9965, 17.45456
235.4786, 17.15402
235.9608, 19.28531
236.4429, 24.82443
236.9250, 27.19000
237.4071, 24.47244
237.8892, 19.59036
238.3713, 17.20569
238.8535, 18.91965
239.3356, 20.57233
239.8177, 20.50632
240.2998, 17.74265
240.7819, 17.23135
241.2640, 20.37689
241.7462, 24.93262
242.2283, 26.89441
242.7104, 24.50546
243.1925, 22.47198
243.6746, 22.55298
244.1567, 24.60657
244.6389, 26.87543
245.1210, 29.75742
245.6031, 32.78711
246.0852, 35.48218
246.5673, 39.30383
247.0494, 40.19791
247.5316, 35.50061
248.0137, 21.84647
248.4958, 14.03952
248.9779, 13.47684
249.4600, 18.04355
249.9421, 24.79996
250.4243, 37.33417
250.9064, 45.56171
251.3885, 44.08481
251.8706, 27.05612
252.3527, 20.17703
252.8348, 27.99210
253.3170, 43.10831
253.7991, 51.38690
254.2812, 50.24341
254.7633, 47.03467
255.2454, 43.89923
255.7275, 40.22504
256.2097, 39.19293
256.6918, 41.79373
257.1739, 46.36475
257.6560, 50.25058
258.1381, 54.23074
258.6202, 55.88007
259.1024, 53.49542
259.5845, 45.49246
260.0666, 40.36752
260.5487, 39.39520
261.0308, 40.34521
261.5129, 38.61395
261.9951, 32.59259
262.4772, 27.81030
262.9593, 27.72107
263.4414, 34.58035
263.9235, 34.11487
264.4056, 21.79999
264.8878, 6.380646
265.3699, 5.195618
265.8520, 24.35718
266.3341, 40.21906
266.8162, 41.32458
267.2983, 24.03485
267.7805, 16.23547
268.2626, 21.48758
268.7447, 32.36777
269.2268, 36.11322
269.7089, 31.42734
270.1910, 24.20856
270.6732, 14.91107
271.1553, 2.709229
271.6374, 2.290283
272.1195, 1.354492
272.6016, 10.09439
273.0837, 19.56342
273.5659, 30.77026
274.0480, 37.84329
274.5301, 37.55551
275.0122, 29.63055
275.4943, 21.04214
275.9764, 10.46619
276.4586, 1.718445
276.9407, 1.786591
277.4228, 11.60056
277.9049, 22.06339
278.3870, 30.61243
278.8691, 37.16748
279.3513, 39.19077
279.8334, 35.75427
280.3155, 30.17419
280.7976, 27.24063
281.2798, 27.13797
281.7619, 25.93863
282.2440, 21.27454
282.7261, 13.83582
283.2082, 8.887878
283.6903, 6.594849
284.1725, 6.190002
284.6546, 7.225586
285.1367, 9.643188
285.6188, 12.23154
286.1009, 15.66299
286.5830, 19.02402
287.0652, 16.83914
287.5473, 8.169769
288.0294, 0.3388370
288.5115, 0.5097960
288.9936, 9.476715
289.4757, 16.07742
289.9579, 14.36313
290.4400, 8.391571
290.9221, 11.07010
291.4042, 23.07056
291.8863, 35.33096
292.3684, 39.05356
292.8506, 35.25772
293.3327, 28.22037
293.8148, 16.73715
294.2969, 4.269409
294.7790, 2.855469
295.2611, 4.379486
295.7433, 2.069153
296.2254, 6.697021
296.7075, 19.05505
297.1896, 25.75989
297.6717, 21.47415
298.1538, 12.69473
298.6360, 10.09656
299.1181, 13.09320
299.6002, 15.06482
300.0823, 7.932526
300.5644, 3.016235
301.0465, 8.050171
301.5287, 2.895660
302.0108, 6.727600
302.4929, 15.90768
302.9750, 24.53195
303.4571, 31.35068
303.9392, 36.60983
304.4214, 39.31848
304.9035, 37.35083
305.3856, 27.05460
305.8677, 17.16873
306.3498, 16.83301
306.8319, 24.42200
307.3141, 31.70261
307.7962, 35.68335
308.2783, 36.34680
308.7604, 31.77524
309.2425, 17.83798
309.7246, 7.089813
310.2068, 12.06845
310.6889, 27.14517
311.1710, 37.45419
311.6531, 31.37125
312.1352, 20.90125
312.6173, 15.02628
313.0995, 16.45190
313.5816, 18.97360
314.0637, 19.03955
314.5458, 18.23212
315.0279, 19.52014
315.5100, 28.18530
315.9922, 36.12277
316.4743, 38.32364
316.9564, 32.81454
317.4385, 27.37219
317.9206, 25.03769
318.4027, 24.19565
318.8849, 22.58847
319.3670, 18.60678
319.8491, 14.64044
320.3312, 10.91208
320.8133, 6.984314
321.2954, 6.145416
321.7776, 12.06287
322.2597, 20.18677
322.7418, 25.68350
323.2239, 26.55988
323.7060, 25.93607
324.1881, 23.31897
324.6703, 18.30112
325.1524, 16.76764
325.6345, 24.20786
326.1166, 32.61102
326.5987, 35.55688
327.0808, 26.85635
327.5630, 19.93777
328.0451, 16.60944
328.5272, 16.73901
329.0093, 17.50928
329.4914, 19.89874
329.9735, 22.03110
330.4557, 22.57544
330.9378, 20.97244
331.4199, 18.64935
331.9020, 15.00894
332.3841, 10.61792
332.8662, 8.337585
333.3484, 8.857666
333.8305, 10.36353
334.3126, 12.09265
334.7947, 14.22995
335.2768, 15.72351
335.7589, 15.56754
336.2411, 15.27216
336.7232, 19.92172
337.2053, 31.63477
337.6874, 41.32095
338.1695, 44.55536
338.6516, 40.37387
339.1338, 39.21701
339.6159, 42.70392
340.0980, 47.39536
340.5801, 48.21393
341.0622, 45.27084
341.5443, 40.77975
342.0265, 34.91727
342.5086, 27.96167
342.9907, 21.63120
343.4728, 15.79453
343.9549, 11.58249
344.4370, 11.55542
344.9192, 15.36810
345.4013, 19.78937
345.8834, 24.75098
346.3655, 29.17999
346.8476, 29.14270
347.3297, 24.51669
347.8119, 19.16281
348.2940, 16.19482
348.7761, 15.36044
349.2582, 16.24838
349.7403, 20.41684
350.2225, 24.54062
350.7046, 23.11215
351.1867, 16.69296
351.6688, 9.693481
352.1509, 1.929749
352.6331, 3.605103
353.1152, 0.9729920
353.5973, 15.50436
354.0794, 32.59409
354.5615, 38.56931
355.0436, 35.43982
355.5258, 29.32410
356.0079, 21.86865
356.4900, 13.84836
356.9721, 5.002045
357.4542, 6.096466
357.9363, 13.32187
358.4185, 10.62860
358.9006, 2.329193
359.3827, 5.082733
359.8648, 8.963135
360.3469, 10.70682
360.8290, 9.991028
361.3112, 6.154175
361.7933, 4.714752
362.2754, 12.22406
362.7575, 21.23138
363.2396, 23.64780
363.7217, 6.248474
364.2039, 6.557220
364.6860, 5.080780
365.1681, 10.99057
365.6502, 21.15521
366.1323, 19.24567
366.6144, 13.12292
367.0966, 8.121277
367.5787, 1.160797
368.0608, 0.4764100
368.5429, 7.708252
369.0250, 22.89243
369.5071, 30.18774
369.9893, 24.46814
370.4714, 16.83725
370.9535, 12.22815
371.4356, 10.39328
371.9177, 12.83643
372.3998, 22.76559
372.8820, 35.38293
373.3641, 39.14441
373.8462, 30.95612
374.3283, 21.88400
374.8104, 15.31482
375.2925, 10.93512
375.7747, 13.72354
376.2568, 26.87378
376.7389, 40.91757
377.2210, 41.05472
377.7031, 26.21469
378.1852, 12.93607
378.6674, 6.516571
379.1495, 5.671417
379.6316, 4.313629
380.1137, 2.200165
380.5958, 1.869354
381.0779, 7.739594
381.5601, 18.25726
382.0422, 25.00226
382.5243, 25.01648
383.0064, 21.95377
383.4885, 22.40283
383.9706, 25.80551
384.4528, 28.07901
384.9349, 24.62860
385.4170, 18.71741
385.8991, 16.40176
386.3812, 18.78458
386.8633, 21.71976
387.3455, 21.08264
387.8276, 17.83984
388.3097, 14.16998
388.7918, 10.33798
389.2739, 7.080444
389.7560, 4.543915
390.2382, 2.606445
390.7203, 3.025482
391.2024, 10.10211
391.6845, 18.91019
392.1666, 23.84811
392.6487, 21.06381
393.1309, 15.85681
393.6130, 7.899994
394.0951, 2.141602
394.5772, 7.121948
395.0593, 1.362183
395.5414, 11.30936
396.0236, 15.11630
396.5057, 2.228973
396.9878, 5.548584
397.4699, 3.540680
397.9520, 5.410187
398.4341, 12.42175
398.9163, 18.95206
399.3984, 21.96597
399.8805, 19.05338
400.3626, 5.765686
400.8447, 0.1224670
401.3268, 5.444855
401.8090, 15.96887
402.2911, 24.03900
402.7732, 29.44904
403.2553, 32.65125
403.7374, 33.12836
404.2195, 31.07889
404.7017, 30.46109
405.1838, 31.93625
405.6659, 33.04446
406.1480, 31.32028
406.6301, 26.72574
407.1122, 21.49374
407.5944, 15.21222
408.0765, 9.354523
408.5586, 8.519409
409.0407, 12.60242
409.5228, 16.54333
410.0049, 16.30524
410.4871, 12.98138
410.9692, 10.32785
411.4513, 8.328064
411.9334, 8.437622
412.4155, 15.37729
412.8976, 26.46524
413.3798, 33.74902
413.8619, 29.14551
414.3440, 21.65216
414.8261, 22.36633
415.3082, 30.94470
415.7903, 36.82547
416.2725, 31.25555
416.7546, 21.08478
417.2367, 13.14490
417.7188, 7.566772
418.2009, 6.612122
418.6830, 16.68445
419.1652, 33.76337
419.6473, 42.74896
420.1294, 29.87140
420.6115, 14.12561
421.0937, 5.720032
421.5758, 8.608521
422.0579, 13.02734
422.5400, 22.52313
423.0221, 33.02435
423.5042, 36.84351
423.9864, 26.23578
424.4685, 17.39740
424.9506, 14.78827
425.4327, 19.07092
425.9148, 20.12140
426.3969, 15.94977
426.8791, 11.21545
427.3612, 10.57538
427.8433, 15.84583
428.3254, 19.25403
428.8075, 18.68457
429.2896, 15.92419
429.7718, 18.69690
430.2539, 28.72418
430.7360, 35.32190
431.2181, 27.89764
431.7002, 8.047913
432.1823, 1.000793
432.6645, 10.31067
433.1466, 24.75385
433.6287, 29.28223
434.1108, 25.35162
434.5929, 19.68170
435.0750, 13.12048
435.5572, 7.485474
436.0393, 7.365234
436.5214, 12.47296
437.0035, 17.02380
437.4856, 14.93579
437.9677, 9.872253
438.4499, 7.275391
438.9320, 10.25494
439.4141, 13.18695
439.8962, 10.74261
440.3783, 5.021240
440.8604, 1.368225
441.3426, 5.580994
441.8247, 9.970520
442.3068, 8.838074
442.7889, 0.4262700
443.2710, 5.549438
443.7531, 0.8303220
444.2353, 11.42328
444.7174, 18.50586
445.1995, 17.22021
445.6816, 16.17072
446.1637, 16.63593
446.6458, 18.89490
447.1280, 20.80359
447.6101, 21.86945
448.0922, 23.12311
448.5743, 25.36798
449.0564, 29.62640
449.5385, 32.45410
450.0207, 34.19269
450.5028, 34.08441
450.9849, 28.93756
451.4670, 16.97266
451.9491, 9.084412
452.4312, 12.06470
452.9134, 24.64868
453.3955, 29.03741
453.8776, 24.22113
454.3597, 17.67163
454.8418, 16.53595
455.3239, 20.20520
455.8061, 24.50909
456.2882, 29.36682
456.7703, 32.19061
457.2524, 26.40247
457.7345, 14.37683
458.2166, 5.698486
458.6988, 8.926941
459.1809, 17.22998
459.6630, 23.07037
460.1451, 25.54041
460.6272, 26.89587
461.1093, 28.15692
461.5915, 29.25763
462.0736, 30.08502
462.5557, 31.36829
463.0378, 31.62518
463.5199, 29.33282
464.0020, 24.99304
464.4842, 22.26172
464.9663, 23.03296
465.4484, 25.08240
465.9305, 27.24182
466.4126, 32.99902
466.8947, 33.45941
467.3769, 24.58191
467.8590, 12.19073
468.3411, 5.773010
468.8232, 7.285583
469.3053, 11.32050
469.7874, 18.41895
470.2696, 28.02393
470.7517, 28.04095
471.2338, 15.59625
471.7159, 2.428711
472.1980, 0.1678470
472.6801, 7.539307
473.1623, 13.49988
473.6444, 15.68634
474.1265, 16.12628
474.6086, 18.74530
475.0907, 23.08636
475.5728, 26.23370
476.0550, 26.35126
476.5371, 24.93628
477.0192, 25.17883
477.5013, 27.23938
477.9834, 27.34314
478.4655, 18.94897
478.9477, 7.957092
479.4298, 2.445190
479.9119, 9.197083
480.3940, 16.34027
480.8761, 16.48590
481.3582, 11.95905
481.8404, 9.430603
482.3225, 13.23706
482.8046, 17.79456
483.2867, 20.59570
483.7688, 21.06683
484.2509, 21.28229
484.7331, 21.88727
485.2152, 22.05792
485.6973, 20.96307
486.1794, 17.87213
486.6615, 14.69849
487.1436, 11.37488
487.6258, 8.140991
488.1079, 6.047974
488.5900, 5.036377
489.0721, 5.385620
489.5542, 8.640686
490.0363, 14.87610
490.5185, 15.04858
491.0006, 7.241577
491.4827, 1.050903
491.9648, 2.784790
492.4470, 16.12964
492.9291, 24.11206
493.4112, 17.68744
493.8933, 6.462769
494.3754, 7.305115
494.8575, 18.25690
495.3397, 26.94073
495.8218, 20.98212
496.3039, 10.61511
496.7860, 8.300598
497.2681, 18.33246
497.7502, 26.52460
498.2324, 22.07300
498.7145, 12.18365
499.1966, 6.587524
499.6787, 14.51550
500.1608, 20.78174
500.6429, 19.92108
501.1251, 12.01837
501.6072, 5.015442
502.0893, 3.829529
502.5714, 9.198303
503.0535, 7.756470
503.5356, 5.217834
504.0178, 14.36023
504.4999, 18.92664
504.9820, 20.22870
505.4641, 19.45581
505.9462, 15.83026
506.4283, 14.49652
506.9105, 18.64020
507.3926, 25.82196
507.8747, 24.51807
508.3568, 14.20624
508.8389, 4.944153
509.3210, 5.876404
509.8032, 13.54205
510.2853, 17.73975
510.7674, 16.35693
511.2495, 15.08887
511.7316, 23.73517
512.2137, 36.63440
512.6959, 42.19196
513.1780, 26.03320
513.6601, 8.945007
514.1422, 6.982300
514.6243, 17.58978
515.1064, 25.39734
515.5886, 20.97229
516.0707, 14.62854
516.5528, 13.15955
517.0349, 21.63153
517.5170, 26.13843
517.9991, 21.78918
518.4813, 14.13806
518.9634, 10.05701
519.4455, 10.45551
519.9276, 13.24719
520.4097, 20.54767
520.8918, 30.44684
521.3740, 28.79474
521.8561, 11.67755
522.3382, 3.877136
522.8203, 5.091431
523.3024, 7.089905
523.7845, 14.90393
524.2667, 17.16174
524.7488, 15.94031
525.2309, 11.85266
525.7130, 6.086792
526.1951, 2.835266
526.6772, 3.917297
527.1594, 7.829712
527.6415, 15.31879
528.1236, 24.96552
528.6057, 30.65375
529.0878, 25.16650
529.5699, 16.75049
530.0521, 12.01172
530.5342, 12.80121
531.0163, 12.54437
531.4984, 5.624512
531.9805, 1.912598
532.4626, 3.319702
532.9448, 10.00146
533.4269, 19.11804
533.9090, 20.40771
534.3911, 16.02087
534.8732, 13.95703
535.3553, 15.66675
535.8375, 16.93188
536.3196, 15.53375
536.8017, 11.26312
537.2838, 8.707581
537.7659, 8.256348
538.2480, 8.162842
538.7302, 5.976685
539.2123, 2.140381
539.6944, 9.0392999E-02
540.1765, 0.2443240
540.6586, 2.012268
541.1407, 4.401978
541.6229, 7.063049
542.1050, 8.786682
542.5871, 7.560852
543.0692, 6.001465
543.5513, 6.687256
544.0334, 9.731750
544.5156, 12.96082
544.9977, 15.40808
545.4798, 17.59265
545.9619, 20.07501
546.4440, 25.79370
546.9261, 27.59442
547.4083, 20.47278
547.8904, 9.594604
548.3725, 4.477112
548.8546, 8.271484
549.3367, 12.59338
549.8188, 15.73645
550.3010, 17.72571
550.7831, 19.02942
551.2652, 19.32550
551.7473, 20.01886
552.2294, 23.80829
552.7115, 29.93170
553.1937, 28.60931
553.6758, 17.27759
554.1579, 5.939514
554.6400, 10.08093
555.1221, 24.62122
555.6042, 34.76184
556.0864, 31.99237
556.5685, 25.95911
557.0506, 28.00128
557.5327, 35.28015
558.0148, 37.15088
558.4969, 21.18799
558.9791, 3.641968
559.4612, 5.332764
559.9433, 3.594299
560.4254, 3.5216998E-02
560.9075, 6.688782
561.3896, 14.03345
561.8718, 19.07202
562.3539, 21.62360
562.8360, 21.94543
563.3181, 18.78131
563.8002, 14.00122
564.2823, 12.63281
564.7645, 15.66101
565.2466, 17.58411
565.7287, 14.81720
566.2108, 9.050049
566.6929, 10.16772
567.1750, 18.48322
567.6572, 26.34680
568.1393, 25.95996
568.6214, 20.65387
569.1035, 17.52319
569.5856, 18.39349
570.0677, 18.45062
570.5499, 11.38019
571.0320, 1.322571
571.5141, 5.218811
571.9962, 3.577454
572.4783, 0.2568360
572.9604, 3.556641
573.4426, 7.430847
573.9247, 9.489441
574.4068, 7.252747
574.8889, 5.099854
575.3710, 4.750183
575.8531, 6.545593
576.3353, 8.510925
576.8174, 11.23486
577.2995, 13.22430
577.7816, 12.79010
578.2637, 9.710144
578.7458, 6.119934
579.2280, 1.536194
579.7101, 1.975708
580.1922, 3.2593001E-02
580.6743, 6.713806
581.1564, 13.87354
581.6385, 20.07684
582.1207, 24.43640
582.6028, 24.72656
583.0849, 21.40759
583.5670, 18.11981
584.0491, 17.96442
584.5313, 18.08710
585.0134, 15.27026
585.4955, 6.711975
585.9776, 2.880188
586.4597, 11.34924
586.9418, 23.89691
587.4240, 31.21619
587.9061, 32.76904
588.3882, 29.31488
588.8703, 17.87958
589.3524, 2.314392
589.8345, 5.972656
590.3167, 5.787292
590.7988, 2.053528
591.2809, 4.687561
591.7630, 13.08594
592.2451, 14.22070
592.7272, 7.786011
593.2094, 1.560486
593.6915, 3.855652
594.1736, 10.59070
594.6557, 13.32495
595.1378, 9.634460
595.6199, 6.253296
596.1021, 9.954834
596.5842, 16.68713
597.0663, 20.68604
597.5485, 16.68439
598.0306, 13.05902
598.5127, 13.02856
598.9948, 15.68359
599.4769, 17.16315
599.9590, 16.17743
600.4412, 15.26001
600.9233, 15.02899
601.4054, 15.44366
601.8875, 17.78809
602.3696, 23.37317
602.8517, 27.61011
603.3339, 25.07574
603.8160, 16.40173
604.2981, 10.86981
604.7802, 9.803589
605.2623, 11.21295
605.7444, 13.54614
606.2266, 16.39893
606.7087, 18.62262
607.1908, 20.59125
607.6729, 21.01196
608.1550, 17.03931
608.6371, 10.35541
609.1193, 6.297058
609.6014, 7.090454
610.0835, 11.00153
610.5656, 19.51276
611.0477, 34.24976
611.5298, 40.64612
612.0120, 33.72327
612.4941, 22.73413
612.9762, 13.43152
613.4583, 5.354919
613.9404, 1.108398
614.4225, 1.850037
614.9047, 4.661560
615.3868, 5.553284
615.8689, 4.637329
616.3510, 3.102356
616.8331, 0.6232910
617.3152, 1.819336
617.7974, 1.306396
618.2795, 1.828430
618.7616, 5.646240
619.2437, 11.48865
619.7258, 15.81122
620.2079, 14.21729
620.6901, 6.613586
621.1722, 2.140869
621.6543, 7.460632
622.1364, 14.50543
622.6185, 17.93066
623.1006, 15.82837
623.5828, 13.68689
624.0649, 11.23346
624.5470, 8.991150
625.0291, 7.129333
625.5112, 5.172424
625.9933, 7.016602
626.4755, 14.61182
626.9576, 23.79633
627.4397, 26.50696
627.9218, 23.23053
628.4039, 17.68494
628.8860, 7.045654
629.3682, 2.735901
629.8503, 1.186890
630.3324, 16.81171
630.8145, 28.04474
631.2966, 20.44556
631.7787, 8.509216
632.2609, 2.591675
632.7430, 5.228882
633.2251, 8.642212
633.7072, 11.06378
634.1893, 13.83893
634.6714, 18.50446
635.1536, 27.77283
635.6357, 32.54108
636.1178, 30.43744
636.5999, 25.29932
637.0820, 25.01147
637.5641, 29.71313
638.0463, 31.99243
638.5284, 28.15369
639.0105, 21.24707
639.4926, 16.17255
639.9747, 13.12549
640.4568, 13.27142
640.9390, 20.43762
641.4211, 29.07922
641.9032, 34.34167
642.3853, 35.86542
642.8674, 35.26331
643.3495, 31.53748
643.8317, 27.13489
644.3138, 23.92645
644.7959, 20.48328
645.2780, 18.57532
645.7601, 19.18567
646.2422, 20.49927
646.7244, 19.98853
647.2065, 16.96844
647.6886, 15.44934
648.1707, 16.95221
648.6528, 20.39508
649.1349, 23.94714
649.6171, 27.25385
650.0992, 28.81219
650.5813, 25.61835
651.0634, 21.72345
651.5455, 23.24243
652.0276, 29.10834
652.5098, 33.50916
652.9919, 33.33167
653.4740, 30.74268
653.9561, 26.54810
654.4382, 20.45026
654.9203, 15.08752
655.4025, 8.693481
655.8846, 4.813171
656.3667, 6.722961
656.8488, 17.70886
657.3309, 24.41840
657.8130, 25.65375
658.2952, 23.95795
658.7773, 23.29523
659.2594, 23.36877
659.7415, 19.92029
660.2236, 9.472473
660.7057, 1.060181
661.1879, 0.2893680
661.6700, 8.724731
662.1521, 17.47766
662.6342, 24.22449
663.1163, 27.33551
663.5984, 22.61755
664.0806, 11.57318
664.5627, 6.051636
665.0448, 15.34387
665.5269, 25.03369
666.0090, 29.00507
666.4911, 26.55927
666.9733, 23.29816
667.4554, 19.18024
667.9375, 14.32947
668.4196, 7.173462
668.9017, 2.036194
669.3839, 3.772949
669.8660, 4.021851
670.3481, 13.55273
670.8302, 15.33533
671.3123, 12.03406
671.7944, 9.352966
672.2766, 9.166992
672.7587, 9.907532
673.2408, 9.639465
673.7229, 9.661377
674.2050, 12.50031
674.6871, 23.84833
675.1693, 32.60144
675.6514, 34.80939
676.1335, 31.81915
676.6156, 30.65472
677.0977, 33.07776
677.5798, 33.18542
678.0620, 26.37305
678.5441, 13.95721
679.0262, 10.90314
679.5083, 17.72833
679.9904, 25.03766
680.4725, 25.14258
680.9547, 20.67218
681.4368, 15.90167
681.9189, 11.31183
682.4010, 6.865295
682.8831, 1.3000000E-02
683.3652, 5.467224
683.8474, 5.183350
684.3295, 7.199768
684.8116, 16.77972
685.2937, 20.47394
685.7758, 20.63489
686.2579, 19.83154
686.7401, 17.56317
687.2222, 15.77173
687.7043, 15.65808
688.1864, 15.84607
688.6685, 11.62158
689.1506, 3.465149
689.6328, 1.796875
690.1149, 0.4819950
690.5970, 6.361511
691.0791, 10.24207
691.5612, 12.45685
692.0433, 14.59375
692.5255, 19.94257
693.0076, 23.61047
693.4897, 20.79694
693.9718, 10.32520
694.4539, 4.380127
694.9360, 9.217896
695.4182, 14.69818
695.9003, 14.78491
696.3824, 7.122742
696.8645, 4.137573
697.3466, 6.319946
697.8287, 11.89417
698.3109, 21.77338
698.7930, 34.27972
699.2751, 40.35602
699.7572, 38.28113
700.2393, 30.84583
700.7214, 14.72681
701.2036, 3.394775
701.6857, 12.71478
702.1678, 0.5503540
702.6499, 10.74280
703.1320, 10.91394
703.6141, 4.132507
704.0963, 0.9755860
704.5784, 4.458801
705.0605, 7.836121
705.5426, 9.546143
706.0247, 10.07391
706.5068, 12.03076
706.9890, 15.77588
707.4711, 18.01141
707.9532, 14.83990
708.4353, 9.341187
708.9174, 11.87726
709.3995, 21.76880
709.8817, 30.72870
710.3638, 33.50879
710.8459, 32.47888
711.3280, 28.83441
711.8101, 22.33148
712.2922, 16.69312
712.7744, 8.984558
713.2565, 5.554016
713.7386, 11.71838
714.2207, 35.92267
714.7028, 47.01398
715.1849, 41.42651
715.6671, 29.07928
716.1492, 19.19379
716.6313, 11.94617
717.1134, 9.332397
717.5955, 12.87231
718.0776, 17.42474
718.5598, 14.93414
719.0419, 9.105774
719.5240, 7.117004
720.0061, 15.15240
720.4882, 23.13507
720.9703, 27.18719
721.4525, 27.80548
721.9346, 26.11511
722.4167, 19.47845
722.8988, 14.09833
723.3809, 10.81274
723.8630, 9.666809
724.3452, 11.45819
724.8273, 16.61334
725.3094, 21.53040
725.7915, 23.58478
726.2736, 24.49066
726.7557, 31.10846
727.2379, 42.26678
727.7200, 48.37708
728.2021, 35.60333
728.6842, 20.08905
729.1663, 16.70758
729.6484, 27.10754
730.1306, 34.55804
730.6127, 32.29553
731.0948, 27.34595
731.5769, 23.40778
732.0590, 20.47424
732.5411, 18.54163
733.0233, 17.81903
733.5054, 17.62915
733.9875, 16.37048
734.4696, 14.66815
734.9517, 19.24994
735.4338, 31.79749
735.9160, 40.97571
736.3981, 29.94916
736.8802, 10.69568
737.3623, 1.922058
737.8444, 15.72064
738.3266, 26.74390
738.8087, 19.54559
739.2908, 5.790161
739.7729, 3.256226
740.2551, 23.43713
740.7372, 34.48438
741.2193, 29.21277
741.7014, 15.71814
742.1835, 10.84912
742.6656, 14.50256
743.1478, 19.36572
743.6299, 24.82086
744.1120, 28.07562
744.5941, 20.63940
745.0762, 6.680969
745.5583, 1.083130
746.0405, 9.194763
746.5226, 22.31885
747.0047, 31.59155
747.4868, 36.79932
747.9689, 37.99359
748.4510, 31.62817
748.9332, 25.76245
749.4153, 22.99518
749.8974, 23.08301
750.3795, 23.31537
750.8616, 23.54144
751.3438, 23.33020
751.8259, 21.74384
752.3080, 19.99396
752.7901, 20.70258
753.2722, 23.83228
753.7543, 27.46582
754.2365, 32.39911
754.7186, 35.88135
755.2007, 35.62549
755.6828, 31.14606
756.1649, 24.22144
756.6470, 8.643066
757.1292, 3.619141
757.6113, 4.226685
758.0934, 10.19788
758.5755, 21.72296
759.0576, 30.69098
759.5397, 34.88654
760.0219, 31.61902
760.5040, 22.55743
760.9861, 14.44110
761.4682, 8.008667
761.9503, 4.758240
762.4324, 9.478882
762.9146, 16.50385
763.3967, 19.02545
763.8788, 12.31036
764.3609, 6.033325
764.8430, 0.1216430
765.3251, 3.596313
765.8073, 2.362854
766.2894, 5.325562
766.7715, 12.39746
767.2536, 18.54980
767.7357, 22.37885
768.2178, 19.02686
768.7000, 10.14771
769.1821, 6.452576
769.6642, 14.45770
770.1463, 23.65601
770.6284, 24.28345
771.1105, 19.65338
771.5927, 16.56995
772.0748, 19.26703
772.5569, 21.03931
773.0390, 17.97900
773.5211, 13.44690
774.0032, 18.23645
774.4854, 37.11523
774.9675, 46.68921
775.4496, 36.40228
775.9317, 15.45721
776.4138, 7.091614
776.8959, 9.523071
777.3781, 12.67175
777.8602, 9.915588
778.3423, 6.837708
778.8244, 8.681213
779.3065, 14.35376
779.7886, 18.74115
780.2708, 16.66357
780.7529, 17.07727
781.2350, 25.15759
781.7171, 39.39148
782.1992, 45.06250
782.6813, 40.97070
783.1635, 32.77637
783.6456, 20.55121
784.1277, 6.867615
784.6098, 2.5146000E-02
785.0919, 0.3917240
785.5740, 2.626221
786.0562, 10.54199
786.5383, 18.42004
787.0204, 21.72760
787.5025, 20.24463
787.9846, 18.16248
788.4667, 14.89642
788.9489, 12.87036
789.4310, 13.92828
789.9131, 18.42499
790.3952, 18.84692
790.8773, 14.66492
791.3594, 8.858582
791.8416, 1.148438
792.3237, 6.126953
792.8058, 5.238403
793.2879, 4.060242
793.7700, 13.65656
794.2521, 18.02502
794.7343, 20.24707
795.2164, 22.92249
795.6985, 26.87976
796.1806, 28.99481
796.6627, 28.06158
797.1448, 26.35339
797.6270, 25.30237
798.1091, 25.02936
798.5912, 24.49713
799.0733, 23.75305
799.5554, 22.42358
800.0375, 19.57520
800.5197, 16.05371
801.0018, 13.09888
801.4839, 10.73871
801.9660, 10.38953
802.4481, 13.35010
802.9302, 18.39941
803.4124, 25.26056
803.8945, 38.68732
804.3766, 42.40405
804.8587, 31.48895
805.3408, 17.35278
805.8229, 11.15900
806.3051, 12.86237
806.7872, 10.94751
807.2693, 3.784912
807.7514, 3.014221
808.2335, 4.803406
808.7156, 1.822510
809.1978, 6.136292
809.6799, 22.35773
810.1620, 34.71765
810.6441, 35.89935
811.1262, 32.05896
811.6083, 29.09619
812.0905, 27.06232
812.5726, 26.65503
813.0547, 29.00012
813.5368, 30.83649
814.0189, 26.71991
814.5010, 18.05884
814.9832, 13.60889
815.4653, 15.90332
815.9474, 18.90063
816.4295, 15.42450
816.9116, 9.318359
817.3937, 5.228760
817.8759, 3.594849
818.3580, 5.130371
818.8401, 14.18109
819.3222, 23.78967
819.8043, 26.90369
820.2864, 21.79834
820.7686, 18.09839
821.2507, 16.76624
821.7328, 16.71460
822.2149, 16.50116
822.6970, 16.46936
823.1791, 18.13922
823.6613, 23.71234
824.1434, 26.28571
824.6255, 15.76184
825.1076, 1.914307
825.5897, 4.220825
826.0718, 10.10455
826.5540, 16.24591
827.0361, 10.65112
827.5182, 0.9495240
828.0003, 4.231567
828.4824, 4.891907
828.9645, 3.673157
829.4467, 0.5520020
829.9288, 2.692139
830.4109, 2.850464
830.8930, 2.157959
831.3751, 4.607666
831.8572, 13.59753
832.3394, 20.28845
832.8215, 19.59692
833.3036, 16.14691
833.7857, 15.63837
834.2678, 20.72223
834.7499, 19.91779
835.2321, 10.07831
835.7142, 3.3325002E-02
836.1963, 3.324585
836.6784, 16.10071
837.1605, 23.02698
837.6426, 20.44208
838.1248, 14.98047
838.6069, 8.261597
839.0890, 3.149536
839.5711, 3.364624
840.0532, 15.32220
840.5353, 21.96039
841.0175, 19.27771
841.4996, 14.14716
841.9817, 14.50366
842.4638, 20.64868
842.9459, 21.85596
843.4280, 16.54852
843.9102, 9.870728
844.3923, 5.293884
844.8744, 3.952393
845.3565, 9.646545
845.8386, 26.65210
846.3207, 37.34271
846.8029, 26.60339
847.2850, 11.54736
847.7671, 8.060181
848.2492, 24.02417
848.7313, 29.30011
849.2134, 20.24310
849.6956, 9.657593
850.1777, 13.25989
850.6598, 26.31989
851.1419, 29.53790
851.6240, 19.29993
852.1061, 7.786987
852.5883, 1.846069
853.0704, 0.3693850
853.5525, 2.661865
854.0346, 9.641785
854.5167, 18.47150
854.9988, 32.39709
855.4810, 41.39923
855.9631, 38.27179
856.4452, 22.72241
856.9273, 14.35126
857.4094, 14.23639
857.8915, 15.48914
858.3737, 12.02405
858.8558, 6.992371
859.3379, 4.260620
859.8200, 4.366333
860.3021, 5.854980
860.7842, 10.13959
861.2664, 13.94013
861.7485, 15.51349
862.2306, 14.78540
862.7127, 12.03815
863.1948, 6.530884
863.6769, 2.175781
864.1591, 3.502441
864.6412, 7.618774
865.1233, 6.101868
865.6054, 0.9678340
866.0875, 5.248596
866.5696, 2.617859
867.0518, 11.65265
867.5339, 12.60193
868.0160, 4.451965
868.4981, 6.009644
868.9802, 24.15820
869.4623, 37.43457
869.9445, 32.88458
870.4266, 15.30908
870.9087, 7.126160
871.3908, 7.581299
871.8729, 9.595154
872.3550, 9.698792
872.8372, 8.802185
873.3193, 7.274841
873.8014, 5.292725
874.2835, 3.716431
874.7656, 0.2880860
875.2477, 0.1512450
875.7299, 8.775269
876.2120, 22.74738
876.6941, 31.92957
877.1762, 36.31006
877.6583, 35.76868
878.1404, 27.27002
878.6226, 16.88666
879.1047, 12.56012
879.5869, 12.86499
880.0690, 14.01697
880.5511, 14.17065
881.0332, 15.53198
881.5153, 21.15472
881.9974, 27.63251
882.4796, 26.21118
882.9617, 14.25269
883.4438, 10.13336
883.9259, 22.09613
884.4080, 37.78326
884.8901, 36.26752
885.3723, 23.60352
885.8544, 13.73737
886.3365, 12.68915
886.8186, 14.46735
887.3007, 18.31470
887.7828, 22.74634
888.2650, 25.77045
888.7471, 27.27722
889.2292, 27.09680
889.7113, 24.25378
890.1934, 21.83917
890.6755, 26.41058
891.1577, 34.77686
891.6398, 36.06488
892.1219, 27.00903
892.6040, 17.18835
893.0861, 10.71338
893.5682, 8.096741
894.0504, 11.29248
894.5325, 26.30981
895.0146, 31.39038
895.4967, 21.22675
895.9788, 10.10712
896.4609, 13.23779
896.9431, 27.49384
897.4252, 32.12012
897.9073, 25.93890
898.3894, 17.79547
898.8715, 10.68762
899.3536, 7.101929
899.8358, 10.85748
900.3179, 23.04138
900.8000, 31.67072
901.2821, 36.24493
901.7642, 35.98468
902.2463, 27.97235
902.7285, 14.20251
903.2106, 10.69556
903.6927, 17.06903
904.1748, 22.80719
904.6569, 18.83710
905.1390, 13.10461
905.6212, 15.55005
906.1033, 23.87689
906.5854, 27.65009
907.0675, 17.36932
907.5496, 10.16028
908.0317, 10.89728
908.5139, 17.11493
908.9960, 22.35602
909.4781, 26.59503
909.9602, 27.76642
910.4423, 25.08209
910.9244, 19.04669
911.4066, 4.763245
911.8887, 11.33868
912.3708, 17.52570
912.8529, 4.179993
913.3350, 18.18091
913.8171, 13.70392
914.2993, 1.814758
914.7814, 2.994385
915.2635, 0.1871950
915.7456, 2.597595
916.2277, 4.242615
916.7098, 5.852234
917.1920, 7.529358
917.6741, 10.41809
918.1562, 17.70331
918.6383, 32.93713
919.1204, 41.57849
919.6025, 32.16125
920.0847, 20.34027
920.5668, 17.44421
921.0489, 25.59296
921.5310, 25.69867
922.0131, 16.58020
922.4952, 9.537354
922.9774, 18.48895
923.4595, 32.85297
923.9416, 35.47791
924.4237, 26.96277
924.9058, 20.38373
925.3879, 21.36011
925.8701, 24.61847
926.3522, 29.66333
926.8343, 35.88831
927.3164, 34.13116
927.7985, 23.12659
928.2806, 15.99884
928.7628, 22.22949
929.2449, 32.58063
929.7270, 31.87244
930.2091, 23.29224
930.6912, 15.45734
931.1733, 10.53796
931.6555, 8.565369
932.1376, 11.81384
932.6197, 17.00452
933.1018, 18.30597
933.5839, 14.87042
934.0660, 14.53815
934.5482, 19.39331
935.0303, 25.72473
935.5124, 29.98059
935.9945, 32.04425
936.4766, 31.56281
936.9587, 27.86975
937.4409, 23.33960
937.9230, 17.61145
938.4051, 12.14838
938.8872, 7.642090
939.3693, 3.595703
939.8514, 3.416321
940.3336, 7.254517
940.8157, 13.84509
941.2978, 26.54993
941.7799, 39.19849
942.2620, 41.22150
942.7441, 32.61938
943.2263, 24.48425
943.7084, 21.63843
944.1905, 19.66962
944.6726, 16.22211
945.1547, 11.97913
945.6368, 12.14606
946.1190, 17.06232
946.6011, 20.59381
947.0832, 18.95532
947.5653, 15.61078
948.0474, 14.74628
948.5295, 15.85400
949.0117, 17.75232
949.4938, 23.72852
949.9759, 25.50201
950.4580, 19.88611
950.9401, 10.75745
951.4222, 3.161865
951.9044, 2.972290
952.3865, 5.908569
952.8686, 5.432678
953.3507, 1.414185
953.8328, 11.68756
954.3149, 25.85248
954.7971, 29.61499
955.2792, 17.11475
955.7613, 8.140686
956.2434, 6.802673
956.7255, 8.438782
957.2076, 11.44763
957.6898, 15.69458
958.1719, 14.80640
958.6540, 8.879211
959.1361, 4.799194
959.6182, 9.178040
960.1003, 16.06696
960.5825, 21.36298
961.0646, 24.61066
961.5467, 24.25714
962.0288, 16.15228
962.5109, 10.36932
962.9930, 9.540771
963.4752, 12.32019
963.9573, 17.06812
964.4394, 23.02655
964.9215, 25.48297
965.4036, 21.59082
965.8857, 16.30725
966.3679, 11.05286
966.8500, 7.879517
967.3321, 9.760315
967.8142, 21.78021
968.2963, 30.50891
968.7784, 36.19861
969.2606, 37.82947
969.7427, 31.06921
970.2248, 18.85980
970.7069, 11.34375
971.1890, 8.107178
971.6711, 9.743164
972.1533, 23.49438
972.6354, 36.38525
973.1175, 39.27649
973.5996, 31.88129
974.0817, 23.65833
974.5638, 13.69775
975.0460, 6.092957
975.5281, 2.252563
976.0102, 2.039185
976.4923, 7.598816
976.9744, 16.65558
977.4565, 22.52625
977.9387, 18.74115
978.4208, 15.43402
978.9029, 18.46112
979.3850, 22.83527
979.8671, 21.25793
980.3492, 12.45520
980.8314, 5.040649
981.3135, 8.3374001E-02
981.7956, 3.632263
982.2777, 7.953308
982.7598, 10.59125
983.2419, 6.209595
983.7241, 7.285950
984.2062, 16.35608
984.6883, 12.01495
985.1704, 7.365173
985.6525, 8.950195
986.1346, 15.85345
986.6168, 17.77222
987.0989, 14.85406
987.5810, 11.72815
988.0631, 11.68182
988.5452, 12.11279
989.0273, 9.250671
989.5095, 4.955444
989.9916, 4.185059
990.4737, 12.62183
990.9558, 16.98907
991.4379, 14.65576
991.9200, 9.153687
992.4022, 3.873901
992.8843, 0.1464230
993.3664, 3.328857
993.8485, 16.97864
994.3306, 28.14478
994.8127, 23.52478
995.2949, 15.66815
995.7770, 17.16858
996.2591, 30.92896
996.7412, 35.82703
997.2233, 30.05939
997.7054, 21.84015
998.1876, 13.97229
998.6697, 8.030640
999.1518, 9.283630
999.6339, 15.95990
1000.116, 20.87964
1000.598, 4.531189
1001.080, 16.69000
1001.562, 23.48401
1002.044, 25.20209
1002.527, 6.639038
1003.009, 14.26508
1003.491, 11.39612
1003.973, 8.734436
1004.455, 21.32196
1004.937, 6.081665
1005.419, 17.16272
1005.901, 17.58832
1006.384, 22.89081
1006.866, 23.18262
1007.348, 24.87054
1007.830, 24.01935
1008.312, 17.42725
1008.794, 7.142700
1009.276, 6.760437
1009.758, 15.06720
1010.240, 23.20013
1010.723, 27.22675
1011.205, 28.87921
1011.687, 27.33209
1012.169, 24.40320
1012.651, 24.19702
1013.133, 27.43787
1013.615, 28.05316
1014.097, 24.24927
1014.580, 19.66528
1015.062, 19.43726
1015.544, 22.07770
1016.026, 25.54846
1016.508, 30.09216
1016.990, 31.54297
1017.472, 24.00616
1017.954, 16.87677
1018.436, 16.35016
1018.919, 21.97089
1019.401, 22.91205
1019.883, 19.16113
1020.365, 15.77362
1020.847, 14.99359
1021.329, 16.51880
1021.811, 22.56348
1022.293, 30.50269
1022.776, 33.84912
1023.258, 26.85962
1023.740, 22.70819
1024.222, 23.02808
1024.704, 26.01324
1025.186, 31.16479
1025.668, 36.94922
1026.150, 36.91388
1026.632, 29.74573
1027.115, 22.88696
1027.597, 20.27936
1028.079, 20.02905
1028.561, 20.24963
1029.043, 20.97803
1029.525, 29.03314
1030.007, 45.99030
1030.489, 55.85217
1030.972, 47.18890
1031.454, 31.90790
1031.936, 26.81122
1032.418, 27.83008
1032.900, 26.31604
1033.382, 14.09399
1033.864, 7.170166
1034.346, 8.906006
1034.828, 13.85071
1035.311, 15.72559
1035.793, 15.18701
1036.275, 16.66266
1036.757, 20.53101
1037.239, 24.76642
1037.721, 29.46124
1038.203, 32.98224
1038.685, 32.89465
1039.167, 29.49286
1039.650, 27.35168
1040.132, 25.59137
1040.614, 28.54498
1041.096, 40.70496
1041.578, 54.58350
1042.060, 58.59448
1042.542, 54.82159
1043.024, 46.42432
1043.507, 29.00549
1043.989, 18.05487
1044.471, 19.03717
1044.953, 23.90125
1045.435, 27.24445
1045.917, 29.06219
1046.399, 29.25397
1046.881, 27.83850
1047.364, 25.27045
1047.846, 21.46515
1048.328, 16.95734
1048.810, 10.27557
1049.292, 3.082642
1049.774, 2.091736
1050.256, 9.555725
1050.738, 15.43561
1051.220, 17.76398
1051.703, 17.69543
1052.185, 15.66931
1052.667, 12.77356
1053.149, 10.52795
1053.631, 8.872314
1054.113, 9.718933
1054.595, 17.46881
1055.077, 23.32532
1055.559, 22.07593
1056.042, 14.87500
1056.524, 7.730347
1057.006, 1.247559
1057.488, 0.1227420
1057.970, 12.13336
1058.452, 24.91040
1058.934, 32.96631
1059.416, 35.72174
1059.899, 32.22479
1060.381, 20.91174
1060.863, 7.588684
1061.345, 9.297058
1061.827, 19.43842
1062.309, 5.044556
1062.791, 19.26715
1063.273, 31.70398
1063.755, 30.58838
1064.238, 26.27820
1064.720, 15.37659
1065.202, 10.21582
1065.684, 16.64185
1066.166, 29.71851
1066.648, 35.95874
1067.130, 36.24866
1067.612, 35.60114
1068.094, 37.14984
1068.577, 34.30823
1069.059, 14.84625
1069.541, 5.253418
1070.023, 9.660339
1070.505, 5.266052
1070.987, 15.63611
1071.469, 21.55920
1071.951, 24.05402
1072.434, 20.77142
1072.916, 17.02057
1073.398, 20.43420
1073.880, 28.94629
1074.362, 35.04797
1074.844, 37.61353
1075.326, 36.53198
1075.808, 30.07404
1076.291, 22.96051
1076.773, 23.50122
1077.255, 28.91638
1077.737, 29.55731
1078.219, 23.15228
1078.701, 17.65619
1079.183, 17.67297
1079.665, 18.84241
1080.147, 18.83148
1080.630, 17.96741
1081.112, 18.83197
1081.594, 21.30829
1082.076, 21.10297
1082.558, 13.23828
1083.040, 8.558044
1083.522, 22.40137
1084.004, 42.80762
1084.486, 53.43976
1084.969, 50.70343
1085.451, 43.32159
1085.933, 29.65082
1086.415, 17.74622
1086.897, 15.03406
1087.379, 17.59985
1087.861, 19.81335
1088.343, 21.28204
1088.826, 21.32990
1089.308, 16.12531
1089.790, 14.71191
1090.272, 20.42719
1090.754, 28.41687
1091.236, 30.48132
1091.718, 27.97809
1092.200, 26.98901
1092.682, 28.42047
1093.165, 31.23517
1093.647, 41.29407
1094.129, 46.31390
1094.611, 35.25348
1095.093, 11.40912
1095.575, 2.473145
1096.057, 6.136292
1096.539, 6.175598
1097.022, 4.734009
1097.504, 1.219543
1097.986, 6.905701
1098.468, 16.69513
1098.950, 24.41223
1099.432, 31.39575
1099.914, 29.34387
1100.396, 14.86694
1100.879, 2.457092
1101.361, 6.007813
1101.843, 17.29413
1102.325, 20.56384
1102.807, 17.26868
1103.289, 13.41516
1103.771, 9.868347
1104.253, 7.784851
1104.735, 6.941772
1105.218, 7.938660
1105.700, 12.92041
1106.182, 20.72766
1106.664, 25.47473
1107.146, 26.53192
1107.628, 26.25214
1108.110, 23.00055
1108.592, 22.07996
1109.074, 29.50800
1109.557, 41.59613
1110.039, 41.21106
1110.521, 28.14069
1111.003, 19.47137
1111.485, 21.25024
1111.967, 26.13910
1112.449, 29.67804
1112.931, 30.45679
1113.414, 25.33356
1113.896, 11.86450
1114.378, 4.750793
1114.860, 4.629822
1115.342, 8.169189
1115.824, 16.94824
1116.306, 25.39026
1116.788, 20.81146
1117.271, 9.432861
1117.753, 5.102661
1118.235, 20.45612
1118.717, 30.82092
1119.199, 33.25952
1119.681, 31.34344
1120.163, 29.08124
1120.645, 26.47211
1121.127, 24.16797
1121.609, 22.40283
1122.092, 22.73334
1122.574, 28.74420
1123.056, 34.65887
1123.538, 35.53827
1124.020, 34.46594
1124.502, 37.55786
1124.984, 43.98126
1125.466, 45.93695
1125.949, 41.51764
1126.431, 36.84338
1126.913, 39.79706
1127.395, 40.51233
1127.877, 28.83746
1128.359, 8.255188
1128.841, 0.2046510
1129.323, 4.020020
1129.806, 10.59186
1130.288, 17.25696
1130.770, 21.49054
1131.252, 17.88293
1131.734, 11.60858
1132.216, 10.19891
1132.698, 17.30859
1133.180, 18.11401
1133.662, 11.21161
1134.145, 3.757568
1134.627, 3.741882
1135.109, 6.349792
1135.591, 10.98352
1136.073, 39.85382
1136.555, 55.87262
1137.037, 42.24377
1137.519, 31.75354
1138.001, 26.44208
1138.484, 24.56665
1138.966, 25.51941
1139.448, 27.95361
1139.930, 28.01697
1140.412, 25.74341
1140.894, 23.48541
1141.376, 20.68481
1141.858, 20.28546
1142.341, 24.94427
1142.823, 30.79059
1143.305, 32.25958
1143.787, 30.10266
1144.269, 23.66406
1144.751, 12.10614
1145.233, 4.613525
1145.715, 8.369324
1146.198, 16.00629
1146.680, 24.76007
1147.162, 33.60260
1147.644, 35.82703
1148.126, 32.12372
1148.608, 32.29706
1149.090, 41.81281
1149.572, 50.12933
1150.054, 48.08850
1150.536, 42.28192
1151.019, 38.89227
1151.501, 38.28516
1151.983, 38.17548
1152.465, 38.76331
1152.947, 36.35840
1153.429, 23.43921
1153.911, 11.47986
1154.393, 16.45837
1154.876, 28.80017
1155.358, 30.40808
1155.840, 13.33783
1156.322, 7.426636
1156.804, 14.82043
1157.286, 24.48260
1157.768, 28.01447
1158.250, 28.35876
1158.733, 27.81897
1159.215, 27.21161
1159.697, 29.25555
1160.179, 37.81531
1160.661, 41.05005
1161.143, 36.78589
1161.625, 29.18011
1162.107, 20.20581
1162.589, 12.42035
1163.072, 10.93781
1163.554, 15.80176
1164.036, 21.70526
1164.518, 30.66003
1165.000, 34.29205
1165.482, 28.37836
1165.964, 19.68201
1166.446, 22.52155
1166.928, 31.66022
1167.411, 35.53223
1167.893, 31.68988
1168.375, 24.60278
1168.857, 7.745728
1169.339, 1.467041
1169.821, 6.993286
1170.303, 25.46954
1170.785, 32.35834
1171.268, 30.03992
1171.750, 25.93073
1172.232, 20.45819
1172.714, 18.40552
1173.196, 26.30341
1173.678, 33.73334
1174.160, 32.94165
1174.642, 25.93024
1175.125, 27.32587
1175.607, 35.48322
1176.089, 41.39734
1176.571, 40.71930
1177.053, 36.96533
1177.535, 27.49030
1178.017, 18.84161
1178.499, 19.88373
1178.981, 30.36615
1179.464, 23.33350
1179.946, 2.6550001E-02
1180.428, 16.16644
1180.910, 1.829895
1181.392, 14.38513
1181.874, 14.84906
1182.356, 8.791565
1182.838, 11.23517
1183.320, 22.60547
1183.803, 30.68695
1184.285, 34.53754
1184.767, 34.92133
1185.249, 29.99799
1185.731, 24.18909
1186.213, 20.72058
1186.695, 18.69080
1187.177, 15.11206
1187.660, 9.584290
1188.142, 8.849792
1188.624, 14.74164
1189.106, 19.56555
1189.588, 13.63275
1190.070, 6.205627
1190.552, 5.665649
1191.034, 10.97345
1191.516, 15.52734
1191.999, 19.74408
1192.481, 16.75299
1192.963, 2.169128
1193.445, 8.424927
1193.927, 8.281555
1194.409, 29.98853
1194.891, 30.19202
1195.373, 6.748413
1195.855, 0.4667970
1196.338, 10.28003
1196.820, 22.43011
1197.302, 31.37750
1197.784, 35.23615
1198.266, 28.92639
1198.748, 17.17291
1199.230, 4.990051
1199.712, 9.080139
1200.195, 7.242798
1200.677, 13.04871
1201.159, 31.48456
1201.641, 36.88312
1202.123, 35.23676
1202.605, 29.13580
1203.087, 22.12805
1203.569, 20.76837
1204.052, 29.48999
1204.534, 31.80780
1205.016, 27.13251
1205.498, 19.69672
1205.980, 8.098999
1206.462, 1.247131
1206.944, 0.6193240
1207.426, 10.17542
1207.908, 20.20929
1208.391, 34.32501
1208.873, 34.72742
1209.355, 18.24585
1209.837, 1.140076
1210.319, 2.543518
1210.801, 0.5576170
1211.283, 3.764893
1211.765, 7.375549
1212.247, 13.89362
1212.730, 25.94647
1213.212, 32.57916
1213.694, 32.14172
1214.176, 28.49622
1214.658, 23.36523
1215.140, 18.59534
1215.622, 17.20624
1216.104, 18.46912
1216.587, 17.04059
1217.069, 10.77533
1217.551, 8.610535
1218.033, 12.65417
1218.515, 18.24164
1218.997, 19.74200
1219.479, 20.21545
1219.961, 24.18402
1220.443, 31.39795
1220.926, 33.94110
1221.408, 29.97766
1221.890, 27.84949
1222.372, 29.99646
1222.854, 32.81964
1223.336, 30.93311
1223.818, 27.98767
1224.300, 30.15277
1224.782, 38.15112
1225.265, 34.92267
1225.747, 17.00616
1226.229, 4.741150
1226.711, 5.513184
1227.193, 11.00812
1227.675, 13.84106
1228.157, 14.76550
1228.639, 13.41486
1229.122, 9.357361
1229.604, 15.06268
1230.086, 32.68646
1230.568, 42.72858
1231.050, 35.44910
1231.532, 22.51923
1232.014, 12.58221
1232.496, 7.476807
1232.979, 11.96790
1233.461, 28.20966
1233.943, 31.41772
1234.425, 19.89728
1234.907, 12.52618
1235.389, 22.02728
1235.871, 33.23669
1236.353, 30.61847
1236.835, 20.98077
1237.318, 12.01666
1237.800, 3.017334
1238.282, 3.120728
1238.764, 14.78741
1239.246, 25.25623
1239.728, 26.40698
1240.210, 24.66943
1240.692, 23.81165
1241.175, 24.15302
1241.657, 26.44196
1242.139, 31.34406
1242.621, 33.58282
1243.103, 33.17236
1243.585, 31.82391
1244.067, 29.47223
1244.549, 27.76422
1245.031, 28.59833
1245.514, 30.32690
1245.996, 31.45416
1246.478, 32.39355
1246.960, 24.64667
1247.442, 8.735535
1247.924, 1.771606
1248.406, 8.779480
1248.888, 19.73077
1249.370, 15.59613
1249.853, 7.449646
1250.335, 11.32007
1250.817, 27.73694
1251.299, 34.28717
1251.781, 30.78375
1252.263, 25.14679
1252.745, 19.65894
1253.227, 15.65356
1253.710, 18.16949
1254.192, 21.40820
1254.674, 13.68689
1255.156, 2.287781
1255.638, 5.443054
1256.120, 4.512329
1256.602, 15.11359
1257.084, 24.74725
1257.567, 27.30933
1258.049, 17.28870
1258.531, 4.088135
1259.013, 3.619568
1259.495, 11.94733
1259.977, 15.78119
1260.459, 2.705505
1260.941, 15.53296
1261.423, 22.99500
1261.906, 25.38245
1262.388, 7.486145
1262.870, 15.77869
1263.352, 13.57556
1263.834, 10.94147
1264.316, 22.91895
1264.798, 7.970764
1265.280, 19.71600
1265.762, 20.80524
1266.245, 26.77307
1266.727, 22.16797
1267.209, 20.83759
1267.691, 30.07111
1268.173, 33.45038
1268.655, 27.63214
1269.137, 27.30664
1269.619, 27.87463
1270.102, 24.59369
1270.584, 22.83954
1271.066, 24.04791
1271.548, 26.03632
1272.030, 27.89154
1272.512, 27.70886
1272.994, 21.07623
1273.476, 8.620605
1273.958, 2.541199
1274.441, 3.502075
1274.923, 10.14392
1275.405, 23.63464
1275.887, 35.89471
1276.369, 36.53235
1276.851, 33.42340
1277.333, 33.86816
1277.815, 38.01044
1278.297, 40.11896
1278.780, 40.20959
1279.262, 36.79462
1279.744, 28.61475
1280.226, 22.73804
1280.708, 29.69403
1281.190, 35.35248
1281.672, 29.89624
1282.154, 17.00604
1282.637, 15.03448
1283.119, 22.80908
1283.601, 29.87158
1284.083, 34.50635
1284.565, 34.93500
1285.047, 27.88123
1285.529, 18.34015
1286.011, 7.433411
1286.494, 2.908203
1286.976, 6.214539
1287.458, 3.990234
1287.940, 1.062744
1288.422, 1.568176
1288.904, 5.018188
1289.386, 10.26141
1289.868, 15.92017
1290.350, 22.34296
1290.833, 27.71814
1291.315, 25.45215
1291.797, 20.30975
1292.279, 23.58643
1292.761, 39.07355
1293.243, 46.16736
1293.725, 40.27142
1294.207, 32.89868
1294.689, 27.37524
1295.172, 22.92615
1295.654, 17.10028
1296.136, 12.38904
1296.618, 12.33417
1297.100, 16.39050
1297.582, 19.40527
1298.064, 18.43884
1298.546, 14.34161
1299.029, 6.024109
1299.511, 0.5562130
1299.993, 3.236145
1300.475, 10.08978
1300.957, 12.71399
1301.439, 11.50415
1301.921, 10.75110
1302.403, 10.53131
1302.885, 11.57690
1303.368, 14.20874
1303.850, 17.61444
1304.332, 25.39246
1304.814, 28.53937
1305.296, 19.55798
1305.778, 3.983459
1306.260, 0.0000000E+00
##END=



