##NAMES=Calcioburbankite
##RRUFFID=R140485
##IDEAL CHEMISTRY=Na_3_(Ca,Ce^3+^,Sr,La)_3_(CO_3_)_5_
##LOCALITY=Eboundja, Kribi, South Region, Cameroon
##OWNER=RRUFF
##SOURCE=Rock Currier
##DESCRIPTION=Pink massive
##STATUS=The identification of this mineral is confirmed by single-crystal X-ray diffraction and chemical analysis.
##URL=rruff.info/R140485
##MEASURED CHEMISTRY=(Na_2.89_K_0.02_)(Ca_1.14_Ce_0.61_La_0.39_Sr_0.23_Nd_0.15_Pr_0.06_)(CO_3_)_5_ ; The dark mineral is analcime.
87.58203, 0.0000000E+00
88.06415, 31.25842
88.54626, 4.496582
89.02838, 29.97961
89.51050, 83.08850
89.99261, 137.7975
90.47473, 191.6542
90.95685, 244.5601
91.43896, 295.0835
91.92108, 343.2021
92.40320, 396.9377
92.88531, 432.9540
93.36743, 431.6951
93.84955, 398.9868
94.33167, 367.9888
94.81378, 331.0986
95.29590, 296.8234
95.77802, 266.1161
96.26013, 241.2622
96.74225, 223.0421
97.22437, 210.5131
97.70648, 201.6779
98.18860, 195.0052
98.67072, 192.6707
99.15283, 198.2987
99.63495, 211.2113
100.1171, 224.5118
100.5992, 227.2316
101.0813, 209.8313
101.5634, 204.2131
102.0455, 215.1510
102.5277, 232.8301
103.0098, 251.0035
103.4919, 266.9413
103.9740, 280.3689
104.4561, 290.0930
104.9382, 287.4998
105.4204, 290.3214
105.9025, 305.6703
106.3846, 327.6553
106.8667, 343.5251
107.3488, 344.3392
107.8309, 334.4921
108.3131, 340.3883
108.7952, 376.4171
109.2773, 413.5116
109.7594, 433.2454
110.2415, 435.2805
110.7236, 434.3364
111.2058, 439.8701
111.6879, 450.8414
112.1700, 466.9534
112.6521, 493.6567
113.1342, 523.3062
113.6163, 542.8314
114.0985, 547.9014
114.5806, 553.1384
115.0627, 569.0609
115.5448, 592.2983
116.0269, 613.5105
116.5090, 625.5570
116.9912, 629.3434
117.4733, 635.5006
117.9554, 647.0024
118.4375, 658.1172
118.9196, 664.5009
119.4017, 668.8037
119.8839, 675.6034
120.3660, 690.9318
120.8481, 721.2144
121.3302, 737.4407
121.8123, 731.1052
122.2944, 721.2876
122.7766, 720.6096
123.2587, 731.2509
123.7408, 746.8171
124.2229, 756.2625
124.7050, 748.9459
125.1871, 751.4951
125.6693, 774.5593
126.1514, 804.5474
126.6335, 823.1812
127.1156, 821.7791
127.5977, 808.0156
128.0798, 804.6923
128.5620, 815.3176
129.0441, 827.0042
129.5262, 836.5166
130.0083, 845.7997
130.4904, 859.7848
130.9725, 869.3831
131.4547, 874.4050
131.9368, 889.6879
132.4189, 918.0328
132.9010, 945.6674
133.3831, 960.1493
133.8652, 962.8403
134.3474, 971.1703
134.8295, 988.4897
135.3116, 1003.432
135.7937, 1016.803
136.2758, 1023.422
136.7579, 1025.761
137.2401, 1032.429
137.7222, 1046.795
138.2043, 1056.875
138.6864, 1059.616
139.1685, 1054.190
139.6507, 1041.303
140.1328, 1019.779
140.6149, 986.0328
141.0970, 955.1606
141.5791, 947.5922
142.0612, 935.2239
142.5434, 910.9299
143.0255, 880.4531
143.5076, 849.4294
143.9897, 823.2683
144.4718, 803.4517
144.9539, 780.0494
145.4361, 773.7156
145.9182, 764.3112
146.4003, 751.4773
146.8824, 736.3507
147.3645, 720.3329
147.8466, 704.9612
148.3288, 689.6506
148.8109, 679.2371
149.2930, 681.2878
149.7751, 684.9409
150.2572, 677.6929
150.7393, 656.1123
151.2215, 628.1167
151.7036, 602.2954
152.1857, 577.8701
152.6678, 559.2256
153.1499, 550.2452
153.6320, 548.1736
154.1142, 546.8865
154.5963, 546.5225
155.0784, 543.9727
155.5605, 536.4902
156.0426, 524.0916
156.5247, 509.2798
157.0069, 491.9165
157.4890, 472.1187
157.9711, 456.0217
158.4532, 447.7898
158.9353, 441.9355
159.4174, 435.7380
159.8996, 428.7749
160.3817, 420.1675
160.8638, 408.6416
161.3459, 393.3372
161.8280, 377.8748
162.3102, 361.7197
162.7923, 346.0977
163.2744, 332.1565
163.7565, 320.2119
164.2386, 308.9792
164.7207, 296.4324
165.2029, 282.1331
165.6850, 266.7944
166.1671, 248.2224
166.6492, 229.6189
167.1313, 214.1812
167.6134, 203.1750
168.0956, 195.4673
168.5777, 187.8010
169.0598, 180.9351
169.5419, 173.2334
170.0240, 166.1482
170.5061, 157.9287
170.9883, 146.5791
171.4704, 131.2529
171.9525, 111.7480
172.4346, 86.40454
172.9167, 41.54028
173.3988, 6.909668
173.8810, 1.333252
174.3631, 8.620361
174.8452, 15.12207
175.3273, 5.266602
175.8094, 16.24390
176.2915, 31.94800
176.7737, 39.92725
177.2558, 44.82715
177.7379, 46.72827
178.2200, 46.33252
178.7021, 50.00366
179.1842, 63.13892
179.6664, 82.40381
180.1485, 101.7881
180.6306, 125.6411
181.1127, 144.1184
181.5948, 142.1296
182.0769, 115.4084
182.5591, 92.64990
183.0412, 93.82129
183.5233, 105.9771
184.0054, 116.3401
184.4875, 120.9048
184.9696, 122.0857
185.4518, 124.8569
185.9339, 130.8647
186.4160, 134.3774
186.8981, 131.7124
187.3802, 126.3096
187.8623, 122.1050
188.3445, 121.6548
188.8266, 123.3223
189.3087, 122.1738
189.7908, 114.4790
190.2729, 108.1948
190.7550, 105.6123
191.2372, 105.3281
191.7193, 107.0747
192.2014, 111.6377
192.6835, 117.0210
193.1656, 110.4546
193.6477, 69.85449
194.1299, 39.44092
194.6120, 35.77393
195.0941, 46.44629
195.5762, 51.53662
196.0583, 37.47900
196.5404, 5.275391
197.0226, 27.85498
197.5047, 73.38770
197.9868, 107.4194
198.4689, 114.4736
198.9510, 103.7539
199.4331, 94.98242
199.9153, 101.7051
200.3974, 123.7856
200.8795, 152.9019
201.3616, 197.1069
201.8437, 238.8804
202.3258, 269.5415
202.8080, 290.8105
203.2901, 310.4189
203.7722, 333.9014
204.2543, 361.2964
204.7364, 392.3901
205.2185, 434.1616
205.7007, 473.5786
206.1828, 497.0273
206.6649, 506.3662
207.1470, 520.8672
207.6291, 556.9746
208.1112, 610.0273
208.5934, 654.6987
209.0755, 680.7466
209.5576, 703.9834
210.0397, 738.7188
210.5218, 785.6909
211.0039, 834.3008
211.4861, 882.7764
211.9682, 927.2852
212.4503, 960.5972
212.9324, 971.0049
213.4145, 976.0547
213.8967, 1000.032
214.3788, 1047.532
214.8609, 1092.422
215.3430, 1110.839
215.8251, 1119.796
216.3072, 1141.433
216.7894, 1188.648
217.2715, 1247.524
217.7536, 1295.279
218.2357, 1329.854
218.7178, 1357.843
219.1999, 1381.421
219.6821, 1401.300
220.1642, 1416.810
220.6463, 1426.510
221.1284, 1433.706
221.6105, 1445.570
222.0926, 1459.763
222.5748, 1484.492
223.0569, 1535.603
223.5390, 1591.833
224.0211, 1628.000
224.5032, 1630.290
224.9853, 1611.350
225.4675, 1608.657
225.9496, 1634.023
226.4317, 1657.387
226.9138, 1669.638
227.3959, 1677.465
227.8780, 1689.114
228.3602, 1709.102
228.8423, 1732.881
229.3244, 1745.785
229.8065, 1732.690
230.2886, 1728.165
230.7707, 1746.933
231.2529, 1771.379
231.7350, 1782.846
232.2171, 1772.713
232.6992, 1746.330
233.1813, 1720.562
233.6634, 1687.675
234.1456, 1664.483
234.6277, 1661.568
235.1098, 1666.462
235.5919, 1665.979
236.0740, 1654.204
236.5561, 1632.506
237.0383, 1605.072
237.5204, 1568.684
238.0025, 1528.961
238.4846, 1478.264
238.9667, 1427.155
239.4488, 1392.439
239.9310, 1382.897
240.4131, 1386.619
240.8952, 1372.060
241.3773, 1317.959
241.8594, 1273.995
242.3415, 1251.660
242.8237, 1240.438
243.3058, 1226.296
243.7879, 1203.888
244.2700, 1177.751
244.7521, 1158.271
245.2342, 1147.467
245.7164, 1138.718
246.1985, 1136.563
246.6806, 1133.816
247.1627, 1120.721
247.6448, 1094.438
248.1269, 1058.293
248.6091, 1012.998
249.0912, 948.4277
249.5733, 908.5527
250.0554, 919.0361
250.5375, 954.9395
251.0196, 980.2529
251.5018, 986.7100
251.9839, 984.7061
252.4660, 986.8613
252.9481, 992.4951
253.4302, 1000.594
253.9123, 1010.290
254.3945, 1024.657
254.8766, 1047.546
255.3587, 1079.724
255.8408, 1116.674
256.3229, 1157.937
256.8051, 1202.887
257.2872, 1237.167
257.7693, 1242.158
258.2514, 1238.153
258.7335, 1259.845
259.2156, 1314.435
259.6978, 1383.304
260.1799, 1452.427
260.6620, 1522.283
261.1441, 1592.365
261.6262, 1666.137
262.1083, 1738.989
262.5905, 1800.958
263.0726, 1846.002
263.5547, 1897.166
264.0368, 1976.983
264.5189, 2075.645
265.0010, 2174.562
265.4832, 2271.211
265.9653, 2363.588
266.4474, 2447.267
266.9295, 2520.576
267.4116, 2590.683
267.8937, 2655.865
268.3759, 2721.855
268.8580, 2799.190
269.3401, 2895.757
269.8222, 3000.548
270.3043, 3097.641
270.7864, 3185.899
271.2686, 3271.266
271.7507, 3363.186
272.2328, 3452.227
272.7149, 3526.773
273.1970, 3583.302
273.6791, 3626.344
274.1613, 3655.719
274.6434, 3667.454
275.1255, 3688.757
275.6076, 3744.734
276.0897, 3807.978
276.5718, 3856.834
277.0540, 3885.673
277.5361, 3905.660
278.0182, 3932.961
278.5003, 3970.355
278.9824, 3995.116
279.4645, 3993.396
279.9467, 3981.454
280.4288, 3966.369
280.9109, 3949.545
281.3930, 3935.450
281.8751, 3928.000
282.3572, 3927.173
282.8394, 3933.584
283.3215, 3965.049
283.8036, 3988.812
284.2857, 3981.425
284.7678, 3944.535
285.2499, 3901.400
285.7321, 3873.407
286.2142, 3860.923
286.6963, 3842.688
287.1784, 3813.996
287.6605, 3781.934
288.1426, 3752.990
288.6248, 3724.266
289.1069, 3686.477
289.5890, 3626.725
290.0711, 3547.575
290.5532, 3486.263
291.0353, 3459.779
291.5175, 3430.336
291.9996, 3383.011
292.4817, 3322.326
292.9638, 3257.342
293.4459, 3192.818
293.9280, 3128.585
294.4102, 3066.936
294.8923, 3021.002
295.3744, 2955.551
295.8565, 2853.135
296.3386, 2730.650
296.8207, 2607.584
297.3029, 2491.984
297.7850, 2385.924
298.2671, 2296.555
298.7492, 2232.533
299.2313, 2168.955
299.7134, 2107.986
300.1956, 2041.289
300.6777, 1959.908
301.1598, 1860.549
301.6419, 1750.170
302.1240, 1637.623
302.6061, 1516.566
303.0883, 1411.725
303.5704, 1331.895
304.0525, 1263.898
304.5346, 1203.344
305.0167, 1147.918
305.4988, 1091.625
305.9810, 1024.479
306.4631, 941.8027
306.9452, 869.4863
307.4273, 819.5664
307.9094, 771.9570
308.3915, 714.9551
308.8737, 650.1289
309.3558, 587.6992
309.8379, 536.7168
310.3200, 497.1738
310.8021, 466.5879
311.2842, 457.3496
311.7664, 444.6680
312.2485, 415.3613
312.7306, 375.7168
313.2127, 340.2812
313.6948, 320.3398
314.1769, 312.9473
314.6591, 298.3340
315.1412, 260.0840
315.6233, 238.8066
316.1054, 249.9805
316.5875, 282.0859
317.0696, 321.3047
317.5518, 361.9961
318.0339, 403.1426
318.5160, 441.8477
318.9981, 479.0703
319.4802, 511.8770
319.9623, 531.2441
320.4445, 551.5156
320.9266, 585.0801
321.4087, 635.9023
321.8908, 698.9062
322.3729, 766.1445
322.8550, 836.7773
323.3372, 915.4336
323.8193, 1010.994
324.3014, 1108.486
324.7835, 1198.266
325.2656, 1279.686
325.7477, 1361.504
326.2299, 1454.926
326.7120, 1561.408
327.1941, 1659.395
327.6762, 1742.668
328.1583, 1821.668
328.6404, 1895.936
329.1226, 1969.006
329.6047, 2050.260
330.0868, 2152.039
330.5689, 2269.170
331.0510, 2363.869
331.5331, 2416.793
332.0153, 2474.928
332.4974, 2556.975
332.9795, 2654.338
333.4616, 2756.678
333.9437, 2862.270
334.4258, 2965.820
334.9080, 3052.820
335.3901, 3119.955
335.8722, 3182.084
336.3543, 3232.379
336.8365, 3284.482
337.3186, 3354.383
337.8007, 3447.770
338.2828, 3548.586
338.7649, 3635.066
339.2470, 3703.879
339.7292, 3777.498
340.2113, 3875.555
340.6934, 3967.094
341.1755, 4022.244
341.6576, 4044.059
342.1397, 4073.404
342.6219, 4159.518
343.1040, 4293.012
343.5861, 4375.482
344.0682, 4364.152
344.5503, 4348.346
345.0324, 4383.646
345.5146, 4456.082
345.9967, 4531.100
346.4788, 4601.012
346.9609, 4657.018
347.4430, 4671.768
347.9251, 4631.223
348.4073, 4588.391
348.8894, 4574.229
349.3715, 4572.490
349.8536, 4564.045
350.3357, 4543.686
350.8178, 4515.580
351.3000, 4483.902
351.7821, 4448.838
352.2642, 4411.064
352.7463, 4370.285
353.2284, 4327.008
353.7105, 4283.475
354.1927, 4240.479
354.6748, 4191.361
355.1569, 4125.645
355.6390, 4048.197
356.1211, 3982.828
356.6032, 3942.643
357.0854, 3899.752
357.5675, 3821.166
358.0496, 3713.891
358.5317, 3614.881
359.0138, 3543.994
359.4959, 3487.588
359.9781, 3425.895
360.4602, 3359.273
360.9423, 3280.588
361.4244, 3174.928
361.9065, 3054.943
362.3886, 2951.754
362.8708, 2875.371
363.3529, 2811.277
363.8350, 2755.125
364.3171, 2704.793
364.7992, 2643.016
365.2813, 2557.666
365.7635, 2461.387
366.2456, 2379.404
366.7277, 2316.987
367.2098, 2253.281
367.6919, 2178.092
368.1740, 2096.145
368.6562, 2017.145
369.1383, 1944.044
369.6204, 1871.080
370.1025, 1789.658
370.5846, 1699.438
371.0667, 1612.876
371.5489, 1529.685
372.0310, 1451.854
372.5131, 1387.132
372.9952, 1333.556
373.4773, 1272.812
373.9594, 1187.604
374.4416, 1081.419
374.9237, 999.4678
375.4058, 958.4668
375.8879, 921.0400
376.3700, 873.3037
376.8521, 818.0459
377.3343, 762.3262
377.8164, 709.1611
378.2985, 657.3838
378.7806, 604.0273
379.2627, 543.3369
379.7448, 490.7900
380.2270, 452.2070
380.7091, 419.8262
381.1912, 387.8252
381.6733, 354.2051
382.1554, 317.0156
382.6375, 271.8965
383.1197, 215.3057
383.6018, 169.9004
384.0839, 140.7461
384.5660, 115.8418
385.0481, 88.57031
385.5302, 60.91309
386.0124, 40.47168
386.4945, 33.13672
386.9766, 35.18262
387.4587, 25.88867
387.9408, 10.66211
388.4229, 39.89062
388.9051, 54.75000
389.3872, 62.16309
389.8693, 67.84863
390.3514, 73.98047
390.8335, 82.66699
391.3156, 97.48535
391.7978, 120.9473
392.2799, 143.8691
392.7620, 178.8984
393.2441, 202.6240
393.7262, 196.2070
394.2083, 165.6260
394.6905, 134.0742
395.1726, 121.1914
395.6547, 124.5801
396.1368, 119.9160
396.6189, 99.90137
397.1010, 84.37598
397.5832, 77.80273
398.0653, 78.41699
398.5474, 85.62012
399.0295, 100.6016
399.5116, 116.2920
399.9937, 121.1543
400.4759, 113.7832
400.9580, 103.3193
401.4401, 84.14746
401.9222, 65.81055
402.4043, 57.35840
402.8864, 58.79785
403.3686, 59.65039
403.8507, 51.43359
404.3328, 34.76270
404.8149, 16.12012
405.2970, 3.148438
405.7791, 26.95898
406.2613, 66.96191
406.7434, 113.4648
407.2255, 144.4932
407.7076, 142.2188
408.1897, 131.7803
408.6718, 144.8828
409.1540, 180.2432
409.6361, 210.6406
410.1182, 224.9482
410.6003, 226.6611
411.0824, 220.5840
411.5645, 202.2324
412.0467, 195.7217
412.5288, 215.2031
413.0109, 249.3467
413.4930, 286.0918
413.9751, 326.0859
414.4572, 356.4961
414.9394, 355.9805
415.4215, 322.0625
415.9036, 314.2314
416.3857, 360.6826
416.8678, 411.6406
417.3499, 434.9346
417.8321, 434.0693
418.3142, 427.0068
418.7963, 423.9541
419.2784, 423.2559
419.7605, 418.4072
420.2426, 398.6328
420.7248, 389.0918
421.2069, 403.3408
421.6890, 423.6641
422.1711, 432.6104
422.6532, 426.3926
423.1353, 411.0352
423.6175, 391.8174
424.0996, 365.6260
424.5817, 352.2178
425.0638, 363.4531
425.5459, 373.1162
426.0280, 364.6621
426.5102, 348.1602
426.9923, 346.0742
427.4744, 372.9268
427.9565, 417.0869
428.4386, 439.8721
428.9207, 430.3789
429.4029, 414.9678
429.8850, 390.0986
430.3671, 367.4033
430.8492, 358.3359
431.3313, 363.7988
431.8134, 374.7607
432.2956, 382.9648
432.7777, 388.4229
433.2598, 391.4697
433.7419, 392.9980
434.2241, 390.1416
434.7062, 380.5400
435.1883, 366.2461
435.6704, 350.8477
436.1525, 334.3145
436.6346, 319.9180
437.1168, 311.7539
437.5989, 309.0889
438.0810, 311.4287
438.5631, 324.6357
439.0452, 340.4141
439.5273, 350.6221
440.0095, 354.8271
440.4916, 348.9424
440.9737, 324.1484
441.4558, 289.0254
441.9379, 262.1533
442.4200, 246.6562
442.9022, 237.5654
443.3843, 230.0771
443.8664, 223.9707
444.3485, 220.3477
444.8306, 221.5527
445.3127, 223.9893
445.7949, 227.4326
446.2770, 230.1924
446.7591, 227.0752
447.2412, 214.9043
447.7233, 198.9736
448.2054, 189.2070
448.6876, 188.1973
449.1697, 184.8828
449.6518, 180.2959
450.1339, 172.3066
450.6160, 155.9619
451.0981, 133.6348
451.5803, 114.7285
452.0624, 108.4980
452.5445, 114.0986
453.0266, 114.1758
453.5087, 90.37012
453.9908, 79.56836
454.4730, 106.0928
454.9551, 140.3359
455.4372, 144.8867
455.9193, 110.0410
456.4014, 63.57422
456.8835, 44.66016
457.3657, 59.58105
457.8478, 78.22754
458.3299, 115.8643
458.8120, 137.7734
459.2941, 114.6895
459.7762, 65.84082
460.2584, 36.41504
460.7405, 57.12109
461.2226, 104.6113
461.7047, 130.3867
462.1868, 132.1855
462.6689, 129.5513
463.1511, 127.8901
463.6332, 122.8408
464.1153, 106.8745
464.5974, 78.62012
465.0795, 52.61914
465.5616, 36.70605
466.0438, 28.62256
466.5259, 23.86328
467.0080, 22.46338
467.4901, 23.06250
467.9722, 27.20752
468.4543, 32.90186
468.9365, 31.00537
469.4186, 5.552734
469.9007, 11.01221
470.3828, 10.51611
470.8649, 51.24170
471.3470, 67.74561
471.8292, 43.32422
472.3113, 2.740234
472.7934, 18.13037
473.2755, 12.30664
473.7576, 4.509277
474.2397, 3.843750
474.7219, 16.06445
475.2040, 37.36475
475.6861, 64.64404
476.1682, 88.94971
476.6503, 104.3105
477.1324, 113.0894
477.6146, 124.9082
478.0967, 142.5312
478.5788, 160.4521
479.0609, 179.2676
479.5430, 194.2256
480.0251, 200.7236
480.5073, 199.5928
480.9894, 197.0879
481.4715, 197.8545
481.9536, 202.2114
482.4357, 214.7959
482.9178, 246.5571
483.4000, 267.7695
483.8821, 258.7461
484.3642, 233.7910
484.8463, 209.0449
485.3284, 185.8359
485.8105, 173.6748
486.2927, 189.1387
486.7748, 226.8862
487.2569, 253.7808
487.7390, 261.7646
488.2211, 259.4619
488.7032, 253.4995
489.1854, 244.3218
489.6675, 234.7378
490.1496, 222.9038
490.6317, 212.7070
491.1138, 209.0635
491.5959, 210.5776
492.0781, 211.5405
492.5602, 209.4058
493.0423, 205.1475
493.5244, 199.8896
494.0065, 186.0952
494.4886, 186.8638
494.9708, 223.5649
495.4529, 259.4717
495.9350, 261.9199
496.4171, 234.8545
496.8992, 206.5938
497.3813, 198.5879
497.8635, 207.7578
498.3456, 215.1152
498.8277, 226.8223
499.3098, 226.1885
499.7919, 196.0410
500.2740, 162.8403
500.7562, 152.8916
501.2383, 169.1553
501.7204, 189.7217
502.2025, 194.6499
502.6846, 184.8281
503.1667, 167.5762
503.6489, 138.7939
504.1310, 111.2437
504.6131, 89.39160
505.0952, 73.65723
505.5773, 66.33105
506.0594, 70.29248
506.5416, 77.37695
507.0237, 82.21484
507.5058, 84.80273
507.9879, 85.49072
508.4700, 84.64258
508.9521, 79.75439
509.4343, 65.06055
509.9164, 41.14795
510.3985, 28.11963
510.8806, 32.60742
511.3627, 41.92920
511.8448, 55.90283
512.3270, 70.79736
512.8091, 75.88916
513.2912, 65.51514
513.7733, 44.28906
514.2554, 20.46680
514.7375, 12.95459
515.2197, 27.15332
515.7018, 8.121094
516.1839, 14.91797
516.6660, 26.56445
517.1481, 27.58545
517.6302, 25.69287
518.1124, 26.55273
518.5945, 29.21484
519.0766, 23.70068
519.5587, 1.549805
520.0408, 6.167480
520.5229, 27.97217
521.0051, 63.09717
521.4872, 68.38818
521.9693, 46.01270
522.4514, 23.33496
522.9335, 18.45410
523.4156, 23.66260
523.8978, 25.38281
524.3799, 23.61816
524.8620, 19.83154
525.3441, 15.23340
525.8262, 8.958008
526.3083, 3.145996
526.7905, 26.98682
527.2726, 39.93018
527.7547, 21.16943
528.2368, 6.978027
528.7189, 15.87793
529.2010, 3.386719
529.6832, 11.73047
530.1653, 14.74609
530.6474, 7.526367
531.1295, 6.918457
531.6116, 17.63379
532.0938, 29.40137
532.5759, 47.22705
533.0580, 61.66504
533.5401, 58.74756
534.0222, 40.51855
534.5043, 28.57568
534.9865, 49.72656
535.4686, 98.90381
535.9507, 114.2939
536.4328, 75.55566
536.9149, 41.23145
537.3970, 38.16309
537.8792, 47.70996
538.3613, 49.23779
538.8434, 37.67529
539.3255, 30.07422
539.8076, 47.12061
540.2897, 77.09180
540.7719, 86.96729
541.2540, 71.13037
541.7361, 49.27783
542.2182, 33.52295
542.7003, 23.54639
543.1824, 15.89307
543.6646, 9.858398
544.1467, 5.715332
544.6288, 2.780273
545.1109, 2.021973
545.5930, 7.533203
546.0751, 19.19824
546.5573, 28.06104
547.0394, 25.11963
547.5215, 10.25439
548.0036, 10.70068
548.4857, 58.54785
548.9678, 88.66895
549.4500, 78.05664
549.9321, 53.17920
550.4142, 44.37158
550.8963, 58.90820
551.3784, 78.59277
551.8605, 81.35303
552.3427, 69.14746
552.8248, 66.05664
553.3069, 73.56592
553.7890, 87.40479
554.2711, 111.4087
554.7532, 137.8311
555.2354, 155.7788
555.7175, 162.9248
556.1996, 164.3198
556.6817, 156.8887
557.1638, 147.1069
557.6459, 150.8994
558.1281, 171.3516
558.6102, 192.4756
559.0923, 199.2158
559.5744, 192.8413
560.0565, 198.0977
560.5386, 225.6870
561.0208, 248.6147
561.5029, 260.3906
561.9850, 264.0298
562.4671, 262.0542
562.9492, 255.8916
563.4313, 247.7539
563.9135, 238.1006
564.3956, 227.3418
564.8777, 232.1240
565.3598, 265.3062
565.8419, 293.4390
566.3240, 305.5049
566.8062, 308.4028
567.2883, 304.7339
567.7704, 294.3467
568.2525, 292.5815
568.7346, 321.7485
569.2167, 369.0728
569.6989, 396.3438
570.1810, 398.4136
570.6631, 395.3354
571.1452, 396.1968
571.6273, 402.0464
572.1094, 416.0879
572.5916, 440.5820
573.0737, 467.0889
573.5558, 501.1084
574.0379, 534.6733
574.5200, 555.0957
575.0021, 562.3916
575.4843, 567.8472
575.9664, 579.9854
576.4485, 598.7139
576.9306, 623.8950
577.4127, 663.1729
577.8948, 694.3438
578.3770, 710.8901
578.8591, 724.1699
579.3412, 741.6660
579.8233, 764.1455
580.3054, 790.9707
580.7875, 825.7700
581.2697, 863.6538
581.7518, 891.5674
582.2339, 909.3228
582.7161, 917.3398
583.1982, 905.9844
583.6803, 893.9189
584.1624, 913.2163
584.6445, 967.3286
585.1266, 1011.483
585.6088, 1029.636
586.0909, 1039.280
586.5730, 1054.840
587.0551, 1074.565
587.5372, 1087.729
588.0193, 1088.420
588.5015, 1085.726
588.9836, 1099.062
589.4657, 1136.319
589.9478, 1171.536
590.4299, 1207.146
590.9120, 1238.344
591.3942, 1261.692
591.8763, 1280.028
592.3584, 1297.831
592.8405, 1316.332
593.3226, 1332.638
593.8047, 1346.144
594.2869, 1359.047
594.7690, 1368.111
595.2511, 1368.015
595.7332, 1368.917
596.2153, 1385.512
596.6974, 1412.409
597.1796, 1428.792
597.6617, 1419.811
598.1438, 1410.377
598.6259, 1417.211
599.1080, 1433.873
599.5901, 1448.722
600.0723, 1458.359
600.5544, 1463.192
601.0365, 1462.136
601.5186, 1454.810
602.0007, 1460.219
602.4828, 1503.766
602.9650, 1528.936
603.4471, 1512.701
603.9292, 1481.646
604.4113, 1461.242
604.8934, 1456.692
605.3755, 1458.369
605.8577, 1458.362
606.3398, 1457.599
606.8219, 1461.827
607.3040, 1472.979
607.7861, 1477.413
608.2682, 1465.279
608.7504, 1445.342
609.2325, 1434.439
609.7146, 1435.456
610.1967, 1429.357
610.6788, 1402.088
611.1609, 1372.331
611.6431, 1361.775
612.1252, 1364.657
612.6073, 1356.296
613.0894, 1322.883
613.5715, 1278.369
614.0536, 1254.525
614.5358, 1263.525
615.0179, 1263.518
615.5000, 1246.128
615.9821, 1228.091
616.4642, 1213.543
616.9464, 1204.013
617.4285, 1203.561
617.9106, 1216.637
618.3927, 1227.839
618.8748, 1217.383
619.3569, 1188.792
619.8391, 1158.619
620.3212, 1127.422
620.8033, 1103.815
621.2854, 1098.156
621.7675, 1106.952
622.2496, 1108.160
622.7318, 1099.478
623.2139, 1086.393
623.6960, 1062.368
624.1781, 1039.324
624.6602, 1031.437
625.1423, 1039.078
625.6245, 1053.626
626.1066, 1070.054
626.5887, 1085.458
627.0708, 1084.224
627.5529, 1054.646
628.0350, 1036.958
628.5172, 1049.569
628.9993, 1069.037
629.4814, 1080.599
629.9635, 1085.128
630.4456, 1091.895
630.9277, 1113.775
631.4099, 1132.498
631.8920, 1119.862
632.3741, 1084.627
632.8562, 1064.387
633.3383, 1072.257
633.8204, 1088.999
634.3026, 1090.833
634.7847, 1074.988
635.2668, 1070.763
635.7489, 1083.587
636.2310, 1099.620
636.7131, 1115.752
637.1953, 1132.402
637.6774, 1150.831
638.1595, 1170.948
638.6416, 1190.516
639.1237, 1205.570
639.6058, 1217.991
640.0880, 1240.169
640.5701, 1276.008
641.0522, 1305.451
641.5343, 1318.040
642.0164, 1322.237
642.4985, 1329.712
642.9807, 1340.751
643.4628, 1351.366
643.9449, 1360.793
644.4270, 1369.207
644.9091, 1373.661
645.3912, 1377.370
645.8734, 1390.084
646.3555, 1415.718
646.8376, 1445.276
647.3197, 1464.419
647.8018, 1471.282
648.2839, 1478.381
648.7661, 1483.965
649.2482, 1491.987
649.7303, 1506.683
650.2124, 1522.932
650.6945, 1531.838
651.1766, 1531.201
651.6588, 1536.072
652.1409, 1565.977
652.6230, 1606.968
653.1051, 1628.689
653.5872, 1629.842
654.0693, 1627.939
654.5515, 1631.087
655.0336, 1638.193
655.5157, 1647.630
655.9978, 1663.633
656.4799, 1671.344
656.9620, 1660.453
657.4442, 1651.375
657.9263, 1656.667
658.4084, 1671.212
658.8905, 1686.578
659.3726, 1699.300
659.8547, 1705.664
660.3369, 1696.775
660.8190, 1674.168
661.3011, 1662.125
661.7832, 1666.912
662.2653, 1667.766
662.7474, 1648.674
663.2296, 1619.993
663.7117, 1602.588
664.1938, 1599.013
664.6759, 1598.934
665.1580, 1601.171
665.6401, 1603.986
666.1223, 1610.724
666.6044, 1617.015
667.0865, 1609.863
667.5686, 1582.245
668.0507, 1542.024
668.5328, 1500.002
669.0150, 1450.628
669.4971, 1425.224
669.9792, 1453.046
670.4613, 1467.943
670.9434, 1427.582
671.4255, 1362.359
671.9077, 1319.226
672.3898, 1311.040
672.8719, 1308.591
673.3540, 1299.372
673.8361, 1281.361
674.3182, 1244.401
674.8004, 1191.375
675.2825, 1149.517
675.7646, 1135.895
676.2467, 1138.301
676.7288, 1127.054
677.2109, 1092.466
677.6931, 1066.307
678.1752, 1060.815
678.6573, 1050.627
679.1394, 1019.631
679.6215, 977.3281
680.1036, 938.7954
680.5858, 909.1367
681.0679, 890.0215
681.5500, 892.6562
682.0321, 905.8154
682.5142, 894.1387
682.9963, 853.2734
683.4785, 809.5342
683.9606, 775.7764
684.4427, 751.0454
684.9248, 733.4155
685.4069, 728.1577
685.8890, 717.3477
686.3712, 698.5723
686.8533, 675.6396
687.3354, 649.2998
687.8175, 620.9199
688.2996, 590.8525
688.7817, 559.2993
689.2639, 531.0244
689.7460, 511.5645
690.2281, 500.3198
690.7102, 499.2935
691.1923, 513.2163
691.6744, 516.2192
692.1566, 490.7319
692.6387, 450.0283
693.1208, 420.0503
693.6029, 401.1294
694.0850, 387.9883
694.5671, 387.5415
695.0493, 385.9600
695.5314, 372.1543
696.0135, 351.2690
696.4956, 333.2515
696.9777, 321.7954
697.4598, 314.8467
697.9420, 310.8804
698.4241, 309.9771
698.9062, 310.7944
699.3883, 315.0825
699.8704, 315.9253
700.3525, 310.8369
700.8347, 300.1582
701.3168, 283.2964
701.7989, 259.7935
702.2810, 238.9863
702.7631, 221.4136
703.2452, 209.1553
703.7274, 209.4087
704.2095, 215.3154
704.6916, 212.8076
705.1737, 197.5127
705.6558, 176.8096
706.1379, 159.0688
706.6201, 144.5762
707.1022, 135.4209
707.5843, 132.4937
708.0664, 134.0010
708.5485, 144.6362
709.0306, 155.6587
709.5128, 159.1372
709.9949, 154.6665
710.4770, 146.0234
710.9591, 130.9277
711.4412, 116.6394
711.9233, 108.9092
712.4055, 105.8689
712.8876, 105.7854
713.3697, 107.5344
713.8518, 106.1946
714.3339, 96.42139
714.8160, 79.86499
715.2982, 69.10498
715.7803, 65.16675
716.2624, 65.51196
716.7445, 78.06372
717.2266, 87.72534
717.7087, 81.49268
718.1909, 61.99585
718.6730, 42.59399
719.1551, 22.79370
719.6372, 10.75000
720.1193, 18.08813
720.6014, 35.08081
721.0836, 44.90210
721.5657, 44.95923
722.0478, 42.59009
722.5299, 43.19067
723.0120, 44.68066
723.4941, 42.46802
723.9763, 36.47241
724.4584, 29.06787
724.9405, 14.33862
725.4226, 3.958008
725.9047, 8.510986
726.3868, 21.96948
726.8690, 30.64014
727.3511, 30.73682
727.8332, 25.27783
728.3153, 12.97461
728.7974, 1.182861
729.2795, 11.35278
729.7617, 17.13647
730.2438, 20.41553
730.7259, 22.39404
731.2080, 21.63013
731.6901, 12.96436
732.1722, 8.797852
732.6544, 16.79053
733.1365, 0.2265630
733.6186, 16.15430
734.1007, 16.73462
734.5828, 11.60059
735.0649, 14.76538
735.5471, 29.20703
736.0292, 38.77100
736.5113, 27.19922
736.9934, 13.92480
737.4755, 21.46875
737.9576, 43.78760
738.4398, 63.73145
738.9219, 75.09937
739.4040, 76.07104
739.8861, 61.77563
740.3682, 32.67017
740.8503, 16.80347
741.3325, 18.21777
741.8146, 25.12109
742.2967, 40.20728
742.7788, 54.31299
743.2609, 58.52832
743.7430, 54.08301
744.2252, 50.97314
744.7073, 52.76245
745.1894, 56.36719
745.6715, 61.90698
746.1536, 67.15259
746.6357, 67.78174
747.1179, 63.28516
747.6000, 56.00879
748.0821, 47.48511
748.5642, 39.16187
749.0463, 36.91919
749.5284, 43.45020
750.0106, 43.14478
750.4927, 29.52661
750.9748, 14.89478
751.4569, 5.904541
751.9390, 2.086670
752.4211, 3.822266
752.9033, 14.13379
753.3854, 23.63916
753.8675, 30.34424
754.3496, 33.63623
754.8317, 30.65039
755.3138, 23.76733
755.7960, 20.13354
756.2781, 23.10181
756.7602, 26.83813
757.2423, 21.49414
757.7244, 7.382568
758.2065, 1.433350
758.6887, 3.254395
759.1708, 4.553711
759.6529, 7.087402
760.1350, 11.62769
760.6171, 21.17847
761.0992, 36.58643
761.5814, 45.05957
762.0635, 35.83911
762.5456, 29.87158
763.0277, 40.25757
763.5098, 57.58301
763.9919, 72.08203
764.4741, 80.54956
764.9562, 80.01904
765.4383, 65.00562
765.9204, 43.64966
766.4025, 33.91187
766.8846, 35.69580
767.3668, 46.30884
767.8489, 68.60034
768.3310, 87.39307
768.8131, 88.56763
769.2952, 75.38574
769.7773, 66.56494
770.2595, 61.47144
770.7416, 61.34412
771.2237, 68.83508
771.7058, 78.82202
772.1879, 90.77954
772.6700, 102.1786
773.1522, 108.8177
773.6343, 109.0686
774.1164, 105.4254
774.5985, 95.29907
775.0806, 84.43127
775.5627, 88.10242
776.0449, 105.9592
776.5270, 125.4977
777.0091, 142.6472
777.4912, 153.3519
777.9733, 149.4459
778.4554, 128.3275
778.9376, 114.7429
779.4197, 107.4800
779.9019, 109.9897
780.3840, 134.3201
780.8661, 159.8999
781.3482, 164.8368
781.8303, 151.6438
782.3124, 144.4348
782.7946, 160.2986
783.2767, 176.9995
783.7588, 170.5261
784.2409, 154.3414
784.7230, 155.4210
785.2051, 175.5133
785.6873, 194.4452
786.1694, 197.9652
786.6515, 191.8699
787.1336, 190.7102
787.6157, 195.3295
788.0978, 201.0817
788.5800, 209.3933
789.0621, 216.0258
789.5442, 216.6638
790.0263, 215.2095
790.5084, 218.3518
790.9905, 227.9222
791.4727, 233.9847
791.9548, 230.4497
792.4369, 227.0334
792.9190, 229.5043
793.4011, 235.7257
793.8832, 243.4988
794.3654, 252.2889
794.8475, 259.4180
795.3296, 261.4724
795.8117, 259.2854
796.2938, 256.1320
796.7759, 252.2915
797.2581, 248.4335
797.7402, 244.2970
798.2223, 245.8495
798.7044, 260.7405
799.1865, 284.1184
799.6686, 290.9380
800.1508, 262.7910
800.6329, 243.4725
801.1150, 238.2712
801.5971, 238.7255
802.0792, 240.3063
802.5613, 243.4451
803.0435, 252.2611
803.5256, 268.6979
804.0077, 279.1080
804.4898, 267.8221
804.9719, 248.4832
805.4540, 240.6885
805.9362, 243.0325
806.4183, 245.8129
806.9004, 245.3230
807.3825, 243.5558
807.8646, 244.1957
808.3467, 247.5238
808.8289, 246.2102
809.3110, 235.8718
809.7931, 230.8842
810.2752, 237.4019
810.7573, 246.1165
811.2394, 251.2441
811.7216, 253.0448
812.2037, 251.6719
812.6858, 245.0551
813.1679, 240.2274
813.6500, 242.0189
814.1321, 243.6604
814.6143, 235.7793
815.0964, 224.0594
815.5785, 223.5977
816.0606, 239.8790
816.5427, 258.2963
817.0248, 260.7208
817.5070, 252.0109
817.9891, 250.0259
818.4712, 255.0856
818.9533, 256.4520
819.4354, 248.8833
819.9175, 240.0411
820.3997, 240.5717
820.8818, 250.7754
821.3639, 255.0944
821.8460, 246.6355
822.3281, 241.9965
822.8102, 243.8893
823.2924, 248.1136
823.7745, 254.1747
824.2566, 260.4758
824.7387, 262.6766
825.2208, 258.6130
825.7029, 255.0033
826.1851, 259.9132
826.6672, 263.4882
827.1493, 249.8536
827.6314, 224.5022
828.1135, 206.1394
828.5956, 202.0321
829.0778, 205.8088
829.5599, 210.8810
830.0420, 216.9506
830.5241, 221.6133
831.0062, 224.6786
831.4883, 226.1702
831.9705, 225.7184
832.4526, 223.8953
832.9347, 223.4742
833.4168, 223.6969
833.8989, 213.2657
834.3810, 169.2283
834.8632, 148.8883
835.3453, 176.6033
835.8274, 209.9020
836.3095, 224.1188
836.7916, 223.7058
837.2737, 219.3210
837.7559, 213.7576
838.2380, 210.8486
838.7201, 216.8965
839.2022, 224.4629
839.6843, 221.1132
840.1664, 210.0337
840.6486, 203.6533
841.1307, 205.3961
841.6128, 208.0533
842.0949, 204.6573
842.5770, 197.2999
843.0591, 193.5258
843.5413, 193.7268
844.0234, 193.2312
844.5055, 192.2126
844.9876, 188.4954
845.4697, 176.5187
845.9518, 161.4325
846.4340, 159.4423
846.9161, 176.5100
847.3982, 190.1747
847.8803, 199.2731
848.3624, 203.1302
848.8445, 196.3981
849.3267, 186.7394
849.8088, 187.2323
850.2909, 198.5648
850.7730, 203.9868
851.2551, 184.7585
851.7372, 161.8032
852.2194, 163.7273
852.7015, 181.1696
853.1836, 191.2612
853.6657, 190.3108
854.1478, 186.7308
854.6299, 186.2074
855.1121, 186.7053
855.5942, 182.3726
856.0763, 172.0126
856.5584, 168.6937
857.0405, 174.5831
857.5226, 182.6134
858.0048, 192.2292
858.4869, 200.2136
858.9690, 200.8796
859.4511, 193.7322
859.9332, 186.7509
860.4153, 178.7153
860.8975, 172.9939
861.3796, 174.7544
861.8617, 176.3207
862.3438, 167.2279
862.8259, 151.0708
863.3080, 142.3162
863.7902, 148.7395
864.2723, 157.0680
864.7544, 157.2922
865.2365, 151.5819
865.7186, 138.1095
866.2007, 121.4929
866.6829, 119.8145
867.1650, 139.2164
867.6471, 162.7612
868.1292, 170.0923
868.6113, 163.9987
869.0934, 161.3867
869.5756, 163.1134
870.0577, 161.8811
870.5398, 154.7775
871.0219, 147.5045
871.5040, 143.5975
871.9861, 143.5706
872.4683, 149.5176
872.9504, 172.5636
873.4325, 180.2004
873.9146, 160.1609
874.3967, 138.7866
874.8788, 122.5143
875.3610, 113.1825
875.8431, 116.4348
876.3252, 131.6305
876.8073, 141.7925
877.2894, 130.7819
877.7715, 120.2214
878.2537, 132.0334
878.7358, 152.6959
879.2179, 161.1851
879.7000, 156.4517
880.1821, 149.4546
880.6642, 146.4957
881.1464, 144.5110
881.6285, 137.1046
882.1106, 125.9884
882.5927, 120.4138
883.0748, 120.8120
883.5569, 121.5419
884.0391, 120.5869
884.5212, 118.7881
885.0033, 116.6519
885.4854, 114.6635
885.9675, 115.6560
886.4496, 123.8107
886.9318, 127.4965
887.4139, 122.7123
887.8960, 115.4020
888.3781, 106.1206
888.8602, 97.17871
889.3423, 93.41968
889.8245, 96.44324
890.3066, 100.0840
890.7887, 104.6830
891.2708, 107.4622
891.7529, 104.6956
892.2350, 99.98010
892.7172, 99.98035
893.1993, 104.6310
893.6814, 104.5210
894.1635, 91.36157
894.6456, 77.47595
895.1277, 81.95532
895.6099, 95.51672
896.0920, 94.30762
896.5741, 78.98230
897.0562, 69.05676
897.5383, 73.88989
898.0204, 87.00635
898.5026, 101.6056
898.9847, 116.9153
899.4668, 118.4905
899.9489, 102.6846
900.4310, 94.14307
900.9131, 102.1395
901.3953, 112.5222
901.8774, 112.2059
902.3595, 103.8868
902.8416, 101.3497
903.3237, 111.6500
903.8058, 115.6824
904.2880, 109.2058
904.7701, 103.0562
905.2522, 100.3795
905.7343, 100.1154
906.2164, 103.0919
906.6985, 109.2979
907.1807, 110.0681
907.6628, 96.49268
908.1449, 82.88367
908.6270, 76.68958
909.1091, 75.56030
909.5912, 77.64246
910.0734, 82.22119
910.5555, 88.93787
911.0376, 97.31897
911.5197, 104.3634
912.0018, 109.1318
912.4839, 111.2509
912.9661, 106.3967
913.4482, 96.74902
913.9303, 93.59119
914.4124, 99.52246
914.8945, 104.4855
915.3766, 99.54895
915.8588, 89.91809
916.3409, 88.61719
916.8230, 94.99658
917.3051, 106.7416
917.7872, 128.3022
918.2693, 139.2990
918.7515, 125.1409
919.2336, 101.7241
919.7157, 93.52332
920.1978, 101.8047
920.6799, 106.0242
921.1620, 102.4100
921.6442, 100.7903
922.1263, 106.9702
922.6084, 111.6530
923.0905, 106.7155
923.5726, 96.06482
924.0547, 88.35779
924.5369, 84.44568
925.0190, 84.64197
925.5011, 91.84009
925.9832, 100.7335
926.4653, 109.4789
926.9474, 116.8223
927.4296, 122.3110
927.9117, 124.9181
928.3938, 121.1050
928.8759, 106.4756
929.3580, 92.11890
929.8401, 92.78735
930.3223, 99.91199
930.8044, 94.68225
931.2865, 79.48645
931.7686, 73.36206
932.2507, 84.07715
932.7328, 99.95190
933.2150, 107.9377
933.6971, 108.9785
934.1792, 107.7632
934.6613, 104.2567
935.1434, 98.06873
935.6255, 88.76904
936.1077, 80.32983
936.5898, 73.56311
937.0719, 71.14771
937.5540, 82.47400
938.0361, 113.4230
938.5182, 123.9969
939.0004, 102.6022
939.4825, 83.84045
939.9646, 78.77991
940.4467, 78.37244
940.9288, 72.34412
941.4109, 63.63013
941.8931, 65.69019
942.3752, 91.45422
942.8573, 104.5704
943.3394, 94.62842
943.8215, 78.27148
944.3036, 55.75940
944.7858, 36.40845
945.2679, 34.21545
945.7500, 48.95239
946.2321, 62.11707
946.7142, 66.38879
947.1964, 66.78796
947.6785, 65.99084
948.1606, 63.24219
948.6427, 55.86548
949.1248, 46.00525
949.6069, 38.52417
950.0891, 35.30566
950.5712, 36.41968
951.0533, 48.85718
951.5354, 61.16895
952.0175, 47.56250
952.4996, 18.73291
952.9818, 8.503906
953.4639, 20.64526
953.9460, 31.33350
954.4281, 25.36523
954.9102, 12.05859
955.3923, 7.932129
955.8745, 11.93457
956.3566, 12.48364
956.8387, 9.186768
957.3208, 6.643555
957.8029, 6.485840
958.2850, 5.141846
958.7672, 1.557617
959.2493, 10.83374
959.7314, 10.41406
960.2135, 3.656982
960.6956, 13.51270
961.1777, 19.74585
961.6599, 18.38013
962.1420, 0.5532230
962.6241, 18.61328
963.1062, 17.54736
963.5883, 3.578613
964.0704, 14.95166
964.5526, 8.519043
965.0347, 4.611816
965.5168, 9.979736
965.9989, 12.47974
966.4810, 3.454590
966.9631, 11.20508
967.4453, 24.15918
967.9274, 34.74512
968.4095, 37.34131
968.8916, 20.71094
969.3737, 7.313232
969.8558, 8.499756
970.3380, 16.34668
970.8201, 26.88135
971.3022, 36.91968
971.7843, 39.04053
972.2664, 29.87427
972.7485, 25.76807
973.2307, 46.68872
973.7128, 69.93823
974.1949, 71.33887
974.6770, 59.48975
975.1591, 47.30591
975.6412, 38.20337
976.1234, 34.68066
976.6055, 38.94824
977.0876, 42.77930
977.5698, 33.48096
978.0519, 16.73291
978.5340, 3.941162
979.0161, 3.980225
979.4982, 6.303223
979.9803, 3.108643
980.4625, 5.126221
980.9446, 19.37207
981.4267, 34.26880
981.9088, 35.76001
982.3909, 25.55225
982.8730, 20.41772
983.3552, 21.34644
983.8373, 23.20947
984.3194, 24.49146
984.8015, 23.24951
985.2836, 15.75342
985.7657, 5.144287
986.2479, 9.341309
986.7300, 33.22729
987.2121, 46.82373
987.6942, 46.10864
988.1763, 37.54102
988.6584, 20.18579
989.1406, 3.561035
989.6227, 2.173584
990.1048, 15.29224
990.5869, 18.03564
991.0690, 1.369629
991.5511, 7.490234
992.0333, 3.728760
992.5154, 5.733643
992.9975, 23.18408
993.4796, 41.18652
993.9617, 47.31494
994.4438, 40.51416
994.9260, 32.91357
995.4081, 22.22510
995.8902, 14.07959
996.3723, 12.92090
996.8544, 12.69214
997.3365, 8.139648
997.8187, 1.466309
998.3008, 0.2287600
998.7829, 7.149170
999.2650, 3.681396
999.7471, 32.53271
1000.229, 60.75171
1000.711, 57.23657
1001.193, 39.95386
1001.676, 18.07495
1002.158, 0.9711910
1002.640, 0.3640140
1003.122, 28.03809
1003.604, 49.15942
1004.086, 34.33716
1004.568, 12.55151
1005.050, 4.679443
1005.533, 6.286865
1006.015, 13.65845
1006.497, 23.19702
1006.979, 27.23730
1007.461, 22.07422
1007.943, 15.48193
1008.425, 15.75293
1008.907, 17.61816
1009.389, 9.096680
1009.872, 2.922363
1010.354, 0.7475590
1010.836, 19.74609
1011.318, 32.70850
1011.800, 25.90283
1012.282, 11.86914
1012.764, 4.672852
1013.246, 3.561523
1013.729, 8.723145
1014.211, 17.54248
1014.693, 20.95459
1015.175, 17.33398
1015.657, 12.51514
1016.139, 10.74756
1016.621, 8.048340
1017.103, 8.422852
1017.585, 31.58252
1018.068, 23.18994
1018.550, 13.19336
1019.032, 32.12744
1019.514, 20.32227
1019.996, 2.633301
1020.478, 1.224609
1020.960, 5.364746
1021.442, 12.27881
1021.924, 19.40186
1022.407, 44.73193
1022.889, 91.10840
1023.371, 103.6621
1023.853, 58.56055
1024.335, 21.28711
1024.817, 56.34521
1025.299, 133.0835
1025.781, 151.4819
1026.264, 103.1895
1026.746, 72.21240
1027.228, 61.80225
1027.710, 63.03613
1028.192, 76.63965
1028.674, 90.23877
1029.156, 92.44922
1029.638, 85.25537
1030.120, 74.48438
1030.603, 55.56250
1031.085, 47.64355
1031.567, 52.39258
1032.049, 65.78711
1032.531, 91.29102
1033.013, 118.5425
1033.495, 138.4419
1033.977, 150.7349
1034.459, 153.7817
1034.942, 140.7236
1035.424, 134.7407
1035.906, 139.3994
1036.388, 145.6177
1036.870, 147.5732
1037.352, 152.1045
1037.834, 170.6045
1038.316, 198.9917
1038.799, 212.8940
1039.281, 201.9414
1039.763, 197.1543
1040.245, 202.5317
1040.727, 210.0815
1041.209, 215.3857
1041.691, 223.1079
1042.173, 242.5210
1042.656, 269.7212
1043.138, 281.9971
1043.620, 267.4468
1044.102, 260.3022
1044.584, 266.0151
1045.066, 273.6396
1045.548, 280.5049
1046.030, 287.3232
1046.512, 294.0332
1046.995, 301.2100
1047.477, 311.9458
1047.959, 331.3203
1048.441, 342.9062
1048.923, 330.8022
1049.405, 327.5825
1049.887, 360.3159
1050.369, 397.4766
1050.851, 401.9883
1051.334, 381.2959
1051.816, 372.8096
1052.298, 387.9351
1052.780, 402.7114
1053.262, 400.6426
1053.744, 410.5254
1054.226, 466.4985
1054.708, 524.6948
1055.191, 532.1064
1055.673, 501.0327
1056.155, 486.0601
1056.637, 502.3550
1057.119, 521.8179
1057.601, 539.1826
1058.083, 554.2178
1058.565, 564.6621
1059.047, 574.1733
1059.530, 589.2334
1060.012, 606.6777
1060.494, 615.0083
1060.976, 607.1304
1061.458, 611.0801
1061.940, 649.6450
1062.422, 687.3628
1062.904, 704.5435
1063.386, 712.6494
1063.869, 723.8955
1064.351, 736.9688
1064.833, 743.6587
1065.315, 741.0200
1065.797, 739.3311
1066.279, 740.2817
1066.761, 745.9873
1067.243, 759.0381
1067.726, 775.9722
1068.208, 792.5381
1068.690, 810.4990
1069.172, 840.4258
1069.654, 885.9746
1070.136, 912.8096
1070.618, 883.1602
1071.100, 859.1172
1071.583, 877.9688
1072.065, 913.7529
1072.547, 948.6318
1073.029, 978.0781
1073.511, 997.2432
1073.993, 1004.970
1074.475, 1016.463
1074.957, 1044.265
1075.439, 1069.180
1075.922, 1078.991
1076.404, 1085.368
1076.886, 1098.157
1077.368, 1115.053
1077.850, 1133.350
1078.332, 1151.764
1078.814, 1157.339
1079.296, 1126.777
1079.779, 1106.446
1080.261, 1129.652
1080.743, 1161.832
1081.225, 1173.316
1081.707, 1173.150
1082.189, 1181.089
1082.671, 1199.050
1083.153, 1212.091
1083.635, 1207.310
1084.118, 1208.438
1084.600, 1231.085
1085.082, 1259.281
1085.564, 1287.849
1086.046, 1310.032
1086.528, 1314.022
1087.010, 1302.676
1087.492, 1295.498
1087.974, 1299.313
1088.457, 1308.205
1088.939, 1320.765
1089.421, 1336.933
1089.903, 1364.558
1090.385, 1390.586
1090.867, 1391.185
1091.349, 1375.653
1091.831, 1385.014
1092.314, 1437.123
1092.796, 1483.452
1093.278, 1500.928
1093.760, 1514.286
1094.242, 1539.022
1094.724, 1562.743
1095.206, 1570.706
1095.688, 1568.353
1096.171, 1572.233
1096.653, 1586.306
1097.135, 1596.458
1097.617, 1597.090
1098.099, 1595.792
1098.581, 1588.682
1099.063, 1587.929
1099.545, 1613.552
1100.027, 1648.698
1100.510, 1653.674
1100.992, 1622.435
1101.474, 1610.960
1101.956, 1644.706
1102.438, 1681.515
1102.920, 1716.908
1103.402, 1746.315
1103.884, 1765.565
1104.366, 1777.673
1104.849, 1789.153
1105.331, 1799.383
1105.813, 1797.360
1106.295, 1756.270
1106.777, 1742.680
1107.259, 1784.919
1107.741, 1833.495
1108.223, 1873.088
1108.706, 1902.236
1109.188, 1915.073
1109.670, 1916.969
1110.152, 1931.578
1110.634, 1972.353
1111.116, 1997.502
1111.598, 1998.672
1112.080, 1992.883
1112.563, 1971.598
1113.045, 1957.109
1113.527, 1972.121
1114.009, 2007.173
1114.491, 2036.091
1114.973, 2060.617
1115.455, 2083.414
1115.937, 2089.854
1116.419, 2125.920
1116.901, 2212.500
1117.384, 2297.027
1117.866, 2356.797
1118.348, 2397.908
1118.830, 2429.278
1119.312, 2452.245
1119.794, 2487.488
1120.276, 2534.884
1120.758, 2586.329
1121.241, 2650.694
1121.723, 2697.151
1122.205, 2707.174
1122.687, 2709.404
1123.169, 2734.032
1123.651, 2775.192
1124.133, 2811.057
1124.615, 2846.044
1125.098, 2856.058
1125.580, 2833.923
1126.062, 2817.225
1126.544, 2818.253
1127.026, 2835.871
1127.508, 2872.460
1127.990, 2918.680
1128.472, 2950.400
1128.954, 2967.244
1129.437, 2985.890
1129.919, 3009.266
1130.401, 3016.523
1130.883, 3001.555
1131.365, 2990.764
1131.847, 3000.262
1132.329, 3018.963
1132.811, 3030.412
1133.293, 3036.031
1133.776, 3036.775
1134.258, 3033.955
1134.740, 3049.062
1135.222, 3081.709
1135.704, 3099.592
1136.186, 3089.445
1136.668, 3081.930
1137.150, 3112.748
1137.633, 3149.111
1138.115, 3101.373
1138.597, 3009.680
1139.079, 3015.807
1139.561, 3100.074
1140.043, 3149.043
1140.525, 3137.271
1141.007, 3116.439
1141.490, 3120.766
1141.972, 3116.447
1142.454, 3039.705
1142.936, 2945.330
1143.418, 2924.225
1143.900, 2954.289
1144.382, 3002.404
1144.864, 3050.311
1145.346, 3060.193
1145.828, 3017.535
1146.311, 2965.080
1146.793, 2930.758
1147.275, 2906.650
1147.757, 2884.326
1148.239, 2867.580
1148.721, 2861.994
1149.203, 2863.898
1149.685, 2872.570
1150.168, 2884.658
1150.650, 2886.951
1151.132, 2869.650
1151.614, 2851.723
1152.096, 2861.070
1152.578, 2853.732
1153.060, 2772.861
1153.542, 2678.227
1154.025, 2649.527
1154.507, 2672.059
1154.989, 2677.820
1155.471, 2653.850
1155.953, 2611.520
1156.435, 2547.674
1156.917, 2476.410
1157.399, 2387.211
1157.881, 2308.080
1158.364, 2260.711
1158.846, 2235.189
1159.328, 2225.527
1159.810, 2232.111
1160.292, 2194.176
1160.774, 2079.061
1161.256, 1976.129
1161.738, 1888.691
1162.220, 1815.949
1162.703, 1767.203
1163.185, 1719.811
1163.667, 1652.588
1164.149, 1570.326
1164.631, 1490.402
1165.113, 1413.607
1165.595, 1339.938
1166.077, 1275.668
1166.560, 1183.758
1167.042, 1047.998
1167.524, 925.5918
1168.006, 850.0117
1168.488, 802.4180
1168.970, 755.8652
1169.452, 708.1094
1169.934, 643.2910
1170.417, 561.8457
1170.899, 470.9453
1171.381, 370.2754
1171.863, 251.4727
1172.345, 111.7188
1172.827, 38.26562
1173.309, 192.1914
1173.791, 339.1523
1174.273, 453.6758
1174.755, 384.4531
1175.238, 316.0352
1175.720, 256.4414
1176.202, 236.3164
1176.684, 248.6484
1177.166, 248.4297
1177.648, 214.9648
1178.130, 171.2422
1178.612, 122.5391
1179.095, 88.09375
1179.577, 105.2891
1180.059, 129.8477
1180.541, 110.0508
1181.023, 54.32812
1181.505, 18.01562
1181.987, 98.82031
1182.469, 180.5352
1182.952, 268.3672
1183.434, 327.4023
1183.916, 320.8203
1184.398, 305.9023
1184.880, 291.5859
1185.362, 304.4023
1185.844, 400.8398
1186.326, 537.9062
1186.808, 604.5078
1187.291, 580.7266
1187.773, 579.4453
1188.255, 628.0469
1188.737, 681.8516
1189.219, 753.0977
1189.701, 802.8984
1190.183, 802.1758
1190.665, 787.1367
1191.147, 790.5625
1191.630, 813.3828
1192.112, 857.7773
1192.594, 930.6445
1193.076, 989.4180
1193.558, 1035.176
1194.040, 1067.117
1194.522, 1079.367
1195.004, 1103.074
1195.487, 1162.527
1195.969, 1222.355
1196.451, 1227.117
1196.933, 1197.762
1197.415, 1224.066
1197.897, 1297.641
1198.379, 1357.094
1198.861, 1402.094
1199.344, 1460.855
1199.826, 1537.086
1200.308, 1591.770
1200.790, 1596.867
1201.272, 1591.949
1201.754, 1635.418
1202.236, 1679.242
1202.718, 1618.832
1203.200, 1471.938
1203.682, 1368.887
1204.165, 1319.441
1204.647, 1265.438
1205.129, 1212.234
1205.611, 1183.691
1206.093, 1179.812
1206.575, 1147.270
1207.057, 1040.172
1207.539, 956.9258
1208.022, 974.5430
1208.504, 1014.723
1208.986, 1004.969
1209.468, 973.9883
1209.950, 968.4727
1210.432, 1021.992
1210.914, 1029.723
1211.396, 908.7031
1211.879, 841.6992
1212.361, 898.7109
1212.843, 960.9648
1213.325, 968.3320
1213.807, 933.0508
1214.289, 861.9219
1214.771, 763.0547
1215.253, 732.4219
1215.735, 775.6172
1216.218, 800.9023
1216.700, 802.3594
1217.182, 744.9922
1217.664, 622.9766
1218.146, 535.5078
1218.628, 549.5859
1219.110, 599.9609
1219.592, 594.9609
1220.074, 549.8516
1220.557, 535.3750
1221.039, 538.2031
1221.521, 570.0469
1222.003, 598.6953
1222.485, 586.7188
1222.967, 526.7891
1223.449, 476.1094
1223.931, 476.9922
1224.414, 486.6406
1224.896, 435.7734
1225.378, 379.2500
1225.860, 391.7109
1226.342, 402.9531
1226.824, 342.4375
1227.306, 243.5703
1227.788, 142.5391
1228.271, 63.63281
1228.753, 17.28906
1229.235, 37.41406
1229.717, 63.78125
1230.199, 77.74219
1230.681, 53.64062
1231.163, 1.054688
1231.645, 0.0000000E+00
##END=



