##NAMES=Calcioancylite-(Ce)
##RRUFFID=R130005
##IDEAL CHEMISTRY=(Ce,Ca,Sr)(CO_3_)(OH,H_2_O)
##LOCALITY=Mont Saint-Hilaire, Rouville RCM, Monteregie, Quebec, Canada
##OWNER=RRUFF
##SOURCE=Don Doell
##DESCRIPTION=Granular massive, green under sunlight, light red under microscope light, associated with albite and rhodochrosite
##STATUS=The identification of this mineral has been confirmed only by single crystal X-ray diffraction.
##URL=rruff.info/R130005
177.9805, 1648.236
178.4626, 1665.634
178.9448, 1681.658
179.4269, 1695.801
179.9090, 1709.116
180.3911, 1720.900
180.8732, 1731.933
181.3553, 1743.884
181.8375, 1758.394
182.3196, 1775.897
182.8017, 1791.502
183.2838, 1805.118
183.7659, 1817.408
184.2480, 1827.804
184.7301, 1836.749
185.2123, 1846.125
185.6944, 1858.034
186.1765, 1873.044
186.6586, 1884.463
187.1407, 1889.490
187.6228, 1892.994
188.1050, 1898.662
188.5871, 1906.828
189.0692, 1915.359
189.5513, 1922.442
190.0334, 1927.997
190.5155, 1932.327
190.9977, 1934.550
191.4798, 1935.955
191.9619, 1938.546
192.4440, 1942.963
192.9261, 1946.407
193.4082, 1943.989
193.8904, 1937.750
194.3725, 1934.377
194.8546, 1938.587
195.3367, 1946.602
195.8188, 1950.550
196.3009, 1948.336
196.7831, 1945.244
197.2652, 1944.849
197.7473, 1946.610
198.2294, 1949.438
198.7115, 1952.704
199.1936, 1956.569
199.6758, 1961.964
200.1579, 1970.525
200.6400, 1978.336
201.1221, 1982.210
201.6042, 1983.609
202.0863, 1986.115
202.5685, 1992.515
203.0506, 2002.592
203.5327, 2012.580
204.0148, 2022.486
204.4969, 2032.217
204.9790, 2040.584
205.4612, 2048.548
205.9433, 2058.476
206.4254, 2073.048
206.9075, 2092.662
207.3896, 2109.058
207.8717, 2119.872
208.3539, 2129.411
208.8360, 2138.045
209.3181, 2146.345
209.8002, 2155.125
210.2823, 2165.058
210.7644, 2176.065
211.2466, 2188.547
211.7287, 2203.370
212.2108, 2218.674
212.6929, 2233.956
213.1750, 2249.110
213.6571, 2264.454
214.1393, 2280.445
214.6214, 2297.510
215.1035, 2312.062
215.5856, 2321.026
216.0677, 2330.801
216.5498, 2345.617
217.0320, 2364.753
217.5141, 2384.094
217.9962, 2399.637
218.4783, 2410.736
218.9604, 2423.622
219.4425, 2441.034
219.9247, 2457.863
220.4068, 2470.132
220.8889, 2478.149
221.3710, 2486.030
221.8531, 2497.563
222.3352, 2513.020
222.8174, 2526.488
223.2995, 2536.256
223.7816, 2545.327
224.2637, 2556.911
224.7458, 2570.957
225.2279, 2582.980
225.7100, 2588.165
226.1922, 2587.410
226.6743, 2589.375
227.1564, 2595.133
227.6385, 2603.475
228.1206, 2614.586
228.6027, 2628.587
229.0849, 2641.185
229.5670, 2647.824
230.0491, 2650.523
230.5312, 2655.003
231.0133, 2663.322
231.4954, 2673.184
231.9776, 2681.971
232.4597, 2689.519
232.9418, 2697.139
233.4239, 2705.714
233.9060, 2714.933
234.3881, 2724.474
234.8703, 2734.735
235.3524, 2744.871
235.8345, 2753.473
236.3166, 2760.140
236.7987, 2767.116
237.2808, 2776.286
237.7630, 2786.217
238.2451, 2795.332
238.7272, 2802.864
239.2093, 2809.784
239.6914, 2818.058
240.1735, 2828.686
240.6557, 2837.500
241.1378, 2841.270
241.6199, 2843.219
242.1020, 2846.269
242.5841, 2851.456
243.0662, 2857.979
243.5484, 2865.086
244.0305, 2873.980
244.5126, 2880.012
244.9947, 2878.755
245.4768, 2875.935
245.9589, 2876.972
246.4410, 2883.869
246.9232, 2893.077
247.4053, 2898.433
247.8874, 2898.363
248.3695, 2897.986
248.8516, 2898.515
249.3337, 2898.953
249.8159, 2897.965
250.2980, 2895.232
250.7801, 2892.514
251.2622, 2893.261
251.7443, 2900.077
252.2264, 2904.370
252.7086, 2904.797
253.1907, 2903.257
253.6728, 2900.101
254.1549, 2895.781
254.6370, 2892.015
255.1191, 2891.636
255.6013, 2896.382
256.0834, 2900.968
256.5655, 2906.750
257.0476, 2911.382
257.5297, 2912.492
258.0118, 2910.079
258.4940, 2906.835
258.9761, 2906.539
259.4582, 2910.833
259.9403, 2914.013
260.4224, 2914.562
260.9045, 2915.421
261.3867, 2918.304
261.8688, 2923.431
262.3509, 2930.147
262.8330, 2938.151
263.3151, 2948.847
263.7972, 2955.332
264.2794, 2954.302
264.7615, 2952.686
265.2436, 2953.948
265.7257, 2958.338
266.2078, 2964.462
266.6899, 2971.078
267.1721, 2978.217
267.6542, 2985.614
268.1363, 2993.733
268.6184, 3001.640
269.1005, 3009.294
269.5826, 3016.407
270.0648, 3021.859
270.5469, 3024.110
271.0290, 3022.845
271.5111, 3027.823
271.9932, 3045.873
272.4753, 3062.061
272.9575, 3067.187
273.4396, 3064.710
273.9217, 3064.998
274.4038, 3075.527
274.8859, 3095.245
275.3680, 3110.923
275.8501, 3121.424
276.3322, 3130.292
276.8144, 3137.427
277.2965, 3143.845
277.7786, 3151.799
278.2607, 3162.798
278.7428, 3175.848
279.2249, 3186.681
279.7071, 3193.043
280.1892, 3200.343
280.6713, 3210.000
281.1534, 3221.497
281.6355, 3234.358
282.1176, 3248.634
282.5998, 3263.329
283.0819, 3275.311
283.5640, 3282.907
284.0461, 3291.500
284.5282, 3302.519
285.0103, 3315.108
285.4925, 3328.032
285.9746, 3340.918
286.4567, 3354.037
286.9388, 3367.936
287.4209, 3382.357
287.9030, 3398.081
288.3852, 3417.318
288.8673, 3437.015
289.3494, 3452.920
289.8315, 3463.991
290.3136, 3472.983
290.7957, 3482.863
291.2779, 3493.508
291.7600, 3506.007
292.2421, 3521.145
292.7242, 3537.796
293.2063, 3555.651
293.6884, 3574.661
294.1706, 3592.529
294.6527, 3606.383
295.1348, 3616.226
295.6169, 3628.816
296.0990, 3644.804
296.5811, 3663.320
297.0633, 3686.323
297.5454, 3712.925
298.0275, 3735.315
298.5096, 3746.192
298.9917, 3747.674
299.4738, 3755.286
299.9560, 3773.061
300.4381, 3793.055
300.9202, 3811.382
301.4023, 3828.185
301.8844, 3844.646
302.3665, 3861.465
302.8487, 3878.356
303.3308, 3894.436
303.8129, 3908.201
304.2950, 3923.651
304.7771, 3944.357
305.2592, 3968.241
305.7414, 3990.132
306.2235, 4008.257
306.7056, 4023.102
307.1877, 4034.453
307.6698, 4041.086
308.1519, 4049.657
308.6341, 4063.779
309.1162, 4080.922
309.5983, 4096.500
310.0804, 4109.123
310.5625, 4120.796
311.0446, 4134.536
311.5268, 4150.574
312.0089, 4164.530
312.4910, 4173.806
312.9731, 4181.331
313.4552, 4190.980
313.9373, 4203.348
314.4195, 4215.904
314.9016, 4227.170
315.3837, 4236.842
315.8658, 4242.566
316.3479, 4240.319
316.8300, 4236.741
317.3121, 4238.095
317.7943, 4244.201
318.2764, 4249.589
318.7585, 4250.318
319.2406, 4247.299
319.7227, 4245.800
320.2048, 4247.232
320.6870, 4248.756
321.1691, 4249.344
321.6512, 4248.881
322.1333, 4246.956
322.6154, 4243.443
323.0975, 4238.246
323.5797, 4231.109
324.0618, 4221.315
324.5439, 4211.530
325.0260, 4203.498
325.5081, 4195.999
325.9902, 4186.401
326.4724, 4173.642
326.9545, 4159.375
327.4366, 4146.029
327.9187, 4133.718
328.4008, 4121.408
328.8829, 4109.404
329.3651, 4097.099
329.8472, 4084.271
330.3293, 4070.873
330.8114, 4055.488
331.2935, 4035.888
331.7756, 4011.668
332.2578, 3989.131
332.7399, 3969.823
333.2220, 3951.355
333.7041, 3931.706
334.1862, 3911.076
334.6683, 3890.969
335.1505, 3872.915
335.6326, 3856.333
336.1147, 3837.636
336.5968, 3816.071
337.0789, 3793.317
337.5610, 3769.380
338.0432, 3744.717
338.5253, 3720.746
339.0074, 3698.282
339.4895, 3676.604
339.9716, 3653.682
340.4537, 3628.131
340.9359, 3604.110
341.4180, 3582.991
341.9001, 3563.600
342.3822, 3544.957
342.8643, 3526.860
343.3464, 3508.475
343.8286, 3488.628
344.3107, 3466.689
344.7928, 3444.895
345.2749, 3422.808
345.7570, 3401.340
346.2391, 3381.049
346.7213, 3362.156
347.2034, 3344.657
347.6855, 3329.107
348.1676, 3315.618
348.6497, 3300.321
349.1318, 3280.135
349.6140, 3261.559
350.0961, 3249.355
350.5782, 3241.161
351.0603, 3230.995
351.5424, 3215.193
352.0245, 3195.348
352.5067, 3178.120
352.9888, 3165.898
353.4709, 3153.358
353.9530, 3137.591
354.4351, 3122.074
354.9172, 3111.969
355.3994, 3108.898
355.8815, 3108.268
356.3636, 3102.034
356.8457, 3085.806
357.3278, 3072.705
357.8099, 3064.389
358.2920, 3057.597
358.7741, 3049.742
359.2563, 3040.866
359.7384, 3033.350
360.2205, 3029.937
360.7026, 3031.402
361.1847, 3029.370
361.6668, 3020.959
362.1490, 3012.317
362.6311, 3005.563
363.1132, 3000.055
363.5953, 2994.221
364.0774, 2986.988
364.5595, 2978.984
365.0417, 2973.039
365.5238, 2972.559
366.0059, 2969.369
366.4880, 2959.129
366.9701, 2947.594
367.4522, 2941.403
367.9344, 2942.390
368.4165, 2945.570
368.8986, 2942.467
369.3807, 2929.333
369.8628, 2920.226
370.3449, 2919.612
370.8271, 2919.512
371.3092, 2916.165
371.7913, 2909.331
372.2734, 2900.333
372.7555, 2889.578
373.2376, 2877.220
373.7198, 2867.574
374.2019, 2861.687
374.6840, 2857.553
375.1661, 2856.344
375.6482, 2855.923
376.1303, 2852.850
376.6125, 2844.992
377.0946, 2834.586
377.5767, 2826.733
378.0588, 2822.405
378.5409, 2817.859
379.0230, 2811.462
379.5052, 2804.785
379.9873, 2799.513
380.4694, 2795.936
380.9515, 2791.801
381.4336, 2784.076
381.9157, 2772.843
382.3979, 2763.427
382.8800, 2757.542
383.3621, 2752.446
383.8442, 2746.564
384.3263, 2739.913
384.8084, 2732.468
385.2906, 2722.602
385.7727, 2712.273
386.2548, 2706.686
386.7369, 2707.208
387.2190, 2707.608
387.7011, 2704.526
388.1833, 2699.005
388.6654, 2692.189
389.1475, 2684.051
389.6296, 2675.111
390.1117, 2664.911
390.5938, 2653.800
391.0760, 2645.022
391.5581, 2640.569
392.0402, 2637.824
392.5223, 2633.322
393.0044, 2627.100
393.4865, 2619.883
393.9687, 2610.902
394.4508, 2601.456
394.9329, 2594.019
395.4150, 2589.029
395.8971, 2584.394
396.3792, 2578.039
396.8614, 2570.164
397.3435, 2563.331
397.8256, 2557.812
398.3077, 2553.125
398.7898, 2549.698
399.2719, 2546.981
399.7540, 2543.062
400.2361, 2536.865
400.7183, 2529.029
401.2004, 2521.463
401.6825, 2514.614
402.1646, 2507.198
402.6467, 2497.309
403.1288, 2487.503
403.6110, 2481.322
404.0931, 2479.436
404.5752, 2479.034
405.0573, 2476.963
405.5394, 2473.021
406.0215, 2468.250
406.5037, 2461.988
406.9858, 2455.677
407.4679, 2449.605
407.9500, 2444.044
408.4321, 2439.748
408.9142, 2437.363
409.3964, 2436.057
409.8785, 2431.876
410.3606, 2419.882
410.8427, 2411.450
411.3248, 2410.625
411.8069, 2411.986
412.2891, 2410.152
412.7712, 2403.829
413.2533, 2395.763
413.7354, 2389.629
414.2175, 2385.983
414.6996, 2381.913
415.1818, 2375.280
415.6639, 2370.267
416.1460, 2370.109
416.6281, 2372.993
417.1102, 2374.415
417.5923, 2371.034
418.0745, 2364.529
418.5566, 2360.899
419.0387, 2361.844
419.5208, 2361.945
420.0029, 2358.805
420.4850, 2354.533
420.9672, 2351.161
421.4493, 2349.203
421.9314, 2347.321
422.4135, 2343.949
422.8956, 2339.183
423.3777, 2334.845
423.8599, 2331.331
424.3420, 2328.167
424.8241, 2323.944
425.3062, 2319.445
425.7883, 2317.616
426.2704, 2322.792
426.7526, 2329.957
427.2347, 2330.634
427.7168, 2324.393
428.1989, 2318.789
428.6810, 2318.048
429.1631, 2320.499
429.6453, 2321.983
430.1274, 2322.125
430.6095, 2322.121
431.0916, 2322.842
431.5737, 2323.779
432.0558, 2323.608
432.5380, 2321.834
433.0201, 2320.047
433.5022, 2320.294
433.9843, 2322.921
434.4664, 2324.717
434.9485, 2326.252
435.4307, 2326.329
435.9128, 2322.780
436.3949, 2316.799
436.8770, 2312.228
437.3591, 2311.340
437.8412, 2313.461
438.3234, 2316.082
438.8055, 2320.504
439.2876, 2323.771
439.7697, 2324.616
440.2518, 2324.839
440.7339, 2326.231
441.2160, 2329.088
441.6982, 2332.390
442.1803, 2335.001
442.6624, 2336.887
443.1445, 2338.429
443.6266, 2339.750
444.1087, 2340.594
444.5909, 2339.368
445.0730, 2337.895
445.5551, 2339.775
446.0372, 2347.280
446.5193, 2356.891
447.0014, 2360.113
447.4836, 2354.223
447.9657, 2350.061
448.4478, 2349.503
448.9299, 2351.402
449.4120, 2356.270
449.8941, 2363.598
450.3763, 2370.554
450.8584, 2374.922
451.3405, 2377.109
451.8226, 2378.382
452.3047, 2378.067
452.7868, 2378.543
453.2690, 2381.999
453.7511, 2386.934
454.2332, 2391.465
454.7153, 2395.532
455.1974, 2398.402
455.6795, 2398.111
456.1617, 2395.710
456.6438, 2396.008
457.1259, 2400.801
457.6080, 2407.855
458.0901, 2415.411
458.5722, 2423.640
459.0544, 2428.670
459.5365, 2425.825
460.0186, 2422.367
460.5007, 2426.265
460.9828, 2436.392
461.4649, 2444.431
461.9471, 2444.917
462.4292, 2439.839
462.9113, 2437.457
463.3934, 2438.310
463.8755, 2440.927
464.3576, 2446.266
464.8398, 2452.700
465.3219, 2458.912
465.8040, 2464.490
466.2861, 2469.097
466.7682, 2472.125
467.2503, 2473.276
467.7325, 2475.861
468.2146, 2481.069
468.6967, 2486.446
469.1788, 2491.206
469.6609, 2495.752
470.1430, 2501.012
470.6252, 2507.462
471.1073, 2513.837
471.5894, 2517.377
472.0715, 2517.073
472.5536, 2518.434
473.0357, 2524.539
473.5179, 2530.574
474.0000, 2533.247
474.4821, 2533.192
474.9642, 2533.632
475.4463, 2536.776
475.9284, 2541.584
476.4106, 2546.195
476.8927, 2550.765
477.3748, 2553.891
477.8569, 2553.308
478.3390, 2551.763
478.8211, 2553.677
479.3033, 2559.957
479.7854, 2566.933
480.2675, 2573.241
480.7496, 2578.878
481.2317, 2583.620
481.7138, 2587.379
482.1959, 2591.224
482.6780, 2596.534
483.1602, 2603.165
483.6423, 2607.378
484.1244, 2606.405
484.6065, 2606.156
485.0886, 2609.176
485.5707, 2614.536
486.0529, 2620.970
486.5350, 2627.996
487.0171, 2634.636
487.4992, 2639.040
487.9813, 2639.827
488.4634, 2642.288
488.9456, 2647.579
489.4277, 2653.148
489.9098, 2658.607
490.3919, 2663.303
490.8740, 2665.736
491.3561, 2664.566
491.8383, 2661.765
492.3204, 2663.346
492.8025, 2671.651
493.2846, 2677.867
493.7667, 2676.419
494.2488, 2674.953
494.7310, 2680.007
495.2131, 2691.175
495.6952, 2701.093
496.1773, 2703.084
496.6594, 2700.038
497.1415, 2700.323
497.6237, 2704.955
498.1058, 2708.723
498.5879, 2706.973
499.0700, 2703.278
499.5521, 2704.632
500.0342, 2713.035
500.5164, 2722.431
500.9985, 2731.296
501.4806, 2738.788
501.9627, 2742.427
502.4448, 2741.632
502.9269, 2741.220
503.4091, 2746.248
503.8912, 2757.011
504.3733, 2764.667
504.8554, 2768.122
505.3375, 2770.102
505.8196, 2770.367
506.3018, 2770.150
506.7839, 2771.309
507.2660, 2774.478
507.7481, 2778.616
508.2302, 2781.875
508.7123, 2783.369
509.1945, 2787.211
509.6766, 2797.277
510.1587, 2805.794
510.6408, 2808.641
511.1229, 2807.929
511.6050, 2808.062
512.0872, 2811.443
512.5693, 2816.012
513.0514, 2817.184
513.5335, 2814.110
514.0156, 2814.330
514.4977, 2820.986
514.9799, 2830.118
515.4620, 2839.163
515.9441, 2847.869
516.4262, 2854.954
516.9083, 2859.762
517.3904, 2862.750
517.8726, 2863.460
518.3547, 2862.189
518.8368, 2862.756
519.3189, 2867.506
519.8010, 2874.527
520.2831, 2879.245
520.7653, 2880.743
521.2474, 2883.167
521.7295, 2888.457
522.2116, 2894.062
522.6937, 2897.110
523.1758, 2897.952
523.6580, 2899.501
524.1401, 2903.948
524.6222, 2910.667
525.1043, 2916.588
525.5864, 2922.107
526.0685, 2926.054
526.5507, 2926.631
527.0328, 2926.893
527.5149, 2930.356
527.9970, 2936.717
528.4791, 2941.668
528.9612, 2940.300
529.4434, 2934.052
529.9255, 2931.981
530.4076, 2935.527
530.8897, 2939.954
531.3718, 2944.649
531.8539, 2948.518
532.3361, 2949.788
532.8182, 2947.765
533.3003, 2946.222
533.7824, 2948.331
534.2645, 2952.546
534.7466, 2955.135
535.2288, 2955.452
535.7109, 2956.646
536.1930, 2961.713
536.6751, 2969.758
537.1572, 2975.008
537.6393, 2975.702
538.1215, 2976.041
538.6036, 2977.181
539.0857, 2978.631
539.5678, 2979.731
540.0499, 2980.364
540.5320, 2980.919
541.0142, 2981.772
541.4963, 2982.915
541.9784, 2984.339
542.4604, 2985.905
542.9426, 2987.928
543.4247, 2991.377
543.9068, 2994.864
544.3889, 2996.583
544.8710, 2996.120
545.3531, 2995.058
545.8353, 2995.415
546.3174, 2996.978
546.7995, 2997.021
547.2816, 2994.672
547.7637, 2992.343
548.2458, 2991.481
548.7280, 2991.649
549.2101, 2992.392
549.6922, 2994.111
550.1743, 2995.393
550.6564, 2995.145
551.1385, 2993.874
551.6207, 2992.770
552.1028, 2992.108
552.5849, 2990.890
553.0670, 2987.897
553.5491, 2983.120
554.0313, 2980.091
554.5134, 2979.892
554.9955, 2979.890
555.4776, 2979.534
555.9597, 2978.906
556.4418, 2977.963
556.9240, 2976.774
557.4061, 2975.875
557.8882, 2976.235
558.3703, 2977.965
558.8524, 2977.401
559.3345, 2972.070
559.8167, 2967.961
560.2988, 2969.040
560.7809, 2971.404
561.2630, 2969.549
561.7451, 2961.710
562.2272, 2953.815
562.7094, 2951.925
563.1915, 2954.199
563.6736, 2954.292
564.1557, 2951.132
564.6378, 2947.458
565.1199, 2944.839
565.6021, 2943.380
566.0842, 2943.134
566.5663, 2946.294
567.0484, 2947.591
567.5305, 2943.613
568.0126, 2937.583
568.4948, 2934.037
568.9769, 2933.494
569.4590, 2932.408
569.9411, 2927.071
570.4232, 2917.877
570.9053, 2912.751
571.3875, 2916.462
571.8696, 2917.869
572.3517, 2913.418
572.8338, 2907.158
573.3159, 2902.667
573.7980, 2900.554
574.2802, 2899.483
574.7623, 2899.110
575.2444, 2898.910
575.7265, 2896.377
576.2086, 2890.982
576.6907, 2885.474
577.1729, 2881.237
577.6550, 2877.640
578.1371, 2873.249
578.6192, 2867.425
579.1013, 2863.600
579.5834, 2865.042
580.0656, 2867.991
580.5477, 2868.225
581.0298, 2865.556
581.5119, 2861.551
581.9940, 2856.954
582.4761, 2852.201
582.9583, 2848.769
583.4404, 2847.233
583.9225, 2846.192
584.4046, 2847.410
584.8867, 2847.555
585.3688, 2843.028
585.8510, 2835.264
586.3331, 2829.161
586.8152, 2828.164
587.2973, 2830.003
587.7794, 2829.557
588.2615, 2826.547
588.7437, 2823.113
589.2258, 2820.041
589.7079, 2816.336
590.1900, 2810.833
590.6721, 2803.818
591.1542, 2797.134
591.6364, 2791.004
592.1185, 2785.756
592.6006, 2782.000
593.0827, 2779.458
593.5648, 2777.760
594.0469, 2776.948
594.5291, 2775.241
595.0112, 2769.719
595.4933, 2758.904
595.9754, 2751.101
596.4575, 2748.248
596.9396, 2745.819
597.4218, 2742.388
597.9039, 2738.323
598.3860, 2733.970
598.8681, 2729.495
599.3502, 2725.778
599.8323, 2724.735
600.3145, 2726.168
600.7966, 2724.769
601.2787, 2719.482
601.7608, 2713.063
602.2429, 2704.642
602.7250, 2696.824
603.2072, 2695.110
603.6893, 2703.121
604.1714, 2708.266
604.6535, 2702.064
605.1356, 2690.009
605.6177, 2679.386
606.0999, 2671.271
606.5820, 2664.877
607.0641, 2659.860
607.5462, 2655.968
608.0283, 2652.001
608.5104, 2648.083
608.9926, 2643.944
609.4747, 2639.778
609.9568, 2635.259
610.4389, 2629.880
610.9210, 2623.907
611.4031, 2618.297
611.8853, 2613.913
612.3674, 2609.846
612.8495, 2603.863
613.3316, 2595.733
613.8137, 2588.001
614.2958, 2581.081
614.7780, 2574.997
615.2601, 2569.530
615.7422, 2564.728
616.2243, 2561.372
616.7064, 2562.089
617.1885, 2561.851
617.6707, 2556.717
618.1528, 2548.405
618.6349, 2540.252
619.1170, 2533.281
619.5991, 2526.841
620.0812, 2520.074
620.5634, 2512.839
621.0455, 2506.996
621.5276, 2504.583
622.0097, 2501.042
622.4918, 2494.820
622.9739, 2487.403
623.4561, 2480.066
623.9382, 2473.183
624.4203, 2467.000
624.9023, 2462.164
625.3845, 2458.154
625.8666, 2454.015
626.3487, 2449.852
626.8308, 2443.536
627.3129, 2432.577
627.7950, 2420.319
628.2772, 2414.065
628.7593, 2415.544
629.2414, 2413.713
629.7235, 2403.443
630.2056, 2392.473
630.6877, 2386.162
631.1699, 2383.522
631.6520, 2381.684
632.1341, 2379.353
632.6162, 2375.992
633.0983, 2370.364
633.5804, 2361.855
634.0626, 2354.036
634.5447, 2346.191
635.0268, 2340.226
635.5089, 2339.069
635.9910, 2339.440
636.4731, 2335.940
636.9553, 2326.651
637.4374, 2316.483
637.9195, 2308.187
638.4016, 2301.703
638.8837, 2297.624
639.3658, 2295.886
639.8480, 2293.361
640.3301, 2287.813
640.8122, 2280.194
641.2943, 2273.649
641.7764, 2269.083
642.2585, 2264.315
642.7407, 2258.692
643.2228, 2253.441
643.7049, 2250.075
644.1870, 2247.698
644.6691, 2243.937
645.1512, 2237.455
645.6334, 2229.608
646.1155, 2222.363
646.5976, 2215.728
647.0797, 2209.653
647.5618, 2204.095
648.0439, 2199.273
648.5261, 2195.911
649.0082, 2193.452
649.4903, 2190.215
649.9724, 2185.766
650.4545, 2181.020
650.9366, 2176.366
651.4188, 2171.596
651.9009, 2166.303
652.3830, 2160.567
652.8651, 2155.034
653.3472, 2150.187
653.8293, 2145.898
654.3115, 2141.543
654.7936, 2136.543
655.2757, 2132.881
655.7578, 2133.894
656.2399, 2133.617
656.7220, 2127.219
657.2042, 2116.618
657.6863, 2108.163
658.1684, 2105.561
658.6505, 2103.801
659.1326, 2096.798
659.6147, 2086.906
660.0969, 2081.425
660.5790, 2082.059
661.0611, 2083.336
661.5432, 2080.590
662.0253, 2074.091
662.5074, 2066.826
662.9896, 2055.744
663.4717, 2048.029
663.9538, 2047.877
664.4359, 2048.561
664.9180, 2043.455
665.4001, 2033.779
665.8823, 2026.639
666.3644, 2027.657
666.8465, 2031.550
667.3286, 2027.471
667.8107, 2015.722
668.2928, 2007.161
668.7750, 2005.050
669.2571, 2004.731
669.7392, 2002.518
670.2213, 1998.328
670.7034, 1992.590
671.1855, 1982.753
671.6677, 1974.494
672.1498, 1971.026
672.6319, 1969.250
673.1140, 1965.887
673.5961, 1960.538
674.0782, 1954.419
674.5604, 1948.200
675.0425, 1942.268
675.5246, 1938.489
676.0067, 1937.971
676.4888, 1934.513
676.9709, 1924.371
677.4531, 1913.780
677.9352, 1908.144
678.4173, 1906.245
678.8994, 1903.768
679.3815, 1898.972
679.8636, 1894.370
680.3458, 1892.278
680.8279, 1891.023
681.3100, 1887.813
681.7921, 1882.284
682.2742, 1875.913
682.7563, 1869.818
683.2385, 1863.989
683.7206, 1858.359
684.2027, 1853.077
684.6848, 1847.660
685.1669, 1839.969
685.6490, 1833.996
686.1312, 1834.568
686.6133, 1838.942
687.0954, 1838.666
687.5775, 1828.438
688.0596, 1816.386
688.5417, 1809.437
689.0239, 1806.238
689.5060, 1804.117
689.9881, 1802.532
690.4702, 1800.755
690.9523, 1797.962
691.4344, 1794.677
691.9166, 1793.588
692.3987, 1797.327
692.8808, 1799.053
693.3629, 1796.129
693.8450, 1793.349
694.3271, 1793.896
694.8093, 1796.983
695.2914, 1800.011
695.7735, 1801.698
696.2556, 1803.356
696.7377, 1807.090
697.2198, 1812.060
697.7020, 1815.574
698.1841, 1817.243
698.6662, 1816.963
699.1483, 1814.694
699.6304, 1810.405
700.1125, 1804.045
700.5947, 1798.196
701.0768, 1786.086
701.5589, 1762.082
702.0410, 1736.974
702.5231, 1717.228
703.0052, 1701.662
703.4874, 1686.211
703.9695, 1669.208
704.4516, 1652.265
704.9337, 1637.913
705.4158, 1625.648
705.8979, 1612.766
706.3801, 1598.953
706.8622, 1585.045
707.3442, 1570.834
707.8264, 1557.270
708.3085, 1547.098
708.7906, 1542.160
709.2727, 1535.660
709.7548, 1524.933
710.2369, 1514.613
710.7191, 1508.074
711.2012, 1503.750
711.6833, 1498.430
712.1654, 1490.945
712.6475, 1483.319
713.1296, 1478.100
713.6118, 1474.845
714.0939, 1470.799
714.5760, 1465.713
715.0581, 1461.176
715.5402, 1458.200
716.0223, 1455.949
716.5045, 1452.858
716.9866, 1448.673
717.4687, 1445.324
717.9508, 1444.582
718.4329, 1443.004
718.9150, 1437.642
719.3972, 1430.876
719.8793, 1425.826
720.3614, 1423.440
720.8435, 1423.287
721.3256, 1425.815
721.8077, 1430.047
722.2899, 1431.796
722.7720, 1430.725
723.2541, 1430.155
723.7362, 1431.674
724.2183, 1433.309
724.7004, 1432.792
725.1826, 1430.141
725.6647, 1426.632
726.1468, 1421.903
726.6289, 1416.835
727.1110, 1413.479
727.5931, 1408.933
728.0753, 1399.504
728.5574, 1385.205
729.0395, 1368.955
729.5216, 1352.496
730.0037, 1336.216
730.4858, 1321.549
730.9680, 1308.655
731.4501, 1292.773
731.9322, 1271.286
732.4143, 1250.629
732.8964, 1236.800
733.3785, 1228.484
733.8607, 1218.103
734.3428, 1204.266
734.8249, 1190.636
735.3070, 1177.312
735.7891, 1164.930
736.2712, 1153.979
736.7534, 1144.362
737.2355, 1135.722
737.7176, 1127.827
738.1997, 1120.557
738.6818, 1113.876
739.1639, 1107.720
739.6461, 1101.231
740.1282, 1094.227
740.6103, 1087.574
741.0924, 1081.959
741.5745, 1076.901
742.0566, 1071.377
742.5388, 1065.407
743.0209, 1058.968
743.5030, 1051.500
743.9851, 1044.145
744.4672, 1037.456
744.9493, 1031.300
745.4315, 1025.432
745.9136, 1019.796
746.3957, 1014.364
746.8778, 1009.297
747.3599, 1004.413
747.8420, 999.0823
748.3242, 993.2773
748.8063, 987.6625
749.2884, 982.4564
749.7705, 977.5286
750.2526, 972.6605
750.7347, 967.8625
751.2169, 963.3466
751.6990, 960.0490
752.1811, 955.8077
752.6632, 949.3099
753.1453, 942.2554
753.6274, 935.9453
754.1096, 930.5822
754.5917, 925.9310
755.0738, 921.9543
755.5559, 918.3811
756.0380, 915.3278
756.5201, 912.4354
757.0023, 907.7906
757.4844, 900.9492
757.9665, 894.4223
758.4486, 890.1826
758.9307, 887.3903
759.4128, 883.1121
759.8950, 875.1016
760.3771, 869.7047
760.8592, 869.3539
761.3413, 868.8824
761.8234, 866.1533
762.3055, 861.5805
762.7877, 855.4387
763.2698, 847.7054
763.7519, 841.0724
764.2340, 838.3810
764.7161, 837.6082
765.1982, 835.9949
765.6804, 833.3522
766.1625, 829.2736
766.6446, 823.4841
767.1267, 817.6210
767.6088, 814.1263
768.0909, 813.1437
768.5731, 810.0014
769.0552, 802.8661
769.5373, 796.5350
770.0194, 791.8845
770.5015, 788.5035
770.9836, 787.5074
771.4658, 787.9420
771.9479, 785.3678
772.4300, 775.7981
772.9121, 766.0656
773.3942, 761.4382
773.8763, 759.5311
774.3585, 756.8441
774.8406, 752.8858
775.3227, 748.5663
775.8048, 744.4142
776.2869, 740.5325
776.7690, 737.3576
777.2512, 735.1072
777.7333, 732.0671
778.2154, 727.9205
778.6975, 723.3394
779.1796, 717.9641
779.6617, 712.7069
780.1439, 709.4137
780.6260, 708.6320
781.1081, 707.1695
781.5902, 704.2267
782.0723, 700.3909
782.5544, 695.4882
783.0366, 690.1241
783.5187, 685.2437
784.0008, 681.0770
784.4829, 677.1703
784.9650, 673.0134
785.4471, 668.8514
785.9293, 665.5453
786.4114, 663.1163
786.8935, 661.0782
787.3756, 659.6630
787.8577, 657.4908
788.3398, 652.8513
788.8220, 646.1868
789.3040, 641.4094
789.7861, 640.2001
790.2682, 638.3502
790.7504, 635.5569
791.2325, 632.0350
791.7146, 627.2067
792.1967, 621.9005
792.6788, 617.7521
793.1609, 615.4377
793.6431, 613.6873
794.1252, 611.7607
794.6073, 609.4818
795.0894, 606.4404
795.5715, 602.6735
796.0536, 598.5566
796.5358, 594.1764
797.0179, 590.0837
797.5000, 587.2279
797.9821, 585.6937
798.4642, 582.7906
798.9464, 577.6384
799.4285, 572.6926
799.9106, 568.5880
800.3927, 564.8959
800.8748, 561.1476
801.3569, 557.5123
801.8391, 554.9584
802.3212, 555.0173
802.8033, 554.3481
803.2854, 550.0295
803.7675, 544.8046
804.2496, 542.5725
804.7318, 542.7437
805.2139, 541.6061
805.6960, 537.1041
806.1781, 531.2302
806.6602, 527.0193
807.1423, 524.3859
807.6245, 522.5808
808.1066, 521.8790
808.5887, 520.1951
809.0708, 515.8840
809.5529, 511.1345
810.0350, 509.6751
810.5172, 512.3727
810.9993, 512.5696
811.4814, 508.2940
811.9635, 504.0757
812.4456, 501.6032
812.9277, 499.4116
813.4099, 495.5524
813.8920, 490.4909
814.3741, 486.8383
814.8562, 486.3307
815.3383, 486.7994
815.8204, 486.3261
816.3026, 485.0545
816.7847, 483.0104
817.2668, 480.3383
817.7489, 478.0126
818.2310, 476.6009
818.7131, 475.7863
819.1953, 475.2017
819.6774, 475.1475
820.1595, 473.1753
820.6416, 467.8315
821.1237, 463.2782
821.6058, 461.4448
822.0880, 460.9257
822.5701, 460.4418
823.0522, 459.9514
823.5343, 459.0333
824.0164, 457.0805
824.4985, 455.3174
824.9807, 454.6592
825.4628, 454.2153
825.9449, 452.9454
826.4270, 450.8777
826.9091, 448.6820
827.3912, 446.7151
827.8734, 444.8256
828.3555, 442.6194
828.8376, 440.2828
829.3197, 438.6777
829.8018, 437.8900
830.2839, 437.3073
830.7661, 436.6823
831.2482, 435.9579
831.7303, 435.0352
832.2124, 433.9160
832.6945, 432.6115
833.1766, 430.8780
833.6588, 429.3239
834.1409, 428.2852
834.6230, 427.3181
835.1051, 426.2943
835.5872, 425.0569
836.0693, 422.9295
836.5515, 418.6563
837.0336, 415.1366
837.5157, 414.2486
837.9978, 414.7520
838.4799, 415.7523
838.9620, 416.7760
839.4442, 416.9341
839.9263, 415.8041
840.4084, 414.1914
840.8905, 413.3473
841.3726, 411.9255
841.8547, 411.7616
842.3369, 409.3993
842.8190, 407.3737
843.3011, 406.0934
843.7832, 405.7186
844.2653, 406.7864
844.7474, 409.2285
845.2296, 410.0114
845.7117, 407.7773
846.1938, 405.8382
846.6759, 403.9926
847.1580, 402.9709
847.6401, 403.9764
848.1223, 406.0170
848.6044, 406.8017
849.0865, 405.5028
849.5686, 404.0448
850.0507, 403.5480
850.5328, 403.3301
851.0150, 402.6596
851.4971, 401.6926
851.9792, 400.6931
852.4613, 399.8339
852.9434, 399.7363
853.4255, 401.4235
853.9077, 403.9902
854.3898, 404.3720
854.8719, 402.5724
855.3540, 400.6474
855.8361, 398.8540
856.3182, 397.7264
856.8004, 397.9268
857.2825, 398.9112
857.7646, 398.8906
858.2467, 397.1817
858.7288, 395.9433
859.2109, 395.8842
859.6931, 395.4539
860.1752, 393.5260
860.6573, 391.2568
861.1394, 390.1171
861.6215, 390.2322
862.1036, 390.4787
862.5858, 390.4150
863.0679, 390.3276
863.5500, 390.4811
864.0321, 390.6992
864.5142, 390.8742
864.9963, 390.8827
865.4785, 390.2794
865.9606, 388.7308
866.4427, 387.0456
866.9248, 386.7143
867.4069, 385.9048
867.8890, 385.3716
868.3712, 385.9313
868.8533, 385.3618
869.3354, 386.4449
869.8175, 387.7517
870.2996, 387.2250
870.7817, 384.8394
871.2639, 383.5373
871.7459, 383.8944
872.2280, 384.3210
872.7101, 384.5830
873.1923, 384.8245
873.6744, 385.3160
874.1565, 385.8288
874.6386, 385.7387
875.1207, 384.6860
875.6028, 383.8323
876.0850, 383.8793
876.5671, 383.9872
877.0492, 383.3262
877.5313, 382.3648
878.0134, 382.0099
878.4955, 382.4175
878.9777, 382.9222
879.4598, 382.9488
879.9419, 383.4654
880.4240, 383.2957
880.9061, 384.1191
881.3882, 384.6512
881.8704, 384.7911
882.3525, 384.7490
882.8346, 384.6470
883.3167, 384.4859
883.7988, 384.3154
884.2809, 384.1891
884.7631, 383.5241
885.2452, 381.8269
885.7273, 380.8380
886.2094, 381.4967
886.6915, 382.7730
887.1736, 383.6968
887.6558, 384.2544
888.1379, 384.3211
888.6200, 383.0000
889.1021, 382.4457
889.5842, 383.4521
890.0663, 384.9388
890.5485, 386.8878
891.0306, 388.5461
891.5127, 388.2272
891.9948, 385.3687
892.4769, 383.0324
892.9590, 383.1943
893.4412, 384.8340
893.9233, 387.8711
894.4054, 391.2612
894.8875, 392.5760
895.3696, 391.5809
895.8517, 390.4447
896.3339, 390.8042
896.8160, 391.9120
897.2981, 392.2546
897.7802, 391.9109
898.2623, 391.5565
898.7444, 391.2035
899.2266, 391.5831
899.7087, 393.2818
900.1908, 395.1909
900.6729, 395.5516
901.1550, 394.2614
901.6371, 393.7007
902.1193, 394.0487
902.6014, 394.8026
903.0835, 396.5280
903.5656, 397.9842
904.0477, 397.9576
904.5298, 397.0616
905.0120, 396.9287
905.4941, 398.0603
905.9762, 399.0136
906.4583, 399.2036
906.9404, 399.3710
907.4225, 399.9530
907.9047, 400.7885
908.3868, 401.6596
908.8689, 402.5112
909.3510, 403.3408
909.8331, 404.0292
910.3152, 404.8748
910.7974, 406.7119
911.2795, 408.7091
911.7616, 408.8778
912.2437, 407.4966
912.7258, 406.7403
913.2079, 407.6381
913.6901, 409.4465
914.1722, 411.5554
914.6543, 413.7173
915.1364, 414.1408
915.6185, 412.7278
916.1006, 412.6478
916.5828, 414.9988
917.0649, 417.4189
917.5470, 417.8339
918.0291, 416.8954
918.5112, 417.0471
918.9933, 418.9560
919.4755, 420.2418
919.9576, 420.3465
920.4397, 420.6302
920.9218, 421.8180
921.4039, 423.3348
921.8860, 424.5441
922.3682, 425.4530
922.8503, 426.4751
923.3324, 428.0974
923.8145, 429.2585
924.2966, 428.7618
924.7787, 428.4925
925.2609, 430.3628
925.7430, 433.5168
926.2251, 436.0152
926.7072, 437.2825
927.1893, 438.1461
927.6714, 439.0585
928.1536, 439.8974
928.6357, 440.0055
929.1178, 440.1429
929.5999, 442.3220
930.0820, 446.3813
930.5641, 449.6079
931.0463, 450.2021
931.5284, 449.5226
932.0105, 449.2552
932.4926, 449.5371
932.9747, 450.6646
933.4568, 452.7191
933.9390, 457.8555
934.4211, 467.3139
934.9032, 474.9464
935.3853, 473.3014
935.8674, 464.4085
936.3495, 460.3537
936.8317, 462.1384
937.3138, 464.5215
937.7959, 467.2838
938.2780, 469.7825
938.7601, 471.6964
939.2422, 473.1222
939.7244, 474.1148
940.2065, 474.4829
940.6886, 475.5139
941.1707, 477.8933
941.6528, 479.9669
942.1349, 481.3491
942.6171, 482.3856
943.0992, 483.1476
943.5813, 483.7974
944.0634, 484.5630
944.5455, 485.2673
945.0276, 486.9588
945.5098, 491.3961
945.9919, 495.4890
946.4740, 496.6120
946.9561, 496.4230
947.4382, 497.1917
947.9203, 499.1730
948.4025, 501.2999
948.8846, 502.8997
949.3667, 504.7266
949.8488, 508.0555
950.3309, 511.7683
950.8130, 514.1478
951.2952, 515.3002
951.7773, 515.7156
952.2594, 515.7013
952.7415, 516.4731
953.2236, 519.4379
953.7057, 523.7249
954.1878, 527.7513
954.6699, 531.3118
955.1520, 532.5221
955.6342, 531.1387
956.1163, 530.1172
956.5984, 530.9930
957.0805, 533.4144
957.5626, 537.1420
958.0447, 542.1510
958.5269, 545.2242
959.0090, 545.8017
959.4911, 546.8631
959.9732, 548.9516
960.4553, 551.9799
960.9374, 556.5373
961.4196, 561.5574
961.9017, 563.8411
962.3838, 562.0253
962.8659, 561.6493
963.3480, 562.8602
963.8301, 565.3323
964.3123, 570.7745
964.7944, 575.9305
965.2765, 577.1463
965.7586, 575.4338
966.2407, 575.7074
966.7228, 579.5950
967.2050, 583.4003
967.6871, 586.3275
968.1692, 588.9874
968.6513, 591.9824
969.1334, 594.7757
969.6155, 596.0632
970.0977, 596.0880
970.5798, 597.5276
971.0619, 602.7858
971.5440, 607.7574
972.0261, 609.2781
972.5082, 609.6657
972.9904, 611.0067
973.4725, 613.3859
973.9546, 616.6993
974.4367, 620.7687
974.9188, 624.4393
975.4009, 626.2609
975.8831, 627.7422
976.3652, 631.6115
976.8473, 636.4424
977.3294, 638.5525
977.8115, 638.2286
978.2936, 639.2012
978.7758, 643.2457
979.2579, 648.3978
979.7400, 652.5274
980.2221, 655.7073
980.7042, 657.7084
981.1863, 658.7242
981.6685, 660.2407
982.1506, 662.5497
982.6327, 665.9805
983.1148, 671.0145
983.5969, 675.9809
984.0790, 677.1028
984.5612, 674.3389
985.0433, 674.3987
985.5254, 677.7468
986.0075, 681.1881
986.4896, 683.8434
986.9717, 686.5615
987.4539, 690.0240
987.9360, 694.0790
988.4181, 698.3528
988.9002, 703.1349
989.3823, 706.9998
989.8644, 709.6104
990.3466, 711.9191
990.8287, 713.9049
991.3108, 716.0682
991.7929, 718.8421
992.2750, 722.2117
992.7571, 726.0943
993.2393, 731.2742
993.7214, 735.5470
994.2035, 738.7799
994.6856, 741.2625
995.1677, 741.9960
995.6498, 742.7950
996.1320, 746.0805
996.6141, 751.5209
997.0962, 755.9127
997.5783, 757.7711
998.0604, 759.9898
998.5425, 763.4180
999.0247, 767.2687
999.5068, 771.4100
999.9889, 775.4336
1000.471, 778.6058
1000.953, 780.9608
1001.435, 783.6123
1001.917, 787.1543
1002.399, 790.8688
1002.882, 794.3012
1003.364, 797.7701
1003.846, 801.5925
1004.328, 805.7127
1004.810, 810.2664
1005.292, 815.1635
1005.774, 819.3902
1006.256, 821.8214
1006.739, 824.0222
1007.221, 826.7502
1007.703, 830.6042
1008.185, 837.9537
1008.667, 847.0847
1009.149, 852.6240
1009.631, 852.9188
1010.113, 852.4776
1010.595, 855.1466
1011.078, 859.4646
1011.560, 863.6281
1012.042, 867.5945
1012.524, 870.9100
1013.006, 873.8519
1013.488, 877.8680
1013.970, 883.5909
1014.452, 890.0296
1014.935, 896.4562
1015.417, 902.4834
1015.899, 906.6912
1016.381, 909.5590
1016.863, 913.3807
1017.345, 918.4069
1017.827, 923.5780
1018.309, 928.3847
1018.791, 932.4082
1019.274, 934.5609
1019.756, 935.5806
1020.238, 939.3303
1020.720, 945.7131
1021.202, 952.6742
1021.684, 959.9421
1022.166, 966.2942
1022.648, 970.9167
1023.130, 974.7965
1023.613, 979.5394
1024.095, 985.0966
1024.577, 990.4437
1025.059, 995.4513
1025.541, 1001.266
1026.023, 1008.363
1026.505, 1015.114
1026.987, 1020.382
1027.469, 1025.001
1027.952, 1030.689
1028.434, 1037.608
1028.916, 1042.159
1029.398, 1043.526
1029.880, 1045.364
1030.362, 1048.118
1030.844, 1052.093
1031.326, 1057.733
1031.809, 1064.513
1032.291, 1071.562
1032.773, 1079.058
1033.255, 1085.203
1033.737, 1088.983
1034.219, 1093.787
1034.701, 1101.293
1035.183, 1108.317
1035.666, 1111.611
1036.148, 1113.634
1036.630, 1120.029
1037.112, 1132.093
1037.594, 1141.126
1038.076, 1145.045
1038.558, 1149.142
1039.040, 1154.379
1039.522, 1159.914
1040.005, 1164.605
1040.487, 1169.396
1040.969, 1176.730
1041.451, 1187.556
1041.933, 1195.984
1042.415, 1199.899
1042.897, 1204.277
1043.379, 1210.726
1043.861, 1217.241
1044.344, 1221.460
1044.826, 1225.177
1045.308, 1232.690
1045.790, 1245.266
1046.272, 1254.299
1046.754, 1255.169
1047.236, 1257.554
1047.718, 1264.262
1048.201, 1272.795
1048.683, 1282.663
1049.165, 1292.644
1049.647, 1300.472
1050.129, 1305.585
1050.611, 1311.712
1051.093, 1319.982
1051.575, 1328.711
1052.057, 1337.464
1052.540, 1346.420
1053.022, 1356.279
1053.504, 1366.219
1053.986, 1374.435
1054.468, 1380.646
1054.950, 1387.713
1055.432, 1396.866
1055.914, 1406.353
1056.396, 1415.687
1056.879, 1425.035
1057.361, 1434.652
1057.843, 1444.276
1058.325, 1453.579
1058.807, 1462.504
1059.289, 1471.012
1059.771, 1477.962
1060.253, 1486.039
1060.736, 1497.070
1061.218, 1508.862
1061.700, 1519.809
1062.182, 1530.382
1062.664, 1541.143
1063.146, 1552.321
1063.628, 1565.053
1064.110, 1580.368
1064.593, 1596.539
1065.075, 1613.965
1065.557, 1630.906
1066.039, 1645.078
1066.521, 1658.362
1067.003, 1673.412
1067.485, 1690.618
1067.967, 1709.377
1068.449, 1729.755
1068.932, 1751.124
1069.414, 1772.120
1069.896, 1795.101
1070.378, 1823.688
1070.860, 1854.410
1071.342, 1882.401
1071.824, 1907.380
1072.306, 1933.121
1072.788, 1960.944
1073.271, 1989.728
1073.753, 2019.120
1074.235, 2049.126
1074.717, 2080.522
1075.199, 2112.039
1075.681, 2141.540
1076.163, 2169.554
1076.645, 2199.474
1077.127, 2233.228
1077.610, 2266.777
1078.092, 2296.323
1078.574, 2327.375
1079.056, 2364.376
1079.538, 2404.735
1080.020, 2444.956
1080.502, 2485.572
1080.984, 2530.007
1081.467, 2579.649
1081.949, 2630.842
1082.431, 2688.745
1082.913, 2740.132
1083.395, 2778.534
1083.877, 2804.730
1084.359, 2820.425
1084.841, 2824.901
1085.323, 2815.047
1085.806, 2789.360
1086.288, 2756.101
1086.770, 2718.267
1087.252, 2674.369
1087.734, 2619.906
1088.216, 2561.684
1088.698, 2504.497
1089.180, 2449.161
1089.662, 2395.460
1090.145, 2342.915
1090.627, 2297.687
1091.109, 2261.583
1091.591, 2233.512
1092.073, 2214.949
1092.555, 2202.300
1093.037, 2195.117
1093.519, 2191.018
1094.002, 2185.673
1094.484, 2178.924
1094.966, 2177.101
1095.448, 2185.189
1095.930, 2194.089
1096.412, 2201.304
1096.894, 2207.886
1097.376, 2212.953
1097.859, 2218.827
1098.341, 2228.997
1098.823, 2243.171
1099.305, 2257.461
1099.787, 2270.765
1100.269, 2284.594
1100.751, 2301.815
1101.233, 2316.616
1101.715, 2323.831
1102.198, 2329.032
1102.680, 2338.687
1103.162, 2351.684
1103.644, 2361.783
1104.126, 2365.913
1104.608, 2374.240
1105.090, 2390.606
1105.572, 2408.765
1106.054, 2428.915
1106.537, 2447.900
1107.019, 2463.319
1107.501, 2475.712
1107.983, 2485.856
1108.465, 2492.905
1108.947, 2503.130
1109.429, 2520.415
1109.911, 2536.163
1110.394, 2546.114
1110.876, 2556.639
1111.358, 2572.315
1111.840, 2590.726
1112.322, 2607.882
1112.804, 2623.616
1113.286, 2639.606
1113.768, 2656.389
1114.250, 2672.425
1114.733, 2687.240
1115.215, 2701.721
1115.697, 2715.741
1116.179, 2730.093
1116.661, 2745.681
1117.143, 2762.450
1117.625, 2779.983
1118.107, 2798.717
1118.589, 2816.984
1119.072, 2834.385
1119.554, 2852.222
1120.036, 2871.873
1120.518, 2890.536
1121.000, 2905.017
1121.482, 2917.379
1121.964, 2933.805
1122.446, 2955.103
1122.929, 2975.304
1123.411, 2993.747
1123.893, 3013.659
1124.375, 3036.063
1124.857, 3059.101
1125.339, 3081.826
1125.821, 3103.859
1126.303, 3124.077
1126.786, 3142.663
1127.268, 3164.060
1127.750, 3188.985
1128.232, 3208.141
1128.714, 3219.118
1129.196, 3232.812
1129.678, 3254.301
1130.160, 3279.228
1130.642, 3302.836
1131.125, 3325.558
1131.607, 3348.597
1132.089, 3371.973
1132.571, 3395.379
1133.053, 3419.018
1133.535, 3445.185
1134.017, 3474.601
1134.499, 3501.333
1134.981, 3520.336
1135.464, 3536.262
1135.946, 3557.122
1136.428, 3582.169
1136.910, 3609.329
1137.392, 3638.069
1137.874, 3665.473
1138.356, 3691.555
1138.838, 3720.637
1139.321, 3755.088
1139.803, 3790.029
1140.285, 3821.164
1140.767, 3848.620
1141.249, 3869.693
1141.731, 3888.695
1142.213, 3915.768
1142.695, 3950.014
1143.177, 3985.505
1143.660, 4020.008
1144.142, 4052.729
1144.624, 4082.877
1145.106, 4112.065
1145.588, 4141.252
1146.070, 4171.154
1146.552, 4203.227
1147.034, 4236.463
1147.516, 4268.946
1147.999, 4300.591
1148.481, 4332.049
1148.963, 4363.329
1149.445, 4396.685
1149.927, 4433.734
1150.409, 4473.161
1150.891, 4515.204
1151.373, 4558.092
1151.856, 4599.674
1152.338, 4640.536
1152.820, 4683.289
1153.302, 4728.438
1153.784, 4770.857
1154.266, 4803.758
1154.748, 4841.158
1155.230, 4891.950
1155.713, 4943.903
1156.195, 4990.162
1156.677, 5032.851
1157.159, 5074.010
1157.641, 5114.716
1158.123, 5159.601
1158.605, 5211.485
1159.087, 5263.282
1159.569, 5315.634
1160.052, 5366.665
1160.534, 5414.166
1161.016, 5462.519
1161.498, 5514.849
1161.980, 5570.181
1162.462, 5626.642
1162.944, 5684.587
1163.426, 5740.287
1163.908, 5789.975
1164.391, 5849.112
1164.873, 5922.998
1165.355, 5995.585
1165.837, 6058.623
1166.319, 6119.458
1166.801, 6187.036
1167.283, 6259.669
1167.765, 6331.600
1168.247, 6402.775
1168.730, 6474.995
1169.212, 6548.136
1169.694, 6620.299
1170.176, 6690.625
1170.658, 6761.029
1171.140, 6832.454
1171.622, 6907.777
1172.104, 6995.014
1172.587, 7088.740
1173.069, 7169.751
1173.551, 7241.615
1174.033, 7316.562
1174.515, 7396.950
1174.997, 7485.117
1175.479, 7581.931
1175.961, 7680.799
1176.443, 7777.735
1176.926, 7872.239
1177.408, 7961.720
1177.890, 8049.808
1178.372, 8139.299
1178.854, 8232.752
1179.336, 8336.196
1179.818, 8448.888
1180.300, 8561.526
1180.782, 8670.576
1181.265, 8776.954
1181.747, 8877.541
1182.229, 8979.397
1182.711, 9085.277
1183.193, 9195.739
1183.675, 9311.901
1184.157, 9432.483
1184.639, 9556.296
1185.122, 9683.037
1185.604, 9811.318
1186.086, 9942.311
1186.568, 10073.16
1187.050, 10206.56
1187.532, 10335.95
1188.014, 10450.54
1188.496, 10566.45
1188.979, 10697.30
1189.461, 10840.82
1189.943, 10988.26
1190.425, 11140.33
1190.907, 11290.75
1191.389, 11438.78
1191.871, 11584.79
1192.353, 11725.43
1192.835, 11873.09
1193.318, 12034.34
1193.800, 12204.17
1194.282, 12376.54
1194.764, 12550.62
1195.246, 12719.89
1195.728, 12884.77
1196.210, 13058.34
1196.692, 13239.89
1197.174, 13423.11
1197.657, 13605.25
1198.139, 13779.07
1198.621, 13938.91
1199.103, 14102.59
1199.585, 14296.14
1200.067, 14506.48
1200.549, 14712.48
1201.031, 14915.31
1201.514, 15118.69
1201.996, 15322.92
1202.478, 15523.96
1202.960, 15723.58
1203.442, 15936.82
1203.924, 16179.53
1204.406, 16417.84
1204.888, 16615.33
1205.370, 16808.05
1205.853, 17026.63
1206.335, 17255.78
1206.817, 17472.77
1207.299, 17684.78
1207.781, 17918.17
1208.263, 18178.62
1208.745, 18435.96
1209.227, 18676.16
1209.709, 18920.57
1210.192, 19178.11
1210.674, 19438.46
1211.156, 19692.24
1211.638, 19950.19
1212.120, 20225.54
1212.602, 20513.82
1213.084, 20793.90
1213.566, 21062.54
1214.049, 21339.37
1214.531, 21627.29
1215.013, 21911.89
1215.495, 22190.88
1215.977, 22463.83
1216.459, 22728.23
1216.941, 22991.84
1217.423, 23263.16
1217.906, 23542.05
1218.388, 23830.49
1218.870, 24124.13
1219.352, 24397.84
1219.834, 24656.99
1220.316, 24939.63
1220.798, 25248.39
1221.280, 25536.32
1221.762, 25778.39
1222.245, 26013.34
1222.727, 26281.05
1223.209, 26561.82
1223.691, 26844.50
1224.173, 27118.18
1224.655, 27363.71
1225.137, 27587.33
1225.619, 27804.24
1226.101, 28014.54
1226.584, 28208.13
1227.066, 28377.98
1227.548, 28537.29
1228.030, 28689.05
1228.512, 28832.43
1228.994, 28962.82
1229.476, 29089.33
1229.958, 29229.70
1230.441, 29365.74
1230.923, 29462.40
1231.405, 29553.76
1231.887, 29625.31
1232.369, 29668.46
1232.851, 29717.69
1233.333, 29720.38
1233.815, 29731.87
1234.297, 29773.35
1234.780, 29806.84
1235.262, 29805.81
1235.744, 29776.33
1236.226, 29724.47
1236.708, 29655.38
1237.190, 29590.49
1237.672, 29528.01
1238.154, 29459.23
1238.636, 29383.24
1239.119, 29300.26
1239.601, 29210.38
1240.083, 29110.82
1240.565, 28998.13
1241.047, 28884.59
1241.529, 28788.79
1242.011, 28690.97
1242.493, 28562.80
1242.975, 28426.97
1243.458, 28315.56
1243.940, 28218.19
1244.422, 28108.89
1244.904, 27983.13
1245.386, 27852.58
1245.868, 27719.44
1246.350, 27584.28
1246.832, 27439.46
1247.315, 27302.51
1247.797, 27184.28
1248.279, 27069.41
1248.761, 26948.91
1249.243, 26822.13
1249.725, 26693.20
1250.207, 26534.99
1250.689, 26420.86
1251.172, 26274.94
1251.654, 26129.31
1252.136, 26016.11
1252.618, 25848.66
1253.100, 25745.43
1253.582, 25650.07
1254.064, 25524.71
1254.546, 25386.35
1255.028, 25258.91
1255.510, 25136.90
1255.993, 25011.19
1256.475, 24883.88
1256.957, 24765.57
1257.439, 24649.70
1257.921, 24512.72
1258.403, 24356.15
1258.885, 24213.54
1259.367, 24102.52
1259.850, 23995.94
1260.332, 23883.40
1260.814, 23769.66
1261.296, 23646.79
1261.778, 23533.19
1262.260, 23450.99
1262.742, 23382.03
1263.224, 23295.95
1263.707, 23194.81
1264.189, 23103.87
1264.671, 23025.73
1265.153, 22947.26
1265.635, 22867.05
1266.117, 22792.17
1266.599, 22722.78
1267.081, 22669.27
1267.563, 22638.16
1268.046, 22618.79
1268.528, 22601.75
1269.010, 22580.03
1269.492, 22523.93
1269.974, 22455.88
1270.456, 22439.77
1270.938, 22460.03
1271.420, 22466.27
1271.902, 22454.07
1272.385, 22447.81
1272.867, 22456.88
1273.349, 22469.64
1273.831, 22480.10
1274.313, 22491.22
1274.795, 22499.32
1275.277, 22514.69
1275.759, 22549.61
1276.242, 22591.46
1276.724, 22626.68
1277.206, 22656.61
1277.688, 22686.08
1278.170, 22714.41
1278.652, 22747.76
1279.134, 22784.04
1279.616, 22834.70
1280.099, 22903.63
1280.581, 22970.55
1281.063, 23027.28
1281.545, 23087.44
1282.027, 23163.24
1282.509, 23243.92
1282.991, 23310.32
1283.473, 23367.67
1283.955, 23431.93
##END=



