##NAMES=Calcioaravaipaite
##RRUFFID=R100033
##IDEAL CHEMISTRY=Pb^2+^Ca_2_AlF_9_
##LOCALITY=Grand Reef mine, Klondyke, Aravaipa District, Graham County, Arizona, USA
##OWNER=RRUFF
##SOURCE=Natural History Museum of Los Angeles County
##DESCRIPTION=Colorless fragments from type specimen, associated with artroeite R100034.  Photos of type specimen are courtesy of LACMNH. Same sample as used in the Kampf et al (2011) study.
##STATUS=The identification of this mineral has been confirmed by single-crystal X-ray diffraction.
##URL=rruff.info/R100033
93.46167, 0.0000000E+00
93.94379, 2.158035
94.42590, 1.947647
94.90802, 1.138901
95.39014, 1.285660
95.87225, 3.013870
96.35437, 3.860474
96.83649, 2.776169
97.31860, 1.136948
97.80072, 0.2761230
98.28284, 0.4800420
98.76495, 1.513702
99.24707, 2.216248
99.72919, 2.516876
100.2113, 2.614426
100.6934, 2.307373
101.1755, 1.774109
101.6577, 1.412750
102.1398, 2.033554
102.6219, 3.568420
103.1040, 4.199234
103.5861, 3.589539
104.0682, 2.815598
104.5504, 2.878922
105.0325, 3.992630
105.5146, 5.450821
105.9967, 6.070892
106.4788, 5.456635
106.9609, 4.921005
107.4431, 4.485718
107.9252, 4.129410
108.4073, 3.840805
108.8894, 3.626236
109.3715, 3.362289
109.8536, 2.597321
110.3358, 1.123459
110.8179, 0.1128230
111.3000, 0.4804080
111.7821, 6.3766003E-02
112.2642, 0.3758240
112.7463, 0.4280850
113.2285, 0.5396120
113.7106, 1.069290
114.1927, 2.099335
114.6748, 3.387650
115.1569, 4.567612
115.6390, 5.710800
116.1212, 6.461792
116.6033, 6.786270
117.0854, 6.908646
117.5675, 7.060959
118.0496, 7.826309
118.5317, 8.754745
119.0139, 9.614395
119.4960, 10.05006
119.9781, 10.75595
120.4602, 12.29289
120.9423, 14.38383
121.4244, 16.12355
121.9066, 16.42003
122.3887, 15.68571
122.8708, 15.32368
123.3529, 15.66621
123.8350, 15.84033
124.3171, 15.32393
124.7993, 14.18068
125.2814, 13.02356
125.7635, 12.55000
126.2456, 12.88991
126.7277, 12.98830
127.2098, 12.83678
127.6920, 12.49500
128.1741, 11.95500
128.6562, 11.18436
129.1383, 10.37215
129.6204, 9.795364
130.1025, 9.423660
130.5847, 9.006607
131.0668, 8.444122
131.5489, 7.754272
132.0310, 6.963379
132.5131, 5.846573
132.9952, 4.905090
133.4774, 4.631256
133.9595, 5.024734
134.4416, 5.501328
134.9237, 5.507111
135.4058, 4.966431
135.8879, 4.488846
136.3701, 4.209320
136.8522, 4.019943
137.3343, 3.996048
137.8164, 4.133789
138.2985, 4.148193
138.7806, 3.435593
139.2628, 1.200378
139.7449, 0.2798000
140.2270, 0.4155430
140.7091, 1.4816000E-02
141.1912, 0.2026520
141.6733, 8.8469997E-02
142.1555, 0.7107700
142.6376, 1.050446
143.1197, 0.6805730
143.6018, 0.4895320
144.0839, 0.7153780
144.5660, 1.167267
145.0482, 1.534393
145.5303, 1.630051
146.0124, 1.494888
146.4945, 1.429871
146.9766, 1.426315
147.4587, 1.484512
147.9409, 1.774170
148.4230, 2.199478
148.9051, 2.298157
149.3872, 1.563553
149.8693, 0.1966250
150.3514, 0.5674290
150.8336, 0.2876430
151.3157, 2.1484001E-02
151.7978, 5.1971000E-02
152.2799, 7.5484999E-02
152.7620, 0.4056850
153.2441, 1.104584
153.7263, 2.004471
154.2084, 2.848175
154.6905, 3.452042
155.1726, 3.947891
155.6547, 4.766922
156.1368, 6.346375
156.6190, 7.423309
157.1011, 6.834961
157.5832, 5.316345
158.0653, 4.310806
158.5474, 5.004593
159.0295, 7.235657
159.5117, 8.855316
159.9938, 9.414474
160.4759, 9.752533
160.9580, 10.09518
161.4401, 10.45804
161.9222, 10.81104
162.4044, 11.14729
162.8865, 11.48889
163.3686, 11.73979
163.8507, 11.75250
164.3328, 11.79562
164.8149, 12.06831
165.2971, 12.53400
165.7792, 12.94266
166.2613, 12.94371
166.7434, 12.16107
167.2255, 12.15134
167.7076, 13.80029
168.1898, 15.49141
168.6719, 15.77196
169.1540, 14.46913
169.6361, 12.92674
170.1182, 13.09862
170.6003, 16.16142
171.0825, 17.85551
171.5646, 16.93254
172.0467, 14.97307
172.5288, 13.77632
173.0109, 13.88132
173.4930, 14.60712
173.9752, 14.93364
174.4573, 14.88695
174.9394, 14.59366
175.4215, 13.91884
175.9036, 13.02480
176.3857, 12.28334
176.8679, 11.81152
177.3500, 11.50269
177.8321, 11.27707
178.3142, 11.16829
178.7963, 10.88875
179.2784, 9.967102
179.7606, 8.534180
180.2427, 7.792450
180.7248, 8.674881
181.2069, 9.857620
181.6890, 10.14760
182.1711, 9.434433
182.6533, 8.374207
183.1354, 7.566452
183.6175, 7.048752
184.0996, 6.515503
184.5817, 5.472137
185.0638, 4.664322
185.5460, 4.761093
186.0281, 5.874084
186.5102, 7.244659
186.9923, 7.798721
187.4744, 7.273773
187.9565, 6.589371
188.4387, 5.490631
188.9208, 4.513062
189.4029, 4.139725
189.8850, 4.493210
190.3671, 5.206482
190.8492, 5.593018
191.3314, 5.399597
191.8135, 5.283432
192.2956, 5.328812
192.7777, 5.434708
193.2598, 5.525848
193.7419, 5.572678
194.2241, 5.571243
194.7062, 5.509338
195.1883, 5.393524
195.6704, 5.199692
196.1525, 4.626709
196.6346, 4.064697
197.1168, 4.012360
197.5989, 4.685516
198.0810, 5.870483
198.5631, 6.841736
199.0452, 7.629654
199.5273, 8.136505
200.0095, 8.039566
200.4916, 7.685013
200.9737, 7.763748
201.4558, 8.661179
201.9379, 9.909973
202.4200, 10.13916
202.9022, 8.740646
203.3843, 7.626816
203.8664, 7.664948
204.3485, 8.539200
204.8306, 9.401627
205.3127, 9.905518
205.7949, 10.14331
206.2770, 10.35126
206.7591, 10.52490
207.2412, 10.79474
207.7233, 11.18100
208.2054, 11.65332
208.6876, 12.40398
209.1697, 13.87350
209.6518, 15.37804
210.1339, 15.77643
210.6160, 14.58797
211.0981, 13.55940
211.5803, 14.45427
212.0624, 17.27319
212.5445, 19.64525
213.0266, 20.19128
213.5087, 20.21535
213.9908, 21.03625
214.4730, 22.95137
214.9551, 25.01578
215.4372, 26.02672
215.9193, 25.77428
216.4014, 25.82953
216.8836, 26.95499
217.3657, 28.39456
217.8478, 29.68106
218.3299, 30.69537
218.8120, 31.61517
219.2941, 32.68375
219.7763, 33.95473
220.2584, 35.19341
220.7405, 36.44330
221.2226, 37.60272
221.7047, 38.46968
222.1868, 39.01367
222.6690, 39.59557
223.1511, 40.85309
223.6332, 43.17703
224.1153, 45.31927
224.5974, 47.24989
225.0795, 48.93097
225.5617, 50.32053
226.0438, 51.40997
226.5259, 52.23250
227.0080, 52.80890
227.4901, 52.90851
227.9722, 53.18126
228.4544, 53.64044
228.9365, 54.25658
229.4186, 55.04199
229.9007, 55.98511
230.3828, 57.02608
230.8649, 58.06580
231.3471, 59.11679
231.8292, 60.01808
232.3113, 60.80492
232.7934, 61.44133
233.2755, 61.77492
233.7576, 61.81815
234.2398, 61.92162
234.7219, 62.65366
235.2040, 64.74008
235.6861, 65.97398
236.1682, 65.67146
236.6503, 64.96486
237.1325, 64.91936
237.6146, 65.79683
238.0967, 67.03320
238.5788, 67.78828
239.0609, 67.77576
239.5430, 67.87314
240.0252, 68.26260
240.5073, 68.67752
240.9894, 68.74796
241.4715, 68.39769
241.9536, 68.07593
242.4357, 68.42027
242.9179, 69.59319
243.4000, 70.73906
243.8821, 71.91016
244.3642, 72.95509
244.8463, 73.63260
245.3284, 73.88312
245.8106, 74.02168
246.2927, 74.39395
246.7748, 75.00082
247.2569, 75.74161
247.7390, 76.87006
248.2211, 78.01355
248.7033, 78.53564
249.1854, 78.25081
249.6675, 78.07713
250.1496, 79.21893
250.6317, 81.46024
251.1138, 83.28995
251.5960, 84.04504
252.0781, 84.37521
252.5602, 85.30930
253.0423, 87.08269
253.5244, 88.59726
254.0065, 88.37863
254.4887, 87.05118
254.9708, 86.35107
255.4529, 87.21149
255.9350, 88.74078
256.4171, 89.72624
256.8992, 90.08022
257.3813, 90.13419
257.8635, 90.01862
258.3456, 89.76825
258.8277, 89.39993
259.3098, 88.81187
259.7919, 88.17232
260.2740, 87.84430
260.7562, 87.96692
261.2383, 87.79453
261.7204, 86.86951
262.2025, 85.38933
262.6846, 83.44583
263.1667, 80.88611
263.6489, 78.09128
264.1310, 75.52084
264.6131, 73.15932
265.0952, 71.08905
265.5773, 69.61740
266.0594, 68.36478
266.5416, 67.01933
267.0237, 65.53340
267.5058, 63.83603
267.9879, 61.76744
268.4700, 59.26974
268.9521, 56.69945
269.4343, 53.98615
269.9164, 51.34662
270.3985, 49.00131
270.8806, 47.01456
271.3627, 45.19850
271.8448, 43.37297
272.3270, 41.55283
272.8091, 39.59946
273.2912, 37.21616
273.7733, 34.85036
274.2554, 32.81750
274.7375, 31.15086
275.2197, 29.60158
275.7018, 27.86507
276.1839, 25.91281
276.6660, 23.99681
277.1481, 21.99030
277.6302, 20.16360
278.1124, 18.73901
278.5945, 17.69745
279.0766, 16.82368
279.5587, 16.03358
280.0408, 15.38626
280.5229, 14.27701
281.0051, 11.97614
281.4872, 9.804626
281.9693, 8.263763
282.4514, 7.349823
282.9335, 6.863052
283.4156, 6.869446
283.8978, 7.395920
284.3799, 7.113266
284.8620, 4.971497
285.3441, 3.039902
285.8262, 2.222473
286.3083, 2.177719
286.7905, 2.060532
287.2726, 1.191315
287.7547, 0.3088070
288.2368, 1.237244
288.7189, 1.152359
289.2010, 0.9716490
289.6832, 0.7982030
290.1653, 0.7218930
290.6474, 0.9137120
291.1295, 1.531540
291.6116, 2.387619
292.0938, 2.668625
292.5759, 1.788239
293.0580, 1.154846
293.5401, 1.153351
294.0222, 1.477188
294.5043, 1.816879
294.9865, 2.039154
295.4686, 2.142944
295.9507, 2.126266
296.4328, 1.989716
296.9149, 1.710144
297.3970, 1.173233
297.8792, 0.5785980
298.3613, 0.1052550
298.8434, 0.1954190
299.3255, 0.4056240
299.8076, 0.6310120
300.2897, 0.7751770
300.7719, 1.173218
301.2540, 1.986145
301.7361, 2.906921
302.2182, 3.817795
302.7003, 4.660645
303.1824, 5.366272
303.6646, 5.783478
304.1467, 5.732147
304.6288, 6.054306
305.1109, 6.960037
305.5930, 8.030655
306.0751, 9.199539
306.5573, 10.38390
307.0394, 11.42485
307.5215, 12.13869
308.0036, 12.49548
308.4857, 13.01508
308.9678, 13.99715
309.4500, 14.85229
309.9321, 15.28804
310.4142, 15.46773
310.8963, 15.74620
311.3784, 16.38257
311.8605, 17.32048
312.3427, 18.10396
312.8248, 18.63544
313.3069, 19.11685
313.7890, 19.62782
314.2711, 20.10118
314.7532, 20.42868
315.2354, 20.54933
315.7175, 20.54613
316.1996, 20.66301
316.6817, 21.02257
317.1638, 21.33408
317.6459, 21.67453
318.1281, 21.86894
318.6102, 21.68550
319.0923, 21.09886
319.5744, 20.41525
320.0565, 20.11870
320.5386, 20.44757
321.0208, 20.55267
321.5029, 20.11427
321.9850, 19.63170
322.4671, 19.48203
322.9492, 19.69000
323.4313, 19.96591
323.9135, 19.95236
324.3956, 19.58263
324.8777, 19.25504
325.3598, 19.17894
325.8419, 18.94858
326.3240, 18.25182
326.8062, 17.23827
327.2883, 16.32124
327.7704, 15.84151
328.2525, 15.77121
328.7346, 15.58640
329.2167, 15.23880
329.6989, 14.81589
330.1810, 14.18367
330.6631, 13.52556
331.1452, 13.15144
331.6273, 13.25920
332.1094, 13.65137
332.5916, 13.68301
333.0737, 13.04085
333.5558, 12.57216
334.0379, 12.40706
334.5200, 12.45892
335.0021, 12.73238
335.4843, 13.21600
335.9664, 13.70590
336.4485, 13.83308
336.9306, 13.43912
337.4127, 13.15172
337.8948, 13.28409
338.3770, 13.34261
338.8591, 12.78242
339.3412, 11.69548
339.8233, 10.86768
340.3055, 11.35045
340.7876, 13.34906
341.2697, 14.55122
341.7518, 14.13113
342.2339, 13.66969
342.7160, 13.78459
343.1982, 14.35353
343.6803, 15.00270
344.1624, 15.53561
344.6445, 15.93686
345.1266, 16.09622
345.6087, 15.81880
346.0909, 15.55623
346.5730, 15.59340
347.0551, 15.74771
347.5372, 15.75423
348.0193, 15.46938
348.5014, 15.08374
348.9836, 14.96579
349.4657, 15.19464
349.9478, 15.39943
350.4299, 15.67606
350.9120, 15.84560
351.3941, 15.64697
351.8763, 15.03581
352.3584, 14.40262
352.8405, 14.29202
353.3226, 14.73505
353.8047, 14.74734
354.2868, 13.81313
354.7690, 12.82761
355.2511, 12.38438
355.7332, 12.40956
356.2153, 12.51006
356.6974, 12.46646
357.1795, 12.28445
357.6617, 12.01425
358.1438, 11.64268
358.6259, 11.21288
359.1080, 10.53938
359.5901, 9.862793
360.0722, 9.641693
360.5544, 10.30905
361.0365, 11.18942
361.5186, 11.27808
362.0007, 10.48863
362.4828, 9.565994
362.9649, 8.659973
363.4471, 7.860901
363.9292, 7.326035
364.4113, 7.142181
364.8934, 6.897980
365.3755, 6.092636
365.8576, 4.874420
366.3398, 4.082794
366.8219, 3.990570
367.3040, 4.274094
367.7861, 4.814941
368.2682, 5.564636
368.7503, 5.782333
369.2325, 4.792755
369.7146, 3.193481
370.1967, 1.909470
370.6788, 0.9902500
371.1609, 0.5827480
371.6430, 1.224136
372.1252, 2.511856
372.6073, 3.081314
373.0894, 2.235229
373.5715, 1.025925
374.0536, 0.1667180
374.5357, 0.3560030
375.0179, 0.5907900
375.5000, 0.4231410
375.9821, 9.9013999E-02
376.4642, 0.2332760
376.9463, 1.034470
377.4284, 1.743439
377.9106, 2.171402
378.3927, 2.303848
378.8748, 2.034576
379.3569, 1.303131
379.8390, 0.4116060
380.3211, 0.2976680
380.8033, 0.8232570
381.2854, 1.112366
381.7675, 0.9322660
382.2496, 0.6756590
382.7317, 0.6545720
383.2138, 0.8762660
383.6960, 1.172348
384.1781, 1.430328
384.6602, 1.649094
385.1423, 1.827133
385.6244, 1.827866
386.1065, 1.943756
386.5887, 2.403641
387.0708, 3.018692
387.5529, 3.425308
388.0350, 3.453690
388.5171, 3.322433
388.9992, 3.527557
389.4814, 4.645309
389.9635, 5.192734
390.4456, 4.513306
390.9277, 3.707031
391.4098, 3.741791
391.8919, 4.695587
392.3741, 5.942642
392.8562, 6.868729
393.3383, 7.475250
393.8204, 7.754395
394.3025, 7.606476
394.7846, 7.263779
395.2668, 6.441010
395.7489, 5.517365
396.2310, 5.232620
396.7131, 6.077896
397.1952, 7.646378
397.6773, 8.508774
398.1595, 8.242584
398.6416, 7.929184
399.1237, 7.372772
399.6058, 7.033173
400.0879, 7.442963
400.5700, 8.667450
401.0522, 10.11652
401.5343, 11.12016
402.0164, 11.63571
402.4985, 11.91663
402.9806, 11.62634
403.4627, 11.42386
403.9449, 11.52740
404.4270, 11.94507
404.9091, 12.67426
405.3912, 13.86429
405.8733, 15.29063
406.3554, 16.17661
406.8376, 16.28146
407.3197, 16.45805
407.8018, 17.13063
408.2839, 18.00604
408.7660, 18.78592
409.2481, 19.39108
409.7303, 19.98244
410.2124, 20.72369
410.6945, 21.59578
411.1766, 22.55782
411.6587, 23.83744
412.1408, 24.93825
412.6230, 25.25655
413.1051, 24.92147
413.5872, 24.82870
414.0693, 25.48734
414.5514, 26.47849
415.0335, 27.15875
415.5157, 27.48697
415.9978, 27.86158
416.4799, 28.68115
416.9620, 29.67141
417.4441, 30.04875
417.9262, 29.29842
418.4084, 28.65825
418.8905, 28.87524
419.3726, 29.73347
419.8547, 30.83755
420.3368, 32.16740
420.8189, 33.34958
421.3011, 33.69910
421.7832, 33.06078
422.2653, 32.34477
422.7474, 31.44273
423.2295, 30.49631
423.7116, 29.62334
424.1938, 28.91895
424.6759, 28.55360
425.1580, 28.70349
425.6401, 29.33355
426.1222, 29.80371
426.6043, 30.30000
427.0865, 30.46788
427.5686, 29.98939
428.0507, 29.16256
428.5328, 28.42751
429.0149, 27.96068
429.4970, 27.68735
429.9792, 27.47325
430.4613, 27.34475
430.9434, 27.19914
431.4255, 27.00183
431.9076, 26.80840
432.3897, 26.81053
432.8719, 26.87479
433.3540, 26.52005
433.8361, 25.20154
434.3182, 23.14487
434.8003, 22.15310
435.2824, 23.04718
435.7646, 23.81274
436.2467, 24.08807
436.7288, 23.97460
437.2109, 23.46081
437.6930, 22.53517
438.1751, 21.58849
438.6573, 21.26319
439.1394, 21.63926
439.6215, 21.46869
440.1036, 20.17740
440.5857, 18.73737
441.0678, 17.60139
441.5500, 16.81658
442.0321, 16.50351
442.5142, 17.15471
442.9963, 18.14285
443.4784, 18.21275
443.9605, 17.25038
444.4427, 16.24216
444.9248, 15.56937
445.4069, 15.22243
445.8890, 15.24442
446.3711, 15.87134
446.8532, 16.20999
447.3354, 15.54117
447.8175, 14.25487
448.2996, 13.14709
448.7817, 12.37893
449.2638, 11.92229
449.7459, 11.90156
450.2281, 12.35126
450.7102, 12.30865
451.1923, 10.95545
451.6744, 9.794960
452.1565, 10.16898
452.6386, 11.58798
453.1208, 12.47851
453.6029, 11.99100
454.0850, 10.56020
454.5671, 9.386086
455.0492, 8.575562
455.5313, 7.900314
456.0135, 7.343964
456.4956, 6.929688
456.9777, 6.751884
457.4598, 6.771973
457.9419, 6.763138
458.4240, 6.484459
458.9062, 5.931160
459.3883, 5.546028
459.8704, 5.600159
460.3525, 5.515656
460.8346, 5.071823
461.3167, 4.454842
461.7989, 3.894730
462.2810, 3.475647
462.7631, 3.148132
463.2452, 2.844055
463.7273, 2.566521
464.2094, 2.287849
464.6916, 1.936996
465.1737, 1.652473
465.6558, 1.618187
466.1379, 1.742134
466.6200, 1.684227
467.1021, 1.027519
467.5843, 0.1716770
468.0664, 5.9013002E-02
468.5485, 0.8161470
469.0306, 1.391701
469.5127, 1.273827
469.9948, 0.7045290
470.4770, 1.5007000E-02
470.9591, 0.8958510
471.4412, 1.499329
471.9233, 1.294350
472.4054, 0.6605220
472.8875, 0.3286130
473.3697, 0.4428480
473.8518, 0.6009060
474.3339, 0.3917010
474.8160, 0.1742400
475.2981, 0.4258880
475.7802, 9.5504999E-02
476.2624, 0.2587050
476.7445, 0.3560710
477.2266, 0.3067170
477.7087, 0.3302690
478.1908, 0.5167770
478.6729, 0.8045650
479.1551, 1.120377
479.6372, 1.724464
480.1193, 1.700569
480.6014, 0.4828260
481.0835, 0.7678530
481.5656, 1.425758
482.0478, 1.550354
482.5299, 1.491669
483.0120, 1.478020
483.4941, 1.460503
483.9762, 1.202209
484.4583, 0.4039150
484.9405, 8.4380005E-03
485.4226, 0.5282060
485.9047, 1.227844
486.3868, 1.444206
486.8689, 1.115120
487.3510, 0.6930310
487.8332, 0.4972530
488.3153, 0.5183640
488.7974, 0.7444610
489.2795, 1.265266
489.7616, 1.768761
490.2437, 2.080498
490.7259, 2.246948
491.2080, 2.296394
491.6901, 2.140884
492.1722, 2.051605
492.6543, 2.295883
493.1364, 2.766479
493.6186, 3.151367
494.1007, 3.368683
494.5828, 3.504555
495.0649, 3.667023
495.5470, 3.863884
496.0291, 3.944321
496.5113, 3.645416
496.9934, 3.468987
497.4755, 3.807419
497.9576, 4.503532
498.4397, 5.188904
498.9218, 5.691750
499.4040, 6.014160
499.8861, 6.138840
500.3682, 5.901176
500.8503, 5.765007
501.3324, 5.532509
501.8145, 5.553085
502.2967, 6.282326
502.7788, 7.493538
503.2609, 8.450722
503.7430, 8.571472
504.2251, 8.133286
504.7072, 8.280975
505.1894, 9.385826
505.6715, 10.22465
506.1536, 10.10915
506.6357, 9.859703
507.1178, 10.13065
507.5999, 10.99525
508.0821, 12.04993
508.5642, 13.25968
509.0463, 14.42461
509.5284, 14.78511
510.0105, 14.09077
510.4926, 13.51144
510.9748, 13.82117
511.4569, 14.75768
511.9390, 15.66436
512.4211, 16.47932
512.9032, 17.30785
513.3853, 18.18729
513.8674, 19.11597
514.3495, 20.17744
514.8317, 21.39590
515.3138, 22.38404
515.7959, 22.61856
516.2780, 21.99548
516.7601, 22.30936
517.2422, 24.39906
517.7244, 26.32732
518.2065, 27.28027
518.6886, 27.72010
519.1707, 28.32334
519.6528, 29.33434
520.1349, 30.58227
520.6171, 31.83707
521.0992, 33.13456
521.5813, 34.29644
522.0634, 35.20132
522.5455, 36.08609
523.0276, 37.10541
523.5098, 38.15819
523.9919, 39.01274
524.4740, 39.52132
524.9561, 39.92618
525.4382, 40.62046
525.9203, 41.62249
526.4025, 42.61192
526.8846, 43.66455
527.3667, 44.41023
527.8488, 44.24181
528.3309, 43.32365
528.8130, 42.79153
529.2952, 43.36909
529.7773, 44.26324
530.2594, 44.78219
530.7415, 44.94200
531.2236, 44.95730
531.7057, 44.93112
532.1879, 44.87140
532.6700, 44.83663
533.1521, 44.93939
533.6342, 44.68234
534.1163, 43.95282
534.5984, 43.01079
535.0806, 41.69118
535.5627, 40.12170
536.0448, 38.89409
536.5269, 38.33733
537.0090, 38.30807
537.4911, 38.50631
537.9733, 39.56232
538.4554, 39.61941
538.9375, 37.38158
539.4196, 34.94425
539.9017, 33.70293
540.3839, 33.53212
540.8660, 33.35678
541.3481, 32.42855
541.8302, 31.04788
542.3123, 29.92130
542.7944, 29.09622
543.2766, 28.13850
543.7587, 26.57553
544.2408, 25.02598
544.7229, 24.52353
545.2050, 25.21254
545.6871, 25.58789
546.1693, 24.73374
546.6514, 23.56990
547.1335, 23.26425
547.6156, 23.74372
548.0977, 23.96040
548.5798, 23.21146
549.0620, 21.84670
549.5441, 21.05859
550.0262, 21.40839
550.5083, 21.60307
550.9904, 21.41019
551.4725, 21.19447
551.9547, 21.39840
552.4368, 21.90744
552.9189, 22.16849
553.4010, 21.70479
553.8831, 20.74517
554.3652, 20.21361
554.8474, 20.21573
555.3295, 20.39169
555.8116, 21.28353
556.2937, 21.86399
556.7758, 21.07133
557.2579, 18.97173
557.7401, 17.02391
558.2222, 16.06222
558.7043, 15.81202
559.1864, 16.07884
559.6685, 16.85698
560.1506, 17.00401
560.6328, 15.70894
561.1149, 13.68867
561.5970, 12.57799
562.0791, 12.71328
562.5612, 12.50260
563.0433, 11.24503
563.5255, 9.835739
564.0076, 9.000183
564.4897, 8.734421
564.9718, 8.723610
565.4539, 8.806290
565.9360, 8.867622
566.4182, 8.502808
566.9003, 7.456535
567.3824, 6.450203
567.8645, 5.474068
568.3466, 4.596573
568.8287, 3.715630
569.3109, 2.947014
569.7930, 2.726143
570.2751, 3.627632
570.7572, 4.922523
571.2393, 4.853012
571.7214, 3.279503
572.2036, 2.063484
572.6857, 1.910431
573.1678, 2.250023
573.6499, 2.503456
574.1320, 2.673607
574.6141, 2.599228
575.0963, 1.833420
575.5784, 1.125214
576.0605, 1.372192
576.5426, 2.281540
577.0247, 2.730362
577.5068, 2.162071
577.9890, 1.180962
578.4711, 0.9716490
578.9532, 2.112427
579.4353, 2.542404
579.9174, 1.688263
580.3995, 0.7904890
580.8817, 0.4359590
581.3638, 0.4855190
581.8459, 0.6129230
582.3280, 0.6746440
582.8101, 0.6653590
583.2922, 0.5366820
583.7744, 0.2738880
584.2565, 0.1200330
584.7386, 0.1487120
585.2207, 0.2313770
585.7029, 0.1152950
586.1850, 2.6420999E-02
586.6671, 0.3364490
587.1492, 1.980293
587.6313, 3.288437
588.1135, 2.594849
588.5956, 0.7190090
589.0777, 0.3356630
589.5598, 4.8935000E-02
590.0419, 0.6250610
590.5240, 0.6922300
591.0062, 0.1228330
591.4883, 0.3526150
591.9704, 1.333656
592.4525, 1.517075
592.9346, 0.4688260
593.4167, 2.887970
593.8989, 3.513359
594.3810, 2.000443
594.8631, 0.1290660
595.3452, 0.1452480
595.8273, 1.004234
596.3094, 1.519035
596.7916, 1.179237
597.2737, 0.7106860
597.7558, 0.2306820
598.2379, 0.1237410
598.7200, 0.1033940
599.2021, 0.3695680
599.6843, 0.7098310
600.1664, 0.4711610
600.6485, 5.4400000E-03
601.1306, 0.2478870
601.6127, 0.2317960
602.0948, 0.1303860
602.5770, 4.0817000E-02
603.0591, 6.3606001E-02
603.5412, 0.2639920
604.0233, 0.7554320
604.5054, 1.011284
604.9875, 0.9457700
605.4697, 0.7242360
605.9518, 0.3584670
606.4339, 7.1823001E-02
606.9160, 0.4305500
607.3981, 0.6517260
607.8802, 0.7157520
608.3624, 0.5166400
608.8445, 2.5940000E-03
609.3266, 0.3513490
609.8087, 0.3232120
610.2908, 0.3150480
610.7729, 0.8247220
611.2551, 1.609383
611.7372, 1.896614
612.2193, 0.9531250
612.7014, 0.1312640
613.1835, 0.8017650
613.6656, 2.250603
614.1478, 2.811836
614.6299, 2.081093
615.1120, 0.9788740
615.5941, 0.3789440
616.0762, 0.2818680
616.5583, 0.4958190
617.0405, 1.532074
617.5226, 2.233467
618.0047, 2.112961
618.4868, 1.754074
618.9689, 1.806786
619.4510, 2.311745
619.9332, 2.726845
620.4153, 2.487305
620.8974, 1.818993
621.3795, 1.498627
621.8616, 1.546600
622.3438, 2.018806
622.8259, 3.454269
623.3080, 4.919304
623.7901, 4.986618
624.2722, 3.573334
624.7543, 2.510345
625.2365, 2.536194
625.7186, 2.890312
626.2007, 2.934296
626.6828, 2.782295
627.1649, 2.856720
627.6470, 3.349388
628.1292, 4.048141
628.6113, 4.675797
629.0934, 5.265289
629.5755, 5.684822
630.0576, 5.524872
630.5397, 5.636757
631.0219, 6.569031
631.5040, 7.808952
631.9861, 8.614098
632.4682, 8.760025
632.9503, 8.744324
633.4324, 8.990181
633.9146, 9.445114
634.3967, 9.935028
634.8788, 10.43521
635.3609, 11.00464
635.8430, 11.73552
636.3251, 12.55793
636.8073, 13.23184
637.2894, 13.66138
637.7715, 14.17483
638.2536, 15.01631
638.7357, 15.80660
639.2178, 16.22975
639.7000, 16.33692
640.1821, 16.30640
640.6642, 16.21907
641.1463, 16.21397
641.6284, 16.65233
642.1105, 17.67151
642.5927, 18.48194
643.0748, 18.97065
643.5569, 19.14657
644.0390, 18.91324
644.5211, 18.49011
645.0032, 18.34145
645.4854, 18.70631
645.9675, 19.04610
646.4496, 19.00793
646.9317, 18.67404
647.4138, 18.22208
647.8959, 17.68292
648.3781, 17.10854
648.8602, 16.43891
649.3423, 15.69701
649.8244, 15.28449
650.3065, 15.83800
650.7886, 16.02009
651.2708, 15.43852
651.7529, 14.64330
652.2350, 13.95414
652.7171, 13.37126
653.1992, 12.76695
653.6813, 12.06337
654.1635, 11.36206
654.6456, 10.83533
655.1277, 10.41885
655.6098, 10.17237
656.0919, 10.23798
656.5740, 10.19106
657.0562, 9.590179
657.5383, 8.514954
658.0204, 7.644035
658.5025, 6.940292
658.9846, 6.466682
659.4667, 6.558456
659.9489, 6.724075
660.4310, 6.348808
660.9131, 5.449959
661.3952, 4.522331
661.8773, 3.894798
662.3594, 3.555908
662.8416, 3.555756
663.3237, 4.084167
663.8058, 4.247772
664.2879, 3.637650
664.7700, 2.874527
665.2521, 2.284676
665.7343, 1.872063
666.2164, 1.717735
666.6985, 2.072433
667.1806, 2.393700
667.6627, 2.176064
668.1448, 1.695313
668.6270, 1.540726
669.1091, 1.808296
669.5912, 2.054741
670.0733, 1.841087
670.5554, 1.270195
671.0375, 1.129745
671.5197, 1.798630
672.0018, 2.277229
672.4839, 2.521149
672.9660, 2.508850
673.4481, 2.032143
673.9302, 1.264381
674.4124, 0.7230830
674.8945, 0.7186510
675.3766, 0.9882200
675.8587, 1.251541
676.3408, 1.508484
676.8229, 1.853363
677.3051, 2.365707
677.7872, 2.568893
678.2693, 1.876556
678.7514, 0.4172970
679.2335, 0.3530580
679.7156, 2.5002001E-02
680.1978, 0.3629910
680.6799, 0.6878510
681.1620, 1.005707
681.6441, 1.445114
682.1262, 1.927650
682.6083, 2.189194
683.0905, 2.050484
683.5726, 1.633087
684.0547, 1.046410
684.5368, 0.2934720
685.0189, 0.1157070
685.5010, 6.7520002E-03
685.9832, 0.3046650
686.4653, 0.5269240
686.9474, 0.6775440
687.4295, 0.7856060
687.9116, 0.8050460
688.3937, 0.8479610
688.8759, 0.9591980
689.3580, 1.133324
689.8401, 1.436531
690.3222, 1.781822
690.8043, 1.794128
691.2864, 1.156418
691.7686, 0.2584080
692.2507, 0.1636960
692.7328, 1.062691
693.2149, 1.505379
693.6970, 0.9543690
694.1791, 0.4117360
694.6613, 0.7690730
695.1434, 1.648087
695.6255, 2.095367
696.1076, 1.780762
696.5897, 1.484329
697.0718, 1.726234
697.5540, 2.084229
698.0361, 2.034271
698.5182, 1.569786
699.0003, 0.9140170
699.4824, 0.1680450
699.9645, 0.4827420
700.4467, 0.5056080
700.9288, 0.3167500
701.4109, 0.9785610
701.8930, 1.510582
702.3751, 1.755341
702.8572, 1.373665
703.3394, 0.7530750
703.8215, 0.6650620
704.3036, 1.473381
704.7857, 1.961502
705.2678, 0.9577260
705.7499, 0.5272750
706.2321, 1.100861
706.7142, 0.7619970
707.1963, 0.1720470
707.6784, 0.3458480
708.1605, 0.8059770
708.6426, 1.223778
709.1248, 1.553642
709.6069, 2.021374
710.0890, 3.323605
710.5711, 3.914612
711.0532, 2.583385
711.5353, 0.5716440
712.0175, 0.4728050
712.4996, 0.2067910
712.9817, 0.3761900
713.4638, 0.8835640
713.9459, 1.214741
714.4280, 1.047070
714.9102, 0.5115170
715.3923, 0.3265040
715.8744, 0.8262440
716.3565, 1.539165
716.8386, 1.764179
717.3207, 1.428116
717.8029, 1.126400
718.2850, 0.6459160
718.7671, 0.4841270
719.2492, 1.130676
719.7313, 1.903996
720.2134, 2.104694
720.6956, 1.674110
721.1777, 1.089546
721.6598, 0.4392590
722.1419, 8.1263997E-02
722.6240, 0.1551280
723.1061, 0.1379200
723.5883, 0.4906430
724.0704, 0.8142010
724.5525, 1.183987
725.0346, 1.755878
725.5167, 2.506416
725.9988, 2.600903
726.4810, 1.233547
726.9631, 0.3741490
727.4452, 0.6166760
727.9273, 1.139462
728.4094, 1.355461
728.8915, 1.291283
729.3737, 1.230179
729.8558, 1.297909
730.3379, 1.421814
730.8200, 1.629108
731.3021, 1.829075
731.7842, 1.656712
732.2664, 1.050522
732.7485, 0.5205960
733.2306, 0.4756430
733.7127, 0.7736050
734.1948, 0.8396380
734.6769, 0.4164430
735.1591, 0.2333910
735.6412, 0.4779360
736.1233, 0.7768780
736.6054, 1.029957
737.0875, 1.145634
737.5696, 1.036785
738.0518, 0.6043010
738.5339, 0.2062610
739.0160, 0.1993520
739.4981, 0.3998030
739.9802, 0.4782680
740.4623, 0.4166370
740.9445, 0.2948950
741.4266, 0.1219140
741.9087, 3.2309999E-03
742.3908, 0.1860470
742.8729, 0.7844700
743.3550, 1.150299
743.8372, 1.150242
744.3193, 1.065430
744.8014, 0.9879260
745.2835, 0.8529470
745.7656, 0.4813840
746.2477, 0.1168060
746.7299, 0.4698940
747.2120, 0.1057130
747.6941, 0.4772950
748.1762, 0.7186130
748.6583, 0.6877820
749.1404, 0.5843930
749.6226, 0.4646220
750.1047, 0.4315450
750.5868, 0.6461260
751.0689, 1.048481
751.5510, 1.034199
752.0331, 0.1844980
752.5153, 0.2709270
752.9974, 0.2091670
753.4795, 0.8375050
753.9616, 1.182457
754.4437, 1.262039
754.9258, 1.204117
755.4080, 0.9761280
755.8901, 0.7554170
756.3722, 0.5895000
756.8543, 0.5391650
757.3364, 0.7723200
757.8185, 1.215229
758.3007, 1.609653
758.7828, 1.825516
759.2649, 1.873428
759.7470, 1.809566
760.2291, 1.565807
760.7112, 1.551128
761.1934, 1.973377
761.6755, 2.316101
762.1576, 2.210617
762.6397, 1.952126
763.1218, 1.937332
763.6039, 2.184288
764.0861, 2.318588
764.5682, 2.086456
765.0503, 1.926971
765.5324, 2.209942
766.0145, 2.771294
766.4966, 3.388351
766.9788, 3.959866
767.4609, 4.285404
767.9430, 4.084763
768.4251, 3.491871
768.9072, 3.182892
769.3893, 3.176540
769.8715, 3.313301
770.3536, 3.810307
770.8357, 4.260601
771.3178, 4.201752
771.7999, 3.712093
772.2820, 3.205585
772.7642, 2.583412
773.2463, 2.105160
773.7284, 1.940571
774.2105, 1.885578
774.6926, 1.796127
775.1747, 1.648319
775.6569, 1.408131
776.1390, 1.037941
776.6211, 0.7639810
777.1032, 1.092777
777.5853, 1.853333
778.0674, 1.933434
778.5496, 1.159264
779.0317, 0.5632550
779.5138, 0.7374840
779.9959, 1.218334
780.4780, 1.180088
780.9601, 0.3856430
781.4423, 0.1542470
781.9244, 0.9338150
782.4065, 1.687988
782.8886, 2.352203
783.3707, 2.660496
783.8528, 2.079651
784.3350, 0.7320020
784.8171, 0.3119350
785.2992, 0.2575680
785.7813, 0.2894820
786.2634, 0.6768880
786.7455, 0.8916240
787.2277, 0.8322450
787.7098, 0.4856680
788.1919, 0.1104160
788.6740, 0.1190950
789.1561, 0.1736180
789.6382, 0.1253010
790.1204, 1.158573
790.6025, 1.606186
791.0846, 0.7585600
791.5667, 2.7176000E-02
792.0488, 0.2221220
792.5309, 0.8477860
793.0131, 1.086502
793.4952, 0.7598420
793.9773, 0.4615250
794.4594, 0.4298320
794.9415, 0.5825500
795.4236, 0.9659350
795.9058, 1.450195
796.3879, 1.815308
796.8700, 1.980843
797.3521, 1.818993
797.8342, 1.021027
798.3163, 0.1589890
798.7985, 0.2007290
799.2806, 1.182442
799.7627, 1.966423
800.2448, 1.441895
800.7269, 0.6504750
801.2090, 0.4471280
801.6912, 0.7478490
802.1733, 1.032822
802.6554, 1.325119
803.1375, 1.561996
803.6196, 1.687729
804.1017, 1.773254
804.5839, 1.917633
805.0660, 2.106750
805.5481, 2.191422
806.0302, 2.100708
806.5123, 1.964157
806.9944, 1.890488
807.4766, 1.875481
807.9587, 1.932381
808.4408, 2.054253
808.9229, 2.123772
809.4050, 2.079788
809.8871, 2.077248
810.3693, 2.339401
810.8514, 2.907677
811.3335, 3.120682
811.8156, 2.766495
812.2977, 2.400078
812.7798, 1.895248
813.2620, 1.587730
813.7441, 1.858078
814.2262, 2.505539
814.7083, 2.934692
815.1904, 2.892120
815.6725, 2.869865
816.1547, 3.301750
816.6368, 3.813362
817.1189, 3.938820
817.6010, 3.739326
818.0831, 3.574944
818.5652, 3.594894
819.0474, 3.599762
819.5295, 3.245796
820.0116, 2.602394
820.4937, 2.329124
820.9758, 2.457710
821.4579, 2.763351
821.9401, 3.271034
822.4222, 3.756119
822.9043, 3.901253
823.3864, 3.732506
823.8685, 3.934059
824.3506, 5.019371
824.8328, 5.737625
825.3149, 5.680901
825.7970, 5.392303
826.2791, 5.194450
826.7612, 5.100800
827.2433, 5.025543
827.7255, 4.927727
828.2076, 4.924431
828.6897, 5.178818
829.1718, 5.559555
829.6539, 5.855568
830.1360, 6.068840
830.6182, 6.290405
831.1003, 6.554337
831.5824, 6.758438
832.0645, 6.726120
832.5466, 7.172760
833.0287, 6.791664
833.5109, 7.850655
833.9930, 8.644524
834.4751, 8.891792
834.9572, 8.893623
835.4393, 8.844772
835.9214, 8.743729
836.4036, 8.565605
836.8857, 8.213432
837.3678, 7.995636
837.8499, 7.865059
838.3320, 7.957588
838.8141, 8.703995
839.2963, 9.677299
839.7784, 10.03265
840.2605, 9.537216
840.7426, 8.913231
841.2247, 8.791626
841.7068, 8.989876
842.1890, 9.202171
842.6711, 9.404854
843.1532, 9.552734
843.6353, 9.636940
844.1174, 9.684311
844.5995, 9.741951
845.0817, 9.781631
845.5638, 9.634087
846.0459, 9.137833
846.5280, 8.915680
847.0101, 9.370934
847.4922, 9.656906
847.9744, 9.132286
848.4565, 8.241760
848.9386, 7.674477
849.4207, 7.544319
849.9028, 7.512161
850.3849, 7.475113
850.8671, 7.444061
851.3492, 7.601067
851.8313, 7.700630
852.3134, 7.323860
852.7955, 6.477837
853.2776, 5.559326
853.7598, 4.697495
854.2419, 4.044662
854.7240, 3.972595
855.2061, 4.349434
855.6882, 4.723740
856.1703, 5.030075
856.6525, 4.925621
857.1346, 4.134850
857.6167, 3.088257
858.0988, 2.679573
858.5809, 3.044342
859.0630, 3.094803
859.5452, 2.490555
860.0273, 2.224571
860.5094, 3.119316
860.9915, 4.074684
861.4736, 3.940315
861.9557, 2.865753
862.4379, 2.021606
862.9200, 1.615540
863.4021, 1.465973
863.8842, 1.654434
864.3663, 1.956757
864.8484, 2.281822
865.3306, 2.548248
865.8127, 2.560165
866.2948, 2.229141
866.7769, 1.900421
867.2590, 2.044083
867.7411, 1.818382
868.2233, 2.300430
868.7054, 1.816658
869.1875, 1.589432
869.6696, 1.812996
870.1517, 2.130020
870.6339, 2.227760
871.1160, 2.105461
871.5981, 1.669914
872.0802, 0.6942290
872.5623, 0.3055690
873.0444, 1.002636
873.5266, 1.614616
874.0087, 1.199402
874.4908, 0.4220660
874.9729, 0.6539920
875.4550, 2.190563
875.9371, 3.040005
876.4193, 2.493046
876.9014, 1.743919
877.3835, 0.9800720
877.8656, 0.4765890
878.3477, 0.7378080
878.8298, 1.567722
879.3120, 2.019630
879.7941, 1.463715
880.2762, 0.7927550
880.7583, 0.9799580
881.2404, 1.596657
881.7225, 1.875500
882.2047, 1.820297
882.6868, 1.826073
883.1689, 2.064377
883.6510, 2.315071
884.1331, 2.262512
884.6152, 1.965981
885.0974, 1.963852
885.5795, 2.343956
886.0616, 2.309731
886.5437, 1.462296
887.0258, 0.7127690
887.5079, 0.9543080
887.9901, 1.856918
888.4722, 2.070732
888.9543, 0.8599620
889.4364, 0.3693010
889.9185, 1.409622
890.4006, 2.216339
890.8828, 1.820236
891.3649, 0.9676280
891.8470, 0.5794910
892.3291, 0.7471620
892.8112, 0.9793780
893.2933, 1.283218
893.7755, 1.362404
894.2576, 0.6991500
894.7397, 8.7104999E-02
895.2218, 8.8379003E-02
895.7039, 0.5628810
896.1860, 1.062431
896.6682, 1.023621
897.1503, 0.7794040
897.6324, 0.6934740
898.1145, 0.7350850
898.5966, 0.8808900
899.0787, 1.100845
899.5609, 1.082634
900.0430, 0.7096100
900.5251, 0.3464810
901.0072, 0.3682020
901.4893, 0.6745990
901.9714, 0.7597810
902.4536, 0.5280380
902.9357, 0.4437790
903.4178, 0.6802440
903.8999, 0.8265000
904.3820, 0.5950470
904.8641, 0.1810000
905.3463, 4.9346998E-02
905.8284, 5.1208001E-02
906.3105, 0.2286680
906.7926, 0.9617690
907.2747, 1.420689
907.7568, 1.241722
908.2390, 0.7752530
908.7211, 9.4192997E-02
909.2032, 0.5853580
909.6853, 0.7143170
910.1674, 4.9125999E-02
910.6495, 0.7830920
911.1317, 0.7814520
911.6138, 0.5057980
912.0959, 0.3961940
912.5780, 0.4669190
913.0601, 0.7309800
913.5422, 1.153484
914.0244, 1.493721
914.5065, 1.555466
914.9886, 1.382950
915.4707, 0.9396900
915.9528, 0.3070070
916.4349, 2.0354999E-02
916.9171, 0.1560590
917.3992, 0.5068130
917.8813, 1.030571
918.3634, 1.426258
918.8455, 1.106152
919.3276, 2.2890000E-03
919.8098, 0.6084290
920.2919, 0.5827180
920.7740, 0.4300380
921.2561, 0.2245100
921.7382, 1.6113000E-02
922.2203, 0.3619460
922.7025, 0.7330250
923.1846, 0.8008350
923.6667, 0.2643890
924.1488, 8.2741000E-02
924.6309, 0.7897030
925.1130, 1.361290
925.5952, 1.275593
926.0773, 0.8287890
926.5594, 0.2914050
927.0415, 0.2480090
927.5236, 0.5963130
928.0057, 0.6708530
928.4879, 0.5326230
928.9700, 7.2710002E-03
929.4521, 0.5784000
929.9342, 0.7391590
930.4163, 0.5451890
930.8984, 0.1940310
931.3806, 0.2152180
931.8627, 0.5948870
932.3448, 0.7829590
932.8269, 0.9254380
933.3090, 1.459557
933.7911, 2.221611
934.2733, 2.458939
934.7554, 2.040665
935.2375, 1.346329
935.7196, 0.5725940
936.2017, 3.9108001E-02
936.6838, 0.1300350
937.1660, 1.132904
937.6481, 1.846397
938.1302, 2.250740
938.6123, 2.413040
939.0944, 2.297760
939.5765, 2.060303
940.0587, 1.821548
940.5408, 1.597031
941.0229, 1.506500
941.5050, 1.521347
941.9871, 1.722519
942.4692, 2.370300
942.9514, 2.910088
943.4335, 2.861977
943.9156, 2.727913
944.3977, 3.274567
944.8798, 4.525497
945.3619, 5.454208
945.8441, 5.708977
946.3262, 5.775978
946.8083, 5.580765
947.2904, 5.484932
947.7725, 6.044472
948.2546, 6.893234
948.7368, 7.085732
949.2189, 6.319824
949.7010, 5.703735
950.1831, 6.037224
950.6652, 6.811890
951.1473, 7.730194
951.6295, 8.615746
952.1116, 9.117035
952.5937, 9.243187
953.0758, 9.376328
953.5579, 9.749428
954.0400, 9.794159
954.5222, 10.19504
955.0043, 10.04481
955.4864, 10.05785
955.9685, 10.21383
956.4506, 10.17720
956.9327, 9.850845
957.4149, 9.785416
957.8970, 10.54173
958.3791, 11.76263
958.8612, 12.32939
959.3433, 12.19108
959.8254, 12.15262
960.3076, 12.29581
960.7897, 12.38761
961.2718, 12.30084
961.7539, 12.18071
962.2360, 12.25333
962.7181, 12.03520
963.2003, 12.40977
963.6824, 11.72525
964.1645, 11.26154
964.6466, 11.11251
965.1287, 11.11862
965.6108, 11.19785
966.0930, 11.44031
966.5751, 12.09366
967.0572, 13.21358
967.5393, 13.89345
968.0214, 13.79691
968.5035, 13.52857
968.9857, 13.11707
969.4678, 12.79527
969.9499, 12.85814
970.4320, 13.09060
970.9141, 12.95081
971.3962, 12.24909
971.8784, 11.69335
972.3605, 11.87498
972.8426, 12.06350
973.3247, 11.62488
973.8068, 10.99379
974.2889, 10.57887
974.7711, 10.50017
975.2532, 10.93493
975.7353, 12.03928
976.2174, 13.09104
976.6995, 13.46703
977.1816, 13.45465
977.6638, 13.20533
978.1459, 12.87165
978.6280, 12.80438
979.1101, 13.05875
979.5922, 13.43836
980.0743, 13.82084
980.5565, 14.14471
981.0386, 14.31075
981.5207, 14.36868
982.0028, 14.43045
982.4849, 14.46465
982.9670, 14.29411
983.4492, 13.88833
983.9313, 13.51680
984.4134, 13.42942
984.8955, 13.53070
985.3776, 13.52498
985.8597, 13.40485
986.3419, 13.36468
986.8240, 13.41709
987.3061, 13.56950
987.7882, 13.90216
988.2703, 14.15393
988.7524, 13.96810
989.2346, 13.38351
989.7167, 12.88439
990.1988, 12.48167
990.6809, 12.16096
991.1630, 12.05962
991.6451, 11.76110
992.1273, 10.92477
992.6094, 9.885651
993.0915, 9.043808
993.5736, 8.372742
994.0557, 8.308113
994.5378, 9.780495
995.0200, 10.50858
995.5021, 9.709457
995.9842, 8.714668
996.4663, 8.149055
996.9484, 7.891037
997.4305, 7.773048
997.9127, 7.804649
998.3948, 7.691216
998.8769, 7.187965
999.3590, 6.796722
999.8411, 6.694214
1000.323, 6.736427
1000.805, 6.916100
1001.287, 7.121262
1001.770, 7.099525
1002.252, 6.777321
1002.734, 6.603996
1003.216, 7.105682
1003.698, 7.416435
1004.180, 6.739609
1004.662, 5.814308
1005.144, 5.404594
1005.627, 5.496414
1006.109, 5.875717
1006.591, 6.491409
1007.073, 6.827110
1007.555, 6.145470
1008.037, 5.393471
1008.519, 5.749817
1009.001, 6.518616
1009.483, 6.454483
1009.966, 5.634193
1010.448, 4.999039
1010.930, 4.992409
1011.412, 5.197273
1011.894, 5.224174
1012.376, 5.195442
1012.858, 5.429993
1013.340, 5.727211
1013.823, 5.391273
1014.305, 4.475739
1014.787, 3.962395
1015.269, 4.435112
1015.751, 5.215454
1016.233, 5.420502
1016.715, 5.200638
1017.197, 4.817627
1017.679, 4.380966
1018.162, 4.433769
1018.644, 5.047920
1019.126, 5.732246
1019.608, 6.185387
1020.090, 6.375282
1020.572, 6.078857
1021.054, 5.415375
1021.536, 5.212059
1022.018, 5.463196
1022.501, 6.151657
1022.983, 7.328583
1023.465, 8.203583
1023.947, 8.171967
1024.429, 7.530342
1024.911, 6.815407
1025.393, 6.017830
1025.875, 5.709839
1026.358, 5.954155
1026.840, 6.161369
1027.322, 6.200905
1027.804, 6.043533
1028.286, 5.572662
1028.768, 5.073685
1029.250, 5.342445
1029.732, 6.529137
1030.214, 7.224106
1030.697, 7.226654
1031.179, 7.462524
1031.661, 8.423744
1032.143, 9.087532
1032.625, 8.448288
1033.107, 7.083908
1033.589, 6.714790
1034.071, 7.704063
1034.553, 7.961342
1035.036, 6.775551
1035.518, 6.395676
1036.000, 7.959633
1036.482, 9.734306
1036.964, 10.36481
1037.446, 10.13309
1037.928, 9.847191
1038.410, 9.458458
1038.893, 9.201500
1039.375, 9.110336
1039.857, 9.115250
1040.339, 9.064651
1040.821, 9.247368
1041.303, 10.12122
1041.785, 11.39890
1042.267, 12.17924
1042.750, 12.27306
1043.232, 12.35014
1043.714, 12.27206
1044.196, 12.26435
1044.678, 12.56516
1045.160, 12.85186
1045.642, 12.71857
1046.124, 12.45001
1046.606, 12.80138
1047.089, 14.10661
1047.571, 14.82638
1048.053, 14.30908
1048.535, 13.99557
1049.017, 14.42371
1049.499, 14.97691
1049.981, 14.98272
1050.463, 14.76331
1050.945, 15.22921
1051.428, 16.70473
1051.910, 17.69080
1052.392, 17.47261
1052.874, 17.22841
1053.356, 17.24501
1053.838, 17.47301
1054.320, 18.02106
1054.802, 18.70708
1055.285, 19.16463
1055.767, 19.31876
1056.249, 19.50317
1056.731, 19.71815
1057.213, 20.06596
1057.695, 20.63198
1058.177, 21.19751
1058.659, 21.62196
1059.141, 21.92610
1059.624, 22.19180
1060.106, 22.43621
1060.588, 22.50414
1061.070, 22.05354
1061.552, 21.82779
1062.034, 22.34579
1062.516, 22.95033
1062.998, 22.99264
1063.480, 22.80379
1063.963, 23.16453
1064.445, 24.12352
1064.927, 24.51695
1065.409, 23.52692
1065.891, 22.45602
1066.373, 21.86367
1066.855, 21.37051
1067.337, 20.40327
1067.820, 19.46534
1068.302, 19.62843
1068.784, 20.86419
1069.266, 21.53870
1069.748, 20.67704
1070.230, 19.76665
1070.712, 19.51564
1071.194, 19.40958
1071.677, 19.00317
1072.159, 18.51757
1072.641, 18.39811
1073.123, 18.61227
1073.605, 18.63056
1074.087, 18.31107
1074.569, 17.63921
1075.051, 16.05609
1075.533, 14.69902
1076.016, 14.62341
1076.498, 15.11874
1076.980, 15.28254
1077.462, 15.04967
1077.944, 14.71968
1078.426, 14.31190
1078.908, 14.10516
1079.390, 14.73927
1079.873, 15.05771
1080.355, 13.84080
1080.837, 12.20798
1081.319, 11.45965
1081.801, 11.51891
1082.283, 11.66763
1082.765, 11.70287
1083.247, 11.79445
1083.729, 12.18841
1084.212, 12.46439
1084.694, 12.43020
1085.176, 12.10836
1085.658, 11.35059
1086.140, 10.37565
1086.622, 9.635147
1087.104, 9.240379
1087.586, 9.086548
1088.068, 9.388275
1088.551, 9.580170
1089.033, 9.354851
1089.515, 8.930061
1089.997, 8.413292
1090.479, 7.869453
1090.961, 7.288177
1091.443, 6.700264
1091.925, 6.527977
1092.408, 7.531639
1092.890, 8.143112
1093.372, 7.391014
1093.854, 6.393684
1094.336, 5.920464
1094.818, 5.752296
1095.300, 5.549461
1095.782, 5.247620
1096.265, 4.807892
1096.747, 4.156822
1097.229, 3.495338
1097.711, 2.985924
1098.193, 2.376877
1098.675, 1.314674
1099.157, 0.2203140
1099.639, 0.5472340
1100.121, 0.8979340
1100.604, 0.6088030
1101.086, 0.6846770
1101.568, 1.629471
1102.050, 1.846863
1102.532, 1.680145
1103.014, 0.9817960
1103.496, 0.2222750
1103.978, 8.7204002E-02
1104.460, 0.6991420
1104.943, 0.5029600
1105.425, 1.412170
1105.907, 1.954178
1106.389, 1.963974
1106.871, 1.579590
1107.353, 0.1654050
1107.835, 0.9534450
1108.317, 0.5607300
1108.800, 0.6121670
1109.282, 1.289627
1109.764, 1.366302
1110.246, 1.496048
1110.728, 1.686432
1111.210, 2.003159
1111.692, 2.531967
1112.174, 3.091705
1112.656, 3.589951
1113.139, 4.072189
1113.621, 4.744019
1114.103, 5.538681
1114.585, 5.717194
1115.067, 4.850800
1115.549, 4.140335
1116.031, 3.683365
1116.513, 3.247375
1116.995, 2.692337
1117.478, 2.206894
1117.960, 1.998184
1118.442, 1.978210
1118.924, 1.868698
1119.406, 1.741364
1119.888, 1.198044
1120.370, 7.5668000E-02
1120.852, 1.076401
1121.335, 1.282394
1121.817, 1.749298
1122.299, 3.430161
1122.781, 5.478546
1123.263, 6.249130
1123.745, 5.701523
1124.227, 5.709976
1124.709, 6.303177
1125.192, 7.385757
1125.674, 9.102997
1126.156, 10.82375
1126.638, 12.31165
1127.120, 13.50519
1127.602, 14.19363
1128.084, 14.61340
1128.566, 16.04027
1129.048, 18.61967
1129.531, 20.92685
1130.013, 22.88361
1130.495, 24.80516
1130.977, 26.76233
1131.459, 28.81166
1131.941, 30.95799
1132.423, 33.27731
1132.905, 35.98975
1133.387, 39.05653
1133.870, 41.90752
1134.352, 44.57716
1134.834, 47.74637
1135.316, 51.53207
1135.798, 55.40315
1136.280, 59.08357
1136.762, 62.98679
1137.244, 67.79475
1137.727, 73.06558
1138.209, 77.14853
1138.691, 80.55020
1139.173, 85.35828
1139.655, 91.57664
1140.137, 98.07594
1140.619, 104.4792
1141.101, 111.1001
1141.583, 118.2692
1142.066, 125.2308
1142.548, 132.8319
1143.030, 139.9566
1143.512, 147.5347
1143.994, 155.4043
1144.476, 162.9270
1144.958, 170.1936
1145.440, 178.0956
1145.922, 187.1150
1146.405, 197.1306
1146.887, 208.5556
1147.369, 220.4225
1147.851, 231.6921
1148.333, 242.6702
1148.815, 253.3336
1149.297, 264.0828
1149.779, 275.7419
1150.262, 288.4650
1150.744, 301.8187
1151.226, 315.4186
1151.708, 329.5129
1152.190, 344.0260
1152.672, 359.2185
1153.154, 376.2212
1153.636, 393.6750
1154.119, 409.6768
1154.601, 424.2506
1155.083, 438.7048
1155.565, 453.4975
1156.047, 468.1010
1156.529, 482.2240
1157.011, 496.2246
1157.493, 510.4932
1157.975, 524.5357
1158.458, 537.8690
1158.940, 550.6735
1159.422, 563.5359
1159.904, 576.4740
1160.386, 588.1805
1160.868, 597.6752
1161.350, 607.1674
1161.832, 618.0318
1162.314, 627.4614
1162.797, 634.4637
1163.279, 639.3601
1163.761, 642.4918
1164.243, 643.9696
1164.725, 644.0287
1165.207, 642.4778
1165.689, 640.5782
1166.171, 638.6583
1166.654, 634.8461
1167.136, 628.2170
1167.618, 621.5308
1168.100, 617.1226
1168.582, 612.4405
1169.064, 602.9959
1169.546, 589.2240
1170.028, 575.3862
1170.510, 561.4979
1170.993, 545.4033
1171.475, 526.7588
1171.957, 509.2358
1172.439, 494.1717
1172.921, 479.2630
1173.403, 462.4049
1173.885, 443.9169
1174.367, 423.6977
1174.849, 402.5528
1175.332, 383.4814
1175.814, 366.2176
1176.296, 349.9871
1176.778, 334.1998
1177.260, 316.9217
1177.742, 297.2271
1178.224, 277.6891
1178.706, 260.4608
1179.189, 244.6307
1179.671, 229.3451
1180.153, 214.5878
1180.635, 200.7260
1181.117, 187.2975
1181.599, 173.4703
1182.081, 159.1916
1182.563, 145.0403
1183.046, 131.0063
1183.528, 118.3091
1184.010, 108.5243
1184.492, 99.41290
1184.974, 89.17294
1185.456, 79.06763
1185.938, 70.47342
1186.420, 63.12701
1186.902, 56.13190
1187.385, 49.36707
1187.867, 42.90594
1188.349, 36.60388
1188.831, 30.80316
1189.313, 25.82288
1189.795, 21.01489
1190.277, 15.54608
1190.759, 10.57037
1191.241, 7.641296
1191.724, 6.153442
1192.206, 3.702911
1192.688, 6.6924997E-02
1193.170, 3.807526
1193.652, 8.677246
1194.134, 11.13208
1194.616, 9.714813
1195.098, 8.526947
1195.581, 10.09378
1196.063, 12.34860
1196.545, 12.39905
1197.027, 10.75613
1197.509, 9.663605
1197.991, 9.046722
1198.473, 8.100739
1198.955, 6.723511
1199.438, 4.220520
1199.920, 0.5052490
1200.402, 3.101379
1200.884, 5.634094
1201.366, 8.207184
1201.848, 12.39218
1202.330, 17.61319
1202.812, 22.49686
1203.294, 27.66660
1203.776, 34.45071
1204.259, 42.72070
1204.741, 51.86411
1205.223, 61.60159
1205.705, 71.61087
1206.187, 81.60257
1206.669, 92.10614
1207.151, 103.3546
1207.633, 115.4120
1208.116, 128.0829
1208.598, 141.7849
1209.080, 157.3328
1209.562, 174.3318
1210.044, 191.5400
1210.526, 208.6082
1211.008, 227.2173
1211.490, 247.3935
1211.973, 269.8615
1212.455, 296.1421
1212.937, 323.0335
1213.419, 348.7997
1213.901, 374.8851
1214.383, 402.7216
1214.865, 431.8518
1215.347, 460.6200
1215.829, 488.6683
1216.312, 518.6441
1216.794, 550.7032
1217.276, 583.0503
1217.758, 615.4174
1218.240, 648.2554
1218.722, 682.2654
1219.204, 715.7661
1219.686, 747.1135
1220.168, 778.3290
1220.651, 806.9128
1221.133, 836.9141
1221.615, 864.9174
1222.097, 891.1828
1222.579, 917.5709
1223.061, 944.0468
1223.543, 967.7485
1224.025, 987.3071
1224.508, 1004.576
1224.990, 1022.370
1225.472, 1037.164
1225.954, 1044.703
1226.436, 1051.213
1226.918, 1049.890
1227.400, 1049.540
1227.882, 1042.813
1228.365, 1030.182
1228.847, 1015.393
1229.329, 1000.222
1229.811, 983.5081
1230.293, 965.0789
1230.775, 944.6303
1231.257, 921.2824
1231.739, 896.7525
1232.221, 871.2897
1232.703, 845.7941
1233.186, 822.0677
1233.668, 799.5324
1234.150, 773.9086
1234.632, 743.9022
1235.114, 716.6631
1235.596, 692.9572
1236.078, 668.6603
1236.560, 642.7405
1237.043, 617.3314
1237.525, 593.4448
1238.007, 571.5334
1238.489, 552.4185
1238.971, 531.0905
1239.453, 514.8668
1239.935, 493.2310
1240.417, 474.5569
1240.900, 458.7790
1241.382, 442.6735
1241.864, 426.3508
1242.346, 412.2089
1242.828, 401.4812
1243.310, 393.5464
1243.792, 389.2903
1244.274, 385.3175
1244.756, 378.3903
1245.239, 370.8960
1245.721, 364.7228
1246.203, 359.8336
1246.685, 355.9787
1247.167, 353.0544
1247.649, 350.9020
1248.131, 349.7010
1248.613, 348.5531
1249.095, 347.5894
1249.578, 346.2554
1250.060, 343.5014
1250.542, 341.9518
1251.024, 343.4435
1251.506, 346.0030
1251.988, 347.4150
1252.470, 347.7910
1252.952, 347.3178
1253.435, 345.9526
1253.917, 345.7903
1254.399, 346.7990
1254.881, 347.0549
1255.363, 346.2523
1255.845, 345.6861
1256.327, 345.9169
1256.809, 345.0452
1257.292, 340.7894
1257.774, 335.6593
1258.256, 333.5685
1258.738, 332.3987
1259.220, 329.5839
1259.702, 325.1697
1260.184, 319.0922
1260.666, 311.8521
1261.148, 304.9872
1261.630, 298.9299
1262.113, 290.9915
1262.595, 277.8163
1263.077, 266.1376
1263.559, 259.0982
1264.041, 252.5027
1264.523, 244.8808
1265.005, 236.2191
1265.487, 226.4267
1265.970, 215.6907
1266.452, 204.4082
1266.934, 192.5496
1267.416, 180.9733
1267.898, 169.6171
1268.380, 159.0188
1268.862, 149.2746
1269.344, 139.6141
1269.827, 129.7144
1270.309, 119.0220
1270.791, 106.9370
1271.273, 95.41074
1271.755, 87.89648
1272.237, 82.32156
1272.719, 74.80133
1273.201, 66.54523
1273.683, 59.66519
1274.166, 53.99139
1274.648, 48.99139
1275.130, 44.35562
1275.612, 39.28070
1276.094, 33.39185
1276.576, 27.40842
1277.058, 21.00229
1277.540, 15.46313
1278.022, 11.67578
1278.505, 8.550385
1278.987, 5.484650
1279.469, 2.711365
1279.951, 0.3951420
1280.433, 1.325958
1280.915, 1.820740
1281.397, 0.7574770
1281.879, 0.2121280
1282.362, 0.2410890
1282.844, 0.2239380
1283.326, 1.022400
1283.808, 2.119507
1284.290, 4.424011
1284.772, 4.077728
1285.254, 2.023102
1285.736, 0.0000000E+00
##END=



