##NAMES=Cannizzarite
##RRUFFID=R060609
##IDEAL CHEMISTRY=Pb^2+^_8_Bi^3+^_10_S^2-^_23_
##LOCALITY=Kudryavy volcano, Iturup, Kuril Islands, Russia
##OWNER=RRUFF
##SOURCE=Michael Scott
##DESCRIPTION=Gray metallic thin platy crystals
##STATUS=The identification of this mineral is not yet confirmed.
##URL=rruff.info/R060609
96.458, 0.000
96.940, 3.545
97.422, 6.726
97.904, 8.386
98.386, 3.425
98.869, 1.225
99.351, 2.319
99.833, 4.569
100.315, 9.762
100.797, 9.372
101.279, 6.818
101.761, 7.421
102.243, 15.277
102.726, 19.661
103.208, 14.635
103.690, 4.930
104.172, 0.635
104.654, 2.772
105.136, 12.288
105.618, 19.208
106.100, 23.775
106.582, 26.143
107.064, 25.613
107.547, 22.685
108.029, 23.702
108.511, 21.389
108.993, 18.773
109.475, 18.044
109.957, 16.581
110.439, 13.064
110.921, 12.071
111.404, 17.011
111.886, 19.428
112.368, 20.143
112.850, 22.219
113.332, 22.465
113.814, 24.192
114.296, 25.935
114.778, 25.047
115.260, 20.620
115.743, 16.213
116.225, 14.367
116.707, 14.036
117.189, 13.473
117.671, 12.055
118.153, 9.825
118.635, 6.221
119.117, 1.644
119.600, 5.976
120.082, 0.580
120.564, 13.818
121.046, 23.439
121.528, 19.554
122.010, 3.388
122.492, 6.425
122.974, 5.977
123.456, 2.332
123.939, 3.799
124.421, 10.921
124.903, 15.265
125.385, 10.998
125.867, 3.986
126.349, 11.927
126.831, 3.743
127.313, 4.751
127.796, 5.577
128.278, 0.922
128.760, 7.967
129.242, 7.008
129.724, 5.572
130.206, 15.216
130.688, 19.800
131.170, 23.239
131.652, 28.572
132.135, 35.998
132.617, 42.604
133.099, 43.239
133.581, 31.357
134.063, 26.440
134.545, 33.979
135.027, 44.142
135.509, 48.907
135.992, 46.204
136.474, 40.272
136.956, 39.110
137.438, 45.832
137.920, 53.515
138.402, 65.634
138.884, 76.978
139.366, 82.079
139.848, 78.860
140.331, 70.078
140.813, 62.398
141.295, 54.293
141.777, 49.329
142.259, 50.125
142.741, 53.444
143.223, 55.060
143.705, 52.983
144.188, 48.780
144.670, 47.513
145.152, 51.566
145.634, 55.596
146.116, 58.220
146.598, 60.408
147.080, 63.747
147.562, 69.094
148.044, 60.884
148.527, 73.623
149.009, 81.286
149.491, 84.146
149.973, 67.794
150.455, 76.266
150.937, 74.800
151.419, 72.933
151.901, 84.919
152.383, 71.399
152.866, 83.180
153.348, 84.872
153.830, 91.191
154.312, 87.617
154.794, 87.123
155.276, 96.625
155.758, 100.570
156.240, 95.794
156.723, 102.440
157.205, 88.622
157.687, 92.766
158.169, 104.643
158.651, 100.318
159.133, 98.084
159.615, 97.348
160.097, 97.324
160.579, 100.180
161.062, 101.957
161.544, 98.395
162.026, 89.947
162.508, 83.151
162.990, 81.871
163.472, 85.637
163.954, 90.688
164.436, 100.122
164.919, 108.511
165.401, 110.154
165.883, 105.134
166.365, 100.240
166.847, 100.097
167.329, 103.586
167.811, 106.734
168.293, 108.132
168.775, 109.711
169.258, 115.397
169.740, 105.249
170.222, 115.069
170.704, 120.039
171.186, 120.429
171.668, 102.505
172.150, 108.242
172.632, 104.504
173.115, 100.383
173.597, 109.466
174.079, 94.233
174.561, 103.117
175.043, 102.381
175.525, 106.056
176.007, 100.197
176.489, 97.279
176.971, 95.518
177.454, 94.740
177.936, 95.958
178.418, 98.566
178.900, 101.112
179.382, 100.963
179.864, 95.808
180.346, 88.005
180.828, 81.007
181.311, 74.497
181.793, 71.351
182.275, 77.021
182.757, 86.817
183.239, 93.514
183.721, 94.330
184.203, 90.775
184.685, 84.986
185.167, 75.305
185.650, 68.190
186.132, 70.275
186.614, 76.902
187.096, 82.650
187.578, 86.444
188.060, 88.078
188.542, 86.427
189.024, 80.085
189.507, 75.894
189.989, 81.428
190.471, 90.954
190.953, 96.731
191.435, 95.889
191.917, 90.420
192.399, 81.820
192.881, 68.704
193.363, 57.946
193.846, 53.864
194.328, 54.273
194.810, 57.397
195.292, 64.806
195.774, 72.764
196.256, 75.274
196.738, 71.267
197.220, 66.224
197.702, 61.158
198.185, 57.187
198.667, 56.369
199.149, 61.254
199.631, 67.371
200.113, 68.020
200.595, 62.191
201.077, 55.456
201.559, 43.500
202.042, 57.841
202.524, 65.805
203.006, 67.734
203.488, 45.539
203.970, 54.507
204.452, 50.995
204.934, 46.977
205.416, 60.350
205.898, 41.694
206.380, 54.800
206.863, 55.233
207.345, 61.473
207.827, 55.156
208.309, 52.724
208.791, 62.865
209.273, 66.051
209.755, 58.306
210.238, 64.944
210.720, 45.896
211.202, 49.396
211.684, 62.627
212.166, 55.535
212.648, 62.423
213.130, 63.992
213.612, 41.374
214.094, 60.831
214.577, 62.098
215.059, 44.687
215.541, 62.715
216.023, 47.888
216.505, 44.795
216.987, 50.533
217.469, 47.074
217.951, 58.127
218.434, 55.208
218.916, 51.045
219.398, 52.336
219.880, 38.190
220.362, 52.697
220.844, 49.552
221.326, 38.300
221.808, 32.599
222.290, 33.010
222.773, 35.985
223.255, 40.511
223.737, 46.119
224.219, 49.956
224.701, 50.910
225.183, 50.265
225.665, 50.068
226.147, 50.445
226.629, 48.981
227.112, 40.618
227.594, 28.732
228.076, 25.899
228.558, 38.443
229.040, 54.323
229.522, 60.629
230.004, 58.063
230.486, 53.969
230.969, 51.274
231.451, 49.357
231.933, 46.797
232.415, 43.285
232.897, 39.336
233.379, 34.240
233.861, 28.431
234.343, 25.819
234.825, 30.612
235.307, 38.507
235.790, 42.056
236.272, 39.700
236.754, 37.301
237.236, 41.353
237.718, 50.374
238.200, 56.884
238.682, 58.898
239.165, 57.947
239.647, 54.520
240.129, 48.523
240.611, 43.695
241.093, 43.490
241.575, 47.147
242.057, 49.811
242.539, 49.922
243.021, 49.369
243.503, 50.389
243.986, 53.027
244.468, 55.011
244.950, 54.695
245.432, 52.427
245.914, 50.729
246.396, 48.651
246.878, 47.992
247.361, 50.847
247.843, 56.324
248.325, 60.965
248.807, 62.793
249.289, 62.504
249.771, 62.865
250.253, 64.962
250.735, 66.333
251.217, 65.183
251.699, 62.697
252.182, 54.462
252.664, 66.757
253.146, 74.204
253.628, 77.091
254.110, 61.165
254.592, 69.417
255.074, 67.769
255.556, 65.724
256.039, 77.282
256.521, 63.878
257.003, 75.196
257.485, 76.622
257.967, 82.581
258.449, 76.709
258.931, 69.035
259.413, 63.064
259.896, 62.789
260.378, 68.595
260.860, 75.592
261.342, 77.618
261.824, 72.047
262.306, 68.938
262.788, 67.505
263.270, 68.270
263.752, 74.779
264.234, 85.576
264.717, 93.745
265.199, 92.117
265.681, 77.880
266.163, 71.273
266.645, 82.365
267.127, 90.671
267.609, 84.236
268.091, 67.880
268.574, 54.743
269.056, 54.908
269.538, 67.226
270.020, 74.944
270.502, 72.510
270.984, 71.011
271.466, 59.991
271.948, 53.862
272.431, 45.327
272.913, 54.865
273.395, 60.019
273.877, 61.088
274.359, 45.629
274.841, 51.467
275.323, 48.726
275.805, 45.634
276.287, 49.766
276.770, 44.082
277.252, 40.467
277.734, 36.696
278.216, 32.434
278.698, 29.490
279.180, 28.881
279.662, 27.932
280.144, 25.381
280.626, 21.104
281.109, 17.192
281.591, 16.011
282.073, 17.713
282.555, 19.733
283.037, 22.610
283.519, 24.977
284.001, 26.424
284.483, 26.805
284.966, 25.835
285.448, 21.881
285.930, 15.673
286.412, 13.211
286.894, 17.187
287.376, 20.942
287.858, 19.335
288.340, 14.390
288.823, 10.526
289.305, 10.898
289.787, 12.689
290.269, 10.574
290.751, 3.741
291.233, 1.212
291.715, 1.698
292.197, 8.211
292.679, 10.187
293.161, 3.731
293.644, 3.860
294.126, 6.252
294.608, 4.170
295.090, 2.649
295.572, 4.043
296.054, 6.913
296.536, 8.168
297.018, 7.047
297.501, 6.380
297.983, 8.156
298.465, 11.034
298.947, 12.791
299.429, 12.966
299.911, 10.998
300.393, 4.962
300.875, 7.203
301.358, 15.551
301.840, 16.359
302.322, 14.099
302.804, 12.942
303.286, 13.378
303.768, 13.583
304.250, 11.584
304.732, 6.926
305.214, 4.124
305.697, 3.866
306.179, 4.775
306.661, 6.565
307.143, 8.276
307.625, 9.736
308.107, 10.834
308.589, 11.430
309.071, 10.445
309.553, 5.979
310.036, 2.005
310.518, 1.715
311.000, 4.394
311.482, 4.643
311.964, 1.913
312.446, 2.141
312.928, 3.771
313.410, 0.784
313.892, 0.008
314.375, 3.321
314.857, 7.817
315.339, 11.887
315.821, 14.799
316.303, 16.137
316.785, 14.851
317.267, 10.697
317.750, 6.592
318.232, 1.807
318.714, 1.954
319.196, 4.638
319.678, 5.828
320.160, 4.427
320.642, 2.796
321.124, 12.822
321.606, 14.711
322.089, 4.654
322.571, 3.956
323.053, 1.753
323.535, 5.628
324.017, 10.523
324.499, 10.073
324.981, 7.710
325.463, 6.925
325.945, 7.685
326.428, 8.272
326.910, 7.675
327.392, 6.715
327.874, 6.367
328.356, 6.407
328.838, 7.730
329.320, 13.252
329.802, 19.904
330.284, 20.542
330.767, 12.735
331.249, 3.574
331.731, 2.231
332.213, 10.357
332.695, 15.102
333.177, 12.698
333.659, 8.792
334.141, 8.405
334.624, 11.169
335.106, 12.408
335.588, 7.767
336.070, 2.112
336.552, 3.941
337.034, 11.619
337.516, 23.524
337.998, 23.849
338.480, 17.465
338.963, 11.323
339.445, 8.552
339.927, 8.776
340.409, 11.805
340.891, 23.223
341.373, 27.262
341.855, 16.726
342.337, 4.052
342.819, 1.973
343.302, 0.006
343.784, 5.938
344.266, 12.804
344.748, 20.977
345.230, 25.633
345.712, 25.305
346.194, 22.674
346.677, 17.501
347.159, 11.013
347.641, 5.546
348.123, 1.689
348.605, 0.172
349.087, 3.984
349.569, 15.168
350.051, 24.180
350.533, 25.441
351.016, 22.604
351.498, 19.338
351.980, 15.696
352.462, 13.196
352.944, 13.253
353.426, 15.321
353.908, 17.471
354.390, 19.352
354.872, 21.182
355.355, 23.954
355.837, 27.999
356.319, 28.145
356.801, 20.152
357.283, 9.852
357.765, 1.938
358.247, 2.499
358.729, 3.126
359.211, 1.139
359.694, 10.087
360.176, 15.365
360.658, 14.406
361.140, 13.211
361.622, 15.245
362.104, 18.205
362.586, 17.210
363.069, 9.872
363.551, 0.159
364.033, 4.037
364.515, 3.044
364.997, 8.192
365.479, 10.114
365.961, 10.871
366.443, 11.862
366.925, 13.273
367.408, 14.446
367.890, 14.308
368.372, 12.654
368.854, 12.968
369.336, 17.684
369.818, 21.732
370.300, 23.705
370.782, 23.345
371.264, 19.890
371.747, 11.055
372.229, 1.780
372.711, 0.866
373.193, 9.172
373.675, 16.986
374.157, 21.876
374.639, 23.514
375.121, 20.637
375.603, 11.754
376.086, 5.601
376.568, 8.610
377.050, 17.057
377.532, 23.993
378.014, 28.443
378.496, 30.846
378.978, 30.592
379.460, 27.365
379.943, 23.973
380.425, 18.821
380.907, 14.753
381.389, 14.450
381.871, 16.363
382.353, 16.199
382.835, 11.149
383.317, 3.570
383.799, 1.520
384.282, 12.171
384.764, 19.243
385.246, 19.989
385.728, 18.226
386.210, 17.035
386.692, 17.107
387.174, 17.538
387.656, 17.527
388.138, 17.173
388.621, 15.340
389.103, 8.642
389.585, 4.168
390.067, 6.061
390.549, 12.031
391.031, 17.853
391.513, 21.871
391.996, 24.160
392.478, 24.598
392.960, 23.044
393.442, 20.672
393.924, 16.676
394.406, 12.524
394.888, 10.236
395.370, 9.365
395.852, 9.630
396.335, 12.167
396.817, 15.432
397.299, 16.130
397.781, 13.532
398.263, 10.811
398.745, 10.454
399.227, 12.251
399.709, 14.860
400.191, 21.475
400.674, 25.673
401.156, 22.911
401.638, 16.179
402.120, 11.298
402.602, 11.105
403.084, 13.979
403.566, 15.959
404.048, 15.477
404.530, 16.860
405.013, 21.510
405.495, 26.713
405.977, 31.152
406.459, 34.504
406.941, 36.783
407.423, 37.930
407.905, 37.696
408.387, 35.006
408.870, 28.691
409.352, 21.985
409.834, 14.469
410.316, 7.946
410.798, 5.478
411.280, 9.021
411.762, 13.708
412.244, 13.912
412.727, 10.527
413.209, 8.105
413.691, 5.130
414.173, 8.318
414.655, 1.666
415.137, 12.013
415.619, 19.805
416.101, 21.916
416.583, 2.318
417.065, 10.968
417.548, 8.556
418.030, 5.682
418.512, 18.451
418.994, 2.392
419.476, 14.912
419.958, 16.023
420.440, 22.354
420.922, 17.379
421.405, 15.640
421.887, 24.965
422.369, 28.411
422.851, 22.120
423.333, 28.780
423.815, 12.322
424.297, 18.028
424.779, 21.727
425.262, 25.335
425.744, 23.414
426.226, 18.082
426.708, 12.755
427.190, 8.030
427.672, 5.381
428.154, 8.249
428.636, 16.339
429.118, 22.221
429.601, 23.247
430.083, 21.564
430.565, 20.157
431.047, 19.289
431.529, 17.965
432.011, 15.000
432.493, 12.101
432.975, 11.369
433.457, 12.714
433.940, 14.034
434.422, 13.249
434.904, 11.238
435.386, 11.715
435.868, 18.418
436.350, 22.898
436.832, 22.641
437.314, 20.584
437.797, 19.433
438.279, 19.844
438.761, 21.040
439.243, 22.304
439.725, 23.655
440.207, 24.704
440.689, 25.450
441.171, 25.819
441.654, 25.670
442.136, 25.464
442.618, 25.430
443.100, 25.762
443.582, 25.870
444.064, 25.234
444.546, 23.782
445.028, 20.445
445.510, 13.849
445.992, 7.147
446.475, 4.814
446.957, 6.764
447.439, 9.091
447.921, 12.680
448.403, 15.482
448.885, 15.070
449.367, 12.195
449.849, 8.652
450.332, 5.209
450.814, 2.683
451.296, 4.039
451.778, 14.178
452.260, 20.904
452.742, 22.695
453.224, 21.774
453.706, 19.471
454.189, 16.115
454.671, 11.564
455.153, 4.570
455.635, 3.924
456.117, 7.737
456.599, 5.632
457.081, 1.680
457.563, 3.488
458.045, 9.064
458.527, 14.714
459.010, 21.345
459.492, 24.772
459.974, 18.638
460.456, 7.609
460.938, 3.706
461.420, 9.738
461.902, 17.263
462.384, 18.054
462.867, 11.696
463.349, 8.229
463.831, 10.980
464.313, 12.733
464.795, 9.523
465.277, 3.830
465.759, 0.616
466.241, 2.376
466.724, 2.039
467.206, 0.210
467.688, 3.667
468.170, 6.955
468.652, 9.209
469.134, 11.213
469.616, 12.625
470.098, 14.053
470.580, 17.109
471.063, 24.358
471.545, 31.269
472.027, 32.926
472.509, 29.369
472.991, 23.052
473.473, 11.694
473.955, 1.231
474.437, 15.572
474.919, 25.172
475.402, 27.943
475.884, 3.424
476.366, 14.147
476.848, 10.738
477.330, 6.774
477.812, 22.458
478.294, 1.909
478.776, 17.281
479.259, 18.316
479.741, 16.029
480.223, 21.349
480.705, 22.153
481.187, 21.301
481.669, 20.712
482.151, 20.408
482.633, 19.188
483.116, 15.028
483.598, 9.707
484.080, 9.356
484.562, 15.120
485.044, 19.929
485.526, 19.875
486.008, 17.850
486.490, 19.010
486.972, 24.726
487.454, 28.196
487.937, 25.034
488.419, 19.243
488.901, 16.124
489.383, 15.876
489.865, 14.433
490.347, 8.068
490.829, 1.707
491.311, 4.759
491.794, 5.137
492.276, 14.236
492.758, 22.826
493.240, 29.219
493.722, 31.041
494.204, 28.525
494.686, 25.444
495.168, 25.815
495.651, 28.750
496.133, 28.453
496.615, 23.391
497.097, 19.614
497.579, 23.237
498.061, 28.528
498.543, 25.674
499.025, 10.207
499.507, 2.141
499.990, 2.394
500.472, 4.500
500.954, 13.467
501.436, 23.125
501.918, 28.953
502.400, 26.393
502.882, 16.344
503.364, 9.922
503.846, 11.761
504.329, 11.647
504.811, 5.233
505.293, 1.893
505.775, 3.482
506.257, 1.143
506.739, 6.631
507.221, 6.816
507.703, 2.791
508.185, 2.865
508.668, 8.452
509.150, 14.221
509.632, 17.877
510.114, 19.853
510.596, 21.053
511.078, 22.050
511.560, 20.886
512.042, 12.968
512.525, 3.917
513.007, 3.477
513.489, 11.944
513.971, 20.248
514.453, 21.383
514.935, 16.133
515.417, 11.220
515.899, 2.917
516.381, 0.164
516.864, 7.410
517.346, 17.758
517.828, 23.740
518.310, 24.376
518.792, 23.462
519.274, 24.937
519.756, 27.668
520.239, 26.043
520.721, 18.611
521.203, 13.390
521.685, 16.454
522.167, 23.107
522.649, 23.262
523.131, 13.576
523.613, 7.026
524.095, 11.068
524.578, 18.324
525.060, 20.432
525.542, 17.177
526.024, 14.077
526.506, 15.474
526.988, 19.555
527.470, 17.197
527.952, 0.707
528.434, 8.030
528.917, 1.345
529.399, 9.144
529.881, 16.289
530.363, 19.147
530.845, 18.833
531.327, 13.015
531.809, 5.780
532.291, 7.373
532.773, 18.037
533.256, 23.865
533.738, 17.172
534.220, 5.211
534.702, 0.178
535.184, 3.763
535.666, 7.127
536.148, 9.046
536.630, 10.735
537.112, 12.859
537.595, 15.794
538.077, 20.174
538.559, 26.334
539.041, 31.193
539.523, 23.818
540.005, 11.213
540.487, 25.123
540.969, 32.597
541.452, 33.980
541.934, 11.030
542.416, 19.501
542.898, 15.379
543.380, 10.741
543.862, 23.633
544.344, 4.221
544.826, 16.835
545.308, 16.665
545.791, 22.345
546.273, 15.355
546.755, 12.278
547.237, 21.876
547.719, 24.455
548.201, 16.006
548.683, 21.976
549.166, 1.847
549.648, 4.725
550.130, 17.410
550.612, 9.597
551.094, 4.446
551.576, 4.458
552.058, 16.851
552.540, 22.129
553.022, 17.248
553.505, 12.317
553.987, 14.449
554.469, 20.618
554.951, 22.072
555.433, 15.315
555.915, 10.566
556.397, 11.545
556.879, 15.767
557.362, 22.362
557.844, 30.110
558.326, 35.060
558.808, 33.757
559.290, 27.590
559.772, 21.757
560.254, 14.660
560.736, 21.176
561.218, 24.388
561.701, 24.472
562.183, 12.064
562.665, 15.787
563.147, 12.943
563.629, 9.736
564.111, 15.730
564.593, 5.137
565.075, 10.987
565.557, 10.273
566.040, 12.563
566.522, 8.348
567.004, 5.971
567.486, 6.324
567.968, 6.849
568.450, 7.241
568.932, 8.113
569.414, 10.427
569.896, 13.184
570.379, 14.594
570.861, 13.716
571.343, 12.647
571.825, 14.364
572.307, 18.390
572.789, 22.848
573.271, 28.268
573.753, 30.821
574.235, 26.589
574.718, 17.884
575.200, 12.714
575.682, 12.901
576.164, 13.203
576.646, 12.263
577.128, 11.086
577.610, 9.419
578.093, 8.170
578.575, 10.881
579.057, 21.216
579.539, 34.625
580.021, 36.030
580.503, 21.860
580.985, 10.988
581.467, 7.779
581.949, 8.195
582.432, 9.824
582.914, 12.230
583.396, 12.962
583.878, 10.614
584.360, 7.066
584.842, 1.190
585.324, 4.394
585.806, 3.236
586.289, 5.946
586.771, 16.902
587.253, 20.817
587.735, 17.296
588.217, 13.998
588.699, 10.926
589.181, 6.788
589.663, 2.236
590.145, 9.795
590.628, 7.680
591.110, 5.293
591.592, 18.412
592.074, 26.167
592.556, 29.188
593.038, 27.500
593.520, 21.521
594.002, 13.655
594.484, 4.171
594.967, 4.184
595.449, 5.698
595.931, 2.859
596.413, 10.700
596.895, 20.251
597.377, 26.750
597.859, 25.027
598.341, 19.424
598.823, 18.225
599.306, 25.157
599.788, 33.121
600.270, 33.693
600.752, 28.516
601.234, 23.659
601.716, 19.538
602.198, 18.398
602.680, 23.663
603.162, 32.762
603.645, 34.091
604.127, 19.681
604.609, 9.796
605.091, 9.063
605.573, 11.447
606.055, 12.966
606.537, 13.291
607.019, 13.472
607.502, 14.160
607.984, 15.040
608.466, 15.095
608.948, 14.319
609.430, 15.761
609.912, 21.439
610.394, 26.368
610.876, 24.012
611.359, 15.715
611.841, 14.685
612.323, 10.431
612.805, 16.642
613.287, 20.313
613.769, 21.580
614.251, 13.243
614.733, 17.307
615.216, 16.401
615.698, 15.292
616.180, 21.102
616.662, 14.162
617.144, 19.862
617.626, 19.592
618.108, 13.762
618.590, 8.952
619.072, 12.986
619.555, 24.906
620.037, 29.425
620.519, 15.566
621.001, 2.531
621.483, 3.026
621.965, 10.338
622.447, 13.118
622.929, 8.682
623.411, 3.193
623.894, 3.566
624.376, 8.958
624.858, 11.636
625.340, 11.037
625.822, 9.232
626.304, 6.017
626.786, 2.581
627.268, 0.708
627.750, 4.010
628.233, 2.897
628.715, 9.732
629.197, 21.683
629.679, 23.015
630.161, 17.272
630.643, 11.935
631.125, 9.677
631.607, 9.313
632.089, 9.753
632.572, 11.002
633.054, 10.925
633.536, 8.317
634.018, 7.065
634.500, 9.865
634.982, 14.194
635.464, 17.207
635.946, 18.736
636.429, 19.311
636.911, 18.808
637.393, 17.665
637.875, 7.211
638.357, 0.520
638.839, 8.908
639.321, 14.171
639.803, 15.492
640.286, 1.066
640.768, 6.974
641.250, 4.732
641.732, 2.157
642.214, 10.926
642.696, 1.223
643.178, 5.911
643.660, 8.851
644.143, 14.170
644.625, 15.452
645.107, 4.973
645.589, 5.697
646.071, 5.525
646.553, 2.740
647.035, 11.149
647.517, 16.169
647.999, 18.776
648.482, 21.632
648.964, 25.320
649.446, 25.858
649.928, 21.501
650.410, 17.687
650.892, 18.304
651.374, 20.204
651.856, 18.031
652.338, 10.161
652.821, 5.152
653.303, 9.064
653.785, 14.801
654.267, 13.392
654.749, 8.695
655.231, 13.336
655.713, 4.709
656.195, 15.278
656.677, 21.099
657.160, 22.455
657.642, 5.970
658.124, 12.523
658.606, 9.844
659.088, 6.786
659.570, 16.644
660.052, 2.757
660.534, 12.352
661.016, 12.574
661.499, 17.085
661.981, 12.308
662.463, 10.400
662.945, 17.784
663.427, 20.024
663.909, 14.177
664.391, 18.963
664.873, 4.753
665.356, 7.212
665.838, 16.862
666.320, 11.484
666.802, 16.439
667.284, 17.459
667.766, 0.592
668.248, 14.832
668.730, 15.619
669.213, 2.594
669.695, 15.769
670.177, 4.648
670.659, 2.199
671.141, 5.966
671.623, 5.414
672.105, 5.522
672.587, 7.070
673.070, 12.846
673.552, 20.527
674.034, 21.372
674.516, 15.072
674.998, 10.250
675.480, 10.180
675.962, 13.136
676.444, 17.478
676.926, 24.340
677.409, 26.245
677.891, 16.147
678.373, 9.328
678.855, 13.867
679.337, 22.783
679.819, 28.650
680.301, 30.031
680.783, 28.824
681.265, 25.048
681.748, 20.261
682.230, 16.515
682.712, 13.922
683.194, 7.405
683.676, 16.546
684.158, 21.887
684.640, 23.630
685.122, 10.920
685.604, 16.563
686.087, 14.836
686.569, 13.025
687.051, 21.566
687.533, 11.032
688.015, 19.410
688.497, 20.238
688.979, 24.522
689.461, 21.324
689.943, 20.437
690.426, 27.034
690.908, 29.487
691.390, 25.428
691.872, 22.087
692.354, 16.161
692.836, 10.564
693.318, 6.248
693.800, 8.906
694.283, 22.615
694.765, 29.586
695.247, 22.219
695.729, 12.768
696.211, 10.216
696.693, 12.964
697.175, 15.587
697.657, 18.208
698.140, 19.169
698.622, 16.248
699.104, 12.433
699.586, 10.414
700.068, 10.515
700.550, 12.837
701.032, 18.178
701.514, 23.196
701.997, 20.659
702.479, 11.161
702.961, 6.641
703.443, 8.921
703.925, 13.119
704.407, 15.772
704.889, 16.784
705.371, 17.385
705.853, 18.488
706.336, 17.210
706.818, 9.231
707.300, 3.108
707.782, 5.453
708.264, 12.122
708.746, 15.828
709.228, 14.267
709.710, 11.037
710.192, 8.743
710.675, 7.059
711.157, 5.493
711.639, 3.968
712.121, 1.557
712.603, 2.460
713.085, 5.044
713.567, 0.986
714.049, 10.884
714.531, 18.107
715.014, 19.746
715.496, 18.030
715.978, 9.463
716.460, 0.741
716.942, 1.629
717.424, 2.830
717.906, 9.017
718.388, 17.616
718.870, 24.378
719.353, 25.772
719.835, 23.391
720.317, 18.314
720.799, 11.683
721.281, 7.596
721.763, 10.036
722.245, 16.528
722.727, 20.007
723.210, 20.335
723.692, 19.580
724.174, 17.867
724.656, 15.707
725.138, 12.982
725.620, 10.080
726.102, 9.402
726.584, 13.797
727.067, 16.110
727.549, 13.431
728.031, 10.553
728.513, 11.118
728.995, 13.955
729.477, 15.955
729.959, 15.900
730.441, 15.096
730.924, 13.991
731.406, 13.240
731.888, 15.196
732.370, 19.352
732.852, 21.293
733.334, 18.877
733.816, 13.378
734.298, 5.952
734.780, 4.370
735.263, 8.369
735.745, 2.619
736.227, 3.582
736.709, 7.915
737.191, 11.044
737.673, 12.965
738.155, 13.344
738.637, 3.681
739.119, 14.894
739.602, 20.982
740.084, 22.649
740.566, 4.876
741.048, 11.746
741.530, 8.740
742.012, 5.330
742.494, 15.668
742.976, 0.671
743.458, 10.806
743.941, 10.909
744.423, 15.594
744.905, 10.342
745.387, 8.159
745.869, 15.917
746.351, 18.170
746.833, 11.775
747.315, 6.331
747.797, 4.744
748.280, 4.528
748.762, 5.858
749.244, 10.728
749.726, 16.589
750.208, 18.321
750.690, 13.791
751.172, 11.704
751.654, 21.269
752.137, 31.100
752.619, 28.249
753.101, 17.098
753.583, 9.035
754.065, 7.868
754.547, 9.431
755.029, 9.031
755.511, 7.506
755.994, 9.460
756.476, 15.241
756.958, 19.233
757.440, 19.789
757.922, 18.025
758.404, 14.283
758.886, 8.785
759.368, 6.356
759.851, 12.640
760.333, 14.228
760.815, 2.588
761.297, 7.453
761.779, 3.705
762.261, 9.807
762.743, 21.508
763.225, 28.147
763.707, 30.703
764.190, 26.897
764.672, 21.209
765.154, 20.474
765.636, 23.377
766.118, 22.925
766.600, 15.943
767.082, 7.456
767.564, 4.633
768.046, 7.050
768.529, 10.707
769.011, 16.201
769.493, 18.304
769.975, 13.477
770.457, 7.474
770.939, 8.592
771.421, 18.022
771.903, 21.897
772.385, 15.184
772.868, 9.759
773.350, 9.357
773.832, 9.435
774.314, 3.954
774.796, 4.616
775.278, 5.928
775.760, 8.313
776.242, 21.100
776.724, 16.832
777.207, 7.020
777.689, 8.885
778.171, 20.489
778.653, 27.304
779.135, 22.068
779.617, 13.495
780.099, 16.309
780.581, 28.612
781.064, 32.209
781.546, 25.792
782.028, 18.871
782.510, 14.904
782.992, 12.749
783.474, 11.056
783.956, 9.872
784.438, 8.503
784.920, 6.253
785.403, 4.757
785.885, 2.379
786.367, 2.404
786.849, 10.469
787.331, 23.618
787.813, 30.201
788.295, 23.135
788.778, 15.535
789.260, 14.904
789.742, 16.864
790.224, 17.051
790.706, 15.405
791.188, 13.079
791.670, 10.569
792.152, 8.961
792.634, 7.514
793.117, 3.197
793.599, 8.789
794.081, 15.525
794.563, 17.127
795.045, 1.776
795.527, 5.798
796.009, 2.760
796.491, 0.514
796.973, 11.197
797.456, 4.726
797.938, 6.336
798.420, 6.624
798.902, 11.843
799.384, 6.384
799.866, 4.222
800.348, 3.704
800.830, 1.120
801.312, 1.463
801.795, 7.915
802.277, 14.766
802.759, 16.426
803.241, 15.643
803.723, 19.803
804.205, 31.066
804.687, 39.348
805.169, 32.136
805.652, 19.581
806.134, 17.446
806.616, 22.690
807.098, 24.831
807.580, 21.040
808.062, 16.969
808.544, 16.706
809.026, 19.214
809.508, 19.658
809.991, 17.560
810.473, 17.500
810.955, 20.721
811.437, 24.695
811.919, 28.737
812.401, 31.844
812.883, 31.017
813.365, 23.686
813.847, 18.435
814.330, 15.026
814.812, 13.896
815.294, 16.572
815.776, 20.862
816.258, 24.395
816.740, 26.869
817.222, 28.977
817.705, 32.932
818.187, 34.472
818.669, 27.495
819.151, 17.821
819.633, 16.319
820.115, 22.098
820.597, 24.817
821.079, 18.123
821.561, 8.970
822.044, 7.207
822.526, 10.710
823.008, 12.528
823.490, 12.263
823.972, 12.637
824.454, 15.040
824.936, 17.068
825.418, 14.363
825.900, 7.092
826.383, 7.935
826.865, 20.771
827.347, 29.298
827.829, 27.471
828.311, 23.051
828.793, 23.529
829.275, 27.719
829.757, 27.695
830.239, 18.805
830.722, 12.807
831.204, 13.532
831.686, 14.218
832.168, 9.101
832.650, 1.804
833.132, 0.408
833.614, 4.621
834.096, 11.118
834.578, 19.849
835.061, 25.665
835.543, 21.223
836.025, 12.365
836.507, 9.129
836.989, 12.576
837.471, 15.958
837.953, 14.046
838.435, 11.150
838.917, 15.305
839.400, 24.173
839.882, 29.394
840.364, 30.214
840.846, 30.406
841.328, 32.622
841.810, 33.347
842.292, 25.282
842.774, 8.293
843.257, 10.207
843.739, 3.463
844.221, 16.805
844.703, 25.209
845.185, 28.937
845.667, 13.987
846.149, 23.155
846.631, 22.657
847.114, 21.763
847.596, 29.003
848.078, 14.836
848.560, 4.493
849.042, 7.765
849.524, 18.408
850.006, 25.587
850.488, 27.324
850.971, 28.092
851.453, 32.165
851.935, 33.734
852.417, 27.779
852.899, 17.937
853.381, 7.338
853.863, 2.143
854.345, 5.573
854.827, 1.824
855.310, 12.016
855.792, 18.562
856.274, 21.899
856.756, 22.418
857.238, 20.987
857.720, 21.667
858.202, 26.297
858.684, 29.160
859.166, 19.864
859.649, 2.548
860.131, 2.663
860.613, 20.501
861.095, 29.752
861.577, 22.787
862.059, 10.332
862.541, 0.119
863.023, 6.902
863.505, 5.539
863.988, 9.783
864.470, 15.299
864.952, 2.754
865.434, 7.003
865.916, 1.621
866.398, 10.194
866.880, 14.926
867.362, 11.918
867.844, 9.689
868.327, 8.190
868.809, 7.950
869.291, 9.265
869.773, 11.736
870.255, 16.973
870.737, 23.094
871.219, 24.395
871.701, 17.363
872.184, 11.656
872.666, 12.421
873.148, 15.698
873.630, 19.459
874.112, 22.873
874.594, 25.597
875.076, 27.239
875.558, 26.091
876.041, 19.303
876.523, 11.126
877.005, 5.667
877.487, 3.171
877.969, 5.796
878.451, 12.513
878.933, 16.873
879.415, 15.344
879.898, 12.262
880.380, 15.589
880.862, 23.146
881.344, 22.129
881.826, 12.771
882.308, 6.638
882.790, 7.266
883.272, 10.780
883.754, 13.860
884.237, 16.561
884.719, 8.802
885.201, 18.949
885.683, 24.749
886.165, 26.436
886.647, 11.692
887.129, 18.166
887.611, 16.136
888.093, 13.758
888.576, 23.218
889.058, 10.864
889.540, 20.137
890.022, 20.776
890.504, 25.365
890.986, 21.324
891.468, 19.780
891.950, 21.906
892.432, 20.900
892.915, 14.775
893.397, 9.398
893.879, 5.888
894.361, 3.602
894.843, 1.329
895.325, 0.608
895.807, 5.083
896.289, 14.014
896.771, 19.904
897.254, 19.419
897.736, 15.067
898.218, 2.971
898.700, 8.175
899.182, 5.172
899.664, 6.774
900.146, 11.509
900.628, 3.420
901.111, 4.381
901.593, 2.464
902.075, 14.286
902.557, 16.781
903.039, 13.202
903.521, 11.320
904.003, 12.620
904.485, 15.957
904.968, 21.052
905.450, 25.163
905.932, 22.681
906.414, 15.426
906.896, 10.843
907.378, 8.996
907.860, 8.242
908.342, 8.001
908.825, 8.604
909.307, 10.509
909.789, 13.334
910.271, 15.761
910.753, 17.882
911.235, 18.285
911.717, 16.545
912.199, 12.744
912.681, 6.603
913.164, 0.825
913.646, 1.328
914.128, 8.720
914.610, 10.458
915.092, 3.061
915.574, 1.283
916.056, 0.641
916.538, 5.251
917.020, 11.540
917.503, 18.079
917.985, 20.116
918.467, 14.395
918.949, 12.276
919.431, 17.575
919.913, 21.638
920.395, 21.293
920.877, 18.592
921.359, 15.260
921.842, 12.204
922.324, 12.409
922.806, 21.852
923.288, 25.302
923.770, 14.313
924.252, 3.886
924.734, 5.340
925.216, 11.916
925.698, 11.512
926.181, 2.745
926.663, 1.474
927.145, 9.512
927.627, 1.315
928.109, 11.613
928.591, 17.423
929.073, 18.986
929.555, 3.579
930.038, 10.086
930.520, 7.811
931.002, 5.176
931.484, 14.768
931.966, 1.831
932.448, 11.533
932.930, 12.706
933.412, 17.270
933.894, 12.998
934.377, 11.455
934.859, 18.752
935.341, 21.154
935.823, 15.866
936.305, 20.691
936.787, 7.448
937.269, 10.060
937.752, 19.513
938.234, 14.671
938.716, 19.658
939.198, 20.902
939.680, 5.133
940.162, 18.952
940.644, 19.976
941.126, 7.862
941.608, 20.668
942.091, 10.366
942.573, 8.312
943.055, 12.466
943.537, 10.150
944.019, 18.036
944.501, 16.094
944.983, 13.274
945.465, 14.286
945.947, 4.439
946.430, 12.566
946.912, 13.039
947.394, 14.336
947.876, 12.512
948.358, 8.264
948.840, 8.732
949.322, 14.310
949.804, 17.772
950.286, 17.599
950.769, 15.650
951.251, 13.000
951.733, 9.788
952.215, 5.821
952.697, 0.793
953.179, 0.552
953.661, 2.279
954.143, 7.441
954.625, 16.089
955.108, 22.341
955.590, 20.513
956.072, 13.043
956.554, 7.690
957.036, 5.790
957.518, 4.629
958.000, 3.957
958.482, 3.567
958.965, 3.257
959.447, 3.221
959.929, 2.475
960.411, 1.375
960.893, 2.508
961.375, 7.885
961.857, 11.060
962.339, 10.807
962.821, 9.873
963.304, 8.037
963.786, 7.204
964.268, 2.330
964.750, 9.407
965.232, 15.724
965.714, 17.233
966.196, 0.465
966.679, 6.644
967.161, 3.810
967.643, 0.568
968.125, 11.571
968.607, 6.844
969.089, 6.661
969.571, 7.428
970.053, 3.927
970.535, 3.566
971.018, 11.451
971.500, 18.753
971.982, 21.767
972.464, 19.991
972.946, 9.843
973.428, 0.416
973.910, 12.076
974.392, 18.629
974.875, 20.350
975.357, 2.766
975.839, 10.111
976.321, 7.466
976.803, 4.411
977.285, 15.266
977.767, 0.490
978.249, 11.125
978.731, 11.619
979.214, 16.757
979.696, 11.842
980.178, 10.044
980.660, 18.291
981.142, 20.972
981.624, 14.904
982.106, 20.341
982.588, 9.807
983.070, 8.926
983.553, 11.329
984.035, 20.030
984.517, 27.178
984.999, 22.587
985.481, 9.946
985.963, 1.747
986.445, 1.861
986.927, 4.592
987.409, 10.061
987.892, 15.050
988.374, 20.349
988.856, 22.329
989.338, 12.354
989.820, 5.082
990.302, 11.231
990.784, 3.666
991.266, 17.087
991.748, 18.574
992.231, 17.113
992.713, 18.256
993.195, 19.852
993.677, 18.226
994.159, 13.901
994.641, 11.031
995.123, 11.368
995.606, 12.295
996.088, 10.735
996.570, 4.434
997.052, 16.256
997.534, 23.679
998.016, 26.940
998.498, 13.570
998.980, 21.675
999.462, 21.175
999.945, 20.322
1000.427, 26.714
1000.909, 31.981
1001.391, 40.008
1001.873, 40.862
1002.355, 34.091
1002.837, 22.071
1003.319, 15.224
1003.801, 19.724
1004.284, 24.812
1004.766, 26.296
1005.248, 25.530
1005.730, 22.223
1006.212, 18.011
1006.694, 13.822
1007.176, 10.581
1007.658, 12.015
1008.141, 22.704
1008.623, 31.499
1009.105, 31.242
1009.587, 29.236
1010.069, 32.861
1010.551, 36.992
1011.033, 32.298
1011.515, 19.416
1011.997, 9.510
1012.480, 6.578
1012.962, 7.166
1013.444, 13.839
1013.926, 19.313
1014.408, 15.490
1014.890, 9.026
1015.372, 10.450
1015.854, 19.567
1016.336, 26.204
1016.819, 26.513
1017.301, 25.007
1017.783, 10.954
1018.265, 24.490
1018.747, 31.329
1019.229, 31.830
1019.711, 7.016
1020.193, 14.892
1020.676, 9.663
1021.158, 3.901
1021.640, 16.379
1022.122, 4.821
1022.604, 7.364
1023.086, 6.248
1023.568, 2.050
1024.050, 0.762
1024.532, 9.368
1025.015, 10.947
1025.497, 5.777
1025.979, 14.441
1026.461, 1.204
1026.943, 13.579
1027.425, 20.194
1027.907, 22.161
1028.389, 23.360
1028.872, 24.305
1029.354, 24.493
1029.836, 24.341
1030.318, 23.013
1030.800, 17.399
1031.282, 14.167
1031.764, 18.539
1032.246, 24.887
1032.729, 27.454
1033.211, 26.686
1033.693, 25.987
1034.175, 26.210
1034.657, 25.282
1035.139, 22.485
1035.621, 19.163
1036.103, 15.231
1036.585, 11.405
1037.068, 6.017
1037.550, 1.126
1038.032, 5.239
1038.514, 24.823
1038.996, 37.463
1039.478, 41.000
1039.960, 40.296
1040.442, 35.018
1040.924, 27.408
1041.407, 17.544
1041.889, 7.022
1042.371, 0.014
1042.853, 4.703
1043.335, 1.199
1043.817, 16.567
1044.299, 31.157
1044.781, 38.916
1045.264, 41.957
1045.746, 40.104
1046.228, 35.839
1046.710, 35.366
1047.192, 39.672
1047.674, 39.522
1048.156, 34.045
1048.638, 27.505
1049.120, 17.449
1049.603, 12.137
1050.085, 18.986
1050.567, 29.708
1051.049, 28.570
1051.531, 15.614
1052.013, 11.652
1052.495, 19.161
1052.977, 21.280
1053.459, 12.294
1053.942, 7.852
1054.424, 18.606
1054.906, 32.628
1055.388, 31.490
1055.870, 18.447
1056.352, 15.797
1056.834, 23.720
1057.316, 30.234
1057.799, 34.198
1058.281, 32.017
1058.763, 21.536
1059.245, 10.790
1059.727, 8.348
1060.209, 13.059
1060.691, 25.439
1061.173, 42.807
1061.656, 45.359
1062.138, 33.558
1062.620, 27.366
1063.102, 33.181
1063.584, 39.380
1064.066, 35.833
1064.548, 26.696
1065.030, 16.693
1065.512, 8.501
1065.995, 19.660
1066.477, 26.121
1066.959, 28.136
1067.441, 12.395
1067.923, 19.582
1068.405, 17.580
1068.887, 15.201
1069.369, 25.614
1069.851, 12.454
1070.334, 22.664
1070.816, 23.545
1071.298, 28.694
1071.780, 24.598
1072.262, 23.114
1072.744, 27.948
1073.226, 31.205
1073.708, 28.959
1074.190, 26.183
1074.673, 29.319
1075.155, 33.431
1075.637, 30.892
1076.119, 23.496
1076.601, 17.864
1077.083, 15.924
1077.565, 15.886
1078.047, 16.539
1078.530, 19.292
1079.012, 27.392
1079.494, 35.557
1079.976, 39.347
1080.458, 40.073
1080.940, 38.274
1081.422, 34.216
1081.904, 31.960
1082.386, 34.511
1082.869, 35.919
1083.351, 34.291
1083.833, 30.904
1084.315, 28.544
1084.797, 25.074
1085.279, 15.571
1085.761, 1.529
1086.243, 1.491
1086.725, 16.990
1087.208, 26.476
1087.690, 19.908
1088.172, 16.702
1088.654, 27.431
1089.136, 37.008
1089.618, 30.110
1090.100, 13.231
1090.582, 6.133
1091.065, 10.092
1091.547, 17.369
1092.029, 30.337
1092.511, 35.867
1092.993, 30.045
1093.475, 20.722
1093.957, 11.892
1094.439, 5.974
1094.922, 8.055
1095.404, 16.723
1095.886, 21.792
1096.368, 23.258
1096.850, 20.151
1097.332, 12.707
1097.814, 9.023
1098.296, 12.674
1098.778, 16.244
1099.260, 10.846
1099.743, 2.041
1100.225, 1.825
1100.707, 7.058
1101.189, 10.441
1101.671, 12.211
1102.153, 17.881
1102.635, 27.458
1103.117, 29.621
1103.600, 14.816
1104.082, 1.637
1104.564, 5.049
1105.046, 0.799
1105.528, 9.065
1106.010, 19.509
1106.492, 22.253
1106.974, 18.091
1107.457, 13.697
1107.939, 11.307
1108.421, 10.097
1108.903, 13.178
1109.385, 12.913
1109.867, 1.214
1110.349, 14.919
1110.831, 13.674
1111.313, 2.838
1111.796, 6.653
1112.278, 13.496
1112.760, 15.241
1113.242, 6.160
1113.724, 0.048
1114.206, 1.390
1114.688, 0.941
1115.170, 7.516
1115.652, 16.898
1116.135, 30.141
1116.617, 45.004
1117.099, 47.473
1117.581, 30.877
1118.063, 24.618
1118.545, 32.955
1119.027, 36.881
1119.509, 30.150
1119.992, 22.035
1120.474, 19.029
1120.956, 19.409
1121.438, 19.701
1121.920, 20.255
1122.402, 26.581
1122.884, 37.734
1123.366, 38.648
1123.849, 28.041
1124.331, 20.032
1124.813, 20.808
1125.295, 22.341
1125.777, 14.962
1126.259, 6.170
1126.741, 12.105
1127.223, 24.793
1127.705, 28.146
1128.188, 24.014
1128.670, 19.168
1129.152, 15.965
1129.634, 16.800
1130.116, 24.361
1130.598, 29.956
1131.080, 24.007
1131.562, 16.973
1132.044, 18.392
1132.527, 22.567
1133.009, 21.898
1133.491, 18.067
1133.973, 18.047
1134.455, 23.746
1134.937, 26.075
1135.419, 20.128
1135.901, 14.623
1136.384, 9.647
1136.866, 7.919
1137.348, 13.728
1137.830, 21.494
1138.312, 24.921
1138.794, 24.363
1139.276, 21.689
1139.758, 14.481
1140.240, 14.074
1140.723, 23.438
1141.205, 29.197
1141.687, 27.094
1142.169, 22.725
1142.651, 19.597
1143.133, 18.594
1143.615, 23.528
1144.097, 31.651
1144.579, 23.850
1145.062, 3.937
1145.544, 0.763
1146.026, 15.016
1146.508, 23.603
1146.990, 17.993
1147.472, 10.384
1147.954, 11.831
1148.436, 15.041
1148.919, 7.885
1149.401, 0.912
1149.883, 3.712
1150.365, 14.551
1150.847, 15.470
1151.329, 7.296
1151.811, 0.328
1152.293, 9.628
1152.776, 15.317
1153.258, 16.968
1153.740, 2.486
1154.222, 8.836
1154.704, 6.838
1155.186, 4.498
1155.668, 13.781
1156.150, 1.647
1156.632, 10.746
1157.115, 11.370
1157.597, 15.859
1158.079, 11.946
1158.561, 10.646
1159.043, 17.764
1159.525, 11.160
1160.007, 10.590
1160.489, 8.950
1160.971, 7.677
1161.454, 10.344
1161.936, 16.272
1162.418, 19.144
1162.900, 19.730
1163.382, 20.869
1163.864, 22.709
1164.346, 23.414
1164.828, 22.201
1165.311, 19.048
1165.793, 12.339
1166.275, 6.982
1166.757, 13.863
1167.239, 22.714
1167.721, 14.789
1168.203, 1.056
1168.685, 3.076
1169.167, 8.554
1169.650, 15.274
1170.132, 9.432
1170.614, 6.042
1171.096, 16.212
1171.578, 23.186
1172.060, 17.177
1172.542, 8.872
1173.024, 4.011
1173.506, 2.538
1173.989, 4.595
1174.471, 9.795
1174.953, 14.333
1175.435, 18.366
1175.917, 21.174
1176.399, 22.534
1176.881, 23.996
1177.363, 26.731
1177.846, 24.790
1178.328, 12.694
1178.810, 0.098
1179.292, 4.072
1179.774, 19.450
1180.256, 25.093
1180.738, 23.080
1181.220, 19.789
1181.703, 16.260
1182.185, 12.316
1182.667, 8.256
1183.149, 6.642
1183.631, 9.814
1184.113, 13.474
1184.595, 14.955
1185.077, 14.452
1185.559, 9.008
1186.042, 4.134
1186.524, 8.690
1187.006, 18.531
1187.488, 20.919
1187.970, 13.159
1188.452, 11.217
1188.934, 24.638
1189.416, 31.950
1189.898, 28.854
1190.381, 23.948
1190.863, 19.649
1191.345, 16.588
1191.827, 16.827
1192.309, 10.338
1192.791, 18.398
1193.273, 22.926
1193.755, 24.113
1194.238, 11.951
1194.720, 17.027
1195.202, 15.195
1195.684, 13.080
1196.166, 20.584
1196.648, 10.366
1197.130, 17.717
1197.612, 18.056
1198.094, 21.606
1198.577, 18.205
1199.059, 16.875
1199.541, 22.574
1200.023, 24.392
1200.505, 20.191
1200.987, 23.945
1201.469, 13.486
1201.951, 15.499
1202.433, 22.895
1202.916, 19.044
1203.398, 22.927
1203.880, 23.863
1204.362, 11.412
1204.844, 22.237
1205.326, 23.001
1205.808, 13.432
1206.290, 23.469
1206.773, 15.326
1207.255, 13.672
1207.737, 16.901
1208.219, 15.006
1208.701, 21.016
1209.183, 19.474
1209.665, 17.242
1210.147, 18.028
1210.630, 10.273
1211.112, 18.368
1211.594, 15.638
1212.076, 16.735
1212.558, 16.533
1213.040, 17.662
1213.522, 14.315
1214.004, 7.892
1214.486, 5.059
1214.969, 7.746
1215.451, 8.444
1215.933, 3.195
1216.415, 0.747
1216.897, 5.613
1217.379, 3.155
1217.861, 16.325
1218.343, 33.177
1218.825, 27.136
1219.308, 8.482
1219.790, 3.418
1220.272, 11.056
1220.754, 17.303
1221.236, 22.021
1221.718, 23.002
1222.200, 20.531
1222.682, 18.380
1223.165, 17.877
1223.647, 17.743
1224.129, 16.854
1224.611, 16.622
1225.093, 21.839
1225.575, 24.746
1226.057, 12.779
1226.539, 1.560
1227.021, 1.681
1227.504, 7.554
1227.986, 11.647
1228.468, 8.557
1228.950, 8.862
1229.432, 18.942
1229.914, 21.153
1230.396, 9.466
1230.878, 3.421
1231.360, 10.174
1231.843, 19.367
1232.325, 24.330
1232.807, 23.621
1233.289, 18.587
1233.771, 11.287
1234.253, 17.150
1234.735, 30.552
1235.217, 33.271
1235.700, 26.548
1236.182, 17.957
1236.664, 10.332
1237.146, 6.659
1237.628, 7.783
1238.110, 11.530
1238.592, 16.391
1239.074, 20.313
1239.557, 23.646
1240.039, 24.114
1240.521, 17.486
1241.003, 8.987
1241.485, 5.245
1241.967, 5.595
1242.449, 7.300
1242.931, 10.646
1243.413, 14.663
1243.896, 19.863
1244.378, 16.878
1244.860, 4.317
1245.342, 0.578
1245.824, 9.473
1246.306, 19.559
1246.788, 12.718
1247.270, 2.859
1247.752, 0.000
##END=



