##NAMES=Carnallite
##RRUFFID=R050353
##IDEAL CHEMISTRY=KMgCl_3_&#183;6H_2_O
##LOCALITY=Strassfurt, Germany
##OWNER=RRUFF
##SOURCE=California Institute of Technology
##DESCRIPTION=Colorless single crystals and grains associated with halite, sylvite, and anhydrite.
##STATUS=The identification of this mineral has been confirmed by X-ray diffraction.
##URL=rruff.info/R050353
110.3258, 0.0000000E+00
110.8079, 12.12500
111.2900, 0.7500000
111.7721, 44.68750
112.2542, 94.87500
112.7363, 146.8750
113.2185, 187.6875
113.7006, 179.9375
114.1827, 186.5000
114.6648, 281.1875
115.1469, 442.7188
115.6290, 591.9062
116.1112, 614.8438
116.5933, 452.0000
117.0754, 292.3125
117.5575, 147.5000
118.0396, 33.34375
118.5217, 1.250000
119.0039, 104.1875
119.4860, 236.9375
119.9681, 261.2500
120.4502, 161.4062
120.9323, 48.06250
121.4144, 8.406250
121.8966, 59.25000
122.3787, 115.7500
122.8608, 354.8125
123.3429, 640.5938
123.8250, 880.9062
124.3071, 1053.500
124.7893, 1153.125
125.2714, 1154.188
125.7535, 986.7500
126.2356, 841.6562
126.7177, 791.6562
127.1998, 784.6562
127.6820, 755.7188
128.1641, 660.8750
128.6462, 510.3750
129.1283, 407.8125
129.6104, 434.4375
130.0925, 445.1875
130.5747, 415.2500
131.0568, 344.6875
131.5389, 238.1562
132.0210, 89.18750
132.5031, 133.3750
132.9852, 233.2188
133.4674, 161.9062
133.9495, 28.03125
134.4316, 123.0312
134.9137, 276.4688
135.3958, 419.0625
135.8779, 532.4688
136.3601, 623.0000
136.8422, 656.5000
137.3243, 560.4375
137.8064, 421.7188
138.2885, 358.6875
138.7706, 417.1562
139.2528, 544.8125
139.7349, 626.8750
140.2170, 637.9375
140.6991, 664.0000
141.1812, 770.7500
141.6633, 932.6875
142.1455, 1045.125
142.6276, 1053.969
143.1097, 980.2188
143.5918, 877.5312
144.0739, 719.2500
144.5561, 572.1250
145.0382, 515.3125
145.5203, 564.8438
146.0024, 624.7188
146.4845, 650.8125
146.9666, 659.4062
147.4488, 665.6562
147.9309, 679.2500
148.4130, 695.0938
148.8951, 694.5938
149.3772, 657.9062
149.8593, 639.9375
150.3415, 676.0625
150.8236, 742.2812
151.3057, 792.3438
151.7878, 775.2188
152.2699, 690.2812
152.7520, 678.7812
153.2342, 816.2188
153.7163, 962.8750
154.1984, 1055.531
154.6805, 1106.750
155.1626, 1178.219
155.6447, 1364.594
156.1269, 1768.781
156.6090, 1942.625
157.0911, 1719.375
157.5732, 1433.844
158.0553, 1272.750
158.5374, 1274.406
159.0196, 1357.125
159.5017, 1391.594
159.9838, 1331.875
160.4659, 1300.531
160.9480, 1333.500
161.4301, 1381.688
161.9123, 1383.531
162.3944, 1315.156
162.8765, 1222.438
163.3586, 1225.750
163.8407, 1422.000
164.3228, 1581.094
164.8050, 1637.750
165.2871, 1632.281
165.7692, 1636.531
166.2513, 1683.062
166.7334, 1764.188
167.2155, 1851.719
167.6977, 1993.938
168.1798, 2078.438
168.6619, 2020.688
169.1440, 1848.500
169.6261, 1713.156
170.1082, 1739.844
170.5904, 1871.969
171.0725, 1905.312
171.5546, 1753.000
172.0367, 1547.750
172.5188, 1401.312
173.0009, 1315.969
173.4831, 1287.250
173.9652, 1360.719
174.4473, 1495.625
174.9294, 1609.500
175.4115, 1711.125
175.8936, 1774.812
176.3758, 1726.656
176.8579, 1519.844
177.3400, 1313.250
177.8221, 1204.219
178.3042, 1162.312
178.7864, 1121.906
179.2685, 1046.312
179.7506, 940.4688
180.2327, 830.0625
180.7148, 642.6250
181.1969, 536.7500
181.6791, 650.1875
182.1612, 927.7188
182.6433, 1177.500
183.1254, 1205.844
183.6075, 982.4375
184.0896, 831.7812
184.5718, 801.6250
185.0539, 822.5625
185.5360, 894.5312
186.0181, 1005.688
186.5002, 1116.781
186.9823, 1179.938
187.4645, 1180.844
187.9466, 1176.656
188.4287, 1114.562
188.9108, 1085.906
189.3929, 1173.438
189.8750, 1385.125
190.3572, 1634.125
190.8393, 1785.750
191.3214, 1758.969
191.8035, 1787.562
192.2856, 1985.312
192.7677, 2168.688
193.2499, 2133.375
193.7320, 1814.062
194.2141, 1372.594
194.6962, 1173.125
195.1783, 1512.281
195.6604, 1769.312
196.1426, 1937.750
196.6247, 2015.531
197.1068, 1971.625
197.5889, 1784.281
198.0710, 1517.375
198.5531, 1392.594
199.0353, 1521.375
199.5174, 1652.312
199.9995, 1782.812
200.4816, 1885.406
200.9637, 1896.062
201.4458, 1764.250
201.9280, 1535.156
202.4101, 1424.750
202.8922, 1545.656
203.3743, 1646.531
203.8564, 1617.594
204.3385, 1490.688
204.8207, 1362.688
205.3028, 1281.625
205.7849, 1251.906
206.2670, 1264.188
206.7491, 1334.062
207.2312, 1430.875
207.7134, 1558.000
208.1955, 1708.781
208.6776, 1822.000
209.1597, 1847.375
209.6418, 1794.719
210.1239, 1741.531
210.6061, 1648.219
211.0882, 1579.906
211.5703, 1601.219
212.0524, 1714.812
212.5345, 1860.688
213.0166, 2039.812
213.4988, 2217.812
213.9809, 2298.250
214.4630, 2201.188
214.9451, 2024.094
215.4272, 1887.375
215.9094, 1798.406
216.3915, 1722.312
216.8736, 1631.188
217.3557, 1535.125
217.8378, 1456.750
218.3199, 1398.438
218.8021, 1364.062
219.2842, 1381.438
219.7663, 1492.625
220.2484, 1555.375
220.7305, 1419.188
221.2126, 1169.406
221.6948, 978.5938
222.1769, 984.9375
222.6590, 1118.656
223.1411, 1156.344
223.6232, 1058.719
224.1053, 926.3125
224.5875, 803.5000
225.0696, 694.5000
225.5517, 608.4375
226.0338, 567.9062
226.5159, 562.4375
226.9980, 527.7500
227.4802, 437.9688
227.9623, 350.0938
228.4444, 292.6250
228.9265, 259.3750
229.4086, 233.1250
229.8907, 212.0000
230.3729, 193.0000
230.8550, 132.1250
231.3371, 69.46875
231.8192, 208.3438
232.3013, 134.0312
232.7834, 87.00000
233.2656, 262.2188
233.7477, 189.6562
234.2298, 143.1875
234.7119, 332.6562
235.1940, 287.9688
235.6761, 165.2500
236.1583, 33.68750
236.6404, 274.8438
237.1225, 478.9688
237.6046, 575.5625
238.0867, 559.0000
238.5688, 501.6562
239.0510, 354.2188
239.5331, 207.6250
240.0152, 78.68750
240.4973, 22.87500
240.9794, 81.00000
241.4615, 79.53125
241.9437, 14.40625
242.4258, 85.43750
242.9079, 289.3125
243.3900, 465.0000
243.8721, 538.4688
244.3542, 520.3750
244.8364, 476.4062
245.3185, 471.8750
245.8006, 513.4062
246.2827, 553.8750
246.7648, 570.3750
247.2469, 603.0312
247.7291, 718.2500
248.2112, 886.2812
248.6933, 991.0000
249.1754, 878.8125
249.6575, 450.1875
250.1397, 243.1875
250.6218, 428.3750
251.1039, 662.7812
251.5860, 816.5938
252.0681, 867.8438
252.5502, 841.5000
253.0324, 751.4375
253.5145, 568.3438
253.9966, 452.0312
254.4787, 425.5938
254.9608, 432.5625
255.4429, 455.2500
255.9251, 485.8125
256.4072, 517.5625
256.8893, 548.8125
257.3714, 593.6250
257.8535, 567.1250
258.3356, 375.0938
258.8177, 204.4688
259.2999, 158.7812
259.7820, 236.0938
260.2641, 374.1875
260.7462, 521.1562
261.2283, 704.2500
261.7104, 770.0312
262.1926, 694.3125
262.6747, 554.6250
263.1568, 344.7812
263.6389, 95.09375
264.1210, 107.4375
264.6031, 166.8125
265.0853, 46.46875
265.5674, 43.68750
266.0495, 101.6250
266.5316, 139.7812
267.0138, 136.3438
267.4959, 108.6250
267.9780, 115.1250
268.4601, 217.0000
268.9422, 433.8125
269.4243, 621.4062
269.9065, 796.9375
270.3886, 931.3750
270.8707, 982.8125
271.3528, 968.0625
271.8349, 952.0625
272.3170, 992.3750
272.7992, 1094.375
273.2813, 1200.656
273.7634, 1441.312
274.2455, 1569.312
274.7276, 1369.750
275.2097, 924.5312
275.6919, 517.7500
276.1740, 395.8125
276.6561, 582.8438
277.1382, 731.2500
277.6203, 908.3438
278.1024, 1001.781
278.5846, 906.9688
279.0667, 677.3125
279.5488, 465.7500
280.0309, 389.4688
280.5130, 450.9062
280.9951, 531.4688
281.4773, 716.5625
281.9594, 834.5312
282.4415, 776.1562
282.9236, 591.7188
283.4057, 405.9062
283.8878, 300.7188
284.3700, 273.0938
284.8521, 288.3125
285.3342, 374.0938
285.8163, 460.8750
286.2984, 520.9688
286.7805, 563.0000
287.2627, 612.3125
287.7448, 686.2812
288.2269, 779.0625
288.7090, 842.5000
289.1911, 892.5625
289.6732, 895.6562
290.1554, 825.9062
290.6375, 711.7188
291.1196, 593.8438
291.6017, 494.5000
292.0838, 414.1562
292.5659, 365.3125
293.0481, 412.0938
293.5302, 434.8750
294.0123, 367.0312
294.4944, 273.4062
294.9765, 274.6250
295.4586, 435.2188
295.9408, 678.4375
296.4229, 752.6250
296.9050, 389.8750
297.3871, 165.9062
297.8692, 234.2188
298.3513, 422.0625
298.8335, 513.0000
299.3156, 418.3125
299.7977, 228.3750
300.2798, 150.9688
300.7619, 343.9062
301.2440, 447.9375
301.7262, 388.4375
302.2083, 271.4688
302.6904, 191.1875
303.1725, 179.9062
303.6546, 220.5625
304.1367, 290.4688
304.6189, 453.5625
305.1010, 540.7188
305.5831, 514.5938
306.0652, 446.8125
306.5473, 384.4375
307.0294, 342.3438
307.5116, 316.6875
307.9937, 299.2812
308.4758, 272.7812
308.9579, 302.4688
309.4400, 452.8750
309.9221, 600.3750
310.4043, 629.4375
310.8864, 548.6875
311.3685, 487.4688
311.8506, 615.1250
312.3327, 1023.203
312.8148, 1246.188
313.2970, 1242.984
313.7791, 1115.078
314.2612, 787.0312
314.7433, 343.5469
315.2254, 17.82812
315.7076, 59.73438
316.1897, 514.9062
316.6718, 818.4062
317.1539, 873.0469
317.6360, 873.5000
318.1181, 881.6250
318.6003, 888.3906
319.0824, 848.8281
319.5645, 716.7500
320.0466, 503.5156
320.5287, 391.4688
321.0108, 508.6719
321.4930, 597.1875
321.9751, 579.8281
322.4572, 497.1250
322.9393, 422.4531
323.4214, 398.7812
323.9035, 407.0312
324.3857, 360.7031
324.8678, 148.9844
325.3499, 56.01562
325.8320, 228.2500
326.3141, 506.6094
326.7962, 700.5781
327.2784, 719.5000
327.7605, 654.7031
328.2426, 727.0625
328.7247, 1065.359
329.2068, 1264.406
329.6889, 1139.250
330.1711, 910.6875
330.6532, 753.8594
331.1353, 724.4688
331.6174, 762.6250
332.0995, 781.0000
332.5816, 768.8906
333.0638, 796.6562
333.5459, 936.2969
334.0280, 1057.156
334.5101, 1078.469
334.9922, 1005.609
335.4743, 900.2656
335.9565, 821.9375
336.4386, 762.9062
336.9207, 661.3438
337.4028, 465.2656
337.8849, 285.0469
338.3671, 185.5312
338.8492, 165.6250
339.3313, 183.0938
339.8134, 216.1406
340.2955, 264.4844
340.7776, 327.8906
341.2598, 420.1562
341.7419, 504.3750
342.2240, 558.7656
342.7061, 586.9219
343.1882, 598.9219
343.6703, 576.6719
344.1525, 542.4062
344.6346, 546.0781
345.1167, 589.4062
345.5988, 650.0781
346.0809, 769.9844
346.5630, 894.0625
347.0452, 915.7812
347.5273, 689.3906
348.0094, 454.9688
348.4915, 567.2969
348.9736, 1030.078
349.4557, 1375.219
349.9379, 1312.641
350.4200, 1020.422
350.9021, 864.6562
351.3842, 936.6562
351.8663, 1023.625
352.3484, 959.4844
352.8306, 781.6406
353.3127, 654.5625
353.7948, 644.0938
354.2769, 707.7656
354.7590, 766.7500
355.2411, 813.7812
355.7233, 876.9219
356.2054, 1011.984
356.6875, 1158.469
357.1696, 1192.000
357.6517, 1065.422
358.1339, 891.5938
358.6160, 835.1719
359.0981, 932.7656
359.5802, 933.2031
360.0623, 675.8594
360.5444, 385.2188
361.0266, 317.9844
361.5087, 490.8906
361.9908, 682.3281
362.4729, 683.8438
362.9550, 469.4688
363.4371, 305.6094
363.9193, 212.5625
364.4014, 150.6875
364.8835, 111.8438
365.3656, 91.78125
365.8477, 80.45312
366.3298, 72.48438
366.8120, 69.73438
367.2941, 78.45312
367.7762, 85.84375
368.2583, 120.5000
368.7404, 235.3125
369.2225, 367.9688
369.7047, 409.4531
370.1868, 308.1562
370.6689, 142.1406
371.1510, 121.3594
371.6331, 397.9844
372.1152, 592.4688
372.5974, 623.4375
373.0795, 598.4688
373.5616, 614.7812
374.0437, 690.5625
374.5258, 773.6406
375.0079, 780.7656
375.4901, 665.1875
375.9722, 615.3594
376.4543, 700.6094
376.9364, 788.9219
377.4185, 824.7031
377.9006, 805.8281
378.3828, 751.3438
378.8649, 661.6875
379.3470, 541.4219
379.8291, 478.1250
380.3112, 515.2188
380.7933, 559.6562
381.2755, 583.1562
381.7576, 589.5156
382.2397, 586.9219
382.7218, 582.4844
383.2039, 571.5312
383.6860, 538.0469
384.1682, 478.0000
384.6503, 403.8906
385.1324, 325.2188
385.6145, 235.6250
386.0966, 111.5000
386.5787, 68.90625
387.0609, 222.2500
387.5430, 244.2969
388.0251, 144.5469
388.5072, 75.48438
388.9893, 79.35938
389.4714, 131.7188
389.9536, 231.0156
390.4357, 385.8750
390.9178, 453.1719
391.3999, 262.1562
391.8820, 43.09375
392.3641, 145.9531
392.8463, 34.90625
393.3284, 257.5156
393.8105, 287.3125
394.2926, 140.9531
394.7747, 14.04688
395.2568, 60.62500
395.7390, 114.3125
396.2211, 152.0938
396.7032, 183.0156
397.1853, 258.8438
397.6674, 430.6562
398.1495, 675.3906
398.6317, 826.9375
399.1138, 858.8125
399.5959, 847.3125
400.0780, 806.9375
400.5601, 740.2344
401.0422, 628.2656
401.5244, 460.2031
402.0065, 293.9688
402.4886, 253.6250
402.9707, 460.1719
403.4528, 616.7969
403.9349, 772.3438
404.4171, 851.5938
404.8992, 724.6562
405.3813, 415.0156
405.8634, 131.5625
406.3455, 136.1875
406.8276, 498.0156
407.3098, 712.2656
407.7919, 663.8281
408.2740, 580.3750
408.7561, 498.4219
409.2383, 443.0781
409.7204, 457.4062
410.2025, 584.4375
410.6846, 783.2656
411.1667, 893.8750
411.6488, 876.6875
412.1310, 839.5938
412.6131, 759.1094
413.0952, 698.8906
413.5773, 753.2812
414.0594, 963.3438
414.5415, 1185.406
415.0237, 1203.266
415.5058, 1005.109
415.9879, 930.1094
416.4700, 1197.844
416.9521, 1474.641
417.4342, 1407.234
417.9164, 1015.469
418.3985, 692.7656
418.8806, 723.3125
419.3627, 961.4219
419.8448, 1101.016
420.3269, 1106.828
420.8091, 1047.719
421.2912, 949.3906
421.7733, 825.3750
422.2554, 730.7656
422.7375, 671.1875
423.2196, 645.9375
423.7018, 687.3438
424.1839, 773.6406
424.6660, 803.1562
425.1481, 712.7500
425.6302, 550.8750
426.1123, 464.4844
426.5945, 506.0781
427.0766, 528.0625
427.5587, 494.7812
428.0408, 436.2344
428.5229, 350.1562
429.0050, 247.6719
429.4872, 221.8281
429.9693, 423.0781
430.4514, 986.4844
430.9335, 1278.234
431.4156, 1093.969
431.8977, 884.0781
432.3799, 888.4375
432.8620, 1053.594
433.3441, 1188.328
433.8262, 1154.703
434.3083, 984.7656
434.7904, 847.2500
435.2726, 724.8125
435.7547, 670.3281
436.2368, 728.7188
436.7189, 833.5625
437.2010, 922.5000
437.6831, 976.1250
438.1653, 1001.969
438.6474, 1018.984
439.1295, 1029.812
439.6116, 978.9375
440.0937, 785.7969
440.5758, 600.7344
441.0580, 528.3125
441.5401, 564.9688
442.0222, 657.9531
442.5043, 865.4688
442.9864, 1082.859
443.4685, 1094.906
443.9507, 870.6875
444.4328, 629.1250
444.9149, 516.2500
445.3970, 511.8438
445.8791, 517.1719
446.3612, 489.9375
446.8434, 502.8906
447.3255, 666.3438
447.8076, 902.4844
448.2897, 1025.641
448.7718, 959.3750
449.2539, 767.0000
449.7361, 552.1406
450.2182, 237.3594
450.7003, 49.07812
451.1824, 69.50000
451.6645, 174.8906
452.1466, 294.0156
452.6288, 411.7969
453.1109, 515.3438
453.5930, 612.7812
454.0751, 705.3750
454.5572, 721.7656
455.0393, 512.0000
455.5215, 387.4844
456.0036, 488.4062
456.4857, 685.8906
456.9678, 783.1250
457.4499, 690.5312
457.9320, 542.7969
458.4142, 600.2344
458.8963, 929.2344
459.3784, 1195.281
459.8605, 1337.703
460.3426, 1394.984
460.8247, 1335.906
461.3069, 1181.016
461.7890, 1087.672
462.2711, 1227.109
462.7532, 1501.875
463.2353, 1636.266
463.7174, 1589.844
464.1996, 1484.078
464.6817, 1361.484
465.1638, 1236.172
465.6459, 1161.016
466.1280, 1167.344
466.6101, 1194.375
467.0923, 1216.766
467.5744, 1230.781
468.0565, 1219.922
468.5386, 1173.234
469.0207, 1116.719
469.5028, 1099.781
469.9850, 1154.859
470.4671, 1164.734
470.9492, 1091.859
471.4313, 999.0469
471.9134, 961.0938
472.3955, 961.0938
472.8777, 891.9531
473.3598, 644.7812
473.8419, 251.4844
474.3240, 76.89062
474.8061, 396.3281
475.2882, 610.3281
475.7704, 518.0469
476.2525, 317.7656
476.7346, 238.7031
477.2167, 357.4219
477.6988, 545.9375
478.1809, 629.4844
478.6631, 596.4219
479.1452, 565.6250
479.6273, 530.0938
480.1094, 521.4219
480.5916, 578.2031
481.0737, 682.4062
481.5558, 768.5469
482.0379, 808.7344
482.5200, 799.3438
483.0021, 704.0000
483.4843, 520.6250
483.9664, 409.1562
484.4485, 479.1250
484.9306, 664.6406
485.4127, 798.8125
485.8948, 880.0781
486.3770, 916.9375
486.8591, 873.8750
487.3412, 802.8125
487.8233, 792.7031
488.3054, 857.4688
488.7875, 924.5938
489.2697, 918.2812
489.7518, 829.5312
490.2339, 729.9375
490.7160, 514.4219
491.1981, 398.9688
491.6802, 567.9688
492.1624, 874.8281
492.6445, 1064.047
493.1266, 1003.781
493.6087, 794.6562
494.0908, 650.1094
494.5729, 579.5156
495.0551, 545.4688
495.5372, 576.5938
496.0193, 620.0781
496.5014, 663.6719
496.9835, 698.6875
497.4656, 691.2969
497.9478, 612.9531
498.4299, 476.1719
498.9120, 284.0000
499.3941, 8.812500
499.8762, 175.7031
500.3583, 121.7031
500.8405, 82.34375
501.3226, 232.5469
501.8047, 319.8125
502.2868, 348.6719
502.7689, 272.1562
503.2510, 149.1719
503.7332, 107.8281
504.2153, 184.7344
504.6974, 258.9219
505.1795, 166.1562
505.6616, 164.9844
506.1437, 318.8438
506.6259, 209.5000
507.1080, 30.34375
507.5901, 223.4531
508.0722, 466.4375
508.5543, 532.7344
509.0364, 330.0156
509.5186, 5.765625
510.0007, 151.6562
510.4828, 59.42188
510.9649, 100.5625
511.4470, 434.2969
511.9291, 727.2344
512.4113, 808.0625
512.8934, 692.9219
513.3755, 568.7500
513.8576, 575.3594
514.3397, 667.6250
514.8218, 727.6250
515.3040, 747.4062
515.7861, 758.2969
516.2682, 772.2500
516.7503, 788.5469
517.2324, 808.2344
517.7145, 835.4219
518.1967, 857.8906
518.6788, 851.1406
519.1609, 842.4688
519.6430, 905.5000
520.1251, 1053.688
520.6072, 1165.547
521.0894, 1094.125
521.5715, 802.3750
522.0536, 635.1562
522.5357, 673.8281
523.0178, 730.7656
523.4999, 731.5781
523.9821, 712.5781
524.4642, 750.2812
524.9463, 879.3438
525.4284, 1028.125
525.9105, 1041.750
526.3926, 864.3906
526.8748, 817.5156
527.3569, 1087.406
527.8390, 1348.203
528.3211, 1402.359
528.8032, 1278.016
529.2853, 1108.875
529.7675, 899.7969
530.2496, 715.0938
530.7317, 679.8125
531.2138, 787.0938
531.6959, 870.8594
532.1780, 865.7188
532.6602, 799.1562
533.1423, 695.7344
533.6244, 542.9844
534.1065, 403.7969
534.5886, 266.0156
535.0707, 170.4062
535.5529, 183.2188
536.0350, 288.5625
536.5171, 387.3906
536.9992, 405.1719
537.4813, 347.8750
537.9634, 251.5625
538.4456, 38.28125
538.9277, 103.5312
539.4098, 133.0156
539.8919, 94.87500
540.3740, 19.31250
540.8561, 82.15625
541.3383, 189.5938
541.8204, 301.9219
542.3025, 410.2969
542.7846, 433.7344
543.2667, 320.1719
543.7488, 231.3125
544.2310, 315.9688
544.7131, 490.8281
545.1952, 589.5469
545.6773, 549.3438
546.1594, 489.0625
546.6415, 468.6562
547.1237, 479.9688
547.6058, 522.6562
548.0879, 598.3281
548.5700, 658.6719
549.0521, 641.1406
549.5342, 531.2969
550.0164, 450.8594
550.4985, 371.1406
550.9806, 346.8125
551.4627, 438.5938
551.9448, 587.7500
552.4269, 711.1875
552.9091, 775.0312
553.3912, 782.1719
553.8733, 712.8906
554.3554, 547.4375
554.8375, 449.9062
555.3196, 430.8438
555.8018, 494.7188
556.2839, 712.5000
556.7660, 1016.750
557.2481, 1186.625
557.7302, 1052.125
558.2123, 827.2656
558.6945, 689.7188
559.1766, 632.4844
559.6587, 678.7969
560.1408, 862.4688
560.6229, 1079.375
561.1050, 1155.953
561.5872, 1026.906
562.0693, 936.0312
562.5514, 882.7344
563.0335, 869.0469
563.5156, 930.9531
563.9977, 1025.875
564.4799, 1060.188
564.9620, 968.5625
565.4441, 803.9375
565.9262, 705.1406
566.4083, 688.8125
566.8904, 689.4531
567.3726, 692.7969
567.8547, 693.8906
568.3368, 700.4844
568.8189, 717.2969
569.3010, 766.7188
569.7831, 932.0156
570.2653, 1098.031
570.7474, 1073.547
571.2295, 871.7656
571.7116, 680.1094
572.1937, 568.7344
572.6758, 506.3750
573.1580, 449.7188
573.6401, 395.7969
574.1222, 353.8594
574.6043, 310.8281
575.0864, 292.5312
575.5685, 337.6250
576.0507, 427.8125
576.5328, 505.6406
577.0149, 533.3594
577.4970, 522.3125
577.9791, 497.9688
578.4612, 422.2500
578.9434, 424.3438
579.4255, 610.9844
579.9076, 819.8125
580.3897, 965.4688
580.8718, 1037.734
581.3539, 1039.844
581.8361, 900.4219
582.3182, 725.0469
582.8003, 703.1875
583.2824, 826.7188
583.7645, 945.3906
584.2467, 1007.156
584.7288, 998.3438
585.2109, 862.5156
585.6931, 465.8281
586.1752, 272.4375
586.6573, 502.1562
587.1394, 805.7969
587.6215, 953.2500
588.1036, 943.2188
588.5858, 852.0781
589.0679, 714.2812
589.5500, 569.0000
590.0321, 547.4688
590.5142, 707.8594
590.9963, 825.5938
591.4785, 873.6250
591.9606, 850.7031
592.4427, 714.2031
592.9248, 484.3438
593.4069, 299.0938
593.8890, 200.7969
594.3712, 192.5938
594.8533, 323.5156
595.3354, 570.0469
595.8175, 776.7812
596.2996, 882.1719
596.7817, 890.7188
597.2639, 807.2969
597.7460, 529.1094
598.2281, 414.5625
598.7102, 612.7969
599.1923, 830.6562
599.6744, 899.9062
600.1566, 845.2969
600.6387, 763.0625
601.1208, 706.2656
601.6029, 652.7344
602.0850, 543.3594
602.5671, 360.1719
603.0493, 234.0312
603.5314, 198.4844
604.0135, 215.2500
604.4956, 291.1250
604.9777, 402.2188
605.4598, 434.4375
605.9420, 244.5469
606.4241, 59.28125
606.9062, 99.42188
607.3883, 295.6562
607.8704, 465.4219
608.3525, 548.4062
608.8347, 539.3750
609.3168, 412.6875
609.7989, 109.7812
610.2810, 68.71875
610.7631, 66.68750
611.2452, 12.39062
611.7274, 81.43750
612.2095, 188.5781
612.6916, 276.5469
613.1737, 332.6250
613.6558, 369.7500
614.1379, 415.3906
614.6201, 462.1719
615.1022, 429.0781
615.5843, 264.6719
616.0664, 137.7969
616.5485, 210.2969
617.0306, 431.4062
617.5128, 579.9219
617.9949, 644.4219
618.4770, 640.4375
618.9591, 505.0000
619.4412, 326.1875
619.9233, 225.7031
620.4055, 223.6719
620.8876, 254.3281
621.3697, 258.2656
621.8518, 237.1406
622.3339, 196.5938
622.8160, 129.2812
623.2982, 58.48438
623.7803, 56.09375
624.2624, 140.8906
624.7445, 92.71875
625.2266, 101.0781
625.7087, 250.2500
626.1909, 186.2344
626.6730, 20.96875
627.1551, 47.09375
627.6372, 14.26562
628.1193, 1.984375
628.6014, 77.34375
629.0836, 191.8438
629.5657, 179.5312
630.0478, 119.6875
630.5299, 277.3281
631.0120, 149.5469
631.4941, 3.281250
631.9763, 27.82812
632.4584, 181.6406
632.9405, 313.6562
633.4226, 334.1719
633.9047, 297.1875
634.3868, 321.9219
634.8690, 415.8281
635.3511, 433.8438
635.8332, 313.4375
636.3153, 160.6250
636.7974, 59.23438
637.2795, 6.265625
637.7617, 3.843750
638.2438, 138.9375
638.7259, 242.2344
639.2080, 163.5781
639.6901, 6.812500
640.1722, 27.96875
640.6544, 107.6875
641.1365, 273.2656
641.6186, 282.9844
642.1007, 124.6250
642.5828, 115.8906
643.0649, 393.5625
643.5471, 613.6406
644.0292, 625.2812
644.5113, 548.7812
644.9934, 523.4062
645.4755, 576.7812
645.9576, 610.7344
646.4398, 510.9844
646.9219, 371.3125
647.4040, 378.2188
647.8861, 530.9844
648.3682, 659.2656
648.8503, 663.7500
649.3325, 581.7656
649.8146, 519.7500
650.2967, 505.7344
650.7788, 478.5469
651.2609, 424.6250
651.7430, 359.0312
652.2252, 281.8125
652.7073, 213.0312
653.1894, 198.4062
653.6715, 277.8750
654.1536, 379.5312
654.6357, 378.7031
655.1179, 286.4375
655.6000, 242.1406
656.0821, 287.5469
656.5642, 343.1562
657.0463, 329.8750
657.5284, 250.7969
658.0106, 204.1719
658.4927, 161.5156
658.9748, 184.3594
659.4569, 371.0156
659.9390, 595.4219
660.4211, 703.0312
660.9033, 668.6562
661.3854, 577.8594
661.8675, 499.6719
662.3496, 434.4531
662.8317, 386.2188
663.3138, 354.6562
663.7960, 336.9844
664.2781, 348.5000
664.7602, 360.2812
665.2423, 330.7656
665.7244, 255.2344
666.2065, 202.3906
666.6887, 206.7031
667.1708, 231.0781
667.6529, 226.6406
668.1350, 215.7031
668.6171, 298.6250
669.0992, 520.8594
669.5814, 745.0000
670.0635, 719.9844
670.5456, 376.2031
671.0277, 142.8125
671.5098, 39.53125
671.9919, 36.04688
672.4741, 194.0469
672.9562, 404.3125
673.4383, 522.8594
673.9204, 513.8750
674.4025, 432.0625
674.8846, 236.1250
675.3668, 19.82812
675.8489, 62.01562
676.3310, 7.750000
676.8131, 118.7031
677.2952, 293.5781
677.7773, 499.6094
678.2595, 636.7969
678.7416, 642.5781
679.2237, 654.4062
679.7058, 677.7344
680.1879, 710.8438
680.6700, 759.5781
681.1522, 816.1406
681.6343, 870.0625
682.1164, 936.2344
682.5985, 961.6562
683.0806, 835.7656
683.5627, 610.6406
684.0449, 480.0156
684.5270, 488.8594
685.0091, 512.4688
685.4912, 430.0625
685.9733, 255.7969
686.4554, 191.4375
686.9376, 348.3281
687.4197, 470.5625
687.9018, 548.1875
688.3839, 573.5625
688.8660, 522.4688
689.3481, 410.5312
689.8303, 304.7344
690.3124, 258.6250
690.7945, 237.7344
691.2766, 173.6875
691.7587, 72.50000
692.2408, 13.04688
692.7230, 25.65625
693.2051, 57.96875
693.6872, 44.93750
694.1693, 20.34375
694.6514, 36.57812
695.1335, 22.60938
695.6157, 95.81250
696.0978, 198.8594
696.5799, 287.1875
697.0620, 297.8438
697.5441, 228.2656
698.0262, 148.3438
698.5084, 100.6250
698.9905, 92.62500
699.4726, 183.3281
699.9547, 379.4844
700.4368, 502.1250
700.9189, 470.7031
701.4011, 361.7656
701.8832, 281.1719
702.3653, 233.8281
702.8474, 195.2969
703.3295, 177.3750
703.8116, 158.8438
704.2938, 133.2500
704.7759, 102.0781
705.2580, 65.89062
705.7401, 27.00000
706.2222, 5.718750
706.7043, 13.42188
707.1865, 4.015625
707.6686, 30.48438
708.1507, 105.6250
708.6328, 118.1094
709.1149, 5.859375
709.5970, 189.5938
710.0792, 291.5312
710.5613, 281.8125
711.0434, 306.5781
711.5255, 430.4375
712.0076, 531.2344
712.4897, 502.8750
712.9719, 416.7656
713.4540, 411.0781
713.9361, 542.9062
714.4182, 698.7969
714.9003, 690.4688
715.3824, 573.3906
715.8646, 574.3281
716.3467, 728.7500
716.8288, 837.1250
717.3109, 783.0000
717.7930, 638.6875
718.2751, 545.5469
718.7573, 508.6562
719.2394, 508.6250
719.7215, 577.6094
720.2036, 643.9531
720.6857, 649.9531
721.1678, 633.7344
721.6500, 681.0312
722.1321, 826.7656
722.6142, 961.5938
723.0963, 914.3281
723.5784, 731.3906
724.0605, 658.6562
724.5427, 726.3906
725.0248, 773.0469
725.5070, 706.2812
725.9891, 572.3750
726.4712, 471.8125
726.9533, 401.5938
727.4354, 368.0156
727.9175, 448.0156
728.3997, 488.9531
728.8818, 336.5000
729.3639, 101.4062
729.8460, 5.937500
730.3281, 135.0625
730.8102, 320.0469
731.2924, 394.3125
731.7745, 371.8906
732.2566, 276.4375
732.7387, 101.0156
733.2208, 20.28125
733.7029, 2.328125
734.1851, 99.95312
734.6672, 97.85938
735.1493, 111.8438
735.6314, 167.1250
736.1135, 104.4531
736.5956, 349.5312
737.0778, 344.5625
737.5599, 214.9219
738.0420, 199.0938
738.5241, 379.1719
739.0062, 559.4688
739.4883, 514.6562
739.9705, 336.6562
740.4526, 277.2344
740.9347, 347.5156
741.4168, 382.2031
741.8989, 279.9844
742.3810, 136.2031
742.8632, 147.7344
743.3453, 390.1875
743.8274, 567.5625
744.3095, 692.5938
744.7916, 742.2656
745.2737, 630.0469
745.7559, 468.0625
746.2380, 428.2031
746.7201, 559.4531
747.2022, 688.1562
747.6843, 705.3906
748.1664, 644.4219
748.6486, 513.4062
749.1307, 335.0781
749.6128, 234.6562
750.0949, 272.0625
750.5770, 382.5781
751.0591, 467.0469
751.5413, 527.9219
752.0234, 545.7812
752.5055, 487.6250
752.9876, 439.6094
753.4697, 433.9375
753.9518, 445.7500
754.4340, 441.2812
754.9161, 414.7500
755.3982, 403.5781
755.8803, 435.2812
756.3624, 483.0938
756.8445, 529.7656
757.3267, 569.8125
757.8088, 581.5000
758.2909, 557.4219
758.7730, 542.5625
759.2551, 605.7500
759.7372, 743.8438
760.2194, 794.5469
760.7015, 717.8906
761.1836, 650.9375
761.6657, 646.1250
762.1478, 664.6250
762.6299, 666.4062
763.1121, 650.7031
763.5942, 627.2500
764.0763, 594.9531
764.5584, 556.9688
765.0405, 492.5781
765.5226, 431.8125
766.0048, 437.2188
766.4869, 515.0312
766.9690, 590.8906
767.4511, 582.9375
767.9332, 508.3750
768.4153, 414.8906
768.8975, 295.8281
769.3796, 260.6406
769.8617, 394.3281
770.3438, 504.0625
770.8259, 331.1562
771.3080, 114.7344
771.7902, 282.9844
772.2723, 82.10938
772.7544, 376.3281
773.2365, 419.5312
773.7186, 366.7812
774.2007, 361.8594
774.6829, 403.5938
775.1650, 400.6250
775.6471, 281.0469
776.1292, 126.8281
776.6113, 28.96875
777.0934, 10.56250
777.5756, 45.81250
778.0577, 209.4062
778.5398, 326.0469
779.0219, 257.0156
779.5040, 60.34375
779.9861, 11.00000
780.4683, 215.9531
780.9504, 362.1406
781.4325, 382.7969
781.9146, 388.6250
782.3967, 427.7031
782.8788, 494.9219
783.3610, 580.7969
783.8431, 700.4062
784.3252, 782.1406
784.8073, 761.9531
785.2894, 690.3438
785.7715, 602.9531
786.2537, 522.5625
786.7358, 520.1094
787.2179, 635.6562
787.7000, 787.3438
788.1821, 834.7969
788.6642, 766.3594
789.1464, 722.6562
789.6285, 728.1719
790.1106, 702.3281
790.5927, 578.9375
791.0748, 412.7188
791.5569, 309.4844
792.0391, 279.2500
792.5212, 273.2500
793.0033, 318.2969
793.4854, 338.9688
793.9675, 280.9844
794.4496, 186.9531
794.9318, 145.1562
795.4139, 174.8125
795.8960, 217.7188
796.3781, 213.5156
796.8602, 190.5781
797.3423, 229.8906
797.8245, 321.4375
798.3066, 356.9688
798.7887, 295.2812
799.2708, 210.8438
799.7529, 187.7656
800.2350, 224.2812
800.7172, 228.1406
801.1993, 159.7656
801.6814, 121.0000
802.1635, 173.9844
802.6456, 218.7344
803.1277, 151.7656
803.6099, 2.390625
804.0920, 88.15625
804.5741, 31.79688
805.0562, 33.31250
805.5383, 5.015625
806.0204, 65.28125
806.5026, 112.8750
806.9847, 127.8750
807.4668, 120.0469
807.9489, 94.51562
808.4310, 50.48438
808.9131, 16.42188
809.3953, 107.1094
809.8774, 209.9688
810.3595, 341.9531
810.8416, 430.1406
811.3237, 417.9688
811.8058, 341.0312
812.2880, 282.9688
812.7701, 240.9375
813.2522, 223.0469
813.7343, 254.7969
814.2164, 284.4219
814.6985, 272.2656
815.1807, 247.3438
815.6628, 247.7031
816.1449, 285.1562
816.6270, 347.3906
817.1091, 459.1719
817.5912, 571.2969
818.0734, 600.3281
818.5555, 560.8281
819.0376, 511.3594
819.5197, 470.0156
820.0018, 447.7812
820.4839, 457.1719
820.9661, 496.3750
821.4482, 541.0000
821.9303, 578.2500
822.4124, 667.3750
822.8945, 927.5000
823.3766, 1129.516
823.8588, 999.8906
824.3409, 626.5312
824.8230, 398.3906
825.3051, 453.6562
825.7872, 531.6250
826.2693, 576.7031
826.7515, 599.5156
827.2336, 607.3438
827.7157, 603.0469
828.1978, 574.9844
828.6799, 506.6562
829.1620, 461.6406
829.6442, 595.6719
830.1263, 851.9844
830.6084, 932.4375
831.0905, 821.0312
831.5726, 704.4219
832.0547, 670.5312
832.5369, 687.6719
833.0190, 700.7500
833.5011, 702.9062
833.9832, 739.4688
834.4653, 844.7500
834.9474, 922.6406
835.4296, 925.6875
835.9117, 903.5938
836.3938, 913.9375
836.8759, 955.1562
837.3580, 939.1719
837.8401, 752.2031
838.3223, 619.2969
838.8044, 694.5625
839.2865, 852.0312
839.7686, 967.2969
840.2507, 1011.562
840.7328, 963.9141
841.2150, 770.4531
841.6971, 573.7969
842.1792, 643.7422
842.6613, 914.9688
843.1434, 1091.328
843.6255, 1130.281
844.1077, 1090.945
844.5898, 996.5547
845.0719, 879.8672
845.5540, 823.4062
846.0361, 850.1797
846.5182, 866.2500
847.0004, 851.6875
847.4825, 851.2500
847.9646, 905.5625
848.4467, 974.2109
848.9288, 999.2969
849.4109, 970.4531
849.8931, 964.0391
850.3752, 1054.516
850.8573, 1113.625
851.3394, 1022.547
851.8215, 874.0156
852.3036, 800.8203
852.7858, 823.9062
853.2679, 883.1875
853.7500, 944.8906
854.2321, 1004.992
854.7142, 1072.250
855.1964, 1135.117
855.6785, 1124.258
856.1606, 1028.523
856.6427, 941.3594
857.1248, 935.8984
857.6069, 981.9844
858.0891, 985.8984
858.5712, 937.9922
859.0533, 882.4844
859.5354, 816.7656
860.0175, 750.2266
860.4996, 658.7422
860.9818, 580.8281
861.4639, 597.3984
861.9460, 743.0859
862.4281, 802.0000
862.9102, 607.3672
863.3923, 451.1953
863.8745, 560.1094
864.3566, 752.5469
864.8387, 766.9531
865.3208, 580.6641
865.8029, 399.8125
866.2850, 364.5469
866.7672, 401.8594
867.2493, 423.0938
867.7314, 435.6406
868.2136, 471.4531
868.6957, 531.5391
869.1778, 569.1875
869.6599, 552.5547
870.1420, 486.4766
870.6241, 369.2344
871.1063, 192.2891
871.5884, 51.32812
872.0705, 60.91406
872.5526, 102.1250
873.0347, 21.28906
873.5168, 120.5625
873.9990, 213.3906
874.4811, 246.8828
874.9632, 266.4375
875.4453, 249.5781
875.9274, 243.5391
876.4095, 282.0078
876.8917, 325.8281
877.3738, 331.3672
877.8559, 298.0859
878.3380, 258.2656
878.8201, 224.1016
879.3022, 190.8438
879.7844, 143.0234
880.2665, 99.82031
880.7486, 98.49219
881.2307, 133.5391
881.7128, 164.3047
882.1949, 167.7266
882.6771, 156.0938
883.1592, 150.5625
883.6413, 150.5312
884.1234, 143.5547
884.6055, 128.8594
885.0876, 123.2812
885.5698, 135.2578
886.0519, 162.1094
886.5340, 206.9766
887.0161, 274.8594
887.4982, 291.3281
887.9803, 220.2656
888.4625, 162.0703
888.9446, 132.9531
889.4267, 128.0234
889.9088, 166.2266
890.3909, 230.1719
890.8730, 237.6719
891.3552, 112.1641
891.8373, 23.32812
892.3194, 40.01562
892.8015, 89.49219
893.2836, 126.5312
893.7657, 146.6562
894.2479, 159.2266
894.7300, 168.6641
895.2121, 147.6719
895.6942, 15.57812
896.1763, 123.0312
896.6584, 102.4844
897.1406, 45.60938
897.6227, 241.4688
898.1048, 449.5859
898.5869, 561.2734
899.0690, 439.7266
899.5511, 173.5703
900.0333, 70.53125
900.5154, 136.5391
900.9975, 233.3125
901.4796, 352.5391
901.9617, 438.4219
902.4438, 454.3750
902.9260, 405.9766
903.4081, 297.3125
903.8902, 53.19531
904.3723, 61.67188
904.8544, 63.31250
905.3365, 179.3359
905.8187, 201.2344
906.3008, 168.7969
906.7829, 115.6797
907.2650, 46.07812
907.7471, 5.335938
908.2292, 11.38281
908.7114, 42.23438
909.1935, 108.4219
909.6756, 184.2422
910.1577, 251.7578
910.6398, 304.0156
911.1219, 328.7969
911.6041, 315.0078
912.0862, 292.0078
912.5683, 268.2734
913.0504, 262.7969
913.5325, 331.3438
914.0146, 453.3750
914.4968, 534.4688
914.9789, 537.0156
915.4610, 512.9531
915.9431, 524.8828
916.4252, 566.4609
916.9073, 587.7422
917.3895, 591.6797
917.8716, 586.0547
918.3537, 563.0781
918.8358, 575.0938
919.3179, 687.3984
919.8000, 858.1641
920.2822, 891.7344
920.7643, 698.5391
921.2464, 593.2188
921.7285, 658.1406
922.2106, 721.3438
922.6927, 688.5312
923.1749, 610.7344
923.6570, 570.7109
924.1391, 582.0156
924.6212, 551.0859
925.1033, 432.6172
925.5854, 313.5547
926.0676, 191.0547
926.5497, 115.1328
927.0318, 179.9062
927.5139, 341.2500
927.9960, 397.6875
928.4781, 199.7812
928.9603, 16.10156
929.4424, 81.69531
929.9245, 241.3750
930.4066, 329.9375
930.8887, 342.2891
931.3708, 283.0078
931.8530, 158.4062
932.3351, 84.66406
932.8172, 244.1094
933.2993, 524.8828
933.7814, 627.9141
934.2635, 584.8906
934.7457, 595.6875
935.2278, 707.7578
935.7099, 791.1562
936.1920, 727.6250
936.6741, 568.5000
937.1563, 467.9609
937.6384, 427.3359
938.1205, 456.1484
938.6026, 589.8906
939.0847, 699.1875
939.5668, 697.4844
940.0490, 633.5391
940.5311, 619.3906
941.0132, 673.2266
941.4953, 694.5547
941.9774, 651.6562
942.4595, 624.0156
942.9417, 645.3359
943.4238, 672.5234
943.9059, 684.8125
944.3880, 673.9219
944.8701, 613.9688
945.3522, 443.8516
945.8344, 345.7812
946.3165, 443.2891
946.7986, 548.9219
947.2807, 521.4297
947.7628, 429.0938
948.2449, 390.7891
948.7271, 429.8125
949.2092, 481.8984
949.6913, 520.3047
950.1734, 548.3203
950.6555, 570.3984
951.1376, 583.1016
951.6198, 581.2500
952.1019, 565.9297
952.5840, 543.2812
953.0661, 497.0312
953.5482, 461.9531
954.0303, 526.7891
954.5125, 652.6172
954.9946, 717.1719
955.4767, 718.6094
955.9588, 688.3047
956.4409, 636.8438
956.9230, 598.7188
957.4052, 615.8516
957.8873, 668.3281
958.3694, 673.4062
958.8515, 628.4375
959.3336, 570.6875
959.8157, 502.1328
960.2979, 429.2812
960.7800, 344.5469
961.2621, 274.3047
961.7442, 277.6797
962.2263, 368.3125
962.7084, 469.6406
963.1906, 638.8906
963.6727, 696.9609
964.1548, 499.5703
964.6369, 268.1953
965.1190, 247.0938
965.6011, 405.9219
966.0833, 468.3047
966.5654, 353.0859
967.0475, 263.7969
967.5296, 232.8438
968.0117, 213.8359
968.4938, 174.1406
968.9760, 133.7109
969.4581, 131.6016
969.9402, 174.8672
970.4223, 200.2109
970.9044, 161.4062
971.3865, 130.3594
971.8687, 179.7188
972.3508, 229.0703
972.8329, 150.4062
973.3150, 11.68750
973.7971, 73.23438
974.2792, 66.15625
974.7614, 208.0938
975.2435, 166.1641
975.7256, 76.39062
976.2077, 115.2109
976.6898, 231.4922
977.1719, 289.3750
977.6541, 259.1250
978.1362, 220.1328
978.6183, 241.5469
979.1004, 275.8672
979.5825, 231.6172
980.0646, 142.0156
980.5468, 92.90625
981.0289, 94.92969
981.5110, 152.9453
981.9931, 272.9297
982.4752, 367.3906
982.9573, 282.4375
983.4395, 63.37500
983.9216, 31.04688
984.4037, 2.734375
984.8858, 20.39062
985.3679, 5.351563
985.8500, 15.44531
986.3322, 109.6094
986.8143, 245.9688
987.2964, 302.2734
987.7785, 269.8281
988.2606, 212.9375
988.7427, 116.1719
989.2249, 52.12500
989.7070, 58.32031
990.1891, 95.35156
990.6712, 123.5391
991.1533, 141.7891
991.6354, 129.3359
992.1176, 72.38281
992.5997, 14.30469
993.0818, 56.91406
993.5639, 103.9922
994.0460, 89.17969
994.5281, 40.77344
995.0103, 9.460938
995.4924, 10.79688
995.9745, 8.406250
996.4566, 169.9766
996.9387, 237.3047
997.4208, 50.61719
997.9030, 171.0625
998.3851, 250.4219
998.8672, 207.7422
999.3493, 143.7188
999.8314, 55.77344
1000.314, 5.320313
1000.796, 25.67188
1001.278, 20.01562
1001.760, 14.87500
1002.242, 62.10156
1002.724, 101.8984
1003.206, 131.3672
1003.688, 160.2031
1004.170, 193.8984
1004.653, 228.6484
1005.135, 274.2969
1005.617, 310.2109
1006.099, 315.8203
1006.581, 296.2578
1007.063, 255.4766
1007.545, 197.5234
1008.027, 162.7578
1008.510, 244.0156
1008.992, 304.2891
1009.474, 122.4844
1009.956, 140.8125
1010.438, 196.0625
1010.920, 47.92969
1011.402, 117.3281
1011.884, 210.8359
1012.367, 263.1172
1012.849, 292.3750
1013.331, 310.8281
1013.813, 347.0625
1014.295, 390.7031
1014.777, 395.2422
1015.259, 358.1797
1015.741, 350.2188
1016.223, 433.8359
1016.706, 542.2734
1017.188, 543.0391
1017.670, 471.1875
1018.152, 468.3516
1018.634, 533.5547
1019.116, 572.6094
1019.598, 551.7578
1020.080, 514.9609
1020.563, 504.2656
1021.045, 518.5156
1021.527, 571.8281
1022.009, 657.5078
1022.491, 659.9062
1022.973, 561.7344
1023.455, 502.1250
1023.937, 554.6875
1024.419, 661.6250
1024.901, 742.5625
1025.384, 800.5391
1025.866, 877.2812
1026.348, 981.6250
1026.830, 1005.055
1027.312, 906.8984
1027.794, 822.0703
1028.276, 852.2656
1028.758, 930.6641
1029.241, 895.2422
1029.723, 719.9531
1030.205, 669.2891
1030.687, 789.8125
1031.169, 867.8750
1031.651, 839.3359
1032.133, 768.1328
1032.615, 683.1562
1033.098, 596.6250
1033.580, 564.0938
1034.062, 615.7734
1034.544, 633.0078
1035.026, 589.0000
1035.508, 567.2891
1035.990, 610.9453
1036.472, 674.3906
1036.954, 708.5469
1037.437, 716.8750
1037.919, 733.5156
1038.401, 766.6641
1038.883, 793.4766
1039.365, 822.0703
1039.847, 832.6094
1040.329, 792.9922
1040.811, 742.5078
1041.293, 743.5078
1041.776, 797.3672
1042.258, 828.6719
1042.740, 775.1875
1043.222, 785.5000
1043.704, 971.9688
1044.186, 1123.961
1044.668, 1089.820
1045.150, 959.5000
1045.633, 880.1641
1046.115, 859.3750
1046.597, 876.1953
1047.079, 971.5234
1047.561, 1048.359
1048.043, 1102.953
1048.525, 1121.398
1049.007, 1037.531
1049.490, 916.0000
1049.972, 930.5000
1050.454, 1146.172
1050.936, 1307.109
1051.418, 1379.719
1051.900, 1380.555
1052.382, 1253.070
1052.864, 1110.000
1053.346, 1056.242
1053.828, 1067.555
1054.311, 1039.188
1054.793, 937.5469
1055.275, 890.2812
1055.757, 937.2109
1056.239, 1010.188
1056.721, 1094.750
1057.203, 1174.602
1057.685, 1249.375
1058.168, 1305.641
1058.650, 1299.383
1059.132, 1182.984
1059.614, 1098.227
1060.096, 1098.336
1060.578, 1129.383
1061.060, 1200.047
1061.542, 1259.219
1062.025, 1240.266
1062.507, 1146.609
1062.989, 1042.188
1063.471, 927.6562
1063.953, 845.9141
1064.435, 814.0547
1064.917, 820.5781
1065.399, 906.5625
1065.881, 1009.875
1066.364, 1019.281
1066.846, 927.4219
1067.328, 843.3125
1067.810, 766.2500
1068.292, 741.8516
1068.774, 894.2734
1069.256, 1025.133
1069.738, 920.2266
1070.220, 707.5703
1070.703, 620.0391
1071.185, 689.2344
1071.667, 745.0859
1072.149, 685.8125
1072.631, 638.9219
1073.113, 717.6797
1073.595, 784.3906
1074.077, 655.3672
1074.560, 453.4531
1075.042, 428.0703
1075.524, 624.6094
1076.006, 808.1016
1076.488, 884.2266
1076.970, 913.2109
1077.452, 917.7891
1077.934, 892.9609
1078.417, 815.6797
1078.899, 711.4922
1079.381, 617.3672
1079.863, 541.3281
1080.345, 525.4844
1080.827, 661.2031
1081.309, 770.1562
1081.791, 733.7500
1082.273, 649.4219
1082.756, 601.0938
1083.238, 583.3594
1083.720, 557.5469
1084.202, 512.8594
1084.684, 497.0469
1085.166, 577.7188
1085.648, 635.9453
1086.130, 589.6641
1086.613, 507.8828
1087.095, 444.5859
1087.577, 405.4375
1088.059, 393.8359
1088.541, 414.7656
1089.023, 414.3516
1089.505, 335.2656
1089.987, 272.6016
1090.469, 283.8906
1090.952, 325.5859
1091.434, 378.5078
1091.916, 422.2266
1092.398, 409.8984
1092.880, 321.7109
1093.362, 256.9375
1093.844, 274.1953
1094.326, 294.5781
1094.808, 272.5781
1095.291, 242.5469
1095.773, 253.8750
1096.255, 281.1719
1096.737, 241.8359
1097.219, 101.4141
1097.701, 30.71094
1098.183, 176.9141
1098.665, 286.2266
1099.148, 209.1328
1099.630, 86.49219
1100.112, 31.30469
1100.594, 36.60156
1101.076, 62.11719
1101.558, 104.3672
1102.040, 146.8516
1102.522, 193.8438
1103.005, 230.4453
1103.487, 275.8672
1103.969, 286.1172
1104.451, 195.4844
1104.933, 47.60938
1105.415, 57.67188
1105.897, 108.2422
1106.379, 118.7266
1106.861, 52.34375
1107.344, 0.9375000
1107.826, 49.32031
1108.308, 70.73438
1108.790, 64.60938
1109.272, 291.5156
1109.754, 457.9141
1110.236, 548.1719
1110.718, 601.9531
1111.200, 597.6797
1111.683, 591.3984
1112.165, 643.9844
1112.647, 651.9375
1113.129, 481.8281
1113.611, 234.5469
1114.093, 140.9609
1114.575, 241.7344
1115.057, 305.4531
1115.540, 315.2031
1116.022, 314.9609
1116.504, 327.3203
1116.986, 311.6797
1117.468, 217.3203
1117.950, 92.39844
1118.432, 27.28906
1118.914, 24.80469
1119.396, 66.85156
1119.879, 217.4375
1120.361, 272.2031
1120.843, 143.6250
1121.325, 11.96094
1121.807, 7.812500
1122.289, 19.49219
1122.771, 24.28906
1123.253, 143.7109
1123.735, 203.8750
1124.218, 197.5391
1124.700, 149.3672
1125.182, 43.13281
1125.664, 50.17969
1126.146, 92.73438
1126.628, 100.3047
1127.110, 89.71094
1127.592, 64.04688
1128.075, 71.55469
1128.557, 115.5234
1129.039, 171.0547
1129.521, 239.7969
1130.003, 288.7422
1130.485, 300.0234
1130.967, 290.7031
1131.449, 275.3984
1131.932, 261.9219
1132.414, 314.3281
1132.896, 431.8672
1133.378, 421.8125
1133.860, 262.5703
1134.342, 133.2031
1134.824, 107.2031
1135.306, 136.5000
1135.788, 172.7891
1136.271, 219.5703
1136.753, 311.0078
1137.235, 426.1953
1137.717, 422.1172
1138.199, 309.0781
1138.681, 262.3438
1139.163, 335.7422
1139.645, 399.7578
1140.127, 331.9062
1140.610, 219.9375
1141.092, 246.3516
1141.574, 339.0781
1142.056, 273.5234
1142.538, 104.2031
1143.020, 81.31250
1143.502, 248.8281
1143.984, 420.1094
1144.467, 470.4844
1144.949, 467.4531
1145.431, 484.3984
1145.913, 500.4141
1146.395, 473.7734
1146.877, 424.6250
1147.359, 384.1875
1147.841, 366.4922
1148.323, 403.2734
1148.806, 522.7422
1149.288, 629.8047
1149.770, 651.6406
1150.252, 626.1172
1150.734, 547.0156
1151.216, 468.3438
1151.698, 480.0859
1152.180, 559.8516
1152.662, 602.0000
1153.145, 569.4062
1153.627, 531.2891
1154.109, 547.7109
1154.591, 537.3594
1155.073, 405.0391
1155.555, 270.1484
1156.037, 267.6328
1156.519, 350.6953
1157.002, 393.3047
1157.484, 371.8906
1157.966, 346.8750
1158.448, 306.1641
1158.930, 299.2344
1159.412, 378.6562
1159.894, 452.8750
1160.376, 448.0469
1160.859, 405.4375
1161.341, 397.9531
1161.823, 427.9766
1162.305, 448.3125
1162.787, 423.6875
1163.269, 453.5469
1163.751, 620.6250
1164.233, 713.7734
1164.715, 586.6406
1165.198, 421.0391
1165.680, 441.4297
1166.162, 615.6641
1166.644, 719.4922
1167.126, 738.8828
1167.608, 726.3047
1168.090, 676.3203
1168.572, 628.0703
1169.054, 593.3203
1169.537, 574.0156
1170.019, 573.4766
1170.501, 587.9844
1170.983, 602.4297
1171.465, 618.4609
1171.947, 701.6953
1172.429, 844.7188
1172.911, 849.4844
1173.394, 675.5859
1173.876, 525.9141
1174.358, 532.6328
1174.840, 612.0547
1175.322, 658.4141
1175.804, 673.9219
1176.286, 648.7578
1176.768, 601.3594
1177.250, 587.3594
1177.733, 608.9453
1178.215, 630.8672
1178.697, 637.6328
1179.179, 645.5156
1179.661, 676.9609
1180.143, 710.8594
1180.625, 734.5156
1181.107, 727.8672
1181.589, 645.9531
1182.072, 533.7266
1182.554, 502.3438
1183.036, 570.3281
1183.518, 605.3594
1184.000, 500.3984
1184.482, 413.0469
1184.964, 423.3125
1185.446, 477.2344
1185.929, 554.9375
1186.411, 640.8750
1186.893, 728.7109
1187.375, 813.3047
1187.857, 864.2812
1188.339, 882.0625
1188.821, 852.1328
1189.303, 714.4219
1189.786, 601.3125
1190.268, 558.3438
1190.750, 559.6797
1191.232, 607.1719
1191.714, 673.9922
1192.196, 693.1562
1192.678, 659.0469
1193.160, 615.4062
1193.642, 544.8281
1194.125, 525.4453
1194.607, 582.5703
1195.089, 656.7969
1195.571, 723.6406
1196.053, 765.6641
1196.535, 749.0469
1197.017, 692.0547
1197.499, 704.9375
1197.981, 781.7422
1198.464, 771.6406
1198.946, 672.9688
1199.428, 650.5234
1199.910, 757.6172
1200.392, 857.3828
1200.874, 829.9609
1201.356, 733.9297
1201.838, 649.0469
1202.321, 584.2734
1202.803, 585.1953
1203.285, 617.7266
1203.767, 568.9688
1204.249, 444.6406
1204.731, 385.4062
1205.213, 467.4375
1205.695, 571.2891
1206.177, 612.1094
1206.660, 629.6641
1207.142, 658.3359
1207.624, 679.9609
1208.106, 666.8125
1208.588, 629.7266
1209.070, 597.2422
1209.552, 575.3594
1210.034, 551.1641
1210.516, 547.7109
1210.999, 502.3047
1211.481, 315.0938
1211.963, 176.6641
1212.445, 241.3203
1212.927, 380.4375
1213.409, 430.8828
1213.891, 407.1094
1214.373, 410.4688
1214.856, 444.8359
1215.338, 496.2266
1215.820, 580.8750
1216.302, 632.3125
1216.784, 629.0234
1217.266, 596.9922
1217.748, 551.2266
1218.230, 500.2109
1218.713, 455.2109
1219.195, 419.5547
1219.677, 432.2188
1220.159, 483.1641
1220.641, 457.0078
1221.123, 349.9688
1221.605, 299.1953
1222.087, 363.8125
1222.569, 463.0625
1223.052, 536.9688
1223.534, 570.7578
1224.016, 513.4062
1224.498, 421.0938
1224.980, 390.1172
1225.462, 396.9609
1225.944, 373.8125
1226.426, 311.0156
1226.909, 257.3047
1227.391, 231.2188
1227.873, 225.3125
1228.355, 261.8750
1228.837, 287.2188
1229.319, 230.7891
1229.801, 182.8516
1230.283, 270.0781
1230.766, 427.1484
1231.248, 469.2188
1231.730, 357.8438
1232.212, 292.6172
1232.694, 303.6016
1233.176, 320.2891
1233.658, 334.8906
1234.140, 355.2891
1234.622, 386.9844
1235.104, 422.4609
1235.587, 460.2891
1236.069, 487.6797
1236.551, 446.2969
1237.033, 334.5156
1237.515, 237.7422
1237.997, 159.2422
1238.479, 115.1641
1238.961, 109.6172
1239.444, 145.6875
1239.926, 230.5859
1240.408, 297.3047
1240.890, 236.9688
1241.372, 119.7031
1241.854, 53.39844
1242.336, 27.14062
1242.818, 41.16406
1243.301, 72.87500
1243.783, 64.33594
1244.265, 5.632813
1244.747, 41.85156
1245.229, 45.26562
1245.711, 35.70312
1246.193, 36.00000
1246.675, 20.79688
1247.157, 48.38281
1247.640, 122.7500
1248.122, 124.9453
1248.604, 84.13281
1249.086, 135.8984
1249.568, 336.2344
1250.050, 399.1641
1250.532, 256.5000
1251.014, 128.3516
1251.496, 39.64844
1251.979, 5.500000
1252.461, 42.88281
1252.943, 113.7500
1253.425, 183.1875
1253.907, 232.3516
1254.389, 160.2891
1254.871, 7.093750
1255.353, 57.45312
1255.836, 0.7343750
1256.318, 10.73438
1256.800, 52.43750
1257.282, 104.5000
1257.764, 96.70312
1258.246, 47.53906
1258.728, 51.58594
1259.210, 153.2344
1259.693, 207.9609
1260.175, 229.7266
1260.657, 225.6328
1261.139, 210.1953
1261.621, 209.0156
1262.103, 226.0547
1262.585, 249.5000
1263.067, 281.0469
1263.549, 307.6719
1264.031, 303.7422
1264.514, 320.3750
1264.996, 428.5938
1265.478, 509.8906
1265.960, 425.4922
1266.442, 272.5156
1266.924, 298.7500
1267.406, 502.2031
1267.888, 573.5938
1268.371, 517.8516
1268.853, 406.1406
1269.335, 229.9844
1269.817, 191.0312
1270.299, 371.5312
1270.781, 520.6328
1271.263, 388.6094
1271.745, 181.1641
1272.228, 230.7969
1272.710, 370.1016
1273.192, 410.9531
1273.674, 337.3047
1274.156, 262.8438
1274.638, 258.9531
1275.120, 315.1953
1275.602, 443.0234
1276.084, 518.4766
1276.567, 454.9766
1277.049, 374.3750
1277.531, 300.7031
1278.013, 247.5312
1278.495, 228.8906
1278.977, 233.3906
1279.459, 256.2422
1279.941, 279.6094
1280.423, 234.6953
1280.906, 77.12500
1281.388, 45.45312
1281.870, 177.3359
1282.352, 208.3281
1282.834, 67.21875
1283.316, 26.81250
1283.798, 48.02344
1284.280, 188.1172
1284.763, 288.5000
1285.245, 334.3203
1285.727, 267.2656
1286.209, 153.3828
1286.691, 79.16406
1287.173, 87.60938
1287.655, 155.9688
1288.137, 254.0000
1288.620, 267.9609
1289.102, 122.7266
1289.584, 0.0000000E+00
##END=



