##NAMES=Carnallite
##RRUFFID=R050353
##IDEAL CHEMISTRY=KMgCl_3_&#183;6H_2_O
##LOCALITY=Strassfurt, Germany
##OWNER=RRUFF
##SOURCE=California Institute of Technology
##DESCRIPTION=Colorless single crystals and grains associated with halite, sylvite, and anhydrite.
##STATUS=The identification of this mineral has been confirmed by X-ray diffraction.
##URL=rruff.info/R050353
174.5224, 0.0000000E+00
175.0045, 88.69922
175.4866, 66.96484
175.9687, 24.02734
176.4508, 37.55469
176.9330, 16.42969
177.4151, 108.1758
177.8972, 209.2656
178.3793, 323.1523
178.8614, 465.4961
179.3435, 631.5703
179.8257, 830.8555
180.3078, 1094.539
180.7899, 1436.977
181.2720, 1792.973
181.7541, 2055.441
182.2362, 2247.160
182.7184, 2494.320
183.2005, 2941.852
183.6826, 3507.172
184.1647, 3955.422
184.6468, 4197.555
185.1289, 4389.797
185.6111, 4812.273
186.0932, 5459.480
186.5753, 6124.531
187.0574, 6651.152
187.5395, 7060.137
188.0216, 7465.902
188.5037, 7869.703
188.9859, 8292.484
189.4680, 8803.391
189.9501, 9404.309
190.4322, 10036.02
190.9143, 10650.17
191.3964, 11243.45
191.8786, 11805.11
192.3607, 12325.84
192.8428, 12809.84
193.3249, 13247.86
193.8070, 13624.19
194.2891, 13994.18
194.7713, 14467.53
195.2534, 15054.31
195.7355, 15565.91
196.2176, 15891.52
196.6997, 16040.96
197.1818, 16238.14
197.6640, 16498.97
198.1461, 16785.98
198.6282, 17038.16
199.1103, 17255.23
199.5924, 17440.38
200.0745, 17591.48
200.5567, 17706.11
201.0388, 17792.09
201.5209, 17833.35
202.0030, 17853.66
202.4851, 17950.22
202.9672, 18158.06
203.4494, 18303.42
203.9315, 18221.66
204.4136, 17863.85
204.8957, 17616.01
205.3778, 17575.84
205.8599, 17685.70
206.3421, 17629.16
206.8242, 17366.29
207.3063, 17043.80
207.7884, 16772.23
208.2705, 16563.72
208.7526, 16383.57
209.2348, 16206.06
209.7169, 16082.30
210.1990, 16048.03
210.6811, 16083.01
211.1632, 16135.00
211.6453, 16096.11
212.1275, 15997.26
212.6096, 15856.26
213.0917, 15615.94
213.5738, 15273.53
214.0559, 14966.14
214.5380, 14732.89
215.0202, 14607.91
215.5023, 14445.97
215.9844, 14255.98
216.4665, 14056.91
216.9486, 13853.59
217.4307, 13623.63
217.9129, 13366.72
218.3950, 13082.77
218.8771, 12782.59
219.3592, 12507.69
219.8413, 12269.78
220.3234, 12021.10
220.8056, 11737.07
221.2877, 11385.50
221.7698, 11095.17
222.2519, 10918.48
222.7340, 10792.20
223.2161, 10483.14
223.6983, 9853.234
224.1804, 9246.273
224.6625, 8889.539
225.1446, 8920.246
225.6267, 8877.512
226.1088, 8726.609
226.5910, 8476.652
227.0731, 8145.934
227.5552, 7680.305
228.0373, 7201.570
228.5194, 6815.371
229.0015, 6604.207
229.4836, 6318.945
229.9658, 5899.984
230.4479, 5354.086
230.9300, 4899.480
231.4121, 4576.500
231.8942, 4304.559
232.3763, 4054.273
232.8585, 3796.145
233.3406, 3523.125
233.8227, 3217.371
234.3048, 2873.723
234.7869, 2625.570
235.2690, 2523.438
235.7512, 2468.098
236.2333, 2346.426
236.7154, 2123.809
237.1975, 1896.441
237.6796, 1682.191
238.1617, 1485.824
238.6439, 1277.418
239.1260, 1030.387
239.6081, 790.5820
240.0902, 627.9297
240.5723, 588.5117
241.0544, 546.4180
241.5366, 452.1914
242.0187, 272.6680
242.5008, 176.6953
242.9829, 223.9375
243.4650, 322.3906
243.9471, 299.5977
244.4293, 74.77344
244.9114, 147.8906
245.3935, 293.4805
245.8756, 339.3438
246.3577, 382.2305
246.8398, 440.6445
247.3220, 490.4883
247.8041, 468.1641
248.2862, 317.0273
248.7683, 179.9609
249.2504, 125.8516
249.7325, 206.5820
250.2147, 244.6680
250.6968, 223.4023
251.1789, 161.6250
251.6610, 112.4375
252.1431, 73.85938
252.6252, 49.59375
253.1074, 33.70312
253.5895, 0.9804690
254.0716, 47.56641
254.5537, 243.7266
255.0358, 520.8711
255.5179, 611.5117
256.0001, 421.2344
256.4822, 185.6875
256.9643, 37.83984
257.4464, 5.585938
257.9285, 6.160156
258.4106, 9.789063
258.8928, 42.68750
259.3749, 27.73438
259.8570, 63.53906
260.3391, 155.5195
260.8212, 189.5547
261.3033, 136.8672
261.7855, 104.4648
262.2676, 106.4141
262.7497, 138.1719
263.2318, 167.9727
263.7139, 184.5820
264.1960, 216.3398
264.6782, 290.6719
265.1603, 424.2148
265.6424, 549.8906
266.1245, 661.5469
266.6066, 758.6562
267.0887, 842.9961
267.5709, 921.9766
268.0530, 974.4141
268.5351, 969.7383
269.0172, 886.1641
269.4993, 830.3789
269.9814, 834.5547
270.4636, 890.0664
270.9457, 896.5938
271.4278, 830.0117
271.9099, 765.0508
272.3920, 785.5039
272.8741, 911.3320
273.3563, 1029.578
273.8384, 1116.461
274.3205, 1173.781
274.8026, 1216.535
275.2847, 1235.289
275.7668, 1261.500
276.2490, 1341.312
276.7311, 1487.070
277.2132, 1603.691
277.6953, 1661.520
278.1774, 1666.352
278.6595, 1654.199
279.1417, 1611.250
279.6238, 1594.945
280.1059, 1680.777
280.5880, 1874.395
281.0701, 2063.707
281.5522, 2217.594
282.0344, 2341.863
282.5165, 2456.199
282.9986, 2557.160
283.4807, 2640.391
283.9628, 2696.836
284.4449, 2727.160
284.9271, 2768.234
285.4092, 2823.035
285.8913, 2893.609
286.3734, 3011.992
286.8555, 3187.562
287.3376, 3369.750
287.8198, 3488.359
288.3019, 3545.574
288.7840, 3607.898
289.2661, 3705.574
289.7482, 3826.328
290.2303, 3915.152
290.7124, 3963.586
291.1945, 4021.699
291.6767, 4172.582
292.1588, 4399.898
292.6409, 4587.566
293.1230, 4658.219
293.6051, 4657.379
294.0872, 4725.215
294.5694, 4869.797
295.0515, 5018.945
295.5336, 5079.973
296.0157, 5074.230
296.4978, 5091.188
296.9799, 5210.926
297.4621, 5371.250
297.9442, 5408.465
298.4263, 5315.367
298.9084, 5228.465
299.3905, 5335.297
299.8727, 5567.852
300.3548, 5733.945
300.8369, 5698.422
301.3190, 5569.938
301.8011, 5523.453
302.2832, 5559.754
302.7654, 5574.043
303.2475, 5438.465
303.7296, 5224.340
304.2117, 5071.352
304.6938, 5106.734
305.1759, 5199.465
305.6581, 5174.801
306.1402, 5033.477
306.6223, 4922.480
307.1044, 5019.914
307.5865, 5205.695
308.0686, 5291.387
308.5508, 5113.785
309.0329, 4865.535
309.5150, 4720.707
309.9971, 4682.734
310.4792, 4645.270
310.9613, 4520.094
311.4435, 4358.750
311.9256, 4225.422
312.4077, 4180.258
312.8898, 4126.805
313.3719, 4015.855
313.8540, 3863.586
314.3362, 3715.492
314.8183, 3569.105
315.3004, 3430.922
315.7825, 3314.695
316.2646, 3291.969
316.7467, 3229.969
317.2289, 3017.410
317.7110, 2657.824
318.1931, 2397.535
318.6752, 2430.051
319.1573, 2557.238
319.6394, 2594.449
320.1216, 2379.934
320.6037, 2179.762
321.0858, 2109.508
321.5679, 2168.051
322.0500, 2165.801
322.5321, 2014.375
323.0143, 1809.172
323.4964, 1625.043
323.9785, 1457.027
324.4606, 1328.836
324.9427, 1261.633
325.4248, 1252.918
325.9070, 1230.977
326.3891, 1202.098
326.8712, 1147.059
327.3533, 1053.195
327.8354, 843.1523
328.3175, 680.2031
328.7997, 597.5156
329.2818, 588.0664
329.7639, 562.4492
330.2460, 504.4102
330.7281, 445.5820
331.2102, 406.6523
331.6924, 410.2617
332.1745, 398.8789
332.6566, 364.4922
333.1387, 310.7578
333.6208, 258.9688
334.1029, 212.8516
334.5851, 166.9648
335.0672, 118.5977
335.5493, 70.09766
336.0314, 8.769531
336.5135, 92.13672
336.9956, 203.7188
337.4778, 192.6367
337.9599, 10.04688
338.4420, 185.8359
338.9241, 173.2695
339.4062, 84.94531
339.8883, 218.6445
340.3705, 159.7070
340.8526, 7.703125
341.3347, 58.78125
341.8168, 32.80078
342.2989, 120.1719
342.7810, 94.83203
343.2632, 43.89062
343.7453, 97.02344
344.2274, 24.70703
344.7095, 89.63672
345.1916, 93.34375
345.6737, 15.67188
346.1559, 163.7852
346.6380, 335.5352
347.1201, 519.3516
347.6022, 678.4102
348.0843, 814.5625
348.5664, 904.3008
349.0486, 868.2656
349.5307, 732.0352
350.0128, 655.4922
350.4949, 778.9180
350.9770, 1005.414
351.4591, 1123.977
351.9413, 1113.980
352.4234, 1078.406
352.9055, 1129.246
353.3876, 1239.578
353.8697, 1336.699
354.3518, 1354.695
354.8340, 1363.352
355.3161, 1476.945
355.7982, 1706.023
356.2803, 1887.500
356.7624, 1841.969
357.2445, 1679.465
357.7267, 1569.969
358.2088, 1563.852
358.6909, 1644.277
359.1730, 1842.316
359.6551, 2152.844
360.1372, 2426.949
360.6194, 2562.645
361.1015, 2631.340
361.5836, 2705.879
362.0657, 2843.691
362.5478, 2955.090
363.0299, 2987.609
363.5121, 2949.852
363.9942, 2926.367
364.4763, 2947.766
364.9584, 2989.059
365.4405, 3033.316
365.9226, 3078.438
366.4048, 3125.047
366.8869, 3193.668
367.3690, 3272.426
367.8511, 3298.219
368.3332, 3215.359
368.8153, 3117.414
369.2975, 3048.527
369.7796, 2994.594
370.2617, 2994.875
370.7438, 3096.836
371.2259, 3253.355
371.7080, 3329.312
372.1902, 3280.617
372.6722, 3208.805
373.1544, 3154.336
373.6365, 3129.539
374.1186, 3082.477
374.6007, 2989.090
375.0828, 2889.324
375.5649, 2872.555
376.0471, 2977.023
376.5292, 3052.289
377.0113, 3013.855
377.4934, 2847.301
377.9755, 2806.582
378.4576, 2928.746
378.9398, 3094.324
379.4219, 3132.191
379.9040, 3032.965
380.3861, 2949.055
380.8682, 2949.613
381.3503, 3008.172
381.8325, 2998.324
382.3146, 2915.199
382.7967, 2797.871
383.2788, 2660.844
383.7609, 2516.352
384.2430, 2418.816
384.7252, 2397.359
385.2073, 2423.898
385.6894, 2467.016
386.1715, 2525.129
386.6536, 2557.992
387.1357, 2528.473
387.6179, 2455.766
388.1000, 2367.824
388.5821, 2257.914
389.0642, 2159.133
389.5463, 2105.758
390.0284, 2092.965
390.5106, 2102.992
390.9927, 2157.777
391.4748, 2214.363
391.9569, 2227.711
392.4390, 2170.488
392.9211, 2117.957
393.4033, 2089.461
393.8854, 2092.812
394.3675, 2143.430
394.8496, 2345.367
395.3317, 2513.457
395.8138, 2541.754
396.2960, 2371.871
396.7781, 2223.992
397.2602, 2160.262
397.7423, 2137.375
398.2244, 2105.359
398.7065, 2021.938
399.1887, 1964.371
399.6708, 1960.457
400.1529, 2016.641
400.6350, 2058.977
401.1171, 2091.785
401.5992, 2108.777
402.0814, 2103.664
402.5635, 2059.406
403.0456, 2024.883
403.5277, 2021.191
404.0098, 2037.203
404.4919, 1985.879
404.9741, 1816.766
405.4562, 1676.871
405.9383, 1706.145
406.4204, 1949.855
406.9025, 2063.461
407.3846, 1984.016
407.8668, 1788.668
408.3489, 1648.156
408.8310, 1565.727
409.3131, 1517.137
409.7952, 1496.207
410.2773, 1500.320
410.7595, 1519.254
411.2416, 1557.367
411.7237, 1596.434
412.2058, 1605.285
412.6879, 1589.426
413.1700, 1578.926
413.6522, 1609.270
414.1343, 1643.945
414.6164, 1604.273
415.0985, 1485.328
415.5806, 1387.078
416.0627, 1426.266
416.5449, 1532.227
417.0270, 1594.945
417.5091, 1566.648
417.9912, 1490.676
418.4733, 1358.465
418.9554, 1186.266
419.4376, 1074.352
419.9197, 1145.891
420.4018, 1262.934
420.8839, 1307.863
421.3660, 1182.918
421.8481, 1087.574
422.3303, 1092.980
422.8124, 1170.055
423.2945, 1237.984
423.7766, 1281.453
424.2587, 1311.688
424.7408, 1335.883
425.2230, 1367.598
425.7051, 1355.758
426.1872, 1260.047
426.6693, 1135.777
427.1514, 1061.977
427.6335, 1072.816
428.1157, 1086.711
428.5978, 1075.996
429.0799, 1035.812
429.5620, 1005.742
430.0441, 998.0898
430.5262, 989.3477
431.0084, 953.6602
431.4905, 886.9961
431.9726, 826.8711
432.4547, 789.7734
432.9368, 759.4766
433.4189, 662.4961
433.9011, 492.7734
434.3832, 352.1016
434.8653, 321.0938
435.3474, 386.0508
435.8295, 473.6797
436.3116, 577.1914
436.7938, 664.7695
437.2759, 685.4922
437.7580, 654.7930
438.2401, 624.2148
438.7222, 613.1055
439.2043, 620.2656
439.6865, 667.7656
440.1686, 763.5742
440.6507, 809.6875
441.1328, 673.8203
441.6149, 460.8789
442.0970, 310.9805
442.5792, 297.6875
443.0613, 338.9414
443.5434, 428.7422
444.0255, 558.1328
444.5076, 645.1289
444.9897, 634.4961
445.4719, 590.6289
445.9540, 549.6836
446.4361, 512.3359
446.9182, 476.4570
447.4003, 446.5508
447.8824, 423.2031
448.3646, 406.5703
448.8467, 419.9023
449.3288, 416.1211
449.8109, 379.2266
450.2930, 303.6289
450.7751, 213.3281
451.2573, 69.51562
451.7394, 47.69922
452.2215, 5.722656
452.7036, 242.8320
453.1857, 432.2734
453.6678, 473.3359
454.1500, 401.4414
454.6321, 400.1211
455.1142, 482.1016
455.5963, 544.5664
456.0784, 466.2969
456.5605, 275.8086
457.0426, 127.0586
457.5247, 38.92578
458.0069, 15.46094
458.4890, 110.9219
458.9711, 295.2930
459.4532, 437.1289
459.9353, 424.8711
460.4174, 341.6719
460.8996, 283.5703
461.3817, 260.4141
461.8638, 255.0586
462.3459, 274.0273
462.8280, 298.5430
463.3102, 302.3242
463.7923, 255.2734
464.2744, 204.0195
464.7565, 167.7734
465.2386, 146.8789
465.7207, 130.9961
466.2029, 133.2969
466.6850, 130.8320
467.1671, 109.5391
467.6492, 46.96094
468.1313, 6.558594
468.6134, 49.80469
469.0956, 82.44141
469.5777, 102.7188
470.0598, 109.4258
470.5419, 105.6289
471.0240, 94.35938
471.5061, 77.84766
471.9883, 36.13672
472.4704, 42.07031
472.9525, 123.0430
473.4346, 167.6172
473.9167, 174.9492
474.3988, 151.5469
474.8810, 85.27344
475.3631, 3.171875
475.8452, 52.67188
476.3273, 63.27734
476.8094, 64.98047
477.2915, 102.1836
477.7737, 143.4062
478.2558, 103.1992
478.7379, 60.63281
479.2200, 221.4961
479.7021, 238.4844
480.1842, 156.7031
480.6664, 79.05469
481.1485, 50.69141
481.6306, 47.43359
482.1127, 54.65234
482.5948, 70.60938
483.0769, 95.09766
483.5591, 161.5859
484.0412, 217.7070
484.5233, 216.7266
485.0054, 51.04688
485.4875, 64.79297
485.9696, 82.40625
486.4518, 17.68359
486.9339, 48.64453
487.4160, 122.0273
487.8981, 190.9492
488.3802, 256.9727
488.8623, 336.1680
489.3445, 353.6016
489.8266, 280.6719
490.3087, 183.5508
490.7908, 178.7070
491.2729, 289.8477
491.7550, 332.6602
492.2372, 218.8281
492.7193, 2.457031
493.2014, 83.75781
493.6835, 37.26172
494.1656, 39.78906
494.6477, 71.31250
495.1299, 69.89062
495.6120, 70.09766
496.0941, 79.14453
496.5762, 88.38281
497.0583, 85.08984
497.5404, 74.63672
498.0226, 70.53516
498.5047, 83.72656
498.9868, 102.9180
499.4689, 130.6484
499.9510, 168.9258
500.4331, 174.9531
500.9153, 112.8555
501.3974, 20.66797
501.8795, 68.91016
502.3616, 207.7109
502.8437, 275.0859
503.3258, 207.7305
503.8080, 43.44141
504.2901, 63.89453
504.7722, 89.98828
505.2543, 89.82031
505.7364, 82.76953
506.2185, 69.30469
506.7007, 46.00781
507.1828, 7.773438
507.6649, 33.57031
508.1470, 71.23047
508.6291, 108.4648
509.1112, 111.5703
509.5934, 71.20312
510.0755, 6.921875
510.5576, 133.8281
511.0397, 305.7578
511.5218, 424.0391
512.0039, 374.0625
512.4860, 230.1562
512.9681, 124.5469
513.4503, 74.26562
513.9324, 63.36328
514.4145, 91.60156
514.8966, 147.7383
515.3787, 213.0117
515.8608, 302.0273
516.3430, 384.0391
516.8251, 445.3438
517.3072, 484.4961
517.7893, 497.2969
518.2714, 454.5430
518.7535, 407.8555
519.2357, 389.8750
519.7178, 455.3281
520.1999, 476.9336
520.6820, 423.4844
521.1641, 337.2227
521.6462, 302.2930
522.1284, 341.8906
522.6105, 381.4805
523.0926, 395.2266
523.5747, 384.2422
524.0568, 390.9141
524.5389, 421.0234
525.0211, 444.4648
525.5032, 421.0898
525.9853, 359.1406
526.4674, 312.5078
526.9495, 284.2930
527.4316, 290.8281
527.9138, 393.9609
528.3959, 557.4531
528.8780, 675.4688
529.3601, 646.6953
529.8422, 571.9453
530.3243, 548.3359
530.8065, 581.2773
531.2886, 621.1992
531.7707, 649.7383
532.2528, 668.6602
532.7349, 680.7422
533.2170, 696.3008
533.6992, 690.9531
534.1813, 651.8203
534.6634, 589.6875
535.1455, 535.7383
535.6276, 472.1016
536.1097, 444.7930
536.5919, 488.3594
537.0740, 613.4883
537.5561, 671.6016
538.0382, 636.1484
538.5203, 583.1719
539.0024, 606.3594
539.4846, 712.5938
539.9667, 766.9766
540.4488, 722.6602
540.9309, 638.6797
541.4130, 652.5781
541.8951, 752.2891
542.3773, 834.2734
542.8594, 799.7734
543.3415, 716.8750
543.8236, 709.7227
544.3057, 795.0742
544.7878, 883.0156
545.2700, 902.6523
545.7521, 887.7070
546.2342, 879.4062
546.7163, 915.2461
547.1984, 932.2539
547.6805, 906.4453
548.1627, 844.2852
548.6448, 768.2539
549.1269, 639.5859
549.6090, 537.2891
550.0911, 499.1602
550.5732, 542.1602
551.0554, 538.9609
551.5375, 462.6719
552.0196, 392.4062
552.5017, 428.3008
552.9838, 598.1562
553.4659, 681.3789
553.9481, 620.4609
554.4302, 473.8594
554.9123, 358.4336
555.3944, 274.3984
555.8765, 234.2969
556.3586, 279.4180
556.8408, 363.0039
557.3229, 396.6953
557.8050, 374.6484
558.2871, 345.3867
558.7692, 359.1641
559.2513, 380.0273
559.7335, 360.8633
560.2156, 236.3203
560.6977, 135.2227
561.1798, 138.3711
561.6619, 217.8945
562.1440, 278.1719
562.6262, 301.2656
563.1083, 292.9297
563.5904, 238.1680
564.0725, 121.2695
564.5546, 72.55859
565.0367, 116.6211
565.5189, 192.5586
566.0010, 250.0508
566.4831, 284.5820
566.9652, 332.3164
567.4473, 421.3555
567.9294, 498.1953
568.4116, 431.0742
568.8937, 229.1719
569.3758, 40.59375
569.8579, 60.94531
570.3400, 102.6680
570.8221, 127.8281
571.3043, 135.5820
571.7864, 133.8789
572.2685, 111.4297
572.7506, 86.38672
573.2327, 82.59766
573.7148, 123.1875
574.1970, 150.9766
574.6791, 132.9375
575.1612, 90.09375
575.6433, 60.10938
576.1254, 64.31641
576.6075, 66.75391
577.0897, 59.31250
577.5718, 43.03906
578.0539, 33.46875
578.5360, 38.80859
579.0181, 37.29688
579.5002, 9.363281
579.9824, 47.84375
580.4645, 91.61328
580.9466, 121.8945
581.4287, 134.2188
581.9108, 105.7148
582.3929, 48.29297
582.8751, 20.14062
583.3572, 75.45703
583.8393, 139.1914
584.3214, 82.44922
584.8035, 63.75391
585.2856, 153.5742
585.7678, 61.92188
586.2499, 85.53906
586.7320, 207.7852
587.2141, 298.5742
587.6962, 338.5508
588.1783, 275.2656
588.6605, 181.2070
589.1426, 130.2109
589.6247, 121.3906
590.1068, 166.0898
590.5889, 309.5508
591.0710, 497.4102
591.5532, 549.5547
592.0353, 427.7070
592.5174, 315.2539
592.9995, 301.9609
593.4816, 373.0117
593.9637, 426.4688
594.4459, 462.9492
594.9280, 474.8125
595.4101, 411.5195
595.8922, 324.7109
596.3743, 335.4219
596.8564, 509.7656
597.3386, 685.0938
597.8207, 698.6055
598.3028, 623.0000
598.7849, 592.3984
599.2670, 738.8398
599.7491, 860.3359
600.2313, 856.6953
600.7134, 731.3711
601.1955, 644.9453
601.6776, 590.9766
602.1597, 595.9062
602.6418, 690.7148
603.1240, 921.1680
603.6061, 1068.461
604.0882, 1112.633
604.5703, 1104.938
605.0524, 1084.457
605.5345, 1052.719
606.0167, 1106.801
606.4988, 1318.230
606.9809, 1570.652
607.4630, 1648.207
607.9451, 1581.898
608.4272, 1517.188
608.9094, 1513.742
609.3915, 1569.203
609.8736, 1717.504
610.3557, 1964.863
610.8378, 2150.961
611.3199, 2106.422
611.8021, 2031.230
612.2842, 2086.391
612.7663, 2474.160
613.2484, 2738.617
613.7305, 2816.367
614.2126, 2778.914
614.6948, 2736.375
615.1769, 2661.461
615.6590, 2651.281
616.1411, 2744.375
616.6232, 2919.629
617.1053, 3089.527
617.5875, 3254.816
618.0696, 3394.574
618.5517, 3472.320
619.0338, 3518.617
619.5159, 3616.328
619.9980, 3780.367
620.4802, 3920.316
620.9623, 3916.465
621.4444, 3864.438
621.9265, 3891.082
622.4086, 4126.438
622.8907, 4329.512
623.3729, 4418.965
623.8550, 4419.574
624.3371, 4390.191
624.8192, 4252.488
625.3013, 4184.680
625.7834, 4243.027
626.2656, 4423.395
626.7477, 4624.211
627.2298, 4857.988
627.7119, 5072.168
628.1940, 5211.656
628.6761, 5285.395
629.1583, 5407.766
629.6404, 5597.336
630.1225, 5793.801
630.6046, 5937.043
631.0867, 6037.512
631.5688, 6119.066
632.0510, 6197.895
632.5331, 6255.168
633.0152, 6245.133
633.4973, 6199.473
633.9794, 6209.551
634.4615, 6325.168
634.9437, 6485.328
635.4258, 6698.137
635.9079, 6978.430
636.3900, 7143.746
636.8721, 7113.746
637.3542, 7075.332
637.8364, 7170.953
638.3185, 7426.746
638.8006, 7614.723
639.2827, 7710.234
639.7648, 7765.523
640.2469, 7851.430
640.7291, 7961.477
641.2112, 8064.887
641.6933, 8155.527
642.1754, 8229.805
642.6575, 8262.895
643.1396, 8269.043
643.6218, 8304.199
644.1039, 8403.445
644.5860, 8525.965
645.0681, 8664.602
645.5502, 8819.785
646.0323, 8938.570
646.5145, 8986.488
646.9966, 9016.395
647.4787, 9048.965
647.9608, 9060.055
648.4429, 9154.156
648.9250, 9376.695
649.4072, 9615.426
649.8893, 9697.969
650.3714, 9631.707
650.8535, 9586.188
651.3356, 9622.758
651.8177, 9679.797
652.2999, 9628.797
652.7820, 9503.219
653.2641, 9433.480
653.7462, 9543.777
654.2283, 9696.668
654.7104, 9798.715
655.1926, 9840.645
655.6747, 9859.109
656.1568, 9861.562
656.6389, 9845.148
657.1210, 9804.203
657.6031, 9719.277
658.0853, 9672.996
658.5674, 9676.223
659.0495, 9677.336
659.5316, 9623.270
660.0137, 9508.133
660.4958, 9456.609
660.9779, 9517.695
661.4600, 9615.117
661.9421, 9586.051
662.4243, 9463.262
662.9064, 9395.605
663.3885, 9530.801
663.8706, 9676.477
664.3527, 9631.637
664.8348, 9414.988
665.3170, 9218.367
665.7991, 9134.863
666.2812, 9095.078
666.7633, 9061.555
667.2454, 9032.742
667.7275, 8968.492
668.2097, 8871.098
668.6918, 8756.516
669.1739, 8629.535
669.6560, 8486.883
670.1381, 8298.707
670.6202, 8041.926
671.1024, 7781.391
671.5845, 7641.520
672.0666, 7593.555
672.5487, 7522.281
673.0308, 7365.211
673.5129, 7181.289
673.9951, 7033.066
674.4772, 6912.406
674.9593, 6782.004
675.4414, 6613.848
675.9235, 6439.680
676.4056, 6279.465
676.8878, 6137.367
677.3699, 5981.938
677.8520, 5799.770
678.3341, 5611.789
678.8162, 5440.965
679.2983, 5300.027
679.7805, 5097.699
680.2626, 4805.645
680.7447, 4517.281
681.2268, 4377.102
681.7089, 4355.879
682.1910, 4319.957
682.6732, 4231.340
683.1553, 4109.863
683.6374, 3933.547
684.1195, 3740.062
684.6016, 3610.395
685.0837, 3666.648
685.5659, 3711.949
686.0480, 3643.430
686.5301, 3467.773
687.0122, 3316.727
687.4943, 3218.652
687.9764, 3116.629
688.4586, 2985.609
688.9407, 2825.496
689.4228, 2659.086
689.9049, 2479.102
690.3870, 2327.668
690.8691, 2261.359
691.3513, 2254.352
691.8334, 2210.047
692.3155, 2106.039
692.7976, 1989.969
693.2797, 1883.117
693.7618, 1800.215
694.2440, 1760.648
694.7261, 1848.750
695.2082, 1892.746
695.6903, 1796.840
696.1724, 1609.926
696.6545, 1478.188
697.1367, 1430.742
697.6188, 1403.891
698.1009, 1395.898
698.5830, 1398.738
699.0651, 1318.254
699.5472, 1135.566
700.0294, 998.7148
700.5115, 1039.379
700.9936, 1193.012
701.4757, 1301.383
701.9578, 1359.645
702.4399, 1348.738
702.9221, 1198.863
703.4042, 999.4609
703.8863, 844.1367
704.3684, 770.1680
704.8505, 696.8047
705.3326, 576.3867
705.8148, 457.4766
706.2969, 401.1328
706.7790, 442.6797
707.2611, 473.7227
707.7432, 486.8086
708.2253, 480.2227
708.7075, 446.9023
709.1896, 387.8828
709.6717, 294.7812
710.1538, 134.6211
710.6359, 39.40625
711.1180, 141.6641
711.6002, 174.8242
712.0823, 142.9297
712.5644, 24.73828
713.0465, 199.6250
713.5286, 308.5273
714.0107, 345.8516
714.4929, 303.1523
714.9750, 42.56641
715.4571, 185.1602
715.9392, 241.6914
716.4213, 74.19531
716.9034, 71.83594
717.3856, 203.7344
717.8677, 298.5195
718.3498, 332.8711
718.8319, 308.3672
719.3140, 216.4609
719.7961, 24.98828
720.2783, 136.8516
720.7604, 65.85156
721.2425, 126.9648
721.7246, 239.9180
722.2067, 138.1133
722.6888, 9.261719
723.1710, 110.9375
723.6531, 206.9805
724.1352, 223.1016
724.6173, 81.93750
725.0994, 16.41016
725.5815, 8.812500
726.0637, 129.9102
726.5458, 120.5898
727.0279, 34.45703
727.5100, 162.9922
727.9921, 119.3398
728.4742, 19.49219
728.9564, 77.61719
729.4385, 50.99219
729.9206, 9.011719
730.4027, 6.218750
730.8848, 12.50781
731.3669, 25.31641
731.8491, 49.60156
732.3312, 73.58984
732.8133, 110.2148
733.2954, 136.1328
733.7775, 122.4766
734.2596, 42.53906
734.7418, 23.72656
735.2239, 97.03906
735.7060, 197.5781
736.1881, 215.0000
736.6702, 163.4023
737.1523, 125.8320
737.6345, 139.2500
738.1166, 160.3438
738.5987, 121.7656
739.0808, 55.05859
739.5629, 34.78906
740.0450, 172.0898
740.5272, 278.6016
741.0093, 259.0156
741.4914, 128.1055
741.9735, 39.68750
742.4556, 10.39453
742.9377, 8.863281
743.4199, 42.75391
743.9020, 87.17969
744.3841, 93.62500
744.8662, 60.94531
745.3483, 13.57031
745.8304, 55.34375
746.3126, 117.3320
746.7947, 112.9062
747.2768, 33.75000
747.7589, 40.20312
748.2410, 65.78125
748.7231, 66.02344
749.2053, 56.17188
749.6874, 23.36328
750.1695, 9.214844
750.6516, 34.06641
751.1337, 58.06641
751.6158, 34.07422
752.0980, 44.02344
752.5801, 117.5586
753.0622, 179.6875
753.5443, 228.2500
754.0264, 229.9219
754.5085, 211.3164
754.9907, 257.1094
755.4728, 467.6094
755.9549, 660.4688
756.4370, 682.5547
756.9191, 588.1328
757.4012, 506.7969
757.8834, 500.1797
758.3655, 474.4102
758.8476, 389.4922
759.3297, 266.5547
759.8118, 212.0977
760.2939, 239.4648
760.7761, 285.9961
761.2582, 345.4922
761.7403, 399.4023
762.2224, 366.8477
762.7045, 255.9961
763.1866, 142.2852
763.6688, 40.01953
764.1509, 15.67578
764.6330, 35.88281
765.1151, 206.7695
765.5972, 329.6562
766.0793, 330.4180
766.5615, 287.0820
767.0436, 239.0117
767.5257, 175.9062
768.0078, 151.2539
768.4899, 174.1016
768.9720, 205.4414
769.4542, 205.6133
769.9363, 189.0352
770.4184, 218.3906
770.9005, 303.5195
771.3826, 390.0898
771.8647, 428.2070
772.3469, 435.2422
772.8290, 430.9922
773.3111, 369.3164
773.7932, 357.3555
774.2753, 497.9570
774.7574, 686.8906
775.2396, 776.0898
775.7217, 733.2773
776.2038, 669.6758
776.6859, 597.8047
777.1680, 521.0859
777.6501, 433.5430
778.1323, 333.6484
778.6144, 285.4219
779.0965, 331.9219
779.5786, 412.1914
780.0607, 487.1523
780.5428, 548.8477
781.0250, 564.7617
781.5071, 513.1055
781.9892, 436.4531
782.4713, 321.6016
782.9534, 188.5273
783.4355, 173.2344
783.9177, 325.0352
784.3998, 456.0195
784.8819, 482.8164
785.3640, 419.3750
785.8461, 339.9375
786.3282, 244.9062
786.8104, 199.2344
787.2925, 306.9609
787.7746, 460.5703
788.2567, 556.0508
788.7388, 583.8945
789.2209, 568.4414
789.7031, 461.8438
790.1852, 361.1602
790.6673, 331.1680
791.1494, 395.0938
791.6315, 412.4141
792.1136, 370.2695
792.5958, 312.2109
793.0779, 262.7188
793.5600, 227.1875
794.0421, 246.6211
794.5242, 328.8398
795.0063, 425.2188
795.4885, 519.2617
795.9706, 589.7148
796.4527, 598.3477
796.9348, 488.4414
797.4169, 427.6641
797.8990, 525.2617
798.3812, 652.1523
798.8633, 673.9922
799.3454, 549.2109
799.8275, 462.5078
800.3096, 438.1211
800.7917, 441.5703
801.2739, 422.9375
801.7560, 388.0469
802.2381, 362.4062
802.7202, 361.9453
803.2023, 363.8320
803.6844, 364.3750
804.1666, 349.7773
804.6487, 299.1328
805.1308, 113.3516
805.6129, 3.812500
806.0950, 30.39062
806.5771, 143.6484
807.0593, 251.1445
807.5414, 361.4180
808.0235, 416.7031
808.5056, 377.9336
808.9877, 298.8438
809.4698, 285.8867
809.9520, 327.4648
810.4341, 372.8477
810.9162, 406.0469
811.3983, 424.8633
811.8804, 404.2617
812.3625, 362.3125
812.8447, 372.1328
813.3268, 512.4844
813.8089, 615.1758
814.2910, 625.4336
814.7731, 565.1445
815.2552, 535.0273
815.7374, 536.0625
816.2195, 560.7891
816.7016, 625.4375
817.1837, 702.1719
817.6658, 752.5430
818.1479, 777.4961
818.6301, 779.4609
819.1122, 747.2266
819.5943, 703.4531
820.0764, 642.9844
820.5585, 566.0391
821.0406, 544.5977
821.5228, 604.3438
822.0049, 669.0898
822.4870, 717.4141
822.9691, 748.0352
823.4512, 717.3906
823.9333, 624.5703
824.4155, 557.1328
824.8976, 594.0352
825.3796, 680.2930
825.8618, 762.3516
826.3439, 837.8047
826.8260, 893.6758
827.3081, 959.5742
827.7902, 977.1797
828.2723, 893.9141
828.7545, 681.4727
829.2366, 570.2109
829.7187, 582.0859
830.2008, 639.7812
830.6829, 717.2891
831.1650, 789.2695
831.6472, 742.0938
832.1293, 567.4414
832.6114, 437.6641
833.0935, 535.3555
833.5756, 698.4102
834.0577, 796.4023
834.5399, 804.3281
835.0220, 765.9766
835.5041, 661.0781
835.9862, 543.9297
836.4683, 444.4766
836.9504, 362.3281
837.4326, 333.0312
837.9147, 364.6055
838.3968, 411.1602
838.8789, 438.1719
839.3610, 446.8555
839.8431, 418.1602
840.3253, 331.0703
840.8074, 312.6289
841.2895, 522.3828
841.7716, 765.2383
842.2537, 866.0938
842.7358, 751.4453
843.2180, 675.7227
843.7001, 648.2344
844.1822, 638.0078
844.6643, 624.7930
845.1464, 605.3750
845.6285, 541.5352
846.1107, 419.3164
846.5928, 319.2188
847.0749, 343.5820
847.5570, 413.4375
848.0391, 434.8477
848.5212, 353.7070
849.0034, 309.7734
849.4855, 321.2383
849.9676, 374.5703
850.4497, 478.6094
850.9318, 648.5586
851.4139, 725.9062
851.8961, 681.9375
852.3782, 611.4258
852.8603, 638.4141
853.3424, 711.4219
853.8245, 724.5312
854.3066, 626.2656
854.7888, 556.9805
855.2709, 634.8203
855.7530, 747.3945
856.2351, 771.6211
856.7172, 659.5469
857.1993, 565.5469
857.6815, 487.2227
858.1636, 436.3047
858.6457, 435.5859
859.1278, 479.1406
859.6099, 547.6602
860.0920, 646.2422
860.5742, 730.8125
861.0563, 781.3008
861.5384, 788.9297
862.0205, 744.2500
862.5026, 582.5898
862.9847, 487.2305
863.4669, 496.1680
863.9490, 550.8203
864.4311, 612.6641
864.9132, 685.4414
865.3953, 647.0391
865.8774, 458.9453
866.3596, 270.1094
866.8417, 280.9336
867.3238, 394.3398
867.8059, 446.2891
868.2880, 378.4375
868.7701, 312.3477
869.2523, 297.1055
869.7344, 304.3906
870.2165, 305.8945
870.6986, 302.3594
871.1807, 295.4727
871.6628, 288.1875
872.1450, 271.9766
872.6271, 232.5977
873.1092, 176.3828
873.5913, 120.2773
874.0734, 66.29297
874.5555, 15.97266
875.0377, 67.34766
875.5198, 126.1328
876.0019, 97.15625
876.4840, 120.3711
876.9661, 236.1445
877.4482, 215.6680
877.9304, 142.2344
878.4125, 81.35547
878.8946, 34.43359
879.3767, 28.46094
879.8588, 69.43750
880.3409, 121.8945
880.8231, 158.9414
881.3052, 187.5625
881.7873, 218.6602
882.2694, 262.0938
882.7515, 284.9727
883.2336, 292.6758
883.7158, 269.2930
884.1979, 191.0625
884.6800, 46.30859
885.1621, 67.77344
885.6442, 155.0508
886.1263, 180.2812
886.6085, 63.41797
887.0906, 116.2969
887.5727, 238.2578
888.0548, 284.4258
888.5369, 297.7773
889.0190, 281.1992
889.5012, 248.4336
889.9833, 205.1914
890.4654, 147.5859
890.9475, 105.7891
891.4296, 81.62109
891.9117, 66.57031
892.3939, 50.11328
892.8760, 38.83984
893.3581, 57.37500
893.8402, 107.0430
894.3223, 147.7539
894.8044, 163.4648
895.2866, 156.5234
895.7687, 114.1328
896.2508, 25.40625
896.7329, 0.5234380
897.2150, 56.65625
897.6971, 134.2422
898.1793, 206.7070
898.6614, 270.6953
899.1435, 316.9727
899.6256, 343.5977
900.1077, 330.5430
900.5898, 201.3633
901.0720, 75.57422
901.5541, 71.57031
902.0362, 187.6523
902.5183, 249.6562
903.0004, 211.5898
903.4825, 164.4805
903.9647, 130.1055
904.4468, 106.2188
904.9289, 116.5195
905.4110, 161.8477
905.8931, 226.5391
906.3752, 332.5430
906.8574, 428.4102
907.3395, 457.6406
907.8216, 431.0781
908.3037, 394.5312
908.7858, 365.8867
909.2679, 321.5000
909.7501, 245.5664
910.2322, 153.2344
910.7143, 96.92578
911.1964, 77.58594
911.6785, 74.41016
912.1606, 88.83594
912.6428, 106.2695
913.1249, 121.5000
913.6070, 124.7500
914.0891, 91.46875
914.5712, 60.81641
915.0533, 159.0117
915.5355, 146.5391
916.0176, 64.54688
916.4997, 28.37891
916.9818, 138.3359
917.4639, 172.9805
917.9460, 83.08203
918.4282, 24.58594
918.9103, 7.453125
919.3924, 126.2070
919.8745, 234.6797
920.3566, 318.4219
920.8387, 359.4414
921.3209, 312.9023
921.8030, 241.9922
922.2851, 223.6602
922.7672, 275.5898
923.2493, 290.2617
923.7314, 250.0117
924.2136, 199.2227
924.6957, 176.6406
925.1778, 186.7734
925.6599, 253.3086
926.1420, 402.8008
926.6241, 515.1836
927.1063, 524.2969
927.5884, 483.5000
928.0705, 432.6133
928.5526, 361.1523
929.0347, 332.7734
929.5168, 359.6133
929.9990, 377.5547
930.4811, 310.8672
930.9632, 200.9492
931.4453, 121.8594
931.9274, 80.73828
932.4095, 90.03125
932.8917, 194.3203
933.3738, 313.4727
933.8559, 417.7891
934.3380, 512.5586
934.8201, 544.6016
935.3022, 498.3281
935.7844, 447.7656
936.2665, 441.7891
936.7486, 458.1992
937.2307, 439.9336
937.7128, 393.7734
938.1949, 354.3594
938.6771, 324.0312
939.1592, 318.7031
939.6413, 371.7539
940.1234, 459.1055
940.6055, 485.8633
941.0876, 438.1992
941.5698, 377.0391
942.0519, 308.9766
942.5340, 253.4609
943.0161, 277.2227
943.4982, 342.5430
943.9803, 351.4219
944.4625, 205.4883
944.9446, 75.62500
945.4267, 8.742188
945.9088, 6.523438
946.3909, 82.76953
946.8730, 282.6406
947.3552, 391.8555
947.8373, 369.5039
948.3194, 283.3906
948.8015, 204.0000
949.2836, 135.6719
949.7657, 79.60547
950.2479, 19.78125
950.7300, 28.59766
951.2121, 260.6719
951.6942, 494.1953
952.1763, 516.1836
952.6584, 231.9922
953.1406, 76.55469
953.6227, 67.05469
954.1048, 118.2070
954.5869, 198.1016
955.0690, 271.4727
955.5511, 240.5664
956.0333, 100.6562
956.5154, 0.6445310
956.9975, 47.70312
957.4796, 122.1758
957.9617, 160.5977
958.4438, 163.3984
958.9260, 179.2617
959.4081, 217.3555
959.8902, 213.0664
960.3723, 85.48438
960.8544, 77.12500
961.3365, 117.6562
961.8187, 59.55078
962.3008, 13.50781
962.7829, 73.48047
963.2650, 135.3633
963.7471, 235.0977
964.2292, 330.4766
964.7114, 298.2578
965.1935, 116.8945
965.6756, 2.601563
966.1577, 21.29688
966.6398, 95.48047
967.1219, 124.6641
967.6041, 136.2852
968.0862, 184.0898
968.5683, 357.3359
969.0504, 440.0195
969.5325, 306.7070
970.0146, 136.5195
970.4968, 112.3633
970.9789, 244.0430
971.4610, 322.7109
971.9431, 330.4375
972.4252, 308.3906
972.9073, 295.9648
973.3895, 284.0352
973.8716, 248.2578
974.3537, 177.4219
974.8358, 147.1133
975.3179, 209.6562
975.8000, 262.6797
976.2822, 239.5430
976.7643, 160.2188
977.2464, 200.9180
977.7285, 350.5469
978.2106, 441.1758
978.6927, 313.4688
979.1749, 133.3398
979.6570, 27.23438
980.1391, 10.85547
980.6212, 15.60156
981.1033, 23.35547
981.5854, 69.82422
982.0676, 121.8438
982.5497, 173.1641
983.0318, 206.1875
983.5139, 225.0312
983.9960, 253.2695
984.4781, 311.2422
984.9603, 346.4570
985.4424, 280.1172
985.9245, 188.3516
986.4066, 176.5117
986.8887, 328.9336
987.3708, 369.3359
987.8530, 261.0312
988.3351, 127.3672
988.8172, 82.50000
989.2993, 107.2578
989.7814, 173.7539
990.2635, 280.1836
990.7456, 343.6094
991.2277, 297.2266
991.7098, 213.3438
992.1920, 110.7695
992.6741, 5.160156
993.1562, 11.07422
993.6383, 114.8750
994.1204, 224.5195
994.6025, 240.6875
995.0847, 199.9922
995.5668, 122.1289
996.0489, 36.85156
996.5310, 28.48438
997.0131, 252.2695
997.4952, 403.9883
997.9774, 368.7109
998.4595, 247.6953
998.9416, 216.3203
999.4237, 276.0273
999.9058, 331.4727
1000.388, 373.7812
1000.870, 399.6484
1001.352, 336.2773
1001.834, 245.9844
1002.316, 239.4414
1002.799, 378.8398
1003.281, 493.5312
1003.763, 571.6094
1004.245, 620.7070
1004.727, 647.9180
1005.209, 650.5391
1005.691, 605.4062
1006.173, 514.5586
1006.655, 425.6055
1007.138, 356.0586
1007.620, 311.2500
1008.102, 302.3438
1008.584, 325.9141
1009.066, 344.3242
1009.548, 343.8750
1010.030, 393.6094
1010.512, 555.6484
1010.995, 717.6523
1011.477, 604.4766
1011.959, 328.8789
1012.441, 168.9297
1012.923, 303.9258
1013.405, 421.9570
1013.887, 402.4414
1014.369, 313.1602
1014.851, 207.1094
1015.334, 72.49219
1015.816, 4.390625
1016.298, 6.347656
1016.780, 72.08984
1017.262, 261.5508
1017.744, 470.4492
1018.226, 571.6602
1018.708, 549.0312
1019.190, 496.8477
1019.673, 420.8906
1020.155, 345.3750
1020.637, 265.6992
1021.119, 193.9258
1021.601, 196.5195
1022.083, 263.2109
1022.565, 323.7266
1023.047, 353.8672
1023.530, 358.5586
1024.012, 329.8906
1024.494, 282.3359
1024.976, 242.7852
1025.458, 219.3477
1025.940, 182.1797
1026.422, 116.0586
1026.904, 72.89062
1027.386, 144.6836
1027.869, 279.0625
1028.351, 374.9648
1028.833, 419.7852
1029.315, 403.9023
1029.797, 223.5234
1030.279, 78.07422
1030.761, 86.88672
1031.243, 237.6289
1031.726, 333.1133
1032.208, 372.1562
1032.690, 368.3906
1033.172, 299.5547
1033.654, 216.4922
1034.136, 150.8320
1034.618, 111.6367
1035.100, 124.0430
1035.583, 236.5469
1036.065, 333.6758
1036.547, 406.0664
1037.029, 450.9922
1037.511, 465.0195
1037.993, 446.8906
1038.475, 377.2344
1038.957, 241.5117
1039.439, 134.5430
1039.922, 106.5820
1040.404, 135.5547
1040.886, 216.2383
1041.368, 349.1602
1041.850, 463.2852
1042.332, 560.6328
1042.814, 614.9609
1043.296, 558.1797
1043.778, 483.1680
1044.261, 569.9102
1044.743, 749.4492
1045.225, 816.6484
1045.707, 571.6719
1046.189, 393.7266
1046.671, 366.6016
1047.153, 404.2383
1047.635, 359.0234
1048.118, 250.1875
1048.600, 190.7461
1049.082, 207.6797
1049.564, 228.0977
1050.046, 184.5586
1050.528, 131.3086
1051.010, 117.5234
1051.492, 147.3867
1051.974, 186.1602
1052.457, 241.9102
1052.939, 263.3516
1053.421, 175.0703
1053.903, 60.41797
1054.385, 83.87500
1054.867, 205.7266
1055.349, 302.9570
1055.831, 353.7617
1056.313, 341.6562
1056.796, 255.3828
1057.278, 121.5898
1057.760, 66.69141
1058.242, 286.4180
1058.724, 310.9844
1059.206, 76.48828
1059.688, 154.7383
1060.170, 147.1172
1060.653, 70.99609
1061.135, 70.90625
1061.617, 162.5820
1062.099, 272.1875
1062.581, 415.5195
1063.063, 500.5781
1063.545, 445.1836
1064.027, 324.7070
1064.510, 262.6133
1064.992, 248.7812
1065.474, 257.3477
1065.956, 318.2969
1066.438, 348.6094
1066.920, 337.2031
1067.402, 291.6680
1067.884, 207.6562
1068.366, 93.09766
1068.849, 2.660156
1069.331, 76.43750
1069.813, 79.25000
1070.295, 123.2578
1070.777, 334.9141
1071.259, 388.1250
1071.741, 279.8711
1072.223, 192.2812
1072.705, 123.4883
1073.188, 86.26953
1073.670, 93.75781
1074.152, 127.1562
1074.634, 158.8438
1075.116, 197.6875
1075.598, 242.6328
1076.080, 316.9141
1076.562, 378.5742
1077.044, 430.7734
1077.527, 457.8203
1078.009, 429.5039
1078.491, 355.2930
1078.973, 312.3828
1079.455, 305.9844
1079.937, 324.1133
1080.419, 387.3477
1080.901, 447.5078
1081.384, 483.6133
1081.866, 494.5156
1082.348, 458.2656
1082.830, 369.2031
1083.312, 291.4453
1083.794, 245.4102
1084.276, 223.9883
1084.758, 208.9492
1085.240, 216.4258
1085.723, 276.8633
1086.205, 471.4062
1086.687, 558.8906
1087.169, 488.9727
1087.651, 397.0312
1088.133, 392.4297
1088.615, 451.1172
1089.097, 513.5781
1089.579, 573.6914
1090.062, 601.7617
1090.544, 549.9258
1091.026, 498.2812
1091.508, 492.2266
1091.990, 501.6836
1092.472, 435.0352
1092.954, 295.7461
1093.436, 254.2617
1093.919, 369.4883
1094.401, 496.1719
1094.883, 486.7930
1095.365, 431.1953
1095.847, 429.9648
1096.329, 512.2734
1096.811, 527.3047
1097.293, 455.7500
1097.776, 390.0234
1098.258, 382.6641
1098.740, 414.4102
1099.222, 468.3242
1099.704, 531.3828
1100.186, 572.1953
1100.668, 568.8203
1101.150, 533.8789
1101.632, 442.1328
1102.115, 357.4922
1102.597, 398.2188
1103.079, 531.5469
1103.561, 581.1953
1104.043, 527.4375
1104.525, 485.6836
1105.007, 582.6719
1105.489, 661.3594
1105.971, 590.7422
1106.454, 413.9727
1106.936, 379.8867
1107.418, 494.3359
1107.900, 581.4453
1108.382, 556.8359
1108.864, 528.8711
1109.346, 670.6758
1109.828, 855.5430
1110.311, 891.5156
1110.793, 640.2695
1111.275, 539.7305
1111.757, 632.2695
1112.239, 743.5391
1112.721, 734.3242
1113.203, 653.6406
1113.685, 580.6836
1114.167, 521.0000
1114.650, 485.5391
1115.132, 500.3750
1115.614, 507.6953
1116.096, 483.1445
1116.578, 453.5234
1117.060, 452.4961
1117.542, 459.8867
1118.024, 464.1758
1118.506, 462.8047
1118.989, 490.0586
1119.471, 641.9883
1119.953, 759.0703
1120.435, 725.4883
1120.917, 555.5664
1121.399, 409.9492
1121.881, 289.8906
1122.363, 220.6562
1122.846, 242.9492
1123.328, 280.0430
1123.810, 266.8750
1124.292, 220.1445
1124.774, 161.3906
1125.256, 72.93359
1125.738, 34.08984
1126.220, 54.02344
1126.703, 91.48047
1127.185, 127.1016
1127.667, 147.5352
1128.149, 111.6133
1128.631, 27.88281
1129.113, 19.57812
1129.595, 12.85938
1130.077, 52.86719
1130.559, 222.7266
1131.042, 386.7852
1131.524, 292.0195
1132.006, 35.23438
1132.488, 83.99609
1132.970, 10.19922
1133.452, 103.0273
1133.934, 101.2109
1134.416, 67.19141
1134.898, 17.58203
1135.381, 36.39062
1135.863, 4.324219
1136.345, 125.7305
1136.827, 214.1367
1137.309, 197.6445
1137.791, 161.5430
1138.273, 161.5391
1138.755, 175.6328
1139.238, 158.2773
1139.720, 97.42188
1140.202, 82.62891
1140.684, 119.7852
1141.166, 158.9414
1141.648, 133.8633
1142.130, 113.6094
1142.612, 193.5508
1143.094, 345.9492
1143.577, 410.6719
1144.059, 343.1680
1144.541, 304.6875
1145.023, 332.8008
1145.505, 374.5234
1145.987, 354.9141
1146.469, 302.9766
1146.951, 261.8828
1147.433, 240.2305
1147.916, 216.0195
1148.398, 167.4453
1148.880, 152.7500
1149.362, 215.0039
1149.844, 312.5195
1150.326, 326.4180
1150.808, 283.0586
1151.290, 254.3047
1151.773, 260.1914
1152.255, 295.5820
1152.737, 404.5156
1153.219, 493.3242
1153.701, 465.8672
1154.183, 338.8789
1154.665, 291.2227
1155.147, 313.7656
1155.630, 305.5664
1156.112, 148.4922
1156.594, 9.335938
1157.076, 1.769531
1157.558, 74.21094
1158.040, 90.13672
1158.522, 51.38281
1159.004, 51.19141
1159.486, 57.55859
1159.969, 154.9766
1160.451, 126.4414
1160.933, 61.12109
1161.415, 20.54297
1161.897, 8.363281
1162.379, 26.37891
1162.861, 78.21094
1163.343, 127.1406
1163.825, 160.4688
1164.308, 186.7852
1164.790, 211.5938
1165.272, 234.6211
1165.754, 254.0977
1166.236, 268.2422
1166.718, 281.5586
1167.200, 295.1250
1167.682, 299.6055
1168.165, 291.7148
1168.647, 269.2969
1169.129, 215.7695
1169.611, 147.3867
1170.093, 102.9531
1170.575, 97.23828
1171.057, 124.1250
1171.539, 208.3711
1172.021, 279.6250
1172.504, 259.8203
1172.986, 178.8320
1173.468, 70.11328
1173.950, 54.12891
1174.432, 114.7109
1174.914, 35.07422
1175.396, 46.35938
1175.878, 98.22266
1176.360, 142.0078
1176.843, 233.4023
1177.325, 345.1680
1177.807, 401.8359
1178.289, 385.0430
1178.771, 346.8242
1179.253, 284.2109
1179.735, 231.0391
1180.217, 192.4531
1180.700, 178.7578
1181.182, 269.3164
1181.664, 427.9023
1182.146, 482.9766
1182.628, 310.6914
1183.110, 165.4922
1183.592, 207.9102
1184.074, 292.3945
1184.557, 309.9844
1185.039, 263.6328
1185.521, 221.1523
1186.003, 185.7188
1186.485, 186.7500
1186.967, 295.5078
1187.449, 384.9180
1187.931, 361.9375
1188.413, 292.1562
1188.896, 269.5195
1189.378, 296.2734
1189.860, 306.1602
1190.342, 289.0078
1190.824, 273.0859
1191.306, 260.0625
1191.788, 254.4805
1192.270, 259.5977
1192.752, 274.4102
1193.235, 305.3789
1193.717, 362.1641
1194.199, 361.2695
1194.681, 281.5625
1195.163, 176.4258
1195.645, 41.95703
1196.127, 53.48828
1196.609, 14.71875
1197.092, 152.9297
1197.574, 241.5742
1198.056, 242.0000
1198.538, 252.8672
1199.020, 324.7500
1199.502, 386.4609
1199.984, 349.3047
1200.466, 261.3711
1200.948, 175.7383
1201.431, 90.51172
1201.913, 39.10156
1202.395, 23.17578
1202.877, 32.35156
1203.359, 64.96875
1203.841, 114.6055
1204.323, 198.9648
1204.805, 290.4570
1205.287, 327.1680
1205.770, 276.7344
1206.252, 245.8672
1206.734, 243.9961
1207.216, 236.8086
1207.698, 170.0508
1208.180, 99.47266
1208.662, 84.20703
1209.144, 127.2812
1209.627, 250.1406
1210.109, 555.2461
1210.591, 644.4258
1211.073, 418.5547
1211.555, 138.8711
1212.037, 114.1328
1212.519, 211.3125
1213.001, 262.3203
1213.484, 252.8242
1213.966, 214.2891
1214.448, 106.2109
1214.930, 107.9062
1215.412, 300.9375
1215.894, 523.8750
1216.376, 520.4570
1216.858, 392.1133
1217.340, 277.9492
1217.823, 192.1875
1218.305, 185.2891
1218.787, 293.0195
1219.269, 390.3672
1219.751, 435.5820
1220.233, 426.8594
1220.715, 305.1953
1221.197, 143.2852
1221.679, 80.41016
1222.162, 207.1992
1222.644, 279.3984
1223.126, 253.5195
1223.608, 258.3711
1224.090, 438.3242
1224.572, 655.8164
1225.054, 602.5000
1225.536, 382.4727
1226.019, 241.2383
1226.501, 375.2656
1226.983, 373.6953
1227.465, 164.2773
1227.947, 18.44141
1228.429, 97.51953
1228.911, 338.7500
1229.393, 392.9453
1229.875, 290.3672
1230.358, 193.5586
1230.840, 128.8945
1231.322, 101.7734
1231.804, 113.4961
1232.286, 147.1016
1232.768, 152.7539
1233.250, 314.2734
1233.732, 236.1211
1234.214, 320.3750
1234.697, 410.7031
1235.179, 332.8633
1235.661, 378.5234
1236.143, 344.6289
1236.625, 343.2461
1237.107, 277.2344
1237.589, 267.4922
1238.071, 256.9648
1238.553, 235.5547
1239.036, 247.9609
1239.518, 310.6484
1240.000, 360.7695
1240.482, 362.0078
1240.964, 368.0703
1241.446, 529.7773
1241.928, 729.0469
1242.410, 760.5898
1242.893, 525.0117
1243.375, 409.6250
1243.857, 466.4023
1244.339, 534.1172
1244.821, 532.0312
1245.303, 511.3516
1245.785, 545.9648
1246.267, 609.7500
1246.750, 660.2656
1247.232, 697.6836
1247.714, 680.3008
1248.196, 582.6484
1248.678, 526.9570
1249.160, 641.6758
1249.642, 795.5742
1250.124, 829.7109
1250.606, 777.5703
1251.089, 717.8359
1251.571, 630.8359
1252.053, 632.8789
1252.535, 748.4102
1253.017, 839.9492
1253.499, 770.1016
1253.981, 643.1914
1254.463, 586.7695
1254.945, 569.7773
1255.428, 479.0547
1255.910, 259.6758
1256.392, 169.3711
1256.874, 247.0430
1257.356, 332.7461
1257.838, 248.6914
1258.320, 134.1367
1258.802, 134.3828
1259.285, 226.2695
1259.767, 263.2852
1260.249, 229.6875
1260.731, 222.0547
1261.213, 257.7070
1261.695, 291.7188
1262.177, 259.9844
1262.659, 224.8945
1263.141, 240.6914
1263.624, 298.8203
1264.106, 351.9062
1264.588, 399.7578
1265.070, 436.8555
1265.552, 457.9375
1266.034, 461.9492
1266.516, 392.2188
1266.998, 325.5859
1267.480, 356.8086
1267.963, 290.7383
1268.445, 251.6328
1268.927, 267.6172
1269.409, 179.0430
1269.891, 232.9766
1270.373, 273.0938
1270.855, 161.7188
1271.337, 23.13281
1271.820, 56.94531
1272.302, 83.07812
1272.784, 83.32812
1273.266, 58.41406
1273.748, 14.98047
1274.230, 42.21875
1274.712, 120.5312
1275.194, 245.6523
1275.677, 371.0352
1276.159, 478.8945
1276.641, 559.5430
1277.123, 545.2812
1277.605, 458.1523
1278.087, 396.5234
1278.569, 396.5781
1279.051, 433.4766
1279.533, 525.3516
1280.016, 615.8906
1280.498, 659.4922
1280.980, 668.2227
1281.462, 686.1953
1281.944, 706.5977
1282.426, 712.2070
1282.908, 684.1797
1283.390, 659.2891
1283.872, 645.9805
1284.355, 625.6055
1284.837, 552.9844
1285.319, 474.6758
1285.801, 513.9570
1286.283, 634.4375
1286.765, 711.1797
1287.247, 630.7852
1287.729, 547.7695
1288.212, 527.2734
1288.694, 558.5977
1289.176, 637.9219
1289.658, 689.8203
1290.140, 578.6914
1290.622, 356.1992
1291.104, 250.6328
1291.586, 319.6172
1292.068, 365.6016
1292.551, 369.8828
1293.033, 341.4180
1293.515, 270.9883
1293.997, 187.1523
1294.479, 94.29297
1294.961, 15.42578
1295.443, 28.40234
1295.925, 142.6953
1296.407, 243.1836
1296.890, 317.0586
1297.372, 351.7188
1297.854, 324.5391
1298.336, 265.2930
1298.818, 132.3242
1299.300, 4.687500
1299.782, 7.203125
1300.264, 139.7109
1300.747, 205.0938
1301.229, 82.67188
1301.711, 1.007813
1302.193, 0.0000000E+00
##END=



