##NAMES=Carrollite
##RRUFFID=R130024
##IDEAL CHEMISTRY=Cu^1+^Co^3+^_2_S_4_
##LOCALITY=Kisanfu, Katanga, Democratic Republic of the Congo
##OWNER=RRUFF
##SOURCE=Isabel Fay
##DESCRIPTION=Silver metallic, massive, associated with chalcocite, bornite, digenite and magnesite
##STATUS=The identification of this mineral has been confirmed only by single crystal X-ray diffraction.
##URL=rruff.info/R130024
136.1226, 0.0000000E+00
138.0510, 0.2535590
139.9795, 0.1193280
141.9080, 2.0330001E-03
143.8364, 0.1921730
145.7649, 0.4796300
147.6934, 0.7112920
149.6218, 1.036541
151.5503, 0.6305390
153.4788, 0.2012370
155.4072, 0.1181980
157.3357, 0.2928920
159.2642, 0.3184850
161.1926, 1.6975001E-02
163.1211, 0.1321950
165.0496, 0.2489430
166.9780, 0.6286700
168.9065, 0.6582760
170.8350, 0.4394070
172.7634, 0.3241350
174.6919, 0.3394810
176.6204, 0.4238320
178.5488, 0.5962450
180.4773, 0.8118100
182.4058, 1.119514
184.3342, 1.425182
186.2627, 1.535816
188.1912, 1.361702
190.1196, 1.318882
192.0481, 1.420605
193.9766, 1.622124
195.9050, 1.971672
197.8335, 2.371006
199.7620, 2.739941
201.6904, 3.078201
203.6189, 3.382599
205.5474, 3.636864
207.4758, 3.919914
209.4043, 4.206005
211.3328, 4.579250
213.2612, 5.105785
215.1897, 5.761803
217.1182, 6.462543
219.0466, 7.197903
220.9751, 8.036064
222.9036, 9.052391
224.8320, 10.04235
226.7605, 10.96626
228.6890, 11.78533
230.6174, 12.42329
232.5459, 12.87592
234.4744, 13.29865
236.4028, 13.66704
238.3313, 14.09743
240.2598, 14.80518
242.1882, 15.42234
244.1167, 15.73299
246.0452, 15.75993
247.9736, 15.57535
249.9021, 15.18058
251.8306, 14.64544
253.7590, 13.86444
255.6875, 13.12068
257.6160, 12.51711
259.5444, 11.99480
261.4729, 11.48632
263.4014, 11.00267
265.3298, 10.58073
267.2583, 10.21876
269.1868, 10.03803
271.1152, 10.10865
273.0437, 10.31181
274.9722, 10.78230
276.9006, 11.19769
278.8291, 11.09672
280.7576, 10.50721
282.6860, 10.36729
284.6145, 10.99980
286.5430, 11.59847
288.4714, 11.88799
290.3999, 12.16623
292.3284, 12.69552
294.2568, 13.32386
296.1853, 13.83102
298.1138, 14.26148
300.0422, 14.54977
301.9707, 15.12930
303.8992, 15.28477
305.8276, 14.57287
307.7561, 13.56382
309.6846, 12.61122
311.6130, 11.73008
313.5415, 10.97989
315.4700, 10.37287
317.3984, 9.905197
319.3269, 9.587227
321.2554, 9.368252
323.1838, 9.287621
325.1123, 9.233604
327.0408, 9.051228
328.9692, 8.833061
330.8977, 8.913700
332.8262, 9.442226
334.7546, 9.880402
336.6831, 10.28292
338.6116, 10.54301
340.5400, 10.49209
342.4685, 10.42216
344.3970, 10.63249
346.3254, 10.99611
348.2539, 11.09885
350.1824, 10.95751
352.1108, 10.40682
354.0393, 9.133797
355.9678, 8.083706
357.8962, 7.649124
359.8247, 7.395050
361.7532, 6.978653
363.6816, 6.529690
365.6101, 6.396145
367.5386, 6.716843
369.4670, 6.856678
371.3955, 6.695133
373.3240, 6.703903
375.2524, 7.233597
377.1809, 7.673325
379.1094, 7.596527
381.0378, 7.272083
382.9663, 7.193005
384.8948, 7.350323
386.8232, 7.106762
388.7517, 6.452648
390.6802, 5.482185
392.6086, 3.935780
394.5371, 2.543831
396.4656, 1.643162
398.3940, 1.037262
400.3225, 0.5704840
402.2510, 0.2440150
404.1794, 0.1186370
406.1079, 0.2029340
408.0364, 0.1341930
409.9648, 0.2363430
411.8933, 0.4988820
413.8218, 0.4389950
415.7502, 0.3174630
417.6787, 0.2899280
419.6072, 0.2944870
421.5356, 0.1864360
423.4641, 1.8650000E-03
425.3926, 4.8882000E-02
427.3210, 8.9015998E-02
429.2495, 0.1710430
431.1780, 5.8196999E-02
433.1064, 4.1499999E-03
435.0349, 0.1287310
436.9634, 0.3000760
438.8918, 0.4377570
440.8203, 0.5251600
442.7488, 0.5266700
444.6772, 0.4473820
446.6057, 0.3396890
448.5342, 0.1926900
450.4626, 6.5206997E-02
452.3911, 0.1122150
454.3196, 0.1641160
456.2480, 0.1499230
458.1765, 0.4750480
460.1050, 0.3222600
462.0334, 4.4496998E-02
463.9619, 2.2755001E-02
465.8904, 0.4103740
467.8188, 0.6666980
469.7473, 0.6348300
471.6758, 0.5231860
473.6042, 0.2652360
475.5327, 5.3856000E-02
477.4612, 1.0334000E-02
479.3896, 1.4143000E-02
481.3181, 3.1902000E-02
483.2466, 0.1190200
485.1750, 0.2584000
487.1035, 0.4635470
489.0320, 0.5456330
490.9604, 0.4107720
492.8889, 0.2892190
494.8174, 0.1156250
496.7458, 5.2997999E-02
498.6743, 0.2925210
500.6028, 0.5270690
502.5313, 0.4790670
504.4597, 0.2993130
506.3882, 0.2338180
508.3167, 0.2834850
510.2451, 0.4282800
512.1736, 0.7821960
514.1021, 0.9301890
516.0305, 0.7231750
517.9590, 0.6049920
519.8875, 0.7514880
521.8159, 0.9543950
523.7444, 1.049725
525.6729, 1.166510
527.6013, 1.484097
529.5298, 1.946787
531.4583, 2.366673
533.3867, 2.763258
535.3152, 2.919983
537.2437, 2.816845
539.1721, 2.548395
541.1006, 2.022644
543.0291, 1.556499
544.9575, 1.265848
546.8860, 1.110252
548.8145, 1.132160
550.7429, 1.235188
552.6714, 1.278822
554.5999, 1.274321
556.5283, 1.283705
558.4568, 1.306885
560.3853, 1.333450
562.3137, 1.341585
564.2422, 1.467911
566.1707, 1.907043
568.0991, 2.173527
570.0276, 2.017471
571.9561, 1.732559
573.8845, 1.407612
575.8130, 1.142117
577.7415, 1.091351
579.6699, 1.224937
581.5984, 1.458361
583.5269, 1.778103
585.4553, 1.980085
587.3838, 2.035423
589.3123, 2.015900
591.2407, 1.820534
593.1692, 1.756538
595.0977, 1.982025
597.0261, 2.254749
598.9546, 2.502237
600.8831, 2.683514
602.8115, 2.750956
604.7400, 2.717556
606.6685, 2.567129
608.5969, 2.338976
610.5254, 2.249634
612.4539, 2.325895
614.3823, 2.396786
616.3108, 2.431795
618.2393, 2.483624
620.1677, 2.555225
622.0962, 2.650494
624.0247, 2.779942
625.9531, 2.922047
627.8816, 3.085613
629.8101, 3.237862
631.7385, 3.324610
633.6670, 3.378895
635.5955, 3.447321
637.5239, 3.542231
639.4524, 3.778379
641.3809, 4.247927
643.3093, 4.437778
645.2378, 4.085291
647.1663, 3.951565
649.0947, 4.182817
651.0232, 4.465580
652.9517, 4.804274
654.8801, 5.065336
656.8086, 5.173862
658.7371, 5.126970
660.6655, 4.797775
662.5940, 4.425041
664.5225, 4.446230
666.4509, 4.767124
668.3794, 4.940590
670.3079, 4.960510
672.2363, 4.925568
674.1648, 4.827557
676.0933, 4.742214
678.0217, 4.665165
679.9502, 4.637075
681.8787, 4.683941
683.8071, 4.735662
685.7356, 4.719006
687.6641, 4.729090
689.5925, 4.861980
691.5210, 5.025757
693.4495, 5.153276
695.3779, 5.207882
697.3064, 5.044102
699.2349, 4.773306
701.1633, 4.868362
703.0918, 5.324387
705.0203, 5.640268
706.9487, 5.807095
708.8772, 5.920137
710.8057, 5.977165
712.7341, 6.039165
714.6626, 6.107557
716.5911, 6.212196
718.5195, 6.385487
720.4480, 6.562035
722.3765, 6.785347
724.3049, 6.916740
726.2334, 6.747215
728.1619, 6.554214
730.0903, 6.683033
732.0188, 6.958101
733.9473, 7.061634
735.8757, 7.059977
737.8042, 7.161003
739.7327, 7.345169
741.6611, 7.480473
743.5896, 7.563339
745.5181, 7.773026
747.4465, 8.151371
749.3750, 8.522608
751.3035, 8.912552
753.2319, 9.179163
755.1604, 9.259953
757.0889, 9.279839
759.0173, 9.205046
760.9458, 9.166996
762.8743, 9.193716
764.8027, 9.315365
766.7312, 9.630684
768.6597, 9.975571
770.5881, 10.19455
772.5166, 10.32840
774.4451, 10.38778
776.3735, 10.42976
778.3020, 10.58217
780.2305, 10.83290
782.1589, 11.14179
784.0874, 11.51401
786.0159, 11.71407
787.9443, 11.66269
789.8728, 11.73167
791.8013, 11.99214
793.7297, 12.25114
795.6582, 12.58838
797.5867, 12.76513
799.5151, 12.59929
801.4436, 12.56564
803.3721, 12.80771
805.3005, 13.17894
807.2290, 13.82432
809.1575, 14.25450
811.0859, 13.89359
813.0144, 13.56826
814.9429, 14.00697
816.8713, 14.61438
818.7998, 14.82618
820.7283, 14.84176
822.6567, 14.95829
824.5852, 15.09224
826.5137, 14.96835
828.4421, 14.70331
830.3706, 14.81851
832.2991, 15.26317
834.2275, 15.51920
836.1560, 15.58150
838.0845, 15.61165
840.0129, 15.61388
841.9414, 15.52041
843.8699, 15.31435
845.7983, 15.15163
847.7268, 15.05152
849.6553, 15.01964
851.5837, 15.13115
853.5122, 15.00145
855.4407, 14.36324
857.3691, 13.89310
859.2976, 13.87354
861.2261, 13.91882
863.1545, 14.17425
865.0830, 14.07537
867.0115, 12.95091
868.9399, 11.99118
870.8684, 12.11646
872.7969, 12.36065
874.7253, 12.00410
876.6538, 11.43149
878.5823, 10.95090
880.5107, 10.51024
882.4392, 10.02351
884.3677, 9.558292
886.2961, 9.274162
888.2246, 9.049873
890.1531, 8.627518
892.0815, 8.101955
894.0100, 7.646698
895.9385, 7.281069
897.8669, 7.098377
899.7954, 7.028755
901.7239, 6.715687
903.6523, 6.188904
905.5808, 5.859274
907.5093, 5.754171
909.4377, 5.709223
911.3662, 5.708139
913.2947, 5.646420
915.2231, 5.548105
917.1516, 5.413471
919.0801, 5.233456
921.0085, 4.929701
922.9370, 4.388149
924.8655, 4.006409
926.7939, 3.736017
928.7224, 3.692537
930.6509, 4.087456
932.5793, 4.366264
934.5078, 4.405121
936.4363, 4.333374
938.3647, 4.089827
940.2932, 4.007610
942.2217, 4.178745
944.1501, 4.476370
946.0786, 5.031765
948.0071, 5.257980
949.9355, 4.776371
951.8640, 4.339647
953.7925, 4.324001
955.7209, 4.287865
957.6494, 3.913549
959.5779, 3.665462
961.5063, 3.993505
963.4348, 4.211885
965.3633, 3.720205
967.2917, 3.266504
969.2202, 3.313356
971.1487, 3.451355
973.0771, 3.393248
975.0056, 3.381861
976.9341, 3.729485
978.8625, 4.008553
980.7910, 3.804361
982.7195, 3.494480
984.6479, 3.274401
986.5764, 3.234928
988.5049, 3.727362
990.4333, 4.142950
992.3618, 3.650513
994.2903, 3.020025
996.2188, 3.157465
998.1472, 3.498343
1000.076, 3.401901
1002.004, 3.170601
1003.933, 3.144348
1005.861, 3.202942
1007.790, 3.211899
1009.718, 3.206511
1011.646, 3.225470
1013.575, 3.260483
1015.503, 3.329632
1017.432, 3.381262
1019.360, 3.294643
1021.289, 3.196457
1023.217, 3.334707
1025.146, 3.500666
1027.074, 3.340332
1029.003, 3.097832
1030.931, 3.143658
1032.860, 3.275183
1034.788, 3.207720
1036.717, 3.067638
1038.645, 3.011534
1040.573, 2.992405
1042.502, 2.910315
1044.430, 2.861429
1046.359, 3.092819
1048.287, 3.313951
1050.216, 3.099159
1052.144, 2.719521
1054.073, 2.492090
1056.001, 2.316971
1057.930, 2.017017
1059.858, 1.756691
1061.787, 1.835632
1063.715, 1.952477
1065.644, 1.635548
1067.572, 1.301304
1069.500, 1.554983
1071.429, 1.864944
1073.357, 1.604952
1075.286, 1.207111
1077.214, 1.022280
1079.143, 0.9887750
1081.071, 1.233641
1083.000, 1.390289
1084.928, 0.9710770
1086.857, 0.5399250
1088.785, 0.5987070
1090.714, 0.7587600
1092.642, 0.7452930
1094.571, 0.7087020
1096.499, 0.7713700
1098.427, 0.8152600
1100.356, 0.7165720
1102.284, 0.6466140
1104.213, 0.7289370
1106.141, 0.8250030
1108.070, 0.8707680
1109.998, 0.9070450
1111.927, 1.022425
1113.855, 1.022549
1115.784, 0.7456020
1117.712, 0.4875320
1119.641, 0.3624880
1121.569, 0.2343860
1123.498, 4.9267001E-02
1125.426, 0.1121100
1127.354, 0.2340700
1129.283, 0.3255520
1131.211, 0.4132250
1133.140, 0.3976610
1135.068, 0.1594310
1136.997, 0.1346150
1138.925, 0.5219000
1140.854, 0.6336520
1142.782, 0.2572040
1144.711, 0.1944080
1146.639, 0.6315730
1148.568, 0.7270850
1150.496, 0.3524910
1152.425, 0.1986850
1154.353, 0.3261280
1156.281, 0.2867370
1158.210, 6.3740000E-02
1160.138, 0.1966550
1162.067, 0.6583980
1163.995, 0.7443850
1165.924, 0.5185340
1167.852, 0.5585040
1169.781, 0.7873380
1171.709, 0.8770770
1173.638, 0.8214040
1175.566, 0.5112190
1177.495, 0.1100520
1179.423, 1.4479000E-02
1181.352, 8.0150003E-03
1183.280, 1.6620999E-02
1185.208, 9.1200002E-04
1187.137, 0.1292040
1189.065, 0.2094060
1190.994, 5.7810001E-02
1192.922, 0.2489660
1194.851, 6.1321001E-02
1196.779, 0.3790970
1198.708, 0.4151360
1200.636, 0.3565410
1202.565, 0.2288320
1204.493, 0.1760080
1206.422, 0.2585370
1208.350, 0.4258500
1210.279, 0.7134550
1212.207, 0.8953950
1214.135, 0.9147030
1216.064, 0.7974070
1217.992, 0.5084170
1219.921, 0.4147570
1221.849, 0.5795710
1223.778, 0.6897910
1225.706, 0.7208060
1227.635, 0.7391170
1229.563, 0.7409570
1231.492, 0.5984780
1233.420, 0.3616910
1235.349, 0.3168470
1237.277, 0.4100800
1239.206, 0.5429250
1241.134, 0.6510910
1243.063, 0.5203290
1244.991, 0.3727170
1246.919, 0.6364710
1248.848, 0.9081270
1250.776, 0.7069610
1252.705, 0.4330270
1254.633, 0.3079030
1256.562, 0.3253330
1258.490, 0.5935610
1260.419, 0.8158680
1262.347, 0.8556800
1264.276, 0.8903770
1266.204, 0.9479260
1268.133, 1.025772
1270.061, 1.153664
1271.990, 1.180616
1273.918, 1.066145
1275.846, 1.096558
1277.775, 1.281908
1279.703, 1.406332
1281.632, 1.462845
1283.560, 1.414728
1285.489, 1.302990
1287.417, 1.153942
1289.346, 1.111055
1291.274, 1.645882
1293.203, 2.185160
1295.131, 1.944305
1297.060, 1.690811
1298.988, 2.102146
1300.917, 2.507278
1302.845, 2.544998
1304.773, 2.491678
1306.702, 2.365639
1308.630, 2.421911
1310.559, 2.827757
1312.487, 2.983046
1314.416, 2.728527
1316.344, 2.719704
1318.273, 3.004843
1320.201, 3.194662
1322.130, 3.285326
1324.058, 3.172022
1325.987, 2.978828
1327.915, 3.174891
1329.844, 3.450281
1331.772, 3.229317
1333.700, 2.903158
1335.629, 2.726263
1337.557, 2.800962
1339.486, 3.491840
1341.414, 3.910759
1343.343, 3.650190
1345.271, 3.424107
1347.200, 3.395113
1349.128, 3.399778
1351.057, 3.418652
1352.985, 3.352072
1354.914, 3.209719
1356.842, 3.211260
1358.771, 3.316172
1360.699, 3.323406
1362.627, 3.282413
1364.556, 3.250681
1366.484, 3.303181
1368.413, 3.650902
1370.341, 3.854019
1372.270, 3.468525
1374.198, 3.162472
1376.127, 3.310137
1378.055, 3.287584
1379.984, 2.855413
1381.912, 2.767231
1383.841, 3.123550
1385.769, 3.239723
1387.698, 3.118868
1389.626, 2.940544
1391.554, 2.768745
1393.483, 2.921919
1395.411, 3.175873
1397.340, 3.183580
1399.268, 3.107874
1401.197, 3.106976
1403.125, 3.037785
1405.054, 2.716902
1406.982, 2.581303
1408.911, 2.820526
1410.839, 3.086950
1412.768, 3.383980
1414.696, 3.476389
1416.625, 3.368580
1418.553, 3.177685
1420.481, 2.988596
1422.410, 3.229620
1424.338, 3.540516
1426.267, 3.377399
1428.195, 3.075655
1430.124, 2.724821
1432.052, 2.673586
1433.981, 3.226110
1435.909, 3.544847
1437.838, 3.403692
1439.766, 3.201036
1441.695, 2.982655
1443.623, 2.713804
1445.552, 2.454432
1447.480, 2.610006
1449.408, 2.926908
1451.337, 2.918343
1453.265, 2.783407
1455.194, 2.679596
1457.122, 2.588263
1459.051, 2.503092
1460.979, 2.414780
1462.908, 2.303068
1464.836, 2.380125
1466.765, 2.650805
1468.693, 2.287687
1470.622, 1.515028
1472.550, 1.530121
1474.479, 1.931326
1476.407, 2.139267
1478.335, 2.188644
1480.264, 2.021397
1482.192, 1.855505
1484.121, 1.759230
1486.049, 1.764860
1487.978, 1.928358
1489.906, 1.932335
1491.835, 1.773232
1493.763, 1.820663
1495.692, 1.984283
1497.620, 1.924170
1499.549, 1.825991
1501.477, 1.934582
1503.406, 2.073616
1505.334, 2.212667
1507.262, 2.192997
1509.191, 1.846897
1511.119, 1.644238
1513.048, 1.642532
1514.976, 1.611265
1516.905, 1.532991
1518.833, 1.177210
1520.762, 0.8228490
1522.690, 1.015682
1524.619, 1.307198
1526.547, 1.449167
1528.476, 1.482662
1530.404, 1.374083
1532.333, 1.375381
1534.261, 1.544811
1536.189, 1.626272
1538.118, 1.626862
1540.046, 1.569044
1541.975, 1.508652
1543.903, 1.529787
1545.832, 1.605598
1547.760, 1.754688
1549.689, 1.863371
1551.617, 1.895866
1553.546, 1.914114
1555.474, 1.923286
1557.403, 1.819311
1559.331, 1.623034
1561.260, 1.318405
1563.188, 1.094542
1565.116, 1.306484
1567.045, 1.537529
1568.973, 1.464191
1570.902, 1.578964
1572.830, 2.056843
1574.759, 1.733713
1576.687, 0.7294250
1578.616, 0.7585160
1580.544, 1.346987
1582.473, 1.559021
1584.401, 1.594667
1586.330, 1.530502
1588.258, 1.536402
1590.187, 1.826168
1592.115, 1.808477
1594.043, 1.430325
1595.972, 1.034430
1597.900, 0.7724590
1599.829, 1.380478
1601.757, 2.070208
1603.686, 1.923565
1605.614, 1.636450
1607.543, 1.376160
1609.471, 1.493256
1611.400, 2.321167
1613.328, 2.063726
1615.257, 1.000986
1617.185, 0.8077200
1619.114, 1.049566
1621.042, 1.316990
1622.970, 1.402111
1624.899, 1.101692
1626.827, 0.8692670
1628.756, 0.7934170
1630.684, 0.9386160
1632.613, 1.249958
1634.541, 1.449930
1636.470, 1.507689
1638.398, 1.307941
1640.327, 1.037624
1642.255, 0.6811890
1644.184, 0.7317260
1646.112, 1.343067
1648.041, 1.412708
1649.969, 1.038687
1651.897, 1.025743
1653.826, 1.110039
1655.754, 0.8757250
1657.683, 0.6919040
1659.611, 0.7289890
1661.540, 0.8026980
1663.468, 0.8861540
1665.397, 1.068596
1667.325, 1.288786
1669.254, 1.428751
1671.182, 1.465040
1673.111, 1.295818
1675.039, 1.148413
1676.968, 1.113935
1678.896, 1.027483
1680.824, 0.8902170
1682.753, 0.9735830
1684.681, 1.163927
1686.610, 1.176502
1688.538, 1.238298
1690.467, 1.808077
1692.395, 1.827364
1694.324, 0.8368680
1696.252, 0.5719530
1698.181, 0.9125980
1700.109, 0.9460910
1702.038, 0.8551540
1703.966, 0.8959140
1705.895, 0.8597280
1707.823, 0.5643120
1709.751, 0.3908120
1711.680, 0.3660640
1713.608, 0.4443170
1715.537, 0.5734710
1717.465, 0.6384790
1719.394, 0.6600780
1721.322, 0.6505550
1723.251, 0.5746190
1725.179, 0.3663120
1727.108, 0.5965100
1729.036, 1.087744
1730.965, 1.001869
1732.893, 0.7576270
1734.822, 0.7518230
1736.750, 0.7727510
1738.678, 0.7474590
1740.607, 0.8542330
1742.535, 1.070990
1744.464, 1.138681
1746.392, 1.043486
1748.321, 0.5624240
1750.249, 0.3022040
1752.178, 0.5322230
1754.106, 0.7673050
1756.035, 0.9271200
1757.963, 0.8662740
1759.892, 0.7246970
1761.820, 0.6830880
1763.749, 0.6886310
1765.677, 0.7499580
1767.605, 0.6750050
1769.534, 0.4672780
1771.462, 0.6066970
1773.391, 0.8647940
1775.319, 0.7026180
1777.248, 0.5858840
1779.176, 1.016434
1781.105, 1.031876
1783.033, 0.5518550
1784.962, 0.2608850
1786.890, 0.2286220
1788.819, 0.6934590
1790.747, 1.093704
1792.676, 1.055927
1794.604, 0.8710350
1796.532, 0.5662500
1798.461, 0.3583410
1800.389, 0.2260610
1802.318, 4.4576999E-02
1804.246, 6.4142004E-02
1806.175, 0.5757560
1808.103, 0.8744660
1810.032, 0.8830380
1811.960, 0.6886350
1813.889, 0.4425560
1815.817, 0.3627990
1817.746, 0.3711700
1819.674, 0.4730510
1821.603, 0.4992070
1823.531, 0.4304500
1825.459, 0.2984640
1827.388, 0.1720100
1829.316, 0.2248740
1831.245, 0.1607690
1833.173, 0.1586400
1835.102, 0.2293030
1837.030, 5.7202999E-02
1838.959, 6.7211002E-02
1840.887, 0.1583690
1842.816, 0.2937600
1844.744, 0.2325310
1846.673, 9.3203001E-02
1848.601, 8.4885001E-02
1850.530, 0.1750600
1852.458, 0.4664330
1854.386, 0.5792370
1856.315, 0.1687760
1858.243, 7.0152000E-02
1860.172, 0.3543910
1862.100, 0.2406580
1864.029, 4.9428999E-02
1865.957, 0.6390550
1867.886, 0.9804420
1869.814, 0.4188750
1871.743, 0.2347530
1873.671, 0.3894580
1875.600, 0.1406140
1877.528, 9.4856001E-02
1879.457, 0.2160210
1881.385, 0.4576990
1883.313, 0.4819530
1885.242, 0.2676140
1887.170, 3.4065001E-02
1889.099, 0.5316560
1891.027, 0.8104500
1892.956, 1.1745000E-02
1894.884, 0.3706610
1896.813, 0.2024080
1898.741, 0.2194810
1900.670, 0.2037770
1902.598, 0.1296980
1904.527, 0.3917270
1906.455, 0.4450860
1908.384, 0.5773580
1910.312, 0.6949080
1912.240, 0.4411050
1914.169, 0.2368700
1916.097, 0.2589780
1918.026, 0.6124970
1919.954, 1.170895
1921.883, 0.8377290
1923.811, 0.3867680
1925.740, 0.6716270
1927.668, 0.7437110
1929.597, 0.4123820
1931.525, 0.3589210
1933.454, 0.4059790
1935.382, 0.1541840
1937.311, 7.7350996E-02
1939.239, 0.1840170
1941.167, 0.1694450
1943.096, 1.9737000E-02
1945.024, 0.4616910
1946.953, 0.7804030
1948.881, 0.3987160
1950.810, 0.2660140
1952.738, 0.4165990
1954.667, 0.4432350
1956.595, 0.4049300
1958.524, 0.3264980
1960.452, 0.3990060
1962.381, 0.6506020
1964.309, 0.7966860
1966.238, 0.8791070
1968.166, 1.038576
1970.094, 0.9799610
1972.023, 0.4881000
1973.951, 0.3301430
1975.880, 0.3817040
1977.808, 0.2901690
1979.737, 0.2360780
1981.665, 0.3531130
1983.594, 0.4450990
1985.522, 0.4627880
1987.451, 4.7906999E-02
1989.379, 0.2424700
1991.308, 1.1547000E-02
1993.236, 0.2084410
1995.165, 0.2879310
1997.093, 0.3360960
1999.021, 0.4118710
2000.950, 0.5958230
2002.878, 0.6825500
2004.807, 0.6246430
2006.735, 0.2123930
2008.664, 9.3721002E-02
2010.592, 0.2858560
2012.521, 0.7081430
2014.449, 1.024410
2016.378, 0.9036560
2018.306, 0.5658110
2020.235, 0.1347060
2022.163, 5.9101000E-02
2024.092, 0.4071390
2026.020, 0.3667740
2027.948, 0.1841580
2029.877, 0.3312550
2031.805, 0.2950950
2033.734, 4.7812000E-02
2035.662, 6.0999999E-05
2037.591, 0.2025240
2039.519, 0.1866300
2041.448, 3.3092000E-02
2043.376, 0.2393230
2045.305, 0.2714390
2047.233, 0.1263430
2049.162, 0.1142160
2051.090, 0.3717370
2053.019, 0.6456700
2054.947, 0.5771450
2056.875, 0.4008050
2058.804, 0.5356270
2060.732, 0.6133210
2062.661, 0.5013920
2064.589, 0.4405040
2066.518, 0.3869090
2068.446, 0.2927320
2070.375, 0.1260830
2072.303, 0.1618630
2074.232, 2.0656999E-02
2076.160, 0.2770200
2078.089, 0.3700830
2080.017, 0.4621520
2081.946, 0.6127150
2083.874, 0.4187450
2085.802, 0.1585940
2087.731, 0.1949160
2089.659, 0.1140440
2091.588, 0.1501650
2093.516, 8.1004001E-02
2095.445, 0.3538440
2097.373, 0.1498770
2099.302, 0.2114270
2101.230, 0.5745360
2103.159, 0.4782050
2105.087, 0.2649730
2107.016, 0.1829990
2108.944, 4.0236000E-02
2110.873, 0.1317220
2112.801, 9.6415997E-02
2114.729, 2.9922999E-02
2116.658, 1.8193999E-02
2118.586, 0.2107330
2120.515, 0.3953970
2122.443, 0.2009820
2124.372, 0.5408650
2126.300, 0.1182170
2128.229, 0.1374220
2130.157, 0.4094280
2132.086, 0.5911440
2134.014, 0.5319480
2135.943, 0.1832620
2137.871, 1.2996000E-02
2139.800, 4.9612001E-02
2141.728, 0.1553260
2143.656, 0.2590050
2145.585, 0.2236300
2147.513, 0.3409760
2149.442, 0.3750260
2151.370, 2.9637000E-02
2153.299, 3.2460000E-03
2155.227, 0.2764740
2157.156, 0.7686310
2159.084, 0.9388340
2161.013, 0.4307640
2162.941, 0.4712550
2164.870, 0.7239070
2166.798, 0.3798190
2168.727, 0.1337390
2170.655, 0.1685840
2172.583, 0.1550030
2174.512, 9.7483002E-02
2176.440, 9.4775997E-02
2178.369, 0.2320670
2180.297, 0.9147580
2182.226, 0.4680600
2184.154, 4.4475999E-02
2186.083, 0.2377800
2188.011, 0.2540130
2189.940, 0.1241260
2191.868, 2.6938001E-02
2193.797, 7.0895001E-02
2195.725, 0.1606320
2197.654, 0.1599320
2199.582, 0.4977140
2201.510, 0.3510570
2203.439, 0.3305590
2205.367, 0.4713690
2207.296, 0.7864290
2209.224, 0.9136800
2211.153, 0.6350340
2213.081, 0.4448030
2215.010, 0.3431860
2216.938, 0.2603450
2218.867, 0.3698870
2220.795, 0.6456070
2222.724, 0.5914250
2224.652, 0.4846510
2226.581, 0.5566020
2228.509, 0.5016580
2230.438, 0.3861860
2232.366, 0.3649870
2234.294, 0.4878640
2236.223, 0.7832480
2238.151, 0.4963410
2240.080, 0.2594640
2242.008, 0.6821220
2243.937, 0.7167900
2245.865, 0.4346700
2247.794, 0.3427010
2249.722, 0.3581710
2251.651, 0.4565980
2253.579, 0.4661530
2255.508, 0.4589510
2257.436, 0.5435230
2259.365, 0.3908380
2261.293, 0.1159020
2263.221, 0.3127580
2265.150, 0.4512900
2267.078, 0.3704020
2269.007, 0.5248100
2270.935, 0.7029640
2272.864, 0.6364300
2274.792, 0.5321140
2276.721, 0.4735950
2278.649, 0.7212670
2280.578, 0.7289720
2282.506, 0.3417030
2284.435, 0.3984050
2286.363, 0.6321960
2288.292, 0.8827630
2290.220, 0.7962780
2292.148, 0.5272860
2294.077, 0.5399050
2296.005, 0.6420870
2297.934, 0.7756130
2299.862, 0.8748310
2301.791, 0.8648830
2303.719, 0.5804820
2305.648, 0.6057820
2307.576, 0.8047430
2309.505, 0.9135830
2311.433, 0.9039130
2313.362, 0.7953600
2315.290, 0.8302480
2317.219, 0.8000400
2319.147, 0.5491250
2321.075, 1.121399
2323.004, 1.792638
2324.932, 1.695374
2326.861, 1.421866
2328.789, 1.141251
2330.718, 1.246552
2332.646, 0.9396490
2334.575, 7.9694003E-02
2336.503, 0.2584440
2338.432, 0.7326120
2340.360, 0.9870600
2342.289, 0.8657980
2344.217, 0.6076100
2346.146, 0.6311050
2348.074, 0.5131670
2350.002, 0.2998200
2351.931, 0.6551700
2353.859, 0.6499010
2355.788, 3.6701001E-02
2357.716, 0.3104940
2359.645, 0.8688480
2361.573, 0.8855140
2363.502, 0.6838710
2365.430, 0.5051090
2367.359, 0.8555150
2369.287, 0.8121490
2371.216, 0.3914840
2373.144, 0.1975720
2375.073, 0.2006660
2377.001, 0.4060660
2378.929, 0.6448340
2380.858, 0.7647300
2382.786, 0.6138600
2384.715, 0.4834630
2386.643, 0.3979280
2388.572, 0.3208480
2390.500, 0.3984580
2392.429, 0.5784110
2394.357, 0.6523190
2396.286, 0.7429750
2398.214, 0.8537150
2400.143, 0.6775990
2402.071, 0.4239680
2404.000, 0.1933140
2405.928, 0.2387050
2407.856, 0.2955070
2409.785, 0.1160400
2411.713, 0.4406740
2413.642, 0.8503360
2415.570, 0.3371500
2417.499, 7.7359997E-02
2419.427, 0.1519750
2421.356, 0.3166820
2423.284, 0.5292490
2425.213, 0.7323640
2427.141, 0.6271680
2429.070, 0.5026950
2430.998, 0.4690220
2432.927, 0.5432380
2434.855, 0.6770930
2436.783, 0.9067490
2438.712, 0.8176740
2440.640, 0.5961850
2442.569, 0.4948510
2444.497, 0.3691920
2446.426, 0.2905620
2448.354, 0.5159870
2450.283, 0.5781680
2452.211, 0.4831240
2454.140, 0.7239580
2456.068, 0.6813450
2457.997, 0.2212520
2459.925, 0.3362670
2461.854, 0.5270470
2463.782, 0.5609620
2465.710, 0.3886180
2467.639, 0.1851760
2469.567, 5.8883000E-02
2471.496, 0.1899540
2473.424, 0.3356100
2475.353, 0.2332840
2477.281, 0.1972050
2479.210, 0.2156740
2481.138, 0.2287640
2483.067, 0.2497870
2484.995, 0.2966150
2486.924, 0.4437890
2488.852, 0.5117600
2490.781, 0.5035970
2492.709, 0.4432370
2494.637, 0.6084190
2496.566, 0.9506520
2498.494, 0.7687820
2500.423, 0.5568050
2502.351, 0.4773230
2504.280, 0.3603420
2506.208, 0.4595170
2508.137, 0.9014020
2510.065, 0.7215900
2511.994, 0.4776660
2513.922, 0.5888460
2515.851, 0.4249200
2517.779, 0.1700320
2519.708, 8.4985003E-02
2521.636, 9.3346000E-02
2523.564, 0.3446920
2525.493, 0.2995640
2527.421, 9.4209000E-02
2529.350, 4.2047001E-02
2531.278, 0.5694160
2533.207, 0.6850480
2535.135, 0.5824090
2537.064, 0.7126820
2538.992, 0.7318200
2540.921, 0.6290310
2542.849, 0.3860300
2544.778, 0.4526380
2546.706, 0.7333220
2548.635, 0.8893570
2550.563, 0.9175190
2552.491, 0.8318930
2554.420, 0.5514290
2556.348, 0.7665000
2558.277, 1.279534
2560.205, 0.9274960
2562.134, 0.8302040
2564.062, 1.008958
2565.991, 0.5167860
2567.919, 0.3611150
2569.848, 0.6376000
2571.776, 0.9282730
2573.705, 0.8642770
2575.633, 0.4968360
2577.562, 0.2994610
2579.490, 0.3919180
2581.418, 0.7028690
2583.347, 0.8098960
2585.275, 0.6827340
2587.204, 0.3355570
2589.132, 0.2018770
2591.061, 0.1292820
2592.989, 0.6226910
2594.918, 0.5625980
2596.846, 0.5030290
2598.775, 0.6441970
2600.703, 0.6900460
2602.632, 0.5900340
2604.560, 0.3512080
2606.489, 9.7777002E-02
2608.417, 1.2140000E-02
2610.345, 4.4193000E-02
2612.274, 4.4555999E-02
2614.202, 0.3032890
2616.131, 0.7663660
2618.059, 0.6694000
2619.988, 0.5309640
2621.916, 0.4661890
2623.845, 0.2919120
2625.773, 0.1888450
2627.702, 0.1985800
2629.630, 0.2631340
2631.559, 0.5491710
2633.487, 0.8696160
2635.416, 0.4437910
2637.344, 0.3752970
2639.272, 0.6036970
2641.201, 0.3466840
2643.129, 0.2425580
2645.058, 0.3223820
2646.986, 0.3928630
2648.915, 0.6627630
2650.843, 0.9047290
2652.772, 0.5771240
2654.700, 0.3100220
2656.629, 0.2864910
2658.557, 0.7485520
2660.486, 0.8129500
2662.414, 0.6826430
2664.343, 0.7253730
2666.271, 0.5963270
2668.199, 0.3798630
2670.128, 0.1791010
2672.056, 6.5572999E-02
2673.985, 9.4405003E-02
2675.913, 0.2968810
2677.842, 0.4790630
2679.770, 0.5852000
2681.699, 0.5863210
2683.627, 0.1520960
2685.556, 4.2130001E-02
2687.484, 0.4913280
2689.413, 0.6105850
2691.341, 0.7584020
2693.270, 0.9760890
2695.198, 0.7361430
2697.126, 0.3303800
2699.055, 7.2579999E-03
2700.983, 0.3793750
2702.912, 0.5688700
2704.840, 0.4944080
2706.769, 0.3865490
2708.697, 0.3245270
2710.626, 0.3168710
2712.554, 0.4208100
2714.483, 0.2269580
2716.411, 1.6216001E-02
2718.340, 6.6164002E-02
2720.268, 0.1453750
2722.197, 0.2418810
2724.125, 0.2116270
2726.053, 0.1467840
2727.982, 2.1294000E-02
2729.910, 1.383477
2731.839, 1.275633
2733.767, 0.7565300
2735.696, 0.2949750
2737.624, 0.3485010
2739.553, 0.5860050
2741.481, 0.7605460
2743.410, 0.2586250
2745.338, 6.7938000E-02
2747.267, 0.2461690
2749.195, 0.7566580
2751.124, 0.7642390
2753.052, 0.5509140
2754.980, 0.4103550
2756.909, 0.5215270
2758.837, 0.5856820
2760.766, 0.4650390
2762.694, 0.4780000
2764.623, 0.5127400
2766.551, 0.5074940
2768.480, 0.3214420
2770.408, 0.3252430
2772.337, 0.4905920
2774.265, 0.6422660
2776.194, 0.7428170
2778.122, 0.6405180
2780.051, 2.5852000E-02
2781.979, 7.9020999E-02
2783.907, 0.3683110
2785.836, 0.3573450
2787.764, 0.4369290
2789.693, 0.5588390
2791.621, 0.6569130
2793.550, 0.2800680
2795.478, 0.3045780
2797.407, 0.6086630
2799.335, 0.4615450
2801.264, 0.3141970
2803.192, 0.3201480
2805.121, 0.5816400
2807.049, 0.4775560
2808.978, 0.5105350
2810.906, 0.8621720
2812.834, 0.1929930
2814.763, 3.0105000E-02
2816.691, 0.5704080
2818.620, 0.6914620
2820.548, 0.5876920
2822.477, 0.4201300
2824.405, 0.3485190
2826.334, 0.2902340
2828.262, 0.3530700
2830.191, 0.6076590
2832.119, 0.6273620
2834.048, 0.4269610
2835.976, 0.1349620
2837.905, 0.3258450
2839.833, 0.2760310
2841.761, 0.1824490
2843.690, 0.6546430
2845.618, 0.8374530
2847.547, 0.7537060
2849.475, 0.4567940
2851.404, 0.2789480
2853.332, 0.3598290
2855.261, 0.6207300
2857.189, 0.4236940
2859.118, 0.4274880
2861.046, 0.4825450
2862.975, 0.2132460
2864.903, 0.2614470
2866.832, 0.3788730
2868.760, 0.3992980
2870.688, 0.3443550
2872.617, 0.3565620
2874.545, 0.4707540
2876.474, 0.6482650
2878.402, 0.5808750
2880.331, 0.3822720
2882.259, 0.1987620
2884.188, 0.3585610
2886.116, 0.4723680
2888.045, 0.4131680
2889.973, 0.3591520
2891.902, 0.3817160
2893.830, 0.4634610
2895.759, 0.6349900
2897.687, 0.5696460
2899.615, 0.3541480
2901.544, 7.2942004E-02
2903.472, 0.4558290
2905.401, 0.5814710
2907.329, 0.4040070
2909.258, 0.2733260
2911.186, 0.5687240
2913.115, 0.6420530
2915.043, 1.1393000E-02
2916.972, 0.2495910
2918.900, 0.3635520
2920.829, 0.2408880
2922.757, 0.5234570
2924.686, 0.4327870
2926.614, 0.3217650
2928.542, 0.5164030
2930.471, 0.2103180
2932.399, 6.4185001E-02
2934.328, 0.2125790
2936.256, 0.3366230
2938.185, 0.3570650
2940.113, 0.3069650
2942.042, 0.2306500
2943.970, 0.4541970
2945.899, 0.5502700
2947.827, 0.3970210
2949.756, 6.6335000E-02
2951.684, 8.6999999E-04
2953.613, 0.2815990
2955.541, 0.4462050
2957.469, 6.9742002E-02
2959.398, 3.1985998E-02
2961.326, 0.3439620
2963.255, 0.3586100
2965.183, 0.6651310
2967.112, 0.7651910
2969.040, 0.2437990
2970.969, 3.1686999E-02
2972.897, 8.5171998E-02
2974.826, 0.4927380
2976.754, 0.9871850
2978.683, 0.4570860
2980.611, 7.9039998E-02
2982.540, 0.4274770
2984.468, 0.1931250
2986.396, 0.2150770
2988.325, 0.3901830
2990.253, 0.3597800
2992.182, 0.3855350
2994.110, 0.3127110
2996.039, 0.1299460
2997.967, 5.6799999E-03
2999.896, 7.2213002E-02
3001.824, 7.4180001E-03
3003.753, 0.2587430
3005.681, 0.1899160
3007.610, 0.1503830
3009.538, 0.2023510
3011.467, 0.3149520
3013.395, 3.2029999E-03
3015.323, 7.8474000E-02
3017.252, 0.3200260
3019.180, 0.4381310
3021.109, 0.3586220
3023.037, 0.2540050
3024.966, 0.2729000
3026.894, 0.4936100
3028.823, 0.6136950
3030.751, 0.6257600
3032.680, 0.7186610
3034.608, 0.5531550
3036.537, 0.5593680
3038.465, 0.8277700
3040.394, 0.4240350
3042.322, 0.3767620
3044.250, 0.5443790
3046.179, 0.6452640
3048.107, 0.5876740
3050.036, 0.5416190
3051.964, 0.5078760
3053.893, 0.4147280
3055.821, 8.1104003E-02
3057.750, 6.0431000E-02
3059.678, 8.3446003E-02
3061.607, 0.3220730
3063.535, 0.3214260
3065.464, 0.3566300
3067.392, 0.5865600
3069.321, 0.5434250
3071.249, 0.4034570
3073.177, 0.2534460
3075.106, 0.1358060
3077.034, 0.1807900
3078.963, 0.3719680
3080.891, 0.4678440
3082.820, 8.5359000E-02
3084.748, 4.6758000E-02
3086.677, 3.9432000E-02
3088.605, 0.2609100
3090.534, 0.5500370
3092.462, 0.1409150
3094.391, 8.6296000E-02
3096.319, 0.2394570
3098.248, 0.4132590
3100.176, 0.3344480
3102.104, 5.6862999E-02
3104.033, 0.2548070
3105.961, 6.7934997E-02
3107.890, 0.4019410
3109.818, 0.7425900
3111.747, 1.164465
3113.675, 0.8178160
3115.604, 0.7460570
3117.532, 0.8058480
3119.461, 0.4297530
3121.389, 5.6294002E-02
3123.318, 0.1001810
3125.246, 0.5835740
3127.175, 0.4786110
3129.103, 0.8640460
3131.031, 0.8117850
3132.960, 0.4085690
3134.888, 0.5342110
3136.817, 0.7399450
3138.745, 0.6756950
3140.674, 0.4184060
3142.602, 0.5395370
3144.531, 3.7305001E-02
3146.459, 0.2740540
3148.388, 4.8914999E-02
3150.316, 0.3932920
3152.245, 0.5664210
3154.173, 0.6273110
3156.102, 0.6396760
3158.030, 0.3790100
3159.958, 0.4486310
3161.887, 0.4498540
3163.815, 0.2772140
3165.744, 0.5123250
3167.672, 0.2384710
3169.601, 0.1835140
3171.529, 0.5790490
3173.458, 0.4279480
3175.386, 0.5878560
3177.315, 0.5783240
3179.243, 0.2344520
3181.172, 0.4095190
3183.100, 0.3684190
3185.029, 0.2724410
3186.957, 0.2824590
3188.885, 0.4290060
3190.814, 0.7081970
3192.742, 0.6963210
3194.671, 0.3396850
3196.599, 0.2176410
3198.528, 0.2202110
3200.456, 0.1559750
3202.385, 1.2635000E-02
3204.313, 2.1689000E-02
3206.242, 0.4711280
3208.170, 0.8345290
3210.099, 0.7788800
3212.027, 0.2958000
3213.956, 0.1123530
3215.884, 0.3437990
3217.813, 0.6544690
3219.741, 0.3517640
3221.669, 0.3332620
3223.598, 0.5075790
3225.526, 0.7162390
3227.455, 0.8428610
3229.383, 0.2856850
3231.312, 0.2826120
3233.240, 0.5867220
3235.169, 0.5660760
3237.097, 0.3747290
3239.026, 0.3176300
3240.954, 0.3056670
3242.883, 0.2471260
3244.811, 0.4044790
3246.740, 0.7246930
3248.668, 0.7295350
3250.596, 0.3245320
3252.525, 0.4203590
3254.453, 0.2851840
3256.382, 0.4339400
3258.310, 0.8092010
3260.239, 0.5792210
3262.167, 0.7483950
3264.096, 0.5880190
3266.024, 0.1940390
3267.953, 0.1632390
3269.881, 0.2050480
3271.810, 0.4902770
3273.738, 0.7394570
3275.667, 0.6446080
3277.595, 0.7365650
3279.523, 0.6178490
3281.452, 0.4652480
3283.380, 0.5481980
3285.309, 0.9694020
3287.237, 0.7146290
3289.166, 0.6008320
3291.094, 0.7833150
3293.023, 0.7489120
3294.951, 0.8360720
3296.880, 0.6363830
3298.808, 0.4018130
3300.737, 0.5065190
3302.665, 0.5384830
3304.594, 0.5441100
3306.522, 0.5437580
3308.450, 0.4985840
3310.379, 0.1663130
3312.307, 0.3281220
3314.236, 0.5137440
3316.164, 0.4967190
3318.093, 0.2646080
3320.021, 0.4060450
3321.950, 0.3544900
3323.878, 0.2735340
3325.807, 0.3825650
3327.735, 0.2714740
3329.664, 0.2193690
3331.592, 0.1037970
3333.521, 4.1932002E-02
3335.449, 7.4251004E-02
3337.377, 5.4395001E-02
3339.306, 0.4921970
3341.234, 0.7987570
3343.163, 0.5730360
3345.091, 0.1339080
3347.020, 0.2371530
3348.948, 0.6382140
3350.877, 0.9010480
3352.805, 0.5498760
3354.734, 0.3141050
3356.662, 0.5029220
3358.591, 0.6900430
3360.519, 0.4436300
3362.448, 0.2057980
3364.376, 0.1525140
3366.304, 0.5083780
3368.233, 0.4907860
3370.161, 0.4590390
3372.090, 0.5122100
3374.018, 0.5352140
3375.947, 0.5299780
3377.875, 0.5191760
3379.804, 0.4477750
3381.732, 0.7579420
3383.661, 0.7566340
3385.589, 0.5767470
3387.518, 0.7430160
3389.446, 0.3148180
3391.375, 0.6048550
3393.303, 1.028171
3395.231, 1.053574
3397.160, 0.5702380
3399.088, 0.7026630
3401.017, 0.7875200
3402.945, 0.6327410
3404.874, 0.3931370
3406.802, 0.6208080
3408.731, 0.3183970
3410.659, 0.3060230
3412.588, 0.5266720
3414.516, 0.3524500
3416.445, 0.4366640
3418.373, 0.4904620
3420.302, 0.5357910
3422.230, 0.4946980
3424.158, 0.1741390
3426.087, 0.2480140
3428.015, 0.2830550
3429.944, 0.4394090
3431.872, 0.6072060
3433.801, 0.1497690
3435.729, 0.1092300
3437.658, 0.4005960
3439.586, 0.6272700
3441.515, 0.6106040
3443.443, 0.5923190
3445.372, 9.7804002E-02
3447.300, 0.1766410
3449.229, 0.3080610
3451.157, 7.4680001E-03
3453.085, 9.7534999E-02
3455.014, 0.2506410
3456.942, 0.0000000E+00
##END=



