##NAMES=Caryochroite
##RRUFFID=R070008
##IDEAL CHEMISTRY=(Na,Sr)_3_(Fe^3+^,Mg)_10_Ti^4+^_2_Si_12_O_37_(H_2_O,O,OH)_17_
##LOCALITY=Umbozero mine, Alluaiv Mt., Lovozero massif, Kola Peninsula, Russia
##OWNER=RRUFF
##SOURCE=Michael Scott
##DESCRIPTION=Dark brown massive, very fine grained
##STATUS=The identification of this mineral is not yet confirmed.
##URL=rruff.info/R070008
205.6803, 0.0000000E+00
206.1625, 22.21094
206.6446, 39.27930
207.1267, 31.65430
207.6088, 2.583984
208.0909, 5.345703
208.5730, 33.27539
209.0552, 63.05957
209.5373, 70.01172
210.0194, 64.95801
210.5015, 63.26074
210.9836, 73.09863
211.4657, 88.85352
211.9479, 90.87988
212.4300, 60.90625
212.9121, 41.64453
213.3942, 40.33496
213.8763, 50.30273
214.3584, 67.52148
214.8406, 90.26270
215.3227, 112.8604
215.8048, 119.8828
216.2869, 89.50781
216.7690, 78.86816
217.2511, 111.2549
217.7333, 152.4775
218.2154, 171.1436
218.6975, 157.8135
219.1796, 127.7246
219.6617, 106.7012
220.1438, 96.78906
220.6260, 93.29004
221.1081, 97.90625
221.5902, 106.4014
222.0723, 121.4590
222.5544, 141.0254
223.0365, 152.9062
223.5187, 136.0703
224.0008, 68.11230
224.4829, 30.82129
224.9650, 39.48438
225.4471, 61.28516
225.9292, 85.06738
226.4113, 105.9531
226.8935, 117.9072
227.3756, 112.0098
227.8577, 82.16797
228.3398, 64.49512
228.8219, 66.77832
229.3040, 73.34766
229.7862, 82.08105
230.2683, 90.08887
230.7504, 91.83984
231.2325, 80.88184
231.7146, 56.29785
232.1967, 41.25488
232.6789, 40.29590
233.1610, 45.02637
233.6431, 57.27832
234.1252, 73.50391
234.6073, 87.93848
235.0894, 96.54980
235.5716, 99.87109
236.0537, 103.2568
236.5358, 115.9170
237.0179, 117.0713
237.5000, 88.12305
237.9821, 48.87598
238.4643, 27.06836
238.9464, 37.82422
239.4285, 72.88281
239.9106, 105.7861
240.3927, 144.5957
240.8748, 166.9814
241.3570, 159.5039
241.8391, 140.7598
242.3212, 130.6846
242.8033, 136.8984
243.2854, 149.1289
243.7675, 144.5059
244.2497, 106.7324
244.7318, 88.40918
245.2139, 117.4346
245.6960, 150.8203
246.1781, 154.7930
246.6602, 122.8643
247.1424, 76.62598
247.6245, 38.59570
248.1066, 3.665039
248.5887, 2.447266
249.0708, 54.79980
249.5529, 114.8174
250.0351, 149.1318
250.5172, 155.7871
250.9993, 147.8711
251.4814, 136.2031
251.9635, 120.7676
252.4456, 101.6016
252.9278, 65.08984
253.4099, 38.82910
253.8920, 34.41602
254.3741, 49.10449
254.8562, 75.89062
255.3383, 117.9561
255.8205, 169.3984
256.3026, 186.8105
256.7847, 138.7207
257.2668, 102.6758
257.7489, 117.2705
258.2310, 158.5459
258.7132, 190.2646
259.1953, 193.4062
259.6774, 178.5254
260.1595, 169.1523
260.6416, 165.5771
261.1237, 167.1611
261.6059, 183.0039
262.0880, 199.3750
262.5701, 199.2510
263.0522, 174.8262
263.5343, 145.7617
264.0164, 143.7939
264.4986, 174.3516
264.9807, 194.8789
265.4628, 183.5410
265.9449, 164.5576
266.4270, 158.6387
266.9091, 167.7207
267.3913, 176.1123
267.8734, 167.5391
268.3555, 143.7910
268.8376, 125.4053
269.3197, 116.4893
269.8018, 113.3525
270.2840, 116.1152
270.7661, 123.0723
271.2482, 123.7168
271.7303, 104.4951
272.2124, 74.55664
272.6945, 60.34180
273.1766, 67.61816
273.6588, 81.07617
274.1409, 87.02539
274.6230, 90.16309
275.1051, 102.4111
275.5872, 144.3066
276.0693, 188.7129
276.5515, 192.5645
277.0336, 151.9443
277.5157, 115.6934
277.9978, 110.8086
278.4799, 130.4014
278.9620, 159.3682
279.4442, 207.3613
279.9263, 249.6885
280.4084, 263.9121
280.8905, 254.5195
281.3726, 245.8330
281.8547, 246.9736
282.3369, 253.7832
282.8190, 260.4053
283.3011, 269.0273
283.7832, 271.4189
284.2653, 261.6201
284.7474, 244.0254
285.2296, 225.2129
285.7117, 206.0020
286.1938, 189.6328
286.6759, 180.0664
287.1580, 177.0508
287.6401, 181.2881
288.1223, 200.5273
288.6044, 222.4365
289.0865, 234.6670
289.5686, 236.3096
290.0507, 236.1631
290.5328, 243.2969
291.0150, 257.5205
291.4971, 257.3047
291.9792, 231.4092
292.4613, 203.2344
292.9434, 185.0410
293.4255, 174.1699
293.9077, 161.5693
294.3898, 141.7188
294.8719, 116.7490
295.3540, 95.81934
295.8361, 59.30957
296.3182, 50.23926
296.8004, 99.08984
297.2825, 170.0010
297.7646, 223.0928
298.2467, 243.8027
298.7288, 237.4326
299.2109, 210.5498
299.6931, 140.0791
300.1752, 93.97656
300.6573, 76.49609
301.1394, 77.65625
301.6215, 101.9854
302.1036, 142.9834
302.5858, 177.0820
303.0679, 177.5293
303.5500, 138.4160
304.0321, 117.8828
304.5142, 132.0684
304.9963, 148.7822
305.4785, 162.8770
305.9606, 171.7695
306.4427, 170.6865
306.9248, 154.8164
307.4069, 130.1064
307.8890, 122.5244
308.3712, 148.8008
308.8533, 165.1299
309.3354, 157.3730
309.8175, 139.1758
310.2996, 121.0947
310.7817, 106.8008
311.2639, 100.0684
311.7460, 109.1162
312.2281, 140.2842
312.7102, 154.2568
313.1923, 129.1221
313.6744, 96.52539
314.1566, 71.69434
314.6387, 56.12207
315.1208, 46.96973
315.6029, 47.01953
316.0850, 53.38770
316.5671, 47.11230
317.0493, 17.07422
317.5314, 7.048828
318.0135, 0.6855470
318.4956, 26.84570
318.9777, 42.96289
319.4598, 29.36523
319.9420, 7.974609
320.4241, 13.16992
320.9062, 46.97070
321.3883, 77.17480
321.8704, 89.88379
322.3525, 88.58008
322.8347, 78.17969
323.3168, 50.68164
323.7989, 33.68750
324.2810, 58.73242
324.7631, 107.8105
325.2452, 127.5684
325.7274, 97.39648
326.2095, 48.78613
326.6916, 23.17285
327.1737, 20.69043
327.6558, 26.19141
328.1379, 49.78320
328.6201, 72.70703
329.1022, 69.61426
329.5843, 40.84180
330.0664, 16.10645
330.5485, 20.22168
331.0306, 52.75488
331.5128, 82.10449
331.9949, 118.6260
332.4770, 141.5039
332.9591, 130.6797
333.4412, 101.7344
333.9233, 87.31641
334.4054, 103.8467
334.8875, 136.0479
335.3697, 142.7676
335.8518, 94.80078
336.3339, 61.70410
336.8160, 57.22656
337.2981, 58.89551
337.7802, 45.72168
338.2624, 15.91602
338.7445, 14.61816
339.2266, 27.63477
339.7087, 20.53809
340.1908, 12.82324
340.6729, 8.363281
341.1551, 0.7851560
341.6372, 23.26855
342.1193, 51.99902
342.6014, 72.92871
343.0835, 76.52148
343.5656, 68.80273
344.0478, 68.07910
344.5299, 76.87207
345.0120, 87.10059
345.4941, 107.5850
345.9762, 122.3662
346.4583, 110.7646
346.9405, 67.37598
347.4226, 23.39453
347.9047, 14.10742
348.3868, 37.41309
348.8689, 54.65723
349.3510, 56.35547
349.8332, 55.63281
350.3153, 66.39062
350.7974, 87.41895
351.2795, 98.59863
351.7616, 93.03223
352.2437, 78.19043
352.7259, 62.72266
353.2080, 46.53711
353.6901, 36.46777
354.1722, 41.37891
354.6543, 54.22461
355.1364, 53.47363
355.6186, 29.35449
356.1007, 5.919922
356.5828, 10.50781
357.0649, 17.39648
357.5470, 3.315430
358.0291, 38.68555
358.5113, 83.48242
358.9934, 90.58301
359.4755, 40.15234
359.9576, 12.98926
360.4397, 31.59570
360.9218, 59.37500
361.4040, 70.35547
361.8861, 64.19727
362.3682, 53.45312
362.8503, 47.47266
363.3324, 45.86230
363.8145, 43.15234
364.2967, 43.03516
364.7788, 37.39844
365.2609, 14.09277
365.7430, 11.32129
366.2251, 15.11816
366.7072, 10.27246
367.1894, 43.07227
367.6715, 42.84375
368.1536, 8.175781
368.6357, 37.17578
369.1178, 25.02637
369.5999, 3.084961
370.0821, 15.41016
370.5642, 30.78125
371.0463, 49.16113
371.5284, 81.73145
372.0105, 122.7295
372.4926, 150.2070
372.9748, 154.8711
373.4569, 155.7881
373.9390, 173.1230
374.4211, 189.8418
374.9032, 182.2070
375.3853, 132.8955
375.8675, 83.43652
376.3496, 80.58301
376.8317, 115.4775
377.3138, 141.9609
377.7959, 150.3701
378.2780, 143.4795
378.7602, 115.7139
379.2423, 68.34180
379.7244, 36.45117
380.2065, 33.72852
380.6886, 45.60156
381.1707, 62.48145
381.6529, 82.14844
382.1350, 97.81055
382.6171, 105.0967
383.0992, 104.8066
383.5813, 101.1582
384.0634, 88.85352
384.5456, 80.29102
385.0277, 75.12598
385.5098, 79.01367
385.9919, 103.3154
386.4740, 145.4033
386.9561, 178.8584
387.4383, 169.1992
387.9204, 98.11621
388.4025, 57.66699
388.8846, 63.06934
389.3667, 82.12891
389.8488, 121.3916
390.3310, 162.8975
390.8131, 168.7275
391.2952, 107.5303
391.7773, 14.19531
392.2594, 6.168945
392.7415, 79.58203
393.2237, 150.6416
393.7058, 164.7471
394.1879, 157.7178
394.6700, 156.9023
395.1521, 166.1611
395.6342, 168.9795
396.1163, 143.6709
396.5984, 99.55469
397.0806, 76.07812
397.5627, 83.45410
398.0448, 94.58887
398.5269, 85.58594
399.0090, 64.05469
399.4911, 51.65430
399.9733, 58.62891
400.4554, 70.40039
400.9375, 75.91406
401.4196, 76.45703
401.9017, 76.02930
402.3839, 76.00098
402.8660, 78.40332
403.3481, 82.63965
403.8302, 87.94043
404.3123, 90.09375
404.7944, 80.16797
405.2766, 74.36914
405.7587, 98.81250
406.2408, 143.5410
406.7229, 163.1055
407.2050, 112.0703
407.6871, 5.418945
408.1693, 38.73535
408.6514, 46.21289
409.1335, 107.7598
409.6156, 105.5674
410.0977, 82.09180
410.5798, 85.65430
411.0620, 126.7695
411.5441, 167.6826
412.0262, 148.7852
412.5083, 67.47168
412.9904, 29.30664
413.4725, 64.80078
413.9547, 111.0850
414.4368, 136.1162
414.9189, 144.3447
415.4010, 147.2871
415.8831, 146.7842
416.3652, 143.2793
416.8474, 135.8145
417.3295, 125.0801
417.8116, 118.6865
418.2937, 121.6113
418.7758, 127.6719
419.2579, 121.0186
419.7401, 99.06152
420.2222, 86.45410
420.7043, 94.03906
421.1864, 109.3691
421.6685, 121.7949
422.1506, 129.9170
422.6328, 134.0029
423.1149, 133.4277
423.5970, 129.0176
424.0791, 128.5654
424.5612, 131.8066
425.0433, 140.1406
425.5255, 175.1611
426.0076, 203.6777
426.4897, 177.9688
426.9718, 95.84180
427.4539, 13.15625
427.9360, 1.987305
428.4182, 71.84180
428.9003, 97.10254
429.3824, 30.47852
429.8645, 22.43164
430.3466, 3.861328
430.8287, 49.65039
431.3109, 74.38770
431.7930, 37.98828
432.2751, 12.09668
432.7572, 12.12109
433.2393, 35.88379
433.7214, 82.35352
434.2036, 124.0996
434.6857, 148.1592
435.1678, 127.1035
435.6499, 65.55469
436.1320, 19.34863
436.6141, 6.111328
437.0963, 11.77441
437.5784, 33.09375
438.0605, 64.69531
438.5426, 84.83984
439.0247, 80.17090
439.5068, 59.31445
439.9890, 46.91406
440.4711, 50.95410
440.9532, 52.35059
441.4353, 56.65234
441.9174, 53.90625
442.3995, 23.31445
442.8817, 27.22754
443.3638, 58.52148
443.8459, 31.61719
444.3280, 44.54297
444.8101, 87.83398
445.2922, 81.54492
445.7744, 68.79492
446.2565, 53.40039
446.7386, 41.99219
447.2207, 45.38477
447.7028, 66.15039
448.1849, 84.42188
448.6671, 79.52930
449.1492, 56.34570
449.6313, 34.72070
450.1134, 14.06445
450.5955, 2.656250
451.0776, 12.74219
451.5598, 36.85156
452.0419, 48.96680
452.5240, 37.82617
453.0061, 23.96680
453.4882, 17.44922
453.9703, 16.25000
454.4525, 16.49023
454.9346, 16.96094
455.4167, 18.62109
455.8988, 23.65234
456.3809, 35.13477
456.8630, 36.79297
457.3452, 13.91211
457.8272, 2.074219
458.3094, 12.90625
458.7915, 42.23438
459.2736, 51.80664
459.7557, 23.91406
460.2378, 17.01758
460.7199, 21.91406
461.2021, 17.82422
461.6842, 54.48047
462.1663, 95.70508
462.6484, 117.3320
463.1305, 87.71484
463.6126, 22.06250
464.0948, 21.63672
464.5769, 1.621094
465.0590, 44.80859
465.5411, 68.49805
466.0232, 68.60938
466.5053, 67.95508
466.9875, 72.18750
467.4696, 74.52539
467.9517, 57.36914
468.4338, 10.19141
468.9159, 13.62695
469.3980, 19.33594
469.8802, 58.72656
470.3623, 60.91992
470.8444, 30.42969
471.3265, 3.142578
471.8086, 21.36719
472.2907, 26.20312
472.7729, 23.09570
473.2550, 4.4922002E-02
473.7371, 9.507813
474.2192, 17.72461
474.7013, 42.61328
475.1834, 27.56445
475.6656, 22.15430
476.1477, 62.57617
476.6298, 51.47852
477.1119, 9.230469
477.5940, 1.375000
478.0761, 25.65234
478.5583, 55.27930
479.0404, 76.23047
479.5225, 88.57422
480.0046, 92.29102
480.4867, 85.14844
480.9688, 79.05664
481.4510, 81.18945
481.9331, 85.55664
482.4152, 83.69141
482.8973, 75.47266
483.3794, 67.88477
483.8615, 66.17578
484.3437, 69.16211
484.8258, 70.07031
485.3079, 55.76367
485.7900, 55.06055
486.2721, 89.10742
486.7542, 126.5938
487.2364, 142.7305
487.7185, 131.9863
488.2006, 109.0176
488.6827, 81.13281
489.1648, 48.13086
489.6469, 15.83008
490.1291, 24.04492
490.6112, 47.65820
491.0933, 32.92773
491.5754, 2.199219
492.0575, 26.55273
492.5396, 52.66406
493.0218, 68.94531
493.5039, 61.73242
493.9860, 45.05078
494.4681, 45.42383
494.9502, 65.75391
495.4323, 88.30859
495.9145, 101.3457
496.3966, 104.9434
496.8787, 100.2852
497.3608, 77.48047
497.8429, 59.97266
498.3250, 50.24609
498.8072, 47.25977
499.2893, 53.25781
499.7714, 66.27539
500.2535, 77.68359
500.7356, 78.55859
501.2177, 70.53906
501.6999, 62.11133
502.1820, 53.85742
502.6641, 46.50586
503.1462, 40.75586
503.6283, 36.72266
504.1104, 35.14062
504.5926, 36.03711
505.0747, 37.20117
505.5568, 37.02930
506.0389, 36.33594
506.5210, 31.36719
507.0031, 22.78320
507.4853, 33.01562
507.9674, 82.35352
508.4495, 153.7637
508.9316, 189.5762
509.4137, 165.6074
509.8958, 146.2051
510.3780, 141.8438
510.8601, 139.7344
511.3422, 126.6309
511.8243, 105.2148
512.3064, 90.72266
512.7885, 96.04297
513.2706, 114.1484
513.7527, 117.1934
514.2349, 97.19922
514.7170, 84.54688
515.1991, 87.58008
515.6812, 99.20703
516.1633, 119.7051
516.6454, 147.6367
517.1276, 172.6758
517.6097, 194.4023
518.0918, 205.9082
518.5739, 196.8926
519.0560, 172.1836
519.5381, 149.2207
520.0203, 135.1484
520.5024, 129.2988
520.9845, 132.0762
521.4666, 155.7012
521.9487, 156.3301
522.4308, 114.2891
522.9130, 73.85547
523.3951, 58.23438
523.8772, 64.11914
524.3593, 80.71680
524.8414, 103.5645
525.3235, 126.3164
525.8057, 130.5098
526.2878, 108.9648
526.7699, 114.4023
527.2520, 183.1230
527.7341, 250.5605
528.2162, 270.0391
528.6984, 252.9434
529.1805, 233.8145
529.6626, 225.8574
530.1447, 216.9609
530.6268, 193.3945
531.1089, 162.6387
531.5911, 137.9648
532.0732, 121.4355
532.5553, 116.0781
533.0374, 132.3242
533.5195, 177.1719
534.0016, 190.8867
534.4838, 135.1406
534.9659, 95.25586
535.4480, 105.4590
535.9301, 140.6211
536.4122, 171.0898
536.8943, 187.6855
537.3765, 193.2090
537.8586, 189.8984
538.3407, 177.8848
538.8228, 154.3965
539.3049, 111.6602
539.7870, 80.70898
540.2692, 90.04883
540.7513, 118.2051
541.2334, 121.8105
541.7155, 89.20312
542.1976, 58.71680
542.6797, 39.94922
543.1619, 33.55273
543.6440, 46.12891
544.1261, 74.34375
544.6082, 101.4570
545.0903, 115.9102
545.5724, 119.7012
546.0546, 120.9219
546.5367, 122.2129
547.0188, 115.4883
547.5009, 88.67188
547.9830, 62.85938
548.4651, 54.94336
548.9473, 63.35547
549.4294, 71.03711
549.9115, 65.02734
550.3936, 54.06836
550.8757, 47.17969
551.3578, 45.26953
551.8400, 60.01758
552.3221, 99.59766
552.8042, 145.4512
553.2863, 178.0996
553.7684, 196.5859
554.2505, 198.3027
554.7327, 160.0625
555.2148, 129.8828
555.6969, 134.1621
556.1790, 157.8730
556.6611, 179.6172
557.1432, 191.7988
557.6254, 196.9336
558.1075, 196.3750
558.5896, 190.0703
559.0717, 186.3477
559.5538, 184.7539
560.0359, 186.6191
560.5181, 193.8770
561.0002, 204.4863
561.4823, 219.1074
561.9644, 240.9316
562.4465, 251.3984
562.9286, 228.1172
563.4108, 195.3398
563.8929, 186.4570
564.3750, 201.4609
564.8571, 220.7500
565.3392, 232.8535
565.8214, 239.3535
566.3035, 245.4785
566.7856, 258.3340
567.2677, 256.9219
567.7498, 221.3809
568.2319, 191.1348
568.7141, 195.6445
569.1962, 222.7500
569.6783, 239.4512
570.1604, 227.3457
570.6425, 205.0117
571.1246, 194.5391
571.6068, 194.9785
572.0889, 199.8477
572.5710, 207.4062
573.0531, 222.0605
573.5352, 254.5273
574.0173, 301.8809
574.4995, 320.2266
574.9816, 269.0254
575.4637, 240.7695
575.9458, 293.5977
576.4279, 362.7109
576.9100, 369.7129
577.3922, 309.8672
577.8743, 241.1836
578.3564, 209.2422
578.8385, 211.3496
579.3206, 244.5000
579.8027, 321.9980
580.2849, 378.4746
580.7670, 391.4336
581.2491, 375.9277
581.7312, 339.1152
582.2133, 282.3086
582.6954, 249.3516
583.1776, 272.0898
583.6597, 305.4746
584.1418, 319.7578
584.6239, 316.8984
585.1060, 300.6523
585.5881, 272.8125
586.0703, 248.1309
586.5524, 247.9785
587.0345, 274.9023
587.5166, 301.6855
587.9987, 341.7148
588.4808, 362.2773
588.9630, 345.1250
589.4451, 309.6230
589.9272, 271.4844
590.4093, 233.3262
590.8914, 211.9883
591.3735, 232.6172
591.8557, 270.3477
592.3378, 284.0312
592.8199, 273.2871
593.3020, 259.4336
593.7841, 251.5918
594.2662, 251.7852
594.7484, 265.6309
595.2305, 304.1797
595.7126, 328.8027
596.1947, 335.3652
596.6768, 334.1621
597.1589, 319.8496
597.6411, 302.7266
598.1232, 302.6152
598.6053, 328.0137
599.0874, 359.6973
599.5695, 370.6641
600.0516, 366.6250
600.5338, 382.3789
601.0159, 425.9961
601.4980, 448.4941
601.9801, 408.6367
602.4622, 331.2324
602.9443, 297.0684
603.4265, 334.7070
603.9086, 357.6602
604.3907, 339.7344
604.8728, 318.4180
605.3549, 330.2383
605.8370, 361.3340
606.3192, 367.1621
606.8013, 321.9785
607.2834, 259.7031
607.7655, 237.4824
608.2476, 254.7051
608.7297, 270.8301
609.2119, 285.0586
609.6940, 286.9199
610.1761, 253.5723
610.6582, 202.8887
611.1403, 196.9473
611.6224, 275.8496
612.1045, 334.4023
612.5866, 334.5508
613.0687, 305.3965
613.5508, 260.7734
614.0330, 212.4512
614.5151, 189.4395
614.9972, 214.4609
615.4793, 260.1602
615.9614, 256.5586
616.4435, 192.6797
616.9257, 146.3379
617.4078, 129.1543
617.8899, 129.9883
618.3720, 153.6074
618.8541, 188.7051
619.3362, 204.0820
619.8184, 184.0195
620.3005, 161.2285
620.7826, 146.6777
621.2647, 140.7930
621.7468, 145.5820
622.2289, 158.5508
622.7111, 171.2949
623.1932, 178.7441
623.6753, 180.7285
624.1574, 174.5918
624.6395, 155.7539
625.1216, 144.8535
625.6038, 150.4902
626.0859, 158.6992
626.5680, 165.2441
627.0501, 167.1680
627.5322, 154.7891
628.0143, 114.0059
628.4965, 78.57031
628.9786, 64.42188
629.4607, 68.05664
629.9428, 94.22461
630.4249, 136.6719
630.9070, 155.3457
631.3892, 114.8770
631.8713, 36.53516
632.3534, 4.498047
632.8355, 35.32031
633.3176, 68.44922
633.7997, 102.6855
634.2819, 132.0996
634.7640, 158.0645
635.2461, 174.4473
635.7282, 164.0312
636.2103, 98.98828
636.6924, 45.06445
637.1746, 61.84766
637.6567, 113.2676
638.1388, 137.9961
638.6209, 127.9434
639.1030, 105.5059
639.5851, 87.14648
640.0673, 70.96484
640.5494, 47.49414
641.0315, 5.492188
641.5136, 15.89844
641.9957, 7.564453
642.4778, 33.46094
642.9600, 35.50781
643.4421, 21.86328
643.9242, 15.25000
644.4063, 25.74219
644.8884, 37.18555
645.3705, 36.24609
645.8527, 30.23633
646.3348, 32.63867
646.8169, 44.38867
647.2990, 54.92383
647.7811, 57.27734
648.2632, 51.65625
648.7454, 35.68359
649.2275, 0.5546880
649.7096, 19.06055
650.1917, 9.572266
650.6738, 11.23828
651.1559, 46.73047
651.6381, 85.10352
652.1202, 100.7461
652.6023, 82.74219
653.0844, 54.32812
653.5665, 17.52734
654.0486, 15.64648
654.5308, 21.68164
655.0129, 4.193359
655.4950, 4.175781
655.9771, 17.96484
656.4592, 50.70117
656.9413, 40.98828
657.4235, 31.13867
657.9056, 68.46680
658.3877, 44.33398
658.8698, 13.94727
659.3519, 6.017578
659.8340, 9.671875
660.3162, 5.898438
660.7983, 11.43945
661.2804, 24.17969
661.7625, 21.93164
662.2446, 11.90039
662.7267, 3.037109
663.2089, 19.05273
663.6910, 23.42773
664.1731, 9.599609
664.6552, 8.470703
665.1373, 5.359375
665.6194, 21.54297
666.1016, 49.48828
666.5837, 90.85156
667.0658, 115.5547
667.5479, 89.15039
668.0300, 47.95117
668.5121, 46.80859
668.9943, 98.73047
669.4764, 134.1211
669.9585, 113.1230
670.4406, 73.45508
670.9227, 41.96289
671.4048, 23.41797
671.8870, 23.25391
672.3691, 42.11719
672.8512, 63.71680
673.3333, 67.41016
673.8154, 54.56250
674.2975, 40.99414
674.7797, 21.67578
675.2618, 22.47852
675.7439, 70.36719
676.2260, 125.8047
676.7081, 132.4531
677.1902, 90.41797
677.6724, 51.06641
678.1545, 12.92969
678.6366, 13.25977
679.1187, 16.73242
679.6008, 6.919922
680.0829, 5.126953
680.5651, 16.79688
681.0472, 31.09570
681.5293, 53.84570
682.0114, 77.96680
682.4935, 80.73047
682.9756, 61.64453
683.4578, 50.26367
683.9399, 57.96484
684.4220, 63.92773
684.9041, 42.25977
685.3862, 4.126953
685.8683, 20.60938
686.3505, 20.20117
686.8326, 50.94922
687.3147, 52.99805
687.7968, 46.49805
688.2789, 41.03906
688.7610, 41.93945
689.2432, 63.51953
689.7253, 124.4727
690.2074, 176.7363
690.6895, 140.9336
691.1716, 44.78711
691.6537, 11.68750
692.1359, 13.29297
692.6180, 3.119141
693.1001, 9.982422
693.5822, 25.36914
694.0643, 22.13477
694.5464, 19.20508
695.0286, 41.70508
695.5107, 23.98438
695.9928, 8.890625
696.4749, 20.08398
696.9570, 44.71484
697.4391, 59.90039
697.9213, 59.02344
698.4034, 57.71094
698.8855, 67.88086
699.3676, 81.90625
699.8497, 91.10547
700.3318, 95.31055
700.8140, 98.30273
701.2961, 101.7539
701.7782, 101.4805
702.2603, 90.44922
702.7424, 68.22461
703.2245, 46.56836
703.7067, 21.10547
704.1888, 5.548828
704.6709, 3.783203
705.1530, 14.47266
705.6351, 46.07031
706.1172, 96.78125
706.5994, 122.0410
707.0815, 85.01367
707.5636, 48.14453
708.0457, 45.23438
708.5278, 63.92383
709.0099, 96.58984
709.4921, 135.1270
709.9742, 154.0938
710.4563, 128.6660
710.9384, 80.58984
711.4205, 64.83008
711.9026, 81.17773
712.3848, 86.77148
712.8669, 71.65234
713.3490, 54.30078
713.8311, 48.87695
714.3132, 51.73047
714.7953, 51.27539
715.2775, 45.14062
715.7596, 40.57227
716.2417, 32.28516
716.7238, 30.92188
717.2059, 50.04102
717.6880, 79.74023
718.1702, 99.17188
718.6523, 99.92969
719.1344, 94.95508
719.6165, 91.32812
720.0986, 92.70312
720.5807, 118.4570
721.0629, 161.1543
721.5450, 162.6836
722.0271, 94.00977
722.5092, 8.091797
722.9913, 13.14648
723.4734, 37.22266
723.9556, 60.89453
724.4377, 41.61523
724.9198, 23.73633
725.4019, 30.21875
725.8840, 36.48242
726.3661, 9.292969
726.8483, 46.21094
727.3304, 67.24219
727.8125, 2.707031
728.2946, 62.72656
728.7767, 84.22266
729.2589, 77.79492
729.7410, 57.37305
730.2231, 30.20508
730.7052, 8.855469
731.1873, 2.332031
731.6694, 6.035156
732.1516, 11.46680
732.6337, 19.03125
733.1158, 34.01953
733.5979, 60.96680
734.0800, 77.55664
734.5621, 63.55078
735.0442, 34.12891
735.5263, 31.05078
736.0084, 71.61133
736.4905, 101.4766
736.9727, 125.4883
737.4548, 135.4902
737.9369, 112.1719
738.4190, 79.85156
738.9011, 73.46680
739.3832, 100.9258
739.8654, 130.3066
740.3475, 145.9062
740.8296, 149.8770
741.3117, 138.0781
741.7938, 117.1621
742.2759, 104.0137
742.7581, 103.4395
743.2402, 110.5938
743.7223, 124.0703
744.2044, 141.6543
744.6865, 132.7578
745.1686, 85.04883
745.6508, 65.01367
746.1329, 104.8281
746.6150, 145.1445
747.0971, 135.0645
747.5792, 88.29297
748.0613, 64.09375
748.5435, 75.17969
749.0256, 93.71680
749.5077, 131.1035
749.9898, 157.4707
750.4719, 144.7695
750.9540, 105.7969
751.4362, 65.02344
751.9183, 32.36523
752.4004, 17.94531
752.8825, 40.77930
753.3646, 80.37695
753.8467, 86.69141
754.3289, 65.93555
754.8110, 71.95898
755.2931, 125.8027
755.7752, 189.4180
756.2573, 219.2422
756.7394, 215.8359
757.2216, 193.4336
757.7037, 138.6719
758.1858, 95.05273
758.6679, 71.12305
759.1500, 61.74023
759.6321, 71.66992
760.1143, 93.16211
760.5964, 99.69141
761.0785, 76.18359
761.5606, 58.46484
762.0427, 55.82617
762.5248, 65.86523
763.0070, 97.15234
763.4891, 138.1484
763.9712, 161.1445
764.4533, 154.5684
764.9354, 142.0918
765.4175, 156.8633
765.8997, 184.5840
766.3818, 178.0039
766.8639, 139.1641
767.3460, 114.9629
767.8281, 124.2109
768.3102, 145.9434
768.7924, 154.1348
769.2745, 149.0801
769.7566, 151.1406
770.2387, 167.6133
770.7208, 176.8203
771.2029, 174.9961
771.6851, 163.7285
772.1672, 135.4121
772.6493, 98.09375
773.1314, 80.22656
773.6135, 103.5781
774.0956, 115.2656
774.5778, 82.80859
775.0599, 42.08984
775.5420, 20.63477
776.0241, 17.67188
776.5062, 24.86328
776.9883, 38.87109
777.4705, 58.24609
777.9526, 91.58984
778.4347, 126.6133
778.9168, 124.8633
779.3989, 90.02148
779.8810, 61.72070
780.3632, 52.13281
780.8453, 51.54688
781.3274, 53.40234
781.8095, 55.91797
782.2916, 59.17188
782.7737, 56.39844
783.2559, 71.58984
783.7380, 133.0547
784.2201, 184.8965
784.7022, 177.9316
785.1843, 133.4297
785.6664, 104.4219
786.1486, 96.41016
786.6307, 91.90820
787.1128, 92.34961
787.5949, 89.67969
788.0770, 68.65234
788.5591, 43.01953
789.0413, 43.61523
789.5234, 77.05664
790.0055, 105.5352
790.4876, 82.69727
790.9697, 46.77734
791.4518, 64.30469
791.9340, 116.4609
792.4161, 147.6387
792.8982, 143.9180
793.3803, 130.0957
793.8624, 128.3672
794.3445, 131.0215
794.8267, 105.0156
795.3088, 38.00391
795.7909, 12.05273
796.2730, 57.76172
796.7551, 98.83789
797.2372, 82.04883
797.7194, 36.75977
798.2015, 31.31641
798.6836, 80.96289
799.1657, 107.6074
799.6478, 82.54102
800.1299, 61.08594
800.6121, 72.51172
801.0942, 94.67969
801.5763, 100.0820
802.0584, 87.73438
802.5405, 79.29883
803.0226, 102.0469
803.5048, 111.1426
803.9869, 35.49023
804.4690, 65.83398
804.9511, 87.79297
805.4332, 30.42969
805.9153, 38.01367
806.3975, 81.47266
806.8796, 100.7480
807.3617, 86.25195
807.8438, 43.27148
808.3259, 29.00586
808.8080, 48.10156
809.2902, 65.47266
809.7723, 65.21484
810.2544, 63.09766
810.7365, 84.39453
811.2186, 129.1816
811.7007, 140.3496
812.1829, 89.93945
812.6650, 51.74219
813.1471, 40.13672
813.6292, 39.83984
814.1113, 38.37305
814.5934, 41.05664
815.0756, 68.94141
815.5577, 149.9629
816.0398, 188.0137
816.5219, 98.67383
817.0040, 4.064453
817.4861, 3.878906
817.9683, 60.76172
818.4504, 104.6270
818.9325, 116.0566
819.4146, 112.1367
819.8967, 97.45312
820.3788, 83.54492
820.8610, 93.08008
821.3431, 117.6973
821.8252, 131.7676
822.3073, 130.7793
822.7894, 123.2559
823.2715, 114.8340
823.7537, 105.0938
824.2358, 90.64062
824.7179, 70.33789
825.2000, 63.87695
825.6821, 76.75000
826.1642, 87.27734
826.6464, 85.96680
827.1285, 77.47852
827.6106, 65.33789
828.0927, 47.63477
828.5748, 47.21680
829.0569, 94.24219
829.5391, 117.2324
830.0212, 76.97461
830.5033, 34.70898
830.9854, 43.39648
831.4675, 86.76953
831.9496, 112.3848
832.4318, 103.9277
832.9139, 86.69531
833.3960, 57.70117
833.8781, 37.82617
834.3602, 48.42188
834.8423, 80.57227
835.3245, 123.8164
835.8066, 171.3457
836.2887, 198.9180
836.7708, 178.2500
837.2529, 135.6914
837.7350, 112.8457
838.2172, 105.5898
838.6993, 96.97266
839.1814, 84.34375
839.6635, 76.25000
840.1456, 79.29297
840.6277, 85.41211
841.1099, 68.54492
841.5920, 25.97852
842.0741, 45.84961
842.5562, 152.7031
843.0383, 220.5762
843.5204, 188.1699
844.0026, 117.2734
844.4847, 81.36914
844.9668, 80.70898
845.4489, 72.36719
845.9310, 46.03711
846.4131, 27.92578
846.8953, 33.16016
847.3774, 35.41602
847.8595, 5.191406
848.3416, 36.56641
848.8237, 42.36328
849.3058, 3.806641
849.7880, 47.52930
850.2701, 81.69922
850.7522, 98.25586
851.2343, 81.92188
851.7164, 50.51172
852.1985, 24.00000
852.6807, 7.421875
853.1628, 0.5351560
853.6449, 4.341797
854.1270, 8.111328
854.6091, 70.25391
855.0912, 145.3066
855.5734, 160.6426
856.0555, 122.0000
856.5376, 83.85352
857.0197, 70.42188
857.5018, 69.77539
857.9839, 70.45898
858.4661, 70.58789
858.9481, 54.18555
859.4302, 22.18945
859.9124, 15.68750
860.3945, 47.14258
860.8766, 91.27539
861.3587, 130.8242
861.8408, 160.2676
862.3229, 151.1328
862.8051, 94.36914
863.2872, 56.24219
863.7693, 40.13281
864.2514, 36.81445
864.7335, 48.53125
865.2156, 66.78711
865.6978, 80.67383
866.1799, 90.43555
866.6620, 93.53711
867.1441, 83.49023
867.6262, 75.38672
868.1083, 68.44531
868.5905, 67.61523
869.0726, 83.19336
869.5547, 106.5469
870.0368, 117.4160
870.5189, 110.5430
871.0010, 94.66406
871.4832, 66.34570
871.9653, 37.53906
872.4474, 6.865234
872.9295, 13.62109
873.4116, 0.9082030
873.8937, 46.98633
874.3759, 84.90430
874.8580, 90.25000
875.3401, 76.73047
875.8222, 42.91992
876.3043, 6.921875
876.7864, 8.460938
877.2686, 42.42188
877.7507, 72.88672
878.2328, 84.92773
878.7149, 96.13086
879.1970, 135.2734
879.6791, 186.9277
880.1613, 191.6543
880.6434, 154.1699
881.1255, 126.3242
881.6076, 119.4316
882.0897, 120.6855
882.5718, 121.5781
883.0540, 122.5449
883.5361, 125.4746
884.0182, 131.4062
884.5003, 130.7773
884.9824, 120.0801
885.4645, 114.3613
885.9467, 121.8477
886.4288, 131.7480
886.9109, 131.2734
887.3930, 121.3301
887.8751, 116.0801
888.3572, 124.0547
888.8394, 122.0234
889.3215, 99.06641
889.8036, 75.76953
890.2857, 55.99414
890.7678, 44.28125
891.2499, 53.94531
891.7321, 89.86133
892.2142, 104.8105
892.6963, 78.91016
893.1784, 45.36328
893.6605, 0.7109380
894.1426, 35.62500
894.6248, 35.86719
895.1069, 6.841797
895.5890, 34.78320
896.0711, 89.87305
896.5532, 130.4766
897.0353, 133.5371
897.5175, 122.7461
897.9996, 111.7520
898.4817, 104.6191
898.9638, 110.0000
899.4459, 125.8574
899.9280, 134.5723
900.4102, 123.1914
900.8923, 103.5918
901.3744, 86.26562
901.8565, 71.66797
902.3386, 60.19336
902.8207, 52.06250
903.3029, 45.80664
903.7850, 41.31445
904.2671, 47.79102
904.7492, 85.05469
905.2313, 132.0820
905.7134, 122.7168
906.1956, 65.55469
906.6777, 32.61328
907.1598, 37.80859
907.6419, 45.71680
908.1240, 36.16016
908.6061, 19.89648
909.0883, 12.88477
909.5704, 15.31445
910.0525, 45.76562
910.5346, 111.4922
911.0167, 149.1406
911.4988, 133.8516
911.9810, 109.7578
912.4631, 114.8379
912.9452, 137.4473
913.4273, 135.0781
913.9094, 98.44336
914.3915, 65.56055
914.8737, 27.62500
915.3558, 13.54883
915.8379, 50.48438
916.3200, 98.53906
916.8021, 107.8926
917.2842, 82.83398
917.7664, 76.84570
918.2485, 113.8379
918.7306, 128.4746
919.2127, 95.61328
919.6948, 68.14844
920.1769, 75.27734
920.6591, 101.2207
921.1412, 127.9863
921.6233, 155.2500
922.1054, 160.5430
922.5875, 125.7402
923.0696, 87.44141
923.5518, 37.78711
924.0339, 5.755859
924.5160, 28.38086
924.9981, 82.60742
925.4802, 110.6660
925.9623, 93.77539
926.4445, 95.29883
926.9266, 180.1641
927.4087, 248.7207
927.8908, 215.7832
928.3729, 145.5098
928.8550, 120.3789
929.3372, 136.0430
929.8193, 132.8828
930.3014, 80.23242
930.7835, 31.90820
931.2656, 27.65820
931.7477, 47.66797
932.2299, 84.94141
932.7120, 125.2441
933.1941, 139.2930
933.6762, 127.0840
934.1583, 125.2988
934.6404, 164.1758
935.1226, 202.5469
935.6047, 179.0293
936.0868, 129.4336
936.5689, 125.9453
937.0510, 156.5703
937.5331, 164.0156
938.0153, 131.3066
938.4974, 85.84961
938.9795, 45.11523
939.4616, 17.54688
939.9437, 27.76953
940.4258, 63.72656
940.9080, 86.26562
941.3901, 92.13086
941.8722, 93.60742
942.3543, 96.09570
942.8364, 89.59961
943.3185, 55.11523
943.8007, 7.005859
944.2828, 4.638672
944.7649, 42.82617
945.2470, 63.86719
945.7291, 58.78320
946.2112, 48.37891
946.6934, 43.55078
947.1755, 44.41797
947.6576, 52.00391
948.1397, 65.78516
948.6218, 79.94141
949.1039, 94.46875
949.5861, 110.9512
950.0682, 131.5879
950.5503, 142.2969
951.0324, 131.7305
951.5145, 108.9746
951.9966, 92.70703
952.4788, 84.40234
952.9609, 78.82812
953.4430, 75.25977
953.9251, 76.57422
954.4072, 86.46289
954.8893, 90.89062
955.3715, 74.37305
955.8536, 46.75781
956.3357, 41.95508
956.8178, 68.02734
957.2999, 79.33203
957.7820, 68.73047
958.2642, 59.43359
958.7463, 58.24805
959.2284, 61.73633
959.7105, 68.72852
960.1926, 77.50391
960.6747, 80.21289
961.1569, 73.81250
961.6390, 64.43750
962.1211, 45.21289
962.6032, 35.06445
963.0853, 45.49805
963.5674, 63.66797
964.0496, 77.30859
964.5317, 86.49609
965.0138, 94.46680
965.4959, 97.86328
965.9780, 105.3535
966.4601, 141.9727
966.9423, 152.9453
967.4244, 86.26172
967.9065, 3.164063
968.3886, 21.83398
968.8707, 9.107422
969.3528, 38.26367
969.8350, 61.95508
970.3171, 84.45508
970.7992, 110.2578
971.2813, 130.4277
971.7634, 142.9902
972.2455, 145.9434
972.7277, 137.3203
973.2098, 116.9336
973.6919, 83.65625
974.1740, 13.83203
974.6561, 34.91797
975.1382, 48.92969
975.6204, 41.03906
976.1025, 4.093750
976.5846, 42.30273
977.0667, 66.55664
977.5488, 65.76758
978.0309, 75.52539
978.5131, 125.9453
978.9952, 157.1953
979.4773, 141.6484
979.9594, 111.8535
980.4415, 77.47266
980.9236, 50.34375
981.4058, 53.61523
981.8878, 90.41211
982.3699, 113.0488
982.8521, 98.93945
983.3342, 84.23242
983.8163, 74.73828
984.2984, 70.41406
984.7805, 73.11914
985.2626, 76.90039
985.7448, 67.77148
986.2269, 42.70508
986.7090, 30.75000
987.1911, 54.65430
987.6732, 77.73242
988.1553, 87.30273
988.6375, 86.63672
989.1196, 70.46094
989.6017, 49.18750
990.0838, 42.64648
990.5659, 55.19727
991.0480, 71.09766
991.5302, 100.1934
992.0123, 111.0586
992.4944, 65.49609
992.9765, 16.33984
993.4586, 7.113281
993.9407, 29.02734
994.4229, 58.60938
994.9050, 90.63477
995.3871, 113.4590
995.8692, 112.8477
996.3513, 113.5195
996.8334, 141.3184
997.3156, 165.3594
997.7977, 148.9160
998.2798, 107.0488
998.7619, 76.48633
999.2440, 66.04297
999.7261, 58.79297
1000.208, 44.10742
1000.690, 34.38867
1001.172, 34.90039
1001.655, 44.84180
1002.137, 68.25391
1002.619, 98.97070
1003.101, 130.5254
1003.583, 161.3633
1004.065, 167.3125
1004.547, 113.9844
1005.029, 62.35938
1005.512, 44.76367
1005.994, 43.37891
1006.476, 41.67578
1006.958, 41.93359
1007.440, 60.30469
1007.922, 100.2422
1008.404, 113.8047
1008.886, 51.05664
1009.368, 6.589844
1009.851, 12.14453
1010.333, 0.7109380
1010.815, 1.054688
1011.297, 4.082031
1011.779, 10.99023
1012.261, 50.96289
1012.743, 71.91602
1013.225, 18.85938
1013.708, 9.015625
1014.190, 79.45312
1014.672, 170.6367
1015.154, 153.5195
1015.636, 73.80273
1016.118, 27.65820
1016.600, 31.95312
1017.082, 35.02930
1017.564, 9.925781
1018.047, 8.785156
1018.529, 4.626953
1019.011, 8.453125
1019.493, 28.03125
1019.975, 45.10938
1020.457, 40.91992
1020.939, 14.50195
1021.421, 2.652344
1021.904, 31.23438
1022.386, 55.68359
1022.868, 53.57617
1023.350, 50.68750
1023.832, 74.07812
1024.314, 102.9512
1024.796, 96.59570
1025.278, 55.04688
1025.760, 40.27344
1026.243, 109.1719
1026.725, 144.7598
1027.207, 80.33789
1027.689, 16.33594
1028.171, 19.55273
1028.653, 52.13281
1029.135, 60.46094
1029.617, 43.67969
1030.099, 39.18750
1030.582, 62.24609
1031.064, 80.96484
1031.546, 98.25195
1032.028, 101.0449
1032.510, 65.96680
1032.992, 23.24805
1033.474, 9.414063
1033.956, 23.04883
1034.439, 35.16016
1034.921, 48.04492
1035.403, 50.57031
1035.885, 29.60547
1036.367, 13.75977
1036.849, 18.43555
1037.331, 28.57031
1037.813, 29.34570
1038.296, 22.94336
1038.778, 20.60938
1039.260, 31.29492
1039.742, 24.05273
1040.224, 34.66016
1040.706, 59.28125
1041.188, 6.105469
1041.670, 75.37109
1042.152, 71.35742
1042.635, 20.23438
1043.117, 4.8827998E-02
1043.599, 20.27539
1044.081, 31.70898
1044.563, 31.03516
1045.045, 26.93164
1045.527, 12.32422
1046.009, 11.92578
1046.491, 50.33398
1046.974, 107.4707
1047.456, 142.3164
1047.938, 154.2246
1048.420, 150.0723
1048.902, 128.9199
1049.384, 90.09570
1049.866, 20.75000
1050.348, 24.27539
1050.830, 6.037109
1051.313, 37.98242
1051.795, 47.20703
1052.277, 24.66406
1052.759, 13.12695
1053.241, 12.26367
1053.723, 28.50977
1054.205, 66.13477
1054.687, 94.67188
1055.170, 99.22656
1055.652, 91.71094
1056.134, 86.85547
1056.616, 81.89844
1057.098, 56.79492
1057.580, 15.67969
1058.062, 26.45508
1058.544, 89.37891
1059.026, 120.1113
1059.509, 86.38477
1059.991, 49.85742
1060.473, 70.92969
1060.955, 119.2285
1061.437, 113.3027
1061.919, 69.14062
1062.401, 62.70117
1062.883, 90.50000
1063.365, 109.2285
1063.848, 107.5781
1064.330, 96.49609
1064.812, 81.62109
1065.294, 72.37891
1065.776, 86.75391
1066.258, 113.9785
1066.740, 140.2129
1067.222, 157.7676
1067.705, 137.8008
1068.187, 88.31250
1068.669, 66.24805
1069.151, 101.1270
1069.633, 137.7969
1070.115, 105.2266
1070.597, 60.31445
1071.079, 83.38477
1071.562, 133.1562
1072.044, 141.0547
1072.526, 114.6133
1073.008, 106.8086
1073.490, 133.7852
1073.972, 156.4238
1074.454, 148.1680
1074.936, 128.6250
1075.418, 103.6719
1075.901, 80.35547
1076.383, 68.36133
1076.865, 64.37695
1077.347, 58.64844
1077.829, 50.82227
1078.311, 53.65430
1078.793, 82.30664
1079.275, 103.6191
1079.757, 103.2988
1080.240, 94.98047
1080.722, 86.00977
1081.204, 74.32812
1081.686, 47.02734
1082.168, 12.40430
1082.650, 12.55273
1083.132, 75.67578
1083.614, 118.4434
1084.097, 131.2812
1084.579, 125.1914
1085.061, 84.70898
1085.543, 44.56836
1086.025, 34.97461
1086.507, 43.17188
1086.989, 34.19531
1087.471, 1.359375
1087.953, 9.550781
1088.436, 101.3438
1088.918, 156.6816
1089.400, 147.8496
1089.882, 118.3984
1090.364, 83.93945
1090.846, 57.41016
1091.328, 63.18164
1091.810, 96.25391
1092.292, 109.1934
1092.775, 99.46094
1093.257, 94.84961
1093.739, 98.09961
1094.221, 103.8691
1094.703, 110.4844
1095.185, 115.8086
1095.667, 118.1816
1096.149, 116.6953
1096.632, 109.9688
1097.114, 97.56250
1097.596, 71.94141
1098.078, 34.36914
1098.560, 8.419922
1099.042, 4.138672
1099.524, 9.166016
1100.006, 18.85547
1100.489, 29.26367
1100.971, 33.78125
1101.453, 36.97656
1101.935, 52.65430
1102.417, 69.79102
1102.899, 58.83398
1103.381, 28.17188
1103.863, 17.36914
1104.345, 41.25000
1104.828, 60.04492
1105.310, 33.78516
1105.792, 8.398438
1106.274, 32.84961
1106.756, 64.91602
1107.238, 50.93164
1107.720, 18.78516
1108.202, 26.59180
1108.684, 78.40234
1109.167, 118.4316
1109.649, 124.3555
1110.131, 126.1836
1110.613, 125.9492
1111.095, 133.2324
1111.577, 159.8086
1112.059, 189.9453
1112.541, 222.4180
1113.024, 244.4102
1113.506, 215.5234
1113.988, 116.2773
1114.470, 40.62891
1114.952, 19.49023
1115.434, 39.38867
1115.916, 6.765625
1116.398, 56.01758
1116.880, 81.58203
1117.363, 81.42773
1117.845, 42.14844
1118.327, 24.51758
1118.809, 16.06055
1119.291, 83.42773
1119.773, 124.3828
1120.255, 91.33984
1120.737, 57.82617
1121.219, 46.64453
1121.702, 52.91016
1122.184, 74.96484
1122.666, 101.5195
1123.148, 111.4570
1123.630, 107.0020
1124.112, 88.62695
1124.594, 63.47461
1125.076, 65.14258
1125.559, 93.73242
1126.041, 116.2441
1126.523, 118.0078
1127.005, 123.1641
1127.487, 175.9004
1127.969, 216.7578
1128.451, 146.5195
1128.933, 42.05664
1129.416, 3.154297
1129.898, 6.837891
1130.380, 64.39258
1130.862, 152.1367
1131.344, 193.5742
1131.826, 134.5566
1132.308, 80.36914
1132.790, 85.91211
1133.272, 100.7285
1133.755, 102.3418
1134.237, 94.54102
1134.719, 77.27148
1135.201, 55.64062
1135.683, 39.48828
1136.165, 27.18164
1136.647, 35.50781
1137.129, 93.86328
1137.611, 119.6289
1138.094, 84.92578
1138.576, 48.73242
1139.058, 40.18945
1139.540, 39.61328
1140.022, 19.19727
1140.504, 10.54102
1140.986, 7.470703
1141.468, 78.80078
1141.951, 109.4609
1142.433, 94.40234
1142.915, 81.74219
1143.397, 83.73242
1143.879, 91.60547
1144.361, 100.1055
1144.843, 107.6172
1145.325, 116.0801
1145.807, 119.2285
1146.290, 92.77930
1146.772, 49.36328
1147.254, 14.31445
1147.736, 6.240234
1148.218, 0.4199220
1148.700, 33.82812
1149.182, 58.52930
1149.664, 48.15430
1150.146, 31.69336
1150.629, 29.49023
1151.111, 32.31836
1151.593, 27.77539
1152.075, 26.67383
1152.557, 55.06250
1153.039, 98.87109
1153.521, 105.1289
1154.003, 53.79688
1154.486, 24.98438
1154.968, 60.19336
1155.450, 79.42383
1155.932, 36.48242
1156.414, 11.71875
1156.896, 64.59375
1157.378, 132.7109
1157.860, 136.0781
1158.343, 87.08398
1158.825, 58.91406
1159.307, 57.55273
1159.789, 32.15820
1160.271, 24.87891
1160.753, 44.89844
1161.235, 8.763672
1161.717, 40.17188
1162.199, 76.15625
1162.682, 92.30273
1163.164, 70.61719
1163.646, 27.53320
1164.128, 2.062500
1164.610, 16.90430
1165.092, 8.035156
1165.574, 17.98438
1166.056, 41.08398
1166.538, 55.32422
1167.021, 64.40625
1167.503, 69.68945
1167.985, 72.76367
1168.467, 76.41602
1168.949, 76.48438
1169.431, 56.28516
1169.913, 41.74609
1170.395, 78.43750
1170.877, 140.0352
1171.360, 153.6133
1171.842, 104.6445
1172.324, 69.09961
1172.806, 60.90039
1173.288, 55.36133
1173.770, 60.01367
1174.252, 58.04883
1174.734, 39.07812
1175.217, 19.63086
1175.699, 13.89844
1176.181, 19.74414
1176.663, 46.01758
1177.145, 93.41797
1177.627, 86.56641
1178.109, 28.53320
1178.591, 13.16992
1179.073, 51.96875
1179.556, 77.10156
1180.038, 58.83203
1180.520, 34.52344
1181.002, 37.70312
1181.484, 56.88867
1181.966, 92.64844
1182.448, 123.0762
1182.930, 91.41406
1183.412, 36.50000
1183.895, 34.34180
1184.377, 80.88867
1184.859, 118.8926
1185.341, 131.6055
1185.823, 123.5879
1186.305, 75.49805
1186.787, 36.40234
1187.269, 31.55078
1187.752, 31.99219
1188.234, 10.12695
1188.716, 9.904297
1189.198, 9.035156
1189.680, 55.15625
1190.162, 68.43945
1190.644, 36.53320
1191.126, 31.88867
1191.609, 59.81445
1192.091, 81.69141
1192.573, 89.53711
1193.055, 86.83984
1193.537, 76.25195
1194.019, 78.13672
1194.501, 129.7598
1194.983, 189.8984
1195.465, 151.2168
1195.948, 64.29102
1196.430, 44.28711
1196.912, 71.73828
1197.394, 82.13086
1197.876, 68.34570
1198.358, 70.99414
1198.840, 109.9258
1199.322, 132.6016
1199.804, 90.19141
1200.287, 51.23828
1200.769, 52.90430
1201.251, 66.72852
1201.733, 74.50586
1202.215, 79.89648
1202.697, 95.31836
1203.179, 109.5684
1203.661, 101.5664
1204.144, 49.71094
1204.626, 40.12500
1205.108, 87.45117
1205.590, 103.0254
1206.072, 62.23438
1206.554, 33.75391
1207.036, 56.45312
1207.518, 86.62500
1208.000, 66.48828
1208.483, 31.31055
1208.965, 73.83398
1209.447, 153.9492
1209.929, 178.8516
1210.411, 158.0938
1210.893, 118.8633
1211.375, 75.48438
1211.857, 51.90820
1212.339, 57.66406
1212.822, 73.89844
1213.304, 110.0156
1213.786, 127.3828
1214.268, 90.24414
1214.750, 48.98633
1215.232, 37.74805
1215.714, 39.53125
1216.196, 23.41211
1216.679, 3.058594
1217.161, 33.65820
1217.643, 132.3594
1218.125, 171.8789
1218.607, 142.6133
1219.089, 107.0645
1219.571, 73.68359
1220.053, 41.99609
1220.536, 11.08789
1221.018, 3.681641
1221.500, 47.77148
1221.982, 103.7012
1222.464, 100.9844
1222.946, 70.58594
1223.428, 61.30078
1223.910, 68.91602
1224.392, 86.52930
1224.875, 108.9043
1225.357, 129.7656
1225.839, 146.9219
1226.321, 150.3984
1226.803, 118.7148
1227.285, 101.4004
1227.767, 127.1680
1228.249, 148.6465
1228.731, 150.6484
1229.214, 134.9570
1229.696, 89.41211
1230.178, 42.21094
1230.660, 53.82227
1231.142, 116.6484
1231.624, 140.3047
1232.106, 125.8359
1232.588, 131.7148
1233.071, 159.1055
1233.553, 162.3145
1234.035, 132.6191
1234.517, 116.7129
1234.999, 144.7891
1235.481, 168.7617
1235.963, 124.9043
1236.445, 72.54102
1236.927, 69.54883
1237.410, 87.88086
1237.892, 115.7656
1238.374, 132.8711
1238.856, 94.27930
1239.338, 12.46875
1239.820, 18.35547
1240.302, 32.37109
1240.784, 78.51367
1241.266, 130.9766
1241.749, 147.2168
1242.231, 106.1016
1242.713, 38.41211
1243.195, 52.95508
1243.677, 74.39062
1244.159, 66.07422
1244.641, 37.43164
1245.123, 0.0000000E+00
##END=



