##NAMES=Cebaite-(Ce)
##RRUFFID=R060248
##IDEAL CHEMISTRY=Ba_3_Ce_2_(CO_3_)_5_F_2_
##LOCALITY=Baiyun-Obo mine, Inner Mongolia, China
##OWNER=RRUFF
##SOURCE=William W. Pinch
##DESCRIPTION=Gemmy yellow to orange-yellow massive; some cleavage evident, associated with green aegirine
##STATUS=The identification of this mineral is confirmed by single-crystal X-ray diffraction and chemical analysis.
##URL=rruff.info/R060248
##MEASURED CHEMISTRY=(Ba_2.95_Sr_0.02_Ca_0.01_)_Σ=2.98_(Ce_0.98_La_0.60_Nd_0.27_Pr_0.10_)_Σ=1.95_(CO_3_)_5.01_F_2.16_
91.18097, 0.0000000E+00
91.66309, 2497.830
92.14520, 2602.786
92.62732, 2639.450
93.10944, 2499.969
93.59155, 2362.564
94.07367, 2404.124
94.55579, 2630.403
95.03790, 2852.736
95.52002, 2853.770
96.00214, 2571.456
96.48425, 2380.723
96.96637, 2415.154
97.44849, 2506.368
97.93060, 2545.659
98.41272, 2490.805
98.89484, 2376.570
99.37695, 2298.315
99.85907, 2280.709
100.3412, 2268.560
100.8233, 2243.259
101.3054, 2220.612
101.7875, 2227.696
102.2697, 2285.268
102.7518, 2389.121
103.2339, 2446.283
103.7160, 2433.171
104.1981, 2411.105
104.6802, 2394.211
105.1624, 2387.130
105.6445, 2404.936
106.1266, 2477.381
106.6087, 2601.540
107.0908, 2663.536
107.5729, 2615.391
108.0551, 2518.650
108.5372, 2445.594
109.0193, 2407.648
109.5014, 2386.471
109.9835, 2355.897
110.4656, 2321.155
110.9478, 2314.457
111.4299, 2367.333
111.9120, 2471.568
112.3941, 2566.720
112.8762, 2679.527
113.3583, 2743.864
113.8405, 2691.447
114.3226, 2531.371
114.8047, 2362.498
115.2868, 2308.846
115.7689, 2420.079
116.2510, 2500.463
116.7332, 2496.416
117.2153, 2484.216
117.6974, 2526.464
118.1795, 2640.080
118.6616, 2783.477
119.1437, 2859.993
119.6259, 2794.577
120.1080, 2745.657
120.5901, 2721.114
121.0722, 2715.543
121.5543, 2721.647
122.0364, 2735.519
122.5186, 2758.178
123.0007, 2796.932
123.4828, 2872.509
123.9649, 2938.893
124.4470, 2982.037
124.9291, 3002.868
125.4113, 3005.786
125.8934, 2991.865
126.3755, 2959.844
126.8576, 2917.829
127.3397, 2817.640
127.8218, 2735.799
128.3040, 2775.541
128.7861, 2963.615
129.2682, 3129.423
129.7503, 3105.255
130.2324, 2976.548
130.7145, 2874.010
131.1967, 2852.656
131.6788, 2896.018
132.1609, 2957.460
132.6430, 3052.460
133.1251, 3145.309
133.6072, 3217.669
134.0894, 3274.897
134.5715, 3330.100
135.0536, 3400.003
135.5357, 3488.797
136.0178, 3541.336
136.4999, 3533.207
136.9821, 3507.171
137.4642, 3452.938
137.9463, 3385.075
138.4284, 3345.700
138.9105, 3393.927
139.3926, 3593.970
139.8748, 3707.883
140.3569, 3677.577
140.8390, 3618.545
141.3211, 3608.296
141.8032, 3665.221
142.2853, 3755.680
142.7675, 3825.581
143.2496, 3865.592
143.7317, 3899.797
144.2138, 3921.987
144.6959, 3940.993
145.1780, 3970.863
145.6602, 4018.678
146.1423, 4072.310
146.6244, 4103.057
147.1065, 4103.220
147.5886, 4109.186
148.0707, 4140.067
148.5529, 4189.521
149.0350, 4233.760
149.5171, 4257.096
149.9992, 4276.716
150.4813, 4317.099
150.9634, 4381.004
151.4456, 4459.619
151.9277, 4557.228
152.4098, 4678.383
152.8919, 4775.462
153.3740, 4807.287
153.8561, 4815.313
154.3383, 4831.972
154.8204, 4868.427
155.3025, 4909.587
155.7846, 4922.733
156.2667, 4879.483
156.7488, 4872.641
157.2310, 4937.744
157.7131, 5039.856
158.1952, 5148.446
158.6773, 5249.418
159.1594, 5343.330
159.6415, 5430.941
160.1237, 5488.534
160.6058, 5570.474
161.0879, 5709.773
161.5700, 5873.820
162.0521, 6014.771
162.5342, 6099.915
163.0164, 6134.467
163.4985, 6191.106
163.9806, 6282.498
164.4627, 6381.135
164.9448, 6497.050
165.4269, 6616.866
165.9091, 6705.869
166.3912, 6732.944
166.8733, 6696.296
167.3554, 6693.468
167.8375, 6725.660
168.3196, 6783.885
168.8018, 6878.835
169.2839, 7005.141
169.7660, 7123.508
170.2481, 7197.775
170.7302, 7227.872
171.2123, 7264.153
171.6945, 7313.095
172.1766, 7366.682
172.6587, 7412.776
173.1408, 7448.181
173.6229, 7492.636
174.1050, 7572.566
174.5872, 7677.553
175.0693, 7782.038
175.5514, 7880.960
176.0335, 7974.474
176.5156, 8059.701
176.9977, 8131.521
177.4799, 8206.867
177.9620, 8311.842
178.4441, 8431.754
178.9262, 8526.996
179.4083, 8559.694
179.8904, 8541.201
180.3726, 8545.339
180.8547, 8587.613
181.3368, 8637.582
181.8189, 8679.922
182.3010, 8716.947
182.7831, 8755.875
183.2653, 8799.783
183.7474, 8847.938
184.2295, 8912.442
184.7116, 9010.242
185.1937, 9111.667
185.6758, 9210.751
186.1580, 9305.039
186.6401, 9392.405
187.1222, 9471.088
187.6043, 9541.554
188.0864, 9599.768
188.5685, 9648.428
189.0507, 9684.895
189.5328, 9698.105
190.0149, 9692.845
190.4970, 9689.081
190.9791, 9710.293
191.4612, 9763.801
191.9434, 9823.603
192.4255, 9897.640
192.9076, 9971.199
193.3897, 10031.16
193.8718, 10076.47
194.3539, 10119.73
194.8361, 10175.84
195.3182, 10247.92
195.8003, 10330.79
196.2824, 10445.53
196.7645, 10560.12
197.2466, 10635.39
197.7288, 10662.00
198.2109, 10679.18
198.6930, 10743.49
199.1751, 10861.72
199.6572, 10973.78
200.1393, 11068.46
200.6215, 11151.89
201.1036, 11233.27
201.5857, 11315.47
202.0678, 11394.29
202.5499, 11447.68
203.0320, 11476.02
203.5142, 11551.38
203.9963, 11757.16
204.4784, 12028.06
204.9605, 12192.31
205.4426, 12173.40
205.9247, 12120.11
206.4069, 12183.06
206.8890, 12348.67
207.3711, 12529.67
207.8532, 12684.98
208.3353, 12817.63
208.8174, 12934.36
209.2996, 13007.97
209.7817, 13102.38
210.2638, 13271.46
210.7459, 13504.30
211.2280, 13741.05
211.7101, 13939.06
212.1923, 14098.76
212.6744, 14250.31
213.1565, 14402.31
213.6386, 14536.59
214.1207, 14618.35
214.6028, 14663.49
215.0850, 14737.17
215.5671, 14919.76
216.0492, 15232.11
216.5313, 15489.08
217.0134, 15608.53
217.4955, 15736.73
217.9777, 15942.68
218.4598, 16217.33
218.9419, 16505.13
219.4240, 16746.84
219.9061, 16931.03
220.3882, 17126.46
220.8704, 17361.88
221.3525, 17584.92
221.8346, 17751.39
222.3167, 17874.60
222.7988, 18011.96
223.2809, 18227.17
223.7631, 18543.45
224.2452, 18845.87
224.7273, 19148.69
225.2094, 19427.79
225.6915, 19645.74
226.1736, 19816.78
226.6558, 20004.77
227.1379, 20286.99
227.6200, 20703.84
228.1021, 21019.80
228.5842, 21149.68
229.0663, 21265.55
229.5485, 21468.23
230.0306, 21759.16
230.5127, 22073.15
230.9948, 22339.13
231.4769, 22540.80
231.9590, 22805.26
232.4412, 23189.78
232.9233, 23585.42
233.4054, 23929.11
233.8875, 24214.07
234.3696, 24465.91
234.8517, 24697.95
235.3339, 24907.53
235.8160, 25142.15
236.2981, 25420.83
236.7802, 25709.90
237.2623, 25986.16
237.7444, 26246.55
238.2266, 26499.32
238.7087, 26754.17
239.1908, 27007.10
239.6729, 27237.54
240.1550, 27428.44
240.6371, 27605.81
241.1193, 27773.19
241.6014, 27932.75
242.0835, 28130.06
242.5656, 28416.89
243.0477, 28775.40
243.5298, 29124.19
244.0120, 29495.88
244.4941, 29828.46
244.9762, 30030.11
245.4583, 30093.83
245.9404, 30174.80
246.4225, 30384.42
246.9047, 30683.99
247.3868, 30990.25
247.8689, 31330.91
248.3510, 31641.68
248.8331, 31825.11
249.3152, 31866.42
249.7974, 31929.63
250.2795, 32127.73
250.7616, 32395.39
251.2437, 32647.51
251.7258, 32882.18
252.2079, 33076.60
252.6901, 33189.89
253.1722, 33210.43
253.6543, 33232.30
254.1364, 33300.48
254.6185, 33389.23
255.1006, 33481.62
255.5828, 33580.77
256.0649, 33662.64
256.5470, 33684.36
257.0291, 33633.53
257.5112, 33601.00
257.9933, 33617.97
258.4755, 33667.77
258.9576, 33745.56
259.4397, 33851.05
259.9218, 33974.19
260.4039, 34125.93
260.8860, 34325.34
261.3682, 34443.75
261.8503, 34344.55
262.3324, 34217.62
262.8145, 34190.86
263.2966, 34284.61
263.7787, 34405.54
264.2609, 34433.02
264.7430, 34340.45
265.2251, 34303.51
265.7072, 34434.37
266.1893, 34565.23
266.6714, 34604.37
267.1536, 34546.04
267.6357, 34450.17
268.1178, 34369.82
268.5999, 34303.29
269.0820, 34264.88
269.5641, 34306.11
270.0463, 34335.71
270.5284, 34307.57
271.0105, 34226.19
271.4926, 34128.52
271.9747, 34045.74
272.4568, 33977.72
272.9390, 33922.86
273.4211, 33926.60
273.9032, 33902.50
274.3853, 33801.07
274.8674, 33640.97
275.3495, 33477.86
275.8317, 33353.00
276.3138, 33266.91
276.7959, 33206.79
277.2780, 33252.98
277.7601, 33247.00
278.2422, 33102.70
278.7244, 32874.19
279.2065, 32673.70
279.6886, 32586.31
280.1707, 32596.64
280.6528, 32544.71
281.1349, 32355.54
281.6171, 32179.70
282.0992, 32067.61
282.5813, 31983.40
283.0634, 31872.99
283.5455, 31705.68
284.0276, 31488.44
284.5098, 31249.80
284.9919, 30912.73
285.4740, 30653.48
285.9561, 30552.59
286.4382, 30518.70
286.9203, 30448.06
287.4025, 30293.71
287.8846, 30078.81
288.3667, 29863.47
288.8488, 29636.37
289.3309, 29425.97
289.8130, 29251.27
290.2952, 29085.13
290.7773, 28898.20
291.2594, 28682.71
291.7415, 28455.46
292.2236, 28252.69
292.7057, 28138.08
293.1879, 27935.47
293.6700, 27561.38
294.1521, 27165.57
294.6342, 26880.45
295.1163, 26721.57
295.5984, 26588.21
296.0806, 26339.01
296.5627, 25902.04
297.0448, 25559.62
297.5269, 25386.49
298.0090, 25230.55
298.4911, 24998.71
298.9733, 24690.71
299.4554, 24366.76
299.9375, 24085.68
300.4196, 23852.55
300.9017, 23628.37
301.3839, 23419.14
301.8660, 23210.73
302.3481, 22980.83
302.8302, 22743.24
303.3123, 22537.63
303.7944, 22399.95
304.2766, 22326.74
304.7587, 22185.45
305.2408, 21913.85
305.7229, 21645.28
306.2050, 21422.55
306.6871, 21226.74
307.1693, 21016.63
307.6514, 20767.15
308.1335, 20492.09
308.6156, 20262.04
309.0977, 20125.59
309.5798, 19978.63
310.0620, 19807.98
310.5441, 19621.49
311.0262, 19431.38
311.5083, 19241.97
311.9904, 19047.22
312.4725, 18834.52
312.9547, 18550.98
313.4368, 18322.07
313.9189, 18178.05
314.4010, 18068.03
314.8831, 17959.05
315.3652, 17839.12
315.8474, 17695.17
316.3295, 17503.55
316.8116, 17220.75
317.2937, 17006.55
317.7758, 16913.83
318.2579, 16837.72
318.7401, 16706.16
319.2222, 16520.75
319.7043, 16336.16
320.1864, 16208.23
320.6685, 16147.01
321.1506, 16062.46
321.6328, 15936.72
322.1149, 15809.65
322.5970, 15700.17
323.0791, 15602.11
323.5612, 15498.36
324.0433, 15375.28
324.5255, 15235.03
325.0076, 15101.55
325.4897, 14964.63
325.9718, 14845.78
326.4539, 14767.18
326.9360, 14703.99
327.4182, 14611.33
327.9003, 14465.90
328.3824, 14300.02
328.8645, 14205.66
329.3466, 14264.60
329.8287, 14288.53
330.3109, 14241.59
330.7930, 14172.99
331.2751, 14131.28
331.7572, 14128.95
332.2393, 14140.32
332.7214, 14129.06
333.2036, 14103.86
333.6857, 14030.09
334.1678, 13854.80
334.6499, 13681.44
335.1320, 13570.55
335.6141, 13526.86
336.0963, 13528.39
336.5784, 13564.77
337.0605, 13649.24
337.5426, 13652.92
338.0247, 13506.38
338.5068, 13352.26
338.9890, 13232.33
339.4711, 13142.41
339.9532, 13061.43
340.4353, 12972.04
340.9174, 12882.43
341.3995, 12844.86
341.8817, 12906.31
342.3638, 12967.48
342.8459, 13046.77
343.3280, 13105.63
343.8101, 13082.85
344.2922, 12952.54
344.7744, 12777.08
345.2565, 12698.26
345.7386, 12785.95
346.2207, 12836.29
346.7028, 12812.13
347.1849, 12766.64
347.6671, 12739.08
348.1492, 12735.80
348.6313, 12736.96
349.1134, 12713.43
349.5955, 12653.70
350.0776, 12620.88
350.5598, 12639.96
351.0419, 12664.17
351.5240, 12691.45
352.0061, 12709.72
352.4882, 12688.99
352.9703, 12586.15
353.4525, 12417.64
353.9346, 12362.18
354.4167, 12533.26
354.8988, 12669.04
355.3809, 12678.33
355.8630, 12613.99
356.3452, 12544.75
356.8273, 12500.48
357.3094, 12475.76
357.7915, 12461.58
358.2736, 12464.22
358.7557, 12461.28
359.2379, 12440.05
359.7200, 12416.38
360.2021, 12400.97
360.6842, 12396.30
361.1663, 12400.65
361.6484, 12413.65
362.1306, 12435.78
362.6127, 12460.71
363.0948, 12499.65
363.5769, 12528.91
364.0590, 12535.92
364.5411, 12521.95
365.0233, 12494.36
365.5054, 12440.96
365.9875, 12374.90
366.4696, 12362.52
366.9517, 12437.77
367.4338, 12500.03
367.9160, 12479.63
368.3981, 12418.47
368.8802, 12384.69
369.3623, 12424.65
369.8444, 12469.11
370.3265, 12388.62
370.8087, 12161.75
371.2908, 11997.61
371.7729, 12007.69
372.2550, 12100.40
372.7371, 12190.20
373.2192, 12271.97
373.7014, 12330.53
374.1835, 12355.04
374.6656, 12346.82
375.1477, 12301.89
375.6298, 12194.02
376.1119, 12093.67
376.5941, 12076.13
377.0762, 12128.67
377.5583, 12189.50
378.0404, 12258.80
378.5225, 12314.12
379.0046, 12304.12
379.4868, 12218.39
379.9689, 12150.98
380.4510, 12183.34
380.9331, 12282.69
381.4152, 12344.67
381.8973, 12363.23
382.3795, 12341.22
382.8616, 12244.79
383.3437, 12098.64
383.8258, 12005.73
384.3079, 12015.15
384.7900, 12087.59
385.2722, 12153.77
385.7543, 12222.69
386.2364, 12261.12
386.7185, 12232.94
387.2006, 12180.01
387.6827, 12155.13
388.1649, 12169.01
388.6470, 12208.03
389.1291, 12269.66
389.6112, 12360.04
390.0933, 12387.14
390.5754, 12271.17
391.0576, 12163.05
391.5397, 12171.08
392.0218, 12271.22
392.5039, 12368.07
392.9860, 12403.46
393.4681, 12390.32
393.9503, 12389.25
394.4324, 12388.69
394.9145, 12413.38
395.3966, 12499.72
395.8787, 12599.89
396.3608, 12660.01
396.8430, 12663.05
397.3251, 12622.85
397.8072, 12553.30
398.2893, 12419.35
398.7714, 12355.13
399.2535, 12417.43
399.7357, 12489.07
400.2178, 12494.98
400.6999, 12446.89
401.1820, 12404.72
401.6641, 12415.28
402.1462, 12474.89
402.6284, 12535.74
403.1105, 12630.70
403.5926, 12684.93
404.0747, 12652.31
404.5568, 12585.77
405.0389, 12554.12
405.5211, 12583.81
406.0032, 12632.29
406.4853, 12608.80
406.9674, 12461.30
407.4495, 12402.76
407.9316, 12560.01
408.4138, 12725.79
408.8959, 12774.08
409.3780, 12713.75
409.8601, 12643.00
410.3422, 12643.99
410.8243, 12707.32
411.3065, 12752.06
411.7886, 12751.61
412.2707, 12779.44
412.7528, 12903.85
413.2349, 13063.26
413.7170, 13167.57
414.1992, 13177.67
414.6813, 13139.14
415.1634, 13104.29
415.6455, 13072.96
416.1276, 13047.75
416.6097, 13022.77
417.0919, 13011.91
417.5740, 13030.63
418.0561, 13079.59
418.5382, 13134.48
419.0203, 13193.44
419.5024, 13247.30
419.9846, 13265.30
420.4667, 13234.31
420.9488, 13214.83
421.4309, 13267.02
421.9130, 13372.39
422.3951, 13461.14
422.8773, 13531.34
423.3594, 13577.61
423.8415, 13584.68
424.3236, 13561.77
424.8057, 13542.28
425.2878, 13538.50
425.7700, 13549.02
426.2521, 13573.06
426.7342, 13612.30
427.2163, 13656.72
427.6984, 13704.48
428.1805, 13756.88
428.6627, 13826.32
429.1448, 13910.28
429.6269, 13973.05
430.1090, 13975.73
430.5911, 13913.33
431.0732, 13893.35
431.5554, 13925.13
432.0375, 13979.36
432.5196, 14073.95
433.0017, 14178.61
433.4838, 14240.36
433.9659, 14234.01
434.4481, 14190.42
434.9302, 14176.72
435.4123, 14204.33
435.8944, 14243.70
436.3765, 14305.99
436.8586, 14368.69
437.3408, 14421.63
437.8229, 14461.33
438.3050, 14483.45
438.7871, 14478.61
439.2692, 14449.54
439.7513, 14445.45
440.2335, 14488.58
440.7156, 14525.56
441.1977, 14526.94
441.6798, 14519.06
442.1619, 14536.95
442.6440, 14594.58
443.1262, 14670.04
443.6083, 14736.08
444.0904, 14792.21
444.5725, 14845.05
445.0546, 14899.04
445.5367, 14945.67
446.0189, 14973.81
446.5010, 14987.09
446.9831, 15005.65
447.4652, 15059.84
447.9473, 15119.90
448.4294, 15109.70
448.9116, 15014.86
449.3937, 14959.04
449.8758, 15041.19
450.3579, 15200.91
450.8400, 15300.22
451.3221, 15312.88
451.8043, 15309.02
452.2864, 15323.76
452.7685, 15348.57
453.2506, 15371.49
453.7327, 15392.18
454.2148, 15387.94
454.6970, 15310.78
455.1791, 15136.52
455.6612, 15082.49
456.1433, 15274.41
456.6254, 15476.73
457.1075, 15530.04
457.5897, 15470.79
458.0718, 15433.96
458.5539, 15498.09
459.0360, 15623.19
459.5181, 15684.43
460.0002, 15597.51
460.4824, 15557.85
460.9645, 15589.48
461.4466, 15654.35
461.9287, 15742.05
462.4108, 15839.04
462.8929, 15907.98
463.3751, 15906.80
463.8572, 15834.85
464.3393, 15775.90
464.8214, 15712.37
465.3035, 15687.04
465.7856, 15737.81
466.2678, 15821.51
466.7499, 15882.68
467.2320, 15899.94
467.7141, 15897.28
468.1962, 15916.11
468.6783, 15961.66
469.1605, 15965.96
469.6426, 15871.95
470.1247, 15784.48
470.6068, 15787.23
471.0889, 15862.66
471.5710, 15934.41
472.0532, 15965.15
472.5353, 15971.18
473.0174, 15976.02
473.4995, 15979.80
473.9816, 15980.51
474.4637, 15976.87
474.9459, 15969.74
475.4280, 15958.55
475.9101, 15937.45
476.3922, 15930.50
476.8743, 15983.60
477.3564, 16042.13
477.8386, 15999.43
478.3207, 15841.53
478.8028, 15700.00
479.2849, 15700.95
479.7670, 15846.20
480.2491, 15962.64
480.7313, 16117.11
481.2134, 16174.69
481.6955, 15985.14
482.1776, 15698.22
482.6597, 15547.73
483.1418, 15617.89
483.6240, 15807.60
484.1061, 15959.23
484.5882, 16082.90
485.0703, 16135.37
485.5524, 16075.15
486.0345, 15989.87
486.5167, 15900.59
486.9988, 15818.78
487.4809, 15759.14
487.9630, 15731.43
488.4451, 15729.08
488.9272, 15740.05
489.4094, 15773.10
489.8915, 15791.72
490.3736, 15758.60
490.8557, 15726.68
491.3378, 15756.59
491.8199, 15844.37
492.3021, 15887.49
492.7842, 15770.85
493.2663, 15567.20
493.7484, 15451.81
494.2305, 15437.75
494.7126, 15485.03
495.1948, 15614.65
495.6769, 15776.25
496.1590, 15845.42
496.6411, 15781.16
497.1232, 15695.01
497.6053, 15606.65
498.0875, 15540.26
498.5696, 15564.52
499.0517, 15695.12
499.5338, 15819.19
500.0159, 15805.90
500.4980, 15637.30
500.9802, 15535.48
501.4623, 15536.32
501.9444, 15555.21
502.4265, 15563.00
502.9086, 15565.87
503.3907, 15586.37
503.8729, 15632.63
504.3550, 15673.33
504.8371, 15641.66
505.3192, 15485.20
505.8013, 15401.58
506.2834, 15447.04
506.7656, 15510.91
507.2477, 15557.56
507.7298, 15584.12
508.2119, 15590.51
508.6940, 15567.66
509.1761, 15541.39
509.6583, 15579.92
510.1404, 15701.63
510.6225, 15780.26
511.1046, 15759.51
511.5867, 15698.11
512.0688, 15638.20
512.5510, 15582.80
513.0331, 15553.06
513.5152, 15577.62
513.9973, 15625.02
514.4794, 15652.57
514.9615, 15658.38
515.4437, 15648.17
515.9258, 15619.77
516.4079, 15581.32
516.8900, 15557.83
517.3721, 15552.42
517.8542, 15552.09
518.3364, 15548.91
518.8185, 15552.43
519.3006, 15578.31
519.7827, 15624.76
520.2648, 15671.02
520.7469, 15699.03
521.2291, 15709.89
521.7112, 15719.88
522.1933, 15741.18
522.6754, 15745.75
523.1575, 15705.79
523.6396, 15660.78
524.1218, 15655.83
524.6039, 15697.78
525.0860, 15749.90
525.5681, 15774.84
526.0502, 15772.86
526.5323, 15765.65
527.0145, 15753.33
527.4966, 15735.35
527.9787, 15700.83
528.4608, 15664.17
528.9429, 15644.10
529.4250, 15643.66
529.9072, 15664.89
530.3893, 15731.55
530.8714, 15823.36
531.3535, 15871.40
531.8356, 15859.04
532.3177, 15815.78
532.7999, 15759.59
533.2820, 15691.93
533.7641, 15641.45
534.2462, 15597.32
534.7283, 15582.74
535.2104, 15648.51
535.6926, 15741.53
536.1747, 15756.16
536.6568, 15659.65
537.1389, 15532.62
537.6210, 15488.56
538.1031, 15545.85
538.5853, 15604.87
539.0674, 15688.02
539.5495, 15748.93
540.0316, 15763.78
540.5137, 15748.07
540.9958, 15724.66
541.4780, 15702.73
541.9601, 15682.87
542.4422, 15663.75
542.9243, 15644.55
543.4064, 15637.79
543.8885, 15646.84
544.3707, 15667.14
544.8528, 15706.21
545.3349, 15753.41
545.8170, 15778.96
546.2991, 15758.89
546.7813, 15730.16
547.2634, 15727.94
547.7455, 15747.07
548.2276, 15768.78
548.7097, 15788.99
549.1918, 15803.80
549.6740, 15810.26
550.1561, 15809.36
550.6382, 15785.51
551.1203, 15699.64
551.6024, 15629.02
552.0845, 15630.98
552.5667, 15675.47
553.0488, 15697.69
553.5309, 15669.56
554.0130, 15623.63
554.4951, 15624.04
554.9772, 15697.88
555.4594, 15735.21
555.9415, 15718.66
556.4236, 15680.61
556.9057, 15600.58
557.3878, 15512.43
557.8699, 15481.66
558.3521, 15547.13
558.8342, 15651.68
559.3163, 15734.25
559.7984, 15793.22
560.2805, 15784.79
560.7626, 15660.49
561.2448, 15532.75
561.7269, 15542.17
562.2090, 15654.57
562.6911, 15709.35
563.1732, 15614.48
563.6553, 15512.40
564.1375, 15515.43
564.6196, 15582.72
565.1017, 15604.35
565.5838, 15540.40
566.0659, 15454.59
566.5480, 15437.22
567.0302, 15502.81
567.5123, 15573.96
567.9944, 15670.00
568.4765, 15750.10
568.9586, 15782.21
569.4407, 15793.60
569.9229, 15832.51
570.4050, 15917.36
570.8871, 16005.93
571.3692, 16032.67
571.8513, 15994.66
572.3334, 15961.02
572.8156, 15935.06
573.2977, 15917.13
573.7798, 15906.35
574.2619, 15903.31
574.7440, 15911.32
575.2261, 15938.07
575.7083, 15962.54
576.1904, 15969.15
576.6725, 15961.57
577.1546, 15942.57
577.6367, 15911.29
578.1188, 15891.49
578.6010, 15910.10
579.0831, 15966.94
579.5652, 16003.13
580.0473, 16008.28
580.5294, 16008.40
581.0115, 15998.69
581.4937, 15993.28
581.9758, 16021.76
582.4579, 16083.27
582.9400, 16127.37
583.4221, 16087.58
583.9042, 15969.80
584.3864, 15922.50
584.8685, 15984.15
585.3506, 16048.64
585.8327, 16096.13
586.3148, 16119.47
586.7969, 16104.96
587.2791, 16049.71
587.7612, 15982.61
588.2433, 15900.61
588.7254, 15826.54
589.2075, 15819.92
589.6896, 15885.29
590.1718, 15942.39
590.6539, 15940.72
591.1360, 15899.53
591.6181, 15875.45
592.1002, 15869.91
592.5823, 15875.60
593.0645, 15905.73
593.5466, 15936.08
594.0287, 15954.88
594.5108, 15956.51
594.9929, 15928.10
595.4750, 15857.15
595.9572, 15763.75
596.4393, 15712.56
596.9214, 15726.61
597.4035, 15718.29
597.8856, 15652.50
598.3677, 15579.27
598.8499, 15519.36
599.3320, 15475.06
599.8141, 15449.63
600.2962, 15464.57
600.7783, 15477.03
601.2604, 15422.54
601.7426, 15312.98
602.2247, 15213.85
602.7068, 15141.60
603.1889, 15096.45
603.6710, 15085.82
604.1531, 15115.93
604.6353, 15125.17
605.1174, 15134.08
605.5995, 15100.14
606.0816, 14964.58
606.5637, 14789.12
607.0458, 14662.47
607.5280, 14611.61
608.0101, 14606.13
608.4922, 14620.23
608.9743, 14655.82
609.4564, 14649.84
609.9385, 14575.07
610.4207, 14502.52
610.9028, 14466.63
611.3849, 14441.94
611.8670, 14395.39
612.3491, 14319.37
612.8312, 14249.35
613.3134, 14210.28
613.7955, 14192.16
614.2776, 14189.89
614.7597, 14201.00
615.2418, 14174.05
615.7239, 14065.46
616.2061, 13914.96
616.6882, 13836.91
617.1703, 13897.44
617.6524, 13904.74
618.1345, 13812.99
618.6166, 13697.86
619.0988, 13591.09
619.5809, 13505.91
620.0630, 13467.97
620.5451, 13497.04
621.0272, 13543.94
621.5093, 13489.34
621.9915, 13307.67
622.4736, 13211.40
622.9557, 13300.49
623.4378, 13384.29
623.9199, 13305.40
624.4020, 13125.50
624.8842, 13000.04
625.3663, 12983.93
625.8484, 13002.10
626.3305, 13024.82
626.8126, 13039.79
627.2947, 13015.88
627.7769, 12947.68
628.2590, 12865.81
628.7411, 12792.73
629.2232, 12729.94
629.7053, 12697.02
630.1874, 12758.23
630.6696, 12766.96
631.1517, 12651.25
631.6338, 12519.98
632.1159, 12480.18
632.5980, 12524.05
633.0801, 12551.01
633.5623, 12474.39
634.0444, 12346.92
634.5265, 12310.64
635.0086, 12375.32
635.4907, 12394.41
635.9728, 12305.85
636.4550, 12180.24
636.9371, 12092.88
637.4192, 12040.61
637.9013, 12018.41
638.3834, 12069.66
638.8655, 12105.62
639.3477, 12044.33
639.8298, 11939.79
640.3119, 11903.66
640.7940, 11963.57
641.2761, 12031.44
641.7582, 11993.36
642.2404, 11846.34
642.7225, 11790.06
643.2046, 11910.42
643.6867, 11988.48
644.1688, 11933.77
644.6509, 11834.85
645.1331, 11776.92
645.6152, 11770.09
646.0973, 11769.88
646.5794, 11746.47
647.0615, 11714.13
647.5436, 11707.58
648.0258, 11721.57
648.5079, 11695.59
648.9900, 11596.86
649.4721, 11467.77
649.9542, 11377.55
650.4363, 11335.61
650.9185, 11301.24
651.4006, 11294.45
651.8827, 11273.22
652.3648, 11190.32
652.8469, 11092.56
653.3290, 11065.35
653.8112, 11130.15
654.2933, 11196.41
654.7754, 11138.73
655.2575, 10976.70
655.7396, 10889.86
656.2217, 10902.39
656.7039, 10914.17
657.1860, 10876.29
657.6681, 10810.75
658.1502, 10749.48
658.6323, 10688.09
659.1144, 10656.78
659.5966, 10716.46
660.0787, 10767.41
660.5608, 10702.83
661.0429, 10556.81
661.5250, 10441.36
662.0071, 10405.87
662.4893, 10397.08
662.9714, 10317.63
663.4535, 10143.28
663.9356, 10025.06
664.4177, 9988.252
664.8998, 9976.527
665.3820, 9997.206
665.8641, 10016.13
666.3462, 9984.129
666.8283, 9888.329
667.3104, 9778.883
667.7925, 9693.757
668.2747, 9613.309
668.7568, 9486.212
669.2389, 9320.154
669.7210, 9202.185
670.2031, 9183.407
670.6852, 9223.188
671.1674, 9243.490
671.6495, 9259.839
672.1316, 9211.486
672.6137, 9054.155
673.0958, 8887.277
673.5779, 8736.381
674.0601, 8609.961
674.5422, 8521.320
675.0243, 8475.606
675.5064, 8436.779
675.9885, 8359.818
676.4706, 8258.445
676.9528, 8179.281
677.4349, 8122.687
677.9170, 8109.993
678.3991, 8174.711
678.8812, 8270.329
679.3633, 8296.846
679.8455, 8247.035
680.3276, 8165.299
680.8097, 8028.420
681.2918, 7886.963
681.7739, 7759.753
682.2560, 7653.742
682.7382, 7583.516
683.2203, 7553.253
683.7024, 7540.660
684.1845, 7514.476
684.6666, 7475.697
685.1487, 7460.511
685.6309, 7489.180
686.1130, 7486.214
686.5951, 7391.486
687.0772, 7257.859
687.5593, 7175.012
688.0414, 7157.585
688.5236, 7107.063
689.0057, 6950.917
689.4878, 6788.606
689.9699, 6704.418
690.4520, 6680.654
690.9341, 6661.328
691.4163, 6624.527
691.8984, 6594.645
692.3805, 6616.310
692.8626, 6696.444
693.3447, 6715.075
693.8268, 6635.878
694.3090, 6558.361
694.7911, 6535.184
695.2732, 6522.188
695.7553, 6465.943
696.2374, 6360.734
696.7195, 6270.011
697.2017, 6236.913
697.6838, 6218.972
698.1659, 6159.706
698.6480, 6077.796
699.1301, 6043.892
699.6122, 6083.632
700.0944, 6138.393
700.5765, 6127.896
701.0586, 6046.803
701.5407, 5994.249
702.0228, 6005.653
702.5049, 5993.290
702.9871, 5912.271
703.4692, 5816.892
703.9513, 5760.596
704.4334, 5745.386
704.9155, 5728.822
705.3976, 5675.430
705.8798, 5618.560
706.3619, 5602.408
706.8440, 5617.454
707.3261, 5638.477
707.8082, 5659.717
708.2903, 5649.472
708.7725, 5561.404
709.2546, 5397.149
709.7367, 5309.087
710.2188, 5398.646
710.7009, 5423.559
711.1830, 5279.319
711.6652, 5114.849
712.1473, 5059.248
712.6294, 5101.980
713.1115, 5140.085
713.5936, 5113.382
714.0757, 5065.479
714.5579, 5041.394
715.0400, 5040.569
715.5221, 5074.560
716.0042, 5149.106
716.4863, 5202.485
716.9684, 5175.687
717.4506, 5082.215
717.9327, 5014.855
718.4148, 5001.954
718.8969, 4975.861
719.3790, 4925.248
719.8611, 4867.917
720.3433, 4817.912
720.8254, 4770.846
721.3075, 4709.145
721.7896, 4618.959
722.2717, 4532.101
722.7538, 4483.725
723.2360, 4468.019
723.7181, 4469.384
724.2002, 4486.053
724.6823, 4511.769
725.1644, 4547.110
725.6465, 4583.640
726.1287, 4596.641
726.6108, 4585.315
727.0929, 4549.950
727.5750, 4459.672
728.0571, 4378.189
728.5392, 4338.099
729.0214, 4328.100
729.5035, 4332.409
729.9856, 4346.688
730.4677, 4351.946
730.9498, 4339.198
731.4319, 4302.609
731.9141, 4197.782
732.3962, 4029.107
732.8783, 3942.940
733.3604, 4023.799
733.8425, 4173.621
734.3246, 4227.893
734.8068, 4155.835
735.2889, 4124.392
735.7710, 4159.935
736.2531, 4200.673
736.7352, 4243.328
737.2173, 4273.162
737.6995, 4274.993
738.1816, 4246.739
738.6637, 4196.910
739.1458, 4104.348
739.6279, 4010.910
740.1100, 4001.539
740.5922, 4059.442
741.0743, 4086.468
741.5564, 4051.893
742.0385, 3999.610
742.5206, 3973.210
743.0027, 3971.591
743.4849, 3971.737
743.9670, 3981.993
744.4491, 3982.178
744.9312, 3957.129
745.4133, 3932.759
745.8954, 3939.506
746.3776, 3964.162
746.8597, 3958.623
747.3418, 3887.695
747.8239, 3814.323
748.3060, 3828.553
748.7881, 3886.706
749.2703, 3857.555
749.7524, 3729.089
750.2345, 3630.138
750.7166, 3649.884
751.1987, 3745.066
751.6808, 3800.922
752.1630, 3816.205
752.6451, 3793.977
753.1272, 3695.806
753.6093, 3601.342
754.0914, 3539.929
754.5735, 3500.793
755.0557, 3462.226
755.5378, 3418.179
756.0199, 3400.682
756.5020, 3463.739
756.9841, 3542.969
757.4662, 3543.432
757.9484, 3481.482
758.4305, 3431.995
758.9126, 3423.106
759.3947, 3433.250
759.8768, 3437.376
760.3589, 3435.508
760.8411, 3417.577
761.3232, 3347.851
761.8053, 3327.140
762.2874, 3455.178
762.7695, 3582.316
763.2516, 3569.063
763.7338, 3440.760
764.2159, 3357.430
764.6980, 3404.420
765.1801, 3468.975
765.6622, 3475.230
766.1443, 3452.552
766.6265, 3454.007
767.1086, 3479.487
767.5907, 3478.138
768.0728, 3412.380
768.5549, 3310.233
769.0370, 3231.241
769.5192, 3169.573
770.0013, 3182.034
770.4834, 3341.123
770.9655, 3455.563
771.4476, 3361.585
771.9297, 3171.298
772.4119, 3077.238
772.8940, 3106.431
773.3761, 3153.583
773.8582, 3218.071
774.3403, 3264.920
774.8224, 3259.722
775.3046, 3220.804
775.7867, 3179.005
776.2688, 3145.542
776.7509, 3122.995
777.2330, 3119.260
777.7151, 3127.189
778.1973, 3106.905
778.6794, 3052.123
779.1615, 3047.903
779.6436, 3140.755
780.1257, 3245.492
780.6078, 3276.476
781.0900, 3235.401
781.5721, 3183.154
782.0542, 3092.092
782.5363, 3028.356
783.0184, 3022.137
783.5005, 3031.931
783.9827, 3022.523
784.4648, 3000.052
784.9469, 2991.390
785.4290, 3009.736
785.9111, 3039.729
786.3932, 3074.007
786.8754, 3105.116
787.3575, 3109.635
787.8396, 3086.324
788.3217, 3052.566
788.8038, 3016.721
789.2859, 2976.446
789.7681, 2920.984
790.2502, 2834.274
790.7323, 2816.556
791.2144, 2973.904
791.6965, 3064.537
792.1786, 2948.830
792.6608, 2796.521
793.1429, 2799.366
793.6250, 2950.942
794.1071, 3051.830
794.5892, 2975.099
795.0714, 2856.353
795.5535, 2779.446
796.0356, 2745.563
796.5177, 2776.336
796.9998, 2862.849
797.4819, 2936.139
797.9641, 2946.083
798.4462, 2914.128
798.9283, 2896.309
799.4104, 2896.090
799.8925, 2883.539
800.3746, 2847.352
800.8568, 2815.958
801.3389, 2806.268
801.8210, 2811.083
802.3031, 2818.124
802.7852, 2830.102
803.2673, 2831.545
803.7495, 2811.331
804.2316, 2788.608
804.7137, 2759.203
805.1958, 2741.043
805.6779, 2774.940
806.1600, 2858.626
806.6422, 2920.463
807.1243, 2884.555
807.6064, 2809.523
808.0885, 2835.877
808.5706, 2945.194
809.0527, 2972.454
809.5349, 2874.490
810.0170, 2759.967
810.4991, 2711.267
810.9812, 2716.555
811.4633, 2730.032
811.9454, 2792.382
812.4276, 2786.735
812.9097, 2618.271
813.3918, 2485.496
813.8739, 2500.083
814.3560, 2595.810
814.8381, 2681.830
815.3203, 2741.851
815.8024, 2758.700
816.2845, 2675.336
816.7666, 2584.610
817.2487, 2593.103
817.7308, 2666.410
818.2130, 2718.615
818.6951, 2727.823
819.1772, 2731.273
819.6593, 2766.805
820.1414, 2819.543
820.6235, 2828.852
821.1057, 2787.522
821.5878, 2756.555
822.0699, 2750.091
822.5520, 2746.589
823.0341, 2723.792
823.5162, 2693.652
823.9984, 2701.131
824.4805, 2793.905
824.9626, 2810.949
825.4447, 2644.910
825.9268, 2492.690
826.4089, 2476.094
826.8911, 2537.365
827.3732, 2586.353
827.8553, 2600.624
828.3374, 2604.243
828.8195, 2608.209
829.3016, 2617.146
829.7838, 2643.299
830.2659, 2680.811
830.7480, 2720.807
831.2301, 2759.542
831.7122, 2746.820
832.1943, 2629.727
832.6765, 2448.840
833.1586, 2358.969
833.6407, 2379.917
834.1228, 2429.835
834.6049, 2528.150
835.0870, 2618.553
835.5692, 2682.776
836.0513, 2714.442
836.5334, 2686.639
837.0155, 2581.295
837.4976, 2522.583
837.9797, 2582.333
838.4619, 2652.449
838.9440, 2680.879
839.4261, 2675.466
839.9082, 2639.881
840.3903, 2582.891
840.8724, 2534.739
841.3546, 2516.458
841.8367, 2518.376
842.3188, 2525.114
842.8009, 2538.169
843.2830, 2570.488
843.7651, 2624.304
844.2473, 2665.127
844.7294, 2669.043
845.2115, 2652.955
845.6936, 2657.179
846.1757, 2694.095
846.6578, 2698.502
847.1400, 2637.882
847.6221, 2592.695
848.1042, 2613.097
848.5863, 2644.272
849.0684, 2620.707
849.5505, 2546.842
850.0327, 2504.199
850.5148, 2539.384
850.9969, 2580.627
851.4790, 2594.198
851.9611, 2595.640
852.4432, 2610.776
852.9254, 2631.304
853.4075, 2618.247
853.8896, 2549.202
854.3717, 2469.637
854.8538, 2434.211
855.3359, 2436.153
855.8181, 2457.431
856.3002, 2496.276
856.7823, 2540.161
857.2644, 2587.986
857.7465, 2615.771
858.2286, 2584.854
858.7108, 2497.802
859.1929, 2465.219
859.6750, 2536.339
860.1571, 2564.709
860.6392, 2475.103
861.1213, 2387.075
861.6035, 2382.262
862.0856, 2433.303
862.5677, 2473.893
863.0498, 2492.133
863.5319, 2506.535
864.0140, 2525.062
864.4962, 2540.316
864.9783, 2558.900
865.4604, 2565.868
865.9425, 2527.503
866.4246, 2441.697
866.9067, 2354.461
867.3889, 2295.131
867.8710, 2267.861
868.3531, 2295.669
868.8352, 2365.568
869.3173, 2415.488
869.7994, 2434.371
870.2816, 2458.135
870.7637, 2515.594
871.2458, 2582.871
871.7279, 2596.342
872.2100, 2537.633
872.6921, 2502.595
873.1743, 2504.750
873.6564, 2505.816
874.1385, 2482.330
874.6206, 2457.302
875.1027, 2466.280
875.5848, 2506.819
876.0670, 2520.818
876.5491, 2468.708
877.0312, 2430.552
877.5133, 2426.010
877.9954, 2450.852
878.4775, 2532.240
878.9597, 2635.652
879.4418, 2674.222
879.9239, 2608.892
880.4060, 2530.075
880.8881, 2537.514
881.3702, 2571.766
881.8524, 2509.075
882.3345, 2382.247
882.8166, 2341.205
883.2987, 2427.725
883.7808, 2530.417
884.2629, 2541.000
884.7451, 2485.551
885.2272, 2466.355
885.7093, 2489.265
886.1914, 2491.270
886.6735, 2442.686
887.1556, 2439.081
887.6378, 2584.064
888.1199, 2775.814
888.6020, 2776.745
889.0841, 2490.047
889.5662, 2361.408
890.0483, 2565.955
890.5305, 2702.867
891.0126, 2566.203
891.4947, 2384.214
891.9768, 2385.144
892.4589, 2548.187
892.9410, 2696.678
893.4232, 2788.085
893.9053, 2814.228
894.3874, 2711.698
894.8695, 2584.440
895.3516, 2558.837
895.8337, 2609.471
896.3159, 2645.686
896.7980, 2634.975
897.2801, 2607.479
897.7622, 2593.750
898.2443, 2586.302
898.7264, 2548.781
899.2086, 2491.600
899.6907, 2512.262
900.1728, 2636.222
900.6549, 2745.910
901.1370, 2750.345
901.6191, 2688.655
902.1013, 2673.343
902.5834, 2729.126
903.0655, 2727.006
903.5476, 2622.119
904.0297, 2547.347
904.5118, 2588.301
904.9940, 2656.488
905.4761, 2621.208
905.9582, 2492.441
906.4403, 2450.707
906.9224, 2594.862
907.4045, 2708.577
907.8867, 2705.105
908.3688, 2691.828
908.8509, 2780.554
909.3330, 2911.747
909.8151, 2945.252
910.2972, 2837.061
910.7794, 2716.433
911.2615, 2649.171
911.7436, 2622.143
912.2257, 2647.355
912.7078, 2694.454
913.1899, 2693.122
913.6721, 2640.954
914.1542, 2615.964
914.6363, 2680.595
915.1184, 2764.859
915.6005, 2717.662
916.0826, 2572.863
916.5648, 2529.241
917.0469, 2601.681
917.5290, 2710.855
918.0111, 2836.009
918.4932, 2919.671
918.9753, 2877.343
919.4575, 2719.105
919.9396, 2620.557
920.4217, 2591.367
920.9038, 2596.814
921.3859, 2651.915
921.8680, 2712.191
922.3502, 2754.952
922.8323, 2781.299
923.3144, 2795.050
923.7965, 2796.593
924.2786, 2784.348
924.7607, 2708.694
925.2429, 2679.865
925.7250, 2826.060
926.2071, 2973.908
926.6892, 2898.709
927.1713, 2652.908
927.6534, 2512.479
928.1356, 2607.842
928.6177, 2749.480
929.0998, 2845.435
929.5819, 2904.648
930.0640, 2922.633
930.5461, 2915.742
931.0283, 2919.583
931.5104, 2942.452
931.9925, 2956.420
932.4746, 2928.799
932.9567, 2889.394
933.4388, 2890.956
933.9210, 2928.181
934.4031, 3005.051
934.8852, 3113.839
935.3673, 3137.914
935.8494, 3004.585
936.3315, 2830.506
936.8137, 2815.625
937.2958, 2954.630
937.7779, 3054.514
938.2600, 3108.702
938.7421, 3157.828
939.2242, 3218.752
939.7064, 3260.633
940.1885, 3253.002
940.6706, 3208.406
941.1527, 3172.863
941.6348, 3148.094
942.1169, 3128.421
942.5991, 3107.847
943.0812, 3100.072
943.5633, 3128.925
944.0454, 3158.918
944.5275, 3145.547
945.0096, 3094.630
945.4918, 3061.388
945.9739, 3060.731
946.4560, 3073.587
946.9381, 3116.072
947.4202, 3149.114
947.9023, 3125.071
948.3845, 3076.924
948.8666, 3069.454
949.3487, 3116.122
949.8308, 3168.034
950.3129, 3209.959
950.7950, 3228.672
951.2772, 3181.146
951.7593, 3117.021
952.2414, 3132.588
952.7235, 3217.024
953.2056, 3274.880
953.6877, 3259.604
954.1699, 3236.718
954.6520, 3306.549
955.1341, 3426.528
955.6162, 3475.367
956.0983, 3459.839
956.5804, 3417.121
957.0626, 3357.367
957.5447, 3340.684
958.0268, 3421.215
958.5089, 3544.556
958.9910, 3568.602
959.4731, 3484.074
959.9553, 3463.439
960.4374, 3526.758
960.9195, 3577.317
961.4016, 3577.136
961.8837, 3559.902
962.3658, 3557.762
962.8480, 3570.172
963.3301, 3594.485
963.8122, 3643.357
964.2943, 3675.497
964.7764, 3653.262
965.2585, 3661.330
965.7407, 3792.099
966.2228, 3941.673
966.7049, 3976.738
967.1870, 3896.009
967.6691, 3808.583
968.1512, 3656.363
968.6334, 3595.231
969.1155, 3741.502
969.5976, 3910.216
970.0797, 3989.008
970.5618, 3994.165
971.0439, 3958.489
971.5261, 3888.093
972.0082, 3844.958
972.4903, 3889.434
972.9724, 3933.517
973.4545, 3890.551
973.9366, 3836.667
974.4188, 3872.598
974.9009, 3983.013
975.3830, 4096.472
975.8651, 4186.121
976.3472, 4230.266
976.8293, 4159.462
977.3115, 4069.790
977.7936, 4121.356
978.2757, 4251.972
978.7578, 4291.925
979.2399, 4230.063
979.7220, 4207.168
980.2042, 4315.818
980.6863, 4470.180
981.1684, 4554.462
981.6505, 4575.809
982.1326, 4533.172
982.6147, 4439.483
983.0969, 4395.230
983.5790, 4429.792
984.0611, 4499.721
984.5432, 4576.093
985.0253, 4640.495
985.5074, 4627.146
985.9896, 4532.902
986.4717, 4498.232
986.9538, 4535.746
987.4359, 4599.319
987.9180, 4680.327
988.4001, 4754.145
988.8823, 4794.560
989.3644, 4804.596
989.8465, 4799.722
990.3286, 4768.741
990.8107, 4760.156
991.2928, 4793.457
991.7750, 4815.393
992.2571, 4785.901
992.7392, 4748.790
993.2213, 4763.488
993.7034, 4829.646
994.1855, 4897.472
994.6677, 4962.786
995.1498, 5035.616
995.6319, 5161.981
996.1140, 5245.894
996.5961, 5204.180
997.0782, 5110.105
997.5604, 5063.296
998.0425, 5071.001
998.5246, 5114.539
999.0067, 5242.787
999.4888, 5335.674
999.9709, 5321.219
1000.453, 5296.949
1000.935, 5334.594
1001.417, 5414.424
1001.899, 5503.407
1002.382, 5594.976
1002.864, 5642.065
1003.346, 5582.028
1003.828, 5523.746
1004.310, 5524.159
1004.792, 5560.106
1005.274, 5640.448
1005.756, 5728.122
1006.238, 5726.903
1006.721, 5605.473
1007.203, 5509.479
1007.685, 5554.608
1008.167, 5653.783
1008.649, 5743.157
1009.131, 5822.412
1009.613, 5886.236
1010.095, 5941.132
1010.578, 6014.522
1011.060, 6118.523
1011.542, 6205.028
1012.024, 6206.070
1012.506, 6174.146
1012.988, 6181.292
1013.470, 6223.200
1013.952, 6300.066
1014.434, 6401.212
1014.917, 6479.887
1015.399, 6509.401
1015.881, 6526.688
1016.363, 6581.292
1016.845, 6660.875
1017.327, 6734.829
1017.809, 6802.264
1018.291, 6866.946
1018.773, 6927.708
1019.256, 6958.168
1019.738, 6937.553
1020.220, 6912.820
1020.702, 6979.792
1021.184, 7118.926
1021.666, 7187.776
1022.148, 7189.039
1022.630, 7193.990
1023.113, 7218.634
1023.595, 7264.283
1024.077, 7332.552
1024.559, 7420.023
1025.041, 7533.405
1025.523, 7673.569
1026.005, 7731.183
1026.487, 7695.012
1026.969, 7665.448
1027.452, 7661.376
1027.934, 7700.970
1028.416, 7808.324
1028.898, 7949.675
1029.380, 8040.940
1029.862, 8074.785
1030.344, 8120.459
1030.826, 8189.148
1031.309, 8223.211
1031.791, 8183.799
1032.273, 8163.504
1032.755, 8238.699
1033.237, 8382.951
1033.719, 8530.853
1034.201, 8697.624
1034.683, 8788.685
1035.166, 8744.179
1035.648, 8759.183
1036.130, 8912.319
1036.612, 9096.862
1037.094, 9247.969
1037.576, 9359.957
1038.058, 9405.177
1038.540, 9346.108
1039.022, 9353.996
1039.505, 9482.446
1039.987, 9592.354
1040.469, 9637.061
1040.951, 9666.932
1041.433, 9712.882
1041.915, 9774.575
1042.397, 9852.324
1042.879, 9953.278
1043.361, 10046.13
1043.844, 10125.81
1044.326, 10203.21
1044.808, 10280.68
1045.290, 10356.43
1045.772, 10425.63
1046.254, 10492.22
1046.736, 10571.74
1047.218, 10677.15
1047.700, 10745.89
1048.183, 10744.80
1048.665, 10741.82
1049.147, 10710.65
1049.629, 10726.07
1050.111, 10895.61
1050.593, 11144.11
1051.075, 11291.18
1051.557, 11299.72
1052.040, 11304.20
1052.522, 11284.33
1053.004, 11323.83
1053.486, 11502.08
1053.968, 11703.16
1054.450, 11840.89
1054.932, 11928.16
1055.414, 12002.38
1055.896, 12067.08
1056.379, 12137.34
1056.861, 12228.36
1057.343, 12310.55
1057.825, 12332.14
1058.307, 12377.48
1058.789, 12562.87
1059.271, 12806.62
1059.753, 12925.41
1060.236, 12881.28
1060.718, 12878.17
1061.200, 13010.08
1061.682, 13157.48
1062.164, 13299.27
1062.646, 13410.96
1063.128, 13432.32
1063.610, 13425.18
1064.093, 13515.89
1064.575, 13723.57
1065.057, 13900.29
1065.539, 13965.96
1066.021, 14024.07
1066.503, 14113.18
1066.985, 14217.06
1067.467, 14335.26
1067.949, 14452.81
1068.432, 14539.37
1068.914, 14594.29
1069.396, 14672.44
1069.878, 14823.81
1070.360, 14959.21
1070.842, 15019.97
1071.324, 15068.52
1071.806, 15136.35
1072.288, 15235.29
1072.771, 15396.71
1073.253, 15611.21
1073.735, 15786.16
1074.217, 15864.93
1074.699, 15939.44
1075.181, 16052.64
1075.663, 16177.72
1076.145, 16309.18
1076.627, 16431.11
1077.110, 16509.74
1077.592, 16555.37
1078.074, 16629.92
1078.556, 16755.08
1079.038, 16913.99
1079.520, 17130.62
1080.002, 17344.84
1080.484, 17524.40
1080.967, 17668.48
1081.449, 17746.00
1081.931, 17787.74
1082.413, 17908.16
1082.895, 18168.18
1083.377, 18403.23
1083.859, 18516.21
1084.341, 18605.91
1084.823, 18730.47
1085.306, 18866.61
1085.788, 18972.66
1086.270, 19066.22
1086.752, 19215.74
1087.234, 19451.26
1087.716, 19645.55
1088.198, 19732.85
1088.680, 19778.77
1089.163, 19773.13
1089.645, 19781.18
1090.127, 19882.64
1090.609, 20041.31
1091.091, 20168.86
1091.573, 20246.34
1092.055, 20318.22
1092.537, 20379.57
1093.020, 20467.83
1093.502, 20620.73
1093.984, 20785.98
1094.466, 20940.29
1094.948, 21070.41
1095.430, 21144.50
1095.912, 21165.43
1096.394, 21226.05
1096.876, 21399.88
1097.359, 21552.88
1097.841, 21608.40
1098.323, 21663.41
1098.805, 21784.12
1099.287, 21940.71
1099.769, 22091.30
1100.251, 22233.48
1100.733, 22388.07
1101.215, 22593.97
1101.698, 22739.98
1102.180, 22705.21
1102.662, 22712.30
1103.144, 22920.07
1103.626, 23187.84
1104.108, 23385.32
1104.590, 23507.89
1105.072, 23574.92
1105.554, 23552.14
1106.037, 23599.61
1106.519, 23813.74
1107.001, 24014.54
1107.483, 24111.69
1107.965, 24197.65
1108.447, 24347.29
1108.929, 24542.98
1109.411, 24746.86
1109.894, 24965.65
1110.376, 25128.76
1110.858, 25204.28
1111.340, 25262.53
1111.822, 25284.95
1112.304, 25328.98
1112.786, 25447.65
1113.268, 25599.03
1113.750, 25705.09
1114.233, 25762.44
1114.715, 25886.31
1115.197, 26131.24
1115.679, 26353.45
1116.161, 26547.40
1116.643, 26714.20
1117.125, 26831.56
1117.607, 26942.71
1118.090, 27103.28
1118.572, 27300.52
1119.054, 27466.42
1119.536, 27592.16
1120.018, 27703.46
1120.500, 27762.47
1120.982, 27891.24
1121.464, 28198.16
1121.947, 28460.38
1122.429, 28458.52
1122.911, 28312.46
1123.393, 28335.84
1123.875, 28555.99
1124.357, 28735.49
1124.839, 28848.47
1125.321, 29014.62
1125.803, 29280.84
1126.286, 29527.47
1126.768, 29672.76
1127.250, 29786.04
1127.732, 29979.42
1128.214, 30242.98
1128.696, 30466.45
1129.178, 30649.20
1129.660, 30789.23
1130.142, 30879.07
1130.625, 30978.47
1131.107, 31109.71
1131.589, 31267.98
1132.071, 31447.93
1132.553, 31648.91
1133.035, 31885.95
1133.517, 32153.99
1133.999, 32335.60
1134.481, 32428.65
1134.964, 32524.66
1135.446, 32648.21
1135.928, 32809.05
1136.410, 33017.85
1136.892, 33241.83
1137.374, 33429.32
1137.856, 33586.08
1138.338, 33726.01
1138.821, 33855.69
1139.303, 34004.41
1139.785, 34176.48
1140.267, 34376.51
1140.749, 34605.37
1141.231, 34804.54
1141.713, 34902.61
1142.195, 34951.73
1142.677, 35021.25
1143.160, 35122.97
1143.642, 35306.02
1144.124, 35544.72
1144.606, 35735.66
1145.088, 35864.99
1145.570, 36052.87
1146.052, 36400.95
1146.534, 36744.64
1147.017, 36897.71
1147.499, 36962.84
1147.981, 37051.86
1148.463, 37156.05
1148.945, 37217.32
1149.427, 37264.84
1149.909, 37425.50
1150.391, 37750.93
1150.874, 38092.02
1151.356, 38373.68
1151.838, 38609.50
1152.320, 38748.84
1152.802, 38896.90
1153.284, 39211.15
1153.766, 39595.22
1154.248, 39835.73
1154.730, 39910.89
1155.213, 40029.09
1155.695, 40294.43
1156.177, 40553.87
1156.659, 40774.42
1157.141, 40954.59
1157.623, 41064.50
1158.105, 41155.77
1158.587, 41266.01
1159.069, 41406.30
1159.552, 41609.28
1160.034, 41902.86
1160.516, 42170.93
1160.998, 42344.46
1161.480, 42575.84
1161.962, 42946.06
1162.444, 43327.05
1162.926, 43650.35
1163.408, 43933.32
1163.891, 44204.33
1164.373, 44464.09
1164.855, 44688.88
1165.337, 44846.94
1165.819, 45060.51
1166.301, 45336.74
1166.783, 45681.74
1167.265, 46124.68
1167.748, 46560.28
1168.230, 46882.86
1168.712, 47128.71
1169.194, 47388.14
1169.676, 47659.93
1170.158, 47994.80
1170.640, 48395.70
1171.122, 48815.18
1171.604, 49246.70
1172.087, 49653.28
1172.569, 50016.46
1173.051, 50371.18
1173.533, 50771.47
1174.015, 51118.08
1174.497, 51473.01
1174.979, 51838.43
1175.461, 52166.86
1175.944, 52526.68
1176.426, 52885.14
1176.908, 53239.30
1177.390, 53640.14
1177.872, 54132.01
1178.354, 54638.75
1178.836, 55077.55
1179.318, 55478.57
1179.801, 55836.84
1180.283, 56214.48
1180.765, 56769.00
1181.247, 57440.77
1181.729, 57974.61
1182.211, 58291.34
1182.693, 58612.18
1183.175, 59073.17
1183.657, 59574.04
1184.140, 60079.38
1184.622, 60569.49
1185.104, 60999.96
1185.586, 61420.55
1186.068, 61907.75
1186.550, 62459.06
1187.032, 63021.16
1187.514, 63586.80
1187.996, 64141.27
1188.479, 64679.04
1188.961, 65212.30
1189.443, 65720.04
1189.925, 66253.41
1190.407, 66856.11
1190.889, 67502.80
1191.371, 68148.22
1191.853, 68790.95
1192.335, 69489.39
1192.818, 70302.17
1193.300, 71008.03
1193.782, 71546.21
1194.264, 72094.20
1194.746, 72699.90
1195.228, 73382.16
1195.710, 74179.48
1196.192, 75028.98
1196.675, 75778.27
1197.157, 76429.76
1197.639, 77102.24
1198.121, 77797.67
1198.603, 78455.31
1199.085, 79071.65
1199.567, 79750.45
1200.049, 80533.93
1200.531, 81309.60
1201.014, 81932.95
1201.496, 82755.23
1201.978, 83346.19
1202.460, 84289.84
1202.942, 85121.60
1203.424, 85885.91
1203.906, 86734.00
1204.388, 87681.07
1204.871, 88664.63
1205.353, 89657.22
1205.835, 90611.89
1206.317, 91473.46
1206.799, 92306.97
1207.281, 93123.23
1207.763, 93971.30
1208.245, 94893.26
1208.728, 95885.05
1209.210, 96974.63
1209.692, 98140.21
1210.174, 99221.65
1210.656, 100079.0
1211.138, 101074.6
1211.620, 102384.1
1212.102, 103718.2
1212.584, 104969.5
1213.067, 106215.4
1213.549, 107505.6
1214.031, 108834.1
1214.513, 110167.4
1214.995, 111506.0
1215.477, 112985.3
1215.959, 114662.0
1216.441, 116248.7
1216.923, 117676.6
1217.406, 119192.2
1217.888, 120896.5
1218.370, 122623.8
1218.852, 124245.3
1219.334, 125856.6
1219.816, 127707.6
1220.298, 129442.4
1220.780, 131546.6
1221.262, 133228.9
1221.745, 135131.8
1222.227, 137276.8
1222.709, 139498.7
1223.191, 141741.0
1223.673, 143994.3
1224.155, 146239.3
1224.637, 148538.8
1225.119, 150944.5
1225.602, 153458.1
1226.084, 156103.1
1226.566, 158828.7
1227.048, 161555.3
1227.530, 164274.7
1228.012, 166985.9
1228.494, 169670.0
1228.976, 172499.8
1229.458, 175575.0
1229.941, 178728.1
1230.423, 181858.9
1230.905, 185149.6
1231.387, 188771.6
1231.869, 192551.6
1232.351, 196343.9
1232.833, 200145.5
1233.315, 203895.3
1233.798, 207528.2
1234.280, 211515.1
1234.762, 215890.0
1235.244, 220443.5
1235.726, 225151.1
1236.208, 229964.1
1236.690, 234832.1
1237.172, 239825.8
1237.655, 245051.1
1238.137, 250436.0
1238.619, 255866.5
1239.101, 261364.6
1239.583, 267053.1
1240.065, 272967.7
1240.547, 279054.2
1241.029, 285316.4
1241.511, 291750.8
1241.994, 298416.9
1242.476, 305425.1
1242.958, 312945.3
1243.440, 320713.1
1243.922, 328577.1
1244.404, 336522.4
1244.886, 344488.8
1245.368, 352632.2
1245.850, 361177.4
1246.333, 370094.3
1246.815, 379239.1
1247.297, 388616.8
1247.779, 398009.2
1248.261, 407208.9
1248.743, 416720.5
1249.225, 426718.1
1249.707, 436910.0
1250.189, 447172.7
1250.672, 457515.3
1251.154, 468006.2
1251.636, 478609.8
1252.118, 489177.9
1252.600, 499716.5
1253.082, 510010.0
1253.564, 520093.6
1254.046, 530191.1
1254.529, 540358.6
1255.011, 550521.4
1255.493, 560648.0
1255.975, 570553.0
1256.457, 580126.1
1256.939, 589193.8
1257.421, 597294.7
1257.903, 604779.1
1258.385, 612287.6
1258.868, 619595.9
1259.350, 626427.6
1259.832, 632653.1
1260.314, 638139.9
1260.796, 642859.1
1261.278, 647103.5
1261.760, 651221.4
1262.242, 654436.4
1262.725, 656180.1
1263.207, 657283.0
1263.689, 658235.3
1264.171, 658673.1
1264.653, 658314.8
1265.135, 657153.2
1265.617, 655134.4
1266.099, 652258.4
1266.582, 649122.8
1267.064, 645840.7
1267.546, 641764.7
1268.028, 636761.6
1268.510, 631464.2
1268.992, 626047.9
1269.474, 620468.3
1269.956, 614644.6
1270.438, 608633.7
1270.921, 602485.1
1271.403, 596193.9
1271.885, 589689.6
1272.367, 583054.6
1272.849, 576588.8
1273.331, 570189.8
1273.813, 563555.9
1274.295, 556650.5
1274.777, 549750.9
1275.260, 542967.6
1275.742, 536443.9
1276.224, 530428.1
1276.706, 524453.3
1277.188, 518484.2
1277.670, 512291.1
1278.152, 505638.2
1278.634, 498751.1
1279.116, 492043.5
1279.599, 485428.1
1280.081, 478518.0
1280.563, 471236.0
1281.045, 464280.1
1281.527, 457737.1
1282.009, 451209.1
1282.491, 444663.9
1282.973, 438026.2
1283.456, 431213.1
1283.938, 424570.3
1284.420, 418373.1
1284.902, 412479.3
1285.384, 406603.6
##END=



