##NAMES=Cerite-(CeCa)
##RRUFFID=R130614
##IDEAL CHEMISTRY=(Ce_7_Ca_2_)[box]Mg(SiO_4_)_3_(SiO_3_OH)_4_(OH)_3_
##LOCALITY=Mont Saint-Hilaire, Rouville County, Quebec, Canada
##OWNER=RRUFF
##SOURCE=Don Doell
##DESCRIPTION=Hexagonal platy pink crystals, associated with catapleiite and aegirine. The color is dependent upon light source.
##STATUS=The identification of this mineral has been confirmed only by single crystal X-ray diffraction.
##URL=rruff.info/R130614
8.806445e+001, 3.051629e+005
8.854657e+001, 2.927139e+005
8.902869e+001, 2.884023e+005
8.951080e+001, 2.961489e+005
8.999292e+001, 3.102511e+005
9.047504e+001, 3.255485e+005
9.095715e+001, 3.410449e+005
9.143927e+001, 3.564046e+005
9.192139e+001, 3.713160e+005
9.240350e+001, 3.857841e+005
9.288562e+001, 3.998428e+005
9.336774e+001, 4.106949e+005
9.384985e+001, 4.156392e+005
9.433197e+001, 4.148627e+005
9.481409e+001, 4.141543e+005
9.529620e+001, 4.120446e+005
9.577832e+001, 4.098729e+005
9.626044e+001, 4.078996e+005
9.674255e+001, 4.061915e+005
9.722467e+001, 4.047332e+005
9.770679e+001, 4.034507e+005
9.818890e+001, 4.023373e+005
9.867102e+001, 4.012384e+005
9.915314e+001, 4.002846e+005
9.963525e+001, 3.995893e+005
1.001174e+002, 3.991916e+005
1.005995e+002, 3.989953e+005
1.010816e+002, 3.987102e+005
1.015637e+002, 3.980459e+005
1.020458e+002, 3.975344e+005
1.025280e+002, 3.971172e+005
1.030101e+002, 3.967872e+005
1.034922e+002, 3.965563e+005
1.039743e+002, 3.964340e+005
1.044564e+002, 3.964035e+005
1.049385e+002, 3.964352e+005
1.054207e+002, 3.964972e+005
1.059028e+002, 3.965801e+005
1.063849e+002, 3.966872e+005
1.068670e+002, 3.968037e+005
1.073491e+002, 3.968807e+005
1.078312e+002, 3.968452e+005
1.083134e+002, 3.966968e+005
1.087955e+002, 3.965823e+005
1.092776e+002, 3.965474e+005
1.097597e+002, 3.965441e+005
1.102418e+002, 3.965008e+005
1.107239e+002, 3.963961e+005
1.112061e+002, 3.962685e+005
1.116882e+002, 3.961211e+005
1.121703e+002, 3.959648e+005
1.126524e+002, 3.958764e+005
1.131345e+002, 3.959760e+005
1.136166e+002, 3.962439e+005
1.140988e+002, 3.963449e+005
1.145809e+002, 3.960787e+005
1.150630e+002, 3.957504e+005
1.155451e+002, 3.954998e+005
1.160272e+002, 3.953403e+005
1.165093e+002, 3.952390e+005
1.169915e+002, 3.951590e+005
1.174736e+002, 3.950992e+005
1.179557e+002, 3.950493e+005
1.184378e+002, 3.949639e+005
1.189199e+002, 3.949010e+005
1.194020e+002, 3.949139e+005
1.198842e+002, 3.950143e+005
1.203663e+002, 3.951571e+005
1.208484e+002, 3.952443e+005
1.213305e+002, 3.952250e+005
1.218126e+002, 3.951874e+005
1.222947e+002, 3.951260e+005
1.227769e+002, 3.950461e+005
1.232590e+002, 3.949503e+005
1.237411e+002, 3.948367e+005
1.242232e+002, 3.947130e+005
1.247053e+002, 3.946149e+005
1.251874e+002, 3.945856e+005
1.256696e+002, 3.945346e+005
1.261517e+002, 3.944075e+005
1.266338e+002, 3.942240e+005
1.271159e+002, 3.940616e+005
1.275980e+002, 3.939834e+005
1.280801e+002, 3.939641e+005
1.285623e+002, 3.939046e+005
1.290444e+002, 3.937616e+005
1.295265e+002, 3.936072e+005
1.300086e+002, 3.935173e+005
1.304907e+002, 3.935037e+005
1.309728e+002, 3.935032e+005
1.314550e+002, 3.934847e+005
1.319371e+002, 3.934531e+005
1.324192e+002, 3.934123e+005
1.329013e+002, 3.933587e+005
1.333834e+002, 3.932973e+005
1.338655e+002, 3.932479e+005
1.343477e+002, 3.932330e+005
1.348298e+002, 3.931942e+005
1.353119e+002, 3.931080e+005
1.357940e+002, 3.929848e+005
1.362761e+002, 3.928412e+005
1.367582e+002, 3.926754e+005
1.372404e+002, 3.924869e+005
1.377225e+002, 3.923657e+005
1.382046e+002, 3.924248e+005
1.386867e+002, 3.924593e+005
1.391688e+002, 3.923784e+005
1.396509e+002, 3.922050e+005
1.401331e+002, 3.920313e+005
1.406152e+002, 3.919573e+005
1.410973e+002, 3.920310e+005
1.415794e+002, 3.920417e+005
1.420615e+002, 3.919614e+005
1.425436e+002, 3.918554e+005
1.430258e+002, 3.917473e+005
1.435079e+002, 3.916473e+005
1.439900e+002, 3.915725e+005
1.444721e+002, 3.915517e+005
1.449542e+002, 3.916196e+005
1.454363e+002, 3.916445e+005
1.459185e+002, 3.915764e+005
1.464006e+002, 3.914756e+005
1.468827e+002, 3.914234e+005
1.473648e+002, 3.914496e+005
1.478469e+002, 3.914880e+005
1.483290e+002, 3.914015e+005
1.488112e+002, 3.911739e+005
1.492933e+002, 3.909827e+005
1.497754e+002, 3.909213e+005
1.502575e+002, 3.909486e+005
1.507396e+002, 3.909500e+005
1.512217e+002, 3.909074e+005
1.517039e+002, 3.907997e+005
1.521860e+002, 3.906081e+005
1.526681e+002, 3.903247e+005
1.531502e+002, 3.900300e+005
1.536323e+002, 3.897836e+005
1.541144e+002, 3.895891e+005
1.545966e+002, 3.894086e+005
1.550787e+002, 3.892567e+005
1.555608e+002, 3.891043e+005
1.560429e+002, 3.889413e+005
1.565250e+002, 3.887658e+005
1.570071e+002, 3.885631e+005
1.574893e+002, 3.882959e+005
1.579714e+002, 3.879208e+005
1.584535e+002, 3.875998e+005
1.589356e+002, 3.873603e+005
1.594177e+002, 3.871741e+005
1.598998e+002, 3.870468e+005
1.603820e+002, 3.869793e+005
1.608641e+002, 3.869212e+005
1.613462e+002, 3.867475e+005
1.618283e+002, 3.863370e+005
1.623104e+002, 3.859709e+005
1.627925e+002, 3.857154e+005
1.632747e+002, 3.855012e+005
1.637568e+002, 3.852513e+005
1.642389e+002, 3.849289e+005
1.647210e+002, 3.845503e+005
1.652031e+002, 3.841804e+005
1.656852e+002, 3.838099e+005
1.661674e+002, 3.834637e+005
1.666495e+002, 3.831653e+005
1.671316e+002, 3.828947e+005
1.676137e+002, 3.826208e+005
1.680958e+002, 3.823244e+005
1.685779e+002, 3.820092e+005
1.690601e+002, 3.816923e+005
1.695422e+002, 3.813703e+005
1.700243e+002, 3.810513e+005
1.705064e+002, 3.807309e+005
1.709885e+002, 3.804127e+005
1.714706e+002, 3.801063e+005
1.719528e+002, 3.798134e+005
1.724349e+002, 3.795401e+005
1.729170e+002, 3.792971e+005
1.733991e+002, 3.791323e+005
1.738812e+002, 3.789560e+005
1.743633e+002, 3.786915e+005
1.748455e+002, 3.783362e+005
1.753276e+002, 3.779538e+005
1.758097e+002, 3.775789e+005
1.762918e+002, 3.772016e+005
1.767739e+002, 3.768004e+005
1.772560e+002, 3.763383e+005
1.777382e+002, 3.758764e+005
1.782203e+002, 3.755279e+005
1.787024e+002, 3.753390e+005
1.791845e+002, 3.751170e+005
1.796666e+002, 3.747197e+005
1.801487e+002, 3.742420e+005
1.806309e+002, 3.738057e+005
1.811130e+002, 3.734768e+005
1.815951e+002, 3.732116e+005
1.820772e+002, 3.728836e+005
1.825593e+002, 3.724579e+005
1.830414e+002, 3.720232e+005
1.835236e+002, 3.716002e+005
1.840057e+002, 3.711901e+005
1.844878e+002, 3.707976e+005
1.849699e+002, 3.704309e+005
1.854520e+002, 3.700815e+005
1.859341e+002, 3.696967e+005
1.864163e+002, 3.692343e+005
1.868984e+002, 3.687791e+005
1.873805e+002, 3.683763e+005
1.878626e+002, 3.679894e+005
1.883447e+002, 3.675467e+005
1.888268e+002, 3.669804e+005
1.893090e+002, 3.663006e+005
1.897911e+002, 3.657686e+005
1.902732e+002, 3.656004e+005
1.907553e+002, 3.653642e+005
1.912374e+002, 3.648913e+005
1.917195e+002, 3.642518e+005
1.922017e+002, 3.636211e+005
1.926838e+002, 3.631423e+005
1.931659e+002, 3.628217e+005
1.936480e+002, 3.624094e+005
1.941301e+002, 3.618342e+005
1.946122e+002, 3.612586e+005
1.950944e+002, 3.607497e+005
1.955765e+002, 3.603036e+005
1.960586e+002, 3.598807e+005
1.965407e+002, 3.594558e+005
1.970228e+002, 3.590262e+005
1.975049e+002, 3.585790e+005
1.979871e+002, 3.580684e+005
1.984692e+002, 3.575736e+005
1.989513e+002, 3.571623e+005
1.994334e+002, 3.568297e+005
1.999155e+002, 3.564967e+005
2.003976e+002, 3.561050e+005
2.008798e+002, 3.556500e+005
2.013619e+002, 3.551699e+005
2.018440e+002, 3.546192e+005
2.023261e+002, 3.540752e+005
2.028082e+002, 3.536362e+005
2.032903e+002, 3.533147e+005
2.037725e+002, 3.529788e+005
2.042546e+002, 3.525203e+005
2.047367e+002, 3.519693e+005
2.052188e+002, 3.514083e+005
2.057009e+002, 3.508461e+005
2.061830e+002, 3.502836e+005
2.066652e+002, 3.497168e+005
2.071473e+002, 3.491384e+005
2.076294e+002, 3.485902e+005
2.081115e+002, 3.481253e+005
2.085936e+002, 3.477076e+005
2.090757e+002, 3.472808e+005
2.095579e+002, 3.468183e+005
2.100400e+002, 3.463377e+005
2.105221e+002, 3.458635e+005
2.110042e+002, 3.453826e+005
2.114863e+002, 3.449373e+005
2.119685e+002, 3.445968e+005
2.124506e+002, 3.442908e+005
2.129327e+002, 3.439098e+005
2.134148e+002, 3.433676e+005
2.138969e+002, 3.427281e+005
2.143790e+002, 3.422029e+005
2.148612e+002, 3.418652e+005
2.153433e+002, 3.415232e+005
2.158254e+002, 3.411023e+005
2.163075e+002, 3.406397e+005
2.167896e+002, 3.401842e+005
2.172717e+002, 3.397676e+005
2.177539e+002, 3.393783e+005
2.182360e+002, 3.389729e+005
2.187181e+002, 3.385420e+005
2.192002e+002, 3.381081e+005
2.196823e+002, 3.376822e+005
2.201644e+002, 3.372573e+005
2.206466e+002, 3.368254e+005
2.211287e+002, 3.363834e+005
2.216108e+002, 3.359316e+005
2.220929e+002, 3.354782e+005
2.225750e+002, 3.350132e+005
2.230571e+002, 3.345568e+005
2.235393e+002, 3.341241e+005
2.240214e+002, 3.337029e+005
2.245035e+002, 3.332770e+005
2.249856e+002, 3.328387e+005
2.254677e+002, 3.323892e+005
2.259498e+002, 3.319401e+005
2.264320e+002, 3.314995e+005
2.269141e+002, 3.310515e+005
2.273962e+002, 3.305813e+005
2.278783e+002, 3.301036e+005
2.283604e+002, 3.296326e+005
2.288425e+002, 3.291741e+005
2.293247e+002, 3.287333e+005
2.298068e+002, 3.283394e+005
2.302889e+002, 3.280787e+005
2.307710e+002, 3.277631e+005
2.312531e+002, 3.272995e+005
2.317352e+002, 3.267585e+005
2.322174e+002, 3.262733e+005
2.326995e+002, 3.259228e+005
2.331816e+002, 3.256636e+005
2.336637e+002, 3.253029e+005
2.341458e+002, 3.247453e+005
2.346279e+002, 3.242134e+005
2.351101e+002, 3.237868e+005
2.355922e+002, 3.234234e+005
2.360743e+002, 3.230463e+005
2.365564e+002, 3.226267e+005
2.370385e+002, 3.221597e+005
2.375206e+002, 3.216333e+005
2.380028e+002, 3.209869e+005
2.384849e+002, 3.203855e+005
2.389670e+002, 3.199110e+005
2.394491e+002, 3.195271e+005
2.399312e+002, 3.191463e+005
2.404133e+002, 3.187384e+005
2.408955e+002, 3.183133e+005
2.413776e+002, 3.178834e+005
2.418597e+002, 3.174368e+005
2.423418e+002, 3.170176e+005
2.428239e+002, 3.166673e+005
2.433060e+002, 3.163634e+005
2.437882e+002, 3.160448e+005
2.442703e+002, 3.157001e+005
2.447524e+002, 3.153173e+005
2.452345e+002, 3.148678e+005
2.457166e+002, 3.143345e+005
2.461987e+002, 3.138316e+005
2.466809e+002, 3.134461e+005
2.471630e+002, 3.131419e+005
2.476451e+002, 3.127891e+005
2.481272e+002, 3.123343e+005
2.486093e+002, 3.118471e+005
2.490914e+002, 3.114104e+005
2.495736e+002, 3.110269e+005
2.500557e+002, 3.106534e+005
2.505378e+002, 3.102694e+005
2.510199e+002, 3.098782e+005
2.515020e+002, 3.094897e+005
2.519841e+002, 3.091015e+005
2.524663e+002, 3.087223e+005
2.529484e+002, 3.083490e+005
2.534305e+002, 3.079841e+005
2.539126e+002, 3.076363e+005
2.543947e+002, 3.073238e+005
2.548768e+002, 3.070360e+005
2.553590e+002, 3.067294e+005
2.558411e+002, 3.063857e+005
2.563232e+002, 3.060387e+005
2.568053e+002, 3.057192e+005
2.572874e+002, 3.054189e+005
2.577695e+002, 3.051055e+005
2.582516e+002, 3.047404e+005
2.587338e+002, 3.043374e+005
2.592159e+002, 3.039883e+005
2.596980e+002, 3.037256e+005
2.601801e+002, 3.034747e+005
2.606622e+002, 3.031955e+005
2.611443e+002, 3.028961e+005
2.616265e+002, 3.025933e+005
2.621086e+002, 3.022912e+005
2.625907e+002, 3.019929e+005
2.630728e+002, 3.017241e+005
2.635549e+002, 3.015002e+005
2.640370e+002, 3.012796e+005
2.645192e+002, 3.010108e+005
2.650013e+002, 3.007364e+005
2.654834e+002, 3.005389e+005
2.659655e+002, 3.004951e+005
2.664476e+002, 3.005385e+005
2.669297e+002, 3.004216e+005
2.674119e+002, 3.000499e+005
2.678940e+002, 2.996628e+005
2.683761e+002, 2.993028e+005
2.688582e+002, 2.989843e+005
2.693403e+002, 2.987311e+005
2.698224e+002, 2.985646e+005
2.703046e+002, 2.984529e+005
2.707867e+002, 2.983022e+005
2.712688e+002, 2.980679e+005
2.717509e+002, 2.978797e+005
2.722330e+002, 2.977725e+005
2.727151e+002, 2.977126e+005
2.731973e+002, 2.976712e+005
2.736794e+002, 2.976375e+005
2.741615e+002, 2.976045e+005
2.746436e+002, 2.975597e+005
2.751257e+002, 2.975097e+005
2.756078e+002, 2.974273e+005
2.760900e+002, 2.972843e+005
2.765721e+002, 2.971263e+005
2.770542e+002, 2.969736e+005
2.775363e+002, 2.968357e+005
2.780184e+002, 2.967409e+005
2.785005e+002, 2.967576e+005
2.789827e+002, 2.969818e+005
2.794648e+002, 2.970986e+005
2.799469e+002, 2.970448e+005
2.804290e+002, 2.969322e+005
2.809111e+002, 2.968184e+005
2.813932e+002, 2.967219e+005
2.818754e+002, 2.966451e+005
2.823575e+002, 2.965937e+005
2.828396e+002, 2.965773e+005
2.833217e+002, 2.965622e+005
2.838038e+002, 2.965277e+005
2.842859e+002, 2.965116e+005
2.847681e+002, 2.965479e+005
2.852502e+002, 2.966293e+005
2.857323e+002, 2.967166e+005
2.862144e+002, 2.967708e+005
2.866965e+002, 2.967894e+005
2.871786e+002, 2.967876e+005
2.876608e+002, 2.967656e+005
2.881429e+002, 2.967257e+005
2.886250e+002, 2.966432e+005
2.891071e+002, 2.965395e+005
2.895892e+002, 2.964637e+005
2.900714e+002, 2.964550e+005
2.905535e+002, 2.965143e+005
2.910356e+002, 2.966137e+005
2.915177e+002, 2.968413e+005
2.919998e+002, 2.970186e+005
2.924819e+002, 2.970521e+005
2.929641e+002, 2.970026e+005
2.934462e+002, 2.969895e+005
2.939283e+002, 2.970929e+005
2.944104e+002, 2.972923e+005
2.948925e+002, 2.974491e+005
2.953746e+002, 2.975368e+005
2.958568e+002, 2.976065e+005
2.963389e+002, 2.976492e+005
2.968210e+002, 2.976807e+005
2.973031e+002, 2.977194e+005
2.977852e+002, 2.977737e+005
2.982673e+002, 2.978409e+005
2.987495e+002, 2.979135e+005
2.992316e+002, 2.979882e+005
2.997137e+002, 2.980712e+005
3.001958e+002, 2.981714e+005
3.006779e+002, 2.982743e+005
3.011600e+002, 2.983626e+005
3.016422e+002, 2.984309e+005
3.021243e+002, 2.984911e+005
3.026064e+002, 2.985669e+005
3.030885e+002, 2.986891e+005
3.035706e+002, 2.987687e+005
3.040527e+002, 2.987818e+005
3.045349e+002, 2.987723e+005
3.050170e+002, 2.987735e+005
3.054991e+002, 2.987908e+005
3.059812e+002, 2.988089e+005
3.064633e+002, 2.988088e+005
3.069454e+002, 2.987867e+005
3.074276e+002, 2.987611e+005
3.079097e+002, 2.987392e+005
3.083918e+002, 2.987116e+005
3.088739e+002, 2.986616e+005
3.093560e+002, 2.985987e+005
3.098381e+002, 2.985585e+005
3.103203e+002, 2.985793e+005
3.108024e+002, 2.986697e+005
3.112845e+002, 2.986981e+005
3.117666e+002, 2.986170e+005
3.122487e+002, 2.985338e+005
3.127308e+002, 2.984938e+005
3.132130e+002, 2.984806e+005
3.136951e+002, 2.984550e+005
3.141772e+002, 2.983919e+005
3.146593e+002, 2.982939e+005
3.151414e+002, 2.981835e+005
3.156235e+002, 2.980258e+005
3.161057e+002, 2.978912e+005
3.165878e+002, 2.978014e+005
3.170699e+002, 2.977365e+005
3.175520e+002, 2.976756e+005
3.180341e+002, 2.976094e+005
3.185162e+002, 2.975293e+005
3.189984e+002, 2.974148e+005
3.194805e+002, 2.972437e+005
3.199626e+002, 2.970632e+005
3.204447e+002, 2.968901e+005
3.209268e+002, 2.967013e+005
3.214089e+002, 2.964654e+005
3.218911e+002, 2.961779e+005
3.223732e+002, 2.958770e+005
3.228553e+002, 2.956165e+005
3.233374e+002, 2.954165e+005
3.238195e+002, 2.952170e+005
3.243016e+002, 2.950480e+005
3.247838e+002, 2.948582e+005
3.252659e+002, 2.946115e+005
3.257480e+002, 2.943082e+005
3.262301e+002, 2.939767e+005
3.267122e+002, 2.936393e+005
3.271943e+002, 2.932941e+005
3.276765e+002, 2.929599e+005
3.281586e+002, 2.926578e+005
3.286407e+002, 2.923413e+005
3.291228e+002, 2.919923e+005
3.296049e+002, 2.916118e+005
3.300870e+002, 2.912011e+005
3.305692e+002, 2.907573e+005
3.310513e+002, 2.902866e+005
3.315334e+002, 2.898474e+005
3.320155e+002, 2.894610e+005
3.324976e+002, 2.890813e+005
3.329797e+002, 2.887330e+005
3.334619e+002, 2.883803e+005
3.339440e+002, 2.879816e+005
3.344261e+002, 2.875180e+005
3.349082e+002, 2.870019e+005
3.353904e+002, 2.864506e+005
3.358725e+002, 2.858278e+005
3.363546e+002, 2.852367e+005
3.368367e+002, 2.847121e+005
3.373188e+002, 2.842005e+005
3.378009e+002, 2.836539e+005
3.382831e+002, 2.830667e+005
3.387652e+002, 2.824735e+005
3.392473e+002, 2.819267e+005
3.397294e+002, 2.814380e+005
3.402115e+002, 2.809532e+005
3.406936e+002, 2.805075e+005
3.411758e+002, 2.800327e+005
3.416579e+002, 2.794600e+005
3.421400e+002, 2.788156e+005
3.426221e+002, 2.781973e+005
3.431042e+002, 2.776924e+005
3.435863e+002, 2.772992e+005
3.440685e+002, 2.768835e+005
3.445506e+002, 2.764248e+005
3.450327e+002, 2.759607e+005
3.455148e+002, 2.755084e+005
3.459969e+002, 2.750543e+005
3.464790e+002, 2.745770e+005
3.469612e+002, 2.740605e+005
3.474433e+002, 2.735203e+005
3.479254e+002, 2.729899e+005
3.484075e+002, 2.724659e+005
3.488896e+002, 2.719669e+005
3.493717e+002, 2.715113e+005
3.498539e+002, 2.710738e+005
3.503360e+002, 2.706305e+005
3.508181e+002, 2.701765e+005
3.513002e+002, 2.697129e+005
3.517823e+002, 2.692274e+005
3.522644e+002, 2.686907e+005
3.527466e+002, 2.682340e+005
3.532287e+002, 2.679696e+005
3.537108e+002, 2.676977e+005
3.541929e+002, 2.672961e+005
3.546750e+002, 2.667780e+005
3.551571e+002, 2.662493e+005
3.556393e+002, 2.658107e+005
3.561214e+002, 2.654600e+005
3.566035e+002, 2.650738e+005
3.570856e+002, 2.645729e+005
3.575677e+002, 2.641399e+005
3.580498e+002, 2.638912e+005
3.585320e+002, 2.637441e+005
3.590141e+002, 2.635507e+005
3.594962e+002, 2.632218e+005
3.599783e+002, 2.628127e+005
3.604604e+002, 2.624754e+005
3.609425e+002, 2.622323e+005
3.614247e+002, 2.620068e+005
3.619068e+002, 2.617797e+005
3.623889e+002, 2.615555e+005
3.628710e+002, 2.613335e+005
3.633531e+002, 2.611125e+005
3.638352e+002, 2.609095e+005
3.643174e+002, 2.607326e+005
3.647995e+002, 2.605764e+005
3.652816e+002, 2.604984e+005
3.657637e+002, 2.606121e+005
3.662458e+002, 2.607142e+005
3.667279e+002, 2.606585e+005
3.672101e+002, 2.604583e+005
3.676922e+002, 2.602376e+005
3.681743e+002, 2.600873e+005
3.686564e+002, 2.599898e+005
3.691385e+002, 2.598541e+005
3.696206e+002, 2.596392e+005
3.701028e+002, 2.594603e+005
3.705849e+002, 2.594063e+005
3.710670e+002, 2.594305e+005
3.715491e+002, 2.594508e+005
3.720312e+002, 2.594216e+005
3.725133e+002, 2.593925e+005
3.729955e+002, 2.594581e+005
3.734776e+002, 2.596328e+005
3.739597e+002, 2.597597e+005
3.744418e+002, 2.597473e+005
3.749239e+002, 2.596631e+005
3.754060e+002, 2.595707e+005
3.758882e+002, 2.594529e+005
3.763703e+002, 2.594185e+005
3.768524e+002, 2.596093e+005
3.773345e+002, 2.599638e+005
3.778166e+002, 2.602208e+005
3.782987e+002, 2.602953e+005
3.787809e+002, 2.603044e+005
3.792630e+002, 2.603721e+005
3.797451e+002, 2.604912e+005
3.802272e+002, 2.606164e+005
3.807093e+002, 2.607328e+005
3.811914e+002, 2.608470e+005
3.816736e+002, 2.609691e+005
3.821557e+002, 2.610995e+005
3.826378e+002, 2.612311e+005
3.831199e+002, 2.613613e+005
3.836020e+002, 2.614874e+005
3.840841e+002, 2.616015e+005
3.845663e+002, 2.616799e+005
3.850484e+002, 2.617700e+005
3.855305e+002, 2.619083e+005
3.860126e+002, 2.620818e+005
3.864947e+002, 2.622462e+005
3.869768e+002, 2.623758e+005
3.874590e+002, 2.624995e+005
3.879411e+002, 2.626902e+005
3.884232e+002, 2.629772e+005
3.889053e+002, 2.632286e+005
3.893874e+002, 2.633931e+005
3.898695e+002, 2.635198e+005
3.903517e+002, 2.636681e+005
3.908338e+002, 2.638490e+005
3.913159e+002, 2.640262e+005
3.917980e+002, 2.641566e+005
3.922801e+002, 2.642298e+005
3.927622e+002, 2.643609e+005
3.932444e+002, 2.646112e+005
3.937265e+002, 2.648566e+005
3.942086e+002, 2.650334e+005
3.946907e+002, 2.651530e+005
3.951728e+002, 2.652546e+005
3.956549e+002, 2.653584e+005
3.961371e+002, 2.654663e+005
3.966192e+002, 2.655817e+005
3.971013e+002, 2.656950e+005
3.975834e+002, 2.658289e+005
3.980655e+002, 2.659869e+005
3.985476e+002, 2.661648e+005
3.990298e+002, 2.663730e+005
3.995119e+002, 2.666081e+005
3.999940e+002, 2.668327e+005
4.004761e+002, 2.669892e+005
4.009582e+002, 2.670408e+005
4.014403e+002, 2.671533e+005
4.019225e+002, 2.673606e+005
4.024046e+002, 2.675871e+005
4.028867e+002, 2.678234e+005
4.033688e+002, 2.680504e+005
4.038509e+002, 2.682301e+005
4.043330e+002, 2.683262e+005
4.048152e+002, 2.683630e+005
4.052973e+002, 2.684846e+005
4.057794e+002, 2.687682e+005
4.062615e+002, 2.690227e+005
4.067436e+002, 2.691814e+005
4.072257e+002, 2.693115e+005
4.077079e+002, 2.694873e+005
4.081900e+002, 2.697311e+005
4.086721e+002, 2.699898e+005
4.091542e+002, 2.701890e+005
4.096363e+002, 2.703209e+005
4.101184e+002, 2.704453e+005
4.106006e+002, 2.705229e+005
4.110827e+002, 2.706375e+005
4.115648e+002, 2.708555e+005
4.120469e+002, 2.711545e+005
4.125290e+002, 2.714516e+005
4.130111e+002, 2.716982e+005
4.134933e+002, 2.719029e+005
4.139754e+002, 2.720806e+005
4.144575e+002, 2.722118e+005
4.149396e+002, 2.723724e+005
4.154217e+002, 2.726020e+005
4.159038e+002, 2.728812e+005
4.163860e+002, 2.731994e+005
4.168681e+002, 2.735660e+005
4.173502e+002, 2.739355e+005
4.178323e+002, 2.742577e+005
4.183144e+002, 2.745380e+005
4.187965e+002, 2.748153e+005
4.192787e+002, 2.751019e+005
4.197608e+002, 2.753844e+005
4.202429e+002, 2.756441e+005
4.207250e+002, 2.758818e+005
4.212071e+002, 2.761243e+005
4.216892e+002, 2.763781e+005
4.221714e+002, 2.766431e+005
4.226535e+002, 2.769218e+005
4.231356e+002, 2.772139e+005
4.236177e+002, 2.775051e+005
4.240998e+002, 2.777839e+005
4.245819e+002, 2.780548e+005
4.250641e+002, 2.783328e+005
4.255462e+002, 2.785976e+005
4.260283e+002, 2.788957e+005
4.265104e+002, 2.792784e+005
4.269925e+002, 2.797057e+005
4.274746e+002, 2.800998e+005
4.279568e+002, 2.804378e+005
4.284389e+002, 2.807372e+005
4.289210e+002, 2.810256e+005
4.294031e+002, 2.813021e+005
4.298852e+002, 2.815739e+005
4.303673e+002, 2.818261e+005
4.308495e+002, 2.820890e+005
4.313316e+002, 2.824019e+005
4.318137e+002, 2.827518e+005
4.322958e+002, 2.830806e+005
4.327779e+002, 2.833419e+005
4.332600e+002, 2.835492e+005
4.337422e+002, 2.838080e+005
4.342243e+002, 2.841631e+005
4.347064e+002, 2.845164e+005
4.351885e+002, 2.848545e+005
4.356706e+002, 2.851830e+005
4.361527e+002, 2.854981e+005
4.366349e+002, 2.858016e+005
4.371170e+002, 2.861132e+005
4.375991e+002, 2.864588e+005
4.380812e+002, 2.868362e+005
4.385633e+002, 2.872527e+005
4.390454e+002, 2.878008e+005
4.395276e+002, 2.882973e+005
4.400097e+002, 2.886618e+005
4.404918e+002, 2.889140e+005
4.409739e+002, 2.891078e+005
4.414560e+002, 2.892568e+005
4.419381e+002, 2.893925e+005
4.424203e+002, 2.896216e+005
4.429024e+002, 2.899877e+005
4.433845e+002, 2.903321e+005
4.438666e+002, 2.906103e+005
4.443487e+002, 2.908472e+005
4.448308e+002, 2.910417e+005
4.453130e+002, 2.911942e+005
4.457951e+002, 2.913738e+005
4.462772e+002, 2.916668e+005
4.467593e+002, 2.920468e+005
4.472414e+002, 2.923613e+005
4.477235e+002, 2.925596e+005
4.482057e+002, 2.927607e+005
4.486878e+002, 2.930973e+005
4.491699e+002, 2.935090e+005
4.496520e+002, 2.938440e+005
4.501341e+002, 2.940089e+005
4.506162e+002, 2.941332e+005
4.510984e+002, 2.943223e+005
4.515805e+002, 2.945727e+005
4.520626e+002, 2.948754e+005
4.525447e+002, 2.952496e+005
4.530268e+002, 2.956416e+005
4.535089e+002, 2.959330e+005
4.539911e+002, 2.961036e+005
4.544732e+002, 2.962966e+005
4.549553e+002, 2.965464e+005
4.554374e+002, 2.968312e+005
4.559195e+002, 2.971435e+005
4.564016e+002, 2.974768e+005
4.568838e+002, 2.977936e+005
4.573659e+002, 2.980662e+005
4.578480e+002, 2.982952e+005
4.583301e+002, 2.984986e+005
4.588122e+002, 2.986465e+005
4.592943e+002, 2.988093e+005
4.597765e+002, 2.990321e+005
4.602586e+002, 2.992706e+005
4.607407e+002, 2.994748e+005
4.612228e+002, 2.996258e+005
4.617049e+002, 2.997248e+005
4.621870e+002, 2.997611e+005
4.626692e+002, 2.996951e+005
4.631513e+002, 2.996999e+005
4.636334e+002, 2.998063e+005
4.641155e+002, 2.999518e+005
4.645976e+002, 3.001358e+005
4.650797e+002, 3.003393e+005
4.655619e+002, 3.005306e+005
4.660440e+002, 3.006892e+005
4.665261e+002, 3.008262e+005
4.670082e+002, 3.009596e+005
4.674903e+002, 3.010667e+005
4.679724e+002, 3.012344e+005
4.684546e+002, 3.015569e+005
4.689367e+002, 3.018974e+005
4.694188e+002, 3.021552e+005
4.699009e+002, 3.023217e+005
4.703830e+002, 3.024498e+005
4.708651e+002, 3.025624e+005
4.713473e+002, 3.026657e+005
4.718294e+002, 3.027870e+005
4.723115e+002, 3.029300e+005
4.727936e+002, 3.030774e+005
4.732757e+002, 3.032159e+005
4.737578e+002, 3.033483e+005
4.742400e+002, 3.034804e+005
4.747221e+002, 3.036157e+005
4.752042e+002, 3.037448e+005
4.756863e+002, 3.038543e+005
4.761684e+002, 3.039528e+005
4.766505e+002, 3.040626e+005
4.771327e+002, 3.041907e+005
4.776148e+002, 3.043379e+005
4.780969e+002, 3.045198e+005
4.785790e+002, 3.047482e+005
4.790611e+002, 3.049214e+005
4.795432e+002, 3.050116e+005
4.800254e+002, 3.050681e+005
4.805075e+002, 3.051198e+005
4.809896e+002, 3.051671e+005
4.814717e+002, 3.051886e+005
4.819538e+002, 3.051672e+005
4.824359e+002, 3.051394e+005
4.829181e+002, 3.052111e+005
4.834002e+002, 3.054946e+005
4.838823e+002, 3.057161e+005
4.843644e+002, 3.058307e+005
4.848465e+002, 3.059156e+005
4.853286e+002, 3.060206e+005
4.858108e+002, 3.061511e+005
4.862929e+002, 3.062866e+005
4.867750e+002, 3.064043e+005
4.872571e+002, 3.065096e+005
4.877392e+002, 3.066674e+005
4.882213e+002, 3.069180e+005
4.887035e+002, 3.071514e+005
4.891856e+002, 3.073108e+005
4.896677e+002, 3.074527e+005
4.901498e+002, 3.076482e+005
4.906319e+002, 3.079143e+005
4.911140e+002, 3.081722e+005
4.915962e+002, 3.083257e+005
4.920783e+002, 3.083899e+005
4.925604e+002, 3.084954e+005
4.930425e+002, 3.086879e+005
4.935246e+002, 3.088596e+005
4.940067e+002, 3.088993e+005
4.944889e+002, 3.088612e+005
4.949710e+002, 3.088653e+005
4.954531e+002, 3.089637e+005
4.959352e+002, 3.090843e+005
4.964173e+002, 3.091814e+005
4.968994e+002, 3.092556e+005
4.973816e+002, 3.092950e+005
4.978637e+002, 3.092827e+005
4.983458e+002, 3.092790e+005
4.988279e+002, 3.093817e+005
4.993100e+002, 3.096172e+005
4.997921e+002, 3.098290e+005
5.002743e+002, 3.100213e+005
5.007564e+002, 3.101754e+005
5.012385e+002, 3.102533e+005
5.017206e+002, 3.102797e+005
5.022027e+002, 3.103169e+005
5.026848e+002, 3.103987e+005
5.031670e+002, 3.105212e+005
5.036491e+002, 3.106740e+005
5.041312e+002, 3.108841e+005
5.046133e+002, 3.110814e+005
5.050954e+002, 3.112786e+005
5.055775e+002, 3.114522e+005
5.060597e+002, 3.115674e+005
5.065418e+002, 3.116384e+005
5.070239e+002, 3.117219e+005
5.075060e+002, 3.118687e+005
5.079881e+002, 3.120617e+005
5.084702e+002, 3.122168e+005
5.089524e+002, 3.123231e+005
5.094345e+002, 3.124174e+005
5.099166e+002, 3.124728e+005
5.103987e+002, 3.125441e+005
5.108808e+002, 3.126982e+005
5.113629e+002, 3.129459e+005
5.118451e+002, 3.131971e+005
5.123271e+002, 3.133941e+005
5.128093e+002, 3.135424e+005
5.132914e+002, 3.136452e+005
5.137735e+002, 3.136954e+005
5.142556e+002, 3.137368e+005
5.147377e+002, 3.137733e+005
5.152198e+002, 3.138287e+005
5.157020e+002, 3.139736e+005
5.161841e+002, 3.142654e+005
5.166662e+002, 3.145642e+005
5.171483e+002, 3.148388e+005
5.176304e+002, 3.150703e+005
5.181125e+002, 3.152089e+005
5.185947e+002, 3.152444e+005
5.190768e+002, 3.152572e+005
5.195589e+002, 3.153404e+005
5.200410e+002, 3.155078e+005
5.205231e+002, 3.156099e+005
5.210052e+002, 3.155428e+005
5.214874e+002, 3.155380e+005
5.219695e+002, 3.156938e+005
5.224516e+002, 3.159497e+005
5.229337e+002, 3.162395e+005
5.234158e+002, 3.165357e+005
5.238979e+002, 3.167916e+005
5.243801e+002, 3.169182e+005
5.248622e+002, 3.168809e+005
5.253443e+002, 3.169005e+005
5.258264e+002, 3.170095e+005
5.263085e+002, 3.171531e+005
5.267906e+002, 3.173310e+005
5.272728e+002, 3.175211e+005
5.277549e+002, 3.176836e+005
5.282370e+002, 3.177990e+005
5.287191e+002, 3.178864e+005
5.292012e+002, 3.179623e+005
5.296833e+002, 3.180272e+005
5.301655e+002, 3.180987e+005
5.306476e+002, 3.181703e+005
5.311297e+002, 3.182651e+005
5.316118e+002, 3.184447e+005
5.320939e+002, 3.186924e+005
5.325760e+002, 3.188599e+005
5.330582e+002, 3.188209e+005
5.335403e+002, 3.187749e+005
5.340224e+002, 3.188947e+005
5.345045e+002, 3.191393e+005
5.349866e+002, 3.193744e+005
5.354688e+002, 3.195429e+005
5.359509e+002, 3.196659e+005
5.364330e+002, 3.197784e+005
5.369151e+002, 3.198713e+005
5.373972e+002, 3.199803e+005
5.378793e+002, 3.201343e+005
5.383615e+002, 3.202783e+005
5.388436e+002, 3.203728e+005
5.393257e+002, 3.204321e+005
5.398078e+002, 3.204850e+005
5.402899e+002, 3.205428e+005
5.407720e+002, 3.206252e+005
5.412542e+002, 3.207980e+005
5.417363e+002, 3.211029e+005
5.422184e+002, 3.213470e+005
5.427005e+002, 3.214520e+005
5.431826e+002, 3.215238e+005
5.436647e+002, 3.216157e+005
5.441469e+002, 3.217258e+005
5.446290e+002, 3.218369e+005
5.451111e+002, 3.219464e+005
5.455932e+002, 3.220466e+005
5.460753e+002, 3.221203e+005
5.465574e+002, 3.221683e+005
5.470396e+002, 3.222183e+005
5.475217e+002, 3.222746e+005
5.480038e+002, 3.223454e+005
5.484859e+002, 3.224645e+005
5.489680e+002, 3.226431e+005
5.494501e+002, 3.227629e+005
5.499323e+002, 3.227696e+005
5.504144e+002, 3.227391e+005
5.508965e+002, 3.227317e+005
5.513786e+002, 3.227421e+005
5.518607e+002, 3.227300e+005
5.523428e+002, 3.226715e+005
5.528250e+002, 3.225929e+005
5.533071e+002, 3.225603e+005
5.537892e+002, 3.226034e+005
5.542713e+002, 3.226416e+005
5.547534e+002, 3.226763e+005
5.552355e+002, 3.227074e+005
5.557177e+002, 3.227330e+005
5.561998e+002, 3.227557e+005
5.566819e+002, 3.227824e+005
5.571640e+002, 3.228177e+005
5.576461e+002, 3.228588e+005
5.581282e+002, 3.228956e+005
5.586104e+002, 3.229257e+005
5.590925e+002, 3.229706e+005
5.595746e+002, 3.230480e+005
5.600567e+002, 3.231284e+005
5.605388e+002, 3.231737e+005
5.610209e+002, 3.231911e+005
5.615031e+002, 3.232375e+005
5.619852e+002, 3.233324e+005
5.624673e+002, 3.234658e+005
5.629494e+002, 3.236523e+005
5.634315e+002, 3.238757e+005
5.639136e+002, 3.240578e+005
5.643958e+002, 3.241614e+005
5.648779e+002, 3.242244e+005
5.653600e+002, 3.243094e+005
5.658421e+002, 3.244178e+005
5.663242e+002, 3.245457e+005
5.668063e+002, 3.247155e+005
5.672885e+002, 3.248826e+005
5.677706e+002, 3.250532e+005
5.682527e+002, 3.251972e+005
5.687348e+002, 3.252339e+005
5.692169e+002, 3.251206e+005
5.696990e+002, 3.249618e+005
5.701812e+002, 3.249731e+005
5.706633e+002, 3.251997e+005
5.711454e+002, 3.254189e+005
5.716275e+002, 3.256780e+005
5.721096e+002, 3.258575e+005
5.725917e+002, 3.258186e+005
5.730739e+002, 3.256616e+005
5.735560e+002, 3.256247e+005
5.740381e+002, 3.258476e+005
5.745202e+002, 3.261397e+005
5.750023e+002, 3.262799e+005
5.754844e+002, 3.262946e+005
5.759666e+002, 3.263264e+005
5.764487e+002, 3.264115e+005
5.769308e+002, 3.265199e+005
5.774129e+002, 3.266278e+005
5.778950e+002, 3.267343e+005
5.783771e+002, 3.268168e+005
5.788593e+002, 3.268501e+005
5.793414e+002, 3.268839e+005
5.798235e+002, 3.269349e+005
5.803056e+002, 3.270015e+005
5.807877e+002, 3.270678e+005
5.812698e+002, 3.271326e+005
5.817520e+002, 3.272403e+005
5.822341e+002, 3.274826e+005
5.827162e+002, 3.279018e+005
5.831984e+002, 3.280499e+005
5.836805e+002, 3.276284e+005
5.841626e+002, 3.273023e+005
5.846447e+002, 3.273219e+005
5.851268e+002, 3.275051e+005
5.856089e+002, 3.276283e+005
5.860911e+002, 3.276313e+005
5.865732e+002, 3.276138e+005
5.870553e+002, 3.276833e+005
5.875374e+002, 3.278109e+005
5.880195e+002, 3.278768e+005
5.885016e+002, 3.278614e+005
5.889838e+002, 3.278414e+005
5.894659e+002, 3.278825e+005
5.899480e+002, 3.279494e+005
5.904301e+002, 3.279308e+005
5.909122e+002, 3.277464e+005
5.913943e+002, 3.276395e+005
5.918765e+002, 3.277473e+005
5.923586e+002, 3.279325e+005
5.928407e+002, 3.280315e+005
5.933228e+002, 3.280425e+005
5.938049e+002, 3.280999e+005
5.942870e+002, 3.283212e+005
5.947692e+002, 3.286429e+005
5.952513e+002, 3.287601e+005
5.957334e+002, 3.285187e+005
5.962155e+002, 3.283415e+005
5.966976e+002, 3.282643e+005
5.971797e+002, 3.282629e+005
5.976619e+002, 3.283530e+005
5.981440e+002, 3.285099e+005
5.986261e+002, 3.286508e+005
5.991082e+002, 3.287011e+005
5.995903e+002, 3.287259e+005
6.000724e+002, 3.288762e+005
6.005546e+002, 3.291510e+005
6.010367e+002, 3.293402e+005
6.015188e+002, 3.293380e+005
6.020009e+002, 3.292789e+005
6.024830e+002, 3.293546e+005
6.029651e+002, 3.295592e+005
6.034473e+002, 3.296941e+005
6.039294e+002, 3.296923e+005
6.044115e+002, 3.296492e+005
6.048936e+002, 3.296045e+005
6.053757e+002, 3.295660e+005
6.058578e+002, 3.295452e+005
6.063400e+002, 3.295468e+005
6.068221e+002, 3.295590e+005
6.073042e+002, 3.295636e+005
6.077863e+002, 3.295594e+005
6.082684e+002, 3.295745e+005
6.087505e+002, 3.296779e+005
6.092327e+002, 3.297242e+005
6.097148e+002, 3.296005e+005
6.101969e+002, 3.294332e+005
6.106790e+002, 3.294004e+005
6.111611e+002, 3.295549e+005
6.116432e+002, 3.297282e+005
6.121254e+002, 3.297513e+005
6.126075e+002, 3.296745e+005
6.130896e+002, 3.296603e+005
6.135717e+002, 3.297269e+005
6.140538e+002, 3.297982e+005
6.145359e+002, 3.298188e+005
6.150181e+002, 3.298127e+005
6.155002e+002, 3.298512e+005
6.159823e+002, 3.299373e+005
6.164644e+002, 3.300458e+005
6.169465e+002, 3.302142e+005
6.174286e+002, 3.303684e+005
6.179108e+002, 3.304102e+005
6.183929e+002, 3.303712e+005
6.188750e+002, 3.303833e+005
6.193571e+002, 3.305342e+005
6.198392e+002, 3.307643e+005
6.203214e+002, 3.309168e+005
6.208035e+002, 3.309729e+005
6.212856e+002, 3.310123e+005
6.217677e+002, 3.310385e+005
6.222498e+002, 3.310563e+005
6.227319e+002, 3.310576e+005
6.232141e+002, 3.310539e+005
6.236962e+002, 3.310767e+005
6.241783e+002, 3.311542e+005
6.246604e+002, 3.312352e+005
6.251425e+002, 3.312572e+005
6.256246e+002, 3.312409e+005
6.261068e+002, 3.312662e+005
6.265889e+002, 3.313565e+005
6.270710e+002, 3.314276e+005
6.275531e+002, 3.313756e+005
6.280352e+002, 3.312112e+005
6.285173e+002, 3.312008e+005
6.289995e+002, 3.314478e+005
6.294816e+002, 3.316908e+005
6.299637e+002, 3.318842e+005
6.304458e+002, 3.320419e+005
6.309279e+002, 3.321747e+005
6.314100e+002, 3.322856e+005
6.318922e+002, 3.323793e+005
6.323743e+002, 3.324607e+005
6.328564e+002, 3.325246e+005
6.333385e+002, 3.325386e+005
6.338206e+002, 3.324719e+005
6.343027e+002, 3.324774e+005
6.347849e+002, 3.326717e+005
6.352670e+002, 3.328834e+005
6.357491e+002, 3.329310e+005
6.362312e+002, 3.328307e+005
6.367133e+002, 3.327532e+005
6.371954e+002, 3.327852e+005
6.376776e+002, 3.328309e+005
6.381597e+002, 3.328168e+005
6.386418e+002, 3.327570e+005
6.391239e+002, 3.326927e+005
6.396060e+002, 3.326388e+005
6.400881e+002, 3.325673e+005
6.405703e+002, 3.324315e+005
6.410524e+002, 3.322200e+005
6.415345e+002, 3.321062e+005
6.420166e+002, 3.322047e+005
6.424987e+002, 3.322747e+005
6.429808e+002, 3.322521e+005
6.434630e+002, 3.321910e+005
6.439451e+002, 3.321344e+005
6.444272e+002, 3.320958e+005
6.449093e+002, 3.320941e+005
6.453914e+002, 3.321769e+005
6.458735e+002, 3.322999e+005
6.463557e+002, 3.323442e+005
6.468378e+002, 3.323058e+005
6.473199e+002, 3.322672e+005
6.478020e+002, 3.322623e+005
6.482841e+002, 3.322727e+005
6.487662e+002, 3.322658e+005
6.492484e+002, 3.322313e+005
6.497305e+002, 3.322269e+005
6.502126e+002, 3.322893e+005
6.506947e+002, 3.323475e+005
6.511768e+002, 3.323445e+005
6.516589e+002, 3.323136e+005
6.521411e+002, 3.323095e+005
6.526232e+002, 3.323533e+005
6.531053e+002, 3.324411e+005
6.535874e+002, 3.325902e+005
6.540695e+002, 3.328015e+005
6.545516e+002, 3.329290e+005
6.550338e+002, 3.329404e+005
6.555159e+002, 3.329302e+005
6.559980e+002, 3.329338e+005
6.564801e+002, 3.329387e+005
6.569622e+002, 3.329320e+005
6.574443e+002, 3.329123e+005
6.579265e+002, 3.328784e+005
6.584086e+002, 3.328239e+005
6.588907e+002, 3.327588e+005
6.593728e+002, 3.326640e+005
6.598549e+002, 3.325615e+005
6.603370e+002, 3.325566e+005
6.608192e+002, 3.327053e+005
6.613013e+002, 3.328981e+005
6.617834e+002, 3.329317e+005
6.622655e+002, 3.327393e+005
6.627476e+002, 3.326396e+005
6.632297e+002, 3.326431e+005
6.637119e+002, 3.327330e+005
6.641940e+002, 3.330246e+005
6.646761e+002, 3.333512e+005
6.651582e+002, 3.334727e+005
6.656403e+002, 3.333260e+005
6.661224e+002, 3.331245e+005
6.666046e+002, 3.330418e+005
6.670867e+002, 3.330369e+005
6.675688e+002, 3.330077e+005
6.680509e+002, 3.329492e+005
6.685330e+002, 3.329146e+005
6.690151e+002, 3.329422e+005
6.694973e+002, 3.329934e+005
6.699794e+002, 3.329870e+005
6.704615e+002, 3.328870e+005
6.709436e+002, 3.328283e+005
6.714257e+002, 3.328295e+005
6.719078e+002, 3.328544e+005
6.723900e+002, 3.328859e+005
6.728721e+002, 3.329257e+005
6.733542e+002, 3.329880e+005
6.738363e+002, 3.330756e+005
6.743184e+002, 3.331529e+005
6.748005e+002, 3.331465e+005
6.752827e+002, 3.330729e+005
6.757648e+002, 3.331341e+005
6.762469e+002, 3.333872e+005
6.767290e+002, 3.335827e+005
6.772111e+002, 3.336018e+005
6.776932e+002, 3.334889e+005
6.781754e+002, 3.332959e+005
6.786575e+002, 3.329847e+005
6.791396e+002, 3.328078e+005
6.796217e+002, 3.329579e+005
6.801038e+002, 3.331461e+005
6.805859e+002, 3.331283e+005
6.810681e+002, 3.329775e+005
6.815502e+002, 3.328962e+005
6.820323e+002, 3.329639e+005
6.825144e+002, 3.330790e+005
6.829965e+002, 3.330769e+005
6.834786e+002, 3.329438e+005
6.839608e+002, 3.329459e+005
6.844429e+002, 3.331810e+005
6.849250e+002, 3.333728e+005
6.854071e+002, 3.333732e+005
6.858892e+002, 3.332899e+005
6.863713e+002, 3.332060e+005
6.868535e+002, 3.331245e+005
6.873356e+002, 3.331343e+005
6.878177e+002, 3.333514e+005
6.882998e+002, 3.336181e+005
6.887819e+002, 3.337855e+005
6.892640e+002, 3.338608e+005
6.897462e+002, 3.338847e+005
6.902283e+002, 3.338729e+005
6.907104e+002, 3.338480e+005
6.911925e+002, 3.338408e+005
6.916746e+002, 3.338522e+005
6.921567e+002, 3.338829e+005
6.926389e+002, 3.340041e+005
6.931210e+002, 3.340472e+005
6.936031e+002, 3.339037e+005
6.940852e+002, 3.337092e+005
6.945673e+002, 3.336011e+005
6.950494e+002, 3.335953e+005
6.955316e+002, 3.336166e+005
6.960137e+002, 3.336185e+005
6.964958e+002, 3.336242e+005
6.969779e+002, 3.336878e+005
6.974600e+002, 3.337895e+005
6.979421e+002, 3.338360e+005
6.984243e+002, 3.337932e+005
6.989064e+002, 3.336906e+005
6.993885e+002, 3.335455e+005
6.998706e+002, 3.333448e+005
7.003527e+002, 3.332799e+005
7.008348e+002, 3.335234e+005
7.013170e+002, 3.336938e+005
7.017991e+002, 3.336576e+005
7.022812e+002, 3.335651e+005
7.027633e+002, 3.335509e+005
7.032454e+002, 3.336284e+005
7.037275e+002, 3.337344e+005
7.042097e+002, 3.338388e+005
7.046918e+002, 3.339409e+005
7.051739e+002, 3.340712e+005
7.056560e+002, 3.342119e+005
7.061381e+002, 3.342087e+005
7.066202e+002, 3.339908e+005
7.071024e+002, 3.337763e+005
7.075845e+002, 3.338057e+005
7.080666e+002, 3.340719e+005
7.085487e+002, 3.342342e+005
7.090308e+002, 3.341987e+005
7.095129e+002, 3.341844e+005
7.099951e+002, 3.342204e+005
7.104772e+002, 3.342898e+005
7.109593e+002, 3.344022e+005
7.114414e+002, 3.345371e+005
7.119235e+002, 3.346384e+005
7.124056e+002, 3.346832e+005
7.128878e+002, 3.346611e+005
7.133699e+002, 3.345017e+005
7.138520e+002, 3.342368e+005
7.143341e+002, 3.341156e+005
7.148162e+002, 3.342060e+005
7.152983e+002, 3.343447e+005
7.157805e+002, 3.344187e+005
7.162626e+002, 3.344308e+005
7.167447e+002, 3.343880e+005
7.172268e+002, 3.342147e+005
7.177089e+002, 3.341039e+005
7.181910e+002, 3.341323e+005
7.186732e+002, 3.341781e+005
7.191553e+002, 3.341438e+005
7.196374e+002, 3.340547e+005
7.201195e+002, 3.339929e+005
7.206016e+002, 3.340001e+005
7.210837e+002, 3.340356e+005
7.215659e+002, 3.340363e+005
7.220480e+002, 3.340141e+005
7.225301e+002, 3.340557e+005
7.230122e+002, 3.341848e+005
7.234943e+002, 3.342709e+005
7.239764e+002, 3.342126e+005
7.244586e+002, 3.340765e+005
7.249407e+002, 3.340390e+005
7.254228e+002, 3.341524e+005
7.259049e+002, 3.342289e+005
7.263870e+002, 3.342039e+005
7.268691e+002, 3.341932e+005
7.273513e+002, 3.342953e+005
7.278334e+002, 3.344455e+005
7.283155e+002, 3.345330e+005
7.287976e+002, 3.345218e+005
7.292797e+002, 3.344581e+005
7.297618e+002, 3.343623e+005
7.302440e+002, 3.342543e+005
7.307261e+002, 3.342195e+005
7.312082e+002, 3.342669e+005
7.316903e+002, 3.342818e+005
7.321724e+002, 3.341875e+005
7.326545e+002, 3.340941e+005
7.331367e+002, 3.342015e+005
7.336188e+002, 3.345852e+005
7.341009e+002, 3.347226e+005
7.345830e+002, 3.343585e+005
7.350651e+002, 3.340571e+005
7.355472e+002, 3.340652e+005
7.360294e+002, 3.342061e+005
7.365115e+002, 3.342682e+005
7.369936e+002, 3.342238e+005
7.374757e+002, 3.341894e+005
7.379578e+002, 3.342731e+005
7.384399e+002, 3.344008e+005
7.389221e+002, 3.343908e+005
7.394042e+002, 3.342564e+005
7.398863e+002, 3.342268e+005
7.403684e+002, 3.343821e+005
7.408505e+002, 3.345637e+005
7.413326e+002, 3.346335e+005
7.418148e+002, 3.345962e+005
7.422969e+002, 3.345082e+005
7.427790e+002, 3.343208e+005
7.432611e+002, 3.341548e+005
7.437432e+002, 3.339570e+005
7.442253e+002, 3.338434e+005
7.447075e+002, 3.339805e+005
7.451896e+002, 3.342748e+005
7.456717e+002, 3.344685e+005
7.461538e+002, 3.344326e+005
7.466359e+002, 3.342895e+005
7.471180e+002, 3.341472e+005
7.476002e+002, 3.340197e+005
7.480823e+002, 3.339702e+005
7.485644e+002, 3.340096e+005
7.490465e+002, 3.340498e+005
7.495286e+002, 3.340419e+005
7.500107e+002, 3.339992e+005
7.504929e+002, 3.339534e+005
7.509750e+002, 3.339041e+005
7.514571e+002, 3.338524e+005
7.519392e+002, 3.337556e+005
7.524213e+002, 3.337038e+005
7.529034e+002, 3.338005e+005
7.533856e+002, 3.339318e+005
7.538677e+002, 3.339195e+005
7.543498e+002, 3.337301e+005
7.548319e+002, 3.335497e+005
7.553140e+002, 3.335524e+005
7.557961e+002, 3.336322e+005
7.562783e+002, 3.335754e+005
7.567604e+002, 3.334167e+005
7.572425e+002, 3.333887e+005
7.577246e+002, 3.335774e+005
7.582067e+002, 3.338292e+005
7.586888e+002, 3.339677e+005
7.591710e+002, 3.339931e+005
7.596531e+002, 3.339959e+005
7.601352e+002, 3.339487e+005
7.606173e+002, 3.339177e+005
7.610994e+002, 3.339289e+005
7.615815e+002, 3.339425e+005
7.620637e+002, 3.339124e+005
7.625458e+002, 3.338551e+005
7.630279e+002, 3.338417e+005
7.635100e+002, 3.339375e+005
7.639921e+002, 3.340150e+005
7.644742e+002, 3.339353e+005
7.649564e+002, 3.337762e+005
7.654385e+002, 3.337053e+005
7.659206e+002, 3.337262e+005
7.664027e+002, 3.336725e+005
7.668848e+002, 3.334237e+005
7.673669e+002, 3.331066e+005
7.678491e+002, 3.330503e+005
7.683312e+002, 3.333612e+005
7.688133e+002, 3.335385e+005
7.692954e+002, 3.335242e+005
7.697775e+002, 3.334434e+005
7.702596e+002, 3.333082e+005
7.707418e+002, 3.331607e+005
7.712239e+002, 3.330637e+005
7.717060e+002, 3.330278e+005
7.721881e+002, 3.329829e+005
7.726702e+002, 3.328534e+005
7.731523e+002, 3.327480e+005
7.736345e+002, 3.328004e+005
7.741166e+002, 3.329342e+005
7.745987e+002, 3.329830e+005
7.750808e+002, 3.329051e+005
7.755629e+002, 3.327922e+005
7.760450e+002, 3.327334e+005
7.765272e+002, 3.327183e+005
7.770093e+002, 3.326852e+005
7.774914e+002, 3.326204e+005
7.779735e+002, 3.326312e+005
7.784556e+002, 3.328096e+005
7.789377e+002, 3.329677e+005
7.794199e+002, 3.329035e+005
7.799020e+002, 3.326672e+005
7.803841e+002, 3.325101e+005
7.808662e+002, 3.324809e+005
7.813483e+002, 3.324708e+005
7.818304e+002, 3.324537e+005
7.823126e+002, 3.324424e+005
7.827947e+002, 3.324560e+005
7.832768e+002, 3.324816e+005
7.837589e+002, 3.324775e+005
7.842410e+002, 3.324223e+005
7.847231e+002, 3.323777e+005
7.852053e+002, 3.324552e+005
7.856874e+002, 3.326091e+005
7.861695e+002, 3.326316e+005
7.866516e+002, 3.325055e+005
7.871337e+002, 3.324326e+005
7.876158e+002, 3.325253e+005
7.880980e+002, 3.326605e+005
7.885801e+002, 3.326440e+005
7.890622e+002, 3.324460e+005
7.895443e+002, 3.322993e+005
7.900264e+002, 3.322177e+005
7.905085e+002, 3.321726e+005
7.909907e+002, 3.321842e+005
7.914728e+002, 3.322122e+005
7.919549e+002, 3.322141e+005
7.924370e+002, 3.321937e+005
7.929191e+002, 3.321951e+005
7.934012e+002, 3.322729e+005
7.938834e+002, 3.323256e+005
7.943655e+002, 3.321997e+005
7.948476e+002, 3.319858e+005
7.953297e+002, 3.318997e+005
7.958118e+002, 3.319569e+005
7.962939e+002, 3.319930e+005
7.967761e+002, 3.318938e+005
7.972582e+002, 3.317324e+005
7.977403e+002, 3.317117e+005
7.982224e+002, 3.319003e+005
7.987045e+002, 3.319239e+005
7.991866e+002, 3.316661e+005
7.996688e+002, 3.314170e+005
8.001509e+002, 3.313000e+005
8.006330e+002, 3.312736e+005
8.011151e+002, 3.312875e+005
8.015972e+002, 3.313385e+005
8.020793e+002, 3.314779e+005
8.025615e+002, 3.318705e+005
8.030436e+002, 3.322047e+005
8.035257e+002, 3.322129e+005
8.040078e+002, 3.320732e+005
8.044899e+002, 3.320720e+005
8.049720e+002, 3.322434e+005
8.054542e+002, 3.323991e+005
8.059363e+002, 3.323892e+005
8.064184e+002, 3.322695e+005
8.069005e+002, 3.321470e+005
8.073826e+002, 3.320213e+005
8.078647e+002, 3.319317e+005
8.083469e+002, 3.318896e+005
8.088290e+002, 3.318478e+005
8.093111e+002, 3.317706e+005
8.097932e+002, 3.316688e+005
8.102753e+002, 3.315771e+005
8.107574e+002, 3.314788e+005
8.112396e+002, 3.314248e+005
8.117217e+002, 3.314051e+005
8.122038e+002, 3.314411e+005
8.126859e+002, 3.316403e+005
8.131680e+002, 3.318570e+005
8.136501e+002, 3.318748e+005
8.141323e+002, 3.316625e+005
8.146144e+002, 3.314318e+005
8.150965e+002, 3.313223e+005
8.155786e+002, 3.312560e+005
8.160607e+002, 3.311278e+005
8.165428e+002, 3.309705e+005
8.170250e+002, 3.308846e+005
8.175071e+002, 3.308875e+005
8.179892e+002, 3.308957e+005
8.184713e+002, 3.308346e+005
8.189534e+002, 3.307289e+005
8.194355e+002, 3.306801e+005
8.199177e+002, 3.307074e+005
8.203998e+002, 3.306886e+005
8.208819e+002, 3.305804e+005
8.213640e+002, 3.304738e+005
8.218461e+002, 3.304451e+005
8.223282e+002, 3.304491e+005
8.228104e+002, 3.303788e+005
8.232925e+002, 3.301893e+005
8.237746e+002, 3.301021e+005
8.242567e+002, 3.302922e+005
8.247388e+002, 3.304627e+005
8.252209e+002, 3.304433e+005
8.257031e+002, 3.303000e+005
8.261852e+002, 3.301102e+005
8.266673e+002, 3.299074e+005
8.271494e+002, 3.297426e+005
8.276315e+002, 3.296688e+005
8.281136e+002, 3.296404e+005
8.285958e+002, 3.295638e+005
8.290779e+002, 3.294568e+005
8.295600e+002, 3.294206e+005
8.300421e+002, 3.294752e+005
8.305242e+002, 3.295274e+005
8.310063e+002, 3.295009e+005
8.314885e+002, 3.294318e+005
8.319706e+002, 3.294443e+005
8.324527e+002, 3.295982e+005
8.329348e+002, 3.296656e+005
8.334169e+002, 3.295347e+005
8.338990e+002, 3.294550e+005
8.343812e+002, 3.295799e+005
8.348633e+002, 3.297768e+005
8.353454e+002, 3.298733e+005
8.358275e+002, 3.298508e+005
8.363096e+002, 3.298465e+005
8.367917e+002, 3.299619e+005
8.372739e+002, 3.300494e+005
8.377560e+002, 3.299916e+005
8.382381e+002, 3.298616e+005
8.387202e+002, 3.297628e+005
8.392023e+002, 3.297080e+005
8.396844e+002, 3.296488e+005
8.401666e+002, 3.295512e+005
8.406487e+002, 3.294396e+005
8.411308e+002, 3.293531e+005
8.416129e+002, 3.292912e+005
8.420950e+002, 3.292625e+005
8.425771e+002, 3.292723e+005
8.430593e+002, 3.292540e+005
8.435414e+002, 3.291651e+005
8.440235e+002, 3.290416e+005
8.445056e+002, 3.289494e+005
8.449877e+002, 3.288986e+005
8.454698e+002, 3.288341e+005
8.459520e+002, 3.287383e+005
8.464341e+002, 3.286549e+005
8.469162e+002, 3.285940e+005
8.473983e+002, 3.285517e+005
8.478804e+002, 3.285245e+005
8.483625e+002, 3.285133e+005
8.488447e+002, 3.285245e+005
8.493268e+002, 3.285827e+005
8.498089e+002, 3.286273e+005
8.502910e+002, 3.286386e+005
8.507731e+002, 3.286070e+005
8.512552e+002, 3.284836e+005
8.517374e+002, 3.283047e+005
8.522195e+002, 3.281836e+005
8.527016e+002, 3.281718e+005
8.531837e+002, 3.282048e+005
8.536658e+002, 3.282122e+005
8.541479e+002, 3.281932e+005
8.546301e+002, 3.281372e+005
8.551122e+002, 3.280432e+005
8.555943e+002, 3.279748e+005
8.560764e+002, 3.279716e+005
8.565585e+002, 3.279275e+005
8.570406e+002, 3.276969e+005
8.575228e+002, 3.273104e+005
8.580049e+002, 3.271212e+005
8.584870e+002, 3.272795e+005
8.589691e+002, 3.273879e+005
8.594512e+002, 3.274194e+005
8.599333e+002, 3.273943e+005
8.604155e+002, 3.273180e+005
8.608976e+002, 3.271966e+005
8.613797e+002, 3.270250e+005
8.618618e+002, 3.267888e+005
8.623439e+002, 3.265915e+005
8.628260e+002, 3.264838e+005
8.633082e+002, 3.264243e+005
8.637903e+002, 3.264343e+005
8.642724e+002, 3.264478e+005
8.647545e+002, 3.263240e+005
8.652366e+002, 3.260571e+005
8.657188e+002, 3.258214e+005
8.662009e+002, 3.257595e+005
8.666830e+002, 3.257934e+005
8.671651e+002, 3.257736e+005
8.676472e+002, 3.257093e+005
8.681293e+002, 3.256887e+005
8.686115e+002, 3.257275e+005
8.690936e+002, 3.256930e+005
8.695757e+002, 3.254844e+005
8.700578e+002, 3.252061e+005
8.705399e+002, 3.250852e+005
8.710220e+002, 3.251718e+005
8.715042e+002, 3.251625e+005
8.719863e+002, 3.250261e+005
8.724684e+002, 3.248461e+005
8.729505e+002, 3.246188e+005
8.734326e+002, 3.243837e+005
8.739147e+002, 3.241873e+005
8.743969e+002, 3.240223e+005
8.748790e+002, 3.238281e+005
8.753611e+002, 3.235430e+005
8.758432e+002, 3.233056e+005
8.763253e+002, 3.231893e+005
8.768074e+002, 3.231225e+005
8.772896e+002, 3.230554e+005
8.777717e+002, 3.229824e+005
8.782538e+002, 3.228865e+005
8.787359e+002, 3.227624e+005
8.792180e+002, 3.227055e+005
8.797001e+002, 3.229030e+005
8.801823e+002, 3.231747e+005
8.806644e+002, 3.231323e+005
8.811465e+002, 3.228471e+005
8.816286e+002, 3.226631e+005
8.821107e+002, 3.226675e+005
8.825928e+002, 3.226989e+005
8.830750e+002, 3.226152e+005
8.835571e+002, 3.224514e+005
8.840392e+002, 3.223390e+005
8.845213e+002, 3.222944e+005
8.850034e+002, 3.222011e+005
8.854855e+002, 3.220378e+005
8.859677e+002, 3.218528e+005
8.864498e+002, 3.216538e+005
8.869319e+002, 3.214640e+005
8.874140e+002, 3.213281e+005
8.878961e+002, 3.212572e+005
8.883782e+002, 3.211829e+005
8.888604e+002, 3.210936e+005
8.893425e+002, 3.210208e+005
8.898246e+002, 3.209719e+005
8.903067e+002, 3.209484e+005
8.907888e+002, 3.210264e+005
8.912709e+002, 3.211338e+005
8.917531e+002, 3.210371e+005
8.922352e+002, 3.205978e+005
8.927173e+002, 3.201283e+005
8.931994e+002, 3.197811e+005
8.936815e+002, 3.195640e+005
8.941636e+002, 3.195620e+005
8.946458e+002, 3.196890e+005
8.951279e+002, 3.197088e+005
8.956100e+002, 3.195571e+005
8.960921e+002, 3.194233e+005
8.965742e+002, 3.195161e+005
8.970563e+002, 3.197308e+005
8.975385e+002, 3.197745e+005
8.980206e+002, 3.196602e+005
8.985027e+002, 3.195808e+005
8.989848e+002, 3.195723e+005
8.994669e+002, 3.195565e+005
8.999490e+002, 3.194775e+005
9.004312e+002, 3.193642e+005
9.009133e+002, 3.192843e+005
9.013954e+002, 3.192442e+005
9.018775e+002, 3.192087e+005
9.023596e+002, 3.191868e+005
9.028417e+002, 3.191548e+005
9.033239e+002, 3.191185e+005
9.038060e+002, 3.190588e+005
9.042881e+002, 3.189390e+005
9.047702e+002, 3.187733e+005
9.052523e+002, 3.186528e+005
9.057344e+002, 3.186430e+005
9.062166e+002, 3.186002e+005
9.066987e+002, 3.184573e+005
9.071808e+002, 3.183024e+005
9.076629e+002, 3.181892e+005
9.081450e+002, 3.181143e+005
9.086271e+002, 3.180781e+005
9.091093e+002, 3.180767e+005
9.095914e+002, 3.180367e+005
9.100735e+002, 3.178717e+005
9.105556e+002, 3.176732e+005
9.110377e+002, 3.175591e+005
9.115198e+002, 3.174837e+005
9.120020e+002, 3.173264e+005
9.124841e+002, 3.170892e+005
9.129662e+002, 3.169087e+005
9.134483e+002, 3.168743e+005
9.139304e+002, 3.169208e+005
9.144125e+002, 3.169558e+005
9.148947e+002, 3.169766e+005
9.153768e+002, 3.169608e+005
9.158589e+002, 3.169090e+005
9.163410e+002, 3.167987e+005
9.168231e+002, 3.166042e+005
9.173052e+002, 3.164311e+005
9.177874e+002, 3.164271e+005
9.182695e+002, 3.165573e+005
9.187516e+002, 3.164474e+005
9.192337e+002, 3.158962e+005
9.197158e+002, 3.156009e+005
9.201979e+002, 3.158341e+005
9.206801e+002, 3.160676e+005
9.211622e+002, 3.159426e+005
9.216443e+002, 3.156609e+005
9.221264e+002, 3.155562e+005
9.226085e+002, 3.156678e+005
9.230906e+002, 3.157285e+005
9.235728e+002, 3.155831e+005
9.240549e+002, 3.155245e+005
9.245370e+002, 3.157926e+005
9.250191e+002, 3.160933e+005
9.255012e+002, 3.161111e+005
9.259833e+002, 3.159027e+005
9.264655e+002, 3.157343e+005
9.269476e+002, 3.157034e+005
9.274297e+002, 3.157280e+005
9.279118e+002, 3.158043e+005
9.283939e+002, 3.158631e+005
9.288760e+002, 3.158126e+005
9.293582e+002, 3.156837e+005
9.298403e+002, 3.155603e+005
9.303224e+002, 3.154611e+005
9.308045e+002, 3.153343e+005
9.312866e+002, 3.151291e+005
9.317687e+002, 3.148955e+005
9.322509e+002, 3.147171e+005
9.327330e+002, 3.145952e+005
9.332151e+002, 3.145514e+005
9.336972e+002, 3.145846e+005
9.341793e+002, 3.145798e+005
9.346614e+002, 3.144775e+005
9.351436e+002, 3.143419e+005
9.356257e+002, 3.142666e+005
9.361078e+002, 3.142488e+005
9.365899e+002, 3.142253e+005
9.370720e+002, 3.142072e+005
9.375541e+002, 3.141221e+005
9.380363e+002, 3.139005e+005
9.385184e+002, 3.137209e+005
9.390005e+002, 3.137514e+005
9.394826e+002, 3.138993e+005
9.399647e+002, 3.138972e+005
9.404468e+002, 3.136472e+005
9.409290e+002, 3.135070e+005
9.414111e+002, 3.135944e+005
9.418932e+002, 3.136336e+005
9.423753e+002, 3.134608e+005
9.428574e+002, 3.132700e+005
9.433395e+002, 3.132730e+005
9.438217e+002, 3.134348e+005
9.443038e+002, 3.135383e+005
9.447859e+002, 3.135280e+005
9.452680e+002, 3.134710e+005
9.457501e+002, 3.133751e+005
9.462322e+002, 3.132601e+005
9.467144e+002, 3.131152e+005
9.471965e+002, 3.129741e+005
9.476786e+002, 3.128974e+005
9.481607e+002, 3.128917e+005
9.486428e+002, 3.128891e+005
9.491249e+002, 3.128492e+005
9.496071e+002, 3.127903e+005
9.500892e+002, 3.127088e+005
9.505713e+002, 3.126323e+005
9.510534e+002, 3.126196e+005
9.515355e+002, 3.126617e+005
9.520176e+002, 3.127107e+005
9.524998e+002, 3.127440e+005
9.529819e+002, 3.127339e+005
9.534640e+002, 3.126253e+005
9.539461e+002, 3.124548e+005
9.544282e+002, 3.123277e+005
9.549103e+002, 3.122418e+005
9.553925e+002, 3.121815e+005
9.558746e+002, 3.121427e+005
9.563567e+002, 3.121596e+005
9.568388e+002, 3.122724e+005
9.573209e+002, 3.123956e+005
9.578030e+002, 3.123136e+005
9.582852e+002, 3.119972e+005
9.587673e+002, 3.118257e+005
9.592494e+002, 3.118409e+005
9.597315e+002, 3.118384e+005
9.602136e+002, 3.117620e+005
9.606957e+002, 3.116283e+005
9.611779e+002, 3.114162e+005
9.616600e+002, 3.111644e+005
9.621421e+002, 3.110884e+005
9.626242e+002, 3.113388e+005
9.631063e+002, 3.114695e+005
9.635884e+002, 3.114093e+005
9.640706e+002, 3.113158e+005
9.645527e+002, 3.112323e+005
9.650348e+002, 3.111566e+005
9.655169e+002, 3.110738e+005
9.659990e+002, 3.109873e+005
9.664811e+002, 3.109572e+005
9.669633e+002, 3.110413e+005
9.674454e+002, 3.111093e+005
9.679275e+002, 3.111433e+005
9.684096e+002, 3.111386e+005
9.688917e+002, 3.110709e+005
9.693738e+002, 3.109707e+005
9.698560e+002, 3.108797e+005
9.703381e+002, 3.108066e+005
9.708202e+002, 3.107582e+005
9.713023e+002, 3.107591e+005
9.717844e+002, 3.107620e+005
9.722665e+002, 3.107592e+005
9.727487e+002, 3.107256e+005
9.732308e+002, 3.105946e+005
9.737129e+002, 3.104092e+005
9.741950e+002, 3.103036e+005
9.746771e+002, 3.103292e+005
9.751592e+002, 3.103620e+005
9.756414e+002, 3.102426e+005
9.761235e+002, 3.100999e+005
9.766056e+002, 3.101521e+005
9.770877e+002, 3.103199e+005
9.775698e+002, 3.104287e+005
9.780519e+002, 3.104428e+005
9.785341e+002, 3.103621e+005
9.790162e+002, 3.101779e+005
9.794983e+002, 3.099997e+005
9.799804e+002, 3.100223e+005
9.804625e+002, 3.101845e+005
9.809446e+002, 3.102522e+005
9.814268e+002, 3.102279e+005
9.819089e+002, 3.101828e+005
9.823910e+002, 3.101367e+005
9.828731e+002, 3.100654e+005
9.833552e+002, 3.099415e+005
9.838373e+002, 3.098080e+005
9.843195e+002, 3.097904e+005
9.848016e+002, 3.098973e+005
9.852837e+002, 3.099270e+005
9.857658e+002, 3.098555e+005
9.862479e+002, 3.098191e+005
9.867300e+002, 3.098900e+005
9.872122e+002, 3.099298e+005
9.876943e+002, 3.097677e+005
9.881764e+002, 3.094637e+005
9.886585e+002, 3.093586e+005
9.891406e+002, 3.095462e+005
9.896227e+002, 3.096533e+005
9.901049e+002, 3.096053e+005
9.905870e+002, 3.095882e+005
9.910691e+002, 3.097252e+005
9.915512e+002, 3.098847e+005
9.920333e+002, 3.098940e+005
9.925154e+002, 3.097591e+005
9.929976e+002, 3.096618e+005
9.934797e+002, 3.096673e+005
9.939618e+002, 3.096124e+005
9.944439e+002, 3.093790e+005
9.949260e+002, 3.092071e+005
9.954081e+002, 3.092827e+005
9.958903e+002, 3.094481e+005
9.963724e+002, 3.094750e+005
9.968545e+002, 3.093511e+005
9.973366e+002, 3.092710e+005
9.978187e+002, 3.093412e+005
9.983008e+002, 3.093614e+005
9.987830e+002, 3.092013e+005
9.992651e+002, 3.090417e+005
9.997472e+002, 3.090628e+005
1.000229e+003, 3.091579e+005
1.000711e+003, 3.090911e+005
1.001194e+003, 3.088243e+005
1.001676e+003, 3.086601e+005
1.002158e+003, 3.088476e+005
1.002640e+003, 3.090352e+005
1.003122e+003, 3.090228e+005
1.003604e+003, 3.089091e+005
1.004086e+003, 3.087581e+005
1.004568e+003, 3.086061e+005
1.005050e+003, 3.085020e+005
1.005533e+003, 3.084613e+005
1.006015e+003, 3.084521e+005
1.006497e+003, 3.084991e+005
1.006979e+003, 3.085224e+005
1.007461e+003, 3.084027e+005
1.007943e+003, 3.082288e+005
1.008425e+003, 3.081326e+005
1.008907e+003, 3.081195e+005
1.009390e+003, 3.081411e+005
1.009872e+003, 3.081762e+005
1.010354e+003, 3.082275e+005
1.010836e+003, 3.083262e+005
1.011318e+003, 3.084225e+005
1.011800e+003, 3.084037e+005
1.012282e+003, 3.083229e+005
1.012764e+003, 3.083329e+005
1.013246e+003, 3.084364e+005
1.013729e+003, 3.085170e+005
1.014211e+003, 3.085143e+005
1.014693e+003, 3.084321e+005
1.015175e+003, 3.082184e+005
1.015657e+003, 3.079453e+005
1.016139e+003, 3.078428e+005
1.016621e+003, 3.078819e+005
1.017103e+003, 3.079120e+005
1.017586e+003, 3.079051e+005
1.018068e+003, 3.079165e+005
1.018550e+003, 3.079870e+005
1.019032e+003, 3.080379e+005
1.019514e+003, 3.078913e+005
1.019996e+003, 3.075937e+005
1.020478e+003, 3.074912e+005
1.020960e+003, 3.075794e+005
1.021442e+003, 3.077117e+005
1.021925e+003, 3.078600e+005
1.022407e+003, 3.079562e+005
1.022889e+003, 3.079481e+005
1.023371e+003, 3.078742e+005
1.023853e+003, 3.078007e+005
1.024335e+003, 3.077259e+005
1.024817e+003, 3.077168e+005
1.025299e+003, 3.077858e+005
1.025781e+003, 3.077947e+005
1.026264e+003, 3.076844e+005
1.026746e+003, 3.076100e+005
1.027228e+003, 3.077006e+005
1.027710e+003, 3.078787e+005
1.028192e+003, 3.079564e+005
1.028674e+003, 3.079137e+005
1.029156e+003, 3.079265e+005
1.029638e+003, 3.080273e+005
1.030120e+003, 3.080658e+005
1.030603e+003, 3.079751e+005
1.031085e+003, 3.078762e+005
1.031567e+003, 3.078598e+005
1.032049e+003, 3.079102e+005
1.032531e+003, 3.079942e+005
1.033013e+003, 3.081384e+005
1.033495e+003, 3.082062e+005
1.033977e+003, 3.081929e+005
1.034460e+003, 3.081145e+005
1.034942e+003, 3.079436e+005
1.035424e+003, 3.077560e+005
1.035906e+003, 3.076105e+005
1.036388e+003, 3.074949e+005
1.036870e+003, 3.073633e+005
1.037352e+003, 3.071794e+005
1.037834e+003, 3.071151e+005
1.038317e+003, 3.072958e+005
1.038799e+003, 3.074030e+005
1.039281e+003, 3.072736e+005
1.039763e+003, 3.071373e+005
1.040245e+003, 3.072067e+005
1.040727e+003, 3.073997e+005
1.041209e+003, 3.074800e+005
1.041691e+003, 3.074123e+005
1.042173e+003, 3.073426e+005
1.042656e+003, 3.072624e+005
1.043138e+003, 3.071921e+005
1.043620e+003, 3.071146e+005
1.044102e+003, 3.070670e+005
1.044584e+003, 3.070894e+005
1.045066e+003, 3.071608e+005
1.045548e+003, 3.072264e+005
1.046030e+003, 3.072781e+005
1.046512e+003, 3.073420e+005
1.046995e+003, 3.074779e+005
1.047477e+003, 3.075513e+005
1.047959e+003, 3.074845e+005
1.048441e+003, 3.073754e+005
1.048923e+003, 3.072763e+005
1.049405e+003, 3.072016e+005
1.049887e+003, 3.071767e+005
1.050369e+003, 3.072104e+005
1.050852e+003, 3.072664e+005
1.051334e+003, 3.073859e+005
1.051816e+003, 3.074656e+005
1.052298e+003, 3.074358e+005
1.052780e+003, 3.073849e+005
1.053262e+003, 3.073897e+005
1.053744e+003, 3.074292e+005
1.054226e+003, 3.074402e+005
1.054708e+003, 3.074060e+005
1.055191e+003, 3.073952e+005
1.055673e+003, 3.074412e+005
1.056155e+003, 3.074928e+005
1.056637e+003, 3.075026e+005
1.057119e+003, 3.075339e+005
1.057601e+003, 3.077066e+005
1.058083e+003, 3.079210e+005
1.058565e+003, 3.079425e+005
1.059047e+003, 3.077139e+005
1.059530e+003, 3.075480e+005
1.060012e+003, 3.076049e+005
1.060494e+003, 3.076718e+005
1.060976e+003, 3.076526e+005
1.061458e+003, 3.076133e+005
1.061940e+003, 3.076374e+005
1.062422e+003, 3.076751e+005
1.062904e+003, 3.075968e+005
1.063387e+003, 3.073807e+005
1.063869e+003, 3.072289e+005
1.064351e+003, 3.072800e+005
1.064833e+003, 3.073314e+005
1.065315e+003, 3.072761e+005
1.065797e+003, 3.072013e+005
1.066279e+003, 3.071942e+005
1.066761e+003, 3.072181e+005
1.067244e+003, 3.071717e+005
1.067726e+003, 3.070483e+005
1.068208e+003, 3.070260e+005
1.068690e+003, 3.073321e+005
1.069172e+003, 3.075455e+005
1.069654e+003, 3.073396e+005
1.070136e+003, 3.070933e+005
1.070618e+003, 3.071574e+005
1.071100e+003, 3.073746e+005
1.071583e+003, 3.074279e+005
1.072065e+003, 3.072928e+005
1.072547e+003, 3.072628e+005
1.073029e+003, 3.075649e+005
1.073511e+003, 3.078019e+005
1.073993e+003, 3.076847e+005
1.074475e+003, 3.075293e+005
1.074957e+003, 3.076280e+005
1.075439e+003, 3.078230e+005
1.075922e+003, 3.078189e+005
1.076404e+003, 3.076264e+005
1.076886e+003, 3.075743e+005
1.077368e+003, 3.078637e+005
1.077850e+003, 3.081321e+005
1.078332e+003, 3.082114e+005
1.078814e+003, 3.082093e+005
1.079297e+003, 3.081767e+005
1.079779e+003, 3.081278e+005
1.080261e+003, 3.080352e+005
1.080743e+003, 3.079308e+005
1.081225e+003, 3.079606e+005
1.081707e+003, 3.082367e+005
1.082189e+003, 3.084318e+005
1.082671e+003, 3.083064e+005
1.083153e+003, 3.081522e+005
1.083635e+003, 3.081462e+005
1.084118e+003, 3.082247e+005
1.084600e+003, 3.083460e+005
1.085082e+003, 3.084719e+005
1.085564e+003, 3.085155e+005
1.086046e+003, 3.084406e+005
1.086528e+003, 3.083554e+005
1.087010e+003, 3.082958e+005
1.087492e+003, 3.082530e+005
1.087975e+003, 3.081984e+005
1.088457e+003, 3.081787e+005
1.088939e+003, 3.082822e+005
1.089421e+003, 3.084518e+005
1.089903e+003, 3.085397e+005
1.090385e+003, 3.085069e+005
1.090867e+003, 3.084669e+005
1.091349e+003, 3.084748e+005
1.091832e+003, 3.084691e+005
1.092314e+003, 3.083574e+005
1.092796e+003, 3.082781e+005
1.093278e+003, 3.083782e+005
1.093760e+003, 3.085883e+005
1.094242e+003, 3.087808e+005
1.094724e+003, 3.089317e+005
1.095206e+003, 3.090279e+005
1.095688e+003, 3.089916e+005
1.096171e+003, 3.089997e+005
1.096653e+003, 3.091972e+005
1.097135e+003, 3.093723e+005
1.097617e+003, 3.093083e+005
1.098099e+003, 3.091642e+005
1.098581e+003, 3.092093e+005
1.099063e+003, 3.094506e+005
1.099545e+003, 3.096276e+005
1.100027e+003, 3.096250e+005
1.100510e+003, 3.096438e+005
1.100992e+003, 3.097729e+005
1.101474e+003, 3.098923e+005
1.101956e+003, 3.098964e+005
1.102438e+003, 3.098832e+005
1.102920e+003, 3.099841e+005
1.103402e+003, 3.101804e+005
1.103884e+003, 3.103351e+005
1.104367e+003, 3.104035e+005
1.104849e+003, 3.104881e+005
1.105331e+003, 3.106720e+005
1.105813e+003, 3.107908e+005
1.106295e+003, 3.106412e+005
1.106777e+003, 3.105197e+005
1.107259e+003, 3.108017e+005
1.107741e+003, 3.113182e+005
1.108224e+003, 3.115391e+005
1.108706e+003, 3.113313e+005
1.109188e+003, 3.111970e+005
1.109670e+003, 3.112303e+005
1.110152e+003, 3.112704e+005
1.110634e+003, 3.112479e+005
1.111116e+003, 3.112535e+005
1.111598e+003, 3.113994e+005
1.112080e+003, 3.115954e+005
1.112563e+003, 3.116454e+005
1.113045e+003, 3.115206e+005
1.113527e+003, 3.115068e+005
1.114009e+003, 3.117441e+005
1.114491e+003, 3.118653e+005
1.114973e+003, 3.117356e+005
1.115455e+003, 3.116204e+005
1.115937e+003, 3.116371e+005
1.116419e+003, 3.117455e+005
1.116902e+003, 3.119102e+005
1.117384e+003, 3.121261e+005
1.117866e+003, 3.123207e+005
1.118348e+003, 3.124632e+005
1.118830e+003, 3.126572e+005
1.119312e+003, 3.129173e+005
1.119794e+003, 3.132116e+005
1.120276e+003, 3.135677e+005
1.120759e+003, 3.138851e+005
1.121241e+003, 3.140555e+005
1.121723e+003, 3.141183e+005
1.122205e+003, 3.142122e+005
1.122687e+003, 3.143319e+005
1.123169e+003, 3.145025e+005
1.123651e+003, 3.147435e+005
1.124133e+003, 3.149635e+005
1.124615e+003, 3.151347e+005
1.125098e+003, 3.152945e+005
1.125580e+003, 3.154669e+005
1.126062e+003, 3.156493e+005
1.126544e+003, 3.158399e+005
1.127026e+003, 3.160381e+005
1.127508e+003, 3.161798e+005
1.127990e+003, 3.162480e+005
1.128472e+003, 3.164425e+005
1.128954e+003, 3.168187e+005
1.129437e+003, 3.171318e+005
1.129919e+003, 3.172480e+005
1.130401e+003, 3.173299e+005
1.130883e+003, 3.175914e+005
1.131365e+003, 3.179764e+005
1.131847e+003, 3.182636e+005
1.132329e+003, 3.184569e+005
1.132811e+003, 3.186260e+005
1.133294e+003, 3.187767e+005
1.133776e+003, 3.189133e+005
1.134258e+003, 3.190373e+005
1.134740e+003, 3.192059e+005
1.135222e+003, 3.194754e+005
1.135704e+003, 3.197853e+005
1.136186e+003, 3.199916e+005
1.136668e+003, 3.201378e+005
1.137151e+003, 3.204272e+005
1.137633e+003, 3.208228e+005
1.138115e+003, 3.210987e+005
1.138597e+003, 3.212232e+005
1.139079e+003, 3.213506e+005
1.139561e+003, 3.215662e+005
1.140043e+003, 3.218073e+005
1.140525e+003, 3.219711e+005
1.141007e+003, 3.221285e+005
1.141490e+003, 3.224457e+005
1.141972e+003, 3.228486e+005
1.142454e+003, 3.231542e+005
1.142936e+003, 3.233791e+005
1.143418e+003, 3.236846e+005
1.143900e+003, 3.241111e+005
1.144382e+003, 3.244875e+005
1.144864e+003, 3.246371e+005
1.145346e+003, 3.247678e+005
1.145829e+003, 3.251271e+005
1.146311e+003, 3.255758e+005
1.146793e+003, 3.259828e+005
1.147275e+003, 3.263211e+005
1.147757e+003, 3.265282e+005
1.148239e+003, 3.266356e+005
1.148721e+003, 3.268097e+005
1.149203e+003, 3.271348e+005
1.149686e+003, 3.275024e+005
1.150168e+003, 3.278770e+005
1.150650e+003, 3.282348e+005
1.151132e+003, 3.285579e+005
1.151614e+003, 3.288604e+005
1.152096e+003, 3.291472e+005
1.152578e+003, 3.294288e+005
1.153060e+003, 3.297174e+005
1.153542e+003, 3.300127e+005
1.154025e+003, 3.303584e+005
1.154507e+003, 3.307998e+005
1.154989e+003, 3.312458e+005
1.155471e+003, 3.316370e+005
1.155953e+003, 3.320457e+005
1.156435e+003, 3.325598e+005
1.156917e+003, 3.330959e+005
1.157399e+003, 3.335210e+005
1.157881e+003, 3.338409e+005
1.158364e+003, 3.342089e+005
1.158846e+003, 3.346517e+005
1.159328e+003, 3.351177e+005
1.159810e+003, 3.356839e+005
1.160292e+003, 3.361627e+005
1.160774e+003, 3.364520e+005
1.161256e+003, 3.366889e+005
1.161738e+003, 3.369500e+005
1.162221e+003, 3.372549e+005
1.162703e+003, 3.376643e+005
1.163185e+003, 3.382015e+005
1.163667e+003, 3.386443e+005
1.164149e+003, 3.389318e+005
1.164631e+003, 3.393064e+005
1.165113e+003, 3.398223e+005
1.165595e+003, 3.403854e+005
1.166078e+003, 3.409725e+005
1.166560e+003, 3.415304e+005
1.167042e+003, 3.419916e+005
1.167524e+003, 3.423739e+005
1.168006e+003, 3.427274e+005
1.168488e+003, 3.430475e+005
1.168970e+003, 3.435758e+005
1.169452e+003, 3.443348e+005
1.169934e+003, 3.449803e+005
1.170417e+003, 3.454114e+005
1.170899e+003, 3.458463e+005
1.171381e+003, 3.464514e+005
1.171863e+003, 3.470969e+005
1.172345e+003, 3.475271e+005
1.172827e+003, 3.478231e+005
1.173309e+003, 3.482776e+005
1.173791e+003, 3.488545e+005
1.174273e+003, 3.494192e+005
1.174756e+003, 3.499562e+005
1.175238e+003, 3.505208e+005
1.175720e+003, 3.511334e+005
1.176202e+003, 3.517306e+005
1.176684e+003, 3.522430e+005
1.177166e+003, 3.527418e+005
1.177648e+003, 3.533594e+005
1.178130e+003, 3.539977e+005
1.178613e+003, 3.544774e+005
1.179095e+003, 3.548822e+005
1.179577e+003, 3.554034e+005
1.180059e+003, 3.560565e+005
1.180541e+003, 3.567382e+005
1.181023e+003, 3.574087e+005
1.181505e+003, 3.580616e+005
1.181987e+003, 3.587298e+005
1.182469e+003, 3.593410e+005
1.182952e+003, 3.597289e+005
1.183434e+003, 3.601412e+005
1.183916e+003, 3.608901e+005
1.184398e+003, 3.618248e+005
1.184880e+003, 3.625998e+005
1.185362e+003, 3.631701e+005
1.185844e+003, 3.637998e+005
1.186326e+003, 3.646090e+005
1.186808e+003, 3.653830e+005
1.187291e+003, 3.660197e+005
1.187773e+003, 3.666896e+005
1.188255e+003, 3.675506e+005
1.188737e+003, 3.684079e+005
1.189219e+003, 3.690530e+005
1.189701e+003, 3.695593e+005
1.190183e+003, 3.701573e+005
1.190665e+003, 3.708613e+005
1.191148e+003, 3.715950e+005
1.191630e+003, 3.723556e+005
1.192112e+003, 3.731729e+005
1.192594e+003, 3.740754e+005
1.193076e+003, 3.749759e+005
1.193558e+003, 3.758389e+005
1.194040e+003, 3.766463e+005
1.194522e+003, 3.773549e+005
1.195005e+003, 3.780009e+005
1.195487e+003, 3.787377e+005
1.195969e+003, 3.795588e+005
1.196451e+003, 3.803740e+005
1.196933e+003, 3.811822e+005
1.197415e+003, 3.820700e+005
1.197897e+003, 3.830612e+005
1.198379e+003, 3.841138e+005
1.198861e+003, 3.852195e+005
1.199344e+003, 3.862620e+005
1.199826e+003, 3.870303e+005
1.200308e+003, 3.876712e+005
1.200790e+003, 3.884957e+005
1.201272e+003, 3.894374e+005
1.201754e+003, 3.903398e+005
1.202236e+003, 3.912223e+005
1.202718e+003, 3.922376e+005
1.203200e+003, 3.934036e+005
1.203683e+003, 3.944786e+005
1.204165e+003, 3.952855e+005
1.204647e+003, 3.960566e+005
1.205129e+003, 3.969143e+005
1.205611e+003, 3.978673e+005
1.206093e+003, 3.989997e+005
1.206575e+003, 4.001643e+005
1.207057e+003, 4.011574e+005
1.207540e+003, 4.020256e+005
1.208022e+003, 4.029544e+005
1.208504e+003, 4.039761e+005
1.208986e+003, 4.050585e+005
1.209468e+003, 4.062972e+005
1.209950e+003, 4.074456e+005
1.210432e+003, 4.084214e+005
1.210914e+003, 4.093315e+005
1.211396e+003, 4.101498e+005
1.211879e+003, 4.110018e+005
1.212361e+003, 4.120438e+005
1.212843e+003, 4.132276e+005
1.213325e+003, 4.143438e+005
1.213807e+003, 4.153696e+005
1.214289e+003, 4.164332e+005
1.214771e+003, 4.175647e+005
1.215253e+003, 4.185971e+005
1.215735e+003, 4.194662e+005
1.216218e+003, 4.203654e+005
1.216700e+003, 4.214066e+005
1.217182e+003, 4.224889e+005
1.217664e+003, 4.234926e+005
1.218146e+003, 4.244562e+005
1.218628e+003, 4.255458e+005
1.219110e+003, 4.267228e+005
1.219592e+003, 4.277988e+005
1.220075e+003, 4.287812e+005
1.220557e+003, 4.297882e+005
1.221039e+003, 4.308420e+005
1.221521e+003, 4.319056e+005
1.222003e+003, 4.329533e+005
1.222485e+003, 4.340329e+005
1.222967e+003, 4.352778e+005
1.223449e+003, 4.364949e+005
1.223932e+003, 4.374167e+005
1.224414e+003, 4.382116e+005
1.224896e+003, 4.390857e+005
1.225378e+003, 4.400217e+005
1.225860e+003, 4.409235e+005
1.226342e+003, 4.417921e+005
1.226824e+003, 4.427143e+005
1.227306e+003, 4.437644e+005
1.227788e+003, 4.447558e+005
1.228271e+003, 4.455542e+005
1.228753e+003, 4.463795e+005
1.229235e+003, 4.473613e+005
1.229717e+003, 4.483654e+005
1.230199e+003, 4.492693e+005
1.230681e+003, 4.501199e+005
1.231163e+003, 4.510123e+005
1.231645e+003, 4.519434e+005
1.232127e+003, 4.528978e+005
1.232610e+003, 4.539501e+005
1.233092e+003, 4.547709e+005
1.233574e+003, 4.552853e+005
1.234056e+003, 4.557863e+005
1.234538e+003, 4.563541e+005
1.235020e+003, 4.569962e+005
1.235502e+003, 4.577368e+005
1.235984e+003, 4.584661e+005
1.236467e+003, 4.589508e+005
1.236949e+003, 4.592684e+005
1.237431e+003, 4.597332e+005
1.237913e+003, 4.603185e+005
1.238395e+003, 4.609112e+005
1.238877e+003, 4.614950e+005
1.239359e+003, 4.620972e+005
1.239841e+003, 4.627083e+005
1.240323e+003, 4.632088e+005
1.240806e+003, 4.634881e+005
1.241288e+003, 4.637904e+005
1.241770e+003, 4.644294e+005
1.242252e+003, 4.651171e+005
1.242734e+003, 4.655758e+005
1.243216e+003, 4.659105e+005
1.243698e+003, 4.662709e+005
1.244180e+003, 4.666199e+005
1.244662e+003, 4.668113e+005
1.245145e+003, 4.668393e+005
1.245627e+003, 4.669654e+005
1.246109e+003, 4.673798e+005
1.246591e+003, 4.676777e+005
1.247073e+003, 4.676433e+005
1.247555e+003, 4.676950e+005
1.248037e+003, 4.681256e+005
1.248519e+003, 4.685032e+005
1.249002e+003, 4.684687e+005
1.249484e+003, 4.682402e+005
1.249966e+003, 4.682060e+005
1.250448e+003, 4.683592e+005
1.250930e+003, 4.685721e+005
1.251412e+003, 4.688472e+005
1.251894e+003, 4.691595e+005
1.252376e+003, 4.695098e+005
1.252859e+003, 4.698033e+005
1.253341e+003, 4.700089e+005
1.253823e+003, 4.701274e+005
1.254305e+003, 4.701508e+005
1.254787e+003, 4.701588e+005
1.255269e+003, 4.702482e+005
1.255751e+003, 4.704073e+005
1.256233e+003, 4.706822e+005
1.256715e+003, 4.709746e+005
1.257198e+003, 4.710528e+005
1.257680e+003, 4.710043e+005
1.258162e+003, 4.711138e+005
1.258644e+003, 4.714025e+005
1.259126e+003, 4.715916e+005
1.259608e+003, 4.715137e+005
1.260090e+003, 4.715239e+005
1.260572e+003, 4.719042e+005
1.261054e+003, 4.722611e+005
1.261537e+003, 4.724328e+005
1.262019e+003, 4.724875e+005
1.262501e+003, 4.724179e+005
1.262983e+003, 4.723078e+005
1.263465e+003, 4.722499e+005
1.263947e+003, 4.722581e+005
1.264429e+003, 4.724519e+005
1.264911e+003, 4.729513e+005
1.265394e+003, 4.731961e+005
1.265876e+003, 4.731143e+005
1.266358e+003, 4.730781e+005
1.266840e+003, 4.731651e+005
1.267322e+003, 4.733211e+005
1.267804e+003, 4.735163e+005
1.268286e+003, 4.737578e+005
1.268768e+003, 4.740618e+005
1.269250e+003, 4.744001e+005
1.269733e+003, 4.747686e+005
1.270215e+003, 4.750960e+005
1.270697e+003, 4.751661e+005
1.271179e+003, 4.750532e+005
1.271661e+003, 4.749195e+005
1.272143e+003, 4.748333e+005
1.272625e+003, 4.749023e+005
1.273107e+003, 4.751669e+005
1.273589e+003, 4.754721e+005
1.274072e+003, 4.757932e+005
1.274554e+003, 4.760370e+005
1.275036e+003, 4.761646e+005
1.275518e+003, 4.761884e+005
1.276000e+003, 4.760512e+005
1.276482e+003, 4.758556e+005
1.276964e+003, 4.756712e+005
1.277446e+003, 4.755977e+005
1.277929e+003, 4.757821e+005
1.278411e+003, 4.762817e+005
1.278893e+003, 4.764398e+005
1.279375e+003, 4.761300e+005
1.279857e+003, 4.759882e+005
1.280339e+003, 4.760979e+005
1.280821e+003, 4.763210e+005
1.281303e+003, 4.766504e+005
1.281786e+003, 4.771111e+005
1.282268e+003, 4.776684e+005
##END=



