##NAMES=Chabazite-K
##RRUFFID=R120032
##IDEAL CHEMISTRY=(K_2_NaCa_0.5_)Al_4_Si_8_O_24_&#183;11H_2_O
##LOCALITY=Kirovskii mine, Rasvumchorr Mt, Khibiny Massif, Kola Peninsula, Murmanskaja Oblast, Northern Region, Russia
##OWNER=RRUFF
##SOURCE=Donald Doell
##DESCRIPTION=Druse of colorless rhombohedral crystals
##STATUS=The identification of this mineral has been confirmed only by single crystal X-ray diffraction.
##URL=rruff.info/R120032
215.3604, 5459.920
215.8425, 5459.481
216.3246, 5462.614
216.8067, 5471.053
217.2889, 5479.676
217.7710, 5484.471
218.2531, 5482.457
218.7352, 5485.521
219.2173, 5496.208
219.6994, 5512.711
220.1816, 5525.965
220.6637, 5534.601
221.1458, 5542.448
221.6279, 5552.217
222.1100, 5565.829
222.5921, 5576.181
223.0743, 5581.675
223.5564, 5583.477
224.0385, 5587.403
224.5206, 5594.548
225.0027, 5602.166
225.4848, 5608.465
225.9670, 5612.520
226.4491, 5617.742
226.9312, 5624.703
227.4133, 5633.150
227.8954, 5642.232
228.3775, 5652.478
228.8597, 5662.424
229.3418, 5671.073
229.8239, 5678.196
230.3060, 5684.280
230.7881, 5688.446
231.2702, 5691.358
231.7524, 5696.428
232.2345, 5704.698
232.7166, 5713.242
233.1987, 5720.106
233.6808, 5724.144
234.1629, 5728.739
234.6451, 5734.617
235.1272, 5741.162
235.6093, 5746.009
236.0914, 5749.052
236.5735, 5750.563
237.0556, 5750.423
237.5378, 5747.321
238.0199, 5745.725
238.5020, 5746.567
238.9841, 5749.269
239.4662, 5751.084
239.9483, 5751.225
240.4305, 5751.912
240.9126, 5754.673
241.3947, 5761.408
241.8768, 5766.312
242.3589, 5768.657
242.8410, 5769.098
243.3232, 5769.609
243.8053, 5769.008
244.2874, 5770.043
244.7695, 5774.272
245.2516, 5783.176
245.7337, 5791.667
246.2159, 5799.516
246.6980, 5806.696
247.1801, 5813.282
247.6622, 5819.667
248.1443, 5824.732
248.6264, 5827.506
249.1086, 5826.218
249.5907, 5826.867
250.0728, 5829.954
250.5549, 5834.969
251.0370, 5840.758
251.5191, 5848.313
252.0013, 5855.308
252.4834, 5860.810
252.9655, 5864.449
253.4476, 5867.750
253.9297, 5870.909
254.4118, 5873.740
254.8940, 5875.678
255.3761, 5876.057
255.8582, 5876.679
256.3403, 5878.182
256.8224, 5880.514
257.3046, 5883.493
257.7867, 5886.883
258.2688, 5890.840
258.7509, 5896.064
259.2330, 5903.534
259.7151, 5909.922
260.1973, 5913.557
260.6794, 5913.459
261.1615, 5914.751
261.6436, 5918.205
262.1257, 5922.437
262.6078, 5924.744
263.0900, 5923.941
263.5721, 5924.414
264.0542, 5928.419
264.5363, 5937.045
265.0184, 5942.805
265.5005, 5944.722
265.9827, 5945.305
266.4648, 5948.279
266.9469, 5954.368
267.4290, 5960.831
267.9111, 5967.107
268.3932, 5973.175
268.8754, 5977.887
269.3575, 5980.500
269.8396, 5982.627
270.3217, 5986.549
270.8038, 5992.780
271.2859, 5998.142
271.7681, 6001.197
272.2502, 6001.982
272.7323, 6004.391
273.2144, 6008.962
273.6965, 6013.883
274.1786, 6016.739
274.6608, 6016.922
275.1429, 6018.745
275.6250, 6024.243
276.1071, 6032.577
276.5892, 6036.882
277.0714, 6036.156
277.5535, 6034.112
278.0356, 6033.599
278.5177, 6034.505
278.9998, 6038.130
279.4819, 6046.138
279.9641, 6056.758
280.4462, 6061.711
280.9283, 6060.286
281.4104, 6056.172
281.8925, 6051.542
282.3746, 6046.399
282.8568, 6042.744
283.3389, 6041.242
283.8210, 6041.401
284.3031, 6042.242
284.7852, 6044.083
285.2673, 6045.274
285.7495, 6043.939
286.2316, 6040.469
286.7137, 6038.905
287.1958, 6040.102
287.6779, 6043.099
288.1600, 6045.672
288.6422, 6047.776
289.1243, 6050.992
289.6064, 6056.471
290.0885, 6063.850
290.5706, 6071.891
291.0527, 6080.977
291.5349, 6089.027
292.0170, 6091.683
292.4991, 6089.279
292.9812, 6086.850
293.4633, 6086.854
293.9454, 6088.917
294.4276, 6092.422
294.9097, 6097.617
295.3918, 6102.931
295.8739, 6106.026
296.3560, 6107.346
296.8381, 6109.002
297.3203, 6112.137
297.8024, 6116.286
298.2845, 6120.894
298.7666, 6126.093
299.2487, 6130.676
299.7308, 6132.544
300.2130, 6132.726
300.6951, 6134.143
301.1772, 6138.979
301.6593, 6145.181
302.1414, 6149.452
302.6235, 6151.787
303.1057, 6154.603
303.5878, 6162.281
304.0699, 6171.619
304.5520, 6176.269
305.0341, 6170.642
305.5162, 6162.769
305.9984, 6160.747
306.4805, 6164.146
306.9626, 6169.852
307.4447, 6178.830
307.9268, 6187.898
308.4089, 6192.333
308.8911, 6188.496
309.3732, 6183.514
309.8553, 6182.389
310.3374, 6184.711
310.8195, 6189.115
311.3016, 6198.403
311.7838, 6207.510
312.2659, 6211.371
312.7480, 6207.064
313.2301, 6201.915
313.7122, 6198.665
314.1943, 6197.666
314.6765, 6199.779
315.1586, 6208.453
315.6407, 6218.196
316.1228, 6225.560
316.6049, 6229.649
317.0870, 6233.266
317.5692, 6239.273
318.0513, 6245.211
318.5334, 6247.569
319.0155, 6241.204
319.4976, 6234.506
319.9797, 6230.955
320.4619, 6230.914
320.9440, 6232.429
321.4261, 6235.078
321.9082, 6238.854
322.3903, 6243.734
322.8724, 6252.695
323.3546, 6259.613
323.8367, 6262.303
324.3188, 6260.845
324.8009, 6258.936
325.2830, 6255.774
325.7651, 6253.301
326.2473, 6252.827
326.7294, 6257.643
327.2115, 6261.070
327.6936, 6261.911
328.1757, 6260.822
328.6578, 6260.700
329.1400, 6262.850
329.6221, 6265.159
330.1042, 6266.757
330.5863, 6267.053
331.0684, 6267.626
331.5505, 6267.355
332.0327, 6267.442
332.5148, 6270.805
332.9969, 6279.618
333.4790, 6288.372
333.9611, 6295.049
334.4432, 6298.814
334.9254, 6302.934
335.4075, 6307.288
335.8896, 6311.704
336.3717, 6316.192
336.8538, 6321.184
337.3359, 6324.803
337.8180, 6326.041
338.3001, 6324.980
338.7823, 6325.761
339.2644, 6329.687
339.7465, 6333.194
340.2286, 6332.248
340.7107, 6326.119
341.1928, 6320.731
341.6750, 6317.380
342.1571, 6315.779
342.6392, 6315.299
343.1213, 6316.343
343.6034, 6316.740
344.0855, 6313.888
344.5677, 6308.052
345.0498, 6304.810
345.5319, 6304.936
346.0140, 6307.836
346.4961, 6314.305
346.9782, 6324.079
347.4604, 6330.905
347.9425, 6328.518
348.4246, 6319.847
348.9067, 6315.998
349.3888, 6318.055
349.8709, 6322.417
350.3531, 6324.836
350.8352, 6325.851
351.3173, 6327.475
351.7994, 6329.882
352.2815, 6333.614
352.7636, 6340.721
353.2458, 6351.135
353.7279, 6360.564
354.2100, 6364.905
354.6921, 6365.771
355.1742, 6365.951
355.6563, 6366.104
356.1385, 6366.045
356.6206, 6365.101
357.1027, 6363.546
357.5848, 6362.867
358.0669, 6363.943
358.5490, 6366.325
359.0312, 6370.084
359.5133, 6376.628
359.9954, 6381.612
360.4775, 6382.327
360.9596, 6379.766
361.4417, 6375.997
361.9239, 6368.478
362.4060, 6362.679
362.8881, 6362.944
363.3702, 6371.280
363.8523, 6377.374
364.3344, 6375.453
364.8166, 6370.385
365.2987, 6367.702
365.7808, 6370.673
366.2629, 6374.267
366.7450, 6377.255
367.2271, 6379.592
367.7093, 6382.001
368.1914, 6384.495
368.6735, 6387.032
369.1556, 6389.591
369.6377, 6392.782
370.1198, 6394.982
370.6020, 6395.275
371.0841, 6394.319
371.5662, 6394.775
372.0483, 6398.448
372.5304, 6401.187
373.0125, 6400.882
373.4947, 6395.757
373.9768, 6392.491
374.4589, 6391.057
374.9410, 6391.455
375.4231, 6394.675
375.9052, 6403.106
376.3874, 6407.868
376.8695, 6404.780
377.3516, 6394.206
377.8337, 6389.555
378.3158, 6392.086
378.7979, 6397.251
379.2801, 6400.935
379.7622, 6403.192
380.2443, 6404.614
380.7264, 6404.790
381.2085, 6404.676
381.6906, 6407.424
382.1728, 6413.021
382.6549, 6418.249
383.1370, 6419.705
383.6191, 6418.551
384.1012, 6419.819
384.5833, 6424.262
385.0655, 6429.838
385.5476, 6434.298
386.0297, 6437.659
386.5118, 6439.958
386.9939, 6440.543
387.4760, 6440.400
387.9582, 6441.102
388.4403, 6442.747
388.9224, 6444.458
389.4045, 6445.708
389.8866, 6446.649
390.3687, 6447.405
390.8509, 6447.158
391.3330, 6447.870
391.8151, 6452.343
392.2972, 6459.502
392.7793, 6464.871
393.2614, 6466.277
393.7436, 6465.035
394.2257, 6461.081
394.7078, 6451.669
395.1899, 6446.256
395.6720, 6451.112
396.1541, 6461.477
396.6363, 6469.726
397.1184, 6473.245
397.6005, 6474.984
398.0826, 6475.166
398.5647, 6473.454
399.0468, 6473.263
399.5290, 6478.412
400.0111, 6483.240
400.4932, 6483.009
400.9753, 6468.561
401.4574, 6461.561
401.9395, 6466.975
402.4217, 6481.998
402.9038, 6493.442
403.3859, 6500.815
403.8680, 6505.400
404.3501, 6507.362
404.8322, 6505.740
405.3144, 6504.725
405.7965, 6504.146
406.2786, 6504.373
406.7607, 6506.308
407.2428, 6510.263
407.7249, 6514.157
408.2071, 6517.288
408.6892, 6519.730
409.1713, 6521.528
409.6534, 6522.401
410.1355, 6524.128
410.6176, 6529.813
411.0998, 6538.402
411.5819, 6543.162
412.0640, 6541.417
412.5461, 6537.517
413.0282, 6538.927
413.5103, 6544.889
413.9925, 6550.979
414.4746, 6555.318
414.9567, 6557.945
415.4388, 6558.546
415.9209, 6556.957
416.4030, 6554.747
416.8852, 6553.020
417.3673, 6551.618
417.8494, 6550.266
418.3315, 6550.008
418.8136, 6548.935
419.2957, 6544.062
419.7779, 6536.445
420.2600, 6532.315
420.7421, 6537.572
421.2242, 6545.734
421.7063, 6552.119
422.1884, 6555.774
422.6706, 6558.217
423.1527, 6558.170
423.6348, 6557.393
424.1169, 6559.140
424.5990, 6568.005
425.0811, 6575.438
425.5633, 6577.303
426.0454, 6571.981
426.5275, 6571.857
427.0096, 6579.054
427.4917, 6589.565
427.9738, 6600.757
428.4560, 6615.186
428.9381, 6624.298
429.4202, 6625.038
429.9023, 6620.077
430.3844, 6619.356
430.8665, 6624.777
431.3487, 6629.016
431.8308, 6627.007
432.3129, 6618.273
432.7950, 6614.611
433.2771, 6617.246
433.7592, 6622.228
434.2414, 6623.875
434.7235, 6622.648
435.2056, 6623.750
435.6877, 6629.882
436.1698, 6638.724
436.6519, 6645.772
437.1341, 6651.086
437.6162, 6655.237
438.0983, 6658.703
438.5804, 6661.382
439.0625, 6662.597
439.5446, 6661.601
440.0268, 6661.358
440.5089, 6664.095
440.9910, 6669.551
441.4731, 6677.115
441.9552, 6689.715
442.4373, 6701.783
442.9195, 6709.304
443.4016, 6712.197
443.8837, 6714.584
444.3658, 6717.224
444.8479, 6720.415
445.3300, 6724.345
445.8122, 6729.120
446.2943, 6734.406
446.7764, 6740.661
447.2585, 6747.368
447.7406, 6753.249
448.2227, 6757.891
448.7049, 6762.030
449.1870, 6765.697
449.6691, 6768.661
450.1512, 6772.962
450.6333, 6780.203
451.1154, 6787.167
451.5976, 6790.228
452.0797, 6787.720
452.5618, 6787.503
453.0439, 6792.002
453.5260, 6799.093
454.0081, 6801.025
454.4903, 6796.730
454.9724, 6794.595
455.4545, 6800.896
455.9366, 6814.185
456.4187, 6824.479
456.9008, 6831.036
457.3830, 6836.188
457.8651, 6842.830
458.3472, 6850.182
458.8293, 6855.459
459.3114, 6856.785
459.7935, 6856.450
460.2757, 6856.750
460.7578, 6857.701
461.2399, 6859.664
461.7220, 6863.559
462.2041, 6868.179
462.6862, 6872.808
463.1684, 6877.781
463.6505, 6880.995
464.1326, 6878.750
464.6147, 6874.990
465.0968, 6874.789
465.5789, 6885.354
466.0611, 6894.133
466.5432, 6896.406
467.0253, 6892.794
467.5074, 6890.579
467.9895, 6890.502
468.4716, 6892.207
468.9538, 6895.638
469.4359, 6901.415
469.9180, 6907.364
470.4001, 6913.329
470.8822, 6919.493
471.3643, 6926.469
471.8465, 6934.938
472.3286, 6941.787
472.8107, 6945.358
473.2928, 6946.448
473.7749, 6951.000
474.2570, 6959.724
474.7392, 6967.813
475.2213, 6971.166
475.7034, 6970.425
476.1855, 6970.150
476.6676, 6971.061
477.1497, 6971.870
477.6319, 6971.353
478.1140, 6969.455
478.5961, 6965.821
479.0782, 6958.201
479.5603, 6950.117
480.0424, 6946.183
480.5246, 6945.947
481.0067, 6945.865
481.4888, 6944.229
481.9709, 6941.396
482.4530, 6937.401
482.9352, 6931.492
483.4173, 6926.167
483.8994, 6924.251
484.3815, 6923.025
484.8636, 6918.415
485.3457, 6906.300
485.8279, 6893.957
486.3100, 6882.727
486.7921, 6872.710
487.2742, 6864.906
487.7563, 6860.375
488.2384, 6857.116
488.7206, 6854.509
489.2027, 6854.025
489.6848, 6850.496
490.1669, 6843.175
490.6490, 6833.685
491.1311, 6823.680
491.6133, 6812.866
492.0954, 6804.159
492.5775, 6798.252
493.0596, 6795.147
493.5417, 6795.739
494.0238, 6799.998
494.5060, 6804.351
494.9881, 6807.273
495.4702, 6808.024
495.9523, 6803.833
496.4344, 6793.225
496.9165, 6782.391
497.3987, 6778.254
497.8808, 6778.214
498.3629, 6777.498
498.8450, 6773.493
499.3271, 6768.760
499.8092, 6765.478
500.2914, 6763.243
500.7735, 6759.820
501.2556, 6751.802
501.7377, 6744.310
502.2198, 6741.078
502.7019, 6745.361
503.1841, 6746.683
503.6662, 6741.419
504.1483, 6733.604
504.6304, 6727.900
505.1125, 6725.152
505.5946, 6723.317
506.0768, 6722.417
506.5589, 6722.159
507.0410, 6721.091
507.5231, 6718.885
508.0052, 6716.576
508.4873, 6714.015
508.9695, 6711.168
509.4516, 6711.379
509.9337, 6715.069
510.4158, 6719.843
510.8979, 6723.498
511.3800, 6725.995
511.8622, 6727.132
512.3443, 6726.851
512.8264, 6725.179
513.3085, 6720.320
513.7906, 6713.637
514.2728, 6709.964
514.7549, 6717.676
515.2370, 6725.994
515.7191, 6723.576
516.2012, 6708.995
516.6833, 6697.120
517.1655, 6697.650
517.6476, 6702.453
518.1297, 6704.545
518.6118, 6698.700
519.0939, 6694.870
519.5760, 6695.822
520.0582, 6699.791
520.5403, 6702.459
521.0224, 6702.412
521.5045, 6702.875
521.9866, 6704.221
522.4688, 6706.430
522.9509, 6712.306
523.4330, 6723.937
523.9151, 6734.256
524.3972, 6736.005
524.8793, 6728.857
525.3615, 6726.555
525.8436, 6730.999
526.3257, 6738.457
526.8078, 6745.213
527.2899, 6750.679
527.7720, 6751.787
528.2542, 6744.953
528.7363, 6734.925
529.2184, 6727.050
529.7005, 6721.380
530.1826, 6717.818
530.6647, 6717.569
531.1469, 6718.742
531.6290, 6719.771
532.1111, 6720.432
532.5932, 6721.385
533.0753, 6724.376
533.5574, 6727.296
534.0396, 6727.910
534.5217, 6723.860
535.0038, 6719.971
535.4859, 6716.021
535.9680, 6712.708
536.4501, 6712.541
536.9323, 6718.144
537.4144, 6722.371
537.8965, 6721.419
538.3786, 6715.023
538.8607, 6714.690
539.3428, 6722.181
539.8250, 6730.054
540.3071, 6729.925
540.7892, 6722.796
541.2713, 6718.983
541.7534, 6720.621
542.2355, 6724.302
542.7177, 6724.974
543.1998, 6723.650
543.6819, 6723.568
544.1640, 6729.201
544.6461, 6734.688
545.1282, 6732.900
545.6104, 6725.123
546.0925, 6719.270
546.5746, 6720.439
547.0567, 6724.292
547.5388, 6727.980
548.0209, 6730.802
548.5031, 6734.555
548.9852, 6741.954
549.4673, 6749.353
549.9494, 6752.864
550.4315, 6750.546
550.9136, 6747.007
551.3958, 6741.231
551.8779, 6734.798
552.3600, 6733.013
552.8421, 6736.940
553.3242, 6741.668
553.8063, 6746.336
554.2885, 6750.421
554.7706, 6748.342
555.2527, 6739.540
555.7348, 6730.724
556.2169, 6728.458
556.6990, 6730.753
557.1812, 6732.305
557.6633, 6732.132
558.1454, 6731.940
558.6275, 6734.345
559.1096, 6737.793
559.5917, 6739.556
560.0739, 6737.388
560.5560, 6734.384
561.0381, 6730.873
561.5202, 6727.463
562.0023, 6726.604
562.4844, 6733.554
562.9666, 6739.102
563.4487, 6738.236
563.9308, 6729.229
564.4129, 6722.073
564.8950, 6716.140
565.3771, 6712.631
565.8593, 6713.124
566.3414, 6718.806
566.8235, 6723.371
567.3056, 6726.472
567.7877, 6727.819
568.2698, 6726.242
568.7520, 6721.936
569.2341, 6717.938
569.7162, 6715.337
570.1983, 6713.928
570.6804, 6714.063
571.1625, 6715.487
571.6447, 6715.933
572.1268, 6712.949
572.6089, 6708.955
573.0910, 6706.045
573.5731, 6704.402
574.0552, 6704.458
574.5374, 6706.714
575.0195, 6710.588
575.5016, 6715.500
575.9837, 6725.066
576.4658, 6730.748
576.9479, 6728.286
577.4301, 6722.054
577.9122, 6720.884
578.3943, 6726.772
578.8764, 6733.315
579.3585, 6738.996
579.8406, 6743.751
580.3228, 6747.951
580.8049, 6751.766
581.2870, 6753.747
581.7691, 6752.413
582.2512, 6748.456
582.7333, 6744.424
583.2155, 6740.553
583.6975, 6736.792
584.1796, 6731.633
584.6617, 6726.968
585.1439, 6725.889
585.6260, 6729.964
586.1081, 6736.750
586.5902, 6749.599
587.0723, 6763.670
587.5544, 6769.427
588.0366, 6755.405
588.5187, 6741.547
589.0008, 6733.089
589.4829, 6730.157
589.9650, 6731.711
590.4471, 6742.039
590.9293, 6750.892
591.4114, 6752.451
591.8935, 6745.186
592.3756, 6741.192
592.8577, 6741.030
593.3398, 6742.507
593.8220, 6743.879
594.3041, 6745.095
594.7862, 6745.435
595.2683, 6744.680
595.7504, 6743.504
596.2325, 6743.274
596.7147, 6743.430
597.1968, 6742.406
597.6789, 6737.562
598.1610, 6733.067
598.6431, 6733.837
599.1252, 6738.294
599.6074, 6738.992
600.0895, 6728.114
600.5716, 6717.233
601.0537, 6712.414
601.5358, 6715.688
602.0179, 6717.663
602.5001, 6718.080
602.9822, 6717.300
603.4643, 6715.099
603.9464, 6710.467
604.4285, 6708.776
604.9106, 6711.319
605.3928, 6715.104
605.8749, 6714.921
606.3570, 6711.130
606.8391, 6708.604
607.3212, 6708.929
607.8033, 6711.083
608.2855, 6713.792
608.7676, 6716.993
609.2497, 6720.655
609.7318, 6726.414
610.2139, 6731.255
610.6960, 6732.016
611.1782, 6728.678
611.6603, 6725.684
612.1424, 6724.249
612.6245, 6723.873
613.1066, 6724.602
613.5887, 6728.140
614.0709, 6728.968
614.5530, 6726.285
615.0351, 6721.813
615.5172, 6716.326
615.9993, 6708.502
616.4814, 6706.499
616.9636, 6713.351
617.4457, 6723.737
617.9278, 6727.556
618.4099, 6725.164
618.8920, 6720.726
619.3741, 6713.012
619.8563, 6706.198
620.3384, 6709.487
620.8205, 6720.549
621.3026, 6727.979
621.7847, 6720.642
622.2668, 6710.380
622.7490, 6706.959
623.2311, 6711.995
623.7132, 6714.931
624.1953, 6711.123
624.6774, 6705.700
625.1595, 6702.337
625.6417, 6702.698
626.1238, 6702.369
626.6059, 6701.260
627.0880, 6699.841
627.5701, 6698.521
628.0522, 6697.268
628.5344, 6696.939
629.0165, 6697.727
629.4986, 6699.491
629.9807, 6702.263
630.4628, 6705.854
630.9449, 6709.356
631.4271, 6711.949
631.9092, 6714.328
632.3913, 6717.413
632.8734, 6720.972
633.3555, 6723.958
633.8376, 6725.773
634.3198, 6726.771
634.8019, 6727.244
635.2840, 6727.307
635.7661, 6726.105
636.2482, 6720.746
636.7303, 6716.450
637.2125, 6717.461
637.6946, 6726.962
638.1767, 6732.770
638.6588, 6734.166
639.1409, 6732.440
639.6230, 6727.836
640.1052, 6720.746
640.5873, 6717.202
641.0694, 6719.919
641.5515, 6725.022
642.0336, 6726.798
642.5157, 6726.088
642.9979, 6725.350
643.4800, 6725.169
643.9621, 6725.843
644.4442, 6728.427
644.9263, 6732.400
645.4084, 6734.861
645.8906, 6733.427
646.3727, 6731.525
646.8548, 6730.951
647.3369, 6732.030
647.8190, 6732.177
648.3011, 6731.132
648.7833, 6729.563
649.2654, 6727.555
649.7475, 6724.903
650.2296, 6724.272
650.7117, 6726.058
651.1938, 6728.842
651.6760, 6730.175
652.1581, 6730.967
652.6402, 6734.375
653.1223, 6742.409
653.6044, 6750.677
654.0865, 6755.882
654.5687, 6758.459
655.0508, 6759.348
655.5329, 6758.151
656.0150, 6756.095
656.4971, 6752.544
656.9792, 6748.165
657.4614, 6746.255
657.9435, 6747.019
658.4256, 6750.164
658.9077, 6757.008
659.3898, 6767.182
659.8719, 6770.864
660.3541, 6766.781
660.8362, 6762.101
661.3183, 6763.233
661.8004, 6768.131
662.2825, 6767.936
662.7646, 6761.933
663.2468, 6755.224
663.7289, 6752.209
664.2110, 6751.294
664.6931, 6750.500
665.1752, 6749.542
665.6573, 6748.469
666.1395, 6745.696
666.6216, 6743.518
667.1037, 6744.741
667.5858, 6755.350
668.0679, 6762.105
668.5500, 6761.795
669.0322, 6758.008
669.5143, 6759.674
669.9964, 6768.700
670.4785, 6773.314
670.9606, 6767.873
671.4427, 6756.940
671.9249, 6752.995
672.4070, 6755.506
672.8891, 6760.766
673.3712, 6770.219
673.8533, 6779.048
674.3354, 6779.731
674.8176, 6773.022
675.2997, 6768.097
675.7818, 6772.765
676.2639, 6778.312
676.7460, 6778.625
677.2281, 6770.890
677.7103, 6766.690
678.1924, 6767.628
678.6745, 6770.976
679.1566, 6774.990
679.6387, 6779.819
680.1208, 6784.560
680.6030, 6789.111
681.0851, 6793.741
681.5672, 6799.925
682.0493, 6806.779
682.5314, 6810.528
683.0135, 6809.312
683.4957, 6806.732
683.9778, 6806.600
684.4599, 6807.807
684.9420, 6808.303
685.4241, 6805.488
685.9063, 6803.788
686.3884, 6806.032
686.8705, 6810.932
687.3526, 6813.814
687.8347, 6812.738
688.3168, 6812.396
688.7990, 6814.535
689.2811, 6818.665
689.7632, 6821.323
690.2453, 6822.604
690.7274, 6822.083
691.2095, 6817.464
691.6917, 6810.976
692.1738, 6810.261
692.6559, 6815.123
693.1380, 6819.890
693.6201, 6820.219
694.1022, 6818.405
694.5844, 6815.804
695.0665, 6812.032
695.5486, 6811.007
696.0307, 6818.417
696.5128, 6826.167
696.9949, 6827.531
697.4771, 6817.517
697.9592, 6811.523
698.4413, 6810.495
698.9234, 6812.529
699.4055, 6817.150
699.8876, 6824.608
700.3698, 6825.806
700.8519, 6817.830
701.3340, 6807.188
701.8161, 6803.073
702.2982, 6803.631
702.7803, 6804.053
703.2625, 6802.059
703.7446, 6800.055
704.2267, 6799.549
704.7088, 6800.208
705.1909, 6801.313
705.6730, 6802.786
706.1552, 6804.328
706.6373, 6804.798
707.1194, 6804.932
707.6015, 6809.300
708.0836, 6819.784
708.5657, 6828.092
709.0479, 6829.705
709.5300, 6826.437
710.0121, 6826.477
710.4942, 6829.655
710.9763, 6833.041
711.4584, 6835.287
711.9406, 6836.286
712.4227, 6835.708
712.9048, 6833.617
713.3869, 6831.079
713.8690, 6828.023
714.3511, 6825.301
714.8333, 6823.581
715.3154, 6823.417
715.7975, 6823.511
716.2796, 6825.569
716.7617, 6826.110
717.2438, 6821.151
717.7260, 6809.929
718.2081, 6803.130
718.6902, 6801.743
719.1723, 6803.832
719.6544, 6809.763
720.1365, 6817.275
720.6187, 6819.966
721.1008, 6814.928
721.5829, 6809.270
722.0650, 6806.925
722.5471, 6807.548
723.0292, 6810.675
723.5114, 6819.306
723.9935, 6826.318
724.4756, 6829.929
724.9577, 6831.416
725.4398, 6832.739
725.9219, 6833.453
726.4041, 6835.005
726.8862, 6837.397
727.3683, 6841.070
727.8504, 6849.264
728.3325, 6860.794
728.8146, 6867.333
729.2968, 6860.802
729.7789, 6850.989
730.2610, 6849.716
730.7431, 6854.706
731.2252, 6858.418
731.7073, 6857.095
732.1895, 6854.316
732.6716, 6850.342
733.1537, 6845.630
733.6358, 6844.813
734.1179, 6850.611
734.6000, 6855.823
735.0822, 6857.349
735.5643, 6855.604
736.0464, 6853.922
736.5285, 6852.343
737.0106, 6850.910
737.4927, 6849.633
737.9749, 6848.578
738.4570, 6847.940
738.9391, 6847.733
739.4212, 6847.467
739.9033, 6847.661
740.3854, 6847.060
740.8676, 6843.755
741.3497, 6835.616
741.8318, 6832.864
742.3139, 6840.866
742.7960, 6848.792
743.2781, 6848.240
743.7603, 6837.366
744.2424, 6831.548
744.7245, 6831.855
745.2066, 6834.597
745.6887, 6836.530
746.1708, 6837.905
746.6530, 6839.134
747.1351, 6840.220
747.6172, 6841.803
748.0993, 6845.660
748.5814, 6849.757
749.0635, 6851.573
749.5457, 6847.072
750.0278, 6845.830
750.5099, 6849.442
750.9920, 6856.397
751.4741, 6866.180
751.9562, 6880.376
752.4384, 6889.123
752.9205, 6889.749
753.4026, 6886.707
753.8847, 6886.338
754.3668, 6888.253
754.8489, 6891.557
755.3311, 6897.481
755.8132, 6901.742
756.2953, 6898.330
756.7774, 6891.005
757.2595, 6886.446
757.7416, 6889.779
758.2238, 6892.655
758.7059, 6893.851
759.1880, 6893.389
759.6701, 6890.686
760.1522, 6884.702
760.6343, 6880.159
761.1165, 6878.130
761.5986, 6878.517
762.0807, 6882.685
762.5628, 6889.713
763.0449, 6893.968
763.5270, 6890.417
764.0092, 6885.058
764.4913, 6884.317
764.9734, 6886.494
765.4555, 6886.347
765.9376, 6877.567
766.4197, 6870.707
766.9019, 6870.328
767.3840, 6875.042
767.8661, 6878.984
768.3482, 6881.951
768.8303, 6884.554
769.3124, 6887.140
769.7946, 6889.448
770.2767, 6890.600
770.7588, 6890.646
771.2409, 6890.115
771.7230, 6887.428
772.2051, 6885.697
772.6873, 6890.478
773.1694, 6900.453
773.6515, 6905.415
774.1336, 6895.536
774.6157, 6886.063
775.0978, 6884.337
775.5800, 6890.069
776.0621, 6893.546
776.5442, 6893.971
777.0263, 6894.492
777.5084, 6896.272
777.9905, 6899.481
778.4727, 6906.695
778.9548, 6917.514
779.4369, 6925.445
779.9190, 6922.706
780.4011, 6916.757
780.8832, 6915.315
781.3654, 6918.821
781.8475, 6921.299
782.3296, 6920.321
782.8117, 6918.249
783.2938, 6916.431
783.7759, 6915.034
784.2581, 6911.915
784.7402, 6906.338
785.2223, 6901.757
785.7044, 6901.524
786.1865, 6904.469
786.6686, 6905.761
787.1508, 6905.340
787.6329, 6904.115
788.1150, 6900.778
788.5971, 6898.218
789.0792, 6900.182
789.5613, 6907.706
790.0435, 6913.055
790.5256, 6911.557
791.0077, 6909.665
791.4898, 6910.722
791.9719, 6915.022
792.4540, 6919.514
792.9362, 6924.239
793.4183, 6928.158
793.9004, 6929.597
794.3825, 6929.507
794.8646, 6931.733
795.3467, 6936.639
795.8289, 6938.576
796.3110, 6929.454
796.7931, 6918.405
797.2752, 6914.498
797.7573, 6921.734
798.2394, 6923.030
798.7216, 6910.630
799.2037, 6898.529
799.6858, 6896.393
800.1679, 6905.957
800.6500, 6913.149
801.1321, 6918.196
801.6143, 6920.377
802.0964, 6916.185
802.5785, 6909.470
803.0606, 6908.425
803.5427, 6914.283
804.0248, 6920.053
804.5070, 6919.667
804.9891, 6918.768
805.4712, 6922.340
805.9533, 6933.670
806.4354, 6940.139
806.9175, 6939.873
807.3997, 6937.264
807.8818, 6934.596
808.3639, 6931.925
808.8460, 6933.312
809.3281, 6939.366
809.8102, 6943.547
810.2924, 6936.903
810.7745, 6926.208
811.2566, 6921.056
811.7387, 6923.271
812.2208, 6926.153
812.7029, 6926.012
813.1851, 6926.436
813.6672, 6930.503
814.1493, 6939.771
814.6314, 6946.067
815.1135, 6948.927
815.5956, 6949.827
816.0778, 6948.813
816.5599, 6946.567
817.0420, 6946.454
817.5241, 6948.609
818.0062, 6951.905
818.4883, 6957.096
818.9705, 6961.849
819.4526, 6963.208
819.9347, 6960.158
820.4168, 6958.374
820.8989, 6959.702
821.3810, 6961.974
821.8632, 6964.589
822.3453, 6967.838
822.8274, 6969.385
823.3095, 6969.508
823.7916, 6966.851
824.2737, 6957.943
824.7559, 6946.339
825.2380, 6939.079
825.7201, 6936.671
826.2022, 6936.835
826.6843, 6941.110
827.1664, 6945.311
827.6486, 6945.647
828.1307, 6940.757
828.6128, 6940.493
829.0949, 6947.797
829.5770, 6954.500
830.0591, 6955.023
830.5413, 6950.153
831.0234, 6950.112
831.5055, 6954.783
831.9876, 6959.143
832.4697, 6960.347
832.9518, 6958.869
833.4340, 6952.673
833.9161, 6942.474
834.3982, 6938.240
834.8803, 6951.360
835.3624, 6963.437
835.8445, 6966.006
836.3267, 6959.523
836.8088, 6953.933
837.2909, 6949.250
837.7730, 6945.690
838.2551, 6942.229
838.7372, 6940.390
839.2194, 6946.810
839.7015, 6959.702
840.1836, 6968.614
840.6657, 6962.588
841.1478, 6955.096
841.6299, 6955.871
842.1121, 6963.876
842.5942, 6966.898
843.0763, 6961.150
843.5584, 6955.690
844.0405, 6952.683
844.5226, 6952.250
845.0048, 6956.805
845.4869, 6965.827
845.9690, 6971.869
846.4511, 6967.452
846.9332, 6961.278
847.4153, 6964.849
847.8975, 6974.636
848.3796, 6980.596
848.8617, 6976.480
849.3438, 6971.312
849.8259, 6966.829
850.3080, 6963.454
850.7902, 6962.695
851.2723, 6965.120
851.7544, 6967.002
852.2365, 6966.954
852.7186, 6966.381
853.2007, 6968.335
853.6829, 6971.814
854.1650, 6973.974
854.6471, 6970.967
855.1292, 6969.787
855.6113, 6976.336
856.0934, 6986.217
856.5756, 6991.232
857.0577, 6987.821
857.5398, 6986.259
858.0219, 6988.220
858.5040, 6991.493
858.9861, 6991.858
859.4683, 6990.062
859.9504, 6990.589
860.4325, 6995.099
860.9146, 7000.028
861.3967, 7003.941
861.8788, 7005.539
862.3610, 7002.783
862.8431, 6989.459
863.3252, 6982.424
863.8073, 6986.594
864.2894, 6993.769
864.7715, 6995.734
865.2537, 6992.263
865.7358, 6990.429
866.2179, 6991.173
866.7000, 6991.493
867.1821, 6987.570
867.6642, 6981.753
868.1464, 6976.586
868.6285, 6971.948
869.1106, 6971.893
869.5927, 6983.047
870.0748, 6995.140
870.5569, 7001.002
871.0391, 6999.372
871.5212, 6998.838
872.0033, 6999.151
872.4854, 7000.602
872.9675, 7002.990
873.4496, 7006.485
873.9318, 7012.869
874.4139, 7021.651
874.8960, 7028.190
875.3781, 7030.163
875.8602, 7028.642
876.3423, 7022.197
876.8245, 7011.196
877.3066, 7006.317
877.7887, 7010.933
878.2708, 7014.771
878.7529, 7013.701
879.2350, 7009.196
879.7172, 7004.906
880.1993, 7001.202
880.6814, 6999.087
881.1635, 6999.554
881.6456, 7001.523
882.1277, 7004.899
882.6099, 7009.081
883.0920, 7012.359
883.5741, 7012.153
884.0562, 7013.876
884.5383, 7019.063
885.0204, 7025.688
885.5026, 7029.362
885.9847, 7030.103
886.4668, 7029.815
886.9489, 7027.771
887.4310, 7027.597
887.9131, 7036.436
888.3953, 7048.853
888.8774, 7056.757
889.3595, 7056.502
889.8416, 7053.780
890.3237, 7048.218
890.8058, 7041.869
891.2880, 7036.498
891.7701, 7032.144
892.2522, 7029.123
892.7343, 7027.330
893.2164, 7027.563
893.6985, 7033.657
894.1807, 7040.987
894.6628, 7042.041
895.1449, 7034.712
895.6270, 7027.994
896.1091, 7024.784
896.5912, 7023.495
897.0734, 7022.822
897.5555, 7022.612
898.0376, 7027.134
898.5197, 7037.708
899.0018, 7045.479
899.4839, 7040.665
899.9661, 7030.337
900.4482, 7028.548
900.9303, 7034.292
901.4124, 7039.237
901.8945, 7036.916
902.3766, 7035.134
902.8588, 7038.857
903.3409, 7046.468
903.8230, 7050.658
904.3051, 7050.637
904.7872, 7049.694
905.2693, 7048.113
905.7515, 7047.007
906.2336, 7049.712
906.7157, 7054.846
907.1978, 7058.489
907.6799, 7057.444
908.1620, 7056.528
908.6442, 7057.751
909.1263, 7060.674
909.6084, 7064.875
910.0905, 7072.329
910.5726, 7075.525
911.0547, 7072.859
911.5369, 7068.411
912.0190, 7068.681
912.5011, 7071.523
912.9832, 7069.596
913.4653, 7060.644
913.9474, 7053.795
914.4296, 7056.247
914.9117, 7062.305
915.3938, 7067.500
915.8759, 7071.521
916.3580, 7073.537
916.8401, 7072.389
917.3223, 7071.800
917.8044, 7075.923
918.2865, 7082.687
918.7686, 7083.601
919.2507, 7079.234
919.7328, 7075.171
920.2150, 7076.194
920.6971, 7077.604
921.1792, 7075.982
921.6613, 7071.840
922.1434, 7069.561
922.6255, 7069.813
923.1077, 7070.923
923.5898, 7073.055
924.0719, 7075.047
924.5540, 7073.318
925.0361, 7068.771
925.5182, 7065.347
926.0004, 7064.749
926.4825, 7064.893
926.9646, 7062.971
927.4467, 7061.288
927.9288, 7063.858
928.4109, 7074.982
928.8931, 7081.541
929.3752, 7082.483
929.8573, 7079.562
930.3394, 7073.444
930.8215, 7065.147
931.3036, 7057.261
931.7858, 7049.987
932.2679, 7046.198
932.7500, 7052.540
933.2321, 7059.852
933.7142, 7060.869
934.1964, 7054.208
934.6785, 7047.339
935.1606, 7038.764
935.6427, 7034.224
936.1248, 7038.956
936.6069, 7049.465
937.0891, 7052.749
937.5712, 7050.235
938.0533, 7048.994
938.5354, 7054.274
939.0175, 7060.364
939.4996, 7063.908
939.9818, 7065.542
940.4639, 7067.267
940.9460, 7068.562
941.4281, 7071.198
941.9102, 7076.028
942.3923, 7081.004
942.8745, 7082.442
943.3566, 7081.331
943.8387, 7080.358
944.3208, 7080.029
944.8029, 7080.642
945.2850, 7083.555
945.7672, 7086.875
946.2493, 7089.029
946.7314, 7090.329
947.2135, 7089.339
947.6956, 7085.690
948.1777, 7081.314
948.6599, 7077.243
949.1420, 7073.760
949.6241, 7072.011
950.1062, 7071.756
950.5883, 7071.119
951.0704, 7068.385
951.5526, 7065.585
952.0347, 7062.945
952.5168, 7060.987
952.9989, 7062.909
953.4810, 7070.279
953.9631, 7073.534
954.4453, 7068.529
954.9274, 7060.586
955.4095, 7058.209
955.8916, 7059.760
956.3737, 7061.841
956.8558, 7064.592
957.3380, 7065.599
957.8201, 7062.136
958.3022, 7057.982
958.7843, 7056.700
959.2664, 7058.804
959.7485, 7061.459
960.2307, 7064.711
960.7128, 7067.604
961.1949, 7068.125
961.6770, 7068.335
962.1591, 7072.191
962.6412, 7079.603
963.1234, 7084.597
963.6055, 7078.802
964.0876, 7077.542
964.5697, 7089.302
965.0518, 7109.310
965.5339, 7115.479
966.0161, 7107.747
966.4982, 7099.964
966.9803, 7096.286
967.4624, 7096.651
967.9445, 7104.287
968.4266, 7115.119
968.9088, 7122.287
969.3909, 7122.045
969.8730, 7120.714
970.3551, 7118.672
970.8372, 7116.059
971.3193, 7112.933
971.8015, 7109.417
972.2836, 7104.778
972.7657, 7098.952
973.2478, 7096.159
973.7299, 7103.200
974.2120, 7112.097
974.6942, 7115.453
975.1763, 7112.692
975.6584, 7112.819
976.1405, 7117.743
976.6226, 7122.190
977.1047, 7124.084
977.5869, 7124.191
978.0690, 7124.089
978.5511, 7123.924
979.0332, 7124.518
979.5153, 7127.674
979.9974, 7129.368
980.4796, 7125.518
980.9617, 7119.715
981.4438, 7117.187
981.9259, 7119.361
982.4080, 7121.070
982.8901, 7122.435
983.3723, 7122.226
983.8544, 7116.956
984.3365, 7110.117
984.8186, 7109.206
985.3007, 7114.724
985.7828, 7119.597
986.2650, 7118.884
986.7471, 7118.995
987.2292, 7124.095
987.7113, 7132.418
988.1934, 7132.795
988.6755, 7124.619
989.1577, 7121.930
989.6398, 7133.549
990.1219, 7147.157
990.6040, 7145.111
991.0861, 7135.299
991.5682, 7131.187
992.0504, 7142.319
992.5325, 7150.394
993.0146, 7152.967
993.4967, 7153.542
993.9788, 7156.755
994.4609, 7161.742
994.9431, 7158.279
995.4252, 7145.939
995.9073, 7136.467
996.3894, 7142.627
996.8715, 7151.438
997.3536, 7153.704
997.8358, 7149.063
998.3179, 7142.104
998.8000, 7130.364
999.2821, 7123.334
999.7642, 7124.343
1000.246, 7130.750
1000.728, 7140.326
1001.211, 7150.748
1001.693, 7155.278
1002.175, 7149.630
1002.657, 7142.940
1003.139, 7137.655
1003.621, 7134.251
1004.103, 7132.832
1004.585, 7133.100
1005.068, 7138.031
1005.550, 7148.154
1006.032, 7157.510
1006.514, 7159.758
1006.996, 7159.734
1007.478, 7165.641
1007.960, 7175.724
1008.442, 7179.479
1008.924, 7164.694
1009.407, 7155.517
1009.889, 7159.025
1010.371, 7168.562
1010.853, 7170.008
1011.335, 7164.577
1011.817, 7159.697
1012.299, 7156.955
1012.781, 7156.131
1013.263, 7159.458
1013.746, 7163.372
1014.228, 7163.976
1014.710, 7160.221
1015.192, 7158.922
1015.674, 7160.857
1016.156, 7163.086
1016.638, 7163.435
1017.120, 7162.955
1017.603, 7162.836
1018.085, 7163.628
1018.567, 7167.510
1019.049, 7180.085
1019.531, 7189.722
1020.013, 7190.191
1020.495, 7187.340
1020.977, 7190.442
1021.459, 7199.580
1021.942, 7205.685
1022.424, 7207.536
1022.906, 7206.603
1023.388, 7203.580
1023.870, 7199.095
1024.352, 7192.901
1024.834, 7184.865
1025.316, 7180.793
1025.799, 7183.052
1026.281, 7185.340
1026.763, 7184.636
1027.245, 7182.978
1027.727, 7187.002
1028.209, 7194.775
1028.691, 7199.515
1029.173, 7196.556
1029.656, 7193.230
1030.138, 7192.350
1030.620, 7193.066
1031.102, 7194.236
1031.584, 7195.532
1032.066, 7199.323
1032.548, 7205.963
1033.030, 7211.282
1033.512, 7207.781
1033.995, 7203.563
1034.477, 7210.971
1034.959, 7227.997
1035.441, 7239.432
1035.923, 7240.665
1036.405, 7237.120
1036.887, 7227.386
1037.369, 7216.403
1037.851, 7216.680
1038.334, 7224.455
1038.816, 7223.458
1039.298, 7207.497
1039.780, 7194.550
1040.262, 7199.586
1040.744, 7209.216
1041.226, 7212.885
1041.708, 7210.217
1042.191, 7206.281
1042.673, 7200.711
1043.155, 7196.880
1043.637, 7197.987
1044.119, 7200.643
1044.601, 7198.432
1045.083, 7194.214
1045.565, 7194.595
1046.047, 7208.206
1046.530, 7216.497
1047.012, 7215.908
1047.494, 7212.505
1047.976, 7212.819
1048.458, 7216.229
1048.940, 7219.915
1049.422, 7223.638
1049.904, 7227.425
1050.386, 7233.167
1050.869, 7237.242
1051.351, 7234.948
1051.833, 7228.788
1052.315, 7230.040
1052.797, 7239.968
1053.279, 7247.437
1053.761, 7249.415
1054.243, 7248.058
1054.726, 7242.527
1055.208, 7236.984
1055.690, 7238.230
1056.172, 7251.141
1056.654, 7259.417
1057.136, 7260.845
1057.618, 7259.412
1058.100, 7256.950
1058.583, 7253.666
1059.065, 7249.250
1059.547, 7244.406
1060.029, 7242.327
1060.511, 7248.664
1060.993, 7253.588
1061.475, 7250.424
1061.957, 7244.792
1062.439, 7244.697
1062.922, 7250.890
1063.404, 7256.799
1063.886, 7262.157
1064.368, 7264.878
1064.850, 7261.227
1065.332, 7255.414
1065.814, 7250.683
1066.296, 7247.486
1066.778, 7247.886
1067.261, 7254.525
1067.743, 7258.531
1068.225, 7256.979
1068.707, 7252.596
1069.189, 7249.003
1069.671, 7246.739
1070.153, 7248.008
1070.635, 7254.875
1071.118, 7259.266
1071.600, 7255.395
1072.082, 7250.476
1072.564, 7249.443
1073.046, 7251.721
1073.528, 7247.024
1074.010, 7236.189
1074.492, 7229.503
1074.974, 7237.277
1075.457, 7245.958
1075.939, 7243.183
1076.421, 7235.342
1076.903, 7233.727
1077.385, 7241.748
1077.867, 7246.663
1078.349, 7247.395
1078.831, 7246.797
1079.313, 7246.134
1079.796, 7246.428
1080.278, 7250.950
1080.760, 7258.711
1081.242, 7262.542
1081.724, 7254.037
1082.206, 7249.905
1082.688, 7255.694
1083.170, 7264.854
1083.652, 7264.156
1084.135, 7256.306
1084.617, 7251.513
1085.099, 7251.979
1085.581, 7253.794
1086.063, 7256.941
1086.545, 7258.612
1087.027, 7256.034
1087.509, 7250.016
1087.992, 7249.433
1088.474, 7254.374
1088.956, 7258.196
1089.438, 7257.718
1089.920, 7255.862
1090.402, 7252.640
1090.884, 7251.072
1091.366, 7256.324
1091.849, 7274.593
1092.331, 7283.693
1092.813, 7281.475
1093.295, 7277.369
1093.777, 7279.413
1094.259, 7275.951
1094.741, 7281.208
1095.223, 7274.129
1095.705, 7270.120
1096.188, 7272.522
1096.670, 7277.972
1097.152, 7287.796
1097.634, 7297.470
1098.116, 7300.115
1098.598, 7297.336
1099.080, 7296.647
1099.562, 7298.728
1100.044, 7302.023
1100.527, 7309.892
1101.009, 7314.373
1101.491, 7308.779
1101.973, 7297.086
1102.455, 7291.817
1102.937, 7293.097
1103.419, 7293.973
1103.901, 7292.514
1104.384, 7291.440
1104.866, 7294.719
1105.348, 7298.889
1105.830, 7300.464
1106.312, 7298.836
1106.794, 7296.047
1107.276, 7291.538
1107.758, 7287.716
1108.240, 7284.790
1108.723, 7284.115
1109.205, 7289.652
1109.687, 7298.541
1110.169, 7305.186
1110.651, 7305.032
1111.133, 7308.705
1111.615, 7320.142
1112.097, 7329.614
1112.579, 7327.094
1113.062, 7316.720
1113.544, 7313.573
1114.026, 7316.454
1114.508, 7319.146
1114.990, 7318.399
1115.472, 7317.275
1115.954, 7316.358
1116.436, 7316.014
1116.919, 7317.379
1117.401, 7320.289
1117.883, 7320.396
1118.365, 7317.396
1118.847, 7316.163
1119.329, 7323.447
1119.811, 7330.713
1120.293, 7331.498
1120.776, 7327.501
1121.258, 7324.217
1121.740, 7321.354
1122.222, 7322.050
1122.704, 7327.740
1123.186, 7333.143
1123.668, 7331.925
1124.150, 7328.042
1124.632, 7325.752
1125.115, 7325.695
1125.597, 7324.054
1126.079, 7319.674
1126.561, 7317.779
1127.043, 7321.881
1127.525, 7327.292
1128.007, 7326.148
1128.489, 7320.984
1128.971, 7316.199
1129.454, 7314.016
1129.936, 7309.271
1130.418, 7300.028
1130.900, 7291.427
1131.382, 7285.411
1131.864, 7282.846
1132.346, 7288.351
1132.828, 7299.608
1133.311, 7309.022
1133.793, 7311.373
1134.275, 7313.712
1134.757, 7317.210
1135.239, 7321.498
1135.721, 7326.789
1136.203, 7332.609
1136.685, 7335.835
1137.167, 7336.531
1137.650, 7337.292
1138.132, 7341.722
1138.614, 7344.308
1139.096, 7341.215
1139.578, 7335.102
1140.060, 7328.695
1140.542, 7321.918
1141.024, 7324.229
1141.506, 7337.365
1141.989, 7347.553
1142.471, 7339.997
1142.953, 7328.896
1143.435, 7324.791
1143.917, 7327.037
1144.399, 7329.212
1144.881, 7331.211
1145.363, 7334.344
1145.846, 7339.417
1146.328, 7342.869
1146.810, 7337.900
1147.292, 7330.882
1147.774, 7328.734
1148.256, 7332.659
1148.738, 7336.646
1149.220, 7340.974
1149.703, 7343.367
1150.185, 7342.073
1150.667, 7340.293
1151.149, 7344.251
1151.631, 7350.441
1152.113, 7352.995
1152.595, 7349.275
1153.077, 7347.128
1153.559, 7347.732
1154.042, 7348.633
1154.524, 7348.652
1155.006, 7348.116
1155.488, 7348.653
1155.970, 7349.119
1156.452, 7346.488
1156.934, 7336.194
1157.416, 7329.682
1157.898, 7329.463
1158.381, 7331.210
1158.863, 7332.447
1159.345, 7332.939
1159.827, 7330.771
1160.309, 7326.708
1160.791, 7323.956
1161.273, 7322.981
1161.755, 7324.778
1162.238, 7329.795
1162.720, 7337.001
1163.202, 7347.279
1163.684, 7359.290
1164.166, 7363.930
1164.648, 7361.424
1165.130, 7357.942
1165.612, 7357.697
1166.094, 7356.278
1166.577, 7349.743
1167.059, 7342.475
1167.541, 7343.311
1168.023, 7351.291
1168.505, 7351.616
1168.987, 7342.790
1169.469, 7335.563
1169.951, 7338.783
1170.433, 7344.628
1170.916, 7349.673
1171.398, 7353.442
1171.880, 7354.076
1172.362, 7351.614
1172.844, 7351.125
1173.326, 7353.563
1173.808, 7357.500
1174.290, 7364.361
1174.773, 7369.892
1175.255, 7369.666
1175.737, 7364.780
1176.219, 7360.318
1176.701, 7356.183
1177.183, 7353.989
1177.665, 7354.308
1178.147, 7356.335
1178.630, 7361.229
1179.112, 7366.178
1179.594, 7367.856
1180.076, 7370.521
1180.558, 7372.323
1181.040, 7370.958
1181.522, 7372.527
1182.004, 7368.625
1182.486, 7364.045
1182.969, 7363.825
1183.451, 7365.932
1183.933, 7367.844
1184.415, 7368.945
1184.897, 7372.135
1185.379, 7378.034
1185.861, 7381.394
1186.343, 7377.032
1186.825, 7372.037
1187.308, 7377.705
1187.790, 7387.349
1188.272, 7389.944
1188.754, 7381.144
1189.236, 7373.456
1189.718, 7366.478
1190.200, 7363.328
1190.682, 7368.889
1191.165, 7377.209
1191.647, 7381.471
1192.129, 7382.514
1192.611, 7381.769
1193.093, 7378.103
1193.575, 7376.421
1194.057, 7377.399
1194.539, 7377.994
1195.021, 7374.646
1195.504, 7370.242
1195.986, 7367.946
1196.468, 7367.876
1196.950, 7370.573
1197.432, 7378.302
1197.914, 7383.393
1198.396, 7385.045
1198.878, 7384.963
1199.360, 7384.126
1199.843, 7382.971
1200.325, 7381.920
1200.807, 7381.175
1201.289, 7381.531
1201.771, 7384.947
1202.253, 7385.023
1202.735, 7379.789
1203.217, 7375.749
1203.700, 7382.002
1204.182, 7392.918
1204.664, 7400.651
1205.146, 7405.016
1205.628, 7409.292
1206.110, 7415.104
1206.592, 7417.310
1207.074, 7413.600
1207.557, 7409.835
1208.039, 7415.322
1208.521, 7424.215
1209.003, 7428.141
1209.485, 7426.492
1209.967, 7423.583
1210.449, 7419.434
1210.931, 7415.470
1211.413, 7411.635
1211.896, 7409.144
1212.378, 7409.292
1212.860, 7412.030
1213.342, 7419.761
1213.824, 7432.768
1214.306, 7436.120
1214.788, 7425.300
1215.270, 7414.528
1215.752, 7407.102
1216.235, 7402.703
1216.717, 7403.630
1217.199, 7405.909
1217.681, 7402.210
1218.163, 7390.856
1218.645, 7386.714
1219.127, 7393.796
1219.609, 7398.440
1220.092, 7395.553
1220.574, 7390.017
1221.056, 7387.588
1221.538, 7387.912
1222.020, 7391.159
1222.502, 7397.800
1222.984, 7402.471
1223.466, 7404.328
1223.948, 7405.571
1224.431, 7406.128
1224.913, 7408.000
1225.395, 7417.705
1225.877, 7428.813
1226.359, 7431.345
1226.841, 7420.911
1227.323, 7417.117
1227.805, 7422.309
1228.287, 7424.781
1228.770, 7418.210
1229.252, 7409.182
1229.734, 7405.806
1230.216, 7406.167
1230.698, 7408.414
1231.180, 7413.157
1231.662, 7414.737
1232.144, 7412.870
1232.627, 7409.842
1233.109, 7406.883
1233.591, 7403.116
1234.073, 7396.484
1234.555, 7388.984
1235.037, 7383.409
1235.519, 7380.462
1236.001, 7376.602
1236.484, 7371.428
1236.966, 7370.455
1237.448, 7379.439
1237.930, 7389.269
1238.412, 7387.975
1238.894, 7383.249
1239.376, 7386.595
1239.858, 7399.927
1240.340, 7407.780
1240.823, 7409.707
1241.305, 7409.930
1241.787, 7409.015
1242.269, 7409.220
1242.751, 7413.782
1243.233, 7419.653
1243.715, 7422.993
1244.197, 7423.497
1244.679, 7424.094
1245.162, 7424.764
1245.644, 7423.036
1246.126, 7414.089
1246.608, 7407.201
1247.090, 7411.336
1247.572, 7419.471
1248.054, 7423.588
1248.536, 7423.804
1249.019, 7422.510
1249.501, 7420.002
1249.983, 7418.181
1250.465, 7416.772
1250.947, 7418.072
1251.429, 7427.177
1251.911, 7436.333
1252.393, 7436.931
1252.875, 7429.549
1253.358, 7428.320
1253.840, 7432.325
1254.322, 7436.219
1254.804, 7438.099
1255.286, 7437.831
1255.768, 7433.422
1256.250, 7428.731
1256.732, 7426.355
1257.214, 7426.538
1257.697, 7432.255
1258.179, 7442.320
1258.661, 7450.804
1259.143, 7455.107
1259.625, 7457.701
1260.107, 7458.481
1260.589, 7459.208
1261.071, 7461.152
1261.554, 7464.272
1262.036, 7470.221
1262.518, 7477.278
1263.000, 7479.938
1263.482, 7470.542
1263.964, 7464.992
1264.446, 7465.402
1264.928, 7467.528
1265.411, 7468.814
1265.893, 7468.802
1266.375, 7464.992
1266.857, 7459.307
1267.339, 7456.967
1267.821, 7461.999
1268.303, 7466.274
1268.785, 7469.960
1269.267, 7472.335
1269.750, 7472.322
1270.232, 7471.163
1270.714, 7470.889
1271.196, 7470.636
1271.678, 7467.825
1272.160, 7459.962
1272.642, 7457.130
1273.124, 7459.899
1273.606, 7463.919
1274.089, 7465.369
1274.571, 7467.075
1275.053, 7473.938
1275.535, 7481.636
1276.017, 7481.971
1276.499, 7472.807
1276.981, 7471.583
1277.463, 7478.524
1277.946, 7482.659
1278.428, 7473.054
1278.910, 7462.844
1279.392, 7460.694
1279.874, 7457.647
1280.356, 7462.857
1280.838, 7462.036
1281.320, 7466.607
1281.802, 7475.773
1282.285, 7481.901
1282.767, 7476.920
1283.249, 7473.272
1283.731, 7477.603
1284.213, 7482.530
1284.695, 7479.917
1285.177, 7472.135
1285.659, 7471.639
1286.141, 7476.887
1286.624, 7481.405
1287.106, 7480.584
1287.588, 7481.784
1288.070, 7487.215
1288.552, 7492.101
1289.034, 7491.194
1289.516, 7487.470
1289.998, 7487.549
1290.481, 7490.463
1290.963, 7493.655
1291.445, 7499.896
1291.927, 7498.373
1292.409, 7486.221
1292.891, 7477.507
1293.373, 7487.473
1293.855, 7502.467
1294.338, 7503.622
1294.820, 7497.485
1295.302, 7497.143
1295.784, 7506.303
1296.266, 7507.891
1296.748, 7501.280
1297.230, 7498.199
1297.712, 7510.367
1298.194, 7523.381
1298.677, 7525.558
1299.159, 7521.694
1299.641, 7517.331
1300.123, 7512.307
1300.605, 7508.747
1301.087, 7506.275
1301.569, 7501.855
1302.051, 7492.139
1302.533, 7481.356
1303.016, 7470.615
##END=



