##NAMES=Chalcocite
##RRUFFID=R120090
##IDEAL CHEMISTRY=Cu^1+^_2_S^2-^
##LOCALITY=Tsumeb, Namibia
##OWNER=RRUFF
##SOURCE=William W Pinch
##DESCRIPTION=Grey metallic hexagonal tablets associated with stottite R120089, siderite and tennantite
##STATUS=The identification of this mineral is confirmed by single-crystal X-ray diffraction and chemical analysis.
##URL=rruff.info/R120090
##MEASURED CHEMISTRY=Cu_1.99_S
196.5579, 0.0000000E+00
197.0400, 0.5264780
197.5221, 0.4118390
198.0042, 0.1478270
198.4863, 0.5202940
198.9684, 2.409977
199.4506, 3.608704
199.9327, 3.879959
200.4148, 3.496742
200.8969, 2.839489
201.3790, 1.779205
201.8611, 1.081295
202.3433, 1.371574
202.8254, 2.754757
203.3075, 3.829781
203.7896, 4.460087
204.2717, 4.740536
204.7538, 4.871971
205.2360, 4.839569
205.7181, 4.706108
206.2002, 4.292282
206.6823, 3.411255
207.1644, 3.561707
207.6465, 5.268219
208.1287, 7.851341
208.6108, 9.360352
209.0929, 9.677643
209.5750, 9.260223
210.0571, 8.001572
210.5392, 5.419182
211.0214, 4.353477
211.5035, 5.590324
211.9856, 8.326103
212.4677, 9.772125
212.9498, 9.609879
213.4319, 8.889473
213.9140, 8.171936
214.3962, 7.420296
214.8783, 6.778793
215.3604, 6.169250
215.8425, 5.691132
216.3246, 5.869476
216.8067, 7.037308
217.2889, 8.221230
217.7710, 8.809647
218.2531, 8.618301
218.7352, 8.410706
219.2173, 8.411346
219.6994, 8.441887
220.1816, 7.451683
220.6637, 4.541199
221.1458, 2.136543
221.6279, 1.997658
222.1100, 5.296700
222.5921, 7.800980
223.0743, 9.124725
223.5564, 9.402840
224.0385, 9.211456
224.5206, 8.263985
225.0027, 7.310013
225.4848, 6.816872
225.9670, 6.933525
226.4491, 7.212173
226.9312, 7.929085
227.4133, 8.818817
227.8954, 8.386841
228.3775, 5.574852
228.8597, 2.997566
229.3418, 2.371872
229.8239, 4.565025
230.3060, 6.759216
230.7881, 9.127090
231.2702, 11.38562
231.7524, 11.91287
232.2345, 9.707214
232.7166, 7.187309
233.1987, 5.841255
233.6808, 6.355347
234.1629, 6.502190
234.6451, 5.957237
235.1272, 4.925430
235.6093, 4.293488
236.0914, 4.137184
236.5735, 4.274117
237.0556, 4.687286
237.5378, 5.744438
238.0199, 6.279442
238.5020, 6.186684
238.9841, 5.531219
239.4662, 4.437584
239.9483, 2.177872
240.4305, 0.4744420
240.9126, 0.3747630
241.3947, 2.879585
241.8768, 4.789986
242.3589, 5.888344
242.8410, 6.303467
243.3232, 6.533028
243.8053, 6.844749
244.2874, 6.592834
244.7695, 5.182274
245.2516, 1.209396
245.7337, 0.7035450
246.2159, 0.4810410
246.6980, 3.702400
247.1801, 5.550056
247.6622, 5.636803
248.1443, 4.963959
248.6264, 3.822121
249.1086, 1.552330
249.5907, 0.4287950
250.0728, 0.9233090
250.5549, 2.461075
251.0370, 3.548866
251.5191, 4.155540
252.0013, 4.366264
252.4834, 4.096230
252.9655, 2.907547
253.4476, 2.443802
253.9297, 3.053726
254.4118, 4.174889
254.8940, 4.720093
255.3761, 4.411835
255.8582, 4.012566
256.3403, 3.935646
256.8224, 4.434021
257.3046, 4.302330
257.7867, 3.195305
258.2688, 1.677345
258.7509, 0.8556140
259.2330, 0.8975070
259.7151, 1.297928
260.1973, 1.922081
260.6794, 2.807396
261.1615, 3.729340
261.6436, 4.796364
262.1257, 5.797798
262.6078, 6.322708
263.0900, 6.190948
263.5721, 6.016472
264.0542, 6.116127
264.5363, 6.628799
265.0184, 6.381325
265.5005, 4.988602
265.9827, 3.286087
266.4648, 2.561104
266.9469, 3.194061
267.4290, 3.705605
267.9111, 3.523598
268.3932, 2.574913
268.8754, 2.185120
269.3575, 2.490906
269.8396, 3.140182
270.3217, 3.798393
270.8038, 4.575760
271.2859, 4.891029
271.7681, 4.327423
272.2502, 2.941383
272.7323, 2.496994
273.2144, 3.240707
273.6965, 4.443718
274.1786, 5.407166
274.6608, 6.145676
275.1429, 6.580650
275.6250, 6.555107
276.1071, 6.171173
276.5892, 6.270531
277.0714, 6.971458
277.5535, 7.816383
278.0356, 8.494270
278.5177, 9.036140
278.9998, 9.034996
279.4819, 8.203308
279.9641, 6.803429
280.4462, 6.005074
280.9283, 5.856178
281.4104, 6.094559
281.8925, 6.625908
282.3746, 7.456184
282.8568, 8.180878
283.3389, 8.774963
283.8210, 9.193802
284.3031, 9.168854
284.7852, 8.634460
285.2673, 8.229301
285.7495, 8.577423
286.2316, 9.602730
286.7137, 10.22745
287.1958, 10.18615
287.6779, 9.874878
288.1600, 10.23382
288.6422, 11.28441
289.1243, 12.19765
289.6064, 12.39324
290.0885, 11.99503
290.5706, 11.59843
291.0527, 11.23870
291.5349, 10.93747
292.0170, 10.81313
292.4991, 10.84061
292.9812, 10.72972
293.4633, 10.26107
293.9454, 9.525383
294.4276, 8.739914
294.9097, 7.876961
295.3918, 7.178009
295.8739, 7.073471
296.3560, 7.458961
296.8381, 7.831390
297.3203, 8.079922
297.8024, 8.129536
298.2845, 7.678478
298.7666, 6.666931
299.2487, 5.687183
299.7308, 5.443844
300.2130, 5.723164
300.6951, 5.912033
301.1772, 5.596085
301.6593, 5.132339
302.1414, 5.091972
302.6235, 5.466705
303.1057, 5.871647
303.5878, 6.002911
304.0699, 5.940804
304.5520, 5.798252
305.0341, 5.539364
305.5162, 5.287628
305.9984, 5.251335
306.4805, 5.388481
306.9626, 5.401848
307.4447, 4.939083
307.9268, 4.278240
308.4089, 3.798019
308.8911, 3.682140
309.3732, 3.649529
309.8553, 3.440758
310.3374, 3.115578
310.8195, 2.843536
311.3016, 2.671501
311.7838, 2.624943
312.2659, 2.857754
312.7480, 3.503952
313.2301, 4.067371
313.7122, 4.410435
314.1943, 4.431187
314.6765, 3.968956
315.1586, 1.969860
315.6407, 0.1361160
316.1228, 0.1984940
316.6049, 1.566143
317.0870, 2.988346
317.5692, 2.541531
318.0513, 1.185555
318.5334, 0.2952310
319.0155, 0.7337230
319.4976, 1.454556
319.9797, 2.070610
320.4619, 2.566372
320.9440, 2.971928
321.4261, 3.236259
321.9082, 3.414612
322.3903, 3.560547
322.8724, 3.922256
323.3546, 4.037918
323.8367, 3.451897
324.3188, 2.169827
324.8009, 1.662380
325.2830, 3.244904
325.7651, 5.011131
326.2473, 5.724651
326.7294, 4.322186
327.2115, 2.991207
327.6936, 1.585255
328.1757, 0.3012500
328.6578, 7.3054999E-02
329.1400, 1.538998
329.6221, 3.165234
330.1042, 3.957050
330.5863, 3.170361
331.0684, 2.791016
331.5505, 2.998058
332.0327, 3.598362
332.5148, 4.171043
332.9969, 4.948723
333.4790, 5.377224
333.9611, 5.214725
334.4432, 4.298012
334.9254, 3.379047
335.4075, 2.251160
335.8896, 1.303116
336.3717, 1.213257
336.8538, 2.242619
337.3359, 3.317295
337.8180, 4.488834
338.3001, 5.749466
338.7823, 5.706970
339.2644, 3.778778
339.7465, 1.703594
340.2286, 1.360184
340.7107, 3.075169
341.1928, 4.637955
341.6750, 5.701595
342.1571, 6.273270
342.6392, 6.255142
343.1213, 5.601646
343.6034, 4.621014
344.0855, 3.366352
344.5677, 1.871326
345.0498, 0.6519510
345.5319, 0.2737240
346.0140, 0.7474520
346.4961, 7.7964999E-02
346.9782, 1.662128
347.4604, 3.103668
347.9425, 3.155731
348.4246, 2.261742
348.9067, 2.025166
349.3888, 2.600853
349.8709, 3.480415
350.3531, 4.288322
350.8352, 4.944016
351.3173, 5.148777
351.7994, 4.478485
352.2815, 3.374519
352.7636, 2.551292
353.2458, 2.008904
353.7279, 1.575268
354.2100, 0.9868130
354.6921, 0.4243320
355.1742, 0.2556420
355.6563, 0.8252750
356.1385, 1.496746
356.6206, 1.583069
357.1027, 1.193855
357.5848, 0.8784100
358.0669, 0.8969080
358.5490, 1.174957
359.0312, 1.714821
359.5133, 2.716534
359.9954, 3.529369
360.4775, 3.829060
360.9596, 3.668404
361.4417, 3.161762
361.9239, 1.421654
362.4060, 7.1491003E-02
362.8881, 0.3850440
363.3702, 2.895054
363.8523, 4.639515
364.3344, 4.122704
364.8166, 2.527725
365.2987, 1.231339
365.7808, 0.4477540
366.2629, 4.6519998E-02
366.7450, 0.1729660
367.2271, 7.6622002E-02
367.7093, 0.3469350
368.1914, 1.077862
368.6735, 1.516705
369.1556, 1.155411
369.6377, 1.579105
370.1198, 3.139187
370.6020, 3.016487
371.0841, 1.573807
371.5662, 3.3642001E-02
372.0483, 2.183319
372.5304, 3.769360
373.0125, 4.058731
373.4947, 2.481480
373.9768, 1.190044
374.4589, 6.6413999E-02
374.9410, 0.6865500
375.4231, 0.5576740
375.9052, 0.9122660
376.3874, 1.949936
376.8695, 1.865501
377.3516, 0.6918870
377.8337, 1.8608000E-02
378.3158, 0.2007560
378.7979, 0.1112560
379.2801, 2.7000001E-02
379.7622, 0.2021220
380.2443, 0.2509730
380.7264, 1.3428000E-02
381.2085, 0.2859380
381.6906, 0.6225700
382.1728, 2.738018
382.6549, 4.329239
383.1370, 3.640152
383.6191, 1.315907
384.1012, 3.3672001E-02
384.5833, 5.8582000E-02
385.0655, 0.5868070
385.5476, 1.391682
386.0297, 2.248817
386.5118, 2.644466
386.9939, 1.746735
387.4760, 0.4284360
387.9582, 7.9365000E-02
388.4403, 0.2481880
388.9224, 0.9485320
389.4045, 2.130783
389.8866, 3.332970
390.3687, 3.843548
390.8509, 2.778030
391.3330, 1.620106
391.8151, 1.705353
392.2972, 2.686684
392.7793, 3.148216
393.2614, 1.448349
393.7436, 0.4471550
394.2257, 1.025757
394.7078, 0.5870020
395.1899, 2.048565
395.6720, 2.353474
396.1541, 1.995857
396.6363, 1.784832
397.1184, 1.930790
397.6005, 2.243351
398.0826, 2.856091
398.5647, 3.887947
399.0468, 4.261017
399.5290, 3.071972
400.0111, 1.635189
400.4932, 1.017715
400.9753, 2.345802
401.4574, 2.970257
401.9395, 2.308983
402.4217, 0.6922990
402.9038, 0.3156130
403.3859, 0.5744320
403.8680, 0.4534800
404.3501, 5.1468000E-02
404.8322, 0.6766620
405.3144, 1.506969
405.7965, 2.567646
406.2786, 3.566120
406.7607, 3.904690
407.2428, 3.440517
407.7249, 3.106846
408.2071, 3.312103
408.6892, 3.933910
409.1713, 4.142086
409.6534, 3.882210
410.1355, 3.522118
410.6176, 3.545376
411.0998, 3.847591
411.5819, 3.588619
412.0640, 2.191246
412.5461, 0.7410090
413.0282, 1.354828
413.5103, 3.700348
413.9925, 5.807129
414.4746, 6.548210
414.9567, 6.328880
415.4388, 5.541332
415.9209, 4.125946
416.4030, 2.926579
416.8852, 2.864063
417.3673, 3.442554
417.8494, 3.850056
418.3315, 3.797787
418.8136, 3.458801
419.2957, 2.626862
419.7779, 1.450161
420.2600, 0.8273010
420.7421, 2.064903
421.2242, 3.473934
421.7063, 3.680462
422.1884, 1.501064
422.6706, 8.9615002E-02
423.1527, 1.7379999E-02
423.6348, 1.078922
424.1169, 1.985672
424.5990, 2.442379
425.0811, 2.782372
425.5633, 3.150146
426.0454, 3.610809
426.5275, 3.668598
427.0096, 2.988873
427.4917, 2.081978
427.9738, 1.406326
428.4560, 1.099281
428.9381, 1.173347
429.4202, 1.780437
429.9023, 2.646233
430.3844, 3.082504
430.8665, 3.002102
431.3487, 2.733524
431.8308, 2.343479
432.3129, 1.809071
432.7950, 1.563919
433.2771, 1.731361
433.7592, 2.087490
434.2414, 2.355957
434.7235, 2.522987
435.2056, 2.374973
435.6877, 1.587074
436.1698, 0.6050380
436.6519, 0.5500260
437.1341, 1.374439
437.6162, 2.164433
438.0983, 2.044735
438.5804, 1.471409
439.0625, 1.264095
439.5446, 1.653484
440.0268, 2.275661
440.5089, 3.186089
440.9910, 4.104744
441.4731, 4.448521
441.9552, 3.470779
442.4373, 2.199284
442.9195, 1.062679
443.4016, 7.9333998E-02
443.8837, 0.2315480
444.3658, 1.074284
444.8479, 2.733131
445.3300, 3.737282
445.8122, 3.585938
446.2943, 3.177345
446.7764, 2.149204
447.2585, 0.9279250
447.7406, 0.6463890
448.2227, 2.846767
448.7049, 4.524883
449.1870, 4.523277
449.6691, 2.364941
450.1512, 1.504955
450.6333, 2.811005
451.1154, 4.481903
451.5976, 4.563328
452.0797, 2.432079
452.5618, 1.076870
453.0439, 1.026260
453.5260, 1.882206
454.0081, 2.484570
454.4903, 2.855148
454.9724, 2.918808
455.4545, 2.184963
455.9366, 0.8950200
456.4187, 1.237797
456.9008, 3.570999
457.3830, 5.975315
457.8651, 5.864864
458.3472, 3.890602
458.8293, 2.189213
459.3114, 1.344265
459.7935, 1.015785
460.2757, 1.200516
460.7578, 1.751774
461.2399, 2.130753
461.7220, 1.613583
462.2041, 1.013584
462.6862, 1.227478
463.1684, 2.561283
463.6505, 3.793526
464.1326, 4.449539
464.6147, 4.645752
465.0968, 4.537331
465.5789, 3.816536
466.0611, 3.141281
466.5432, 2.835739
467.0253, 2.848808
467.5074, 2.552551
467.9895, 1.289474
468.4716, 0.1749340
468.9538, 0.2219470
469.4359, 0.5097010
469.9180, 1.059376
470.4001, 1.320347
470.8822, 1.476700
471.3643, 1.780479
471.8465, 2.336342
472.3286, 2.693184
472.8107, 2.671963
473.2928, 2.350208
473.7749, 2.144283
474.2570, 2.047588
474.7392, 2.111485
475.2213, 2.384758
475.7034, 2.851112
476.1855, 3.581570
476.6676, 4.710659
477.1497, 5.677731
477.6319, 5.558353
478.1140, 4.593559
478.5961, 3.625881
479.0782, 2.896992
479.5603, 2.375572
480.0424, 2.100380
480.5246, 1.991978
481.0067, 1.903999
481.4888, 1.345230
481.9709, 0.8655010
482.4530, 1.231491
482.9352, 3.125385
483.4173, 4.520935
483.8994, 4.010635
484.3815, 2.631268
484.8636, 1.967075
485.3457, 3.269310
485.8279, 4.396553
486.3100, 4.773121
486.7921, 4.382851
487.2742, 3.844494
487.7563, 2.814579
488.2384, 1.968815
488.7206, 1.781834
489.2027, 2.711895
489.6848, 3.007343
490.1669, 2.372738
490.6490, 1.393551
491.1311, 1.028946
491.6133, 1.364761
492.0954, 1.748148
492.5775, 2.019808
493.0596, 2.173780
493.5417, 2.026386
494.0238, 1.553637
494.5060, 1.409542
494.9881, 2.624859
495.4702, 4.508411
495.9523, 5.273176
496.4344, 4.537193
496.9165, 3.327782
497.3987, 2.487040
497.8808, 1.924654
498.3629, 1.488167
498.8450, 0.9755570
499.3271, 0.6808430
499.8092, 0.8312630
500.2914, 1.389402
500.7735, 2.127062
501.2556, 3.405794
501.7377, 4.496210
502.2198, 4.990355
502.7019, 4.578447
503.1841, 4.110760
503.6662, 3.527834
504.1483, 3.013813
504.6304, 2.795876
505.1125, 3.053421
505.5946, 3.312855
506.0768, 3.600151
506.5589, 3.846045
507.0410, 3.745308
507.5231, 3.169643
508.0052, 2.600580
508.4873, 2.424374
508.9695, 2.644093
509.4516, 2.222675
509.9337, 1.011902
510.4158, 0.2558230
510.8979, 0.6182380
511.3800, 0.2515010
511.8622, 2.6079001E-02
512.3443, 6.2236998E-02
512.8264, 0.2554990
513.3085, 0.1852510
513.7906, 7.7809997E-02
514.2728, 0.3224450
514.7549, 0.5399860
515.2370, 0.6059000
515.7191, 0.1692030
516.2012, 0.8458460
516.6833, 1.231808
517.1655, 0.3716280
517.6476, 2.416988
518.1297, 3.583824
518.6118, 3.058516
519.0939, 2.315552
519.5760, 1.164631
520.0582, 3.3089001E-02
520.5403, 0.4187340
521.0224, 0.8102040
521.5045, 1.719461
521.9866, 1.556364
522.4688, 0.3240180
522.9509, 0.1951710
523.4330, 1.611343
523.9151, 3.100008
524.3972, 3.347828
524.8793, 2.318928
525.3615, 1.865784
525.8436, 2.254957
526.3257, 2.852163
526.8078, 2.460340
527.2899, 1.390608
527.7720, 0.9115070
528.2542, 1.956736
528.7363, 3.447985
529.2184, 3.851959
529.7005, 3.329178
530.1826, 2.768635
530.6647, 2.951155
531.1469, 3.189877
531.6290, 2.696930
532.1111, 1.114044
532.5932, 7.0239998E-02
533.0753, 0.8219220
533.5574, 2.168823
534.0396, 2.854145
534.5217, 1.829567
535.0038, 1.116768
535.4859, 1.226566
535.9680, 1.863472
536.4501, 2.094624
536.9323, 1.805634
537.4144, 1.289780
537.8965, 0.4807400
538.3786, 0.6434860
538.8607, 0.8767450
539.3428, 3.6849999E-03
539.8250, 1.082211
540.3071, 1.394836
540.7892, 1.044018
541.2713, 1.110210
541.7534, 1.877522
542.2355, 2.768040
542.7177, 2.729160
543.1998, 2.092838
543.6819, 1.910652
544.1640, 3.409950
544.6461, 5.062222
545.1282, 5.196594
545.6104, 4.046688
546.0925, 3.092258
546.5746, 3.452484
547.0567, 4.027824
547.5388, 3.958050
548.0209, 2.789173
548.5031, 2.122162
548.9852, 3.018173
549.4673, 4.231674
549.9494, 4.398548
550.4315, 2.316326
550.9136, 1.062656
551.3958, 1.278667
551.8779, 2.442875
552.3600, 2.991966
552.8421, 2.799564
553.3242, 2.458057
553.8063, 2.188511
554.2885, 1.980705
554.7706, 1.699211
555.2527, 1.323231
555.7348, 1.092541
556.2169, 1.284756
556.6990, 1.780426
557.1812, 2.293278
557.6633, 2.792282
558.1454, 3.264557
558.6275, 3.983570
559.1096, 4.664188
559.5917, 4.689526
560.0739, 2.811451
560.5560, 1.181015
561.0381, 1.124424
561.5202, 2.307156
562.0023, 3.218239
562.4844, 3.511463
562.9666, 3.420612
563.4487, 2.893490
563.9308, 1.755177
564.4129, 1.123188
564.8950, 1.252697
565.3771, 1.609219
565.8593, 1.713066
566.3414, 1.441921
566.8235, 1.508038
567.3056, 2.137619
567.7877, 2.890808
568.2698, 2.824642
568.7520, 1.990849
569.2341, 1.324005
569.7162, 1.164330
570.1983, 1.342918
570.6804, 1.726101
571.1625, 2.274635
571.6447, 2.623192
572.1268, 2.217697
572.6089, 1.663181
573.0910, 1.658764
573.5731, 2.371037
574.0552, 2.840481
574.5374, 2.241226
575.0195, 1.554932
575.5016, 1.529373
575.9837, 3.490913
576.4658, 4.648399
576.9479, 4.289799
577.4301, 3.081974
577.9122, 2.326603
578.3943, 2.225811
578.8764, 2.154789
579.3585, 1.814777
579.8406, 1.300285
580.3228, 1.518581
580.8049, 2.645142
581.2870, 3.407013
581.7691, 2.355686
582.2512, 0.1242220
582.7333, 0.4124980
583.2155, 1.072132
583.6975, 2.621975
584.1796, 2.026585
584.6617, 0.3474580
585.1439, 0.6317940
585.6260, 0.1840440
586.1081, 0.6342580
586.5902, 1.226185
587.0723, 1.725857
587.5544, 2.378151
588.0366, 4.139122
588.5187, 5.183208
589.0008, 4.320213
589.4829, 1.706955
589.9650, 0.5805050
590.4471, 2.074982
590.9293, 3.579304
591.4114, 3.681927
591.8935, 2.069252
592.3756, 1.361816
592.8577, 1.742302
593.3398, 2.534897
593.8220, 3.244507
594.3041, 3.822838
594.7862, 3.796528
595.2683, 2.926048
595.7504, 1.830551
596.2325, 1.229153
596.7147, 1.049076
597.1968, 1.043686
597.6789, 1.053188
598.1610, 1.237434
598.6431, 2.046730
599.1252, 3.248665
599.6074, 3.792709
600.0895, 2.468842
600.5716, 1.115448
601.0537, 0.7189450
601.5358, 1.618885
602.0179, 2.264717
602.5001, 2.569912
602.9822, 2.561546
603.4643, 2.280571
603.9464, 1.617374
604.4285, 1.198868
604.9106, 1.064823
605.3928, 1.173981
605.8749, 1.670174
606.3570, 2.454422
606.8391, 2.821430
607.3212, 2.378941
607.8033, 1.663883
608.2855, 1.450512
608.7676, 1.662075
609.2497, 2.038521
609.7318, 2.647186
610.2139, 3.205021
610.6960, 3.386562
611.1782, 3.196953
611.6603, 3.170380
612.1424, 3.982674
612.6245, 4.662170
613.1066, 4.481911
613.5887, 2.584652
614.0709, 1.787247
614.5530, 3.038700
615.0351, 4.576534
615.5172, 4.228149
615.9993, 1.156319
616.4814, 0.6979790
616.9636, 0.5086520
617.4457, 0.9317440
617.9278, 2.563667
618.4099, 4.290531
618.8920, 5.133850
619.3741, 4.009499
619.8563, 2.277409
620.3384, 2.284412
620.8205, 3.657902
621.3026, 4.532330
621.7847, 2.973301
622.2668, 1.119137
622.7490, 0.7200280
623.2311, 2.056927
623.7132, 3.289631
624.1953, 4.272366
624.6774, 4.746803
625.1595, 4.458385
625.6417, 2.529278
626.1238, 1.600498
626.6059, 1.962196
627.0880, 3.013489
627.5701, 4.111389
628.0522, 5.301823
628.5344, 6.087410
629.0165, 6.320560
629.4986, 6.158901
629.9807, 5.893341
630.4628, 5.504215
630.9449, 4.902767
631.4271, 3.534378
631.9092, 2.255054
632.3913, 2.239555
632.8734, 3.297241
633.3555, 4.203602
633.8376, 4.255043
634.3198, 4.044369
634.8019, 3.936363
635.2840, 4.011456
635.7661, 3.945972
636.2482, 3.617599
636.7303, 3.213867
637.2125, 2.814034
637.6946, 2.281109
638.1767, 2.261124
638.6588, 3.045864
639.1409, 3.884453
639.6230, 3.372913
640.1052, 1.635845
640.5873, 0.7138370
641.0694, 1.475536
641.5515, 2.758862
642.0336, 2.666164
642.5157, 1.626194
642.9979, 0.8582310
643.4800, 1.368374
643.9621, 2.114979
644.4442, 2.337013
644.9263, 2.119766
645.4084, 2.032772
645.8906, 2.282169
646.3727, 2.682377
646.8548, 3.283939
647.3369, 4.188835
647.8190, 4.451908
648.3011, 3.779018
648.7833, 2.907646
649.2654, 2.316734
649.7475, 2.008717
650.2296, 1.998047
650.7117, 2.310421
651.1938, 2.812428
651.6760, 3.764660
652.1581, 4.815090
652.6402, 4.633778
653.1223, 2.252544
653.6044, 0.1408120
654.0865, 0.4991190
654.5687, 0.5134200
655.0508, 1.603554
655.5329, 2.899109
656.0150, 3.621853
656.4971, 2.912930
656.9792, 1.171303
657.4614, 0.2499810
657.9435, 0.9353980
658.4256, 1.422035
658.9077, 0.9144440
659.3898, 0.5115050
659.8719, 0.8853450
660.3541, 6.6265002E-02
660.8362, 1.138935
661.3183, 2.671982
661.8004, 4.182922
662.2825, 3.960545
662.7646, 1.808239
663.2468, 0.2319720
663.7289, 5.7418998E-02
664.2110, 1.374931
664.6931, 1.950428
665.1752, 1.069550
665.6573, 0.2968710
666.1395, 0.5174940
666.6216, 1.149841
667.1037, 1.478172
667.5858, 1.092175
668.0679, 0.7827570
668.5500, 0.5948220
669.0322, 0.5247080
669.5143, 0.5816760
669.9964, 0.7827640
670.4785, 1.066746
670.9606, 1.583546
671.4427, 2.052128
671.9249, 1.307552
672.4070, 0.4586070
672.8891, 1.669378
673.3712, 0.8029820
673.8533, 0.7794530
674.3354, 1.467674
674.8176, 1.338436
675.2997, 1.100029
675.7818, 0.9248310
676.2639, 0.8249240
676.7460, 0.7394070
677.2281, 0.5444370
677.7103, 0.9155310
678.1924, 2.580032
678.6745, 4.152912
679.1566, 4.554150
679.6387, 3.545036
680.1208, 2.846458
680.6030, 2.553753
681.0851, 2.544472
681.5672, 2.896946
682.0493, 3.475426
682.5314, 3.576031
683.0135, 2.833195
683.4957, 2.012131
683.9778, 1.968903
684.4599, 2.416634
684.9420, 2.830788
685.4241, 3.297718
685.9063, 3.475983
686.3884, 2.935665
686.8705, 1.963188
687.3526, 1.574604
687.8347, 2.402588
688.3168, 3.008499
688.7990, 2.877781
689.2811, 2.097576
689.7632, 1.557911
690.2453, 1.310776
690.7274, 1.440952
691.2095, 2.353352
691.6917, 3.644073
692.1738, 4.015316
692.6559, 3.478188
693.1380, 2.751953
693.6201, 2.189537
694.1022, 1.796883
694.5844, 1.623562
695.0665, 1.742008
695.5486, 1.793892
696.0307, 1.586231
696.5128, 1.376583
696.9949, 1.393555
697.4771, 1.917046
697.9592, 2.034634
698.4413, 1.483475
698.9234, 0.8645630
699.4055, 1.055042
699.8876, 2.076385
700.3698, 2.723427
700.8519, 2.749214
701.3340, 2.427788
701.8161, 1.822296
702.2982, 1.168968
702.7803, 1.090721
703.2625, 2.293064
703.7446, 3.566540
704.2267, 4.309593
704.7088, 4.514305
705.1909, 4.145847
705.6730, 1.969875
706.1552, 0.6241760
706.6373, 1.150814
707.1194, 3.058834
707.6015, 4.100224
708.0836, 4.146812
708.5657, 3.635151
709.0479, 2.346180
709.5300, 0.6835210
710.0121, 0.7269360
710.4942, 2.404415
710.9763, 3.910381
711.4584, 3.953014
711.9406, 3.143074
712.4227, 1.963226
712.9048, 0.4413830
713.3869, 0.3332370
713.8690, 1.012077
714.3511, 2.665154
714.8333, 3.407295
715.3154, 2.771362
715.7975, 2.260120
716.2796, 1.882648
716.7617, 1.619110
717.2438, 1.409023
717.7260, 1.280304
718.2081, 1.323807
718.6902, 1.554810
719.1723, 1.717983
719.6544, 1.304363
720.1365, 0.6156350
720.6187, 0.4638630
721.1008, 1.123844
721.5829, 1.977547
722.0650, 2.685719
722.5471, 3.210392
723.0292, 3.532581
723.5114, 3.178894
723.9935, 3.190369
724.4756, 4.338776
724.9577, 5.720181
725.4398, 5.617004
725.9219, 3.325840
726.4041, 1.762646
726.8862, 1.778385
727.3683, 2.655914
727.8504, 2.589542
728.3325, 1.729160
728.8146, 1.094166
729.2968, 1.332951
729.7789, 1.873066
730.2610, 2.061573
730.7431, 1.932419
731.2252, 1.825706
731.7073, 1.955067
732.1895, 1.966248
732.6716, 1.585613
733.1537, 0.8660130
733.6358, 0.6242980
734.1179, 1.326962
734.6000, 1.668198
735.0822, 0.7034800
735.5643, 1.288506
736.0464, 0.9660680
736.5285, 1.804893
737.0106, 4.223652
737.4927, 3.894955
737.9749, 2.041878
738.4570, 0.5581320
738.9391, 0.4351730
739.4212, 1.019878
739.9033, 0.9898570
740.3854, 0.7476460
740.8676, 0.6196820
741.3497, 0.7489780
741.8318, 0.5398790
742.3139, 0.1852910
742.7960, 1.083176
743.2781, 2.122463
743.7603, 3.474674
744.2424, 3.576420
744.7245, 2.183182
745.2066, 0.3824310
745.6887, 1.074490
746.1708, 2.036240
746.6530, 1.926224
747.1351, 0.4826620
747.6172, 1.137936
748.0993, 2.437107
748.5814, 3.288300
749.0635, 3.499168
749.5457, 2.389313
750.0278, 1.675415
750.5099, 2.044697
750.9920, 2.611076
751.4741, 2.146507
751.9562, 0.1693760
752.4384, 0.6629330
752.9205, 0.2800980
753.4026, 1.921135
753.8847, 2.510040
754.3668, 2.291977
754.8489, 2.316551
755.3311, 3.152962
755.8132, 3.865688
756.2953, 3.326488
756.7774, 2.136463
757.2595, 1.369011
757.7416, 1.520100
758.2238, 1.931152
758.7059, 2.754684
759.1880, 3.668568
759.6701, 3.946156
760.1522, 3.383087
760.6343, 2.853176
761.1165, 2.578106
761.5986, 2.466175
762.0807, 2.291950
762.5628, 2.070232
763.0449, 1.880535
763.5270, 1.554752
764.0092, 1.453121
764.4913, 2.372810
764.9734, 3.865879
765.4555, 4.574539
765.9376, 3.281960
766.4197, 1.876690
766.9019, 0.8362080
767.3840, 0.1862180
767.8661, 0.1851810
768.3482, 1.076904
768.8303, 1.906624
769.3124, 2.296337
769.7946, 2.330509
770.2767, 2.161999
770.7588, 1.830463
771.2409, 1.748585
771.7230, 2.942387
772.2051, 4.093895
772.6873, 3.405220
773.1694, 1.199238
773.6515, 4.7455002E-02
774.1336, 2.189693
774.6157, 4.278336
775.0978, 4.822021
775.5800, 3.874084
776.0621, 2.791428
776.5442, 1.359184
777.0263, 0.4056890
777.5084, 0.5798110
777.9905, 1.633812
778.4727, 2.510296
778.9548, 3.208473
779.4369, 3.639725
779.9190, 3.272446
780.4011, 2.914951
780.8832, 3.807133
781.3654, 5.976540
781.8475, 7.013020
782.3296, 4.835632
782.8117, 2.508476
783.2938, 1.567600
783.7759, 2.137321
784.2581, 2.819679
784.7402, 3.804314
785.2223, 4.292557
785.7044, 2.966724
786.1865, 0.6244540
786.6686, 0.9837910
787.1508, 4.109528
787.6329, 6.804428
788.1150, 6.031277
788.5971, 4.113789
789.0792, 3.389648
789.5613, 4.270836
790.0435, 4.732845
790.5256, 3.569469
791.0077, 2.502705
791.4898, 2.541222
791.9719, 3.911961
792.4540, 4.805779
792.9362, 5.190216
793.4183, 5.086052
793.9004, 4.154865
794.3825, 2.976742
794.8646, 3.491169
795.3467, 5.870346
795.8289, 7.630569
796.3110, 6.058636
796.7931, 3.652115
797.2752, 2.622337
797.7573, 3.654926
798.2394, 4.422199
798.7216, 4.786175
799.2037, 4.658802
799.6858, 3.748032
800.1679, 1.822670
800.6500, 1.205544
801.1321, 2.034988
801.6143, 3.236996
802.0964, 4.024803
802.5785, 4.436367
803.0606, 4.466953
803.5427, 4.034512
804.0248, 3.522442
804.5070, 3.027889
804.9891, 2.816563
805.4712, 3.046227
805.9533, 3.954052
806.4354, 4.495319
806.9175, 4.518368
807.3997, 4.387478
807.8818, 4.398659
808.3639, 4.544342
808.8460, 4.323135
809.3281, 3.663685
809.8102, 3.314735
810.2924, 4.192013
810.7745, 5.700161
811.2566, 7.275875
811.7387, 8.973347
812.2208, 9.252350
812.7029, 5.855236
813.1851, 2.025616
813.6672, 4.0096000E-02
814.1493, 0.2787900
814.6314, 0.9041790
815.1135, 2.127163
815.5956, 3.197418
816.0778, 3.148293
816.5599, 2.351818
817.0420, 2.891228
817.5241, 4.912518
818.0062, 6.466797
818.4883, 5.318695
818.9705, 3.411465
819.4526, 2.711464
819.9347, 3.626957
820.4168, 4.466080
820.8989, 4.747749
821.3810, 4.992828
821.8632, 5.610844
822.3453, 6.734306
822.8274, 6.680588
823.3095, 5.245579
823.7916, 3.895176
824.2737, 3.846943
824.7559, 4.711201
825.2380, 6.046860
825.7201, 7.770962
826.2022, 8.835213
826.6843, 8.022449
827.1664, 6.772213
827.6486, 6.081120
828.1307, 6.141525
828.6128, 5.920837
829.0949, 5.170246
829.5770, 4.563320
830.0591, 4.643364
830.5413, 5.298508
831.0234, 5.137428
831.5055, 4.170643
831.9876, 3.220131
832.4697, 2.647350
832.9518, 2.537937
833.4340, 3.328987
833.9161, 4.930660
834.3982, 5.905384
834.8803, 5.141037
835.3624, 4.226048
835.8445, 3.749306
836.3267, 3.712135
836.8088, 4.311451
837.2909, 5.718372
837.7730, 6.965340
838.2551, 7.560898
838.7372, 7.594776
839.2194, 7.056725
839.7015, 6.064259
840.1836, 5.297169
840.6657, 5.304031
841.1478, 5.517445
841.6299, 5.614216
842.1121, 5.597286
842.5942, 5.629116
843.0763, 5.704441
843.5584, 5.868607
844.0405, 6.239273
844.5226, 6.672050
845.0048, 6.576477
845.4869, 5.983528
845.9690, 5.363411
846.4511, 4.622234
846.9332, 4.256451
847.4153, 5.207020
847.8975, 7.008198
848.3796, 8.342278
848.8617, 8.617767
849.3438, 8.496994
849.8259, 8.010090
850.3080, 7.314472
850.7902, 6.827202
851.2723, 6.395542
851.7544, 6.302631
852.2365, 6.764671
852.7186, 7.360538
853.2007, 7.283882
853.6829, 6.726929
854.1650, 6.244740
854.6471, 5.760651
855.1292, 5.571869
855.6113, 6.111603
856.0934, 7.033417
856.5756, 7.652229
857.0577, 7.886372
857.5398, 7.913242
858.0219, 7.663097
858.5040, 7.302460
858.9861, 7.334408
859.4683, 7.711243
859.9504, 8.223751
860.4325, 8.920425
860.9146, 9.218483
861.3967, 7.965000
861.8788, 6.237717
862.3610, 5.398743
862.8431, 6.525425
863.3252, 7.193924
863.8073, 6.948574
864.2894, 6.439461
864.7715, 6.357567
865.2537, 6.739105
865.7358, 6.748844
866.2179, 6.271202
866.7000, 5.791115
867.1821, 5.933235
867.6642, 6.329800
868.1464, 6.432465
868.6285, 6.124874
869.1106, 5.773151
869.5927, 5.275841
870.0748, 4.962681
870.5569, 5.128914
871.0391, 5.912319
871.5212, 6.148335
872.0033, 5.720116
872.4854, 5.195721
872.9675, 4.908970
873.4496, 4.866760
873.9318, 5.303669
874.4139, 6.243214
874.8960, 6.909977
875.3781, 6.518658
875.8602, 5.731850
876.3423, 4.835426
876.8245, 3.882030
877.3066, 3.463028
877.7887, 3.697376
878.2708, 4.338165
878.7529, 5.419945
879.2350, 6.672371
879.7172, 7.210705
880.1993, 7.114197
880.6814, 6.937862
881.1635, 7.218063
881.6456, 7.358025
882.1277, 6.510555
882.6099, 5.031322
883.0920, 4.188175
883.5741, 4.796055
884.0562, 5.242931
884.5383, 5.239902
885.0204, 4.952145
885.5026, 4.646915
885.9847, 4.338463
886.4668, 4.300274
886.9489, 4.748520
887.4310, 5.175377
887.9131, 4.773594
888.3953, 4.055767
888.8774, 3.804008
889.3595, 4.690536
889.8416, 5.371746
890.3237, 5.693218
890.8058, 5.809296
891.2880, 5.727230
891.7701, 5.477184
892.2522, 5.136185
892.7343, 4.672894
893.2164, 4.327911
893.6985, 4.601696
894.1807, 5.055485
894.6628, 5.011086
895.1449, 4.337780
895.6270, 3.511318
896.1091, 2.168938
896.5912, 1.200325
897.0734, 1.213013
897.5555, 2.308182
898.0376, 3.194160
898.5197, 3.889145
899.0018, 4.229931
899.4839, 4.062752
899.9661, 3.473579
900.4482, 2.294971
900.9303, 0.6919520
901.4124, 0.2776950
901.8945, 0.5071600
902.3766, 1.439426
902.8588, 1.679520
903.3409, 1.389572
903.8230, 1.399082
904.3051, 1.787876
904.7872, 2.166348
905.2693, 2.428612
905.7515, 2.580318
906.2336, 2.797016
906.7157, 2.925652
907.1978, 2.489967
907.6799, 0.2941020
908.1620, 1.175007
908.6442, 3.6430001E-02
909.1263, 2.261711
909.6084, 3.192427
910.0905, 2.219608
910.5726, 1.118992
911.0547, 0.1143380
911.5369, 1.074862
912.0190, 1.143599
912.5011, 0.5159680
912.9832, 0.4554750
913.4653, 1.849272
913.9474, 2.626730
914.4296, 1.388344
914.9117, 0.2565100
915.3938, 0.8331220
915.8759, 9.9714004E-02
916.3580, 0.4610480
916.8401, 9.1237999E-02
917.3223, 0.3700580
917.8044, 0.9121460
918.2865, 3.134192
918.7686, 3.913305
919.2507, 3.340206
919.7328, 2.459837
920.2150, 1.525717
920.6971, 0.8508090
921.1792, 0.7805400
921.6613, 1.223839
922.1434, 1.409197
922.6255, 1.207449
923.1077, 1.005091
923.5898, 0.8907950
924.0719, 0.8675290
924.5540, 1.051361
925.0361, 1.354330
925.5182, 1.380493
926.0004, 0.6815300
926.4825, 0.1623990
926.9646, 0.6577510
927.4467, 1.597160
927.9288, 2.102470
928.4109, 1.914474
928.8931, 1.708881
929.3752, 1.502954
929.8573, 1.316368
930.3394, 1.331623
930.8215, 1.394396
931.3036, 0.6636490
931.7858, 1.045843
932.2679, 2.148071
932.7500, 0.7361530
933.2321, 1.112709
933.7142, 1.769932
934.1964, 0.9215760
934.6785, 9.9519998E-02
935.1606, 0.9123440
935.6427, 1.335835
936.1248, 0.5254440
936.6069, 1.128521
937.0891, 2.594700
937.5712, 3.770100
938.0533, 4.023129
938.5354, 1.845243
939.0175, 0.1828290
939.4996, 0.2655050
939.9818, 0.9503750
940.4639, 1.489355
940.9460, 0.8998850
941.4281, 0.6920590
941.9102, 1.256151
942.3923, 2.068811
942.8745, 2.282404
943.3566, 2.045370
943.8387, 1.702044
944.3208, 1.218079
944.8029, 1.089195
945.2850, 2.214010
945.7672, 3.435007
946.2493, 3.587374
946.7314, 2.375271
947.2135, 1.130650
947.6956, 0.3429300
948.1777, 1.177113
948.6599, 3.2621000E-02
949.1420, 2.102608
949.6241, 2.690620
950.1062, 1.833265
950.5883, 0.9012340
951.0704, 0.3225800
951.5526, 0.1532690
952.0347, 0.7270090
952.5168, 1.765654
952.9989, 2.193056
953.4810, 1.851742
953.9631, 1.645393
954.4453, 1.849432
954.9274, 2.289358
955.4095, 2.924110
955.8916, 3.524162
956.3737, 3.720020
956.8558, 3.238220
957.3380, 2.785563
957.8201, 2.482252
958.3022, 2.404409
958.7843, 2.709265
959.2664, 3.533989
959.7485, 3.831537
960.2307, 3.483221
960.7128, 3.202112
961.1949, 4.035246
961.6770, 5.117186
962.1591, 4.989616
962.6412, 3.642643
963.1234, 2.627756
963.6055, 3.135380
964.0876, 3.294893
964.5697, 2.081339
965.0518, 3.7165001E-02
965.5339, 0.2235720
966.0161, 1.232388
966.4982, 2.597631
966.9803, 3.072737
967.4624, 3.063686
967.9445, 2.504045
968.4266, 1.822731
968.9088, 1.993736
969.3909, 4.872730
969.8730, 6.131958
970.3551, 4.810452
970.8372, 2.823351
971.3193, 2.209257
971.8015, 2.801144
972.2836, 2.895975
972.7657, 2.331495
973.2478, 1.735443
973.7299, 1.799181
974.2120, 2.008163
974.6942, 1.933424
975.1763, 1.534891
975.6584, 1.328423
976.1405, 1.377218
976.6226, 1.404551
977.1047, 1.196198
977.5869, 0.9887200
978.0690, 1.754278
978.5511, 3.156109
979.0332, 3.914953
979.5153, 2.949675
979.9974, 2.052139
980.4796, 2.308390
980.9617, 3.159246
981.4438, 3.842762
981.9259, 4.428173
982.4080, 4.540955
982.8901, 4.088514
983.3723, 3.459465
983.8544, 3.014755
984.3365, 2.673429
984.8186, 2.268875
985.3007, 1.784500
985.7828, 1.482805
986.2650, 1.260204
986.7471, 1.518267
987.2292, 2.766699
987.7113, 4.640099
988.1934, 4.950487
988.6755, 3.616428
989.1577, 2.679169
989.6398, 3.095417
990.1219, 3.769253
990.6040, 3.331318
991.0861, 2.400066
991.5682, 1.989141
992.0504, 2.910349
992.5325, 3.589405
993.0146, 3.913496
993.4967, 3.894552
993.9788, 3.356714
994.4609, 2.437933
994.9431, 2.406013
995.4252, 3.324863
995.9073, 4.085125
996.3894, 3.771658
996.8715, 3.040730
997.3536, 2.143372
997.8358, 1.273500
998.3179, 1.486769
998.8000, 3.517048
999.2821, 4.644260
999.7642, 3.760515
1000.246, 2.012367
1000.728, 1.736109
1001.211, 2.499146
1001.693, 3.237463
1002.175, 3.672783
1002.657, 3.933777
1003.139, 4.241697
1003.621, 4.260170
1004.103, 3.589542
1004.585, 2.002419
1005.068, 1.070099
1005.550, 0.7704680
1006.032, 0.6949120
1006.514, 0.6967930
1006.996, 0.7995740
1007.478, 1.138638
1007.960, 1.649572
1008.442, 1.960367
1008.924, 1.637524
1009.407, 1.549232
1009.889, 2.057955
1010.371, 2.753658
1010.853, 2.817167
1011.335, 2.299006
1011.817, 1.396177
1012.299, 3.3495001E-02
1012.781, 1.033108
1013.263, 0.7665880
1013.746, 0.1969380
1014.228, 1.566916
1014.710, 3.619471
1015.192, 4.077335
1015.674, 2.435499
1016.156, 0.8411920
1016.638, 0.7184830
1017.120, 1.483009
1017.603, 2.023699
1018.085, 2.354425
1018.567, 2.507553
1019.049, 2.152893
1019.531, 2.046394
1020.013, 2.536591
1020.495, 3.308468
1020.977, 4.083853
1021.459, 4.879093
1021.942, 4.706684
1022.424, 3.316425
1022.906, 1.899487
1023.388, 1.989614
1023.870, 2.462477
1024.352, 1.770779
1024.834, 0.3752880
1025.316, 1.210459
1025.799, 1.3605000E-02
1026.281, 1.322657
1026.763, 2.118265
1027.245, 2.493740
1027.727, 2.751205
1028.209, 2.890848
1028.691, 2.892984
1029.173, 2.537039
1029.656, 2.383291
1030.138, 2.900534
1030.620, 3.622665
1031.102, 4.054790
1031.584, 4.145052
1032.066, 4.324932
1032.548, 4.644390
1033.030, 4.646482
1033.512, 3.638334
1033.995, 2.453045
1034.477, 2.153421
1034.959, 2.657909
1035.441, 3.143341
1035.923, 3.289406
1036.405, 3.667591
1036.887, 4.600941
1037.369, 5.578518
1037.851, 5.492569
1038.334, 4.573677
1038.816, 3.651598
1039.298, 2.871086
1039.780, 2.291887
1040.262, 2.146708
1040.744, 2.055840
1041.226, 1.611914
1041.708, 0.7558350
1042.191, 0.6122740
1042.673, 1.267828
1043.155, 1.861650
1043.637, 1.751837
1044.119, 1.472933
1044.601, 2.009205
1045.083, 2.939564
1045.565, 3.281839
1046.047, 1.861528
1046.530, 1.141241
1047.012, 1.483931
1047.494, 2.345436
1047.976, 3.499271
1048.458, 4.708969
1048.940, 4.401321
1049.422, 2.515343
1049.904, 1.066725
1050.386, 1.762543
1050.869, 2.862175
1051.351, 3.433178
1051.833, 3.512066
1052.315, 3.237585
1052.797, 2.548035
1053.279, 1.908997
1053.761, 1.336348
1054.243, 1.136963
1054.726, 2.406620
1055.208, 4.003357
1055.690, 4.127403
1056.172, 1.654076
1056.654, 0.2182810
1057.136, 0.4494690
1057.618, 1.097704
1058.100, 1.501846
1058.583, 1.707722
1059.065, 1.974758
1059.547, 2.234425
1060.029, 2.167862
1060.511, 1.185852
1060.993, 0.3361260
1061.475, 6.8255998E-02
1061.957, 4.0150001E-03
1062.439, 0.7687550
1062.922, 2.424662
1063.404, 3.109875
1063.886, 2.605230
1064.368, 1.818192
1064.850, 1.516790
1065.332, 1.361835
1065.814, 0.8576370
1066.296, 0.9151880
1066.778, 8.6491004E-02
1067.261, 0.9218370
1067.743, 1.670124
1068.225, 1.732645
1068.707, 1.463781
1069.189, 1.504919
1069.671, 1.730381
1070.153, 1.760487
1070.635, 1.272032
1071.118, 1.264009
1071.600, 2.944651
1072.082, 4.410969
1072.564, 4.491959
1073.046, 3.315025
1073.528, 2.286861
1074.010, 1.440191
1074.492, 1.208353
1074.974, 2.232552
1075.457, 3.245163
1075.939, 3.402203
1076.421, 2.942080
1076.903, 2.172890
1077.385, 0.7299310
1077.867, 0.3336520
1078.349, 1.271166
1078.831, 2.354929
1079.313, 2.461826
1079.796, 2.031376
1080.278, 1.674986
1080.760, 1.436562
1081.242, 1.167559
1081.724, 0.2297950
1082.206, 5.7867002E-02
1082.688, 1.256052
1083.170, 2.886656
1083.652, 3.269636
1084.135, 2.686995
1084.617, 2.530029
1085.099, 3.148739
1085.581, 3.512280
1086.063, 2.553572
1086.545, 1.583050
1087.027, 1.584618
1087.509, 2.405607
1087.992, 2.335945
1088.474, 1.365559
1088.956, 0.3405230
1089.438, 0.6196370
1089.920, 1.102890
1090.402, 0.3250370
1090.884, 1.005283
1091.366, 1.910477
1091.849, 2.132832
1092.331, 2.272757
1092.813, 2.322697
1093.295, 2.315706
1093.777, 2.349436
1094.259, 2.306564
1094.741, 1.588409
1095.223, 0.5452800
1095.705, 0.3964020
1096.188, 3.245361
1096.670, 4.656578
1097.152, 3.358196
1097.634, 1.143290
1098.116, 0.2086160
1098.598, 0.3747750
1099.080, 1.004011
1099.562, 2.023409
1100.044, 2.766600
1100.527, 2.370941
1101.009, 2.085287
1101.491, 2.819340
1101.973, 2.521551
1102.455, 2.500227
1102.937, 3.023291
1103.419, 2.514006
1103.901, 3.294075
1104.384, 4.036200
1104.866, 3.144545
1105.348, 1.768373
1105.830, 1.069212
1106.312, 1.252045
1106.794, 1.464994
1107.276, 1.755100
1107.758, 1.853481
1108.240, 1.414099
1108.723, 0.9951550
1109.205, 2.018436
1109.687, 3.592632
1110.169, 3.944818
1110.651, 1.228531
1111.133, 0.1143680
1111.615, 0.8183590
1112.097, 2.030203
1112.579, 1.745901
1113.062, 0.5114780
1113.544, 0.4018630
1114.026, 1.196463
1114.508, 1.754946
1114.990, 1.200672
1115.472, 0.7248440
1115.954, 0.7781810
1116.436, 1.041389
1116.919, 1.010553
1117.401, 0.7386000
1117.883, 1.198666
1118.365, 2.477215
1118.847, 3.341969
1119.329, 2.142017
1119.811, 0.9992070
1120.293, 1.594105
1120.776, 3.354370
1121.258, 4.032095
1121.740, 3.514189
1122.222, 3.037212
1122.704, 2.889448
1123.186, 2.706074
1123.668, 1.569130
1124.150, 0.5371250
1124.632, 1.076210
1125.115, 3.568321
1125.597, 4.643866
1126.079, 3.941566
1126.561, 2.867453
1127.043, 1.738901
1127.525, 0.8361660
1128.007, 0.6818790
1128.489, 1.048477
1128.971, 1.627937
1129.454, 2.646410
1129.936, 3.004494
1130.418, 2.468967
1130.900, 1.568769
1131.382, 0.2500310
1131.864, 1.045332
1132.346, 0.6643700
1132.828, 0.9330730
1133.311, 2.229662
1133.793, 2.191578
1134.275, 2.300377
1134.757, 3.335505
1135.239, 4.180204
1135.721, 3.507444
1136.203, 1.564499
1136.685, 0.3782650
1137.167, 3.4596998E-02
1137.650, 0.2238560
1138.132, 0.8061370
1138.614, 0.9383260
1139.096, 0.3928430
1139.578, 2.171082
1140.060, 2.714018
1140.542, 1.885454
1141.024, 1.389351
1141.506, 1.488127
1141.989, 1.762932
1142.471, 1.991875
1142.953, 2.177034
1143.435, 2.231022
1143.917, 2.220339
1144.399, 2.502960
1144.881, 3.153988
1145.363, 3.575539
1145.846, 3.613663
1146.328, 3.461090
1146.810, 2.999813
1147.292, 2.645405
1147.774, 3.166126
1148.256, 2.700209
1148.738, 4.957684
1149.220, 2.897583
1149.703, 1.622107
1150.185, 2.442516
1150.667, 4.011063
1151.149, 4.565468
1151.631, 4.418344
1152.113, 3.954609
1152.595, 2.982660
1153.077, 2.729654
1153.559, 3.606886
1154.042, 4.380207
1154.524, 4.434561
1155.006, 3.925127
1155.488, 2.641453
1155.970, 1.120508
1156.452, 0.8140720
1156.934, 3.810541
1157.416, 4.875687
1157.898, 2.304390
1158.381, 0.3933620
1158.863, 0.1047530
1159.345, 2.228683
1159.827, 2.644831
1160.309, 1.592144
1160.791, 0.8775770
1161.273, 1.937567
1161.755, 2.603920
1162.238, 1.935873
1162.720, 1.104650
1163.202, 1.624561
1163.684, 3.186134
1164.166, 3.763847
1164.648, 3.331423
1165.130, 2.528358
1165.612, 1.123135
1166.094, 0.1253640
1166.577, 0.2450490
1167.059, 0.8278870
1167.541, 0.8309310
1168.023, 0.3239960
1168.505, 0.2034680
1168.987, 0.5583530
1169.469, 1.057533
1169.951, 1.617279
1170.433, 2.088106
1170.916, 2.539965
1171.398, 2.892717
1171.880, 2.853277
1172.362, 2.427629
1172.844, 2.035122
1173.326, 1.741919
1173.808, 1.599375
1174.290, 1.751789
1174.773, 1.991213
1175.255, 2.339214
1175.737, 2.667265
1176.219, 1.946213
1176.701, 6.9619998E-02
1177.183, 0.5958880
1177.665, 0.8710730
1178.147, 2.708670
1178.630, 3.511185
1179.112, 3.659443
1179.594, 3.310457
1180.076, 2.502903
1180.558, 2.289604
1181.040, 2.728952
1181.522, 3.237543
1182.004, 3.773130
1182.486, 3.894733
1182.969, 2.546322
1183.451, 0.8309570
1183.933, 0.1487330
1184.415, 0.7817860
1184.897, 1.503773
1185.379, 2.362402
1185.861, 3.049164
1186.343, 3.452171
1186.825, 3.535923
1187.308, 3.048460
1187.790, 2.288637
1188.272, 1.714666
1188.754, 1.343966
1189.236, 1.363617
1189.718, 1.784517
1190.200, 2.215012
1190.682, 2.321554
1191.165, 2.271727
1191.647, 2.496374
1192.129, 2.733639
1192.611, 2.378061
1193.093, 0.5680480
1193.575, 2.3550000E-02
1194.057, 1.035818
1194.539, 2.275604
1195.021, 2.923065
1195.504, 3.019472
1195.986, 2.363153
1196.468, 1.197805
1196.950, 0.1803380
1197.432, 1.282486
1197.914, 0.9512410
1198.396, 1.871317
1198.878, 4.446543
1199.360, 3.500784
1199.843, 1.100691
1200.325, 3.7237000E-02
1200.807, 0.2181950
1201.289, 0.7933880
1201.771, 1.696806
1202.253, 2.672750
1202.735, 3.854904
1203.217, 4.558338
1203.700, 3.440241
1204.182, 1.704391
1204.664, 1.171795
1205.146, 1.779921
1205.628, 2.233315
1206.110, 2.109383
1206.592, 2.427088
1207.074, 3.592800
1207.557, 4.526436
1208.039, 3.388567
1208.521, 1.427206
1209.003, 0.2492350
1209.485, 1.5583000E-02
1209.967, 0.8614940
1210.449, 3.747509
1210.931, 5.196871
1211.413, 4.196478
1211.896, 2.308167
1212.378, 1.172201
1212.860, 0.7358840
1213.342, 1.224972
1213.824, 2.654335
1214.306, 3.468481
1214.788, 3.444517
1215.270, 3.015184
1215.752, 2.155687
1216.235, 1.266973
1216.717, 1.017763
1217.199, 1.185463
1217.681, 1.451700
1218.163, 1.792444
1218.645, 2.130827
1219.127, 2.481409
1219.609, 2.770178
1220.092, 2.967352
1220.574, 3.113094
1221.056, 3.383461
1221.538, 3.585789
1222.020, 3.423252
1222.502, 2.808702
1222.984, 1.977312
1223.466, 0.6817630
1223.948, 0.1079850
1224.431, 0.9001850
1224.913, 2.204229
1225.395, 3.292105
1225.877, 3.910341
1226.359, 3.207924
1226.841, 0.6054270
1227.323, 0.4608230
1227.805, 0.3607750
1228.287, 1.383427
1228.770, 1.982094
1229.252, 2.297331
1229.734, 2.448145
1230.216, 2.461397
1230.698, 2.330023
1231.180, 1.999485
1231.662, 1.849041
1232.144, 1.919952
1232.627, 1.900860
1233.109, 1.476377
1233.591, 1.188601
1234.073, 2.015808
1234.555, 3.212534
1235.037, 3.697487
1235.519, 3.379776
1236.001, 2.992550
1236.484, 2.521351
1236.966, 2.138231
1237.448, 1.869715
1237.930, 1.825211
1238.412, 2.322039
1238.894, 3.006077
1239.376, 3.395954
1239.858, 3.467861
1240.340, 3.294230
1240.823, 2.872606
1241.305, 2.493816
1241.787, 2.288141
1242.269, 2.283518
1242.751, 2.736202
1243.233, 3.250755
1243.715, 3.282921
1244.197, 2.760452
1244.679, 2.562887
1245.162, 2.679188
1245.644, 2.606466
1246.126, 1.571049
1246.608, 0.9446700
1247.090, 2.491968
1247.572, 4.380877
1248.054, 4.343668
1248.536, 2.263578
1249.019, 1.445412
1249.501, 1.783667
1249.983, 2.254539
1250.465, 2.249664
1250.947, 2.187815
1251.429, 2.454304
1251.911, 2.538036
1252.393, 1.801228
1252.875, 0.3440550
1253.358, 0.3226380
1253.840, 1.501816
1254.322, 2.306986
1254.804, 1.457350
1255.286, 0.6848490
1255.768, 0.5650860
1256.250, 0.7728390
1256.732, 1.284107
1257.214, 1.965450
1257.697, 1.407536
1258.179, 1.2930000E-03
1258.661, 0.4362450
1259.143, 2.255505
1259.625, 4.021101
1260.107, 3.790251
1260.589, 3.018049
1261.071, 2.992397
1261.554, 3.392365
1262.036, 3.119547
1262.518, 2.351095
1263.000, 1.710455
1263.482, 1.328943
1263.964, 1.283543
1264.446, 1.699009
1264.928, 2.199869
1265.411, 2.306856
1265.893, 2.406658
1266.375, 3.246477
1266.857, 4.419128
1267.339, 4.826286
1267.821, 3.659296
1268.303, 2.576735
1268.785, 1.536127
1269.267, 0.8654190
1269.750, 0.8564410
1270.232, 1.344223
1270.714, 2.645149
1271.196, 4.184113
1271.678, 4.498632
1272.160, 2.997774
1272.642, 1.968786
1273.124, 1.505922
1273.606, 1.191957
1274.089, 0.5051590
1274.571, 4.4378001E-02
1275.053, 0.5708890
1275.535, 1.623255
1276.017, 2.393747
1276.499, 2.860125
1276.981, 2.972033
1277.463, 2.735617
1277.946, 2.498671
1278.428, 2.550072
1278.910, 2.603703
1279.392, 2.347437
1279.874, 2.001621
1280.356, 1.770872
1280.838, 1.617065
1281.320, 2.210817
1281.802, 3.547211
1282.285, 3.946598
1282.767, 1.088463
1283.249, 0.9463160
1283.731, 0.1398770
1284.213, 1.478363
1284.695, 2.338242
1285.177, 2.510164
1285.659, 1.999670
1286.141, 1.057549
1286.624, 0.6807770
1287.106, 2.002043
1287.588, 2.952692
1288.070, 3.281494
1288.552, 3.175804
1289.034, 2.387035
1289.516, 1.481907
1289.998, 1.707165
1290.481, 2.559090
1290.963, 2.769638
1291.445, 0.9143180
1291.927, 0.5133150
1292.409, 1.965513
1292.891, 3.366268
1293.373, 2.499943
1293.855, 1.390181
1294.338, 1.786997
1294.820, 2.795319
1295.302, 2.944490
1295.784, 1.895105
1296.266, 1.320333
1296.748, 1.246195
1297.230, 1.176146
1297.712, 0.3308890
1298.194, 0.1015090
1298.677, 1.172874
1299.159, 2.871561
1299.641, 3.447033
1300.123, 2.872145
1300.605, 2.100943
1301.087, 0.9148100
1301.569, 0.2705440
1302.051, 0.3016830
1302.533, 0.3011380
1303.016, 0.0000000E+00
##END=



