##NAMES=Chalcocite
##RRUFFID=R070730
##IDEAL CHEMISTRY=Cu^1+^_2_S^2-^
##LOCALITY=La Mesa, Chihuahua, Mexico
##OWNER=RRUFF
##SOURCE=Michael Scott
##DESCRIPTION=Dark gray rounded metallic grains associated with ajoite
##STATUS=The identification of this mineral is confirmed by single-crystal X-ray diffraction and chemical analysis.
##URL=rruff.info/R070730
##MEASURED CHEMISTRY=Cu_1.97_Ag_0.01_S
132.6623, 0.0000000E+00
133.1445, 0.4603270
133.6266, 26.38727
134.1087, 46.44904
134.5908, 58.06213
135.0729, 63.46326
135.5550, 66.05029
136.0372, 65.45782
136.5193, 62.75806
137.0014, 55.99768
137.4835, 44.14270
137.9656, 40.90173
138.4477, 50.46326
138.9299, 68.02228
139.4120, 76.72186
139.8941, 74.62549
140.3762, 68.04187
140.8583, 61.16760
141.3404, 53.64337
141.8225, 47.24506
142.3047, 42.56964
142.7868, 39.74048
143.2689, 35.85486
143.7510, 27.28577
144.2331, 20.40259
144.7152, 24.68225
145.1974, 49.82684
145.6795, 71.10773
146.1616, 81.52765
146.6437, 78.44604
147.1258, 70.94769
147.6079, 54.79083
148.0901, 34.17828
148.5722, 21.11047
149.0543, 16.47748
149.5364, 18.39050
150.0185, 26.03510
150.5006, 47.29846
150.9828, 64.91400
151.4649, 79.27838
151.9470, 90.18781
152.4291, 94.85706
152.9112, 85.44275
153.3933, 76.76294
153.8755, 72.36102
154.3576, 90.82385
154.8397, 101.7392
155.3218, 94.85034
155.8039, 66.26227
156.2860, 43.78491
156.7682, 33.02832
157.2503, 30.93091
157.7324, 33.74084
158.2145, 51.11121
158.6966, 65.07410
159.1787, 66.43085
159.6609, 46.91852
160.1430, 30.88403
160.6251, 29.71783
161.1072, 39.37097
161.5893, 44.23114
162.0714, 36.23053
162.5536, 25.40387
163.0357, 19.37329
163.5178, 24.84808
163.9999, 29.90027
164.4820, 26.15869
164.9641, 15.79150
165.4463, 13.67908
165.9284, 29.85242
166.4105, 49.19293
166.8926, 57.18939
167.3747, 35.55090
167.8568, 9.551331
168.3390, 4.064453
168.8211, 22.60089
169.3032, 43.15527
169.7853, 51.27588
170.2674, 49.99255
170.7495, 45.87354
171.2317, 44.15399
171.7138, 38.65253
172.1959, 27.84436
172.6780, 10.79102
173.1601, 3.936890
173.6422, 10.33502
174.1244, 8.914734
174.6065, 2.259155
175.0886, 12.78784
175.5707, 31.00391
176.0528, 44.92932
176.5349, 52.97650
177.0171, 56.17242
177.4992, 53.08881
177.9813, 44.43390
178.4634, 36.83728
178.9455, 36.55634
179.4276, 41.28369
179.9098, 45.92694
180.3919, 47.67218
180.8740, 47.65063
181.3561, 46.14569
181.8382, 43.08661
182.3203, 39.27319
182.8025, 35.90234
183.2846, 32.62091
183.7667, 27.68750
184.2488, 15.99017
184.7309, 1.943970
185.2130, 0.8905030
185.6951, 15.44879
186.1773, 33.42584
186.6594, 38.74915
187.1415, 32.18848
187.6236, 22.39801
188.1057, 11.36084
188.5878, 0.1596680
189.0700, 5.994629
189.5521, 5.587585
190.0342, 1.541016
190.5163, 0.1079100
190.9984, 1.390320
191.4805, 9.6680000E-02
191.9627, 11.42834
192.4448, 31.38165
192.9269, 45.00409
193.4090, 48.65454
193.8911, 44.99811
194.3732, 41.91302
194.8554, 39.65399
195.3375, 36.38855
195.8196, 30.00146
196.3017, 20.45496
196.7838, 10.44971
197.2659, 0.9140630
197.7481, 12.56152
198.2302, 16.30670
198.7123, 10.64526
199.1944, 1.344116
199.6765, 6.093079
200.1586, 12.10333
200.6408, 13.36566
201.1229, 5.261719
201.6050, 12.42987
202.0871, 18.77948
202.5692, 10.45972
203.0513, 5.913940
203.5335, 21.50342
204.0156, 39.71313
204.4977, 49.81964
204.9798, 42.33221
205.4619, 13.22174
205.9440, 2.673889
206.4262, 0.5102540
206.9083, 12.55847
207.3904, 18.79547
207.8725, 16.93060
208.3546, 11.67133
208.8367, 3.807617
209.3189, 9.133606
209.8010, 13.61688
210.2831, 5.736206
210.7652, 11.09424
211.2473, 21.92432
211.7294, 25.95679
212.2116, 25.68872
212.6937, 21.06042
213.1758, 8.461975
213.6579, 3.930908
214.1400, 13.69666
214.6221, 36.16528
215.1043, 45.46075
215.5864, 36.20459
216.0685, 21.78107
216.5506, 15.92169
217.0327, 21.91638
217.5148, 27.92340
217.9970, 31.12488
218.4791, 31.25195
218.9612, 33.11578
219.4433, 38.99615
219.9254, 44.25085
220.4075, 41.23834
220.8897, 23.76599
221.3718, 10.88037
221.8539, 10.27618
222.3360, 25.80927
222.8181, 34.40900
223.3002, 33.06372
223.7824, 26.57129
224.2645, 24.16638
224.7466, 29.57898
225.2287, 32.56274
225.7108, 27.52240
226.1929, 7.893311
226.6750, 0.6026000
227.1572, 7.846069
227.6393, 25.77997
228.1214, 33.00690
228.6035, 21.94440
229.0856, 11.39185
229.5677, 11.93353
230.0499, 32.33777
230.5320, 43.02356
231.0141, 37.07007
231.4962, 19.77032
231.9783, 15.18420
232.4604, 32.34015
232.9426, 51.04626
233.4247, 58.79956
233.9068, 49.17010
234.3889, 41.65326
234.8710, 39.25244
235.3531, 41.09290
235.8353, 38.60345
236.3174, 26.68402
236.7995, 16.23157
237.2816, 16.84613
237.7637, 38.02649
238.2458, 51.76007
238.7280, 51.64337
239.2101, 37.95831
239.6922, 29.33630
240.1743, 28.29846
240.6564, 29.80780
241.1385, 29.00293
241.6207, 23.54071
242.1028, 19.88715
242.5849, 19.34821
243.0670, 22.06384
243.5491, 26.30963
244.0313, 34.57690
244.5134, 42.27191
244.9955, 43.35516
245.4776, 32.84607
245.9597, 24.42108
246.4418, 22.18781
246.9240, 27.42902
247.4061, 29.40002
247.8882, 26.70129
248.3703, 21.96948
248.8524, 18.99652
249.3345, 18.31799
249.8167, 18.90405
250.2988, 20.48175
250.7809, 23.15399
251.2630, 26.26886
251.7451, 29.10004
252.2272, 32.74957
252.7094, 40.14325
253.1915, 55.78973
253.6736, 67.45050
254.1557, 69.89746
254.6378, 59.78223
255.1199, 50.66699
255.6021, 41.91229
256.0842, 34.21021
256.5663, 28.58331
257.0484, 25.00684
257.5305, 23.84912
258.0126, 26.87451
258.4948, 39.35345
258.9769, 39.62158
259.4590, 18.13446
259.9411, 13.06360
260.4232, 18.92163
260.9053, 15.19470
261.3875, 48.13995
261.8696, 57.24969
262.3517, 33.10394
262.8338, 17.05591
263.3159, 11.00446
263.7980, 11.31250
264.2802, 17.15363
264.7623, 32.61017
265.2444, 45.99597
265.7265, 48.06982
266.2086, 32.90137
266.6907, 28.92523
267.1729, 42.88696
267.6550, 68.67450
268.1371, 80.75769
268.6192, 74.34790
269.1013, 64.59650
269.5834, 63.38403
270.0656, 73.54419
270.5477, 78.46930
271.0298, 73.43451
271.5119, 61.92218
271.9940, 61.19037
272.4761, 74.98553
272.9583, 89.47894
273.4404, 94.03217
273.9225, 87.08850
274.4046, 78.05420
274.8867, 66.29199
275.3688, 53.75916
275.8510, 50.77155
276.3331, 59.89868
276.8152, 70.94025
277.2973, 75.24323
277.7794, 72.19867
278.2615, 68.41187
278.7437, 65.61609
279.2258, 62.94507
279.7079, 55.06317
280.1900, 40.32184
280.6721, 26.97296
281.1542, 24.26080
281.6364, 32.72339
282.1185, 38.82867
282.6006, 38.30249
283.0827, 33.47864
283.5648, 35.40131
284.0469, 45.43323
284.5291, 54.23120
285.0112, 51.66241
285.4933, 37.90576
285.9754, 27.25421
286.4575, 24.12720
286.9396, 26.55774
287.4217, 27.68469
287.9038, 27.12305
288.3860, 28.17426
288.8681, 35.98767
289.3502, 49.56787
289.8323, 60.86121
290.3144, 68.60126
290.7965, 72.02124
291.2787, 65.14575
291.7608, 46.77600
292.2429, 31.17163
292.7250, 37.56305
293.2071, 60.95911
293.6892, 76.05298
294.1714, 69.38654
294.6535, 51.42511
295.1356, 46.37415
295.6177, 54.76678
296.0998, 64.94635
296.5819, 64.47931
297.0641, 56.28748
297.5462, 50.87866
298.0283, 54.32227
298.5104, 61.30359
298.9925, 61.09119
299.4746, 53.60590
299.9568, 48.03900
300.4389, 58.38934
300.9210, 76.98853
301.4031, 85.97418
301.8852, 69.75415
302.3673, 45.78033
302.8495, 38.12079
303.3316, 46.53326
303.8137, 56.92090
304.2958, 57.15955
304.7779, 51.39850
305.2600, 47.06116
305.7422, 50.43829
306.2243, 54.21094
306.7064, 48.21130
307.1885, 33.03448
307.6706, 21.66077
308.1527, 26.37775
308.6349, 39.91443
309.1170, 52.16577
309.5991, 63.02130
310.0812, 68.38245
310.5633, 61.14441
311.0454, 42.23553
311.5276, 27.44470
312.0097, 30.05579
312.4918, 40.59961
312.9739, 48.49567
313.4560, 49.59943
313.9381, 47.36865
314.4203, 41.04871
314.9024, 31.21057
315.3845, 25.78180
315.8666, 36.05054
316.3487, 49.26001
316.8308, 53.35785
317.3130, 34.17358
317.7951, 13.98242
318.2772, 4.390198
318.7593, 6.038574
319.2414, 5.453552
319.7235, 9.318604
320.2057, 23.89276
320.6878, 26.87347
321.1699, 0.6023560
321.6520, 22.24170
322.1341, 29.00958
322.6162, 21.78467
323.0984, 22.28442
323.5805, 46.79016
324.0626, 73.40045
324.5447, 87.14252
325.0268, 77.38013
325.5089, 64.30029
325.9911, 46.09180
326.4732, 24.24231
326.9553, 12.20801
327.4374, 15.44385
327.9195, 26.22791
328.4016, 40.00330
328.8838, 67.27863
329.3659, 82.56586
329.8480, 78.71899
330.3301, 59.92688
330.8122, 46.76733
331.2943, 40.11859
331.7765, 38.07104
332.2586, 40.22040
332.7407, 51.21558
333.2228, 57.83282
333.7049, 57.41309
334.1870, 52.00128
334.6692, 50.13940
335.1513, 53.20404
335.6334, 57.62268
336.1155, 62.45306
336.5976, 69.92297
337.0797, 70.33759
337.5619, 60.70654
338.0440, 44.75677
338.5261, 32.47296
339.0082, 23.08081
339.4903, 19.59766
339.9724, 26.33624
340.4546, 45.16736
340.9367, 58.39209
341.4188, 65.17719
341.9009, 65.99762
342.3830, 59.93512
342.8651, 46.19666
343.3473, 33.42700
343.8294, 26.32971
344.3115, 24.60291
344.7936, 25.88702
345.2757, 31.25146
345.7578, 36.82703
346.2400, 33.61029
346.7221, 22.43219
347.2042, 16.35840
347.6863, 28.98773
348.1684, 52.55829
348.6505, 59.44543
349.1327, 46.07483
349.6148, 27.22003
350.0969, 20.10693
350.5790, 22.67389
351.0611, 26.99817
351.5432, 32.69531
352.0254, 36.67316
352.5075, 31.71906
352.9896, 16.65515
353.4717, 2.297729
353.9538, 0.8076780
354.4359, 4.007690
354.9181, 10.35834
355.4002, 16.49561
355.8823, 22.40485
356.3644, 28.80743
356.8465, 35.56500
357.3286, 40.13232
357.8108, 37.21820
358.2929, 32.74707
358.7750, 34.36884
359.2571, 55.35284
359.7392, 74.59387
360.2213, 79.16498
360.7035, 69.67175
361.1856, 57.32599
361.6677, 42.68683
362.1498, 29.49927
362.6319, 20.82782
363.1140, 19.42798
363.5962, 20.65881
364.0783, 26.45435
364.5604, 35.41876
365.0425, 37.97339
365.5246, 24.25342
366.0067, 8.566589
366.4889, 0.5067750
366.9710, 5.084229
367.4531, 9.147827
367.9352, 7.689819
368.4173, 2.756897
368.8994, 3.317810
369.3815, 16.30798
369.8636, 28.89923
370.3458, 35.07990
370.8279, 27.92786
371.3100, 26.71082
371.7921, 36.31384
372.2742, 50.79779
372.7563, 54.38837
373.2385, 39.57581
373.7206, 26.18701
374.2027, 23.23608
374.6848, 34.13623
375.1669, 41.05096
375.6490, 42.59503
376.1312, 41.57196
376.6133, 43.84351
377.0954, 51.25049
377.5775, 53.76465
378.0596, 44.12622
378.5417, 23.80603
379.0239, 17.67810
379.5060, 27.58002
379.9881, 40.21118
380.4702, 35.53540
380.9523, 14.33234
381.4344, 3.1067001E-02
381.9166, 3.518555
382.3987, 18.78906
382.8808, 28.46570
383.3629, 32.44556
383.8450, 31.00281
384.3271, 20.93359
384.8093, 5.018555
385.2914, 8.254944
385.7735, 18.23505
386.2556, 22.66510
386.7377, 14.17529
387.2198, 5.666565
387.7020, 25.23749
388.1841, 37.64642
388.6662, 44.15100
389.1483, 46.00299
389.6304, 41.37866
390.1125, 35.62543
390.5947, 33.37823
391.0768, 33.43561
391.5589, 32.07062
392.0410, 22.75299
392.5231, 14.21716
393.0052, 14.33160
393.4874, 29.42969
393.9695, 40.78632
394.4516, 38.01440
394.9337, 26.92975
395.4158, 18.18347
395.8979, 15.12531
396.3801, 14.56921
396.8622, 15.92102
397.3443, 20.01074
397.8264, 22.66827
398.3085, 22.84698
398.7906, 21.44708
399.2728, 19.48450
399.7549, 13.38568
400.2370, 10.82745
400.7191, 14.70233
401.2012, 25.66693
401.6833, 33.36725
402.1655, 36.97882
402.6476, 38.28735
403.1297, 38.46667
403.6118, 35.86389
404.0939, 33.96478
404.5760, 33.73444
405.0582, 34.61664
405.5403, 34.08630
406.0224, 30.48090
406.5045, 25.98230
406.9866, 21.70758
407.4688, 17.29193
407.9509, 21.72656
408.4330, 38.79150
408.9151, 61.23254
409.3972, 75.01263
409.8793, 80.02704
410.3615, 78.68146
410.8436, 69.89050
411.3257, 55.46228
411.8078, 41.40021
412.2899, 27.90985
412.7720, 16.22546
413.2542, 6.060669
413.7363, 1.292847
414.2184, 2.005493
414.7005, 14.97034
415.1826, 34.90503
415.6647, 37.74774
416.1469, 22.70581
416.6290, 7.117126
417.1111, 0.5115970
417.5932, 1.692566
418.0753, 9.190063
418.5574, 32.25757
419.0396, 52.76923
419.5217, 61.15991
420.0038, 58.42181
420.4859, 51.91614
420.9680, 41.86438
421.4501, 30.57831
421.9323, 19.73041
422.4144, 6.927063
422.8965, 1.980347
423.3786, 4.720825
423.8607, 2.744568
424.3428, 0.3489990
424.8250, 0.4527590
425.3071, 2.742065
425.7892, 12.96759
426.2713, 37.83539
426.7534, 49.04230
427.2355, 38.64752
427.7177, 19.56067
428.1998, 11.32263
428.6819, 18.57800
429.1640, 26.28503
429.6461, 30.81476
430.1282, 32.10315
430.6104, 30.82013
431.0925, 25.69580
431.5746, 21.15424
432.0567, 21.59705
432.5388, 27.08081
433.0209, 36.00354
433.5031, 51.02972
433.9852, 66.83752
434.4673, 68.52649
434.9494, 56.41071
435.4315, 42.30457
435.9136, 34.83875
436.3958, 31.98615
436.8779, 28.51001
437.3600, 23.54584
437.8421, 18.33569
438.3242, 10.16315
438.8063, 2.220581
439.2885, 3.379822
439.7706, 33.22473
440.2527, 65.63208
440.7348, 73.87146
441.2169, 53.93011
441.6990, 30.96460
442.1812, 13.75879
442.6633, 3.148132
443.1454, 0.6239010
443.6275, 6.568604
444.1096, 17.11438
444.5917, 32.55524
445.0739, 52.46521
445.5560, 64.93774
446.0381, 65.08807
446.5202, 58.95728
447.0023, 50.00983
447.4844, 28.51123
447.9666, 17.20795
448.4487, 21.54889
448.9308, 35.99078
449.4129, 45.38373
449.8950, 47.30737
450.3771, 45.59949
450.8592, 40.45056
451.3413, 30.84369
451.8235, 23.96313
452.3056, 19.84015
452.7877, 18.39526
453.2698, 21.01941
453.7519, 28.31952
454.2340, 32.05890
454.7162, 26.96820
455.1983, 17.10400
455.6804, 18.83649
456.1625, 32.80627
456.6446, 47.44861
457.1267, 54.28912
457.6089, 54.16400
458.0910, 49.19055
458.5731, 38.43512
459.0552, 25.76019
459.5373, 11.52722
460.0194, 1.854309
460.5016, 6.979431
460.9837, 13.47632
461.4658, 36.56647
461.9479, 38.03455
462.4300, 10.69958
462.9121, 12.97882
463.3943, 12.40094
463.8764, 0.4924930
464.3585, 10.30084
464.8406, 7.945435
465.3227, 6.223206
465.8048, 10.55725
466.2870, 21.01501
466.7691, 28.62323
467.2512, 28.67108
467.7333, 27.67310
468.2154, 29.81915
468.6975, 41.28510
469.1797, 45.36371
469.6618, 36.96924
470.1439, 21.88422
470.6260, 16.21277
471.1081, 23.73645
471.5902, 31.17413
472.0724, 32.55328
472.5545, 27.72327
473.0366, 25.51514
473.5187, 26.25262
474.0008, 28.71747
474.4829, 32.47113
474.9651, 37.18323
475.4472, 39.92969
475.9293, 40.31708
476.4114, 37.82263
476.8935, 28.41510
477.3756, 12.97443
477.8578, 1.390320
478.3399, 3.684265
478.8220, 13.66516
479.3041, 22.90875
479.7862, 30.90424
480.2683, 35.10657
480.7505, 31.12213
481.2326, 21.81915
481.7147, 13.37067
482.1968, 5.863159
482.6789, 1.540100
483.1610, 2.164307
483.6432, 8.070007
484.1253, 16.11255
484.6074, 31.34796
485.0895, 45.30737
485.5716, 50.75092
486.0537, 32.98077
486.5359, 23.57355
487.0180, 29.23517
487.5001, 46.08618
487.9822, 56.15820
488.4643, 57.44440
488.9464, 55.11377
489.4286, 50.13519
489.9107, 40.72308
490.3928, 40.75140
490.8749, 54.51886
491.3570, 70.30774
491.8391, 68.67303
492.3213, 49.78772
492.8034, 32.28607
493.2855, 22.43073
493.7676, 18.77563
494.2497, 18.76227
494.7318, 22.17889
495.2140, 26.54871
495.6961, 31.63403
496.1782, 35.87469
496.6603, 35.67853
497.1424, 28.34808
497.6245, 21.10291
498.1067, 19.50061
498.5888, 22.21161
499.0709, 26.09210
499.5530, 32.29431
500.0351, 37.23956
500.5172, 38.27905
500.9994, 34.48389
501.4815, 31.67078
501.9636, 31.94452
502.4457, 32.87299
502.9278, 32.59125
503.4099, 26.49878
503.8921, 25.18488
504.3742, 35.03436
504.8563, 51.04059
505.3384, 50.03729
505.8205, 22.50275
506.3026, 3.192444
506.7848, 10.41736
507.2669, 3.857239
507.7490, 14.32458
508.2311, 20.78241
508.7132, 23.92371
509.1953, 24.15143
509.6775, 21.62177
510.1596, 17.82532
510.6417, 11.92523
511.1238, 5.924316
511.6059, 3.821289
512.0880, 5.446411
512.5701, 9.087952
513.0522, 14.18549
513.5344, 20.30273
514.0165, 28.30695
514.4986, 40.92560
514.9807, 47.66547
515.4628, 33.13770
515.9449, 9.611267
516.4271, 1.776855
516.9092, 22.55707
517.3913, 44.12744
517.8734, 44.52014
518.3555, 21.93549
518.8376, 8.367126
519.3198, 14.97296
519.8019, 25.33295
520.2840, 29.25940
520.7661, 20.13190
521.2482, 16.47345
521.7303, 23.58423
522.2125, 34.42969
522.6946, 32.92041
523.1767, 15.45837
523.6588, 0.7514040
524.1409, 4.078003
524.6230, 0.3746950
525.1052, 12.07227
525.5873, 32.24219
526.0694, 49.98346
526.5515, 53.16296
527.0336, 45.19476
527.5157, 34.70697
527.9979, 21.37720
528.4800, 10.91040
528.9621, 11.69781
529.4442, 20.85077
529.9263, 29.85883
530.4084, 34.78662
530.8906, 37.57898
531.3727, 39.55194
531.8548, 40.93884
532.3369, 40.59192
532.8190, 34.03418
533.3011, 27.54553
533.7833, 26.93207
534.2654, 41.45654
534.7475, 51.56641
535.2296, 54.42950
535.7117, 51.54492
536.1938, 48.29810
536.6760, 45.06244
537.1581, 40.60669
537.6402, 32.56616
538.1223, 20.06226
538.6044, 17.42731
539.0865, 26.77753
539.5687, 39.79993
540.0508, 49.03729
540.5329, 54.28143
541.0150, 51.51459
541.4971, 35.27216
541.9792, 16.31940
542.4614, 13.58380
542.9435, 24.29492
543.4256, 35.55072
543.9077, 42.04871
544.3898, 43.98566
544.8719, 40.79535
545.3541, 31.97925
545.8362, 21.54156
546.3183, 7.499634
546.8004, 5.668823
547.2825, 13.19702
547.7646, 9.385437
548.2468, 4.657654
548.7289, 0.8403930
549.2110, 2.209900
549.6931, 4.174377
550.1752, 4.565979
550.6573, 4.456177
551.1395, 2.889160
551.6216, 1.784058
552.1037, 4.645691
552.5858, 27.18585
553.0679, 50.05756
553.5500, 51.00714
554.0322, 31.13934
554.5143, 18.42029
554.9964, 22.09235
555.4785, 33.07446
555.9606, 35.27710
556.4427, 29.82288
556.9249, 22.61212
557.4070, 15.97021
557.8891, 10.12671
558.3712, 4.566406
558.8533, 1.042114
559.3354, 3.095703
559.8176, 1.721619
560.2997, 10.47559
560.7818, 20.19342
561.2639, 40.47137
561.7460, 50.20288
562.2281, 34.24060
562.7103, 1.692261
563.1924, 12.06000
563.6745, 4.380798
564.1566, 24.71436
564.6387, 40.96173
565.1208, 54.63409
565.6030, 62.10358
566.0851, 63.21161
566.5672, 58.45013
567.0493, 44.21881
567.5314, 21.50439
568.0135, 7.443848
568.4957, 6.645203
568.9778, 13.65637
569.4599, 20.84265
569.9420, 28.43140
570.4241, 37.04816
570.9063, 54.91260
571.3884, 69.23572
571.8705, 63.27490
572.3526, 36.55707
572.8347, 11.91974
573.3168, 0.2537230
573.7990, 3.365784
574.2811, 2.841431
574.7632, 4.313782
575.2453, 11.45709
575.7274, 18.22241
576.2095, 24.29767
576.6917, 28.84259
577.1738, 31.06610
577.6559, 33.09576
578.1380, 35.95135
578.6201, 39.42755
579.1022, 40.29065
579.5844, 38.54773
580.0665, 34.12366
580.5486, 24.14716
581.0307, 10.08490
581.5128, 3.469177
581.9949, 6.155396
582.4771, 13.89850
582.9592, 23.05902
583.4413, 32.66150
583.9234, 40.29187
584.4055, 46.03778
584.8876, 48.55707
585.3698, 45.46570
585.8519, 37.67596
586.3340, 29.94489
586.8161, 19.18695
587.2982, 13.01111
587.7803, 18.03088
588.2625, 43.95270
588.7446, 56.89392
589.2267, 45.35626
589.7088, 27.13330
590.1909, 21.70105
590.6730, 33.62299
591.1552, 46.93066
591.6373, 62.34973
592.1194, 75.46912
592.6015, 68.53131
593.0836, 40.02039
593.5657, 15.70526
594.0479, 14.02539
594.5300, 26.52728
595.0121, 29.42847
595.4942, 21.92395
595.9763, 14.14197
596.4584, 16.17084
596.9406, 22.43976
597.4227, 25.44757
597.9048, 21.24786
598.3869, 17.07556
598.8690, 15.71960
599.3511, 16.78577
599.8333, 19.46790
600.3154, 26.68884
600.7975, 32.28735
601.2796, 34.50952
601.7617, 33.44171
602.2438, 31.66199
602.7260, 29.11755
603.2081, 26.03680
603.6902, 22.79047
604.1723, 19.47766
604.6544, 13.24158
605.1365, 2.241821
605.6187, 6.291870
606.1008, 0.4334720
606.5829, 18.39075
607.0650, 30.51794
607.5471, 28.60406
608.0292, 21.46448
608.5114, 18.26917
608.9935, 18.37415
609.4756, 19.42224
609.9577, 19.77502
610.4398, 21.23621
610.9219, 26.22241
611.4041, 35.94861
611.8862, 41.66541
612.3683, 39.73462
612.8504, 34.33264
613.3325, 28.21484
613.8146, 17.58911
614.2968, 14.41290
614.7789, 22.93677
615.2610, 35.98126
615.7431, 38.44379
616.2252, 29.29498
616.7073, 20.00330
617.1895, 15.16449
617.6716, 13.08661
618.1537, 7.024597
618.6358, 2.566956
619.1179, 9.035706
619.6000, 6.457397
620.0822, 1.370239
620.5643, 11.30530
621.0464, 23.41730
621.5285, 32.07196
622.0106, 29.41882
622.4927, 22.13751
622.9749, 17.36096
623.4570, 18.96002
623.9391, 20.35468
624.4212, 19.37885
624.9033, 17.67395
625.3854, 19.96637
625.8676, 28.49725
626.3497, 36.01154
626.8318, 39.79150
627.3139, 40.19440
627.7960, 41.36230
628.2781, 43.66162
628.7603, 43.64258
629.2424, 35.70129
629.7245, 23.34760
630.2066, 16.74384
630.6887, 18.20911
631.1708, 20.62140
631.6530, 16.13562
632.1351, 8.822693
632.6172, 4.897827
633.0993, 7.145874
633.5814, 12.61176
634.0635, 21.90802
634.5457, 33.59436
635.0278, 43.53406
635.5099, 52.15607
635.9920, 57.82220
636.4741, 59.78888
636.9562, 57.92767
637.4384, 52.40552
637.9205, 39.79321
638.4026, 32.60938
638.8847, 48.57758
639.3668, 83.77057
639.8489, 98.51709
640.3311, 85.33618
640.8132, 62.51611
641.2953, 46.85059
641.7774, 38.13226
642.2595, 36.78180
642.7416, 47.85693
643.2238, 59.18860
643.7059, 63.53143
644.1880, 61.82629
644.6701, 58.36090
645.1522, 53.58984
645.6343, 48.07715
646.1165, 41.93762
646.5986, 35.07874
647.0807, 27.74518
647.5628, 16.94800
648.0449, 9.954773
648.5270, 13.90100
649.0092, 29.86945
649.4913, 42.82611
649.9734, 51.71429
650.4555, 57.74738
650.9376, 63.72809
651.4197, 68.56323
651.9019, 67.20135
652.3840, 50.03125
652.8661, 35.58325
653.3482, 50.56067
653.8303, 84.28442
654.3124, 104.1916
654.7946, 83.62762
655.2767, 57.44415
655.7588, 41.77643
656.2408, 38.45874
656.7230, 37.11426
657.2051, 40.87506
657.6872, 42.45441
658.1693, 35.66602
658.6514, 16.55157
659.1335, 8.106262
659.6157, 13.36902
660.0978, 23.48920
660.5799, 24.36188
661.0620, 18.53333
661.5441, 21.94684
662.0262, 44.80383
662.5084, 69.01514
662.9905, 70.55927
663.4726, 55.24011
663.9547, 39.83734
664.4368, 30.14227
664.9189, 23.92383
665.4011, 20.89777
665.8832, 20.51398
666.3653, 21.36749
666.8474, 20.17297
667.3295, 23.67853
667.8116, 37.94275
668.2938, 69.34399
668.7759, 81.32867
669.2580, 69.13989
669.7401, 48.35266
670.2222, 33.82544
670.7043, 25.33527
671.1865, 21.08771
671.6686, 21.84467
672.1507, 24.16632
672.6328, 23.40363
673.1149, 20.84625
673.5970, 19.54144
674.0792, 20.40363
674.5613, 23.27283
675.0434, 30.12512
675.5255, 39.68982
676.0076, 45.49414
676.4897, 44.52460
676.9719, 40.55078
677.4540, 34.15973
677.9361, 24.57959
678.4182, 21.33240
678.9003, 26.65607
679.3824, 33.31964
679.8646, 34.39148
680.3467, 30.56519
680.8288, 31.22662
681.3109, 38.10718
681.7930, 45.57446
682.2751, 46.19659
682.7573, 42.76929
683.2394, 41.11591
683.7215, 45.58899
684.2036, 49.14258
684.6857, 48.41669
685.1678, 43.79126
685.6500, 36.05695
686.1321, 14.25787
686.6142, 1.836365
687.0963, 9.898010
687.5784, 35.27454
688.0605, 48.08856
688.5427, 46.14673
689.0248, 37.08307
689.5069, 20.84039
689.9890, 1.079956
690.4711, 12.45728
690.9532, 12.81213
691.4354, 6.517334
691.9175, 7.630615
692.3996, 24.18536
692.8817, 33.52179
693.3638, 31.69598
693.8459, 29.05469
694.3281, 33.69135
694.8102, 40.33563
695.2923, 41.95667
695.7744, 27.86151
696.2565, 20.47125
696.7386, 26.68146
697.2208, 40.40881
697.7029, 46.28888
698.1850, 43.97278
698.6671, 34.31671
699.1492, 13.07874
699.6313, 13.89746
700.1135, 24.92694
700.5956, 20.55908
701.0777, 10.15155
701.5598, 2.119263
702.0419, 15.69800
702.5240, 32.96674
703.0062, 54.42615
703.4883, 66.75165
703.9704, 52.35693
704.4525, 32.35327
704.9346, 23.15100
705.4167, 36.82642
705.8989, 43.84302
706.3810, 38.27362
706.8631, 31.04333
707.3452, 38.85529
707.8273, 65.91132
708.3094, 78.58704
708.7916, 66.84851
709.2737, 45.11768
709.7558, 41.71790
710.2379, 52.14996
710.7200, 57.94891
711.2021, 42.63953
711.6843, 25.22919
712.1664, 25.70258
712.6485, 39.63306
713.1306, 48.11163
713.6127, 37.12164
714.0948, 25.27484
714.5770, 21.73425
715.0591, 27.14850
715.5412, 30.56464
716.0233, 30.43896
716.5054, 30.97876
716.9875, 37.04187
717.4697, 48.50543
717.9518, 51.11133
718.4339, 43.33160
718.9160, 32.57019
719.3981, 24.53204
719.8802, 19.59003
720.3624, 19.91516
720.8445, 29.71960
721.3266, 35.85614
721.8087, 25.05634
722.2908, 6.957031
722.7729, 4.294250
723.2551, 4.325012
723.7372, 1.482300
724.2193, 16.73505
724.7014, 36.13544
725.1835, 42.70526
725.6656, 32.40424
726.1478, 26.22845
726.6299, 34.61169
727.1120, 51.23248
727.5941, 57.39032
728.0762, 53.67719
728.5583, 45.40326
729.0405, 30.21271
729.5226, 15.94995
730.0047, 11.30872
730.4868, 16.91949
730.9689, 23.30731
731.4510, 29.53625
731.9332, 33.40607
732.4153, 32.23096
732.8974, 21.54803
733.3795, 20.35809
733.8616, 33.77869
734.3438, 48.85022
734.8259, 51.24268
735.3080, 41.27838
735.7901, 34.22931
736.2722, 32.93726
736.7543, 32.41644
737.2365, 23.01593
737.7186, 10.06580
738.2007, 4.759644
738.6828, 15.26819
739.1649, 28.80560
739.6470, 44.87158
740.1292, 58.85510
740.6113, 60.00897
741.0934, 26.61804
741.5755, 5.171326
742.0576, 9.719788
742.5397, 32.95258
743.0219, 41.50183
743.5040, 32.85822
743.9861, 23.47290
744.4682, 23.01031
744.9503, 27.65979
745.4324, 22.92273
745.9146, 10.32355
746.3967, 5.484070
746.8788, 34.05756
747.3609, 64.92688
747.8430, 66.51892
748.3251, 30.15820
748.8073, 5.179810
749.2894, 12.97272
749.7715, 29.03809
750.2536, 37.72858
750.7357, 36.98676
751.2178, 35.12164
751.7000, 31.90503
752.1821, 28.50568
752.6642, 28.53247
753.1463, 31.10028
753.6284, 31.01172
754.1105, 26.20526
754.5927, 22.18951
755.0748, 26.24097
755.5569, 34.12323
756.0390, 40.06128
756.5211, 40.83862
757.0032, 40.92474
757.4854, 40.46356
757.9675, 39.42969
758.4496, 38.42682
758.9317, 40.22583
759.4138, 36.53027
759.8959, 21.19983
760.3781, 0.3708500
760.8602, 5.451599
761.3423, 2.967529
761.8244, 13.93329
762.3065, 25.82043
762.7886, 33.99194
763.2708, 27.82843
763.7529, 10.13501
764.2350, 0.7359620
764.7171, 12.23474
765.1992, 26.96954
765.6813, 30.02234
766.1635, 18.62616
766.6456, 15.02185
767.1277, 23.38232
767.6098, 32.73090
768.0919, 35.71698
768.5740, 32.44153
769.0562, 31.24286
769.5383, 32.52899
770.0204, 33.82867
770.5025, 31.32532
770.9846, 25.82275
771.4667, 21.35889
771.9489, 18.37659
772.4310, 16.48218
772.9131, 17.33655
773.3952, 18.23260
773.8773, 16.22754
774.3594, 3.911011
774.8416, 0.5200810
775.3237, 10.34241
775.8058, 25.04468
776.2879, 34.31561
776.7700, 38.13861
777.2521, 36.81879
777.7343, 28.63422
778.2164, 19.39960
778.6985, 18.57550
779.1806, 23.01117
779.6627, 25.43726
780.1448, 18.06708
780.6270, 12.44836
781.1091, 17.70209
781.5912, 29.84766
782.0733, 35.31598
782.5554, 28.42407
783.0375, 22.71429
783.5197, 22.10431
784.0018, 24.65961
784.4839, 21.31805
784.9660, 11.75507
785.4481, 6.957886
785.9302, 16.92084
786.4124, 32.94623
786.8945, 40.00336
787.3766, 39.56921
787.8587, 38.63269
788.3408, 42.84039
788.8229, 45.94348
789.3051, 43.37640
789.7872, 34.40088
790.2693, 28.43018
790.7514, 27.12323
791.2335, 26.67334
791.7156, 25.74951
792.1978, 24.54803
792.6799, 21.57404
793.1620, 16.54437
793.6441, 13.88672
794.1262, 21.61249
794.6083, 32.36060
795.0905, 33.34045
795.5726, 21.93591
796.0547, 13.20111
796.5368, 14.78668
797.0189, 21.91760
797.5010, 32.39374
797.9832, 52.99066
798.4653, 57.84918
798.9474, 40.73749
799.4295, 17.78839
799.9116, 3.306763
800.3937, 2.686462
800.8759, 1.732361
801.3580, 19.36053
801.8401, 35.20770
802.3222, 28.38904
802.8043, 10.90796
803.2864, 1.166260
803.7686, 8.515442
804.2507, 15.99902
804.7328, 18.36151
805.2149, 17.56256
805.6970, 16.18951
806.1791, 12.91180
806.6613, 13.21771
807.1434, 20.01123
807.6255, 27.18518
808.1076, 19.90320
808.5897, 1.521973
809.0718, 6.980774
809.5540, 6.111938
810.0361, 23.03851
810.5182, 27.90881
811.0003, 23.90289
811.4824, 17.23212
811.9645, 2.889404
812.4467, 5.541260
812.9288, 2.482117
813.4109, 8.088745
813.8930, 18.15466
814.3751, 28.90735
814.8572, 34.56909
815.3394, 31.47455
815.8215, 24.92078
816.3036, 29.54395
816.7857, 42.28143
817.2678, 48.64111
817.7499, 33.30078
818.2321, 16.58801
818.7142, 12.96149
819.1963, 20.56897
819.6784, 26.02832
820.1605, 21.72650
820.6426, 21.08081
821.1247, 29.95789
821.6068, 45.67651
822.0889, 50.85211
822.5710, 44.70428
823.0532, 37.28271
823.5353, 34.70300
824.0174, 34.13507
824.4995, 28.96558
824.9816, 20.98181
825.4637, 16.07275
825.9459, 22.95844
826.4280, 27.99005
826.9101, 18.17004
827.3922, 7.501953
827.8743, 12.91986
828.3564, 14.79309
828.8386, 39.66504
829.3207, 43.13751
829.8028, 28.34515
830.2849, 18.99994
830.7670, 15.11847
831.2491, 13.11548
831.7313, 11.08459
832.2134, 9.194092
832.6955, 6.561279
833.1776, 3.255554
833.6597, 3.917603
834.1418, 17.81207
834.6240, 29.02728
835.1061, 28.23248
835.5882, 13.75793
836.0703, 4.343628
836.5524, 0.3658450
837.0345, 0.3303220
837.5167, 4.847778
837.9988, 12.35370
838.4809, 19.06323
838.9630, 24.71582
839.4451, 27.42310
839.9272, 22.61615
840.4094, 16.61932
840.8915, 15.04932
841.3736, 20.05219
841.8557, 22.11304
842.3378, 17.76819
842.8199, 14.44318
843.3021, 18.18347
843.7842, 29.67096
844.2663, 31.28259
844.7484, 22.15643
845.2305, 14.25677
845.7126, 25.22876
846.1948, 41.45496
846.6769, 40.89197
847.1590, 18.37964
847.6411, 8.7462999E-02
848.1232, 5.397888
848.6053, 1.794495
849.0875, 9.391235
849.5696, 32.57495
850.0517, 45.09460
850.5338, 44.89105
851.0159, 38.58075
851.4980, 29.23035
851.9802, 18.59497
852.4623, 13.18158
852.9444, 13.92706
853.4265, 15.69073
853.9086, 9.187012
854.3907, 4.314209
854.8729, 12.27710
855.3550, 43.21014
855.8371, 59.82599
856.3192, 53.53351
856.8013, 41.06177
857.2834, 34.58392
857.7656, 34.12537
858.2477, 34.75214
858.7298, 36.51337
859.2119, 39.31842
859.6940, 47.91272
860.1761, 56.01593
860.6583, 51.05475
861.1404, 26.86304
861.6225, 9.090210
862.1046, 15.69482
862.5867, 27.42706
863.0688, 29.24304
863.5510, 17.01355
864.0331, 10.38684
864.5152, 9.298523
864.9973, 13.78735
865.4794, 30.02527
865.9615, 51.37128
866.4437, 57.22675
866.9258, 43.90479
867.4079, 31.01318
867.8900, 34.65344
868.3721, 40.95734
868.8542, 37.12683
869.3364, 15.37390
869.8185, 1.986389
870.3006, 0.1936040
870.7827, 1.512024
871.2648, 4.5471001E-02
871.7469, 4.184082
872.2291, 3.2960000E-03
872.7112, 13.64380
873.1933, 26.13220
873.6754, 28.32996
874.1575, 24.47821
874.6396, 16.71716
875.1218, 3.223328
875.6039, 1.496765
876.0860, 14.93896
876.5681, 33.19141
877.0502, 42.65289
877.5323, 42.41595
878.0145, 41.20117
878.4966, 38.94696
878.9787, 36.20325
879.4608, 32.71521
879.9429, 29.44788
880.4250, 29.94208
880.9072, 34.67682
881.3893, 33.77905
881.8714, 12.53339
882.3535, 7.779114
882.8356, 11.78284
883.3177, 3.009644
883.7999, 11.98438
884.2820, 14.03851
884.7641, 13.68677
885.2462, 12.70129
885.7283, 11.52710
886.2104, 11.47308
886.6926, 11.80969
887.1747, 14.84692
887.6568, 26.76672
888.1389, 38.22229
888.6210, 42.74048
889.1031, 39.22137
889.5853, 33.31848
890.0674, 23.49780
890.5495, 14.58569
891.0316, 8.480896
891.5137, 5.269348
891.9958, 6.883301
892.4780, 12.95941
892.9601, 17.73633
893.4422, 16.55786
893.9243, 13.02673
894.4064, 9.295105
894.8885, 5.751038
895.3707, 4.190491
895.8528, 2.901062
896.3349, 6.478943
896.8170, 18.64935
897.2991, 37.01245
897.7813, 50.25940
898.2634, 58.27704
898.7455, 56.43420
899.2276, 30.67023
899.7097, 1.208069
900.1918, 2.262146
900.6740, 13.49292
901.1561, 23.08844
901.6382, 7.472656
902.1203, 4.238647
902.6024, 1.643127
903.0845, 11.15790
903.5667, 17.99774
904.0488, 17.59229
904.5309, 24.22369
905.0130, 50.53198
905.4951, 77.05310
905.9772, 66.07007
906.4594, 30.58215
906.9415, 3.367859
907.4236, 1.868835
907.9057, 2.644348
908.3878, 23.52820
908.8699, 48.51501
909.3521, 50.82257
909.8342, 22.97705
910.3163, 2.307251
910.7984, 3.641663
911.2805, 1.485535
911.7626, 20.06000
912.2448, 44.34857
912.7269, 54.59326
913.2090, 33.18140
913.6911, 14.57446
914.1732, 20.18567
914.6553, 36.25568
915.1375, 43.44983
915.6196, 39.32996
916.1017, 30.87866
916.5838, 16.98553
917.0659, 2.666443
917.5480, 7.947815
918.0302, 13.59204
918.5123, 8.196106
918.9944, 12.46674
919.4765, 30.74286
919.9586, 32.70459
920.4407, 28.42969
920.9229, 28.14490
921.4050, 36.27429
921.8871, 38.11505
922.3692, 30.88232
922.8513, 23.45331
923.3334, 26.93207
923.8156, 37.33185
924.2977, 37.67993
924.7798, 26.43823
925.2619, 16.63757
925.7440, 20.98889
926.2261, 28.21558
926.7083, 27.85767
927.1904, 16.49316
927.6725, 15.47607
928.1546, 31.20154
928.6367, 44.99731
929.1188, 43.32983
929.6010, 29.80188
930.0831, 23.89099
930.5652, 25.27039
931.0473, 30.10303
931.5294, 42.81921
932.0115, 52.41870
932.4937, 48.02551
932.9758, 30.86157
933.4579, 18.39783
933.9400, 14.26196
934.4221, 11.07263
934.9042, 6.163452
935.3864, 0.7781980
935.8685, 1.090942
936.3506, 0.2069090
936.8327, 2.585815
937.3148, 6.023438
937.7969, 9.149536
938.2791, 10.20203
938.7612, 10.24915
939.2433, 11.86682
939.7254, 15.47937
940.2075, 19.73682
940.6896, 24.91772
941.1718, 32.41687
941.6539, 45.83044
942.1360, 62.50549
942.6181, 66.90173
943.1002, 51.02905
943.5823, 32.84888
944.0645, 25.73584
944.5466, 24.83813
945.0287, 24.27405
945.5108, 25.32190
945.9929, 21.74927
946.4750, 9.925415
946.9572, 0.6135250
947.4393, 2.694214
947.9214, 16.78455
948.4035, 24.89001
948.8856, 25.07825
949.3677, 23.96509
949.8499, 29.18982
950.3320, 33.57678
950.8141, 28.10938
951.2962, 7.564941
951.7783, 3.821533
952.2604, 25.84741
952.7426, 47.47192
953.2247, 50.85132
953.7068, 40.89636
954.1889, 41.47754
954.6710, 51.36218
955.1531, 59.58984
955.6353, 61.00940
956.1174, 57.37048
956.5995, 44.92932
957.0816, 26.20129
957.5637, 17.65015
958.0458, 23.24927
958.5280, 30.11755
959.0101, 35.72363
959.4922, 38.86792
959.9743, 33.54907
960.4564, 22.94702
960.9385, 16.86194
961.4207, 23.72876
961.9028, 29.61865
962.3849, 23.01355
962.8670, 11.61340
963.3491, 9.527832
963.8312, 22.22839
964.3134, 30.11108
964.7955, 29.37329
965.2776, 27.72461
965.7597, 42.29895
966.2418, 63.73901
966.7239, 65.79883
967.2061, 39.48486
967.6882, 15.50598
968.1703, 11.92749
968.6524, 16.30139
969.1345, 18.83496
969.6166, 17.16882
970.0988, 25.83704
970.5809, 48.33740
971.0630, 67.19470
971.5451, 67.61328
972.0272, 55.98108
972.5093, 42.33716
972.9915, 27.65930
973.4736, 16.00269
973.9557, 7.893066
974.4378, 4.687500
974.9199, 7.866821
975.4020, 15.80005
975.8842, 24.57275
976.3663, 34.98987
976.8484, 46.64282
977.3305, 62.12927
977.8126, 73.42615
978.2947, 61.86340
978.7769, 37.53394
979.2590, 23.27209
979.7411, 37.18250
980.2232, 48.99170
980.7053, 54.30115
981.1874, 53.92358
981.6696, 46.94275
982.1517, 33.10828
982.6338, 23.45801
983.1159, 19.82227
983.5980, 19.14880
984.0801, 18.34900
984.5623, 18.81958
985.0444, 23.98071
985.5264, 38.04773
986.0085, 40.98816
986.4907, 22.33374
986.9728, 4.622437
987.4549, 1.617798
987.9370, 12.23645
988.4191, 27.87561
988.9012, 47.92847
989.3834, 64.37476
989.8655, 73.13953
990.3476, 75.16870
990.8297, 67.84290
991.3118, 53.23792
991.7939, 44.24634
992.2761, 45.69348
992.7582, 42.94299
993.2403, 29.40039
993.7224, 12.94739
994.2045, 14.40198
994.6866, 28.23987
995.1688, 35.89819
995.6509, 24.88330
996.1330, 17.32190
996.6151, 32.61511
997.0972, 54.19763
997.5793, 59.76221
998.0615, 41.76880
998.5436, 29.80225
999.0257, 25.69971
999.5078, 26.06250
999.9899, 28.94397
1000.472, 33.30811
1000.954, 37.06909
1001.436, 39.23120
1001.918, 44.05383
1002.401, 60.39807
1002.883, 72.28687
1003.365, 71.62695
1003.847, 59.61780
1004.329, 45.97290
1004.811, 30.42920
1005.293, 19.54163
1005.775, 18.82959
1006.257, 22.02881
1006.740, 23.53394
1007.222, 23.53967
1007.704, 22.51794
1008.186, 16.11890
1008.668, 15.30835
1009.150, 22.61731
1009.632, 34.30505
1010.114, 46.88123
1010.596, 59.36902
1011.079, 66.47961
1011.561, 67.68396
1012.043, 60.93835
1012.525, 35.78162
1013.007, 7.769531
1013.489, 8.242188
1013.971, 9.412720
1014.453, 9.585571
1014.936, 9.804565
1015.418, 5.861938
1015.900, 9.222046
1016.382, 29.14563
1016.864, 39.75073
1017.346, 41.72852
1017.828, 39.27881
1018.310, 29.58752
1018.792, 21.15991
1019.275, 17.26880
1019.757, 16.82043
1020.239, 17.33362
1020.721, 18.76233
1021.203, 22.88965
1021.685, 31.62842
1022.167, 38.91003
1022.649, 34.02209
1023.132, 24.84802
1023.614, 22.77258
1024.096, 34.62769
1024.578, 44.14539
1025.060, 53.27576
1025.542, 55.26160
1026.024, 39.23621
1026.506, 9.679077
1026.989, 2.607544
1027.471, 2.091675
1027.953, 9.328369
1028.435, 9.998779
1028.917, 10.08887
1029.399, 14.44824
1029.881, 21.93823
1030.363, 25.58594
1030.845, 24.82410
1031.328, 22.05664
1031.810, 16.56238
1032.292, 11.09448
1032.774, 11.17944
1033.256, 14.19446
1033.738, 14.17297
1034.220, 2.995850
1034.702, 1.080078
1035.184, 21.23120
1035.667, 44.78271
1036.149, 57.32593
1036.631, 58.84570
1037.113, 54.60779
1037.595, 44.55774
1038.077, 37.24817
1038.559, 41.54932
1039.041, 50.21130
1039.524, 58.39929
1040.006, 64.87256
1040.488, 65.49902
1040.970, 60.73022
1041.452, 49.26685
1041.934, 26.09900
1042.416, 2.128540
1042.898, 1.706665
1043.380, 18.27734
1043.863, 34.17578
1044.345, 44.80139
1044.827, 51.73450
1045.309, 55.24329
1045.791, 55.40649
1046.273, 51.52832
1046.755, 43.06567
1047.237, 35.37512
1047.719, 28.36987
1048.202, 25.79504
1048.684, 37.05176
1049.166, 49.92908
1049.648, 49.69983
1050.130, 36.74097
1050.612, 27.55945
1051.094, 25.47461
1051.576, 24.45251
1052.059, 23.41211
1052.541, 21.72717
1053.023, 17.62354
1053.505, 11.61731
1053.987, 4.730835
1054.469, 5.361450
1054.951, 10.82507
1055.433, 3.970947
1055.916, 6.743408
1056.398, 13.54333
1056.880, 16.49353
1057.362, 13.05518
1057.844, 2.340210
1058.326, 5.426147
1058.808, 0.4119870
1059.290, 10.84766
1059.772, 25.07385
1060.255, 40.66467
1060.737, 44.95178
1061.219, 26.33643
1061.701, 15.27832
1062.183, 22.09888
1062.665, 36.95386
1063.147, 38.52905
1063.629, 30.22693
1064.111, 22.93298
1064.594, 18.91870
1065.076, 18.37781
1065.558, 22.25830
1066.040, 29.29431
1066.522, 40.15967
1067.004, 57.21960
1067.486, 57.60681
1067.968, 39.94653
1068.450, 24.88367
1068.933, 33.49036
1069.415, 48.19995
1069.897, 51.49316
1070.379, 44.75391
1070.861, 33.71277
1071.343, 10.22766
1071.825, 0.4279790
1072.307, 13.61731
1072.790, 34.92810
1073.272, 35.43335
1073.754, 23.75256
1074.236, 25.14124
1074.718, 49.62732
1075.200, 68.55176
1075.682, 65.00977
1076.164, 53.80115
1076.646, 43.56812
1077.129, 34.23438
1077.611, 28.87415
1078.093, 27.44226
1078.575, 28.49390
1079.057, 34.10620
1079.539, 39.15454
1080.021, 37.13745
1080.503, 31.09900
1080.985, 29.71460
1081.468, 37.28662
1081.950, 40.88489
1082.432, 38.85852
1082.914, 33.14368
1083.396, 22.21436
1083.878, 10.58936
1084.360, 8.886841
1084.842, 19.18665
1085.325, 27.68896
1085.807, 26.32764
1086.289, 24.90588
1086.771, 29.90088
1087.253, 37.61902
1087.735, 30.33655
1088.217, 10.42432
1088.699, 2.495361
1089.182, 4.652710
1089.664, 15.03040
1090.146, 16.84131
1090.628, 15.05981
1091.110, 17.27832
1091.592, 26.01733
1092.074, 29.72278
1092.556, 27.33264
1093.038, 23.64490
1093.521, 23.77625
1094.003, 24.76807
1094.485, 23.39209
1094.967, 18.90112
1095.449, 12.18506
1095.931, 0.4602050
1096.413, 8.825928
1096.895, 10.40625
1097.377, 6.288940
1097.860, 3.040283
1098.342, 16.13269
1098.824, 29.11621
1099.306, 43.25513
1099.788, 50.07947
1100.270, 35.54395
1100.752, 20.52698
1101.234, 22.22107
1101.717, 41.18542
1102.199, 50.51123
1102.681, 50.31616
1103.163, 43.84143
1103.645, 24.10303
1104.127, 7.296509
1104.609, 12.01184
1105.091, 29.32812
1105.573, 35.35681
1106.056, 21.21863
1106.538, 21.69873
1107.020, 45.12622
1107.502, 69.43176
1107.984, 62.41370
1108.466, 41.22668
1108.948, 34.89807
1109.430, 47.80273
1109.912, 51.27344
1110.395, 27.96851
1110.877, 9.928955
1111.359, 10.14417
1111.841, 22.46790
1112.323, 31.16772
1112.805, 35.57959
1113.287, 33.31299
1113.769, 17.49854
1114.252, 4.737305
1114.734, 2.752197
1115.216, 7.239502
1115.698, 15.61829
1116.180, 28.25769
1116.662, 34.97302
1117.144, 35.44165
1117.626, 34.33960
1118.109, 37.36902
1118.591, 38.15356
1119.073, 27.91663
1119.555, 10.82983
1120.037, 3.247314
1120.519, 7.578125
1121.001, 12.00745
1121.483, 14.35583
1121.965, 16.65967
1122.448, 21.86169
1122.930, 28.43994
1123.412, 35.40149
1123.894, 43.46741
1124.376, 44.06311
1124.858, 33.91516
1125.340, 20.91650
1125.822, 5.863037
1126.304, 7.852051
1126.787, 8.988159
1127.269, 0.5695800
1127.751, 8.586670
1128.233, 14.80933
1128.715, 21.69922
1129.197, 33.80811
1129.679, 43.82288
1130.161, 44.56458
1130.644, 36.46375
1131.126, 26.41125
1131.608, 14.98499
1132.090, 8.291382
1132.572, 13.53271
1133.054, 21.64429
1133.536, 24.87610
1134.018, 27.13928
1134.500, 42.58765
1134.983, 74.51331
1135.465, 88.52209
1135.947, 76.47205
1136.429, 56.13733
1136.911, 39.77881
1137.393, 28.90869
1137.875, 27.28870
1138.357, 37.32471
1138.839, 41.69763
1139.322, 38.14233
1139.804, 34.91919
1140.286, 34.53809
1140.768, 37.47937
1141.250, 49.76880
1141.732, 64.78931
1142.214, 69.78491
1142.696, 56.16309
1143.179, 38.65466
1143.661, 10.78931
1144.143, 6.526855
1144.625, 13.82251
1145.107, 57.00891
1145.589, 74.42346
1146.071, 68.09497
1146.553, 56.31006
1147.036, 40.83533
1147.518, 30.19165
1148.000, 27.57324
1148.482, 29.80981
1148.964, 33.54163
1149.446, 37.97168
1149.928, 37.77466
1150.410, 32.03906
1150.892, 23.51538
1151.375, 6.604004
1151.857, 5.379272
1152.339, 1.142334
1152.821, 16.35120
1153.303, 27.63965
1153.785, 33.32483
1154.267, 38.09021
1154.749, 45.65906
1155.231, 49.93127
1155.714, 39.61084
1156.196, 25.74084
1156.678, 23.22876
1157.160, 35.56702
1157.642, 39.92334
1158.124, 35.17786
1158.606, 30.69104
1159.088, 35.67859
1159.571, 41.52527
1160.053, 37.76294
1160.535, 27.12683
1161.017, 15.67798
1161.499, 1.262939
1161.981, 4.778320
1162.463, 9.842041
1162.945, 27.24768
1163.427, 26.86145
1163.910, 20.58716
1164.392, 31.49207
1164.874, 58.40100
1165.356, 71.79211
1165.838, 56.03516
1166.320, 39.76245
1166.802, 27.87268
1167.284, 20.25293
1167.766, 18.74939
1168.249, 20.75500
1168.731, 20.21204
1169.213, 15.57214
1169.695, 10.90540
1170.177, 4.979370
1170.659, 2.580444
1171.141, 7.289551
1171.623, 16.37085
1172.106, 19.18115
1172.588, 17.43530
1173.070, 17.86572
1173.552, 23.66174
1174.034, 31.05298
1174.516, 44.41040
1174.998, 53.38647
1175.480, 50.17480
1175.963, 35.39587
1176.445, 20.30408
1176.927, 5.648071
1177.409, 2.650024
1177.891, 5.216309
1178.373, 13.88452
1178.855, 11.41687
1179.337, 7.117065
1179.819, 18.01025
1180.302, 44.63452
1180.784, 60.08984
1181.266, 61.67908
1181.748, 57.11218
1182.230, 50.80884
1182.712, 41.97729
1183.194, 25.83484
1183.676, 6.525513
1184.158, 2.060669
1184.641, 14.44690
1185.123, 20.58594
1185.605, 11.92883
1186.087, 4.964844
1186.569, 19.04602
1187.051, 40.52869
1187.533, 59.17993
1188.015, 74.59619
1188.498, 65.70300
1188.980, 27.96973
1189.462, 1.439941
1189.944, 8.023560
1190.426, 25.69727
1190.908, 30.36023
1191.390, 28.64954
1191.872, 31.29004
1192.354, 45.04980
1192.837, 44.89355
1193.319, 28.04077
1193.801, 11.22534
1194.283, 7.976685
1194.765, 9.984497
1195.247, 3.511230
1195.729, 6.549805
1196.211, 6.473389
1196.693, 10.97742
1197.176, 27.32336
1197.658, 42.28455
1198.140, 52.90784
1198.622, 56.98254
1199.104, 54.92981
1199.586, 44.03040
1200.068, 26.67505
1200.550, 15.88110
1201.033, 15.30603
1201.515, 19.07812
1201.997, 28.21509
1202.479, 35.84546
1202.961, 24.07812
1203.443, 5.626953
1203.925, 3.041016
1204.407, 20.26501
1204.890, 36.76526
1205.372, 52.99377
1205.854, 60.16846
1206.336, 52.84607
1206.818, 38.57617
1207.300, 31.55127
1207.782, 29.38770
1208.264, 28.48669
1208.746, 29.92358
1209.229, 24.32727
1209.711, 2.708984
1210.193, 11.07373
1210.675, 0.4332280
1211.157, 23.21899
1211.639, 32.92090
1212.121, 31.96741
1212.603, 29.09766
1213.085, 26.74377
1213.568, 23.40698
1214.050, 18.17639
1214.532, 13.31384
1215.014, 9.384521
1215.496, 7.433350
1215.978, 13.13721
1216.460, 24.10156
1216.942, 31.77478
1217.425, 26.82812
1217.907, 26.80872
1218.389, 36.82739
1218.871, 48.44446
1219.353, 51.79089
1219.835, 48.64014
1220.317, 44.37878
1220.799, 39.08948
1221.281, 32.60046
1221.764, 21.46265
1222.246, 13.91016
1222.728, 12.39453
1223.210, 14.36584
1223.692, 17.46484
1224.174, 20.41467
1224.656, 19.30115
1225.138, 13.45947
1225.620, 6.974731
1226.103, 2.060303
1226.585, 6.954834
1227.067, 5.475952
1227.549, 1.052368
1228.031, 13.68945
1228.513, 28.54041
1228.995, 33.91431
1229.477, 25.25830
1229.960, 17.05981
1230.442, 14.99719
1230.924, 11.85742
1231.406, 0.9754640
1231.888, 10.51147
1232.370, 6.241211
1232.852, 38.96667
1233.334, 52.27930
1233.816, 20.25098
1234.299, 2.894287
1234.781, 20.08728
1235.263, 41.01990
1235.745, 46.16748
1236.227, 40.01709
1236.709, 37.16516
1237.191, 36.00488
1237.673, 31.53528
1238.156, 16.13721
1238.638, 5.251343
1239.120, 0.7448730
1239.602, 0.1749270
1240.084, 14.92102
1240.566, 36.62952
1241.048, 47.18408
1241.530, 47.37915
1242.012, 41.60852
1242.495, 23.24023
1242.977, 12.16162
1243.459, 12.99585
1243.941, 18.51526
1244.423, 20.59717
1244.905, 20.37146
1245.387, 18.56323
1245.869, 16.05273
1246.351, 18.58264
1246.834, 36.90540
1247.316, 45.83240
1247.798, 38.14551
1248.280, 26.26099
1248.762, 28.12024
1249.244, 38.18958
1249.726, 40.20850
1250.208, 32.83069
1250.691, 32.97717
1251.173, 52.68787
1251.655, 59.53394
1252.137, 40.73291
1252.619, 15.65295
1253.101, 14.96130
1253.583, 28.51013
1254.065, 44.10632
1254.547, 61.66345
1255.030, 57.19482
1255.512, 18.78076
1255.994, 11.16968
1256.476, 13.46497
1256.958, 2.398682
1257.440, 5.637451
1257.922, 11.65796
1258.404, 17.60620
1258.886, 24.40063
1259.369, 26.83850
1259.851, 23.37720
1260.333, 21.52698
1260.815, 24.49866
1261.297, 31.16101
1261.779, 46.74854
1262.261, 62.20044
1262.743, 61.14294
1263.226, 34.16064
1263.708, 24.86914
1264.190, 35.57300
1264.672, 44.35742
1265.154, 30.34875
1265.636, 12.55530
1266.118, 12.27063
1266.600, 19.75317
1267.083, 23.15344
1267.565, 18.77576
1268.047, 15.77539
1268.529, 14.12659
1269.011, 15.92603
1269.493, 24.81677
1269.975, 35.42920
1270.457, 46.13977
1270.939, 54.59192
1271.422, 57.15613
1271.904, 53.83704
1272.386, 39.66052
1272.868, 14.49805
1273.350, 1.370605
1273.832, 14.13452
1274.314, 35.38220
1274.796, 49.95654
1275.278, 58.08337
1275.761, 59.06946
1276.243, 53.15149
1276.725, 45.86121
1277.207, 37.66382
1277.689, 30.86877
1278.171, 25.84741
1278.653, 22.11755
1279.135, 23.23840
1279.618, 28.71790
1280.100, 29.12769
1280.582, 25.30188
1281.064, 21.43958
1281.546, 18.02112
1282.028, 16.16504
1282.510, 18.87134
1282.992, 19.77661
1283.474, 14.54761
1283.957, 9.322021
1284.439, 17.62781
1284.921, 34.53015
1285.403, 46.89294
1285.885, 52.82214
1286.367, 55.09790
1286.849, 53.78101
1287.331, 49.44080
1287.813, 42.99377
1288.296, 34.61523
1288.778, 21.37354
1289.260, 8.545288
1289.742, 7.649902
1290.224, 21.94287
1290.706, 31.57129
1291.188, 33.03491
1291.670, 33.88586
1292.153, 36.18665
1292.635, 39.78491
1293.117, 49.08093
1293.599, 57.48071
1294.081, 53.42041
1294.563, 32.64270
1295.045, 24.84595
1295.527, 31.75806
1296.010, 38.94250
1296.492, 40.83203
1296.974, 39.02832
1297.456, 34.09766
1297.938, 27.20544
1298.420, 15.56982
1298.902, 0.9049070
1299.384, 12.30408
1299.866, 53.46680
1300.349, 47.67285
1300.831, 0.0000000E+00
##END=



