##NAMES=Chalcopyrite
##RRUFFID=R050559
##IDEAL CHEMISTRY=Cu^1+^Fe^3+^S^2-^_2_
##LOCALITY=Recuerdo Vein, Haunzala mine, Huallanca District, Dos de Mayo Province, Huanuco Department, Peru
##OWNER=RRUFF
##SOURCE=Dave Bunk Minerals
##DESCRIPTION=Brass-yellow striated crystals
##STATUS=The identification of this mineral has been confirmed by X-ray diffraction and chemical analysis
##URL=rruff.info/R050559
##MEASURED CHEMISTRY=Cu^1+^_1.00_Fe^3+^_1.00_S_2.00_
134.0096, 0.0000000E+00
134.4917, 1.874916
134.9738, 3.568512
135.4559, 4.310745
135.9380, 4.168633
136.4201, 3.834702
136.9023, 2.459709
137.3844, 1.552826
137.8665, 2.151100
138.3486, 4.695351
138.8307, 6.651588
139.3128, 7.525414
139.7950, 7.653580
140.2771, 7.191086
140.7592, 5.829910
141.2413, 4.092682
141.7234, 2.395218
142.2055, 0.4764330
142.6877, 0.7533720
143.1698, 0.3384780
143.6519, 0.9503630
144.1340, 2.217430
144.6161, 3.430550
145.0982, 4.356461
145.5803, 4.254860
146.0625, 2.091736
146.5446, 0.4039310
147.0267, 0.4191890
147.5088, 1.374825
147.9909, 2.180557
148.4730, 1.933556
148.9552, 0.7197420
149.4373, 0.3105090
149.9194, 1.856567
150.4015, 3.242722
150.8836, 4.032082
151.3657, 4.146606
151.8479, 3.761528
152.3300, 2.894852
152.8121, 1.301933
153.2942, 0.7747040
153.7763, 2.064919
154.2584, 3.500328
154.7406, 4.374741
155.2227, 4.580315
155.7048, 4.271736
156.1869, 3.484100
156.6690, 1.887070
157.1511, 1.207748
157.6333, 2.442986
158.1154, 4.045296
158.5975, 4.443367
159.0796, 3.263084
159.5617, 1.591095
160.0438, 0.8792800
160.5260, 1.158073
161.0081, 1.511848
161.4902, 1.401947
161.9723, 1.034706
162.4544, 1.412636
162.9365, 2.838455
163.4187, 4.477356
163.9008, 5.327919
164.3829, 5.504730
164.8650, 5.488815
165.3471, 5.514877
165.8292, 5.519028
166.3113, 5.283539
166.7935, 4.115387
167.2756, 3.318222
167.7577, 3.881195
168.2398, 5.311348
168.7219, 7.041481
169.2040, 8.457008
169.6862, 9.718025
170.1683, 10.15807
170.6504, 9.295227
171.1325, 8.093193
171.6146, 6.799286
172.0967, 5.553856
172.5789, 4.674725
173.0610, 4.836472
173.5431, 6.858196
174.0252, 8.080318
174.5073, 8.029766
174.9894, 7.440834
175.4716, 6.771374
175.9537, 6.191147
176.4358, 5.689232
176.9179, 5.206612
177.4000, 4.395260
177.8821, 4.160255
178.3643, 4.906925
178.8464, 6.043839
179.3285, 7.138317
179.8106, 8.015167
180.2927, 8.506763
180.7748, 8.107693
181.2570, 5.634354
181.7391, 3.740898
182.2212, 2.910404
182.7033, 2.799580
183.1854, 2.991638
183.6675, 3.354794
184.1497, 3.767662
184.6318, 3.811989
185.1139, 3.362839
185.5960, 2.846928
186.0781, 2.415390
186.5602, 2.032974
187.0423, 1.557301
187.5245, 0.8228230
188.0066, 6.2305000E-02
188.4887, 0.1977690
188.9708, 0.2874570
189.4529, 0.8290940
189.9350, 0.8261180
190.4172, 0.3529470
190.8993, -0.8058941
191.3814, 0.5419886
191.8635, 1.303962
192.3456, 1.511509
192.8277, -0.4959347
193.3099, 0.3568255
193.7920, 6.3344419E-02
194.2741, -0.2771389
194.7562, 0.9781804
195.2383, -0.7070978
195.7204, 0.5229146
196.2026, 0.5891984
196.6847, 2.016670
197.1668, 1.203159
197.6489, 1.670956
198.1310, 1.720440
198.6131, 1.294098
199.0953, 1.072121
199.5774, 0.9939160
200.0595, 1.114410
200.5416, 1.541485
201.0237, 1.930153
201.5058, 1.612644
201.9880, 5.9647001E-02
202.4701, 1.179546
202.9522, 1.921101
203.4343, 2.227226
203.9164, 1.945156
204.3985, 0.9758150
204.8807, 0.2257080
205.3628, 0.2480280
205.8449, 2.049610
206.3270, 4.123165
206.8091, 6.105495
207.2912, 7.582752
207.7733, 7.971748
208.2555, 6.943050
208.7376, 4.905472
209.2197, 3.375988
209.7018, 2.377602
210.1839, 1.920444
210.6660, 2.284370
211.1482, 3.137432
211.6303, 4.191734
212.1124, 5.343712
212.5945, 6.378586
213.0766, 6.357296
213.5587, 3.747387
214.0409, 1.960716
214.5230, 2.055180
215.0051, 3.393600
215.4872, 5.005627
215.9693, 6.529312
216.4514, 7.760994
216.9336, 7.803078
217.4157, 5.806091
217.8978, 4.007053
218.3799, 3.032646
218.8620, 2.801361
219.3441, 3.238930
219.8263, 4.562042
220.3084, 6.267967
220.7905, 6.932789
221.2726, 5.875706
221.7547, 5.059170
222.2368, 5.944389
222.7190, 8.052311
223.2011, 9.351845
223.6832, 8.668869
224.1653, 6.896854
224.6474, 5.814690
225.1295, 5.485367
225.6117, 5.648071
226.0938, 6.512920
226.5759, 7.944492
227.0580, 8.757660
227.5401, 8.081863
228.0222, 6.876255
228.5043, 6.376167
228.9865, 6.748859
229.4686, 7.400806
229.9507, 7.931950
230.4328, 8.340096
230.9149, 8.573620
231.3970, 8.314430
231.8792, 8.096771
232.3613, 8.451145
232.8434, 9.471584
233.3255, 10.62363
233.8076, 11.65296
234.2897, 12.63460
234.7719, 12.59616
235.2540, 9.857479
235.7361, 6.981506
236.2182, 5.585335
236.7003, 5.885201
237.1824, 7.030384
237.6646, 8.283260
238.1467, 9.719151
238.6288, 10.86844
239.1109, 11.69955
239.5930, 12.18387
240.0751, 11.91244
240.5573, 10.99889
241.0394, 10.37870
241.5215, 11.52195
242.0036, 15.21065
242.4857, 17.46342
242.9678, 17.13802
243.4500, 16.08904
243.9321, 14.75813
244.4142, 13.42638
244.8963, 12.59252
245.3784, 13.01857
245.8605, 15.21463
246.3427, 16.72671
246.8248, 17.63336
247.3069, 17.92230
247.7890, 17.20469
248.2711, 15.67473
248.7532, 14.11554
249.2354, 13.40619
249.7175, 13.80289
250.1996, 13.89909
250.6817, 13.20698
251.1638, 12.68463
251.6459, 12.80581
252.1281, 13.53341
252.6102, 14.61776
253.0923, 15.88351
253.5744, 17.47091
254.0565, 18.12964
254.5386, 17.10231
255.0208, 15.87682
255.5029, 14.77618
255.9850, 13.91893
256.4671, 13.36084
256.9492, 13.14165
257.4313, 13.29250
257.9135, 13.29649
258.3956, 13.40943
258.8777, 13.14462
259.3598, 11.80951
259.8419, 9.926647
260.3240, 8.756721
260.8062, 9.400333
261.2883, 11.84071
261.7704, 13.41779
262.2525, 13.96624
262.7346, 14.02773
263.2167, 13.66414
263.6989, 13.05223
264.1810, 12.32752
264.6631, 11.45798
265.1452, 10.59747
265.6273, 11.14210
266.1094, 14.56695
266.5916, 17.51281
267.0737, 18.35384
267.5558, 17.75832
268.0379, 17.27829
268.5200, 17.67081
269.0021, 18.91317
269.4843, 20.95867
269.9664, 24.16363
270.4485, 27.52857
270.9306, 31.42921
271.4127, 35.25475
271.8948, 37.42484
272.3770, 36.92960
272.8591, 34.97973
273.3412, 34.82734
273.8233, 37.15897
274.3054, 39.37355
274.7875, 40.47870
275.2697, 40.94425
275.7518, 41.69329
276.2339, 43.10541
276.7160, 44.77341
277.1981, 45.97799
277.6802, 46.82801
278.1623, 47.14571
278.6444, 46.27402
279.1266, 44.96500
279.6087, 44.38129
280.0908, 44.76197
280.5729, 46.13198
281.0550, 49.23130
281.5371, 54.13113
282.0193, 57.91439
282.5014, 59.21202
282.9835, 59.16933
283.4656, 59.51933
283.9477, 60.66699
284.4298, 61.71251
284.9120, 61.33170
285.3941, 59.76309
285.8762, 58.92126
286.3583, 60.31208
286.8404, 62.12532
287.3225, 61.88017
287.8047, 59.18314
288.2868, 56.08524
288.7689, 54.59278
289.2510, 54.09528
289.7331, 52.32531
290.2152, 47.93000
290.6974, 42.70682
291.1795, 38.58521
291.6616, 35.63203
292.1437, 32.67115
292.6258, 28.70142
293.1079, 24.24821
293.5901, 20.51850
294.0722, 17.82648
294.5543, 15.67120
295.0364, 13.84319
295.5185, 12.30787
296.0006, 10.53022
296.4828, 7.945229
296.9649, 5.175350
297.4470, 3.175892
297.9291, 1.931671
298.4112, 1.564980
298.8933, 2.888828
299.3755, 5.518219
299.8576, 6.974072
300.3397, 5.923512
300.8218, 3.838860
301.3039, 2.836224
301.7860, 3.056679
302.2682, 3.311337
302.7503, 2.815750
303.2324, 1.783737
303.7145, 1.205154
304.1966, 1.435680
304.6787, 1.924992
305.1609, 2.076111
305.6430, 1.930122
306.1251, 1.771469
306.6072, 1.630932
307.0893, 1.575230
307.5714, 1.848766
308.0536, 2.632622
308.5357, 3.311203
309.0178, 3.298889
309.4999, 2.766384
309.9820, 2.077366
310.4641, 0.7823260
310.9463, 0.3671760
311.4284, 6.2201999E-02
311.9105, 2.419937
312.3926, 4.645592
312.8747, 5.242802
313.3568, 4.799854
313.8390, 4.256672
314.3211, 3.514050
314.8032, 3.023212
315.2853, 3.509632
315.7674, 4.996895
316.2495, 6.153656
316.7317, 6.195473
317.2138, 5.630928
317.6959, 5.309097
318.1780, 5.424793
318.6601, 5.415283
319.1422, 4.465626
319.6243, 2.804283
320.1064, 2.184235
320.5886, 3.738228
321.0707, 5.910595
321.5528, 6.781288
322.0349, 6.311550
322.5170, 5.414234
322.9991, 4.261665
323.4813, 3.036591
323.9634, 2.255802
324.4455, 2.055553
324.9276, 2.242901
325.4097, 2.898323
325.8918, 3.894665
326.3740, 4.459118
326.8561, 4.005909
327.3382, 3.063671
327.8203, 2.516571
328.3024, 2.506157
328.7845, 2.530319
329.2667, 1.780209
329.7488, 0.7315520
330.2309, 0.7050130
330.7130, 3.105465
331.1951, 5.782288
331.6772, 6.263924
332.1594, 4.592884
332.6415, 3.213131
333.1236, 3.714817
333.6057, 5.203487
334.0878, 5.655281
334.5699, 4.492599
335.0521, 3.240578
335.5342, 2.851406
336.0163, 3.199497
336.4984, 3.860603
336.9805, 5.021484
337.4626, 5.935421
337.9448, 5.206589
338.4269, 2.581284
338.9090, 0.3757930
339.3911, 8.5133001E-02
339.8732, 0.4218100
340.3553, 0.3118060
340.8375, 0.8684160
341.3196, 2.114239
341.8017, 2.223412
342.2838, 1.305626
342.7659, 0.2500270
343.2480, 0.9579730
343.7302, 2.156590
344.2123, 3.181767
344.6944, 4.034065
345.1765, 4.527245
345.6586, 4.408260
346.1407, 3.749580
346.6229, 3.227829
347.1050, 2.919720
347.5871, 2.673203
348.0692, 2.339504
348.5513, 1.976315
349.0334, 1.827030
349.5156, 2.076225
349.9977, 2.591366
350.4798, 2.893871
350.9619, 2.768837
351.4440, 2.666492
351.9261, 2.950439
352.4083, 3.382072
352.8904, 3.268097
353.3725, 2.395134
353.8546, 1.497635
354.3367, 1.835003
354.8188, 3.954483
355.3010, 4.915714
355.7831, 3.427040
356.2652, 1.312656
356.7473, 0.1774060
357.2294, 0.2006340
357.7115, 0.7078860
358.1937, 1.249107
358.6758, 1.819851
359.1579, 1.652382
359.6400, 0.1971170
360.1221, 1.796036
360.6042, 2.157936
361.0863, 1.491959
361.5685, 0.3666190
362.0506, 0.9815250
362.5327, 2.405643
363.0148, 3.276237
363.4969, 3.318111
363.9790, 3.195641
364.4612, 2.798840
364.9433, 2.361862
365.4254, 2.301807
365.9075, 2.735485
366.3896, 3.191742
366.8717, 2.858154
367.3539, 1.064247
367.8360, 1.9107999E-02
368.3181, 0.1703610
368.8002, 0.2379070
369.2823, 1.531258
369.7644, 3.427338
370.2466, 4.882870
370.7287, 4.791641
371.2108, 3.036549
371.6929, 2.608692
372.1750, 5.554501
372.6571, 7.638321
373.1393, 7.088116
373.6214, 4.885906
374.1035, 2.725605
374.5856, 1.519302
375.0677, 1.121166
375.5498, 1.100925
376.0320, 1.954948
376.5141, 2.447437
376.9962, 2.258389
377.4783, 1.820435
377.9604, 1.485786
378.4425, 1.349243
378.9247, 1.311176
379.4068, 1.224327
379.8889, 1.047876
380.3710, 1.000114
380.8531, 1.139917
381.3352, 1.361315
381.8174, 1.501455
382.2995, 1.668415
382.7816, 2.239061
383.2637, 3.764942
383.7458, 5.944809
384.2279, 6.567362
384.7101, 4.616554
385.1922, 2.579161
385.6743, 0.9491710
386.1564, 0.2290290
386.6385, 0.9183080
387.1206, 1.084923
387.6028, 0.8022230
388.0849, 8.1185997E-02
388.5670, 1.186285
389.0491, 2.376602
389.5312, 3.579323
390.0133, 4.478323
390.4955, 4.762882
390.9776, 4.440260
391.4597, 3.915625
391.9418, 3.466038
392.4239, 3.072939
392.9060, 2.586803
393.3882, 1.810413
393.8703, 1.287197
394.3524, 1.592972
394.8345, 2.386438
395.3166, 2.936630
395.7987, 2.922632
396.2809, 2.607769
396.7630, 2.246037
397.2451, 1.866480
397.7272, 1.581678
398.2093, 1.500128
398.6914, 1.463106
399.1736, 1.220457
399.6557, 0.7929950
400.1378, 0.4266150
400.6199, 2.4212001E-02
401.1020, 0.4111630
401.5841, 0.1495210
402.0662, 2.192114
402.5483, 4.224373
403.0305, 4.082180
403.5126, 1.928984
403.9947, 0.4202880
404.4768, 0.4015100
404.9589, 0.9762690
405.4410, 1.528534
405.9232, 1.963488
406.4053, 1.956436
406.8874, 1.117222
407.3695, 0.2922740
407.8516, 0.9370650
408.3337, 0.1747530
408.8159, 0.4943430
409.2980, 3.1741999E-02
409.7801, 0.6877770
410.2622, 0.1530400
410.7443, 3.237190
411.2264, 6.776505
411.7086, 7.828049
412.1907, 4.944813
412.6728, 3.018576
413.1549, 2.300524
413.6370, 2.299227
414.1191, 3.077967
414.6013, 4.358324
415.0834, 5.372791
415.5655, 5.482738
416.0476, 4.741482
416.5297, 4.066378
417.0118, 3.279493
417.4940, 2.746950
417.9761, 2.538244
418.4582, 2.593204
418.9403, 2.876999
419.4224, 3.370718
419.9045, 3.892988
420.3867, 4.186352
420.8688, 4.232647
421.3509, 4.074574
421.8330, 3.215794
422.3151, 2.586409
422.7972, 2.903675
423.2794, 3.979563
423.7615, 5.000248
424.2436, 5.281384
424.7257, 4.947008
425.2078, 4.892759
425.6899, 5.476307
426.1721, 5.673134
426.6542, 5.055061
427.1363, 3.952946
427.6184, 2.524727
428.1005, 0.6579970
428.5826, 0.6906990
429.0648, 0.2508260
429.5469, 3.536442
430.0290, 5.429146
430.5111, 4.356607
430.9932, 2.433687
431.4753, 1.481327
431.9575, 1.424894
432.4396, 1.630947
432.9217, 1.921883
433.4038, 2.246029
433.8859, 2.514664
434.3680, 2.715277
434.8502, 2.918501
435.3323, 3.358654
435.8144, 3.765503
436.2965, 3.406754
436.7786, 1.502777
437.2607, 2.4311000E-02
437.7429, 0.1271320
438.2250, 1.412342
438.7071, 2.713121
439.1892, 3.753006
439.6713, 4.355782
440.1534, 4.080051
440.6356, 2.567846
441.1177, 1.873898
441.5998, 2.812033
442.0819, 4.045122
442.5640, 4.645735
443.0461, 4.634670
443.5282, 4.492334
444.0103, 4.531048
444.4925, 4.648951
444.9746, 4.332527
445.4567, 3.225798
445.9388, 2.209181
446.4209, 1.082935
446.9030, 0.1934590
447.3852, 2.4080001E-02
447.8673, 0.6452050
448.3494, 1.577158
448.8315, 2.445467
449.3136, 3.358446
449.7957, 3.681152
450.2779, 2.612913
450.7600, 1.735273
451.2421, 1.934578
451.7242, 2.681046
452.2063, 2.803558
452.6884, 1.509722
453.1706, 0.3564300
453.6527, 0.6388360
454.1348, 1.200962
454.6169, 2.927597
455.0990, 4.401876
455.5811, 5.261486
456.0633, 4.969063
456.5454, 3.557783
457.0275, 2.023081
457.5096, 0.6587750
457.9917, 0.2910040
458.4738, 0.4243680
458.9560, 3.641884
459.4381, 6.406935
459.9202, 6.016943
460.4023, 3.810204
460.8844, 2.206553
461.3665, 1.691767
461.8487, 1.762636
462.3308, 2.245890
462.8129, 3.053221
463.2950, 3.966970
463.7771, 5.049889
464.2592, 5.843985
464.7414, 5.475182
465.2235, 3.704725
465.7056, 2.449041
466.1877, 2.086086
466.6698, 2.150431
467.1519, 2.190790
467.6341, 2.188015
468.1162, 2.561033
468.5983, 3.586950
469.0804, 4.933493
469.5625, 5.128147
470.0446, 2.638004
470.5268, 0.9338150
471.0089, 0.7804320
471.4910, 1.235102
471.9731, 1.479113
472.4552, 1.332781
472.9373, 1.005335
473.4195, 0.6447090
473.9016, 0.2078340
474.3837, 0.3347760
474.8658, 1.953714
475.3479, 3.107494
475.8300, 2.611475
476.3122, 1.510735
476.7943, 1.470943
477.2764, 3.300760
477.7585, 5.783554
478.2406, 6.680532
478.7227, 5.919363
479.2049, 5.067112
479.6870, 4.090324
480.1691, 3.522863
480.6512, 3.618021
481.1333, 4.326160
481.6154, 5.094040
482.0976, 5.988739
482.5797, 6.635075
483.0618, 6.167982
483.5439, 4.549496
484.0260, 3.246058
484.5081, 3.088137
484.9902, 3.622152
485.4724, 3.826214
485.9545, 3.584263
486.4366, 3.312433
486.9187, 3.207140
487.4008, 3.252392
487.8829, 3.592552
488.3651, 4.219851
488.8472, 4.717627
489.3293, 4.693403
489.8114, 4.153189
490.2935, 3.666365
490.7756, 2.736977
491.2578, 2.421314
491.7399, 3.701223
492.2220, 5.515368
492.7041, 6.334814
493.1862, 5.683575
493.6683, 4.472765
494.1505, 4.025787
494.6326, 4.523920
495.1147, 5.048176
495.5968, 6.189722
496.0789, 6.801245
496.5610, 5.951441
497.0432, 4.311275
497.5253, 3.193773
498.0074, 3.344501
498.4895, 4.156910
498.9716, 4.531164
499.4537, 4.409208
499.9359, 4.195278
500.4180, 3.654253
500.9001, 3.372461
501.3822, 4.094044
501.8643, 5.690521
502.3464, 6.869867
502.8286, 7.167223
503.3107, 6.624992
503.7928, 4.835312
504.2749, 1.801783
504.7570, 0.5194380
505.2391, 0.9340630
505.7213, 7.5245000E-02
506.2034, 0.4387860
506.6855, 0.2781960
507.1676, 0.5696090
507.6497, 2.312986
508.1318, 4.288242
508.6140, 4.869232
509.0961, 3.968624
509.5782, 3.015749
510.0603, 3.374481
510.5424, 4.926334
511.0245, 5.151842
511.5067, 2.368357
511.9888, 0.3733690
512.4709, 0.1274050
512.9530, 0.3546910
513.4351, 1.582993
513.9172, 3.352758
514.3994, 4.901386
514.8815, 5.149858
515.3636, 3.966663
515.8457, 3.199017
516.3278, 3.169830
516.8099, 3.210766
517.2921, 3.104168
517.7742, 2.867653
518.2563, 2.526838
518.7384, 2.076496
519.2205, 1.582581
519.7026, 0.9455970
520.1848, 0.2427580
520.6669, 0.2449040
521.1490, 1.505095
521.6311, 2.797346
522.1132, 2.177156
522.5953, 8.1653997E-02
523.0775, 1.012163
523.5596, 1.720724
524.0417, 4.539473
524.5238, 4.514069
525.0059, 2.484880
525.4880, 0.9690910
525.9702, 1.019691
526.4523, 1.867025
526.9344, 2.209755
527.4165, 1.805490
527.8986, 1.499983
528.3807, 0.7547510
528.8629, 0.5833260
529.3450, 2.106005
529.8271, 4.639606
530.3092, 6.624046
530.7913, 7.169985
531.2734, 6.700451
531.7556, 6.195856
532.2377, 5.642122
532.7198, 5.110260
533.2019, 5.001938
533.6840, 4.579699
534.1661, 2.781616
534.6483, 0.1001340
535.1304, 1.408102
535.6125, 0.3919120
536.0946, 3.474884
536.5767, 3.642122
537.0588, 0.7024040
537.5410, 1.186293
538.0231, 0.1155760
538.5052, 2.820553
538.9873, 4.167429
539.4694, 4.095713
539.9515, 3.599195
540.4337, 2.254145
540.9158, 1.095188
541.3979, 1.465502
541.8800, 3.156994
542.3621, 4.785238
542.8442, 5.548365
543.3264, 5.530289
543.8085, 4.992910
544.2906, 2.778971
544.7726, 1.697697
545.2548, 2.806999
545.7369, 4.260515
546.2190, 4.686512
546.7011, 4.104242
547.1832, 3.301165
547.6653, 2.829018
548.1475, 2.640341
548.6296, 2.584732
549.1117, 2.730991
549.5938, 2.828627
550.0759, 2.777884
550.5580, 2.667515
551.0402, 2.427639
551.5223, 2.091436
552.0044, 2.112457
552.4865, 3.243340
552.9686, 4.723333
553.4507, 4.983603
553.9329, 3.955164
554.4150, 3.150801
554.8971, 3.512690
555.3792, 4.498911
555.8613, 4.685631
556.3434, 3.815113
556.8256, 2.972225
557.3077, 2.141218
557.7898, 1.575518
558.2719, 1.599977
558.7540, 2.156519
559.2361, 2.991129
559.7183, 4.018974
560.2004, 5.006254
560.6825, 4.893391
561.1646, 2.678600
561.6467, 1.070160
562.1288, 8.6447001E-02
562.6110, 0.1415270
563.0931, 0.8808190
563.5752, 2.976789
564.0573, 5.053028
564.5394, 6.599369
565.0215, 7.485352
565.5037, 7.117472
565.9858, 5.267891
566.4679, 3.583105
566.9500, 2.501787
567.4321, 2.065319
567.9142, 2.432007
568.3964, 3.610952
568.8785, 4.558849
569.3606, 4.875113
569.8427, 4.856117
570.3248, 4.624796
570.8069, 4.300751
571.2891, 4.327110
571.7712, 5.004265
572.2533, 5.984776
572.7354, 6.412165
573.2175, 6.283070
573.6996, 5.533472
574.1818, 2.987066
574.6639, 0.8937720
575.1460, 1.132605
575.6281, 3.005177
576.1102, 4.474245
576.5923, 4.313776
577.0745, 3.159149
577.5566, 2.475212
578.0387, 2.445780
578.5208, 1.782057
579.0029, 1.068686
579.4850, 3.187231
579.9672, 1.610619
580.4493, 2.786758
580.9314, 5.946602
581.4135, 5.813837
581.8956, 4.502365
582.3777, 4.007231
582.8599, 4.114889
583.3420, 3.956497
583.8241, 3.207048
584.3062, 2.252346
584.7883, 1.532265
585.2704, 0.9898530
585.7526, 1.086966
586.2347, 2.424805
586.7168, 3.712482
587.1989, 4.480036
587.6810, 4.804672
588.1631, 4.711994
588.6453, 4.247288
589.1274, 3.882807
589.6095, 4.555170
590.0916, 6.487186
590.5737, 7.325663
591.0558, 6.502262
591.5380, 5.344902
592.0201, 4.372965
592.5022, 3.519825
592.9843, 2.494839
593.4664, 1.250683
593.9485, 0.6522690
594.4307, 2.333231
594.9128, 5.068541
595.3949, 5.568405
595.8770, 3.416754
596.3591, 1.029539
596.8412, 0.1601140
597.3234, 0.6879880
597.8055, 1.796177
598.2876, 4.536139
598.7697, 6.376322
599.2518, 6.659573
599.7339, 6.037441
600.2161, 4.758198
600.6982, 3.102634
601.1803, 1.785772
601.6624, 1.445654
602.1445, 1.844625
602.6266, 1.801138
603.1088, 0.9290890
603.5909, 0.6318680
604.0730, 1.667536
604.5551, 3.138889
605.0372, 4.702879
605.5193, 6.231272
606.0015, 7.033897
606.4836, 6.282942
606.9657, 4.954433
607.4478, 4.319933
607.9299, 4.272963
608.4120, 3.910362
608.8942, 2.745502
609.3763, 1.599550
609.8584, 1.888479
610.3405, 4.314028
610.8226, 5.547516
611.3047, 4.663157
611.7869, 3.608456
612.2690, 3.297686
612.7511, 3.427187
613.2332, 3.352428
613.7153, 2.837854
614.1974, 2.284451
614.6796, 2.362169
615.1617, 3.123331
615.6438, 3.413216
616.1259, 3.018444
616.6080, 2.473501
617.0901, 1.872700
617.5723, 1.350327
618.0544, 1.147879
618.5365, 1.370131
619.0186, 1.664955
619.5007, 1.732412
619.9828, 1.769434
620.4650, 2.224411
620.9471, 3.133932
621.4292, 3.901522
621.9113, 4.123341
622.3934, 3.915331
622.8755, 3.726089
623.3577, 3.990311
623.8398, 3.612982
624.3219, 1.811630
624.8040, 3.7505999E-02
625.2861, 0.7128180
625.7682, 0.5674320
626.2504, 0.1738640
626.7325, 0.1306570
627.2145, 0.3862670
627.6967, 0.7055320
628.1788, 1.099140
628.6609, 1.249737
629.1430, 0.8532540
629.6251, 0.5819610
630.1072, 1.215574
630.5894, 2.519327
631.0715, 3.684654
631.5536, 4.964231
632.0357, 5.678034
632.5178, 4.918516
632.9999, 3.569302
633.4821, 3.161701
633.9642, 3.957508
634.4463, 4.955492
634.9284, 5.227514
635.4105, 4.805510
635.8926, 4.125872
636.3748, 2.990585
636.8569, 1.824314
637.3390, 0.2423020
637.8211, 0.8475610
638.3032, 0.6268230
638.7853, 0.6673720
639.2675, 1.931250
639.7496, 2.325096
640.2317, 2.362001
640.7138, 3.195955
641.1959, 4.696655
641.6780, 5.006283
642.1602, 3.114498
642.6423, 0.7391240
643.1244, 0.2520370
643.6065, 2.057074
644.0886, 3.181025
644.5707, 3.292166
645.0529, 3.088343
645.5350, 2.640005
646.0171, 2.141588
646.4992, 1.763115
646.9813, 1.581152
647.4634, 1.720440
647.9456, 2.508871
648.4277, 3.841825
648.9098, 4.428804
649.3919, 4.088453
649.8740, 3.447699
650.3561, 2.289240
650.8383, 1.246344
651.3204, 1.116346
651.8025, 1.901003
652.2846, 3.052223
652.7667, 4.772058
653.2488, 6.451365
653.7310, 7.783037
654.2131, 8.564194
654.6952, 8.008324
655.1773, 5.746031
655.6594, 2.967407
656.1415, 1.597637
656.6237, 2.017166
657.1058, 2.088209
657.5879, 1.131977
658.0700, 0.5793630
658.5521, 1.025482
659.0342, 1.995598
659.5164, 3.075226
659.9985, 4.150185
660.4806, 4.704283
660.9627, 3.985434
661.4448, 2.511536
661.9269, 1.315817
662.4091, 0.4470750
662.8912, 0.4249040
663.3733, 1.863741
663.8554, 3.751856
664.3375, 3.944431
664.8196, 1.477816
665.3018, 0.1079500
665.7839, 0.4379080
666.2660, 1.351425
666.7481, 2.874626
667.2302, 4.390026
667.7123, 4.778669
668.1945, 3.661514
668.6766, 2.163324
669.1587, 1.817425
669.6408, 2.524799
670.1229, 2.641449
670.6050, 1.838659
671.0872, 1.309919
671.5693, 1.871262
672.0514, 2.957611
672.5335, 3.550196
673.0156, 3.515270
673.4977, 3.672117
673.9799, 4.798626
674.4620, 5.674210
674.9441, 4.690697
675.4262, 2.610472
675.9083, 1.685719
676.3904, 2.887377
676.8726, 4.917681
677.3547, 5.458044
677.8368, 4.214218
678.3189, 3.425369
678.8010, 3.219736
679.2831, 3.297335
679.7653, 3.851088
680.2474, 4.448713
680.7295, 4.457808
681.2116, 3.755871
681.6937, 3.129387
682.1758, 3.067846
682.6580, 3.271322
683.1401, 3.347448
683.6222, 3.336040
684.1043, 3.300959
684.5864, 3.254509
685.0685, 3.255878
685.5507, 3.230610
686.0328, 2.968794
686.5149, 3.362526
686.9970, 6.139936
687.4791, 7.655855
687.9612, 5.529503
688.4434, 2.168089
688.9255, 0.7297400
689.4076, 1.915556
689.8897, 3.478882
690.3718, 3.581034
690.8539, 2.900881
691.3361, 2.761028
691.8182, 3.183088
692.3003, 3.732809
692.7824, 4.296804
693.2645, 4.698511
693.7466, 4.586132
694.2288, 3.715851
694.7109, 3.361950
695.1930, 3.940708
695.6751, 4.457882
696.1572, 4.834764
696.6393, 4.972319
697.1215, 4.456877
697.6036, 3.312616
698.0857, 2.441462
698.5678, 3.174171
699.0499, 4.711695
699.5320, 4.217144
700.0142, 1.555210
700.4963, 0.1594510
700.9784, 1.766777
701.4605, 4.366291
701.9426, 5.241400
702.4247, 4.131235
702.9069, 3.237726
703.3890, 2.360470
703.8711, 1.965174
704.3532, 2.469458
704.8353, 3.434124
705.3174, 4.570631
705.7996, 5.670231
706.2817, 6.224323
706.7638, 5.694393
707.2459, 4.320145
707.7280, 2.635014
708.2101, 0.5362910
708.6923, 0.8537750
709.1743, 1.136528
709.6564, 0.7333160
710.1385, 2.8862000E-02
710.6207, 1.130188
711.1028, 2.330198
711.5849, 4.004032
712.0670, 5.317301
712.5491, 5.921049
713.0313, 6.012403
713.5134, 5.724211
713.9955, 5.139038
714.4776, 4.406122
714.9597, 3.600924
715.4418, 2.787949
715.9240, 1.931961
716.4061, 0.9044990
716.8882, 1.163580
717.3703, 3.858973
717.8524, 6.501225
718.3345, 6.805592
718.8167, 5.344330
719.2988, 4.035498
719.7809, 2.967411
720.2630, 2.167582
720.7451, 1.516687
721.2272, 1.226234
721.7094, 1.813751
722.1915, 3.023067
722.6736, 3.848328
723.1557, 3.645353
723.6378, 2.979259
724.1199, 2.963392
724.6021, 3.643463
725.0842, 4.424101
725.5663, 5.342829
726.0484, 6.183338
726.5305, 7.124676
727.0126, 7.789032
727.4948, 7.261425
727.9769, 4.994877
728.4590, 3.083416
728.9411, 2.483997
729.4232, 2.199530
729.9053, 1.325462
730.3875, 7.3454000E-02
730.8696, 0.8696880
731.3517, 1.213995
731.8338, 1.239164
732.3159, 1.463879
732.7980, 1.884903
733.2802, 1.368286
733.7623, 0.4670540
734.2444, 2.176855
734.7265, 3.267138
735.2086, 3.816298
735.6907, 3.947840
736.1729, 3.652081
736.6550, 3.104879
737.1371, 2.092003
737.6192, 1.090591
738.1013, 0.2249640
738.5834, 0.3725300
739.0656, 0.4300730
739.5477, 6.3979998E-02
740.0298, 0.7500020
740.5119, 1.404970
740.9940, 1.904270
741.4761, 1.523573
741.9583, 2.1725001E-02
742.4404, 0.9640810
742.9225, 0.9508340
743.4046, 0.3676620
743.8867, 0.6161420
744.3688, 1.891079
744.8510, 2.798580
745.3331, 2.994305
745.8152, 3.181454
746.2973, 3.748131
746.7794, 4.309622
747.2615, 4.390312
747.7437, 4.055296
748.2258, 3.785700
748.7079, 3.907433
749.1900, 4.099613
749.6721, 3.689863
750.1542, 2.689629
750.6364, 1.849216
751.1185, 1.228624
751.6006, 0.8658850
752.0827, 0.9075970
752.5648, 1.177628
753.0469, 1.112488
753.5291, 0.3291820
754.0112, 0.2415560
754.4933, 1.849234
754.9754, 3.402498
755.4575, 3.678469
755.9396, 3.163620
756.4218, 2.945160
756.9039, 3.347656
757.3860, 3.541872
757.8681, 1.985220
758.3502, 0.4936010
758.8323, 0.3050770
759.3145, 2.694292
759.7966, 4.622900
760.2787, 3.701416
760.7608, 1.925989
761.2429, 2.002636
761.7250, 4.204914
762.2072, 4.981569
762.6893, 2.734234
763.1714, 1.228281
763.6535, 1.889828
764.1356, 3.274626
764.6177, 4.349300
765.0999, 4.862759
765.5820, 4.643826
766.0641, 3.294493
766.5462, 1.656313
767.0283, 1.095438
767.5104, 1.376307
767.9926, 1.416639
768.4747, 0.9956040
768.9568, 0.6983680
769.4389, 0.9336990
769.9210, 1.634548
770.4031, 2.651258
770.8853, 4.864405
771.3674, 5.653233
771.8495, 3.514137
772.3316, 1.634047
772.8137, 1.671995
773.2958, 2.713676
773.7780, 3.318640
774.2601, 3.145832
774.7422, 2.788153
775.2243, 2.610149
775.7064, 2.461527
776.1885, 2.082912
776.6707, 1.553417
777.1528, 1.076427
777.6349, 0.7251760
778.1170, 0.8317450
778.5991, 1.945564
779.0812, 3.978703
779.5634, 5.007307
780.0455, 4.633116
780.5276, 4.132605
781.0097, 3.438763
781.4918, 3.050144
781.9739, 3.678225
782.4561, 5.005323
782.9382, 5.674263
783.4203, 4.998209
783.9024, 4.178957
784.3845, 3.749119
784.8666, 3.507835
785.3488, 3.307364
785.8309, 3.076637
786.3130, 2.591192
786.7951, 1.693806
787.2772, 0.8940070
787.7593, 1.366739
788.2415, 3.051668
788.7236, 3.557009
789.2057, 2.480911
789.6878, 1.479761
790.1699, 1.290394
790.6520, 1.639160
791.1342, 2.240047
791.6162, 3.226204
792.0983, 3.962278
792.5804, 4.885139
793.0626, 5.008282
793.5447, 2.989008
794.0268, 0.5278970
794.5089, 0.3589340
794.9910, 0.4864880
795.4731, 1.791277
795.9553, 2.974033
796.4374, 3.757639
796.9195, 3.569229
797.4016, 2.647448
797.8837, 1.902391
798.3658, 1.502872
798.8480, 1.194702
799.3301, 0.7488540
799.8122, 0.3096870
800.2943, 0.3495220
800.7764, 1.190697
801.2585, 2.019773
801.7407, 3.067585
802.2228, 3.793610
802.7049, 3.683607
803.1870, 3.262487
803.6691, 3.403635
804.1512, 4.293524
804.6334, 4.800951
805.1155, 3.947018
805.5976, 2.825817
806.0797, 2.222231
806.5618, 2.203835
807.0439, 3.088524
807.5261, 4.834309
808.0082, 6.458220
808.4903, 7.045214
808.9724, 6.759647
809.4545, 6.081276
809.9366, 4.902119
810.4188, 4.080994
810.9009, 3.927660
811.3830, 3.839138
811.8651, 3.151257
812.3472, 2.197048
812.8293, 2.170748
813.3115, 3.494030
813.7936, 4.824583
814.2757, 6.407352
814.7578, 7.514273
815.2399, 7.519737
815.7220, 6.783493
816.2042, 5.807711
816.6863, 4.800980
817.1684, 3.935938
817.6505, 3.430357
818.1326, 3.126812
818.6147, 2.719124
819.0969, 2.236990
819.5790, 1.819736
820.0611, 1.500237
820.5432, 1.410004
821.0253, 1.725122
821.5074, 2.359974
821.9896, 2.736359
822.4717, 2.759769
822.9538, 2.730568
823.4359, 2.166750
823.9180, 2.126402
824.4001, 3.913507
824.8823, 6.422585
825.3644, 7.425476
825.8465, 6.272526
826.3286, 4.898933
826.8107, 3.709917
827.2928, 2.880882
827.7750, 2.641981
828.2571, 2.853622
828.7392, 3.281548
829.2213, 3.840651
829.7034, 4.528355
830.1855, 5.568386
830.6677, 6.572361
831.1498, 6.011688
831.6319, 3.959234
832.1140, 3.192808
832.5961, 4.678694
833.0782, 5.942064
833.5604, 4.594337
834.0425, 1.548203
834.5246, 0.7754190
835.0067, 4.622393
835.4888, 6.745823
835.9709, 6.432415
836.4531, 5.284985
836.9352, 2.991478
837.4173, 0.7441830
837.8994, 0.5640620
838.3815, 2.855768
838.8636, 4.723328
839.3458, 4.150261
839.8279, 3.021458
840.3100, 3.036713
840.7921, 3.797907
841.2742, 4.569778
841.7563, 5.122877
842.2385, 5.276974
842.7206, 4.768082
843.2027, 4.045460
843.6848, 4.577023
844.1669, 6.406416
844.6490, 6.870892
845.1312, 5.251123
845.6133, 3.669155
846.0954, 3.330740
846.5775, 3.906424
847.0596, 4.820965
847.5417, 6.496937
848.0239, 7.142128
848.5060, 5.521456
848.9881, 4.409601
849.4702, 5.447962
849.9523, 6.951731
850.4344, 6.892120
850.9166, 5.325588
851.3987, 4.131926
851.8808, 4.453079
852.3629, 5.068510
852.8450, 5.060457
853.3271, 4.765045
853.8093, 4.514751
854.2914, 4.327370
854.7735, 4.283295
855.2556, 4.372578
855.7377, 4.481915
856.2198, 4.380524
856.7020, 4.082777
857.1841, 3.981462
857.6662, 4.120960
858.1483, 4.252939
858.6304, 4.182814
859.1125, 4.131241
859.5947, 4.488752
860.0768, 5.257534
860.5589, 5.945223
861.0410, 7.028927
861.5231, 7.428415
862.0052, 6.371315
862.4874, 5.110683
862.9695, 4.474628
863.4516, 4.340431
863.9337, 4.353285
864.4158, 4.462030
864.8979, 4.419912
865.3801, 3.755468
865.8622, 3.115448
866.3443, 3.275158
866.8264, 4.034399
867.3085, 4.838036
867.7906, 5.524405
868.2728, 6.362694
868.7549, 7.823803
869.2370, 9.336008
869.7191, 8.916510
870.2012, 6.584782
870.6833, 4.871872
871.1655, 4.239786
871.6476, 3.995630
872.1297, 3.584984
872.6118, 3.360954
873.0939, 4.381254
873.5760, 7.650854
874.0581, 9.184210
874.5402, 7.468225
875.0223, 5.892551
875.5045, 5.346024
875.9866, 5.297739
876.4687, 5.134075
876.9508, 4.840302
877.4329, 4.681967
877.9150, 5.129511
878.3972, 5.234745
878.8793, 3.807339
879.3614, 2.240211
879.8435, 2.667137
880.3256, 4.418726
880.8077, 4.768288
881.2899, 2.463104
881.7720, 1.4881000E-02
882.2541, 0.7612780
882.7362, 3.621162
883.2183, 5.753922
883.7004, 7.058916
884.1826, 6.883410
884.6647, 4.897621
885.1468, 2.848886
885.6289, 2.556248
886.1110, 3.613895
886.5931, 3.647942
887.0753, 2.170103
887.5574, 1.196461
888.0395, 0.9351060
888.5216, 1.157301
889.0037, 2.262756
889.4858, 3.554249
889.9680, 3.794039
890.4501, 2.789906
890.9322, 1.817522
891.4143, 0.6252610
891.8964, 1.1929000E-02
892.3785, 0.8447690
892.8607, 2.056833
893.3428, 2.536766
893.8249, 2.283205
894.3070, 1.888510
894.7891, 1.597948
895.2712, 1.338133
895.7534, 0.8445840
896.2355, 0.4309010
896.7176, 1.055149
897.1997, 2.423216
897.6818, 3.311644
898.1639, 3.249220
898.6461, 2.621717
899.1282, 1.704227
899.6103, 0.6672060
900.0924, 0.3719410
900.5745, 0.8965230
901.0566, 1.309383
901.5388, 1.415026
902.0209, 1.303417
902.5030, 0.9645060
902.9851, 0.5289590
903.4672, 0.3314130
903.9493, 0.2187710
904.4315, 0.7977700
904.9136, 3.153957
905.3957, 4.793913
905.8778, 4.275537
906.3599, 3.194592
906.8420, 3.316216
907.3242, 4.519493
907.8063, 5.088476
908.2884, 4.415688
908.7705, 3.324717
909.2526, 1.813013
909.7347, 0.2837870
910.2169, 1.544331
910.6990, 2.959948
911.1811, 1.996122
911.6632, 1.936832
912.1453, 5.249380
912.6274, 3.874710
913.1096, 0.7734910
913.5917, 0.8394320
914.0738, 2.920444
914.5559, 3.354435
915.0380, 1.449305
915.5201, 0.4480900
916.0023, 0.5951650
916.4844, 0.2761250
916.9665, 0.6481210
917.4486, 0.5235610
917.9307, 0.1657450
918.4128, 0.5206130
918.8950, 0.8144450
919.3771, 0.4277730
919.8592, 0.5261400
920.3413, 2.139919
920.8234, 4.378502
921.3055, 5.215063
921.7877, 3.709827
922.2698, 2.464710
922.7519, 1.864639
923.2340, 1.476255
923.7161, 0.9410040
924.1982, 0.5173130
924.6804, 0.9057870
925.1625, 2.240458
925.6446, 3.012527
926.1267, 2.400826
926.6088, 1.699936
927.0909, 1.498053
927.5731, 1.590773
928.0552, 1.805040
928.5373, 2.067089
929.0194, 2.279476
929.5015, 2.392614
929.9836, 2.453741
930.4658, 2.914164
930.9479, 3.184158
931.4300, 1.744995
931.9121, 0.6113850
932.3942, 1.047928
932.8763, 1.103291
933.3585, 3.165617
933.8406, 2.399454
934.3227, 0.1863020
934.8048, 0.2296730
935.2869, 2.216906
935.7690, 3.239447
936.2512, 2.872759
936.7333, 2.154310
937.2154, 1.575872
937.6975, 1.216236
938.1796, 1.264952
938.6617, 1.752291
939.1439, 1.878714
939.6260, 1.318247
940.1081, 1.326014
940.5902, 2.531538
941.0723, 3.900652
941.5544, 4.922960
942.0366, 5.450682
942.5187, 4.771223
943.0008, 1.597017
943.4829, 0.1737900
943.9650, 2.314209
944.4471, 4.244028
944.9293, 4.488523
945.4114, 3.869879
945.8935, 3.091322
946.3756, 2.297985
946.8577, 1.718010
947.3398, 1.478460
947.8220, 1.356543
948.3041, 1.155842
948.7862, 1.125759
949.2683, 1.642820
949.7504, 2.402885
950.2325, 2.853064
950.7147, 2.847643
951.1968, 2.683756
951.6789, 2.653854
952.1610, 2.506306
952.6431, 1.292696
953.1252, 8.9918002E-02
953.6074, 0.9306770
954.0895, 4.033018
954.5716, 5.884106
955.0537, 4.790817
955.5358, 2.652580
956.0179, 2.227503
956.5000, 2.988817
956.9821, 2.194702
957.4642, 6.0467001E-02
957.9464, 1.320009
958.4285, 0.9678550
958.9106, 0.1287380
959.3927, 1.403423
959.8748, 2.763754
960.3569, 4.005424
960.8391, 5.232395
961.3212, 5.085323
961.8033, 2.810509
962.2854, 1.428164
962.7675, 2.460894
963.2496, 4.068661
963.7318, 4.284857
964.2139, 3.342247
964.6960, 2.976936
965.1781, 3.618824
965.6602, 4.138159
966.1423, 4.774485
966.6245, 4.997286
967.1066, 4.187258
967.5887, 3.082815
968.0708, 2.495092
968.5529, 2.461050
969.0350, 2.681713
969.5172, 3.612112
969.9993, 4.059193
970.4814, 3.471113
970.9635, 2.462172
971.4456, 0.8540020
971.9277, 0.5863290
972.4099, 0.1382410
972.8920, 2.553423
973.3741, 4.529308
973.8562, 3.333122
974.3383, 1.731594
974.8204, 2.151134
975.3026, 3.291805
975.7847, 3.020411
976.2668, 1.632360
976.7489, 1.252405
977.2310, 2.883604
977.7131, 4.587326
978.1953, 3.951658
978.6774, 2.315552
979.1595, 2.022186
979.6416, 2.708710
980.1237, 3.383986
980.6058, 3.746599
981.0880, 3.199507
981.5701, 1.226843
982.0522, 0.7697620
982.5343, 8.3069997E-03
983.0164, 2.977875
983.4985, 5.042133
983.9807, 6.122913
984.4628, 6.537371
984.9449, 6.376972
985.4270, 5.388565
985.9091, 3.105572
986.3912, 0.3490490
986.8734, 9.8406002E-02
987.3555, 2.171541
987.8376, 3.121128
988.3197, 2.172890
988.8018, 1.754316
989.2839, 3.083641
989.7661, 4.528625
990.2482, 4.208128
990.7303, 2.582764
991.2124, 2.216379
991.6945, 3.955627
992.1766, 4.948317
992.6588, 4.824038
993.1409, 4.326906
993.6230, 3.511469
994.1051, 2.671928
994.5872, 2.222305
995.0693, 2.157679
995.5515, 2.083208
996.0336, 1.615343
996.5157, 1.696432
996.9978, 3.258518
997.4799, 4.506695
997.9620, 4.368145
998.4442, 3.366652
998.9263, 1.975481
999.4084, 0.2734510
999.8905, 0.3532810
1000.373, 1.285530
1000.855, 2.925228
1001.337, 3.990732
1001.819, 4.539968
1002.301, 4.255676
1002.783, 3.568018
1003.265, 3.204159
1003.747, 3.335966
1004.230, 3.767580
1004.712, 5.367235
1005.194, 6.126471
1005.676, 3.305250
1006.158, 5.7133000E-02
1006.640, 4.5297999E-02
1007.122, 2.560099
1007.604, 4.936964
1008.086, 6.092607
1008.569, 5.989452
1009.051, 3.139854
1009.533, 0.3454970
1010.015, 1.735023
1010.497, 4.871758
1010.979, 5.050879
1011.461, 2.539934
1011.943, 0.8448200
1012.426, 1.620029
1012.908, 2.896273
1013.390, 2.443668
1013.872, 1.145653
1014.354, 0.3833810
1014.836, 0.2006090
1015.318, 1.105928
1015.800, 2.828138
1016.282, 3.464766
1016.765, 1.879889
1017.247, 0.3330860
1017.729, 0.8808920
1018.211, 0.1865460
1018.693, 0.4465900
1019.175, 0.9670930
1019.657, 0.9429840
1020.139, 0.3192410
1020.622, 9.1977999E-02
1021.104, 0.2344820
1021.586, 1.138035
1022.068, 2.656841
1022.550, 4.634562
1023.032, 5.274866
1023.514, 4.559019
1023.996, 3.540117
1024.478, 2.409767
1024.961, 1.707561
1025.443, 1.910496
1025.925, 2.532064
1026.407, 2.377655
1026.889, 1.380428
1027.371, 1.073891
1027.853, 1.554199
1028.335, 2.173176
1028.818, 2.777111
1029.300, 3.512060
1029.782, 4.482553
1030.264, 5.495718
1030.746, 5.600651
1031.228, 4.452738
1031.710, 4.420317
1032.192, 6.228226
1032.674, 5.906788
1033.156, 6.923359
1033.639, 7.294298
1034.121, 7.056442
1034.603, 4.381741
1035.085, 4.854006
1035.567, 4.065006
1036.049, 3.224379
1036.531, 4.139252
1037.013, 1.818977
1037.496, 2.704962
1037.978, 2.311510
1038.460, 2.504105
1038.942, 1.427656
1039.424, 3.408712
1039.906, 6.395632
1040.388, 7.434082
1040.870, 4.620857
1041.353, 2.521511
1041.835, 2.724838
1042.317, 3.598415
1042.799, 3.967394
1043.281, 3.995060
1043.763, 4.236284
1044.245, 5.083305
1044.727, 4.925072
1045.209, 2.443960
1045.692, 0.6995110
1046.174, 0.8791410
1046.656, 1.775661
1047.138, 2.835030
1047.620, 3.869005
1048.102, 4.070532
1048.584, 2.810984
1049.066, 2.604742
1049.548, 5.102861
1050.031, 6.980587
1050.513, 6.492994
1050.995, 5.619421
1051.477, 6.289145
1051.959, 7.807053
1052.441, 8.087029
1052.923, 6.505249
1053.405, 5.430290
1053.888, 6.198246
1054.370, 6.468714
1054.852, 4.672665
1055.334, 2.641672
1055.816, 1.940212
1056.298, 2.237543
1056.780, 2.525745
1057.262, 2.589607
1057.745, 2.899734
1058.227, 3.794727
1058.709, 4.824827
1059.191, 6.727184
1059.673, 7.885174
1060.155, 6.029951
1060.637, 2.616739
1061.119, 1.042807
1061.601, 2.094831
1062.083, 2.846102
1062.566, 1.939573
1063.048, 0.9872700
1063.530, 0.4131580
1064.012, 0.3313690
1064.494, 1.251677
1064.976, 2.640545
1065.458, 3.428057
1065.940, 3.406742
1066.423, 3.188246
1066.905, 3.096228
1067.387, 2.742130
1067.869, 1.222658
1068.351, 4.5669999E-02
1068.833, 0.9002460
1069.315, 2.897387
1069.797, 4.496235
1070.280, 5.438334
1070.762, 5.558668
1071.244, 4.397242
1071.726, 3.031307
1072.208, 1.525339
1072.690, 0.3898050
1073.172, 2.5091000E-02
1073.654, 0.2517810
1074.136, 1.541639
1074.619, 3.646566
1075.101, 4.745531
1075.583, 3.514988
1076.065, 2.204182
1076.547, 1.340652
1077.029, 1.238291
1077.511, 3.097992
1077.993, 5.377012
1078.475, 5.447336
1078.958, 3.382755
1079.440, 1.852451
1079.922, 1.819231
1080.404, 2.521648
1080.886, 4.651014
1081.368, 6.261576
1081.850, 5.343271
1082.332, 3.437490
1082.814, 2.617985
1083.297, 2.946768
1083.779, 3.320093
1084.261, 3.491470
1084.743, 3.284138
1085.225, 2.299765
1085.707, 1.265110
1086.189, 0.2099630
1086.671, 0.2893420
1087.154, 0.9765870
1087.636, 3.370848
1088.118, 4.555584
1088.600, 3.685890
1089.082, 2.630262
1089.564, 1.919659
1090.046, 1.519963
1090.528, 1.521999
1091.010, 1.737840
1091.493, 2.063654
1091.975, 2.430275
1092.457, 2.653978
1092.939, 2.659889
1093.421, 3.002335
1093.903, 4.520720
1094.385, 5.598052
1094.867, 5.217798
1095.349, 4.347438
1095.832, 3.561993
1096.314, 3.001574
1096.796, 2.907056
1097.278, 3.300894
1097.760, 3.366451
1098.242, 2.605282
1098.724, 1.814298
1099.206, 0.6486670
1099.689, 0.1641120
1100.171, 1.820667
1100.653, 4.201925
1101.135, 5.237478
1101.617, 4.814149
1102.099, 4.260595
1102.581, 3.868254
1103.063, 3.401331
1103.546, 2.975897
1104.028, 2.260987
1104.510, 0.5865080
1104.992, 1.110698
1105.474, 1.709331
1105.956, 1.339901
1106.438, 0.9380350
1106.920, 0.7175460
1107.402, 0.2656230
1107.885, 0.9707240
1108.367, 1.824999
1108.849, 1.317450
1109.331, 0.7372110
1109.813, 1.424539
1110.295, 2.917923
1110.777, 3.912977
1111.259, 4.373653
1111.741, 4.133972
1112.224, 2.390180
1112.706, 1.061230
1113.188, 0.5605310
1113.670, 0.5670740
1114.152, 1.164159
1114.634, 2.012022
1115.116, 2.475348
1115.598, 2.506692
1116.081, 2.751580
1116.563, 3.544029
1117.045, 3.967144
1117.527, 3.777493
1118.009, 3.508202
1118.491, 3.230230
1118.973, 2.883512
1119.455, 2.560741
1119.938, 2.257671
1120.420, 1.889719
1120.902, 1.231495
1121.384, 1.087985
1121.866, 1.624357
1122.348, 2.450535
1122.830, 3.857647
1123.312, 4.688250
1123.794, 3.472965
1124.276, 1.157072
1124.759, 0.9288700
1125.241, 3.392790
1125.723, 4.453054
1126.205, 3.882705
1126.687, 2.578483
1127.169, 0.3310610
1127.651, 1.131934
1128.133, 0.4838070
1128.616, 1.257339
1129.098, 2.313733
1129.580, 2.710814
1130.062, 3.241568
1130.544, 2.867671
1131.026, 4.058314
1131.508, 4.608727
1131.990, 4.551748
1132.473, 2.057187
1132.955, 2.710070
1133.437, 1.039817
1133.919, 2.927219
1134.401, 4.170082
1134.883, 4.802921
1135.365, 2.998696
1135.847, 4.341293
1136.329, 4.422709
1136.812, 4.453313
1137.294, 6.238611
1137.776, 0.4533610
1138.258, 2.027554
1138.740, 2.956787
1139.222, 3.274751
1139.704, 1.155746
1140.186, 2.183470
1140.668, 2.999002
1141.151, 3.864312
1141.633, 4.724209
1142.115, 5.652332
1142.597, 5.740583
1143.079, 3.062272
1143.561, 0.2716830
1144.043, 0.3752780
1144.525, 1.335303
1145.008, 2.195444
1145.490, 2.151476
1145.972, 2.191437
1146.454, 2.628269
1146.936, 3.193409
1147.418, 3.738847
1147.900, 4.324602
1148.382, 5.086644
1148.865, 5.629772
1149.347, 5.659552
1149.829, 5.221615
1150.311, 3.903520
1150.793, 2.088424
1151.275, 1.416137
1151.757, 2.752545
1152.239, 4.128965
1152.721, 4.737648
1153.203, 4.658611
1153.686, 3.398443
1154.168, 1.926495
1154.650, 0.9440740
1155.132, 0.6390070
1155.614, 1.593312
1156.096, 3.932274
1156.578, 4.966462
1157.060, 2.358649
1157.543, 0.6475690
1158.025, 2.132961
1158.507, 3.784974
1158.989, 3.801073
1159.471, 3.003580
1159.953, 2.324142
1160.435, 1.833464
1160.917, 1.644352
1161.400, 1.710140
1161.882, 2.211693
1162.364, 3.900620
1162.846, 4.775887
1163.328, 4.068106
1163.810, 2.900991
1164.292, 1.865527
1164.774, 1.012994
1165.256, 0.4530240
1165.739, 0.1639020
1166.221, 0.5638000
1166.703, 1.874442
1167.185, 3.074350
1167.667, 4.112957
1168.149, 4.720762
1168.631, 4.675058
1169.113, 4.509979
1169.595, 4.859112
1170.078, 5.520443
1170.560, 5.885857
1171.042, 5.944487
1171.524, 5.037275
1172.006, 3.181713
1172.488, 1.523802
1172.970, 0.3725580
1173.452, 0.5001150
1173.934, 2.555616
1174.417, 4.520521
1174.899, 2.608716
1175.381, 1.173363
1175.863, 1.112828
1176.345, 1.582907
1176.827, 3.815787
1177.309, 5.054235
1177.791, 4.851915
1178.274, 3.232896
1178.756, 1.773746
1179.238, 1.743020
1179.720, 2.163026
1180.202, 1.799738
1180.684, 1.406229
1181.166, 2.541650
1181.648, 4.144067
1182.130, 3.899412
1182.613, 2.149143
1183.095, 1.531790
1183.577, 3.151918
1184.059, 4.476178
1184.541, 3.999972
1185.023, 3.109820
1185.505, 1.599375
1185.987, 0.8875780
1186.469, 3.194637
1186.952, 6.448864
1187.434, 6.841934
1187.916, 4.228362
1188.398, 2.473804
1188.880, 2.526793
1189.362, 2.861845
1189.844, 3.627110
1190.326, 4.265989
1190.809, 4.748661
1191.291, 4.854908
1191.773, 4.113628
1192.255, 3.026546
1192.737, 2.808222
1193.219, 3.523497
1193.701, 4.596619
1194.183, 6.594313
1194.666, 6.444550
1195.148, 3.061049
1195.630, 0.4348000
1196.112, 0.4998700
1196.594, 1.633902
1197.076, 2.127468
1197.558, 2.210058
1198.040, 2.574300
1198.522, 3.170160
1199.005, 3.517771
1199.487, 3.643631
1199.969, 4.049796
1200.451, 4.762749
1200.933, 4.875528
1201.415, 3.848368
1201.897, 2.722714
1202.379, 2.635853
1202.861, 3.200184
1203.344, 4.637125
1203.826, 5.841267
1204.308, 4.327837
1204.790, 1.135920
1205.272, 1.125405
1205.754, 1.775026
1206.236, 0.9936550
1206.718, 1.625967
1207.201, 3.785139
1207.683, 3.775210
1208.165, 3.159639
1208.647, 2.510922
1209.129, 2.199228
1209.611, 3.041751
1210.093, 4.314892
1210.575, 4.243561
1211.057, 2.547676
1211.540, 1.593474
1212.022, 2.187975
1212.504, 2.809866
1212.986, 4.017586
1213.468, 4.184309
1213.950, 1.626989
1214.432, 0.7947410
1214.914, 0.1598010
1215.396, 2.323983
1215.879, 3.329321
1216.361, 2.714975
1216.843, 2.407641
1217.325, 2.433216
1217.807, 2.592589
1218.289, 2.855239
1218.771, 3.366577
1219.253, 4.250090
1219.736, 4.663491
1220.218, 3.548817
1220.700, 1.897438
1221.182, 2.222375
1221.664, 3.750063
1222.146, 3.780127
1222.628, 2.692461
1223.110, 2.069833
1223.593, 2.173275
1224.075, 2.552108
1224.557, 3.006197
1225.039, 3.777610
1225.521, 6.047011
1226.003, 7.456221
1226.485, 4.484359
1226.967, 0.7555810
1227.449, 0.1559030
1227.932, 1.425442
1228.414, 2.580259
1228.896, 3.205478
1229.378, 3.083593
1229.860, 1.708177
1230.342, 1.236725
1230.824, 3.326727
1231.306, 4.584699
1231.788, 3.419823
1232.271, 2.439429
1232.753, 3.603370
1233.235, 5.521669
1233.717, 6.487112
1234.199, 6.549236
1234.681, 5.939204
1235.163, 4.441802
1235.645, 3.350595
1236.128, 2.780249
1236.610, 1.785248
1237.092, 1.0601000E-02
1237.574, 0.5787170
1238.056, 1.399328
1238.538, 4.307236
1239.020, 6.298985
1239.502, 7.279493
1239.984, 6.483177
1240.467, 4.654524
1240.949, 4.173223
1241.431, 4.637932
1241.913, 3.871048
1242.395, 1.819479
1242.877, 1.011705
1243.359, 2.808773
1243.841, 4.883278
1244.323, 5.892260
1244.806, 6.090219
1245.288, 5.161533
1245.770, 3.989708
1246.252, 3.074116
1246.734, 2.703115
1247.216, 2.447407
1247.698, 2.251616
1248.180, 2.615836
1248.662, 4.158117
1249.145, 4.895336
1249.627, 4.080802
1250.109, 3.557054
1250.591, 4.044495
1251.073, 4.128954
1251.555, 2.607016
1252.037, 0.6699280
1252.519, 1.2506000E-02
1253.002, 0.2908190
1253.484, 0.3020980
1253.966, 3.5805002E-02
1254.448, 0.1092000
1254.930, 0.5441840
1255.412, 1.385619
1255.894, 2.571501
1256.376, 3.436813
1256.859, 3.618421
1257.341, 3.653353
1257.823, 4.029486
1258.305, 4.680523
1258.787, 6.453965
1259.269, 7.711428
1259.751, 5.057253
1260.233, 0.8225630
1260.715, 0.5336900
1261.198, 0.9415780
1261.680, 2.165577
1262.162, 2.164044
1262.644, 2.128757
1263.126, 2.132584
1263.608, 2.337631
1264.090, 3.441693
1264.572, 3.966722
1265.054, 2.405788
1265.537, 0.6099000
1266.019, 0.5954620
1266.501, 1.884629
1266.983, 2.893140
1267.465, 3.591527
1267.947, 4.266970
1268.429, 4.944029
1268.911, 5.316063
1269.394, 5.332680
1269.876, 4.944759
1270.358, 4.154553
1270.840, 3.627109
1271.322, 4.049224
1271.804, 4.710659
1272.286, 4.384609
1272.768, 3.699915
1273.250, 3.778899
1273.733, 4.185362
1274.215, 4.355473
1274.697, 4.329450
1275.179, 5.019939
1275.661, 5.132452
1276.143, 6.585570
1276.625, 7.394653
1277.107, 7.604400
1277.589, 5.378861
1278.072, 6.301590
1278.554, 5.966784
1279.036, 5.583922
1279.518, 6.959301
1280.000, 5.102192
1280.482, 6.463449
1280.964, 6.549362
1281.446, 7.227193
1281.929, 6.644114
1282.411, 6.461387
1282.893, 2.580976
1283.375, 4.5265999E-02
1283.857, 7.8254998E-02
1284.339, 1.554525
1284.821, 4.366010
1285.303, 4.252354
1285.786, 2.936649
1286.268, 0.0000000E+00
##END=



