##NAMES=Chalconatronite
##RRUFFID=R160004
##IDEAL CHEMISTRY=Na_2_Cu^2+^(CO_3_)_2_&#183;3H_2_O
##LOCALITY=Rowley mine, Maricopa County, Arizona, USA
##OWNER=RRUFF
##SOURCE=Danielle Sotomayor and Keith Wentz
##DESCRIPTION=Aggregates of blue crystals. The mineral was found on a metallic mining artifact of copper composition
##STATUS=The identification of this mineral has been made only by X-ray diffraction.
##URL=rruff.info/R160004
9.059570e+001, 4.785475e+002
9.107782e+001, 4.804089e+002
9.155994e+001, 4.810942e+002
9.204205e+001, 4.796621e+002
9.252417e+001, 4.776962e+002
9.300629e+001, 4.758056e+002
9.348840e+001, 4.717120e+002
9.397052e+001, 4.625045e+002
9.445264e+001, 4.474852e+002
9.493475e+001, 4.332928e+002
9.541687e+001, 4.192491e+002
9.589898e+001, 4.051084e+002
9.638110e+001, 3.916205e+002
9.686321e+001, 3.794586e+002
9.734533e+001, 3.686071e+002
9.782745e+001, 3.581378e+002
9.830956e+001, 3.485834e+002
9.879168e+001, 3.393849e+002
9.927380e+001, 3.313957e+002
9.975591e+001, 3.252994e+002
1.002380e+002, 3.205211e+002
1.007201e+002, 3.156543e+002
1.012023e+002, 3.097306e+002
1.016844e+002, 3.030595e+002
1.021665e+002, 2.970857e+002
1.026486e+002, 2.918636e+002
1.031307e+002, 2.871817e+002
1.036128e+002, 2.828488e+002
1.040950e+002, 2.787863e+002
1.045771e+002, 2.752262e+002
1.050592e+002, 2.725311e+002
1.055413e+002, 2.703149e+002
1.060234e+002, 2.680741e+002
1.065055e+002, 2.654437e+002
1.069877e+002, 2.625697e+002
1.074698e+002, 2.601452e+002
1.079519e+002, 2.588449e+002
1.084340e+002, 2.571029e+002
1.089161e+002, 2.542196e+002
1.093982e+002, 2.503832e+002
1.098804e+002, 2.461128e+002
1.103625e+002, 2.416428e+002
1.108446e+002, 2.367492e+002
1.113267e+002, 2.329537e+002
1.118088e+002, 2.309280e+002
1.122909e+002, 2.293279e+002
1.127731e+002, 2.276384e+002
1.132552e+002, 2.257441e+002
1.137373e+002, 2.237357e+002
1.142194e+002, 2.217370e+002
1.147015e+002, 2.194544e+002
1.151836e+002, 2.177667e+002
1.156658e+002, 2.174249e+002
1.161479e+002, 2.173072e+002
1.166300e+002, 2.162161e+002
1.171121e+002, 2.136901e+002
1.175942e+002, 2.103316e+002
1.180763e+002, 2.075505e+002
1.185584e+002, 2.054919e+002
1.190406e+002, 2.035228e+002
1.195227e+002, 2.013628e+002
1.200048e+002, 1.991389e+002
1.204869e+002, 1.971914e+002
1.209690e+002, 1.957115e+002
1.214511e+002, 1.946209e+002
1.219333e+002, 1.936510e+002
1.224154e+002, 1.928575e+002
1.228975e+002, 1.920849e+002
1.233796e+002, 1.913064e+002
1.238617e+002, 1.905572e+002
1.243438e+002, 1.894806e+002
1.248260e+002, 1.875083e+002
1.253081e+002, 1.852563e+002
1.257902e+002, 1.832585e+002
1.262723e+002, 1.817468e+002
1.267544e+002, 1.805547e+002
1.272365e+002, 1.793099e+002
1.277187e+002, 1.778470e+002
1.282008e+002, 1.766281e+002
1.286829e+002, 1.760391e+002
1.291650e+002, 1.756831e+002
1.296471e+002, 1.749939e+002
1.301292e+002, 1.735430e+002
1.306114e+002, 1.714102e+002
1.310935e+002, 1.697694e+002
1.315756e+002, 1.692847e+002
1.320577e+002, 1.686736e+002
1.325398e+002, 1.676353e+002
1.330219e+002, 1.662045e+002
1.335041e+002, 1.645249e+002
1.339862e+002, 1.626595e+002
1.344683e+002, 1.604954e+002
1.349504e+002, 1.589605e+002
1.354325e+002, 1.585144e+002
1.359146e+002, 1.581971e+002
1.363968e+002, 1.573810e+002
1.368789e+002, 1.560403e+002
1.373610e+002, 1.546677e+002
1.378431e+002, 1.538833e+002
1.383252e+002, 1.538487e+002
1.388073e+002, 1.535796e+002
1.392895e+002, 1.529122e+002
1.397716e+002, 1.520255e+002
1.402537e+002, 1.511179e+002
1.407358e+002, 1.502370e+002
1.412179e+002, 1.493313e+002
1.417000e+002, 1.483698e+002
1.421821e+002, 1.473675e+002
1.426643e+002, 1.462171e+002
1.431464e+002, 1.447440e+002
1.436285e+002, 1.430568e+002
1.441106e+002, 1.415322e+002
1.445927e+002, 1.402477e+002
1.450748e+002, 1.391875e+002
1.455570e+002, 1.382754e+002
1.460391e+002, 1.375136e+002
1.465212e+002, 1.369248e+002
1.470033e+002, 1.366861e+002
1.474854e+002, 1.368715e+002
1.479675e+002, 1.366688e+002
1.484497e+002, 1.355845e+002
1.489318e+002, 1.342553e+002
1.494139e+002, 1.329356e+002
1.498960e+002, 1.316992e+002
1.503781e+002, 1.305605e+002
1.508602e+002, 1.295516e+002
1.513424e+002, 1.286636e+002
1.518245e+002, 1.279304e+002
1.523066e+002, 1.275259e+002
1.527887e+002, 1.271478e+002
1.532708e+002, 1.264963e+002
1.537529e+002, 1.254727e+002
1.542351e+002, 1.242716e+002
1.547172e+002, 1.233846e+002
1.551993e+002, 1.231623e+002
1.556814e+002, 1.228699e+002
1.561635e+002, 1.225019e+002
1.566456e+002, 1.220370e+002
1.571278e+002, 1.214289e+002
1.576099e+002, 1.206461e+002
1.580920e+002, 1.197428e+002
1.585741e+002, 1.189539e+002
1.590562e+002, 1.182705e+002
1.595383e+002, 1.176864e+002
1.600205e+002, 1.172880e+002
1.605026e+002, 1.169982e+002
1.609847e+002, 1.166442e+002
1.614668e+002, 1.161322e+002
1.619489e+002, 1.154719e+002
1.624310e+002, 1.147627e+002
1.629131e+002, 1.138345e+002
1.633953e+002, 1.130191e+002
1.638774e+002, 1.126432e+002
1.643595e+002, 1.126544e+002
1.648416e+002, 1.125328e+002
1.653237e+002, 1.118727e+002
1.658058e+002, 1.108625e+002
1.662880e+002, 1.099712e+002
1.667701e+002, 1.093403e+002
1.672522e+002, 1.087691e+002
1.677343e+002, 1.079979e+002
1.682164e+002, 1.069762e+002
1.686985e+002, 1.060006e+002
1.691807e+002, 1.052653e+002
1.696628e+002, 1.046782e+002
1.701449e+002, 1.041253e+002
1.706270e+002, 1.034903e+002
1.711091e+002, 1.029100e+002
1.715912e+002, 1.028079e+002
1.720734e+002, 1.036384e+002
1.725555e+002, 1.040896e+002
1.730376e+002, 1.034666e+002
1.735197e+002, 1.022490e+002
1.740018e+002, 1.010991e+002
1.744839e+002, 1.004056e+002
1.749661e+002, 1.001006e+002
1.754482e+002, 9.978896e+001
1.759303e+002, 9.953269e+001
1.764124e+002, 9.919067e+001
1.768945e+002, 9.864588e+001
1.773766e+002, 9.799557e+001
1.778588e+002, 9.740542e+001
1.783409e+002, 9.699010e+001
1.788230e+002, 9.674979e+001
1.793051e+002, 9.660982e+001
1.797872e+002, 9.692595e+001
1.802693e+002, 9.699556e+001
1.807515e+002, 9.641340e+001
1.812336e+002, 9.536720e+001
1.817157e+002, 9.435261e+001
1.821978e+002, 9.379854e+001
1.826799e+002, 9.375950e+001
1.831620e+002, 9.367613e+001
1.836441e+002, 9.358653e+001
1.841263e+002, 9.343195e+001
1.846084e+002, 9.321390e+001
1.850905e+002, 9.291612e+001
1.855726e+002, 9.246041e+001
1.860547e+002, 9.171622e+001
1.865368e+002, 9.061868e+001
1.870190e+002, 8.993960e+001
1.875011e+002, 9.005171e+001
1.879832e+002, 9.030506e+001
1.884653e+002, 9.020357e+001
1.889474e+002, 8.970065e+001
1.894296e+002, 8.910269e+001
1.899117e+002, 8.872627e+001
1.903938e+002, 8.856248e+001
1.908759e+002, 8.825391e+001
1.913580e+002, 8.752106e+001
1.918401e+002, 8.673798e+001
1.923223e+002, 8.640511e+001
1.928044e+002, 8.664922e+001
1.932865e+002, 8.697000e+001
1.937686e+002, 8.682446e+001
1.942507e+002, 8.634660e+001
1.947328e+002, 8.591074e+001
1.952150e+002, 8.562196e+001
1.956971e+002, 8.545129e+001
1.961792e+002, 8.538006e+001
1.966613e+002, 8.548551e+001
1.971434e+002, 8.551152e+001
1.976255e+002, 8.523330e+001
1.981077e+002, 8.473116e+001
1.985898e+002, 8.419925e+001
1.990719e+002, 8.375050e+001
1.995540e+002, 8.335507e+001
2.000361e+002, 8.286988e+001
2.005182e+002, 8.216826e+001
2.010004e+002, 8.155521e+001
2.014825e+002, 8.114892e+001
2.019646e+002, 8.094052e+001
2.024467e+002, 8.091507e+001
2.029288e+002, 8.116467e+001
2.034109e+002, 8.166140e+001
2.038930e+002, 8.190024e+001
2.043752e+002, 8.160567e+001
2.048573e+002, 8.132261e+001
2.053394e+002, 8.136818e+001
2.058215e+002, 8.160923e+001
2.063036e+002, 8.170007e+001
2.067857e+002, 8.129599e+001
2.072679e+002, 8.035946e+001
2.077500e+002, 7.966556e+001
2.082321e+002, 7.942414e+001
2.087142e+002, 7.924903e+001
2.091963e+002, 7.907536e+001
2.096784e+002, 7.887452e+001
2.101606e+002, 7.860793e+001
2.106427e+002, 7.820919e+001
2.111248e+002, 7.763564e+001
2.116069e+002, 7.733846e+001
2.120890e+002, 7.767820e+001
2.125711e+002, 7.793359e+001
2.130533e+002, 7.773698e+001
2.135354e+002, 7.716875e+001
2.140175e+002, 7.656592e+001
2.144996e+002, 7.624105e+001
2.149817e+002, 7.624265e+001
2.154638e+002, 7.619547e+001
2.159460e+002, 7.608979e+001
2.164281e+002, 7.595686e+001
2.169102e+002, 7.576511e+001
2.173923e+002, 7.554308e+001
2.178744e+002, 7.540240e+001
2.183565e+002, 7.548347e+001
2.188387e+002, 7.583559e+001
2.193208e+002, 7.586112e+001
2.198029e+002, 7.535793e+001
2.202850e+002, 7.473623e+001
2.207671e+002, 7.418822e+001
2.212492e+002, 7.374203e+001
2.217314e+002, 7.340623e+001
2.222135e+002, 7.321629e+001
2.226956e+002, 7.318288e+001
2.231777e+002, 7.306023e+001
2.236598e+002, 7.283314e+001
2.241419e+002, 7.253047e+001
2.246240e+002, 7.207159e+001
2.251062e+002, 7.147427e+001
2.255883e+002, 7.105713e+001
2.260704e+002, 7.121040e+001
2.265525e+002, 7.183482e+001
2.270346e+002, 7.209889e+001
2.275167e+002, 7.162573e+001
2.279989e+002, 7.097492e+001
2.284810e+002, 7.067956e+001
2.289631e+002, 7.077296e+001
2.294452e+002, 7.093565e+001
2.299273e+002, 7.097056e+001
2.304094e+002, 7.089503e+001
2.308916e+002, 7.075908e+001
2.313737e+002, 7.054126e+001
2.318558e+002, 7.028197e+001
2.323379e+002, 7.000778e+001
2.328200e+002, 6.971081e+001
2.333021e+002, 6.945411e+001
2.337843e+002, 6.930200e+001
2.342664e+002, 6.921275e+001
2.347485e+002, 6.912532e+001
2.352306e+002, 6.900391e+001
2.357127e+002, 6.889539e+001
2.361948e+002, 6.886225e+001
2.366770e+002, 6.890998e+001
2.371591e+002, 6.901140e+001
2.376412e+002, 6.926625e+001
2.381233e+002, 6.953273e+001
2.386054e+002, 6.963229e+001
2.390875e+002, 6.946745e+001
2.395697e+002, 6.917399e+001
2.400518e+002, 6.897804e+001
2.405339e+002, 6.892099e+001
2.410160e+002, 6.882525e+001
2.414981e+002, 6.851588e+001
2.419802e+002, 6.817944e+001
2.424624e+002, 6.801844e+001
2.429445e+002, 6.812761e+001
2.434266e+002, 6.835909e+001
2.439087e+002, 6.846711e+001
2.443908e+002, 6.842917e+001
2.448729e+002, 6.832161e+001
2.453550e+002, 6.809940e+001
2.458372e+002, 6.785644e+001
2.463193e+002, 6.769640e+001
2.468014e+002, 6.765989e+001
2.472835e+002, 6.764426e+001
2.477656e+002, 6.745831e+001
2.482477e+002, 6.702941e+001
2.487299e+002, 6.659776e+001
2.492120e+002, 6.615579e+001
2.496941e+002, 6.575732e+001
2.501762e+002, 6.545735e+001
2.506583e+002, 6.527037e+001
2.511404e+002, 6.515051e+001
2.516226e+002, 6.504823e+001
2.521047e+002, 6.505919e+001
2.525868e+002, 6.485588e+001
2.530689e+002, 6.414101e+001
2.535510e+002, 6.341091e+001
2.540331e+002, 6.307226e+001
2.545153e+002, 6.320551e+001
2.549974e+002, 6.352125e+001
2.554795e+002, 6.356948e+001
2.559616e+002, 6.319482e+001
2.564437e+002, 6.287846e+001
2.569258e+002, 6.266545e+001
2.574080e+002, 6.247779e+001
2.578901e+002, 6.224927e+001
2.583722e+002, 6.197586e+001
2.588543e+002, 6.171322e+001
2.593364e+002, 6.152852e+001
2.598185e+002, 6.140344e+001
2.603007e+002, 6.142144e+001
2.607828e+002, 6.175155e+001
2.612649e+002, 6.206533e+001
2.617470e+002, 6.220160e+001
2.622291e+002, 6.212240e+001
2.627112e+002, 6.183046e+001
2.631934e+002, 6.128515e+001
2.636755e+002, 6.032682e+001
2.641576e+002, 5.971767e+001
2.646397e+002, 5.965697e+001
2.651218e+002, 5.970553e+001
2.656039e+002, 5.964795e+001
2.660861e+002, 5.946587e+001
2.665682e+002, 5.923781e+001
2.670503e+002, 5.903082e+001
2.675324e+002, 5.883658e+001
2.680145e+002, 5.873577e+001
2.684966e+002, 5.895647e+001
2.689788e+002, 5.904851e+001
2.694609e+002, 5.869116e+001
2.699430e+002, 5.797141e+001
2.704251e+002, 5.724162e+001
2.709072e+002, 5.679205e+001
2.713893e+002, 5.663697e+001
2.718715e+002, 5.644019e+001
2.723536e+002, 5.607254e+001
2.728357e+002, 5.579693e+001
2.733178e+002, 5.581018e+001
2.737999e+002, 5.602168e+001
2.742820e+002, 5.617861e+001
2.747642e+002, 5.610561e+001
2.752463e+002, 5.582188e+001
2.757284e+002, 5.556219e+001
2.762105e+002, 5.522210e+001
2.766926e+002, 5.500640e+001
2.771747e+002, 5.509413e+001
2.776568e+002, 5.536050e+001
2.781389e+002, 5.552781e+001
2.786211e+002, 5.543879e+001
2.791032e+002, 5.514707e+001
2.795853e+002, 5.487262e+001
2.800674e+002, 5.457397e+001
2.805495e+002, 5.433420e+001
2.810316e+002, 5.419216e+001
2.815138e+002, 5.412093e+001
2.819959e+002, 5.409037e+001
2.824780e+002, 5.409856e+001
2.829601e+002, 5.410551e+001
2.834422e+002, 5.398989e+001
2.839243e+002, 5.363798e+001
2.844065e+002, 5.339363e+001
2.848886e+002, 5.339217e+001
2.853707e+002, 5.352320e+001
2.858528e+002, 5.365391e+001
2.863349e+002, 5.375126e+001
2.868170e+002, 5.377080e+001
2.872992e+002, 5.359253e+001
2.877813e+002, 5.311975e+001
2.882634e+002, 5.279504e+001
2.887455e+002, 5.271679e+001
2.892276e+002, 5.281284e+001
2.897097e+002, 5.307924e+001
2.901919e+002, 5.352639e+001
2.906740e+002, 5.391005e+001
2.911561e+002, 5.386417e+001
2.916382e+002, 5.331000e+001
2.921203e+002, 5.294975e+001
2.926024e+002, 5.305277e+001
2.930846e+002, 5.326641e+001
2.935667e+002, 5.319129e+001
2.940488e+002, 5.278165e+001
2.945309e+002, 5.238787e+001
2.950130e+002, 5.239116e+001
2.954951e+002, 5.279269e+001
2.959773e+002, 5.292735e+001
2.964594e+002, 5.252693e+001
2.969415e+002, 5.202887e+001
2.974236e+002, 5.180232e+001
2.979057e+002, 5.184180e+001
2.983878e+002, 5.186097e+001
2.988700e+002, 5.161529e+001
2.993521e+002, 5.117485e+001
2.998342e+002, 5.097870e+001
3.003163e+002, 5.127124e+001
3.007984e+002, 5.158130e+001
3.012805e+002, 5.162019e+001
3.017627e+002, 5.143058e+001
3.022448e+002, 5.121172e+001
3.027269e+002, 5.104509e+001
3.032090e+002, 5.093774e+001
3.036911e+002, 5.090639e+001
3.041732e+002, 5.103353e+001
3.046554e+002, 5.109871e+001
3.051375e+002, 5.090649e+001
3.056196e+002, 5.057073e+001
3.061017e+002, 5.042216e+001
3.065838e+002, 5.064159e+001
3.070659e+002, 5.100105e+001
3.075481e+002, 5.101661e+001
3.080302e+002, 5.060224e+001
3.085123e+002, 5.027091e+001
3.089944e+002, 5.028387e+001
3.094765e+002, 5.046761e+001
3.099586e+002, 5.051931e+001
3.104408e+002, 5.035215e+001
3.109229e+002, 5.008421e+001
3.114050e+002, 4.983387e+001
3.118871e+002, 4.959023e+001
3.123692e+002, 4.946131e+001
3.128513e+002, 4.958867e+001
3.133335e+002, 4.978651e+001
3.138156e+002, 4.979567e+001
3.142977e+002, 4.957146e+001
3.147798e+002, 4.935273e+001
3.152619e+002, 4.940551e+001
3.157440e+002, 4.970455e+001
3.162262e+002, 4.984221e+001
3.167083e+002, 4.967373e+001
3.171904e+002, 4.941089e+001
3.176725e+002, 4.921224e+001
3.181546e+002, 4.908265e+001
3.186367e+002, 4.898088e+001
3.191188e+002, 4.887842e+001
3.196010e+002, 4.878453e+001
3.200831e+002, 4.872790e+001
3.205652e+002, 4.873393e+001
3.210473e+002, 4.875036e+001
3.215294e+002, 4.877819e+001
3.220115e+002, 4.880030e+001
3.224937e+002, 4.873759e+001
3.229758e+002, 4.851936e+001
3.234579e+002, 4.823498e+001
3.239400e+002, 4.812463e+001
3.244221e+002, 4.825405e+001
3.249042e+002, 4.837791e+001
3.253864e+002, 4.844127e+001
3.258685e+002, 4.843650e+001
3.263506e+002, 4.832805e+001
3.268327e+002, 4.808759e+001
3.273148e+002, 4.780242e+001
3.277969e+002, 4.759481e+001
3.282791e+002, 4.745387e+001
3.287612e+002, 4.741148e+001
3.292433e+002, 4.756368e+001
3.297254e+002, 4.777702e+001
3.302075e+002, 4.790882e+001
3.306896e+002, 4.793457e+001
3.311718e+002, 4.787505e+001
3.316539e+002, 4.772800e+001
3.321360e+002, 4.748502e+001
3.326181e+002, 4.728376e+001
3.331002e+002, 4.707434e+001
3.335823e+002, 4.694995e+001
3.340645e+002, 4.705590e+001
3.345466e+002, 4.735604e+001
3.350287e+002, 4.759105e+001
3.355108e+002, 4.756510e+001
3.359929e+002, 4.731346e+001
3.364750e+002, 4.713539e+001
3.369572e+002, 4.706651e+001
3.374393e+002, 4.702145e+001
3.379214e+002, 4.699042e+001
3.384035e+002, 4.695636e+001
3.388856e+002, 4.687022e+001
3.393677e+002, 4.669909e+001
3.398499e+002, 4.648599e+001
3.403320e+002, 4.635621e+001
3.408141e+002, 4.637602e+001
3.412962e+002, 4.634673e+001
3.417783e+002, 4.617432e+001
3.422604e+002, 4.595222e+001
3.427426e+002, 4.580402e+001
3.432247e+002, 4.576551e+001
3.437068e+002, 4.578760e+001
3.441889e+002, 4.580990e+001
3.446710e+002, 4.584349e+001
3.451531e+002, 4.583595e+001
3.456353e+002, 4.572691e+001
3.461174e+002, 4.561861e+001
3.465995e+002, 4.562658e+001
3.470816e+002, 4.573975e+001
3.475637e+002, 4.581336e+001
3.480458e+002, 4.570079e+001
3.485280e+002, 4.538767e+001
3.490101e+002, 4.520578e+001
3.494922e+002, 4.524284e+001
3.499743e+002, 4.529874e+001
3.504564e+002, 4.530986e+001
3.509385e+002, 4.527346e+001
3.514207e+002, 4.518815e+001
3.519028e+002, 4.504642e+001
3.523849e+002, 4.487061e+001
3.528670e+002, 4.475676e+001
3.533491e+002, 4.484612e+001
3.538312e+002, 4.482294e+001
3.543134e+002, 4.448140e+001
3.547955e+002, 4.407373e+001
3.552776e+002, 4.392353e+001
3.557597e+002, 4.413876e+001
3.562418e+002, 4.453386e+001
3.567239e+002, 4.480248e+001
3.572061e+002, 4.491262e+001
3.576882e+002, 4.494001e+001
3.581703e+002, 4.481978e+001
3.586524e+002, 4.467321e+001
3.591345e+002, 4.461349e+001
3.596166e+002, 4.462915e+001
3.600987e+002, 4.459331e+001
3.605808e+002, 4.435709e+001
3.610630e+002, 4.387862e+001
3.615451e+002, 4.361004e+001
3.620272e+002, 4.372652e+001
3.625093e+002, 4.385597e+001
3.629914e+002, 4.392035e+001
3.634735e+002, 4.390300e+001
3.639557e+002, 4.376908e+001
3.644378e+002, 4.348210e+001
3.649199e+002, 4.310926e+001
3.654020e+002, 4.294507e+001
3.658841e+002, 4.320030e+001
3.663662e+002, 4.338399e+001
3.668484e+002, 4.336057e+001
3.673305e+002, 4.328132e+001
3.678126e+002, 4.333665e+001
3.682947e+002, 4.357504e+001
3.687768e+002, 4.382854e+001
3.692589e+002, 4.380109e+001
3.697411e+002, 4.333415e+001
3.702232e+002, 4.301903e+001
3.707053e+002, 4.293586e+001
3.711874e+002, 4.294623e+001
3.716695e+002, 4.302834e+001
3.721516e+002, 4.314953e+001
3.726338e+002, 4.324067e+001
3.731159e+002, 4.324368e+001
3.735980e+002, 4.315967e+001
3.740801e+002, 4.301392e+001
3.745622e+002, 4.270854e+001
3.750443e+002, 4.246361e+001
3.755265e+002, 4.242419e+001
3.760086e+002, 4.247252e+001
3.764907e+002, 4.239953e+001
3.769728e+002, 4.206533e+001
3.774549e+002, 4.164330e+001
3.779370e+002, 4.155573e+001
3.784192e+002, 4.193992e+001
3.789013e+002, 4.227055e+001
3.793834e+002, 4.240520e+001
3.798655e+002, 4.243055e+001
3.803476e+002, 4.236866e+001
3.808297e+002, 4.222685e+001
3.813119e+002, 4.210806e+001
3.817940e+002, 4.216778e+001
3.822761e+002, 4.240020e+001
3.827582e+002, 4.248199e+001
3.832403e+002, 4.225287e+001
3.837224e+002, 4.200328e+001
3.842046e+002, 4.192496e+001
3.846867e+002, 4.199146e+001
3.851688e+002, 4.209854e+001
3.856509e+002, 4.224795e+001
3.861330e+002, 4.238915e+001
3.866151e+002, 4.236786e+001
3.870973e+002, 4.212428e+001
3.875794e+002, 4.193454e+001
3.880615e+002, 4.204834e+001
3.885436e+002, 4.229041e+001
3.890257e+002, 4.242049e+001
3.895078e+002, 4.239525e+001
3.899900e+002, 4.224538e+001
3.904721e+002, 4.187635e+001
3.909542e+002, 4.133834e+001
3.914363e+002, 4.107442e+001
3.919184e+002, 4.135770e+001
3.924005e+002, 4.182077e+001
3.928827e+002, 4.192046e+001
3.933648e+002, 4.163221e+001
3.938469e+002, 4.139155e+001
3.943290e+002, 4.141520e+001
3.948111e+002, 4.157707e+001
3.952932e+002, 4.168767e+001
3.957754e+002, 4.172098e+001
3.962575e+002, 4.170844e+001
3.967396e+002, 4.168422e+001
3.972217e+002, 4.163953e+001
3.977038e+002, 4.151874e+001
3.981859e+002, 4.118128e+001
3.986681e+002, 4.088691e+001
3.991501e+002, 4.083193e+001
3.996323e+002, 4.097198e+001
4.001144e+002, 4.114703e+001
4.005965e+002, 4.128983e+001
4.010786e+002, 4.139544e+001
4.015607e+002, 4.143896e+001
4.020428e+002, 4.137545e+001
4.025250e+002, 4.133855e+001
4.030071e+002, 4.143176e+001
4.034892e+002, 4.152656e+001
4.039713e+002, 4.144367e+001
4.044534e+002, 4.115164e+001
4.049355e+002, 4.080212e+001
4.054177e+002, 4.057465e+001
4.058998e+002, 4.050356e+001
4.063819e+002, 4.039525e+001
4.068640e+002, 4.012725e+001
4.073461e+002, 3.994227e+001
4.078282e+002, 4.002030e+001
4.083104e+002, 4.028333e+001
4.087925e+002, 4.052869e+001
4.092746e+002, 4.063239e+001
4.097567e+002, 4.061794e+001
4.102388e+002, 4.059611e+001
4.107209e+002, 4.056672e+001
4.112031e+002, 4.052917e+001
4.116852e+002, 4.046424e+001
4.121673e+002, 4.040162e+001
4.126494e+002, 4.037836e+001
4.131315e+002, 4.040008e+001
4.136136e+002, 4.043042e+001
4.140958e+002, 4.041958e+001
4.145779e+002, 4.035724e+001
4.150600e+002, 4.029480e+001
4.155421e+002, 4.023453e+001
4.160242e+002, 4.017242e+001
4.165063e+002, 4.009295e+001
4.169885e+002, 4.000978e+001
4.174706e+002, 3.995130e+001
4.179527e+002, 3.992989e+001
4.184348e+002, 3.995099e+001
4.189169e+002, 4.005444e+001
4.193990e+002, 4.031468e+001
4.198812e+002, 4.048842e+001
4.203633e+002, 4.039478e+001
4.208454e+002, 4.024229e+001
4.213275e+002, 4.027148e+001
4.218096e+002, 4.054724e+001
4.222917e+002, 4.078790e+001
4.227739e+002, 4.060897e+001
4.232560e+002, 4.004006e+001
4.237381e+002, 3.971641e+001
4.242202e+002, 3.985389e+001
4.247023e+002, 4.009418e+001
4.251844e+002, 4.014798e+001
4.256666e+002, 4.006286e+001
4.261487e+002, 4.001239e+001
4.266308e+002, 4.010561e+001
4.271129e+002, 4.025869e+001
4.275950e+002, 4.035941e+001
4.280771e+002, 4.040812e+001
4.285593e+002, 4.038688e+001
4.290414e+002, 4.020525e+001
4.295235e+002, 3.999201e+001
4.300056e+002, 4.004545e+001
4.304877e+002, 4.053556e+001
4.309698e+002, 4.090809e+001
4.314520e+002, 4.079585e+001
4.319341e+002, 4.038683e+001
4.324162e+002, 4.004475e+001
4.328983e+002, 3.986044e+001
4.333804e+002, 3.975492e+001
4.338625e+002, 3.963005e+001
4.343447e+002, 3.947534e+001
4.348268e+002, 3.943256e+001
4.353089e+002, 3.961369e+001
4.357910e+002, 3.981656e+001
4.362731e+002, 3.987570e+001
4.367552e+002, 3.983181e+001
4.372374e+002, 3.988072e+001
4.377195e+002, 4.016832e+001
4.382016e+002, 4.056971e+001
4.386837e+002, 4.059956e+001
4.391658e+002, 3.975383e+001
4.396479e+002, 3.917950e+001
4.401301e+002, 3.907530e+001
4.406122e+002, 3.920675e+001
4.410943e+002, 3.939753e+001
4.415764e+002, 3.959116e+001
4.420585e+002, 3.977706e+001
4.425406e+002, 3.994217e+001
4.430227e+002, 4.008645e+001
4.435049e+002, 4.021407e+001
4.439870e+002, 4.042969e+001
4.444691e+002, 4.051785e+001
4.449512e+002, 4.029268e+001
4.454333e+002, 3.991674e+001
4.459154e+002, 3.964676e+001
4.463976e+002, 3.961696e+001
4.468797e+002, 3.975957e+001
4.473618e+002, 3.996650e+001
4.478439e+002, 4.031946e+001
4.483260e+002, 4.049026e+001
4.488081e+002, 4.019658e+001
4.492903e+002, 3.986333e+001
4.497724e+002, 3.975075e+001
4.502545e+002, 3.987349e+001
4.507366e+002, 4.009418e+001
4.512187e+002, 4.041413e+001
4.517008e+002, 4.076616e+001
4.521830e+002, 4.079979e+001
4.526651e+002, 4.037328e+001
4.531472e+002, 3.996737e+001
4.536293e+002, 3.987997e+001
4.541114e+002, 3.998965e+001
4.545935e+002, 4.017267e+001
4.550757e+002, 4.048722e+001
4.555578e+002, 4.070449e+001
4.560399e+002, 4.052311e+001
4.565220e+002, 4.004982e+001
4.570041e+002, 3.976377e+001
4.574862e+002, 3.983443e+001
4.579684e+002, 4.006522e+001
4.584505e+002, 4.023539e+001
4.589326e+002, 4.035064e+001
4.594147e+002, 4.039447e+001
4.598968e+002, 4.033664e+001
4.603789e+002, 4.022540e+001
4.608611e+002, 4.007037e+001
4.613432e+002, 3.988952e+001
4.618253e+002, 3.974337e+001
4.623074e+002, 3.965672e+001
4.627895e+002, 3.964515e+001
4.632716e+002, 3.977843e+001
4.637538e+002, 4.033102e+001
4.642359e+002, 4.066090e+001
4.647180e+002, 4.049670e+001
4.652001e+002, 4.018541e+001
4.656822e+002, 4.012269e+001
4.661643e+002, 4.036242e+001
4.666465e+002, 4.062690e+001
4.671286e+002, 4.059742e+001
4.676107e+002, 4.023219e+001
4.680928e+002, 3.997105e+001
4.685749e+002, 3.985598e+001
4.690570e+002, 3.980299e+001
4.695392e+002, 3.984075e+001
4.700213e+002, 3.991405e+001
4.705034e+002, 3.994945e+001
4.709855e+002, 3.991470e+001
4.714676e+002, 3.982987e+001
4.719497e+002, 3.971253e+001
4.724319e+002, 3.954082e+001
4.729140e+002, 3.943245e+001
4.733961e+002, 3.937608e+001
4.738782e+002, 3.942088e+001
4.743603e+002, 3.968197e+001
4.748424e+002, 4.009445e+001
4.753246e+002, 4.041312e+001
4.758067e+002, 4.046316e+001
4.762888e+002, 4.033040e+001
4.767709e+002, 4.016317e+001
4.772530e+002, 3.994149e+001
4.777351e+002, 3.982153e+001
4.782173e+002, 3.994533e+001
4.786994e+002, 4.018089e+001
4.791815e+002, 4.031164e+001
4.796636e+002, 4.030306e+001
4.801457e+002, 4.028507e+001
4.806278e+002, 4.036185e+001
4.811100e+002, 4.046283e+001
4.815920e+002, 4.043481e+001
4.820742e+002, 4.024580e+001
4.825563e+002, 4.004432e+001
4.830384e+002, 3.997208e+001
4.835205e+002, 4.002665e+001
4.840026e+002, 4.001081e+001
4.844847e+002, 3.978812e+001
4.849669e+002, 3.964632e+001
4.854490e+002, 3.980501e+001
4.859311e+002, 4.010232e+001
4.864132e+002, 4.022693e+001
4.868953e+002, 4.006470e+001
4.873774e+002, 3.979438e+001
4.878596e+002, 3.971172e+001
4.883417e+002, 3.988438e+001
4.888238e+002, 4.006605e+001
4.893059e+002, 4.034041e+001
4.897880e+002, 4.054338e+001
4.902701e+002, 4.057187e+001
4.907523e+002, 4.046450e+001
4.912344e+002, 4.030925e+001
4.917165e+002, 4.015147e+001
4.921986e+002, 4.000337e+001
4.926807e+002, 3.988737e+001
4.931628e+002, 3.977753e+001
4.936450e+002, 3.977293e+001
4.941271e+002, 4.003072e+001
4.946092e+002, 4.030296e+001
4.950913e+002, 4.043168e+001
4.955734e+002, 4.040720e+001
4.960555e+002, 4.030486e+001
4.965377e+002, 4.010787e+001
4.970198e+002, 3.987796e+001
4.975019e+002, 3.981008e+001
4.979840e+002, 3.994086e+001
4.984661e+002, 4.007692e+001
4.989482e+002, 4.009709e+001
4.994304e+002, 4.006166e+001
4.999125e+002, 4.010123e+001
5.003946e+002, 4.027880e+001
5.008767e+002, 4.039314e+001
5.013588e+002, 4.028208e+001
5.018409e+002, 4.005760e+001
5.023231e+002, 3.992971e+001
5.028052e+002, 3.994251e+001
5.032873e+002, 3.997595e+001
5.037694e+002, 3.990499e+001
5.042515e+002, 3.972417e+001
5.047336e+002, 3.964336e+001
5.052158e+002, 3.976660e+001
5.056979e+002, 3.986195e+001
5.061800e+002, 3.980680e+001
5.066621e+002, 3.968274e+001
5.071442e+002, 3.963258e+001
5.076263e+002, 3.970407e+001
5.081085e+002, 3.980371e+001
5.085906e+002, 3.977989e+001
5.090727e+002, 3.958762e+001
5.095548e+002, 3.943384e+001
5.100369e+002, 3.923344e+001
5.105190e+002, 3.915773e+001
5.110012e+002, 3.940853e+001
5.114833e+002, 3.981449e+001
5.119654e+002, 4.003377e+001
5.124475e+002, 3.986468e+001
5.129296e+002, 3.953348e+001
5.134117e+002, 3.947280e+001
5.138939e+002, 3.972557e+001
5.143760e+002, 3.991592e+001
5.148581e+002, 3.993350e+001
5.153402e+002, 3.989075e+001
5.158223e+002, 3.993987e+001
5.163044e+002, 4.004623e+001
5.167866e+002, 3.997863e+001
5.172687e+002, 3.944290e+001
5.177508e+002, 3.879329e+001
5.182329e+002, 3.850577e+001
5.187150e+002, 3.856592e+001
5.191971e+002, 3.868882e+001
5.196793e+002, 3.875978e+001
5.201614e+002, 3.879035e+001
5.206435e+002, 3.878785e+001
5.211256e+002, 3.870800e+001
5.216077e+002, 3.872509e+001
5.220898e+002, 3.898207e+001
5.225720e+002, 3.926814e+001
5.230541e+002, 3.939523e+001
5.235362e+002, 3.936116e+001
5.240183e+002, 3.925428e+001
5.245004e+002, 3.912284e+001
5.249825e+002, 3.899186e+001
5.254647e+002, 3.899889e+001
5.259468e+002, 3.933641e+001
5.264289e+002, 3.953518e+001
5.269110e+002, 3.946975e+001
5.273931e+002, 3.931744e+001
5.278752e+002, 3.922521e+001
5.283574e+002, 3.920642e+001
5.288395e+002, 3.917177e+001
5.293216e+002, 3.899522e+001
5.298037e+002, 3.872681e+001
5.302858e+002, 3.870510e+001
5.307679e+002, 3.904797e+001
5.312501e+002, 3.936443e+001
5.317322e+002, 3.947094e+001
5.322143e+002, 3.947159e+001
5.326964e+002, 3.947477e+001
5.331785e+002, 3.950449e+001
5.336606e+002, 3.947564e+001
5.341428e+002, 3.926844e+001
5.346249e+002, 3.897516e+001
5.351070e+002, 3.878274e+001
5.355891e+002, 3.871472e+001
5.360712e+002, 3.876218e+001
5.365533e+002, 3.898211e+001
5.370355e+002, 3.931693e+001
5.375176e+002, 3.941999e+001
5.379997e+002, 3.908378e+001
5.384818e+002, 3.879230e+001
5.389639e+002, 3.869647e+001
5.394460e+002, 3.871312e+001
5.399282e+002, 3.876273e+001
5.404103e+002, 3.881786e+001
5.408924e+002, 3.884932e+001
5.413745e+002, 3.882110e+001
5.418566e+002, 3.873082e+001
5.423387e+002, 3.866421e+001
5.428209e+002, 3.866777e+001
5.433029e+002, 3.863929e+001
5.437850e+002, 3.852058e+001
5.442672e+002, 3.837782e+001
5.447493e+002, 3.827554e+001
5.452314e+002, 3.823289e+001
5.457135e+002, 3.825103e+001
5.461956e+002, 3.834417e+001
5.466777e+002, 3.850776e+001
5.471599e+002, 3.869368e+001
5.476420e+002, 3.892539e+001
5.481241e+002, 3.912356e+001
5.486062e+002, 3.928605e+001
5.490883e+002, 3.937118e+001
5.495704e+002, 3.926423e+001
5.500526e+002, 3.883085e+001
5.505347e+002, 3.845122e+001
5.510168e+002, 3.843941e+001
5.514989e+002, 3.863887e+001
5.519810e+002, 3.869684e+001
5.524631e+002, 3.853628e+001
5.529453e+002, 3.837578e+001
5.534274e+002, 3.843309e+001
5.539095e+002, 3.870980e+001
5.543916e+002, 3.889857e+001
5.548737e+002, 3.897649e+001
5.553558e+002, 3.900838e+001
5.558380e+002, 3.898901e+001
5.563201e+002, 3.894420e+001
5.568022e+002, 3.891718e+001
5.572843e+002, 3.891277e+001
5.577664e+002, 3.887470e+001
5.582485e+002, 3.870313e+001
5.587307e+002, 3.838737e+001
5.592128e+002, 3.827410e+001
5.596949e+002, 3.854350e+001
5.601770e+002, 3.876041e+001
5.606591e+002, 3.871758e+001
5.611412e+002, 3.857466e+001
5.616234e+002, 3.854289e+001
5.621055e+002, 3.868547e+001
5.625876e+002, 3.882679e+001
5.630697e+002, 3.880745e+001
5.635518e+002, 3.866295e+001
5.640339e+002, 3.846805e+001
5.645161e+002, 3.819473e+001
5.649982e+002, 3.807290e+001
5.654803e+002, 3.839618e+001
5.659624e+002, 3.900622e+001
5.664445e+002, 3.920551e+001
5.669266e+002, 3.866570e+001
5.674088e+002, 3.818626e+001
5.678909e+002, 3.803286e+001
5.683730e+002, 3.809328e+001
5.688551e+002, 3.829641e+001
5.693372e+002, 3.859415e+001
5.698193e+002, 3.883180e+001
5.703015e+002, 3.884808e+001
5.707836e+002, 3.865800e+001
5.712657e+002, 3.855470e+001
5.717478e+002, 3.865259e+001
5.722299e+002, 3.868307e+001
5.727120e+002, 3.851345e+001
5.731942e+002, 3.831775e+001
5.736763e+002, 3.825581e+001
5.741584e+002, 3.835157e+001
5.746405e+002, 3.852471e+001
5.751226e+002, 3.878328e+001
5.756047e+002, 3.907105e+001
5.760869e+002, 3.912294e+001
5.765690e+002, 3.888858e+001
5.770511e+002, 3.862503e+001
5.775332e+002, 3.841114e+001
5.780153e+002, 3.826758e+001
5.784974e+002, 3.823920e+001
5.789796e+002, 3.836124e+001
5.794617e+002, 3.844161e+001
5.799438e+002, 3.834065e+001
5.804259e+002, 3.820028e+001
5.809080e+002, 3.819410e+001
5.813901e+002, 3.832130e+001
5.818723e+002, 3.847546e+001
5.823544e+002, 3.859493e+001
5.828365e+002, 3.868168e+001
5.833186e+002, 3.874462e+001
5.838007e+002, 3.882485e+001
5.842828e+002, 3.881274e+001
5.847650e+002, 3.858813e+001
5.852471e+002, 3.837609e+001
5.857292e+002, 3.837061e+001
5.862113e+002, 3.851804e+001
5.866934e+002, 3.860054e+001
5.871755e+002, 3.845100e+001
5.876577e+002, 3.821000e+001
5.881398e+002, 3.824342e+001
5.886219e+002, 3.860643e+001
5.891040e+002, 3.886205e+001
5.895861e+002, 3.886079e+001
5.900682e+002, 3.876479e+001
5.905504e+002, 3.872298e+001
5.910325e+002, 3.872637e+001
5.915146e+002, 3.871767e+001
5.919967e+002, 3.866512e+001
5.924788e+002, 3.860579e+001
5.929609e+002, 3.857384e+001
5.934431e+002, 3.856177e+001
5.939252e+002, 3.854305e+001
5.944073e+002, 3.850720e+001
5.948894e+002, 3.847423e+001
5.953715e+002, 3.848268e+001
5.958536e+002, 3.856577e+001
5.963358e+002, 3.853428e+001
5.968179e+002, 3.821201e+001
5.973000e+002, 3.798766e+001
5.977821e+002, 3.807916e+001
5.982642e+002, 3.832432e+001
5.987463e+002, 3.848845e+001
5.992285e+002, 3.849170e+001
5.997106e+002, 3.842309e+001
6.001927e+002, 3.839237e+001
6.006748e+002, 3.839656e+001
6.011569e+002, 3.834042e+001
6.016390e+002, 3.815939e+001
6.021212e+002, 3.804763e+001
6.026033e+002, 3.822596e+001
6.030854e+002, 3.851159e+001
6.035675e+002, 3.860017e+001
6.040496e+002, 3.838016e+001
6.045317e+002, 3.819073e+001
6.050139e+002, 3.825712e+001
6.054960e+002, 3.843525e+001
6.059781e+002, 3.853029e+001
6.064602e+002, 3.851607e+001
6.069423e+002, 3.840767e+001
6.074244e+002, 3.818381e+001
6.079066e+002, 3.790895e+001
6.083887e+002, 3.787940e+001
6.088708e+002, 3.834893e+001
6.093529e+002, 3.870882e+001
6.098350e+002, 3.893726e+001
6.103171e+002, 3.905245e+001
6.107993e+002, 3.902799e+001
6.112814e+002, 3.889758e+001
6.117635e+002, 3.874785e+001
6.122456e+002, 3.862410e+001
6.127277e+002, 3.852970e+001
6.132098e+002, 3.845610e+001
6.136920e+002, 3.839674e+001
6.141741e+002, 3.845513e+001
6.146562e+002, 3.876702e+001
6.151383e+002, 3.905857e+001
6.156204e+002, 3.899152e+001
6.161025e+002, 3.863105e+001
6.165847e+002, 3.836383e+001
6.170668e+002, 3.825891e+001
6.175489e+002, 3.827880e+001
6.180310e+002, 3.849051e+001
6.185131e+002, 3.879367e+001
6.189952e+002, 3.899757e+001
6.194774e+002, 3.904457e+001
6.199595e+002, 3.898040e+001
6.204416e+002, 3.884815e+001
6.209237e+002, 3.864164e+001
6.214058e+002, 3.845398e+001
6.218879e+002, 3.826622e+001
6.223701e+002, 3.812404e+001
6.228522e+002, 3.804227e+001
6.233343e+002, 3.800732e+001
6.238164e+002, 3.800679e+001
6.242985e+002, 3.803811e+001
6.247806e+002, 3.810530e+001
6.252628e+002, 3.823586e+001
6.257448e+002, 3.840126e+001
6.262269e+002, 3.854529e+001
6.267090e+002, 3.867329e+001
6.271912e+002, 3.867699e+001
6.276733e+002, 3.841962e+001
6.281554e+002, 3.809264e+001
6.286375e+002, 3.813020e+001
6.291196e+002, 3.864756e+001
6.296017e+002, 3.891760e+001
6.300839e+002, 3.856501e+001
6.305660e+002, 3.817219e+001
6.310481e+002, 3.821441e+001
6.315302e+002, 3.854187e+001
6.320123e+002, 3.873427e+001
6.324944e+002, 3.859811e+001
6.329766e+002, 3.829485e+001
6.334587e+002, 3.806401e+001
6.339408e+002, 3.788378e+001
6.344229e+002, 3.789552e+001
6.349050e+002, 3.824630e+001
6.353871e+002, 3.860252e+001
6.358693e+002, 3.888338e+001
6.363514e+002, 3.905544e+001
6.368335e+002, 3.902539e+001
6.373156e+002, 3.871879e+001
6.377977e+002, 3.845097e+001
6.382798e+002, 3.852241e+001
6.387620e+002, 3.876483e+001
6.392441e+002, 3.886321e+001
6.397262e+002, 3.878247e+001
6.402083e+002, 3.862297e+001
6.406904e+002, 3.842479e+001
6.411725e+002, 3.822409e+001
6.416547e+002, 3.814131e+001
6.421368e+002, 3.823378e+001
6.426189e+002, 3.836947e+001
6.431010e+002, 3.862262e+001
6.435831e+002, 3.885238e+001
6.440652e+002, 3.898408e+001
6.445474e+002, 3.901626e+001
6.450295e+002, 3.896135e+001
6.455116e+002, 3.881680e+001
6.459937e+002, 3.863218e+001
6.464758e+002, 3.847850e+001
6.469579e+002, 3.835580e+001
6.474401e+002, 3.826871e+001
6.479222e+002, 3.822277e+001
6.484043e+002, 3.820308e+001
6.488864e+002, 3.819155e+001
6.493685e+002, 3.819844e+001
6.498506e+002, 3.826026e+001
6.503328e+002, 3.843779e+001
6.508149e+002, 3.858122e+001
6.512970e+002, 3.865932e+001
6.517791e+002, 3.865662e+001
6.522612e+002, 3.848925e+001
6.527433e+002, 3.819240e+001
6.532255e+002, 3.797516e+001
6.537076e+002, 3.800406e+001
6.541897e+002, 3.820663e+001
6.546718e+002, 3.830559e+001
6.551539e+002, 3.823748e+001
6.556360e+002, 3.821851e+001
6.561182e+002, 3.829697e+001
6.566003e+002, 3.841720e+001
6.570824e+002, 3.862378e+001
6.575645e+002, 3.885304e+001
6.580466e+002, 3.890479e+001
6.585287e+002, 3.857119e+001
6.590109e+002, 3.824535e+001
6.594930e+002, 3.845489e+001
6.599751e+002, 3.896501e+001
6.604572e+002, 3.901490e+001
6.609393e+002, 3.842606e+001
6.614214e+002, 3.787497e+001
6.619036e+002, 3.799836e+001
6.623857e+002, 3.871495e+001
6.628678e+002, 3.913842e+001
6.633499e+002, 3.906448e+001
6.638320e+002, 3.896123e+001
6.643141e+002, 3.881200e+001
6.647963e+002, 3.869099e+001
6.652784e+002, 3.866440e+001
6.657605e+002, 3.872303e+001
6.662426e+002, 3.882018e+001
6.667247e+002, 3.896058e+001
6.672068e+002, 3.906706e+001
6.676890e+002, 3.894712e+001
6.681711e+002, 3.861003e+001
6.686532e+002, 3.839424e+001
6.691353e+002, 3.841322e+001
6.696174e+002, 3.847765e+001
6.700995e+002, 3.837926e+001
6.705817e+002, 3.814777e+001
6.710638e+002, 3.807730e+001
6.715459e+002, 3.832406e+001
6.720280e+002, 3.854485e+001
6.725101e+002, 3.860790e+001
6.729922e+002, 3.860305e+001
6.734744e+002, 3.859271e+001
6.739565e+002, 3.860935e+001
6.744386e+002, 3.873527e+001
6.749207e+002, 3.907815e+001
6.754028e+002, 3.950251e+001
6.758849e+002, 3.950452e+001
6.763671e+002, 3.895307e+001
6.768492e+002, 3.856347e+001
6.773313e+002, 3.853239e+001
6.778134e+002, 3.864084e+001
6.782955e+002, 3.870975e+001
6.787776e+002, 3.876381e+001
6.792598e+002, 3.890089e+001
6.797419e+002, 3.929696e+001
6.802240e+002, 3.958426e+001
6.807061e+002, 3.943526e+001
6.811882e+002, 3.908039e+001
6.816703e+002, 3.887659e+001
6.821525e+002, 3.888429e+001
6.826346e+002, 3.897498e+001
6.831167e+002, 3.905525e+001
6.835988e+002, 3.911764e+001
6.840809e+002, 3.911200e+001
6.845630e+002, 3.895793e+001
6.850452e+002, 3.891209e+001
6.855273e+002, 3.914754e+001
6.860094e+002, 3.937806e+001
6.864915e+002, 3.943451e+001
6.869736e+002, 3.934703e+001
6.874557e+002, 3.921239e+001
6.879379e+002, 3.898095e+001
6.884200e+002, 3.886667e+001
6.889021e+002, 3.926951e+001
6.893842e+002, 3.990150e+001
6.898663e+002, 3.997258e+001
6.903484e+002, 3.935613e+001
6.908306e+002, 3.877775e+001
6.913127e+002, 3.883833e+001
6.917948e+002, 3.938359e+001
6.922769e+002, 3.962830e+001
6.927590e+002, 3.927658e+001
6.932411e+002, 3.909494e+001
6.937233e+002, 3.928083e+001
6.942054e+002, 3.948912e+001
6.946875e+002, 3.952221e+001
6.951696e+002, 3.940357e+001
6.956517e+002, 3.922288e+001
6.961339e+002, 3.899298e+001
6.966160e+002, 3.879845e+001
6.970981e+002, 3.872459e+001
6.975802e+002, 3.876366e+001
6.980623e+002, 3.893246e+001
6.985444e+002, 3.924593e+001
6.990266e+002, 3.948306e+001
6.995087e+002, 3.945172e+001
6.999908e+002, 3.924672e+001
7.004729e+002, 3.923429e+001
7.009550e+002, 3.972575e+001
7.014371e+002, 3.992802e+001
7.019193e+002, 3.953701e+001
7.024014e+002, 3.912642e+001
7.028835e+002, 3.905934e+001
7.033656e+002, 3.924855e+001
7.038477e+002, 3.945697e+001
7.043298e+002, 3.958635e+001
7.048120e+002, 3.966912e+001
7.052941e+002, 3.973194e+001
7.057762e+002, 3.977887e+001
7.062583e+002, 3.985529e+001
7.067404e+002, 3.998373e+001
7.072225e+002, 3.999055e+001
7.077046e+002, 3.968600e+001
7.081867e+002, 3.925758e+001
7.086688e+002, 3.921872e+001
7.091509e+002, 3.979893e+001
7.096331e+002, 4.015962e+001
7.101152e+002, 4.015591e+001
7.105973e+002, 4.000673e+001
7.110794e+002, 3.965580e+001
7.115615e+002, 3.930290e+001
7.120436e+002, 3.935453e+001
7.125258e+002, 3.994563e+001
7.130079e+002, 4.057924e+001
7.134900e+002, 4.063395e+001
7.139721e+002, 4.021255e+001
7.144542e+002, 3.985043e+001
7.149363e+002, 3.954724e+001
7.154185e+002, 3.941438e+001
7.159006e+002, 3.953548e+001
7.163827e+002, 3.982472e+001
7.168648e+002, 4.019477e+001
7.173469e+002, 4.069535e+001
7.178290e+002, 4.097612e+001
7.183112e+002, 4.087776e+001
7.187933e+002, 4.069069e+001
7.192754e+002, 4.048334e+001
7.197575e+002, 4.031034e+001
7.202396e+002, 4.025602e+001
7.207217e+002, 4.033009e+001
7.212039e+002, 4.042881e+001
7.216860e+002, 4.048088e+001
7.221681e+002, 4.046901e+001
7.226502e+002, 4.025265e+001
7.231323e+002, 3.977845e+001
7.236144e+002, 3.955984e+001
7.240966e+002, 3.987445e+001
7.245787e+002, 4.033709e+001
7.250608e+002, 4.047011e+001
7.255429e+002, 4.028315e+001
7.260250e+002, 4.022231e+001
7.265071e+002, 4.048454e+001
7.269893e+002, 4.066895e+001
7.274714e+002, 4.057593e+001
7.279535e+002, 4.036229e+001
7.284356e+002, 4.016166e+001
7.289177e+002, 4.002152e+001
7.293998e+002, 3.999731e+001
7.298820e+002, 4.015940e+001
7.303641e+002, 4.040898e+001
7.308462e+002, 4.048061e+001
7.313283e+002, 4.036343e+001
7.318104e+002, 4.041053e+001
7.322925e+002, 4.077737e+001
7.327747e+002, 4.111268e+001
7.332568e+002, 4.107010e+001
7.337389e+002, 4.073898e+001
7.342210e+002, 4.061330e+001
7.347031e+002, 4.088132e+001
7.351852e+002, 4.106221e+001
7.356674e+002, 4.101196e+001
7.361495e+002, 4.087531e+001
7.366316e+002, 4.073083e+001
7.371137e+002, 4.060838e+001
7.375958e+002, 4.054291e+001
7.380779e+002, 4.055320e+001
7.385601e+002, 4.060859e+001
7.390422e+002, 4.066542e+001
7.395243e+002, 4.072551e+001
7.400064e+002, 4.081606e+001
7.404885e+002, 4.095024e+001
7.409706e+002, 4.106273e+001
7.414528e+002, 4.111073e+001
7.419349e+002, 4.111835e+001
7.424170e+002, 4.113420e+001
7.428991e+002, 4.115279e+001
7.433812e+002, 4.119754e+001
7.438633e+002, 4.130191e+001
7.443455e+002, 4.140059e+001
7.448276e+002, 4.150968e+001
7.453097e+002, 4.157129e+001
7.457918e+002, 4.145991e+001
7.462739e+002, 4.115953e+001
7.467560e+002, 4.086764e+001
7.472382e+002, 4.079964e+001
7.477203e+002, 4.088555e+001
7.482024e+002, 4.091395e+001
7.486845e+002, 4.088369e+001
7.491666e+002, 4.084662e+001
7.496487e+002, 4.082007e+001
7.501309e+002, 4.078971e+001
7.506130e+002, 4.071352e+001
7.510951e+002, 4.058249e+001
7.515772e+002, 4.061272e+001
7.520593e+002, 4.096298e+001
7.525414e+002, 4.125332e+001
7.530236e+002, 4.139676e+001
7.535057e+002, 4.144789e+001
7.539878e+002, 4.140836e+001
7.544699e+002, 4.131946e+001
7.549520e+002, 4.129670e+001
7.554341e+002, 4.141853e+001
7.559163e+002, 4.160905e+001
7.563984e+002, 4.183743e+001
7.568805e+002, 4.205523e+001
7.573626e+002, 4.199067e+001
7.578447e+002, 4.158215e+001
7.583268e+002, 4.116923e+001
7.588090e+002, 4.098016e+001
7.592911e+002, 4.097894e+001
7.597732e+002, 4.104875e+001
7.602553e+002, 4.128015e+001
7.607374e+002, 4.141859e+001
7.612195e+002, 4.140239e+001
7.617017e+002, 4.136637e+001
7.621838e+002, 4.135631e+001
7.626659e+002, 4.137567e+001
7.631480e+002, 4.143540e+001
7.636301e+002, 4.154110e+001
7.641122e+002, 4.162627e+001
7.645944e+002, 4.161989e+001
7.650765e+002, 4.157320e+001
7.655586e+002, 4.157093e+001
7.660407e+002, 4.160748e+001
7.665228e+002, 4.161134e+001
7.670049e+002, 4.154803e+001
7.674871e+002, 4.154102e+001
7.679692e+002, 4.180528e+001
7.684513e+002, 4.236946e+001
7.689334e+002, 4.246034e+001
7.694155e+002, 4.160786e+001
7.698976e+002, 4.105000e+001
7.703798e+002, 4.127651e+001
7.708619e+002, 4.171084e+001
7.713440e+002, 4.194041e+001
7.718261e+002, 4.196858e+001
7.723082e+002, 4.197192e+001
7.727903e+002, 4.203348e+001
7.732725e+002, 4.205904e+001
7.737546e+002, 4.196362e+001
7.742367e+002, 4.179834e+001
7.747188e+002, 4.159393e+001
7.752009e+002, 4.138634e+001
7.756830e+002, 4.131536e+001
7.761652e+002, 4.148615e+001
7.766473e+002, 4.178944e+001
7.771294e+002, 4.196501e+001
7.776115e+002, 4.199587e+001
7.780936e+002, 4.201968e+001
7.785757e+002, 4.206301e+001
7.790579e+002, 4.206598e+001
7.795400e+002, 4.196483e+001
7.800221e+002, 4.181571e+001
7.805042e+002, 4.170469e+001
7.809863e+002, 4.162852e+001
7.814684e+002, 4.161419e+001
7.819506e+002, 4.171029e+001
7.824327e+002, 4.182775e+001
7.829148e+002, 4.193793e+001
7.833969e+002, 4.201974e+001
7.838790e+002, 4.202868e+001
7.843611e+002, 4.196273e+001
7.848433e+002, 4.188994e+001
7.853254e+002, 4.185103e+001
7.858075e+002, 4.186650e+001
7.862896e+002, 4.205138e+001
7.867717e+002, 4.240929e+001
7.872538e+002, 4.262990e+001
7.877360e+002, 4.262001e+001
7.882181e+002, 4.248480e+001
7.887002e+002, 4.221409e+001
7.891823e+002, 4.187397e+001
7.896644e+002, 4.203883e+001
7.901465e+002, 4.344046e+001
7.906286e+002, 4.427200e+001
7.911107e+002, 4.405452e+001
7.915928e+002, 4.354817e+001
7.920750e+002, 4.314130e+001
7.925571e+002, 4.285545e+001
7.930392e+002, 4.260464e+001
7.935213e+002, 4.234856e+001
7.940034e+002, 4.222050e+001
7.944855e+002, 4.251451e+001
7.949677e+002, 4.294341e+001
7.954498e+002, 4.285134e+001
7.959319e+002, 4.230109e+001
7.964140e+002, 4.197536e+001
7.968961e+002, 4.216927e+001
7.973782e+002, 4.255272e+001
7.978604e+002, 4.265630e+001
7.983425e+002, 4.246141e+001
7.988246e+002, 4.244690e+001
7.993067e+002, 4.264890e+001
7.997888e+002, 4.296534e+001
8.002709e+002, 4.366162e+001
8.007531e+002, 4.423206e+001
8.012352e+002, 4.418736e+001
8.017173e+002, 4.363843e+001
8.021994e+002, 4.316923e+001
8.026815e+002, 4.295053e+001
8.031636e+002, 4.281551e+001
8.036458e+002, 4.269643e+001
8.041279e+002, 4.260559e+001
8.046100e+002, 4.257621e+001
8.050921e+002, 4.259203e+001
8.055742e+002, 4.257399e+001
8.060563e+002, 4.247417e+001
8.065385e+002, 4.239827e+001
8.070206e+002, 4.257975e+001
8.075027e+002, 4.298803e+001
8.079848e+002, 4.316936e+001
8.084669e+002, 4.307154e+001
8.089490e+002, 4.291166e+001
8.094312e+002, 4.273974e+001
8.099133e+002, 4.261784e+001
8.103954e+002, 4.265842e+001
8.108775e+002, 4.289537e+001
8.113596e+002, 4.307757e+001
8.118417e+002, 4.325050e+001
8.123239e+002, 4.331212e+001
8.128060e+002, 4.311593e+001
8.132881e+002, 4.288092e+001
8.137702e+002, 4.283404e+001
8.142523e+002, 4.295730e+001
8.147344e+002, 4.306632e+001
8.152166e+002, 4.306568e+001
8.156987e+002, 4.302355e+001
8.161808e+002, 4.296811e+001
8.166629e+002, 4.293525e+001
8.171450e+002, 4.305034e+001
8.176271e+002, 4.330288e+001
8.181093e+002, 4.348633e+001
8.185914e+002, 4.347905e+001
8.190735e+002, 4.335556e+001
8.195556e+002, 4.323972e+001
8.200377e+002, 4.311279e+001
8.205198e+002, 4.312587e+001
8.210020e+002, 4.338367e+001
8.214841e+002, 4.358308e+001
8.219662e+002, 4.359414e+001
8.224483e+002, 4.350082e+001
8.229304e+002, 4.335384e+001
8.234125e+002, 4.316031e+001
8.238947e+002, 4.307487e+001
8.243768e+002, 4.323824e+001
8.248589e+002, 4.338451e+001
8.253410e+002, 4.332912e+001
8.258231e+002, 4.324196e+001
8.263052e+002, 4.339759e+001
8.267874e+002, 4.372634e+001
8.272695e+002, 4.384392e+001
8.277516e+002, 4.349201e+001
8.282337e+002, 4.304506e+001
8.287158e+002, 4.313394e+001
8.291979e+002, 4.359602e+001
8.296801e+002, 4.367863e+001
8.301622e+002, 4.331337e+001
8.306443e+002, 4.306886e+001
8.311264e+002, 4.325458e+001
8.316085e+002, 4.362653e+001
8.320906e+002, 4.377525e+001
8.325728e+002, 4.365377e+001
8.330549e+002, 4.364940e+001
8.335370e+002, 4.394334e+001
8.340191e+002, 4.408947e+001
8.345012e+002, 4.388938e+001
8.349833e+002, 4.359105e+001
8.354655e+002, 4.330985e+001
8.359476e+002, 4.309742e+001
8.364297e+002, 4.312782e+001
8.369118e+002, 4.366017e+001
8.373939e+002, 4.411604e+001
8.378760e+002, 4.405726e+001
8.383582e+002, 4.383628e+001
8.388403e+002, 4.388774e+001
8.393224e+002, 4.417224e+001
8.398045e+002, 4.440728e+001
8.402866e+002, 4.445947e+001
8.407687e+002, 4.442517e+001
8.412509e+002, 4.440092e+001
8.417330e+002, 4.439825e+001
8.422151e+002, 4.454714e+001
8.426972e+002, 4.486996e+001
8.431793e+002, 4.496020e+001
8.436614e+002, 4.460420e+001
8.441436e+002, 4.414818e+001
8.446257e+002, 4.399080e+001
8.451078e+002, 4.412505e+001
8.455899e+002, 4.427797e+001
8.460720e+002, 4.455478e+001
8.465541e+002, 4.469018e+001
8.470363e+002, 4.450489e+001
8.475184e+002, 4.432331e+001
8.480005e+002, 4.439520e+001
8.484826e+002, 4.461937e+001
8.489647e+002, 4.473223e+001
8.494468e+002, 4.463409e+001
8.499290e+002, 4.457076e+001
8.504111e+002, 4.477232e+001
8.508932e+002, 4.499565e+001
8.513753e+002, 4.495507e+001
8.518574e+002, 4.473883e+001
8.523395e+002, 4.459094e+001
8.528217e+002, 4.458089e+001
8.533038e+002, 4.457273e+001
8.537859e+002, 4.439959e+001
8.542680e+002, 4.415716e+001
8.547501e+002, 4.420131e+001
8.552322e+002, 4.453180e+001
8.557144e+002, 4.471049e+001
8.561965e+002, 4.461358e+001
8.566786e+002, 4.451946e+001
8.571607e+002, 4.465647e+001
8.576428e+002, 4.493773e+001
8.581249e+002, 4.507825e+001
8.586071e+002, 4.496677e+001
8.590892e+002, 4.495483e+001
8.595713e+002, 4.522907e+001
8.600534e+002, 4.538185e+001
8.605355e+002, 4.513780e+001
8.610176e+002, 4.476864e+001
8.614998e+002, 4.459713e+001
8.619819e+002, 4.465767e+001
8.624640e+002, 4.479177e+001
8.629461e+002, 4.501161e+001
8.634282e+002, 4.520349e+001
8.639103e+002, 4.526597e+001
8.643925e+002, 4.526460e+001
8.648746e+002, 4.529180e+001
8.653567e+002, 4.535297e+001
8.658388e+002, 4.539260e+001
8.663209e+002, 4.537389e+001
8.668030e+002, 4.535404e+001
8.672852e+002, 4.549633e+001
8.677673e+002, 4.573211e+001
8.682494e+002, 4.559153e+001
8.687315e+002, 4.503077e+001
8.692136e+002, 4.471650e+001
8.696957e+002, 4.495836e+001
8.701779e+002, 4.545657e+001
8.706600e+002, 4.585048e+001
8.711421e+002, 4.614225e+001
8.716242e+002, 4.617128e+001
8.721063e+002, 4.570737e+001
8.725884e+002, 4.538589e+001
8.730705e+002, 4.541779e+001
8.735526e+002, 4.552374e+001
8.740347e+002, 4.555182e+001
8.745168e+002, 4.552435e+001
8.749990e+002, 4.549604e+001
8.754811e+002, 4.544761e+001
8.759632e+002, 4.548570e+001
8.764453e+002, 4.578143e+001
8.769274e+002, 4.604804e+001
8.774095e+002, 4.603328e+001
8.778917e+002, 4.585353e+001
8.783738e+002, 4.572375e+001
8.788559e+002, 4.569188e+001
8.793380e+002, 4.565511e+001
8.798201e+002, 4.550494e+001
8.803022e+002, 4.533813e+001
8.807844e+002, 4.535585e+001
8.812665e+002, 4.549640e+001
8.817486e+002, 4.548787e+001
8.822307e+002, 4.530086e+001
8.827128e+002, 4.522589e+001
8.831949e+002, 4.546317e+001
8.836771e+002, 4.585387e+001
8.841592e+002, 4.607817e+001
8.846413e+002, 4.612953e+001
8.851234e+002, 4.605284e+001
8.856055e+002, 4.579374e+001
8.860876e+002, 4.553492e+001
8.865698e+002, 4.530345e+001
8.870519e+002, 4.513480e+001
8.875340e+002, 4.503957e+001
8.880161e+002, 4.502610e+001
8.884982e+002, 4.521074e+001
8.889803e+002, 4.589823e+001
8.894625e+002, 4.635797e+001
8.899446e+002, 4.628876e+001
8.904267e+002, 4.612080e+001
8.909088e+002, 4.616304e+001
8.913909e+002, 4.632833e+001
8.918730e+002, 4.639145e+001
8.923552e+002, 4.628736e+001
8.928373e+002, 4.617524e+001
8.933194e+002, 4.618154e+001
8.938015e+002, 4.620984e+001
8.942836e+002, 4.609128e+001
8.947657e+002, 4.593267e+001
8.952479e+002, 4.601266e+001
8.957300e+002, 4.635051e+001
8.962121e+002, 4.666793e+001
8.966942e+002, 4.675758e+001
8.971763e+002, 4.669799e+001
8.976584e+002, 4.663264e+001
8.981406e+002, 4.656013e+001
8.986227e+002, 4.642472e+001
8.991048e+002, 4.620372e+001
8.995869e+002, 4.616832e+001
9.000690e+002, 4.649223e+001
9.005511e+002, 4.693962e+001
9.010333e+002, 4.716605e+001
9.015154e+002, 4.716388e+001
9.019975e+002, 4.709715e+001
9.024796e+002, 4.686855e+001
9.029617e+002, 4.675719e+001
9.034438e+002, 4.690144e+001
9.039260e+002, 4.709517e+001
9.044081e+002, 4.726593e+001
9.048902e+002, 4.737128e+001
9.053723e+002, 4.726277e+001
9.058544e+002, 4.677876e+001
9.063365e+002, 4.650112e+001
9.068187e+002, 4.673499e+001
9.073008e+002, 4.704183e+001
9.077829e+002, 4.718909e+001
9.082650e+002, 4.722988e+001
9.087471e+002, 4.723823e+001
9.092292e+002, 4.723912e+001
9.097114e+002, 4.726360e+001
9.101935e+002, 4.734437e+001
9.106756e+002, 4.743266e+001
9.111577e+002, 4.747754e+001
9.116398e+002, 4.749509e+001
9.121219e+002, 4.752617e+001
9.126041e+002, 4.756347e+001
9.130862e+002, 4.754749e+001
9.135683e+002, 4.745012e+001
9.140504e+002, 4.732956e+001
9.145325e+002, 4.723163e+001
9.150146e+002, 4.717770e+001
9.154968e+002, 4.736060e+001
9.159789e+002, 4.779622e+001
9.164610e+002, 4.796861e+001
9.169431e+002, 4.769072e+001
9.174252e+002, 4.740249e+001
9.179073e+002, 4.749156e+001
9.183895e+002, 4.783608e+001
9.188716e+002, 4.797468e+001
9.193537e+002, 4.775602e+001
9.198358e+002, 4.773376e+001
9.203179e+002, 4.817351e+001
9.208000e+002, 4.842746e+001
9.212822e+002, 4.798642e+001
9.217643e+002, 4.739528e+001
9.222464e+002, 4.730334e+001
9.227285e+002, 4.769444e+001
9.232106e+002, 4.795139e+001
9.236927e+002, 4.790903e+001
9.241749e+002, 4.783135e+001
9.246570e+002, 4.776191e+001
9.251391e+002, 4.771080e+001
9.256212e+002, 4.770287e+001
9.261033e+002, 4.771479e+001
9.265854e+002, 4.768440e+001
9.270676e+002, 4.759143e+001
9.275497e+002, 4.754531e+001
9.280318e+002, 4.767613e+001
9.285139e+002, 4.783769e+001
9.289960e+002, 4.783328e+001
9.294781e+002, 4.776623e+001
9.299603e+002, 4.789165e+001
9.304424e+002, 4.820470e+001
9.309245e+002, 4.843357e+001
9.314066e+002, 4.840394e+001
9.318887e+002, 4.821167e+001
9.323708e+002, 4.790750e+001
9.328530e+002, 4.756604e+001
9.333351e+002, 4.756004e+001
9.338172e+002, 4.788677e+001
9.342993e+002, 4.814170e+001
9.347814e+002, 4.816317e+001
9.352635e+002, 4.818480e+001
9.357457e+002, 4.848881e+001
9.362278e+002, 4.899839e+001
9.367099e+002, 4.926065e+001
9.371920e+002, 4.924633e+001
9.376741e+002, 4.907334e+001
9.381563e+002, 4.861108e+001
9.386384e+002, 4.832393e+001
9.391205e+002, 4.859069e+001
9.396026e+002, 4.908732e+001
9.400847e+002, 4.923021e+001
9.405668e+002, 4.895961e+001
9.410490e+002, 4.868886e+001
9.415311e+002, 4.825372e+001
9.420132e+002, 4.804165e+001
9.424953e+002, 4.825267e+001
9.429774e+002, 4.859642e+001
9.434595e+002, 4.893843e+001
9.439417e+002, 4.923179e+001
9.444238e+002, 4.937848e+001
9.449059e+002, 4.932450e+001
9.453880e+002, 4.926082e+001
9.458701e+002, 4.922765e+001
9.463522e+002, 4.923579e+001
9.468344e+002, 4.936302e+001
9.473165e+002, 4.949683e+001
9.477986e+002, 4.947559e+001
9.482807e+002, 4.929591e+001
9.487628e+002, 4.906565e+001
9.492449e+002, 4.879427e+001
9.497271e+002, 4.861737e+001
9.502092e+002, 4.878972e+001
9.506913e+002, 4.906696e+001
9.511734e+002, 4.903523e+001
9.516555e+002, 4.875317e+001
9.521376e+002, 4.849339e+001
9.526198e+002, 4.835523e+001
9.531019e+002, 4.830585e+001
9.535840e+002, 4.830811e+001
9.540661e+002, 4.838358e+001
9.545482e+002, 4.864305e+001
9.550303e+002, 4.904430e+001
9.555124e+002, 4.927941e+001
9.559945e+002, 4.930677e+001
9.564766e+002, 4.935885e+001
9.569587e+002, 4.956829e+001
9.574409e+002, 4.983185e+001
9.579230e+002, 4.999510e+001
9.584051e+002, 5.005867e+001
9.588872e+002, 4.998905e+001
9.593693e+002, 4.974269e+001
9.598514e+002, 4.955511e+001
9.603336e+002, 4.950493e+001
9.608157e+002, 4.945238e+001
9.612978e+002, 4.924667e+001
9.617799e+002, 4.899134e+001
9.622620e+002, 4.899408e+001
9.627441e+002, 4.937189e+001
9.632263e+002, 4.964686e+001
9.637084e+002, 4.981424e+001
9.641905e+002, 4.988207e+001
9.646726e+002, 4.979889e+001
9.651547e+002, 4.966459e+001
9.656368e+002, 4.950718e+001
9.661190e+002, 4.936377e+001
9.666011e+002, 4.939845e+001
9.670832e+002, 4.978723e+001
9.675653e+002, 5.003666e+001
9.680474e+002, 4.988989e+001
9.685295e+002, 4.974061e+001
9.690117e+002, 4.989743e+001
9.694938e+002, 5.014115e+001
9.699759e+002, 5.010143e+001
9.704580e+002, 4.978761e+001
9.709401e+002, 4.964959e+001
9.714222e+002, 5.009727e+001
9.719044e+002, 5.042499e+001
9.723865e+002, 4.994141e+001
9.728686e+002, 4.930626e+001
9.733507e+002, 4.927650e+001
9.738328e+002, 4.968106e+001
9.743149e+002, 5.000533e+001
9.747971e+002, 5.009429e+001
9.752792e+002, 5.013801e+001
9.757613e+002, 5.030582e+001
9.762434e+002, 5.048753e+001
9.767255e+002, 5.052607e+001
9.772076e+002, 5.046881e+001
9.776898e+002, 5.040093e+001
9.781719e+002, 5.034076e+001
9.786540e+002, 5.030965e+001
9.791361e+002, 5.031728e+001
9.796182e+002, 5.032548e+001
9.801003e+002, 5.027978e+001
9.805825e+002, 5.019883e+001
9.810646e+002, 5.012296e+001
9.815467e+002, 5.006226e+001
9.820288e+002, 5.014375e+001
9.825109e+002, 5.039148e+001
9.829930e+002, 5.053995e+001
9.834752e+002, 5.039994e+001
9.839573e+002, 5.013235e+001
9.844394e+002, 5.002570e+001
9.849215e+002, 5.008006e+001
9.854036e+002, 5.033688e+001
9.858857e+002, 5.088273e+001
9.863679e+002, 5.104347e+001
9.868500e+002, 5.049962e+001
9.873321e+002, 5.000732e+001
9.878142e+002, 5.025587e+001
9.882963e+002, 5.095527e+001
9.887784e+002, 5.115857e+001
9.892606e+002, 5.064334e+001
9.897427e+002, 5.043154e+001
9.902248e+002, 5.070091e+001
9.907069e+002, 5.093467e+001
9.911890e+002, 5.100475e+001
9.916711e+002, 5.093658e+001
9.921533e+002, 5.065454e+001
9.926354e+002, 5.023058e+001
9.931175e+002, 5.010402e+001
9.935996e+002, 5.047685e+001
9.940817e+002, 5.078237e+001
9.945638e+002, 5.091798e+001
9.950460e+002, 5.110081e+001
9.955281e+002, 5.157769e+001
9.960102e+002, 5.202945e+001
9.964923e+002, 5.209294e+001
9.969744e+002, 5.178827e+001
9.974565e+002, 5.139153e+001
9.979387e+002, 5.074746e+001
9.984208e+002, 5.036106e+001
9.989029e+002, 5.052495e+001
9.993850e+002, 5.081256e+001
9.998671e+002, 5.100013e+001
1.000349e+003, 5.111936e+001
1.000831e+003, 5.124166e+001
1.001313e+003, 5.137469e+001
1.001796e+003, 5.147264e+001
1.002278e+003, 5.146110e+001
1.002760e+003, 5.149430e+001
1.003242e+003, 5.183165e+001
1.003724e+003, 5.209970e+001
1.004206e+003, 5.179912e+001
1.004688e+003, 5.120502e+001
1.005170e+003, 5.087502e+001
1.005653e+003, 5.094417e+001
1.006135e+003, 5.119610e+001
1.006617e+003, 5.167261e+001
1.007099e+003, 5.203645e+001
1.007581e+003, 5.178286e+001
1.008063e+003, 5.133529e+001
1.008545e+003, 5.137580e+001
1.009027e+003, 5.177583e+001
1.009509e+003, 5.196680e+001
1.009992e+003, 5.176054e+001
1.010474e+003, 5.147850e+001
1.010956e+003, 5.138470e+001
1.011438e+003, 5.139933e+001
1.011920e+003, 5.141354e+001
1.012402e+003, 5.143955e+001
1.012884e+003, 5.153119e+001
1.013366e+003, 5.167073e+001
1.013849e+003, 5.171789e+001
1.014331e+003, 5.161704e+001
1.014813e+003, 5.159313e+001
1.015295e+003, 5.199732e+001
1.015777e+003, 5.258739e+001
1.016259e+003, 5.271541e+001
1.016741e+003, 5.246978e+001
1.017223e+003, 5.220557e+001
1.017705e+003, 5.199482e+001
1.018188e+003, 5.198360e+001
1.018670e+003, 5.225803e+001
1.019152e+003, 5.257634e+001
1.019634e+003, 5.259825e+001
1.020116e+003, 5.237789e+001
1.020598e+003, 5.212760e+001
1.021080e+003, 5.185566e+001
1.021562e+003, 5.180218e+001
1.022044e+003, 5.202008e+001
1.022527e+003, 5.223362e+001
1.023009e+003, 5.227404e+001
1.023491e+003, 5.227468e+001
1.023973e+003, 5.246932e+001
1.024455e+003, 5.284092e+001
1.024937e+003, 5.311536e+001
1.025419e+003, 5.329966e+001
1.025901e+003, 5.328927e+001
1.026384e+003, 5.301722e+001
1.026866e+003, 5.276568e+001
1.027348e+003, 5.271899e+001
1.027830e+003, 5.278056e+001
1.028312e+003, 5.277086e+001
1.028794e+003, 5.268566e+001
1.029276e+003, 5.262720e+001
1.029758e+003, 5.257119e+001
1.030240e+003, 5.264579e+001
1.030723e+003, 5.294413e+001
1.031205e+003, 5.321016e+001
1.031687e+003, 5.324912e+001
1.032169e+003, 5.317966e+001
1.032651e+003, 5.326765e+001
1.033133e+003, 5.355933e+001
1.033615e+003, 5.358266e+001
1.034097e+003, 5.304947e+001
1.034579e+003, 5.291296e+001
1.035062e+003, 5.371633e+001
1.035544e+003, 5.439370e+001
1.036026e+003, 5.410775e+001
1.036508e+003, 5.329445e+001
1.036990e+003, 5.286290e+001
1.037472e+003, 5.287561e+001
1.037954e+003, 5.292130e+001
1.038436e+003, 5.302738e+001
1.038919e+003, 5.312065e+001
1.039401e+003, 5.313906e+001
1.039883e+003, 5.319544e+001
1.040365e+003, 5.342933e+001
1.040847e+003, 5.373202e+001
1.041329e+003, 5.385913e+001
1.041811e+003, 5.377144e+001
1.042293e+003, 5.372267e+001
1.042776e+003, 5.378524e+001
1.043258e+003, 5.379299e+001
1.043740e+003, 5.365400e+001
1.044222e+003, 5.351299e+001
1.044704e+003, 5.348024e+001
1.045186e+003, 5.350632e+001
1.045668e+003, 5.346207e+001
1.046150e+003, 5.330473e+001
1.046632e+003, 5.332974e+001
1.047115e+003, 5.381350e+001
1.047597e+003, 5.414387e+001
1.048079e+003, 5.401836e+001
1.048561e+003, 5.383982e+001
1.049043e+003, 5.388431e+001
1.049525e+003, 5.407595e+001
1.050007e+003, 5.425475e+001
1.050489e+003, 5.440030e+001
1.050971e+003, 5.455679e+001
1.051454e+003, 5.477843e+001
1.051936e+003, 5.494830e+001
1.052418e+003, 5.510743e+001
1.052900e+003, 5.512914e+001
1.053382e+003, 5.473878e+001
1.053864e+003, 5.421780e+001
1.054346e+003, 5.413081e+001
1.054828e+003, 5.456881e+001
1.055311e+003, 5.488546e+001
1.055793e+003, 5.483887e+001
1.056275e+003, 5.474179e+001
1.056757e+003, 5.466952e+001
1.057239e+003, 5.461636e+001
1.057721e+003, 5.452120e+001
1.058203e+003, 5.446521e+001
1.058685e+003, 5.463786e+001
1.059167e+003, 5.505880e+001
1.059650e+003, 5.536166e+001
1.060132e+003, 5.536934e+001
1.060614e+003, 5.531696e+001
1.061096e+003, 5.524053e+001
1.061578e+003, 5.518953e+001
1.062060e+003, 5.522356e+001
1.062542e+003, 5.529795e+001
1.063024e+003, 5.530235e+001
1.063506e+003, 5.523515e+001
1.063989e+003, 5.530068e+001
1.064471e+003, 5.574430e+001
1.064953e+003, 5.609066e+001
1.065435e+003, 5.606060e+001
1.065917e+003, 5.594218e+001
1.066399e+003, 5.597567e+001
1.066881e+003, 5.606016e+001
1.067363e+003, 5.598649e+001
1.067846e+003, 5.574878e+001
1.068328e+003, 5.557446e+001
1.068810e+003, 5.554200e+001
1.069292e+003, 5.559922e+001
1.069774e+003, 5.578928e+001
1.070256e+003, 5.599345e+001
1.070738e+003, 5.623683e+001
1.071220e+003, 5.637339e+001
1.071703e+003, 5.606820e+001
1.072185e+003, 5.540300e+001
1.072667e+003, 5.506280e+001
1.073149e+003, 5.546266e+001
1.073631e+003, 5.584160e+001
1.074113e+003, 5.583049e+001
1.074595e+003, 5.568684e+001
1.075077e+003, 5.549620e+001
1.075559e+003, 5.535068e+001
1.076042e+003, 5.541001e+001
1.076524e+003, 5.562733e+001
1.077006e+003, 5.571633e+001
1.077488e+003, 5.551352e+001
1.077970e+003, 5.538790e+001
1.078452e+003, 5.557735e+001
1.078934e+003, 5.582951e+001
1.079416e+003, 5.607057e+001
1.079898e+003, 5.621020e+001
1.080380e+003, 5.606609e+001
1.080863e+003, 5.573270e+001
1.081345e+003, 5.557567e+001
1.081827e+003, 5.576091e+001
1.082309e+003, 5.585500e+001
1.082791e+003, 5.547252e+001
1.083273e+003, 5.516094e+001
1.083755e+003, 5.531593e+001
1.084237e+003, 5.566893e+001
1.084720e+003, 5.600282e+001
1.085202e+003, 5.625580e+001
1.085684e+003, 5.634941e+001
1.086166e+003, 5.624472e+001
1.086648e+003, 5.616182e+001
1.087130e+003, 5.624029e+001
1.087612e+003, 5.630540e+001
1.088094e+003, 5.628894e+001
1.088577e+003, 5.619781e+001
1.089059e+003, 5.596192e+001
1.089541e+003, 5.568392e+001
1.090023e+003, 5.557331e+001
1.090505e+003, 5.567281e+001
1.090987e+003, 5.582700e+001
1.091469e+003, 5.607796e+001
1.091951e+003, 5.624017e+001
1.092433e+003, 5.617285e+001
1.092916e+003, 5.604708e+001
1.093398e+003, 5.601830e+001
1.093880e+003, 5.601747e+001
1.094362e+003, 5.587943e+001
1.094844e+003, 5.559810e+001
1.095326e+003, 5.541316e+001
1.095808e+003, 5.546917e+001
1.096290e+003, 5.553125e+001
1.096772e+003, 5.548948e+001
1.097255e+003, 5.546561e+001
1.097737e+003, 5.557901e+001
1.098219e+003, 5.573175e+001
1.098701e+003, 5.573775e+001
1.099183e+003, 5.562656e+001
1.099665e+003, 5.570393e+001
1.100147e+003, 5.620259e+001
1.100629e+003, 5.655137e+001
1.101112e+003, 5.647136e+001
1.101594e+003, 5.636288e+001
1.102076e+003, 5.646561e+001
1.102558e+003, 5.660646e+001
1.103040e+003, 5.651298e+001
1.103522e+003, 5.628216e+001
1.104004e+003, 5.637232e+001
1.104486e+003, 5.708191e+001
1.104969e+003, 5.736665e+001
1.105451e+003, 5.663752e+001
1.105933e+003, 5.598188e+001
1.106415e+003, 5.579185e+001
1.106897e+003, 5.580751e+001
1.107379e+003, 5.586200e+001
1.107861e+003, 5.594008e+001
1.108343e+003, 5.604856e+001
1.108825e+003, 5.621012e+001
1.109307e+003, 5.627327e+001
1.109790e+003, 5.612765e+001
1.110272e+003, 5.602096e+001
1.110754e+003, 5.594716e+001
1.111236e+003, 5.598449e+001
1.111718e+003, 5.634034e+001
1.112200e+003, 5.676249e+001
1.112682e+003, 5.682027e+001
1.113164e+003, 5.649406e+001
1.113647e+003, 5.612631e+001
1.114129e+003, 5.544488e+001
1.114611e+003, 5.518505e+001
1.115093e+003, 5.571667e+001
1.115575e+003, 5.624054e+001
1.116057e+003, 5.638700e+001
1.116539e+003, 5.638647e+001
1.117021e+003, 5.646523e+001
1.117504e+003, 5.662922e+001
1.117986e+003, 5.695058e+001
1.118468e+003, 5.769734e+001
1.118950e+003, 5.792230e+001
1.119432e+003, 5.725312e+001
1.119914e+003, 5.679943e+001
1.120396e+003, 5.697915e+001
1.120878e+003, 5.738795e+001
1.121360e+003, 5.779054e+001
1.121843e+003, 5.807590e+001
1.122325e+003, 5.784548e+001
1.122807e+003, 5.693172e+001
1.123289e+003, 5.657438e+001
1.123771e+003, 5.698042e+001
1.124253e+003, 5.721151e+001
1.124735e+003, 5.699503e+001
1.125217e+003, 5.679760e+001
1.125699e+003, 5.692389e+001
1.126182e+003, 5.722785e+001
1.126664e+003, 5.746881e+001
1.127146e+003, 5.764867e+001
1.127628e+003, 5.783051e+001
1.128110e+003, 5.803921e+001
1.128592e+003, 5.796163e+001
1.129074e+003, 5.750425e+001
1.129556e+003, 5.717794e+001
1.130039e+003, 5.723058e+001
1.130521e+003, 5.741749e+001
1.131003e+003, 5.746879e+001
1.131485e+003, 5.741646e+001
1.131967e+003, 5.739131e+001
1.132449e+003, 5.738479e+001
1.132931e+003, 5.716756e+001
1.133413e+003, 5.673885e+001
1.133896e+003, 5.662725e+001
1.134378e+003, 5.699334e+001
1.134860e+003, 5.739708e+001
1.135342e+003, 5.749277e+001
1.135824e+003, 5.744634e+001
1.136306e+003, 5.757781e+001
1.136788e+003, 5.782273e+001
1.137270e+003, 5.789532e+001
1.137752e+003, 5.784135e+001
1.138234e+003, 5.791261e+001
1.138717e+003, 5.814045e+001
1.139199e+003, 5.840290e+001
1.139681e+003, 5.863926e+001
1.140163e+003, 5.875146e+001
1.140645e+003, 5.853259e+001
1.141127e+003, 5.821013e+001
1.141609e+003, 5.826183e+001
1.142091e+003, 5.851006e+001
1.142574e+003, 5.855998e+001
1.143056e+003, 5.842304e+001
1.143538e+003, 5.829577e+001
1.144020e+003, 5.824079e+001
1.144502e+003, 5.818813e+001
1.144984e+003, 5.805213e+001
1.145466e+003, 5.798465e+001
1.145948e+003, 5.824614e+001
1.146431e+003, 5.858550e+001
1.146913e+003, 5.871518e+001
1.147395e+003, 5.866552e+001
1.147877e+003, 5.839832e+001
1.148359e+003, 5.803405e+001
1.148841e+003, 5.804678e+001
1.149323e+003, 5.870439e+001
1.149805e+003, 5.932806e+001
1.150287e+003, 5.948406e+001
1.150770e+003, 5.945988e+001
1.151252e+003, 5.938485e+001
1.151734e+003, 5.930417e+001
1.152216e+003, 5.927186e+001
1.152698e+003, 5.926335e+001
1.153180e+003, 5.919040e+001
1.153662e+003, 5.903582e+001
1.154144e+003, 5.898143e+001
1.154626e+003, 5.914125e+001
1.155109e+003, 5.933567e+001
1.155591e+003, 5.957731e+001
1.156073e+003, 5.975709e+001
1.156555e+003, 5.991925e+001
1.157037e+003, 5.990815e+001
1.157519e+003, 5.929705e+001
1.158001e+003, 5.824070e+001
1.158483e+003, 5.789071e+001
1.158966e+003, 5.881110e+001
1.159448e+003, 5.945195e+001
1.159930e+003, 5.956803e+001
1.160412e+003, 5.959936e+001
1.160894e+003, 5.962592e+001
1.161376e+003, 5.964436e+001
1.161858e+003, 5.956635e+001
1.162340e+003, 5.953178e+001
1.162822e+003, 5.992865e+001
1.163305e+003, 6.085077e+001
1.163787e+003, 6.116264e+001
1.164269e+003, 6.060672e+001
1.164751e+003, 6.017204e+001
1.165233e+003, 5.995434e+001
1.165715e+003, 6.000892e+001
1.166197e+003, 6.048119e+001
1.166679e+003, 6.091169e+001
1.167161e+003, 6.069519e+001
1.167644e+003, 6.004750e+001
1.168126e+003, 5.991416e+001
1.168608e+003, 6.031944e+001
1.169090e+003, 6.044189e+001
1.169572e+003, 6.023656e+001
1.170054e+003, 6.015597e+001
1.170536e+003, 6.032646e+001
1.171018e+003, 6.047796e+001
1.171500e+003, 6.041719e+001
1.171983e+003, 6.028710e+001
1.172465e+003, 6.030550e+001
1.172947e+003, 6.044627e+001
1.173429e+003, 6.068773e+001
1.173911e+003, 6.097175e+001
1.174393e+003, 6.100002e+001
1.174875e+003, 6.081700e+001
1.175357e+003, 6.088960e+001
1.175840e+003, 6.136510e+001
1.176322e+003, 6.174384e+001
1.176804e+003, 6.156610e+001
1.177286e+003, 6.120075e+001
1.177768e+003, 6.110548e+001
1.178250e+003, 6.111541e+001
1.178732e+003, 6.089292e+001
1.179214e+003, 6.062657e+001
1.179697e+003, 6.078468e+001
1.180179e+003, 6.133255e+001
1.180661e+003, 6.181432e+001
1.181143e+003, 6.205467e+001
1.181625e+003, 6.210606e+001
1.182107e+003, 6.192260e+001
1.182589e+003, 6.165226e+001
1.183071e+003, 6.123437e+001
1.183553e+003, 6.091692e+001
1.184036e+003, 6.099963e+001
1.184518e+003, 6.132983e+001
1.185000e+003, 6.161371e+001
1.185482e+003, 6.180889e+001
1.185964e+003, 6.200471e+001
1.186446e+003, 6.234491e+001
1.186928e+003, 6.248956e+001
1.187410e+003, 6.217364e+001
1.187892e+003, 6.191243e+001
1.188375e+003, 6.194914e+001
1.188857e+003, 6.211631e+001
1.189339e+003, 6.229916e+001
1.189821e+003, 6.247536e+001
1.190303e+003, 6.256456e+001
1.190785e+003, 6.253941e+001
1.191267e+003, 6.260537e+001
1.191749e+003, 6.285435e+001
1.192232e+003, 6.292357e+001
1.192714e+003, 6.271101e+001
1.193196e+003, 6.241870e+001
1.193678e+003, 6.209231e+001
1.194160e+003, 6.190547e+001
1.194642e+003, 6.211444e+001
1.195124e+003, 6.258965e+001
1.195606e+003, 6.280525e+001
1.196089e+003, 6.277188e+001
1.196571e+003, 6.278065e+001
1.197053e+003, 6.284105e+001
1.197535e+003, 6.285146e+001
1.198017e+003, 6.279090e+001
1.198499e+003, 6.276910e+001
1.198981e+003, 6.285765e+001
1.199463e+003, 6.296740e+001
1.199945e+003, 6.295228e+001
1.200427e+003, 6.289660e+001
1.200910e+003, 6.301747e+001
1.201392e+003, 6.321057e+001
1.201874e+003, 6.324480e+001
1.202356e+003, 6.313195e+001
1.202838e+003, 6.291708e+001
1.203320e+003, 6.266037e+001
1.203802e+003, 6.265823e+001
1.204284e+003, 6.320370e+001
1.204767e+003, 6.368415e+001
1.205249e+003, 6.352953e+001
1.205731e+003, 6.323063e+001
1.206213e+003, 6.310203e+001
1.206695e+003, 6.313768e+001
1.207177e+003, 6.340897e+001
1.207659e+003, 6.379046e+001
1.208141e+003, 6.397315e+001
1.208624e+003, 6.388522e+001
1.209106e+003, 6.379940e+001
1.209588e+003, 6.368158e+001
1.210070e+003, 6.372091e+001
1.210552e+003, 6.416338e+001
1.211034e+003, 6.452650e+001
1.211516e+003, 6.446622e+001
1.211998e+003, 6.430183e+001
1.212480e+003, 6.438158e+001
1.212963e+003, 6.461670e+001
1.213445e+003, 6.465188e+001
1.213927e+003, 6.441428e+001
1.214409e+003, 6.436288e+001
1.214891e+003, 6.457369e+001
1.215373e+003, 6.465199e+001
1.215855e+003, 6.449754e+001
1.216337e+003, 6.433780e+001
1.216819e+003, 6.429799e+001
1.217302e+003, 6.428094e+001
1.217784e+003, 6.415285e+001
1.218266e+003, 6.397986e+001
1.218748e+003, 6.396249e+001
1.219230e+003, 6.408624e+001
1.219712e+003, 6.434935e+001
1.220194e+003, 6.469334e+001
1.220676e+003, 6.478487e+001
1.221159e+003, 6.459655e+001
1.221641e+003, 6.449954e+001
1.222123e+003, 6.470000e+001
1.222605e+003, 6.489229e+001
1.223087e+003, 6.466863e+001
1.223569e+003, 6.437448e+001
1.224051e+003, 6.444093e+001
1.224533e+003, 6.464960e+001
1.225016e+003, 6.469561e+001
1.225498e+003, 6.465862e+001
1.225980e+003, 6.478520e+001
1.226462e+003, 6.507327e+001
1.226944e+003, 6.524156e+001
1.227426e+003, 6.515437e+001
1.227908e+003, 6.504884e+001
1.228390e+003, 6.499152e+001
1.228872e+003, 6.495006e+001
1.229354e+003, 6.484959e+001
1.229837e+003, 6.482014e+001
1.230319e+003, 6.506718e+001
1.230801e+003, 6.540244e+001
1.231283e+003, 6.545552e+001
1.231765e+003, 6.523973e+001
1.232247e+003, 6.521011e+001
1.232729e+003, 6.548364e+001
1.233211e+003, 6.555064e+001
1.233694e+003, 6.527144e+001
1.234176e+003, 6.524030e+001
1.234658e+003, 6.568948e+001
1.235140e+003, 6.620107e+001
1.235622e+003, 6.649056e+001
1.236104e+003, 6.659947e+001
1.236586e+003, 6.660370e+001
1.237068e+003, 6.648549e+001
1.237551e+003, 6.605608e+001
1.238033e+003, 6.543452e+001
1.238515e+003, 6.512995e+001
1.238997e+003, 6.517191e+001
1.239479e+003, 6.548495e+001
1.239961e+003, 6.598893e+001
1.240443e+003, 6.634949e+001
1.240925e+003, 6.633757e+001
1.241407e+003, 6.620364e+001
1.241890e+003, 6.613565e+001
1.242372e+003, 6.611824e+001
1.242854e+003, 6.618658e+001
1.243336e+003, 6.625652e+001
1.243818e+003, 6.615693e+001
1.244300e+003, 6.600228e+001
1.244782e+003, 6.608407e+001
1.245264e+003, 6.642764e+001
1.245746e+003, 6.669156e+001
1.246229e+003, 6.681278e+001
1.246711e+003, 6.680111e+001
1.247193e+003, 6.653629e+001
1.247675e+003, 6.630267e+001
1.248157e+003, 6.616661e+001
1.248639e+003, 6.613382e+001
1.249121e+003, 6.627644e+001
1.249603e+003, 6.645533e+001
1.250085e+003, 6.638760e+001
1.250568e+003, 6.609776e+001
1.251050e+003, 6.602620e+001
1.251532e+003, 6.618895e+001
1.252014e+003, 6.646176e+001
1.252496e+003, 6.685023e+001
1.252978e+003, 6.683372e+001
1.253460e+003, 6.625909e+001
1.253942e+003, 6.577338e+001
1.254425e+003, 6.582417e+001
1.254907e+003, 6.617176e+001
1.255389e+003, 6.662708e+001
1.255871e+003, 6.704238e+001
1.256353e+003, 6.699958e+001
1.256835e+003, 6.678445e+001
1.257317e+003, 6.700851e+001
1.257799e+003, 6.751237e+001
1.258281e+003, 6.780776e+001
1.258764e+003, 6.779305e+001
1.259246e+003, 6.759919e+001
1.259728e+003, 6.718929e+001
1.260210e+003, 6.696365e+001
1.260692e+003, 6.730529e+001
1.261174e+003, 6.761575e+001
1.261656e+003, 6.758088e+001
1.262138e+003, 6.743755e+001
1.262620e+003, 6.728038e+001
1.263103e+003, 6.719145e+001
1.263585e+003, 6.731133e+001
1.264067e+003, 6.761374e+001
1.264549e+003, 6.789681e+001
1.265031e+003, 6.823126e+001
1.265513e+003, 6.825766e+001
1.265995e+003, 6.785984e+001
1.266477e+003, 6.771910e+001
1.266960e+003, 6.804644e+001
1.267442e+003, 6.817310e+001
1.267924e+003, 6.769088e+001
1.268406e+003, 6.717092e+001
1.268888e+003, 6.733154e+001
1.269370e+003, 6.787135e+001
1.269852e+003, 6.815440e+001
1.270334e+003, 6.823241e+001
1.270817e+003, 6.815858e+001
1.271299e+003, 6.801735e+001
1.271781e+003, 6.800377e+001
1.272263e+003, 6.813255e+001
1.272745e+003, 6.833699e+001
1.273227e+003, 6.859203e+001
1.273709e+003, 6.873755e+001
1.274191e+003, 6.853506e+001
1.274673e+003, 6.840039e+001
1.275156e+003, 6.859770e+001
1.275638e+003, 6.886811e+001
1.276120e+003, 6.908540e+001
1.276602e+003, 6.924552e+001
1.277084e+003, 6.940018e+001
1.277566e+003, 6.949322e+001
1.278048e+003, 6.931759e+001
1.278530e+003, 6.882020e+001
1.279012e+003, 6.854871e+001
1.279495e+003, 6.853040e+001
1.279977e+003, 6.863963e+001
1.280459e+003, 6.888332e+001
1.280941e+003, 6.919805e+001
1.281423e+003, 6.958103e+001
1.281905e+003, 6.984289e+001
1.282387e+003, 6.983296e+001
1.282869e+003, 6.963255e+001
1.283352e+003, 6.927852e+001
1.283834e+003, 6.888644e+001
1.284316e+003, 6.870005e+001
1.284798e+003, 6.872267e+001
##END=



