##NAMES=Chalcocite
##RRUFFID=R050067
##IDEAL CHEMISTRY=Cu^1+^_2_S^2-^
##LOCALITY=Flambeau, Rusk County, Wisconsin, USA
##OWNER=RRUFF
##SOURCE=Rock Currier
##DESCRIPTION=Iridescent blue irregular hexagonal tablet
##STATUS=The identification of this mineral has been confirmed by X-ray diffraction and chemical analysis
##URL=rruff.info/R050067
##MEASURED CHEMISTRY=Cu_2.00_S_1.00_
200.5686, 0.0000000E+00
201.0508, 8.855034
201.5329, 24.46757
202.0150, 37.06999
202.4971, 41.68820
202.9792, 44.21514
203.4613, 49.45869
203.9435, 52.14110
204.4256, 47.15018
204.9077, 22.36235
205.3898, 1.427095
205.8719, 7.5209998E-02
206.3540, 14.55947
206.8362, 34.49664
207.3183, 44.59674
207.8004, 43.02945
208.2825, 39.07371
208.7646, 36.07730
209.2467, 32.72604
209.7289, 28.66343
210.2110, 23.60166
210.6931, 16.79509
211.1752, 5.201102
211.6573, 3.316430
212.1395, 1.562701
212.6216, 5.358580
213.1037, 31.67005
213.5858, 35.16291
214.0679, 18.12467
214.5500, 1.744502
215.0322, 6.644266
215.5143, 5.936326
215.9964, 17.01691
216.4785, 23.31184
216.9606, 31.22350
217.4427, 46.44715
217.9249, 66.06400
218.4070, 82.07565
218.8891, 87.44411
219.3712, 81.89876
219.8533, 75.38921
220.3354, 67.88428
220.8176, 59.34117
221.2997, 46.34481
221.7818, 32.30354
222.2639, 23.85678
222.7460, 26.22982
223.2281, 38.42771
223.7103, 49.26621
224.1924, 62.05384
224.6745, 69.36647
225.1566, 66.76629
225.6387, 58.35601
226.1208, 49.33166
226.6030, 42.22960
227.0851, 37.82457
227.5672, 39.71650
228.0493, 53.72110
228.5314, 66.59803
229.0135, 77.30565
229.4957, 85.28193
229.9778, 90.00967
230.4599, 91.25899
230.9420, 89.22209
231.4241, 84.37142
231.9062, 76.76958
232.3884, 65.76939
232.8705, 46.49092
233.3526, 26.92141
233.8347, 12.18800
234.3168, 4.324718
234.7989, 5.066080
235.2811, 20.90672
235.7632, 65.72481
236.2453, 92.15276
236.7274, 81.24136
237.2095, 63.66672
237.6916, 61.27361
238.1738, 77.47858
238.6559, 98.65714
239.1380, 107.4303
239.6201, 99.98824
240.1022, 94.17110
240.5843, 88.25240
241.0665, 85.99698
241.5486, 92.07420
242.0307, 104.9582
242.5128, 117.3307
242.9949, 122.2743
243.4770, 119.3675
243.9592, 114.0680
244.4413, 104.8088
244.9234, 94.35029
245.4055, 78.83684
245.8876, 62.39214
246.3697, 55.33974
246.8519, 69.37093
247.3340, 100.9238
247.8161, 116.5895
248.2982, 106.7094
248.7803, 92.66533
249.2624, 80.42943
249.7446, 69.72437
250.2267, 58.68291
250.7088, 44.01649
251.1909, 30.79929
251.6730, 37.19437
252.1551, 78.79209
252.6373, 107.9835
253.1194, 100.2138
253.6015, 77.45596
254.0836, 62.99588
254.5657, 65.75914
255.0478, 77.65112
255.5300, 88.03291
256.0121, 98.47159
256.4942, 101.0783
256.9763, 79.95898
257.4584, 57.92697
257.9406, 54.72691
258.4227, 74.48473
258.9048, 98.61829
259.3869, 108.3981
259.8690, 103.4654
260.3511, 90.78855
260.8333, 56.32606
261.3154, 28.54547
261.7975, 33.03494
262.2796, 68.57719
262.7617, 105.1027
263.2438, 121.5645
263.7260, 120.1541
264.2081, 107.3371
264.6902, 75.58817
265.1723, 46.16871
265.6544, 35.75814
266.1365, 40.18323
266.6187, 46.33784
267.1008, 45.29062
267.5829, 42.28553
268.0650, 50.51822
268.5471, 72.92447
269.0292, 95.86991
269.5114, 112.9051
269.9935, 123.4777
270.4756, 124.3040
270.9577, 105.2325
271.4398, 82.56197
271.9219, 78.27021
272.4041, 93.00298
272.8862, 101.7678
273.3683, 88.90114
273.8504, 64.03848
274.3325, 46.73640
274.8146, 39.15449
275.2968, 36.84249
275.7789, 39.73198
276.2610, 46.23449
276.7431, 49.66103
277.2252, 47.08134
277.7073, 41.05836
278.1895, 34.33376
278.6716, 25.11744
279.1537, 22.42937
279.6358, 35.86033
280.1179, 56.55383
280.6000, 69.18414
281.0822, 70.65982
281.5643, 65.54637
282.0464, 57.96873
282.5285, 46.88038
283.0106, 40.17201
283.4927, 45.62227
283.9749, 51.61697
284.4570, 43.50121
284.9391, 21.61777
285.4212, 4.121880
285.9033, 7.339167
286.3854, 31.06454
286.8676, 47.84298
287.3497, 52.40271
287.8318, 54.08943
288.3139, 58.03807
288.7960, 63.45166
289.2781, 67.23743
289.7603, 67.63066
290.2424, 65.22263
290.7245, 62.38192
291.2066, 58.87663
291.6887, 55.25558
292.1708, 50.27475
292.6530, 45.93064
293.1351, 47.88446
293.6172, 56.89389
294.0993, 67.21654
294.5814, 67.87986
295.0635, 52.55227
295.5457, 38.85729
296.0278, 21.81201
296.5099, 9.822641
296.9920, 9.499107
297.4741, 21.11195
297.9562, 41.09512
298.4384, 68.85044
298.9205, 108.7983
299.4026, 124.9832
299.8847, 93.56594
300.3668, 62.96671
300.8489, 49.71817
301.3311, 50.33147
301.8131, 54.79924
302.2953, 57.09949
302.7774, 57.33472
303.2595, 56.12608
303.7416, 54.69500
304.2237, 49.59572
304.7058, 34.96943
305.1880, 18.96356
305.6701, 9.540014
306.1522, 8.368679
306.6343, 16.61607
307.1164, 40.69229
307.5985, 89.38345
308.0807, 120.6135
308.5628, 112.3124
309.0449, 93.94860
309.5270, 80.17277
310.0091, 73.97570
310.4912, 71.84814
310.9734, 70.17136
311.4555, 69.32573
311.9376, 69.57683
312.4197, 73.46617
312.9018, 74.51079
313.3839, 67.48093
313.8661, 54.77676
314.3482, 42.45712
314.8303, 32.40987
315.3124, 25.14867
315.7945, 22.49676
316.2766, 25.19695
316.7588, 28.23260
317.2409, 29.79850
317.7230, 29.60410
318.2051, 27.51122
318.6872, 24.61854
319.1693, 17.83961
319.6515, 1.800198
320.1336, 14.00255
320.6157, 0.8786770
321.0978, 13.75751
321.5799, 3.460754
322.0620, 14.95895
322.5442, 25.55516
323.0263, 34.11137
323.5084, 46.80072
323.9905, 56.47281
324.4726, 47.76434
324.9547, 18.25828
325.4369, 6.270494
325.9190, 3.800283
326.4011, 52.97743
326.8832, 77.45406
327.3653, 52.14755
327.8474, 25.88977
328.3296, 32.26195
328.8117, 62.54089
329.2938, 87.29888
329.7759, 89.30833
330.2580, 73.01954
330.7401, 56.38528
331.2223, 24.92283
331.7044, 11.87190
332.1865, 41.56404
332.6686, 81.81760
333.1507, 93.00407
333.6328, 64.74711
334.1150, 24.36446
334.5971, 13.97428
335.0792, 48.52531
335.5613, 73.06292
336.0434, 91.49802
336.5255, 97.94253
337.0077, 83.51019
337.4898, 53.03904
337.9719, 19.67699
338.4540, 8.793760
338.9361, 1.000873
339.4182, 2.589839
339.9004, 2.054171
340.3825, 24.91795
340.8646, 32.39117
341.3467, 28.92018
341.8288, 25.48006
342.3109, 26.47948
342.7931, 27.54879
343.2752, 19.93263
343.7573, 1.515730
344.2394, 10.42847
344.7215, 9.021444
345.2036, 1.456339
345.6858, 8.163226
346.1679, 19.45185
346.6500, 29.24875
347.1321, 42.22143
347.6142, 54.44897
348.0963, 53.37863
348.5785, 34.86976
349.0606, 11.86766
349.5427, 12.30685
350.0248, 7.171227
350.5069, 12.09314
350.9890, 3.233605
351.4712, 33.41348
351.9533, 37.49167
352.4354, 15.78504
352.9175, 7.093342
353.3996, 35.28134
353.8817, 81.25820
354.3639, 91.86469
354.8460, 49.35261
355.3281, 15.40687
355.8102, 7.157621
356.2923, 13.88221
356.7744, 25.91264
357.2566, 40.52530
357.7387, 54.60394
358.2208, 65.23549
358.7029, 73.04150
359.1850, 72.82179
359.6671, 57.08515
360.1493, 43.68554
360.6314, 44.84801
361.1135, 54.54224
361.5956, 55.85041
362.0777, 37.83500
362.5598, 8.160410
363.0420, 5.491406
363.5241, 10.46027
364.0062, 21.04725
364.4883, 18.31932
364.9704, 11.51181
365.4525, 9.974839
365.9347, 15.01405
366.4168, 18.32670
366.8989, 5.140820
367.3810, 11.59996
367.8631, 22.33446
368.3452, 5.980371
368.8274, 24.59460
369.3095, 30.89269
369.7916, 19.82356
370.2737, 8.137680
370.7558, 0.9292920
371.2379, 0.1816590
371.7201, 12.68265
372.2022, 42.03469
372.6843, 60.09466
373.1664, 45.18531
373.6485, 18.16603
374.1306, 12.17694
374.6128, 33.71169
375.0949, 56.32883
375.5770, 66.11873
376.0591, 67.27673
376.5412, 67.95709
377.0233, 69.87267
377.5055, 70.92792
377.9876, 69.07957
378.4697, 65.24372
378.9518, 55.06980
379.4339, 28.35282
379.9160, 6.500022
380.3982, 5.293218
380.8803, 18.40086
381.3624, 31.05673
381.8445, 35.31503
382.3266, 31.76516
382.8087, 21.81624
383.2909, 2.297365
383.7730, 15.13893
384.2551, 9.552130
384.7372, 5.333622
385.2193, 10.43825
385.7014, 26.37112
386.1836, 35.65587
386.6657, 29.53617
387.1478, 6.512514
387.6299, 2.155361
388.1120, 20.51226
388.5941, 38.15967
389.0763, 31.87771
389.5584, 14.64926
390.0405, 8.546139
390.5226, 25.22501
391.0047, 50.20055
391.4868, 60.07581
391.9690, 53.31657
392.4511, 45.36034
392.9332, 37.38876
393.4153, 32.79053
393.8974, 36.70471
394.3795, 48.23875
394.8617, 55.49649
395.3438, 49.38649
395.8259, 37.49837
396.3080, 32.62566
396.7901, 36.86063
397.2722, 41.66756
397.7544, 42.20660
398.2365, 38.50418
398.7186, 34.60765
399.2007, 23.23332
399.6828, 16.99252
400.1649, 25.53073
400.6471, 41.02079
401.1292, 51.51011
401.6113, 53.10459
402.0934, 45.53853
402.5755, 27.60518
403.0576, 1.168771
403.5398, 13.84646
404.0219, 15.29592
404.5040, 53.99859
404.9861, 62.45594
405.4682, 46.65086
405.9503, 26.40804
406.4325, 13.68162
406.9146, 7.169316
407.3967, 1.473028
407.8788, 3.952851
408.3609, 4.859789
408.8430, 3.683729
409.3252, 15.09186
409.8073, 26.84212
410.2894, 37.82023
410.7715, 42.34310
411.2536, 26.20174
411.7357, 3.485700
412.2179, 3.719305
412.7000, 42.54328
413.1821, 83.84182
413.6642, 69.18561
414.1463, 25.03800
414.6284, 5.446888
415.1106, 43.20471
415.5927, 80.13522
416.0748, 63.48744
416.5569, 10.02262
417.0390, 15.87793
417.5211, 18.89861
418.0033, 3.402999
418.4854, 4.509398
418.9675, 1.187706
419.4496, 6.219433
419.9317, 27.60935
420.4138, 46.20985
420.8960, 43.55095
421.3781, 26.07895
421.8602, 13.56918
422.3423, 19.23353
422.8244, 38.74290
423.3065, 53.54945
423.7887, 63.52526
424.2708, 68.47501
424.7529, 63.07448
425.2350, 55.75338
425.7171, 55.40084
426.1992, 64.28545
426.6814, 75.27245
427.1635, 84.18072
427.6456, 90.44918
428.1277, 83.75023
428.6098, 53.42159
429.0919, 30.49854
429.5741, 40.26508
430.0562, 65.00174
430.5383, 78.03326
431.0204, 68.82498
431.5025, 56.00186
431.9846, 56.45163
432.4668, 66.34714
432.9489, 72.32023
433.4310, 71.10025
433.9131, 64.91974
434.3952, 53.53768
434.8773, 36.64580
435.3595, 23.45625
435.8416, 17.02122
436.3237, 12.17319
436.8058, 1.744534
437.2879, 3.203416
437.7701, 4.379628
438.2522, 13.30213
438.7343, 45.13814
439.2164, 57.74366
439.6985, 33.82899
440.1806, 22.17177
440.6628, 38.54871
441.1449, 54.85631
441.6270, 50.14901
442.1091, 28.39045
442.5912, 8.072625
443.0733, 3.226229
443.5555, 10.51609
444.0376, 20.65659
444.5197, 35.35916
445.0018, 48.19067
445.4839, 61.30943
445.9660, 68.90868
446.4482, 58.99383
446.9303, 27.05955
447.4124, 2.448592
447.8945, 10.68976
448.3766, 37.52527
448.8587, 54.84963
449.3409, 59.10087
449.8230, 52.09393
450.3051, 30.35612
450.7872, 3.171113
451.2693, 3.213031
451.7514, 1.780140
452.2336, 0.9900900
452.7157, 29.33703
453.1978, 62.41673
453.6799, 78.97948
454.1620, 73.75610
454.6441, 55.61573
455.1263, 34.43369
455.6084, 5.805430
456.0905, 7.914016
456.5726, 6.438445
457.0547, 23.94485
457.5368, 42.23703
458.0190, 56.63388
458.5011, 58.86681
458.9832, 43.76443
459.4653, 23.52111
459.9474, 16.13238
460.4295, 21.81275
460.9117, 27.00837
461.3938, 25.61393
461.8759, 26.85027
462.3580, 43.15343
462.8401, 70.64426
463.3222, 85.77343
463.8044, 71.31538
464.2865, 50.41265
464.7686, 45.84070
465.2507, 53.43552
465.7328, 53.33759
466.2149, 35.85951
466.6971, 13.17163
467.1792, 7.251453
467.6613, 25.90916
468.1434, 46.43287
468.6255, 80.39238
469.1076, 106.2809
469.5898, 104.2923
470.0719, 81.75281
470.5540, 62.24622
471.0361, 57.54464
471.5182, 59.66518
472.0003, 57.93888
472.4825, 49.25396
472.9646, 45.25737
473.4467, 56.12489
473.9288, 66.93419
474.4109, 66.79707
474.8930, 54.47527
475.3752, 40.96388
475.8573, 34.25567
476.3394, 29.72225
476.8215, 17.40644
477.3036, 3.027629
477.7857, 7.924052
478.2679, 6.259986
478.7500, 14.30645
479.2321, 28.66779
479.7142, 36.02717
480.1963, 40.36798
480.6784, 40.88700
481.1606, 39.74537
481.6427, 39.87766
482.1248, 40.73312
482.6069, 37.33418
483.0890, 24.38595
483.5711, 5.792727
484.0533, 4.541718
484.5354, 38.91867
485.0175, 60.44702
485.4996, 51.71907
485.9817, 36.46822
486.4638, 36.02853
486.9460, 51.15485
487.4281, 63.75758
487.9102, 54.20115
488.3923, 31.50418
488.8744, 26.91323
489.3565, 44.92589
489.8387, 55.25456
490.3208, 34.07992
490.8029, 0.1495080
491.2850, 5.579883
491.7671, 28.94713
492.2492, 56.30774
492.7314, 50.85146
493.2135, 35.16484
493.6956, 37.19806
494.1777, 58.33247
494.6598, 80.74483
495.1419, 90.11485
495.6241, 86.50195
496.1062, 69.37534
496.5883, 8.049130
497.0704, 0.3728880
497.5525, 3.969059
498.0346, 45.40857
498.5168, 59.48002
498.9989, 42.80145
499.4810, 19.64149
499.9631, 8.196981
500.4452, 6.304548
500.9273, 6.338966
501.4095, 8.387157
501.8916, 12.17179
502.3737, 19.10936
502.8558, 26.84880
503.3379, 31.50916
503.8200, 32.29951
504.3022, 32.98063
504.7843, 31.84106
505.2664, 33.09321
505.7485, 46.33477
506.2306, 69.46370
506.7127, 84.56883
507.1949, 78.27229
507.6770, 56.54668
508.1591, 45.68403
508.6412, 55.43333
509.1233, 61.00804
509.6054, 57.56201
510.0876, 54.19004
510.5697, 62.91284
511.0518, 79.19691
511.5339, 80.92896
512.0161, 41.79732
512.4982, 10.72764
512.9803, 1.670149
513.4624, 13.02422
513.9445, 48.62954
514.4266, 58.94750
514.9088, 52.81799
515.3909, 40.55593
515.8730, 21.04367
516.3551, 9.260211
516.8372, 21.21923
517.3193, 34.39044
517.8015, 18.60735
518.2836, 11.63055
518.7657, 4.457613
519.2478, 5.916269
519.7299, 44.14466
520.2120, 62.41533
520.6942, 21.45046
521.1763, 1.128933
521.6584, 15.85263
522.1405, 35.19577
522.6226, 45.23254
523.1047, 46.28164
523.5869, 41.39470
524.0690, 28.79901
524.5511, 18.62408
525.0332, 35.68820
525.5153, 79.69061
525.9974, 101.0419
526.4796, 82.78517
526.9617, 46.70497
527.4438, 3.370733
527.9259, 13.91290
528.4080, 28.66240
528.8901, 1.565523
529.3723, 60.08907
529.8544, 62.19986
530.3365, 30.17375
530.8186, 8.117200
531.3007, 11.13519
531.7828, 26.63493
532.2650, 38.49780
532.7471, 47.17055
533.2292, 49.64881
533.7113, 41.47316
534.1934, 31.90078
534.6755, 17.53983
535.1577, 5.599150
535.6398, 9.417742
536.1219, 36.16975
536.6040, 60.66623
537.0861, 53.35153
537.5682, 24.19447
538.0504, 5.262411
538.5325, 0.8073120
539.0146, 2.579159
539.4967, 3.977390
539.9788, 7.077667
540.4609, 21.75013
540.9431, 70.34241
541.4252, 98.95998
541.9073, 80.36607
542.3894, 47.56890
542.8715, 30.94935
543.3536, 33.55971
543.8358, 42.79886
544.3179, 50.33079
544.8000, 55.53108
545.2821, 57.84885
545.7642, 58.01978
546.2463, 53.57095
546.7285, 34.62193
547.2106, 17.74601
547.6927, 17.13991
548.1748, 32.20845
548.6569, 50.71029
549.1390, 78.15999
549.6211, 98.50627
550.1032, 87.26554
550.5853, 51.86637
551.0674, 17.64769
551.5496, 7.193240
552.0317, 11.59072
552.5138, 11.71964
552.9959, 24.65397
553.4780, 50.56274
553.9601, 62.23451
554.4423, 69.21126
554.9244, 78.09177
555.4065, 84.64137
555.8886, 73.31535
556.3707, 38.05507
556.8528, 3.392220
557.3350, 4.619808
557.8171, 36.45806
558.2992, 54.59395
558.7813, 51.93670
559.2634, 45.28217
559.7455, 45.82764
560.2277, 50.67517
560.7098, 49.87161
561.1919, 35.93945
561.6740, 29.31764
562.1561, 46.80745
562.6382, 68.42966
563.1204, 68.80309
563.6025, 49.18221
564.0846, 32.94930
564.5667, 38.41003
565.0488, 58.13522
565.5309, 61.02868
566.0131, 37.10800
566.4952, 21.62111
566.9773, 27.72157
567.4594, 38.52967
567.9415, 44.08524
568.4236, 44.93455
568.9058, 46.19480
569.3879, 49.15531
569.8700, 54.25305
570.3521, 63.80198
570.8342, 76.30308
571.3163, 83.94901
571.7985, 82.58699
572.2806, 77.87469
572.7627, 77.81992
573.2448, 84.29482
573.7269, 77.30855
574.2090, 36.47935
574.6912, 7.102604
575.1733, 9.894644
575.6554, 25.07322
576.1375, 28.02118
576.6196, 15.16049
577.1017, 2.432652
577.5839, 2.411901
578.0660, 13.79233
578.5481, 40.94064
579.0302, 88.01402
579.5123, 111.7773
579.9944, 81.55875
580.4766, 26.06177
580.9587, 3.043109
581.4408, 20.17805
581.9229, 30.09208
582.4050, 16.88284
582.8871, 3.123576
583.3693, 5.832357
583.8514, 19.70205
584.3335, 31.37327
584.8156, 34.69027
585.2977, 33.24140
585.7798, 28.12628
586.2620, 19.26776
586.7441, 26.33720
587.2262, 56.36392
587.7083, 84.86257
588.1904, 97.08900
588.6725, 98.90544
589.1547, 99.36482
589.6368, 100.7442
590.1189, 97.96275
590.6010, 83.49212
591.0831, 66.22625
591.5652, 59.07705
592.0474, 61.41184
592.5295, 65.32327
593.0116, 65.35484
593.4937, 62.53292
593.9758, 58.67435
594.4579, 52.80079
594.9401, 48.25256
595.4222, 48.95592
595.9043, 47.68433
596.3864, 36.02027
596.8685, 19.59415
597.3506, 13.18573
597.8328, 25.57040
598.3149, 43.17345
598.7970, 57.49734
599.2791, 67.18901
599.7612, 68.51067
600.2433, 60.73967
600.7255, 45.21049
601.2076, 20.24781
601.6897, 11.30312
602.1718, 0.8009890
602.6539, 6.803745
603.1360, 6.883481
603.6182, 6.536129
604.1003, 2.600272
604.5824, 8.694789
605.0645, 20.76010
605.5466, 18.47297
606.0287, 4.161744
606.5109, 40.89837
606.9930, 38.89709
607.4751, 4.378984
607.9572, 18.89801
608.4393, 43.94072
608.9214, 59.72034
609.4036, 71.26569
609.8857, 78.45596
610.3678, 74.39514
610.8499, 47.62449
611.3320, 24.91453
611.8141, 11.60657
612.2963, 6.123932
612.7784, 9.718158
613.2605, 20.45070
613.7426, 30.55690
614.2247, 33.28335
614.7068, 31.96597
615.1890, 35.62726
615.6711, 44.01131
616.1532, 52.57665
616.6353, 63.06495
617.1174, 68.92252
617.5995, 58.85003
618.0817, 32.43249
618.5638, 17.89323
619.0459, 26.44000
619.5280, 35.78133
620.0101, 37.22264
620.4922, 33.71040
620.9744, 26.10377
621.4565, 16.61587
621.9386, 12.71398
622.4207, 24.38199
622.9028, 45.61756
623.3849, 50.20238
623.8671, 34.74644
624.3492, 24.83372
624.8313, 32.47628
625.3134, 43.40841
625.7955, 36.48898
626.2776, 12.95138
626.7598, 0.4655930
627.2419, 4.484409
627.7240, 15.88920
628.2061, 29.01634
628.6882, 43.29044
629.1703, 59.02349
629.6525, 75.48553
630.1346, 88.62473
630.6167, 94.80887
631.0988, 94.15282
631.5809, 87.04665
632.0630, 72.74898
632.5452, 53.87999
633.0273, 23.33664
633.5094, 3.710733
633.9915, 10.25814
634.4736, 2.847095
634.9557, 21.60512
635.4379, 58.62285
635.9200, 84.39639
636.4021, 70.69180
636.8842, 39.16149
637.3663, 26.38256
637.8484, 39.47025
638.3306, 54.60329
638.8127, 45.75482
639.2948, 18.70023
639.7769, 11.28081
640.2590, 30.22704
640.7411, 44.68004
641.2233, 43.18668
641.7054, 36.11365
642.1875, 33.53030
642.6696, 35.18760
643.1517, 38.46005
643.6339, 43.53808
644.1160, 49.33920
644.5981, 59.10556
645.0802, 67.68382
645.5623, 64.98615
646.0444, 50.25127
646.5266, 34.76631
647.0087, 30.00244
647.4908, 32.73311
647.9729, 26.16534
648.4550, 6.890454
648.9371, 8.266870
649.4193, 1.470354
649.9014, 0.6715160
650.3835, 0.3557810
650.8656, 32.92379
651.3477, 51.50792
651.8298, 40.33657
652.3120, 25.02396
652.7941, 12.40565
653.2762, 5.304803
653.7583, 8.549999
654.2404, 21.93618
654.7225, 40.55368
655.2047, 62.08802
655.6868, 83.58804
656.1689, 94.57916
656.6510, 94.08083
657.1331, 88.30943
657.6152, 74.76640
658.0974, 61.79940
658.5795, 62.69798
659.0616, 72.28664
659.5437, 65.42029
660.0258, 15.42272
660.5079, 1.880174
660.9901, 8.596542
661.4722, 20.48772
661.9543, 46.43420
662.4364, 63.81273
662.9185, 70.18383
663.4006, 62.21794
663.8828, 46.25975
664.3649, 37.59527
664.8470, 39.15015
665.3291, 37.03995
665.8112, 25.36028
666.2933, 12.08949
666.7755, 2.325918
667.2576, 3.584825
667.7397, 5.095953
668.2218, 1.199926
668.7039, 5.360598
669.1860, 11.80433
669.6682, 22.54877
670.1503, 52.96988
670.6324, 90.57619
671.1145, 99.36650
671.5966, 58.77955
672.0787, 3.191033
672.5609, 2.359250
673.0430, 1.392610
673.5251, 2.087972
674.0072, 55.22758
674.4893, 98.91206
674.9714, 111.6300
675.4536, 99.14563
675.9357, 71.97945
676.4178, 12.10339
676.8999, 3.467898
677.3820, 0.1784670
677.8641, 4.482249
678.3463, 15.87752
678.8284, 34.95200
679.3105, 44.07322
679.7926, 40.48190
680.2747, 30.68605
680.7568, 13.74446
681.2390, 3.415217
681.7211, 5.049609
682.2032, 7.674402
682.6853, 25.26885
683.1674, 45.79866
683.6495, 59.85320
684.1317, 49.17563
684.6138, 4.071362
685.0959, 4.091915
685.5780, 11.75754
686.0601, 43.34361
686.5422, 85.45490
687.0244, 119.8682
687.5065, 121.9796
687.9886, 91.83453
688.4707, 63.35880
688.9528, 62.63117
689.4349, 68.00443
689.9171, 47.73295
690.3992, 12.96860
690.8813, 1.228566
691.3634, 14.13244
691.8455, 40.34007
692.3276, 61.69451
692.8098, 77.01950
693.2919, 80.70224
693.7740, 66.97171
694.2561, 54.26689
694.7382, 43.17373
695.2203, 36.74738
695.7025, 41.04449
696.1846, 52.33169
696.6667, 56.47515
697.1488, 44.40508
697.6309, 32.88806
698.1130, 29.17555
698.5952, 32.01768
699.0773, 44.15261
699.5594, 62.35231
700.0415, 73.33651
700.5236, 67.95578
701.0057, 56.11193
701.4879, 61.65171
701.9700, 86.06828
702.4521, 95.11751
702.9342, 80.65137
703.4163, 63.68263
703.8984, 54.64389
704.3806, 52.36523
704.8627, 54.78122
705.3448, 65.27122
705.8269, 70.47981
706.3090, 62.34643
706.7911, 54.11648
707.2733, 56.94651
707.7554, 65.23457
708.2375, 68.37908
708.7196, 62.96229
709.2017, 57.65183
709.6838, 63.71332
710.1660, 75.47797
710.6481, 78.37027
711.1302, 72.50562
711.6123, 62.55541
712.0944, 49.56406
712.5765, 35.41341
713.0587, 21.45502
713.5408, 7.313900
714.0229, 1.417800
714.5050, 5.724697
714.9871, 16.04808
715.4692, 37.36941
715.9514, 59.91913
716.4335, 76.64208
716.9156, 87.62057
717.3977, 96.11564
717.8798, 108.5198
718.3619, 110.9174
718.8441, 81.07896
719.3262, 40.38658
719.8083, 26.12025
720.2904, 40.37129
720.7725, 58.01714
721.2546, 62.32767
721.7368, 59.77681
722.2189, 64.72478
722.7010, 78.95493
723.1831, 89.24040
723.6652, 96.37321
724.1473, 95.74162
724.6295, 79.21178
725.1116, 55.08744
725.5937, 41.47408
726.0758, 42.07235
726.5579, 42.06096
727.0400, 30.97510
727.5222, 26.27421
728.0043, 51.61814
728.4864, 86.70284
728.9685, 91.07527
729.4506, 58.73414
729.9327, 24.12172
730.4149, 22.26390
730.8970, 38.58112
731.3791, 38.48982
731.8612, 23.27882
732.3433, 5.939110
732.8254, 4.441889
733.3076, 0.4965430
733.7897, 9.878579
734.2718, 63.20127
734.7539, 82.36302
735.2360, 41.08429
735.7181, 10.99477
736.2003, 9.131311
736.6824, 12.22756
737.1645, 6.091611
737.6466, 6.617821
738.1287, 1.397874
738.6108, 14.59486
739.0930, 14.45007
739.5751, 2.927415
740.0572, 46.27068
740.5393, 65.37350
741.0214, 62.78960
741.5035, 57.31730
741.9857, 57.75545
742.4678, 58.34509
742.9499, 48.41725
743.4320, 29.98698
743.9141, 18.67615
744.3962, 15.77628
744.8784, 13.08911
745.3605, 5.345288
745.8426, 8.7344997E-02
746.3247, 13.26330
746.8068, 48.85554
747.2889, 65.48859
747.7711, 47.09260
748.2532, 31.85364
748.7353, 28.34284
749.2174, 32.03393
749.6995, 43.74540
750.1816, 59.09191
750.6638, 62.87621
751.1459, 40.05289
751.6280, 18.19763
752.1101, 30.22840
752.5922, 58.66425
753.0743, 69.84746
753.5565, 62.28233
754.0386, 51.06521
754.5207, 45.52219
755.0028, 42.42522
755.4849, 32.60490
755.9670, 12.96153
756.4492, 13.96839
756.9313, 48.79094
757.4134, 73.00388
757.8955, 60.15069
758.3776, 31.38220
758.8597, 23.57978
759.3419, 38.45536
759.8240, 51.53872
760.3061, 67.10083
760.7882, 73.14664
761.2703, 52.79033
761.7524, 28.75751
762.2346, 26.96618
762.7167, 47.30305
763.1988, 70.84572
763.6809, 90.24976
764.1630, 102.1531
764.6451, 101.4600
765.1273, 90.48192
765.6094, 71.91280
766.0915, 47.48793
766.5736, 24.96814
767.0557, 7.997444
767.5378, 1.301434
768.0200, 21.98489
768.5021, 79.68814
768.9842, 103.5083
769.4663, 78.24740
769.9484, 48.80849
770.4305, 27.37816
770.9127, 17.22462
771.3948, 30.04305
771.8769, 69.35982
772.3590, 84.61337
772.8411, 48.69828
773.3232, 13.22879
773.8054, 3.206724
774.2875, 8.369045
774.7696, 6.885393
775.2517, 7.508410
775.7338, 4.921034
776.2159, 6.401753
776.6981, 17.76100
777.1802, 22.23431
777.6623, 20.74749
778.1444, 12.41303
778.6265, 1.262903
779.1086, 8.106440
779.5908, 4.910726
780.0729, 5.485098
780.5550, 8.097572
781.0371, 0.6078420
781.5192, 11.65122
782.0013, 51.62609
782.4835, 82.66819
782.9656, 89.72202
783.4477, 81.55160
783.9298, 67.17059
784.4119, 46.52773
784.8940, 24.52097
785.3762, 1.427339
785.8583, 17.50609
786.3404, 0.3558840
786.8225, 46.46873
787.3046, 62.87589
787.7867, 53.01292
788.2689, 41.79047
788.7510, 38.83552
789.2331, 40.19688
789.7152, 44.72951
790.1973, 49.45541
790.6794, 46.66577
791.1616, 38.70071
791.6437, 34.69831
792.1258, 38.11725
792.6079, 47.42039
793.0900, 64.96497
793.5721, 88.01479
794.0543, 82.82726
794.5364, 41.94826
795.0185, 22.62780
795.5006, 50.05844
795.9827, 84.26206
796.4648, 82.64602
796.9470, 49.99449
797.4291, 31.02379
797.9112, 36.69566
798.3933, 37.77916
798.8754, 29.50766
799.3575, 19.81966
799.8397, 10.97348
800.3218, 4.669773
800.8039, 5.087169
801.2860, 14.73260
801.7681, 19.96934
802.2502, 5.629944
802.7324, 8.742161
803.2145, 0.6651470
803.6966, 19.25317
804.1787, 29.69177
804.6608, 25.61284
805.1429, 16.15552
805.6251, 6.611334
806.1072, 4.1795000E-02
806.5893, 6.421288
807.0714, 23.44536
807.5535, 32.60179
808.0356, 30.38910
808.5178, 27.03924
808.9999, 30.23240
809.4820, 35.00275
809.9641, 27.81466
810.4462, 3.806297
810.9283, 8.761093
811.4105, 4.898577
811.8926, 12.12569
812.3747, 14.10678
812.8568, 7.902965
813.3389, 5.563463
813.8210, 40.22136
814.3032, 59.22354
814.7853, 9.941599
815.2674, 1.269927
815.7495, 11.17394
816.2316, 57.07297
816.7137, 54.71404
817.1959, 17.51462
817.6780, 6.569675
818.1601, 54.58234
818.6422, 99.71863
819.1243, 73.15435
819.6064, 19.33739
820.0886, 11.82425
820.5707, 41.89344
821.0528, 61.89039
821.5349, 54.50452
822.0170, 36.99664
822.4991, 26.20226
822.9813, 21.90550
823.4634, 23.63618
823.9455, 31.56957
824.4276, 44.71402
824.9097, 66.39324
825.3918, 78.38248
825.8740, 63.75966
826.3561, 31.36499
826.8382, 12.49923
827.3203, 11.89530
827.8024, 11.09031
828.2845, 1.864293
828.7667, 2.907650
829.2488, 35.89594
829.7309, 73.51226
830.2130, 78.39597
830.6951, 48.76028
831.1772, 28.04853
831.6594, 32.94189
832.1415, 40.25208
832.6236, 41.88703
833.1057, 40.47503
833.5878, 35.98639
834.0699, 31.57314
834.5521, 36.45940
835.0342, 57.13038
835.5163, 75.56849
835.9984, 73.38731
836.4805, 58.78539
836.9626, 37.54228
837.4448, 16.60659
837.9269, 19.65581
838.4090, 52.49446
838.8911, 80.86083
839.3732, 63.63417
839.8553, 17.36399
840.3375, 12.28800
840.8196, 49.52288
841.3017, 67.49150
841.7838, 52.00682
842.2659, 32.81448
842.7480, 29.63858
843.2302, 36.37840
843.7123, 39.95757
844.1944, 43.99080
844.6765, 42.51118
845.1586, 32.45387
845.6407, 21.36422
846.1229, 5.876974
846.6050, 5.394092
847.0871, 1.101147
847.5692, 23.20808
848.0513, 33.56685
848.5334, 15.12136
849.0156, 2.626652
849.4977, 11.55859
849.9798, 24.48895
850.4619, 27.97145
850.9440, 24.58321
851.4261, 22.86284
851.9083, 25.66237
852.3904, 26.42858
852.8725, 13.67067
853.3546, 2.757565
853.8367, 16.01236
854.3188, 42.14937
854.8010, 57.41663
855.2831, 57.63542
855.7652, 52.98740
856.2473, 49.70840
856.7294, 49.31455
857.2115, 57.60808
857.6937, 71.51820
858.1758, 77.84570
858.6579, 75.26929
859.1400, 63.32460
859.6221, 40.19477
860.1042, 18.91051
860.5864, 19.19582
861.0685, 41.21030
861.5506, 55.02031
862.0327, 58.35810
862.5148, 62.24757
862.9969, 70.27029
863.4791, 77.20213
863.9612, 78.99986
864.4433, 76.47751
864.9254, 72.21191
865.4075, 64.12500
865.8896, 60.14444
866.3718, 58.99639
866.8539, 58.47961
867.3360, 63.97254
867.8181, 69.30086
868.3002, 64.96461
868.7823, 50.65375
869.2645, 43.68703
869.7466, 54.77547
870.2287, 62.71518
870.7108, 53.19174
871.1929, 44.05505
871.6750, 58.05060
872.1572, 81.92010
872.6393, 80.19446
873.1214, 38.99800
873.6035, 0.8992290
874.0856, 3.239593
874.5677, 8.051222
875.0499, 17.23314
875.5320, 24.51417
876.0141, 34.70338
876.4962, 46.54787
876.9783, 47.02754
877.4604, 24.77728
877.9426, 3.051597
878.4247, 6.281346
878.9068, 8.576969
879.3889, 17.06124
879.8710, 17.94834
880.3531, 19.85837
880.8353, 26.35725
881.3174, 33.35438
881.7995, 36.41387
882.2816, 35.48359
882.7637, 30.44198
883.2458, 21.50152
883.7280, 4.055183
884.2101, 7.372616
884.6922, 13.22339
885.1743, 0.5405770
885.6564, 3.841975
886.1385, 20.09204
886.6207, 33.46354
887.1028, 46.27593
887.5849, 61.42477
888.0670, 71.33768
888.5491, 76.66570
889.0313, 73.62554
889.5134, 48.57243
889.9955, 11.00766
890.4776, 3.035427
890.9597, 57.43216
891.4418, 83.65419
891.9240, 42.68487
892.4061, 1.685877
892.8882, 0.9655620
893.3703, 15.26839
893.8524, 21.36558
894.3345, 14.12180
894.8167, 9.997036
895.2988, 22.79270
895.7809, 31.38175
896.2630, 13.47501
896.7451, 5.879480
897.2272, 4.904001
897.7094, 36.60818
898.1915, 59.89172
898.6736, 64.24392
899.1557, 62.75943
899.6378, 66.14976
900.1199, 69.20244
900.6021, 62.53666
901.0842, 51.40849
901.5663, 48.54718
902.0484, 54.59593
902.5305, 59.55122
903.0126, 55.65185
903.4948, 48.34455
903.9769, 45.17615
904.4590, 44.32526
904.9411, 38.45223
905.4232, 28.74642
905.9053, 27.58035
906.3875, 38.92233
906.8696, 56.74693
907.3517, 77.64206
907.8338, 96.53840
908.3159, 95.12675
908.7980, 73.29888
909.2802, 46.03613
909.7623, 11.69068
910.2444, 1.214636
910.7265, 25.54601
911.2086, 67.48654
911.6907, 90.67728
912.1729, 95.15858
912.6550, 87.82478
913.1371, 61.65128
913.6192, 47.26373
914.1013, 57.89165
914.5834, 65.42792
915.0656, 45.49035
915.5477, 13.45524
916.0298, 6.434435
916.5119, 34.34933
916.9940, 49.98312
917.4761, 44.47886
917.9583, 39.21009
918.4404, 37.20227
918.9225, 38.89857
919.4046, 49.12088
919.8867, 63.69341
920.3688, 66.52946
920.8510, 47.89443
921.3331, 36.57251
921.8152, 52.89394
922.2973, 58.62074
922.7794, 16.23242
923.2615, 10.03563
923.7437, 12.65096
924.2258, 6.027130
924.7079, 38.26035
925.1900, 45.80618
925.6721, 38.96586
926.1542, 5.846837
926.6364, 2.388577
927.1185, 7.945043
927.6006, 5.340682
928.0827, 4.864678
928.5648, 31.44025
929.0469, 53.37638
929.5291, 68.71593
930.0112, 73.75819
930.4933, 56.67451
930.9754, 33.85553
931.4575, 25.44923
931.9396, 30.13403
932.4218, 41.29913
932.9039, 55.99109
933.3860, 61.37793
933.8681, 33.19742
934.3502, 0.1580890
934.8323, 6.692173
935.3145, 34.38694
935.7966, 43.93652
936.2787, 32.78399
936.7608, 21.91688
937.2429, 21.84620
937.7250, 28.17254
938.2072, 36.79578
938.6893, 47.59512
939.1714, 62.86943
939.6535, 79.19533
940.1356, 81.92941
940.6177, 69.41640
941.0999, 59.95415
941.5820, 66.74969
942.0641, 81.06327
942.5462, 96.73866
943.0283, 110.8808
943.5104, 90.55677
943.9926, 37.22816
944.4747, 1.786283
944.9568, 0.1061240
945.4389, 15.51929
945.9210, 36.77895
946.4031, 55.36348
946.8853, 39.74047
947.3674, 7.976313
947.8495, 11.85880
948.3316, 4.904789
948.8137, 2.361372
949.2958, 0.4084210
949.7780, 7.438395
950.2601, 4.642900
950.7422, 7.270873
951.2243, 3.274575
951.7064, 5.980011
952.1885, 14.93712
952.6707, 24.40533
953.1528, 28.46534
953.6349, 21.24968
954.1170, 11.92597
954.5991, 12.67445
955.0812, 23.62631
955.5634, 30.38956
956.0455, 29.06672
956.5276, 37.05233
957.0097, 64.85467
957.4918, 84.77943
957.9739, 80.70020
958.4561, 60.89912
958.9382, 35.06566
959.4203, 1.117279
959.9024, 6.524770
960.3845, 26.71711
960.8666, 44.82596
961.3488, 19.89707
961.8309, 1.191700
962.3130, 19.48624
962.7951, 58.20110
963.2772, 66.19602
963.7593, 35.80305
964.2415, 15.71372
964.7236, 10.14189
965.2057, 8.763208
965.6878, 6.144078
966.1699, 10.83871
966.6520, 37.26847
967.1342, 73.40681
967.6163, 89.07243
968.0984, 78.45080
968.5805, 69.53977
969.0626, 64.61682
969.5447, 60.09449
970.0269, 50.97181
970.5090, 45.93310
970.9911, 57.96959
971.4732, 77.81926
971.9553, 79.63451
972.4374, 55.32781
972.9196, 35.26409
973.4017, 20.45542
973.8838, 13.94817
974.3659, 24.70575
974.8480, 37.50451
975.3301, 36.88937
975.8123, 27.03026
976.2944, 22.88419
976.7765, 27.85059
977.2586, 35.03930
977.7407, 50.09580
978.2228, 58.41076
978.7050, 47.40306
979.1871, 32.50927
979.6692, 29.50718
980.1513, 36.51890
980.6334, 43.05203
981.1155, 46.62957
981.5977, 45.39005
982.0798, 33.02618
982.5619, 24.18974
983.0440, 30.58974
983.5261, 42.41074
984.0082, 49.15471
984.4904, 49.89536
984.9725, 50.44606
985.4546, 53.59868
985.9367, 55.88202
986.4188, 57.42572
986.9009, 54.05499
987.3831, 33.12427
987.8652, 12.90949
988.3473, 20.18016
988.8294, 49.65844
989.3115, 70.50548
989.7936, 73.84093
990.2758, 67.02576
990.7579, 40.69973
991.2400, 18.22192
991.7221, 20.03470
992.2042, 30.33491
992.6863, 25.81532
993.1685, 8.981806
993.6506, 1.737710
994.1327, 15.03827
994.6148, 25.16185
995.0969, 17.53258
995.5790, 7.103571
996.0612, 2.419134
996.5433, 2.992009
997.0254, 16.15808
997.5075, 52.81556
997.9896, 72.13275
998.4717, 57.86897
998.9539, 40.00317
999.4360, 29.22581
999.9181, 22.95296
1000.400, 19.01366
1000.882, 18.84308
1001.364, 29.66975
1001.847, 46.95044
1002.329, 49.16335
1002.811, 20.27178
1003.293, 2.816828
1003.775, 33.91549
1004.257, 64.58306
1004.739, 54.53096
1005.221, 27.69821
1005.703, 15.62330
1006.186, 3.285944
1006.668, 26.53124
1007.150, 44.39834
1007.632, 48.41332
1008.114, 0.8513960
1008.596, 18.70186
1009.078, 10.99639
1009.560, 2.421679
1010.043, 32.24365
1010.525, 3.318933
1011.007, 20.52854
1011.489, 21.74530
1011.971, 35.77726
1012.453, 22.06137
1012.935, 16.91796
1013.417, 39.53550
1013.899, 46.78411
1014.382, 31.04026
1014.864, 47.91236
1015.346, 6.410036
1015.828, 14.31870
1016.310, 43.71146
1016.792, 28.20843
1017.274, 43.57000
1017.756, 46.67490
1018.239, 3.145806
1018.721, 39.96036
1019.203, 42.88072
1019.685, 4.398593
1020.167, 44.32484
1020.649, 11.67415
1021.131, 4.929504
1021.613, 17.92483
1022.095, 10.78696
1022.578, 35.26126
1023.060, 28.86814
1023.542, 19.71741
1024.024, 22.60598
1024.506, 3.144407
1024.988, 23.44265
1025.470, 12.27701
1025.952, 22.59778
1026.435, 37.78939
1026.917, 15.69365
1027.399, 33.07615
1027.881, 1.037205
1028.363, 3.370602
1028.845, 1.499481
1029.327, 33.11132
1029.809, 1.430464
1030.292, 4.463972
1030.774, 22.57416
1031.256, 20.12229
1031.738, 30.00270
1032.220, 3.380433
1032.702, 11.05187
1033.184, 9.271890
1033.666, 40.15720
1034.148, 45.25711
1034.630, 19.25964
1035.113, 5.566194
1035.595, 26.63269
1036.077, 3.852843
1036.559, 26.76271
1037.041, 25.09911
1037.523, 8.186763
1038.005, 1.640901
1038.487, 10.06689
1038.970, 20.16470
1039.452, 37.30553
1039.934, 47.67852
1040.416, 39.79588
1040.898, 26.31045
1041.380, 20.74975
1041.862, 23.11897
1042.344, 35.36445
1042.826, 71.83421
1043.309, 82.15880
1043.791, 44.45142
1044.273, 19.29893
1044.755, 39.04806
1045.237, 65.69586
1045.719, 58.69496
1046.201, 26.15770
1046.683, 6.013247
1047.166, 2.208408
1047.648, 4.068861
1048.130, 6.397890
1048.612, 7.934733
1049.094, 2.410788
1049.576, 20.38321
1050.058, 10.78867
1050.540, 2.907788
1051.022, 6.747888
1051.505, 1.680191
1051.987, 16.07744
1052.469, 25.32604
1052.951, 30.24290
1053.433, 30.71475
1053.915, 27.20514
1054.397, 18.87861
1054.879, 12.56820
1055.361, 22.11798
1055.844, 45.46498
1056.326, 59.20832
1056.808, 63.42420
1057.290, 54.85135
1057.772, 32.73687
1058.254, 17.53311
1058.736, 19.76834
1059.218, 28.72069
1059.701, 30.36868
1060.183, 27.28124
1060.665, 26.46724
1061.147, 27.82948
1061.629, 32.02242
1062.111, 38.48129
1062.593, 42.17680
1063.075, 41.29928
1063.557, 40.87422
1064.040, 47.42298
1064.522, 54.24092
1065.004, 40.70185
1065.486, 16.39454
1065.968, 3.485264
1066.450, 2.668149
1066.932, 12.35398
1067.414, 29.43661
1067.896, 37.01419
1068.379, 19.75359
1068.861, 1.941196
1069.343, 17.17060
1069.825, 42.69577
1070.307, 50.44053
1070.789, 41.96909
1071.271, 13.26607
1071.753, 14.85310
1072.236, 28.91608
1072.718, 0.6914930
1073.200, 28.67868
1073.682, 66.35732
1074.164, 88.88739
1074.646, 72.08337
1075.128, 42.99511
1075.610, 36.87559
1076.093, 47.46983
1076.575, 48.22365
1077.057, 31.42074
1077.539, 16.65796
1078.021, 14.60945
1078.503, 13.61066
1078.985, 2.873543
1079.467, 2.930344
1079.949, 33.21123
1080.432, 90.29756
1080.914, 98.72073
1081.396, 54.43046
1081.878, 25.36571
1082.360, 33.26300
1082.842, 42.10978
1083.324, 52.30660
1083.806, 54.60251
1084.288, 33.72408
1084.771, 11.15225
1085.253, 15.94954
1085.735, 40.29543
1086.217, 46.51996
1086.699, 24.33046
1087.181, 11.78304
1087.663, 12.00818
1088.145, 14.93931
1088.628, 20.05999
1089.110, 23.73590
1089.592, 22.68045
1090.074, 19.54498
1090.556, 20.05559
1091.038, 24.29773
1091.520, 31.28312
1092.002, 43.04692
1092.484, 41.54031
1092.967, 20.63784
1093.449, 7.345348
1093.931, 16.23415
1094.413, 28.19584
1094.895, 16.89694
1095.377, 7.822228
1095.859, 1.135107
1096.341, 5.863187
1096.823, 0.4055190
1097.306, 2.233339
1097.788, 11.43385
1098.270, 30.73218
1098.752, 39.76620
1099.234, 19.26207
1099.716, 6.368861
1100.198, 10.63077
1100.680, 49.51001
1101.163, 65.11693
1101.645, 64.54728
1102.127, 72.73657
1102.609, 90.32645
1103.091, 98.05269
1103.573, 86.56387
1104.055, 69.06105
1104.537, 52.02036
1105.020, 38.67712
1105.502, 31.82954
1105.984, 30.07861
1106.466, 34.95977
1106.948, 43.32459
1107.430, 47.16431
1107.912, 44.90396
1108.394, 39.08629
1108.876, 25.74599
1109.359, 18.20769
1109.841, 26.21587
1110.323, 34.39915
1110.805, 31.80684
1111.287, 25.14257
1111.769, 22.77033
1112.251, 24.44957
1112.733, 25.87134
1113.215, 26.35790
1113.698, 27.50937
1114.180, 35.29740
1114.662, 33.95636
1115.144, 12.78996
1115.626, 7.497941
1116.108, 5.078290
1116.590, 8.409289
1117.072, 1.640992
1117.555, 7.010939
1118.037, 32.63206
1118.519, 83.39780
1119.001, 100.8580
1119.483, 72.91978
1119.965, 47.35886
1120.447, 45.19033
1120.929, 44.74787
1121.411, 21.14459
1121.894, 8.269590
1122.376, 5.133945
1122.858, 28.15246
1123.340, 34.00166
1123.822, 16.37858
1124.304, 10.11957
1124.786, 22.46335
1125.268, 41.49636
1125.750, 60.89882
1126.233, 76.22357
1126.715, 81.83138
1127.197, 80.64211
1127.679, 75.93111
1128.161, 67.98244
1128.643, 55.09292
1129.125, 38.63347
1129.607, 21.99316
1130.090, 7.887877
1130.572, 1.934911
1131.054, 7.888935
1131.536, 14.53425
1132.018, 15.51442
1132.500, 16.07018
1132.982, 20.45201
1133.464, 25.99977
1133.947, 25.75403
1134.429, 23.38224
1134.911, 36.63490
1135.393, 78.33475
1135.875, 98.72542
1136.357, 73.29967
1136.839, 56.74499
1137.321, 66.35944
1137.803, 75.58363
1138.286, 66.59082
1138.768, 50.21179
1139.250, 41.93340
1139.732, 41.19409
1140.214, 42.45005
1140.696, 45.64503
1141.178, 52.43771
1141.660, 63.61523
1142.142, 71.56773
1142.625, 74.07012
1143.107, 67.46709
1143.589, 47.06339
1144.071, 25.42312
1144.553, 26.91637
1145.035, 44.04451
1145.517, 57.83938
1145.999, 66.75587
1146.482, 63.34459
1146.964, 50.64996
1147.446, 44.78806
1147.928, 51.24962
1148.410, 56.69289
1148.892, 48.92395
1149.374, 40.16316
1149.856, 42.67421
1150.339, 48.16362
1150.821, 49.37142
1151.303, 47.33401
1151.785, 44.29260
1152.267, 40.47235
1152.749, 34.23555
1153.231, 22.45090
1153.713, 17.14079
1154.195, 28.80887
1154.677, 36.56731
1155.160, 36.52051
1155.642, 26.59520
1156.124, 8.717834
1156.606, 20.10171
1157.088, 5.984221
1157.570, 27.59493
1158.052, 51.65176
1158.534, 35.19759
1159.017, 22.82073
1159.499, 17.08712
1159.981, 11.46503
1160.463, 2.985759
1160.945, 4.301183
1161.427, 26.17353
1161.909, 55.10432
1162.391, 72.45741
1162.874, 76.75968
1163.356, 50.36654
1163.838, 8.948936
1164.320, 10.65590
1164.802, 50.72330
1165.284, 81.54087
1165.766, 87.59412
1166.248, 78.34579
1166.730, 53.62025
1167.213, 31.85801
1167.695, 28.68064
1168.177, 34.76731
1168.659, 50.03362
1169.141, 63.57095
1169.623, 53.02484
1170.105, 30.96712
1170.587, 44.90862
1171.069, 112.8001
1171.552, 133.9385
1172.034, 40.74192
1172.516, 1.852458
1172.998, 1.577403
1173.480, 0.5420720
1173.962, 19.37631
1174.444, 32.23350
1174.926, 25.43618
1175.409, 6.435587
1175.891, 3.194932
1176.373, 16.81741
1176.855, 29.38262
1177.337, 41.41570
1177.819, 40.52700
1178.301, 24.25904
1178.783, 14.31847
1179.266, 20.79403
1179.748, 32.78923
1180.230, 40.89980
1180.712, 44.45143
1181.194, 36.04572
1181.676, 26.38160
1182.158, 41.12447
1182.640, 66.61998
1183.122, 70.57906
1183.604, 52.79068
1184.087, 37.60737
1184.569, 34.87529
1185.051, 27.59256
1185.533, 5.899558
1186.015, 4.154889
1186.497, 10.99076
1186.979, 15.56068
1187.461, 45.18715
1187.944, 68.57027
1188.426, 71.19590
1188.908, 56.61143
1189.390, 45.95501
1189.872, 39.33944
1190.354, 36.48246
1190.836, 38.11308
1191.318, 40.68346
1191.801, 43.83133
1192.283, 43.85060
1192.765, 37.77783
1193.247, 34.59257
1193.729, 46.79919
1194.211, 68.26314
1194.693, 89.24793
1195.175, 105.4436
1195.657, 97.41814
1196.140, 77.23005
1196.622, 63.93950
1197.104, 59.44845
1197.586, 57.82128
1198.068, 56.95887
1198.550, 53.19810
1199.032, 36.63956
1199.514, 26.40569
1199.996, 36.64730
1200.479, 54.07709
1200.961, 76.66768
1201.443, 94.48036
1201.925, 88.68161
1202.407, 63.24015
1202.889, 53.90487
1203.371, 67.41035
1203.853, 73.83706
1204.336, 79.22361
1204.818, 76.35046
1205.300, 62.74874
1205.782, 46.73913
1206.264, 32.34901
1206.746, 19.74425
1207.228, 6.974194
1207.710, 0.3157630
1208.193, 25.10894
1208.675, 65.65485
1209.157, 70.57476
1209.639, 51.41032
1210.121, 50.87124
1210.603, 67.23225
1211.085, 73.40144
1211.567, 51.34130
1212.049, 33.75505
1212.531, 45.54610
1213.014, 60.61637
1213.496, 76.41811
1213.978, 78.23212
1214.460, 35.17813
1214.942, 3.883009
1215.424, 6.555977
1215.906, 37.36893
1216.388, 52.93441
1216.871, 33.68897
1217.353, 27.05182
1217.835, 38.41013
1218.317, 36.99276
1218.799, 15.56423
1219.281, 3.295307
1219.763, 12.70706
1220.245, 29.97821
1220.728, 44.84729
1221.210, 50.71594
1221.692, 22.57245
1222.174, 5.127715
1222.656, 4.200805
1223.138, 34.57262
1223.620, 63.47170
1224.102, 78.44902
1224.584, 86.33640
1225.067, 84.16202
1225.549, 80.29117
1226.031, 61.57687
1226.513, 52.05359
1226.995, 67.83953
1227.477, 84.01507
1227.959, 87.14822
1228.441, 83.07265
1228.923, 97.77035
1229.406, 113.9029
1229.888, 92.41927
1230.370, 39.35784
1230.852, 28.12739
1231.334, 61.28469
1231.816, 65.87292
1232.298, 38.35451
1232.780, 12.61917
1233.263, 0.2326240
1233.745, 6.409941
1234.227, 0.0000000E+00
##END=



