##NAMES=Chalcocite
##RRUFFID=R070730
##IDEAL CHEMISTRY=Cu^1+^_2_S^2-^
##LOCALITY=La Mesa, Chihuahua, Mexico
##OWNER=RRUFF
##SOURCE=Michael Scott
##DESCRIPTION=Dark gray rounded metallic grains associated with ajoite
##STATUS=The identification of this mineral is confirmed by single-crystal X-ray diffraction and chemical analysis.
##URL=rruff.info/R070730
##MEASURED CHEMISTRY=Cu_1.97_Ag_0.01_S
122.4161, 0.0000000E+00
122.8982, 14.26172
123.3804, 54.54297
123.8625, 117.0508
124.3446, 192.0508
124.8267, 248.9883
125.3088, 249.2305
125.7909, 184.9219
126.2731, 146.6016
126.7552, 163.0391
127.2373, 196.5117
127.7194, 251.8242
128.2015, 317.5391
128.6837, 376.4258
129.1658, 394.5625
129.6479, 349.6523
130.1300, 334.3320
130.6121, 360.1211
131.0942, 346.9609
131.5764, 294.8906
132.0585, 205.8086
132.5406, 104.1367
133.0227, 77.09375
133.5048, 181.7812
133.9869, 267.5664
134.4691, 319.2344
134.9512, 332.8164
135.4333, 321.0547
135.9154, 262.5234
136.3975, 159.4922
136.8796, 79.01562
137.3618, 16.71094
137.8439, 21.96094
138.3260, 37.64844
138.8081, 30.38281
139.2902, 0.1054690
139.7723, 66.96484
140.2545, 164.0234
140.7366, 223.8789
141.2187, 226.5742
141.7008, 196.1328
142.1829, 146.6055
142.6650, 73.11719
143.1472, 9.078125
143.6293, 3.1250000E-02
144.1114, 34.74219
144.5935, 64.97656
145.0756, 55.55859
145.5577, 20.53125
146.0399, 22.14062
146.5220, 130.8164
147.0041, 222.5156
147.4862, 205.6875
147.9683, 100.7305
148.4504, 5.558594
148.9326, 23.42969
149.4147, 172.1719
149.8968, 299.3906
150.3789, 345.3867
150.8610, 351.4805
151.3431, 328.3164
151.8252, 254.9297
152.3074, 171.4141
152.7895, 120.4258
153.2716, 103.5625
153.7537, 119.5547
154.2358, 210.9883
154.7179, 306.2148
155.2001, 336.4023
155.6822, 271.8633
156.1643, 154.1211
156.6464, 81.89844
157.1285, 83.54688
157.6106, 92.04297
158.0928, 87.67578
158.5749, 81.29688
159.0570, 100.4492
159.5391, 160.3125
160.0212, 255.5586
160.5033, 314.2852
160.9855, 324.3320
161.4676, 316.3555
161.9497, 288.9414
162.4318, 253.7266
162.9139, 217.2070
163.3960, 197.8086
163.8782, 196.7344
164.3603, 190.1953
164.8424, 177.7734
165.3245, 160.3438
165.8066, 136.6953
166.2887, 107.8594
166.7709, 80.35547
167.2530, 58.66406
167.7351, 43.66406
168.2172, 47.97266
168.6993, 110.5078
169.1814, 178.5078
169.6636, 165.5703
170.1457, 41.65625
170.6278, 81.77734
171.1099, 27.06250
171.5920, 169.2070
172.0741, 308.1992
172.5563, 265.0977
173.0384, 101.7031
173.5205, 1.179688
174.0026, 6.164063
174.4847, 53.05078
174.9668, 80.86328
175.4490, 90.14453
175.9311, 84.26562
176.4132, 50.20703
176.8953, 10.54688
177.3774, 34.38672
177.8595, 37.62891
178.3417, 112.0234
178.8238, 118.5781
179.3059, 52.81641
179.7880, 23.08203
180.2701, 27.97656
180.7522, 56.43359
181.2344, 115.7461
181.7165, 110.5000
182.1986, 89.61719
182.6807, 82.98438
183.1628, 98.57422
183.6449, 122.2773
184.1271, 128.1719
184.6092, 99.85938
185.0913, 86.69141
185.5734, 97.84766
186.0555, 121.2695
186.5376, 153.0742
187.0198, 191.4297
187.5019, 225.7539
187.9840, 227.8594
188.4661, 170.1562
188.9482, 111.2930
189.4303, 29.36719
189.9125, 43.27344
190.3946, 56.88281
190.8767, 17.22266
191.3588, 150.4961
191.8409, 205.9805
192.3230, 85.96875
192.8052, 3.437500
193.2873, 5.167969
193.7694, 46.98047
194.2515, 90.11719
194.7336, 84.39062
195.2157, 36.61719
195.6979, 17.26953
196.1800, 52.21094
196.6621, 84.63672
197.1442, 84.47656
197.6263, 62.10938
198.1084, 55.50000
198.5906, 96.26172
199.0727, 178.5703
199.5548, 224.4805
200.0369, 227.5039
200.5190, 203.9102
201.0011, 140.2578
201.4833, 44.55469
201.9654, 23.88281
202.4475, 13.32031
202.9296, 70.28125
203.4117, 133.9648
203.8938, 177.2656
204.3760, 200.1992
204.8581, 195.1836
205.3402, 160.6602
205.8223, 119.3398
206.3044, 80.33203
206.7865, 49.29297
207.2687, 41.14062
207.7508, 83.38672
208.2329, 138.9102
208.7150, 148.4492
209.1971, 95.91016
209.6792, 46.58984
210.1614, 58.60156
210.6435, 113.3047
211.1256, 174.9609
211.6077, 251.6719
212.0898, 324.4531
212.5719, 341.8750
213.0541, 275.9336
213.5362, 205.8789
214.0183, 198.1406
214.5004, 230.1211
214.9825, 246.5508
215.4646, 207.1602
215.9468, 125.3398
216.4289, 56.10156
216.9110, 4.796875
217.3931, 41.05859
217.8752, 37.81250
218.3573, 5.152344
218.8395, 28.30859
219.3216, 36.82422
219.8037, 23.82812
220.2858, 33.93750
220.7679, 98.44922
221.2500, 153.5781
221.7322, 158.0703
222.2143, 125.3672
222.6964, 99.50781
223.1785, 125.7695
223.6606, 207.6680
224.1427, 261.1406
224.6249, 273.1562
225.1070, 264.1562
225.5891, 230.5117
226.0712, 179.3359
226.5533, 129.0156
227.0354, 94.08984
227.5176, 74.18750
227.9997, 68.09375
228.4818, 88.28516
228.9639, 110.8320
229.4460, 123.1211
229.9281, 121.0195
230.4103, 110.4297
230.8924, 94.32812
231.3745, 66.80859
231.8566, 54.70703
232.3387, 72.47266
232.8208, 92.49219
233.3030, 102.7148
233.7851, 102.6211
234.2672, 98.17188
234.7493, 93.20312
235.2314, 85.95703
235.7135, 93.19141
236.1957, 126.4844
236.6778, 158.0508
237.1599, 173.1797
237.6420, 168.6797
238.1241, 154.1914
238.6062, 141.4531
239.0884, 130.2969
239.5705, 110.6445
240.0526, 53.57031
240.5347, 9.593750
241.0168, 22.00000
241.4989, 88.39844
241.9811, 166.0977
242.4632, 206.7266
242.9453, 200.6992
243.4274, 180.4414
243.9095, 131.7383
244.3916, 81.49609
244.8738, 41.07031
245.3559, 14.17969
245.8380, 5.781250
246.3201, 25.53125
246.8022, 91.84375
247.2843, 123.1523
247.7665, 89.72656
248.2486, 43.37109
248.7307, 21.18359
249.2128, 24.71094
249.6949, 43.06641
250.1770, 65.95312
250.6592, 95.28516
251.1413, 118.6992
251.6234, 139.8828
252.1055, 154.2578
252.5876, 155.0625
253.0697, 142.6914
253.5519, 129.3633
254.0340, 131.1367
254.5161, 155.6992
254.9982, 159.7227
255.4803, 120.4102
255.9624, 75.92969
256.4445, 53.82812
256.9267, 58.27734
257.4088, 81.58594
257.8909, 120.7695
258.3730, 182.1094
258.8551, 220.6953
259.3372, 216.4141
259.8194, 200.0977
260.3015, 207.6094
260.7836, 241.5859
261.2657, 266.2852
261.7478, 241.1875
262.2299, 155.6328
262.7121, 103.5703
263.1942, 112.8789
263.6763, 138.8203
264.1584, 139.6797
264.6405, 112.8438
265.1227, 94.16406
265.6048, 124.8945
266.0869, 209.2188
266.5690, 252.2656
267.0511, 196.3867
267.5332, 135.7773
268.0154, 174.3594
268.4975, 313.4727
268.9796, 429.8672
269.4617, 405.2500
269.9438, 239.5625
270.4259, 138.0000
270.9081, 145.5352
271.3902, 190.5078
271.8723, 227.6289
272.3544, 253.0664
272.8365, 260.1172
273.3186, 231.6133
273.8008, 174.9375
274.2829, 161.1406
274.7650, 235.2930
275.2471, 318.0742
275.7292, 357.4961
276.2113, 354.6211
276.6935, 327.2148
277.1756, 279.4922
277.6577, 215.8711
278.1398, 169.0781
278.6219, 135.3008
279.1040, 121.3477
279.5862, 153.1953
280.0683, 222.4336
280.5504, 258.4922
281.0325, 198.5977
281.5146, 73.43359
281.9967, 15.30078
282.4789, 60.12109
282.9610, 136.5977
283.4431, 222.3203
283.9252, 310.7539
284.4073, 361.1602
284.8894, 341.2656
285.3716, 271.4297
285.8537, 222.0742
286.3358, 198.6836
286.8179, 187.5781
287.3000, 188.2930
287.7821, 197.2656
288.2643, 200.1953
288.7464, 190.3672
289.2285, 170.1562
289.7106, 143.8477
290.1927, 95.52344
290.6748, 69.16406
291.1570, 109.9570
291.6391, 193.8594
292.1212, 243.5664
292.6033, 221.9844
293.0854, 159.7617
293.5675, 120.0742
294.0497, 109.4180
294.5318, 98.75391
295.0139, 74.39453
295.4960, 41.59375
295.9781, 9.941406
296.4602, 20.25391
296.9424, 42.16016
297.4245, 37.96875
297.9066, 2.203125
298.3887, 25.81250
298.8708, 21.31641
299.3529, 3.128906
299.8351, 10.83203
300.3172, 60.88281
300.7993, 115.8516
301.2814, 108.5469
301.7635, 29.72266
302.2456, 12.45312
302.7278, 45.34375
303.2099, 139.7148
303.6920, 177.5898
304.1741, 136.8281
304.6562, 77.07812
305.1383, 70.53516
305.6205, 121.1758
306.1026, 150.0352
306.5847, 121.3125
307.0668, 79.82031
307.5489, 76.83594
308.0310, 118.7852
308.5132, 168.5195
308.9953, 196.0820
309.4774, 199.4219
309.9595, 183.5312
310.4416, 126.7812
310.9237, 66.39844
311.4059, 26.74609
311.8880, 10.18750
312.3701, 17.25000
312.8522, 56.01562
313.3343, 123.5117
313.8164, 168.7734
314.2986, 179.4570
314.7807, 184.8047
315.2628, 196.0352
315.7449, 216.1875
316.2270, 245.1445
316.7091, 288.8984
317.1913, 337.8477
317.6734, 344.8867
318.1555, 261.7422
318.6376, 195.0312
319.1197, 198.3867
319.6018, 251.5938
320.0840, 299.0781
320.5661, 315.6289
321.0482, 311.5273
321.5303, 313.1602
322.0124, 341.8711
322.4945, 337.5703
322.9767, 264.2461
323.4588, 162.3086
323.9409, 89.73047
324.4230, 68.48828
324.9051, 87.97266
325.3872, 127.9219
325.8694, 217.6289
326.3515, 273.9570
326.8336, 281.9727
327.3157, 257.9883
327.7978, 201.4258
328.2799, 115.5977
328.7621, 41.90234
329.2442, 44.04297
329.7263, 162.7578
330.2084, 246.1445
330.6905, 240.9531
331.1726, 242.9922
331.6548, 363.6758
332.1369, 591.7070
332.6190, 780.5430
333.1011, 764.8125
333.5832, 488.3086
334.0653, 325.6445
334.5475, 336.5547
335.0296, 380.8281
335.5117, 402.3008
335.9938, 399.1016
336.4759, 384.5625
336.9580, 364.8398
337.4402, 340.4648
337.9223, 349.5781
338.4044, 443.8672
338.8865, 514.4883
339.3686, 532.3203
339.8507, 507.1094
340.3329, 452.0195
340.8150, 371.1641
341.2971, 276.7852
341.7792, 221.1406
342.2613, 237.1211
342.7434, 254.0000
343.2256, 272.2109
343.7077, 284.0781
344.1898, 276.9414
344.6719, 246.2383
345.1540, 207.9766
345.6361, 197.7891
346.1183, 243.8867
346.6004, 262.7227
347.0825, 221.2266
347.5646, 173.6562
348.0467, 164.5352
348.5288, 200.2891
349.0110, 247.6328
349.4931, 260.4023
349.9752, 225.0234
350.4573, 209.1758
350.9394, 219.6953
351.4215, 245.7227
351.9037, 300.6172
352.3858, 372.4023
352.8679, 422.5039
353.3500, 404.6797
353.8321, 322.0000
354.3142, 278.8164
354.7964, 310.1523
355.2785, 340.6211
355.7606, 337.4258
356.2427, 311.2578
356.7248, 286.5781
357.2069, 279.5430
357.6891, 282.0508
358.1712, 269.2188
358.6533, 232.7891
359.1354, 199.2617
359.6175, 168.7148
360.0996, 150.0469
360.5818, 159.2500
361.0639, 207.5430
361.5460, 268.9805
362.0281, 314.7578
362.5102, 346.1836
362.9923, 350.7539
363.4745, 309.7773
363.9566, 248.0312
364.4387, 179.9961
364.9208, 102.4023
365.4029, 53.75781
365.8850, 84.03516
366.3672, 176.8555
366.8493, 240.6016
367.3314, 245.5312
367.8135, 230.7109
368.2956, 241.6953
368.7777, 276.1484
369.2599, 295.7383
369.7420, 290.2969
370.2241, 258.6211
370.7062, 181.2656
371.1883, 44.84375
371.6704, 71.41406
372.1526, 82.98047
372.6347, 8.675781
373.1168, 41.03906
373.5989, 27.38672
374.0810, 2.820313
374.5631, 20.58203
375.0453, 74.92188
375.5274, 108.3711
376.0095, 79.26953
376.4916, 4.859375
376.9737, 37.50781
377.4558, 23.57031
377.9380, 9.976563
378.4201, 34.00000
378.9022, 71.17969
379.3843, 63.23438
379.8664, 18.46875
380.3485, 127.5195
380.8307, 163.7969
381.3128, 74.20312
381.7949, 9.933594
382.2770, 9.632813
382.7591, 5.273438
383.2412, 8.675781
383.7234, 27.58984
384.2055, 47.65625
384.6876, 66.47266
385.1697, 89.70312
385.6518, 85.06641
386.1339, 15.65625
386.6161, 42.69531
387.0982, 45.98438
387.5803, 4.781250
388.0624, 45.00391
388.5445, 78.83203
389.0266, 97.30859
389.5088, 106.6406
389.9909, 112.4102
390.4730, 100.6719
390.9551, 46.05469
391.4372, 19.63281
391.9193, 56.38672
392.4015, 46.66016
392.8836, 6.253906
393.3657, 37.62891
393.8478, 94.63672
394.3299, 128.8555
394.8120, 108.8203
395.2942, 84.10938
395.7763, 95.13672
396.2584, 145.0195
396.7405, 195.4219
397.2226, 198.5508
397.7047, 153.8789
398.1869, 141.9414
398.6690, 201.5273
399.1511, 258.2422
399.6332, 257.3828
400.1153, 212.5898
400.5974, 166.2031
401.0796, 138.7930
401.5617, 124.6992
402.0438, 110.2109
402.5259, 93.72656
403.0080, 84.23828
403.4901, 92.12891
403.9723, 109.0586
404.4544, 123.1992
404.9365, 133.7031
405.4186, 139.1094
405.9007, 130.5586
406.3828, 112.4023
406.8650, 112.9766
407.3471, 152.3320
407.8292, 201.2539
408.3113, 201.4609
408.7934, 137.1680
409.2755, 106.6875
409.7577, 190.5352
410.2398, 305.9531
410.7219, 314.2266
411.2040, 190.5039
411.6861, 70.74219
412.1682, 108.1211
412.6504, 332.1602
413.1325, 442.8945
413.6146, 340.3789
414.0967, 221.3516
414.5788, 201.6172
415.0609, 261.1211
415.5431, 322.0391
416.0252, 338.6250
416.5073, 316.6172
416.9894, 281.8984
417.4715, 204.3359
417.9536, 151.4453
418.4358, 147.3281
418.9179, 163.4805
419.4000, 165.5781
419.8821, 144.4727
420.3642, 122.3828
420.8463, 139.4141
421.3285, 223.6250
421.8106, 269.1328
422.2927, 238.4023
422.7748, 203.8984
423.2569, 194.7539
423.7390, 212.9961
424.2212, 252.6055
424.7033, 321.8711
425.1854, 409.2852
425.6675, 437.9102
426.1496, 364.3086
426.6317, 304.2070
427.1139, 305.6172
427.5960, 342.2266
428.0781, 388.0508
428.5602, 442.6758
429.0423, 479.5039
429.5244, 445.0742
430.0066, 341.9336
430.4887, 264.2070
430.9708, 232.7070
431.4529, 235.3750
431.9350, 264.0781
432.4171, 321.9609
432.8993, 366.2109
433.3814, 365.1641
433.8635, 339.8984
434.3456, 329.6797
434.8277, 339.0625
435.3098, 352.6211
435.7920, 354.3477
436.2741, 342.6172
436.7562, 331.0469
437.2383, 325.5625
437.7204, 324.8438
438.2025, 319.8125
438.6847, 312.0352
439.1668, 308.0195
439.6489, 311.6797
440.1310, 316.9492
440.6131, 310.8711
441.0952, 280.5312
441.5774, 257.1914
442.0595, 238.6172
442.5416, 229.4414
443.0237, 238.5586
443.5058, 265.0234
443.9879, 293.5664
444.4701, 300.8906
444.9522, 283.3047
445.4343, 298.8398
445.9164, 432.9766
446.3985, 509.2305
446.8806, 410.9727
447.3628, 220.4844
447.8449, 92.36719
448.3270, 116.2266
448.8091, 237.0703
449.2912, 326.2969
449.7733, 390.4102
450.2555, 404.5195
450.7376, 303.2734
451.2197, 187.1562
451.7018, 138.7305
452.1839, 171.1641
452.6660, 213.9961
453.1482, 203.7227
453.6303, 153.8750
454.1124, 134.3906
454.5945, 171.7539
455.0766, 199.5625
455.5587, 132.1523
456.0409, 4.875000
456.5230, 73.73047
457.0051, 44.02344
457.4872, 16.63281
457.9693, 41.20703
458.4514, 34.60156
458.9336, 27.67578
459.4156, 34.14453
459.8978, 50.73828
460.3799, 69.13281
460.8620, 85.59375
461.3441, 109.7422
461.8262, 154.8281
462.3083, 201.9961
462.7905, 237.0977
463.2726, 255.0430
463.7547, 243.9570
464.2368, 181.9258
464.7189, 54.82031
465.2010, 1.425781
465.6832, 92.17969
466.1653, 176.7188
466.6474, 198.6328
467.1295, 183.3320
467.6116, 182.2695
468.0938, 223.2305
468.5759, 278.2109
469.0580, 273.7812
469.5401, 173.1875
470.0222, 118.2344
470.5043, 189.6328
470.9865, 273.6055
471.4686, 291.1250
471.9507, 240.4219
472.4328, 186.1250
472.9149, 188.4141
473.3970, 227.3398
473.8792, 220.8125
474.3613, 145.6367
474.8434, 83.92969
475.3255, 94.44141
475.8076, 156.5781
476.2897, 235.6055
476.7719, 368.9727
477.2540, 463.4492
477.7361, 419.6484
478.2182, 283.1641
478.7003, 189.7695
479.1824, 186.1992
479.6646, 223.5195
480.1467, 221.3086
480.6288, 161.0078
481.1109, 120.9141
481.5930, 117.3242
482.0751, 125.7852
482.5573, 135.3281
483.0394, 141.4531
483.5215, 134.9570
484.0036, 106.0430
484.4857, 63.81250
484.9678, 53.89453
485.4500, 93.33203
485.9321, 133.1016
486.4142, 178.8594
486.8963, 215.1328
487.3784, 223.7227
487.8605, 201.3984
488.3427, 169.4883
488.8248, 146.7070
489.3069, 132.6406
489.7890, 144.9258
490.2711, 216.8047
490.7532, 278.8477
491.2354, 279.6367
491.7175, 233.7422
492.1996, 188.4258
492.6817, 147.3125
493.1638, 127.6758
493.6459, 167.5586
494.1281, 261.5781
494.6102, 331.7500
495.0923, 345.2578
495.5744, 323.4609
496.0565, 304.5625
496.5386, 294.2422
497.0208, 262.9258
497.5029, 150.1758
497.9850, 45.29688
498.4671, 65.96094
498.9492, 205.6133
499.4313, 340.3945
499.9135, 368.8242
500.3956, 299.5430
500.8777, 250.5312
501.3598, 239.1641
501.8419, 227.7812
502.3240, 210.0625
502.8062, 189.6562
503.2883, 168.1992
503.7704, 147.2148
504.2525, 133.1875
504.7346, 141.7070
505.2167, 179.8477
505.6989, 189.2188
506.1810, 142.1680
506.6631, 105.6680
507.1452, 117.3555
507.6273, 155.9062
508.1094, 182.1445
508.5916, 174.9609
509.0737, 153.4648
509.5558, 141.0977
510.0379, 137.6992
510.5200, 140.3984
511.0021, 150.9297
511.4843, 163.5977
511.9664, 165.2539
512.4485, 151.4805
512.9306, 156.1445
513.4127, 212.3594
513.8948, 275.0117
514.3770, 295.1523
514.8591, 277.4531
515.3412, 241.3047
515.8233, 190.9219
516.3054, 135.7344
516.7875, 135.7695
517.2697, 285.5156
517.7518, 373.9219
518.2339, 341.0742
518.7160, 260.7031
519.1981, 196.7266
519.6802, 165.4180
520.1624, 155.0742
520.6445, 159.3086
521.1266, 178.8906
521.6087, 180.2773
522.0908, 148.2500
522.5729, 120.4805
523.0551, 118.0273
523.5372, 128.9102
524.0193, 132.9766
524.5014, 120.5859
524.9835, 108.2578
525.4656, 115.4219
525.9478, 138.2305
526.4299, 155.7070
526.9120, 160.5820
527.3941, 164.5352
527.8762, 185.0859
528.3583, 224.5430
528.8405, 239.7500
529.3226, 196.4102
529.8047, 154.3711
530.2868, 160.6562
530.7689, 201.3750
531.2510, 236.8633
531.7332, 247.8164
532.2153, 236.1523
532.6974, 203.7461
533.1795, 124.5312
533.6616, 72.95703
534.1437, 73.53125
534.6259, 79.23047
535.1080, 46.58594
535.5901, 11.46875
536.0722, 38.12109
536.5543, 23.30469
537.0364, 136.8789
537.5186, 184.6758
538.0007, 151.5547
538.4828, 110.6133
538.9649, 76.10547
539.4470, 55.92578
539.9291, 70.63672
540.4113, 130.5312
540.8934, 160.8789
541.3755, 91.91406
541.8576, 17.38672
542.3397, 75.62891
542.8218, 72.82031
543.3040, 43.39453
543.7861, 9.156250
544.2682, 29.37500
544.7503, 68.34766
545.2324, 127.6875
545.7145, 162.7812
546.1967, 161.0117
546.6788, 132.5820
547.1609, 70.58594
547.6430, 17.25391
548.1251, 83.85547
548.6072, 65.55078
549.0894, 42.04688
549.5715, 107.8945
550.0536, 114.3828
550.5357, 103.1484
551.0178, 81.51562
551.4999, 57.06641
551.9821, 39.36328
552.4642, 30.94141
552.9463, 30.46875
553.4284, 34.92969
553.9105, 45.73047
554.3926, 72.55469
554.8748, 121.2539
555.3569, 169.9844
555.8390, 199.6641
556.3211, 209.4219
556.8032, 208.7734
557.2853, 195.4766
557.7675, 173.7148
558.2496, 127.6445
558.7317, 78.41016
559.2138, 61.44141
559.6959, 89.41016
560.1780, 152.0156
560.6602, 248.7070
561.1423, 414.8320
561.6244, 474.4922
562.1065, 331.5781
562.5886, 172.6055
563.0707, 29.55469
563.5529, 78.34375
564.0350, 122.5547
564.5171, 81.91406
564.9992, 2.066406
565.4813, 90.18359
565.9634, 180.2031
566.4456, 230.8242
566.9277, 219.6875
567.4098, 189.8203
567.8919, 190.3398
568.3740, 217.1211
568.8561, 229.2188
569.3383, 196.7617
569.8204, 169.5352
570.3025, 203.3633
570.7846, 267.1055
571.2667, 272.7852
571.7488, 182.3047
572.2310, 60.22266
572.7131, 27.24219
573.1952, 127.2969
573.6773, 198.2852
574.1594, 240.0977
574.6415, 255.0898
575.1237, 218.6328
575.6058, 158.3203
576.0879, 132.6445
576.5700, 178.9375
577.0521, 248.8047
577.5342, 264.9297
578.0164, 226.9414
578.4985, 186.2734
578.9806, 150.3516
579.4627, 122.4023
579.9448, 106.4766
580.4269, 101.6328
580.9091, 105.2344
581.3912, 119.9336
581.8733, 140.0586
582.3554, 178.7070
582.8375, 219.4453
583.3196, 214.1641
583.8018, 138.4336
584.2839, 40.01562
584.7660, 7.183594
585.2481, 67.62891
585.7302, 116.0664
586.2123, 152.6797
586.6945, 177.5586
587.1766, 185.5625
587.6587, 182.7422
588.1408, 179.3672
588.6229, 179.4180
589.1050, 183.1562
589.5872, 195.5586
590.0693, 215.8867
590.5514, 222.3867
591.0335, 207.5742
591.5156, 183.1875
591.9977, 154.3359
592.4799, 123.0234
592.9620, 108.7539
593.4441, 118.0156
593.9262, 137.8711
594.4083, 170.9336
594.8904, 210.2500
595.3726, 250.5469
595.8547, 289.7578
596.3368, 319.1680
596.8189, 324.2188
597.3010, 299.8086
597.7831, 275.3555
598.2653, 254.7344
598.7474, 229.7109
599.2295, 183.7383
599.7116, 134.5898
600.1937, 111.7656
600.6758, 128.5234
601.1580, 165.0352
601.6401, 206.8359
602.1222, 249.0508
602.6043, 262.0469
603.0864, 233.6562
603.5685, 205.7578
604.0507, 221.3281
604.5328, 273.4883
605.0149, 290.3906
605.4970, 222.9336
605.9791, 171.4531
606.4612, 204.1133
606.9434, 270.0273
607.4255, 293.4453
607.9076, 258.4844
608.3897, 192.7891
608.8718, 112.1445
609.3539, 18.39062
609.8361, 14.60938
610.3182, 175.4727
610.8003, 302.1094
611.2824, 306.1758
611.7645, 258.1875
612.2466, 230.3164
612.7288, 235.7773
613.2109, 248.9688
613.6930, 252.9375
614.1751, 253.5352
614.6572, 267.7383
615.1393, 296.1562
615.6215, 305.9375
616.1036, 267.5898
616.5857, 202.3320
617.0678, 187.6719
617.5499, 300.5703
618.0320, 357.1328
618.5142, 297.3906
618.9963, 218.8477
619.4784, 201.8633
619.9605, 239.2227
620.4426, 269.8398
620.9247, 245.6641
621.4069, 187.8086
621.8890, 175.0625
622.3711, 221.5703
622.8532, 270.4609
623.3353, 311.3633
623.8174, 333.9414
624.2996, 321.6992
624.7817, 277.5078
625.2638, 246.4023
625.7459, 251.9102
626.2280, 264.9609
626.7101, 265.4258
627.1923, 254.9922
627.6744, 235.0586
628.1565, 205.8281
628.6386, 184.3086
629.1207, 202.9688
629.6028, 279.2266
630.0850, 324.7227
630.5671, 315.9688
631.0492, 299.2891
631.5313, 287.5898
632.0134, 276.8984
632.4955, 260.0391
632.9777, 234.5742
633.4598, 203.3086
633.9419, 162.2305
634.4240, 117.1523
634.9061, 84.17188
635.3882, 63.84766
635.8704, 72.40234
636.3525, 139.0469
636.8346, 246.4141
637.3167, 281.0820
637.7988, 176.5156
638.2809, 98.01562
638.7631, 102.6094
639.2452, 125.4648
639.7273, 94.99219
640.2094, 14.88281
640.6915, 49.62891
641.1736, 41.37891
641.6558, 15.89844
642.1379, 36.01172
642.6200, 9.078125
643.1021, 12.94922
643.5842, 17.29688
644.0663, 10.60156
644.5485, 0.1914060
645.0306, 13.83984
645.5127, 31.64062
645.9948, 52.50781
646.4769, 77.55469
646.9590, 116.6875
647.4412, 159.9883
647.9233, 179.8906
648.4054, 165.3945
648.8875, 137.1367
649.3696, 127.7812
649.8517, 143.9805
650.3339, 144.1719
650.8160, 103.2891
651.2981, 76.28906
651.7802, 88.30859
652.2623, 121.8906
652.7444, 153.1406
653.2266, 176.1758
653.7087, 196.0117
654.1908, 226.9727
654.6729, 255.4961
655.1550, 249.9062
655.6371, 207.0938
656.1193, 141.4180
656.6014, 50.48438
657.0835, 46.56250
657.5656, 76.00781
658.0477, 25.24609
658.5298, 110.3516
659.0120, 174.7148
659.4941, 226.1055
659.9762, 287.0352
660.4583, 341.8555
660.9404, 337.0586
661.4225, 226.2266
661.9047, 76.10938
662.3868, 0.6679690
662.8689, 2.132813
663.3510, 17.28516
663.8331, 55.72656
664.3152, 95.94141
664.7974, 124.3945
665.2795, 140.1562
665.7616, 142.4648
666.2437, 101.4766
666.7258, 83.66016
667.2079, 137.9414
667.6901, 217.1211
668.1722, 269.5469
668.6543, 281.3906
669.1364, 255.7578
669.6185, 179.6641
670.1006, 69.50781
670.5828, 32.62891
671.0649, 92.14844
671.5470, 148.4648
672.0291, 171.0977
672.5112, 173.5508
672.9933, 171.7578
673.4755, 165.7617
673.9576, 154.2461
674.4397, 119.3477
674.9218, 93.73047
675.4039, 112.1133
675.8860, 159.6289
676.3682, 205.7227
676.8503, 238.0312
677.3324, 247.7266
677.8145, 208.9883
678.2966, 101.2930
678.7787, 69.09375
679.2609, 181.1602
679.7430, 267.9727
680.2251, 236.6328
680.7072, 157.7578
681.1893, 121.4609
681.6714, 146.4492
682.1536, 184.7031
682.6357, 228.6758
683.1178, 260.1523
683.5999, 238.6367
684.0820, 173.2148
684.5641, 126.8477
685.0463, 134.5508
685.5284, 177.1367
686.0105, 211.5234
686.4926, 238.0703
686.9747, 254.5938
687.4568, 247.4336
687.9390, 243.3125
688.4211, 263.4844
688.9032, 292.0820
689.3853, 298.4570
689.8674, 270.2695
690.3495, 228.1523
690.8317, 176.7266
691.3138, 126.7617
691.7959, 105.1523
692.2780, 114.8164
692.7601, 138.3242
693.2422, 167.6055
693.7244, 196.8555
694.2065, 201.5742
694.6886, 149.4844
695.1707, 125.9102
695.6528, 177.7305
696.1349, 217.6602
696.6171, 165.0312
697.0992, 54.19141
697.5813, 7.085938
698.0634, 44.41016
698.5455, 129.9492
699.0276, 162.8008
699.5098, 157.5156
699.9919, 166.7070
700.4740, 202.2578
700.9561, 229.4453
701.4382, 215.5000
701.9203, 168.1094
702.4025, 145.8945
702.8846, 163.1719
703.3667, 187.2578
703.8488, 239.6172
704.3309, 280.4570
704.8130, 265.0586
705.2952, 206.1992
705.7773, 158.8945
706.2594, 154.6484
706.7415, 176.0391
707.2236, 211.4961
707.7057, 256.5117
708.1879, 268.3047
708.6700, 231.3711
709.1521, 200.5625
709.6342, 233.9648
710.1163, 326.9180
710.5984, 368.7812
711.0806, 319.3750
711.5627, 274.6016
712.0448, 251.7227
712.5269, 240.0742
713.0090, 215.7422
713.4911, 186.0273
713.9733, 177.4180
714.4554, 214.7891
714.9375, 271.5195
715.4196, 325.9570
715.9017, 375.2148
716.3839, 341.0391
716.8660, 186.1289
717.3481, 28.36328
717.8302, 12.53906
718.3123, 62.12500
718.7944, 121.3320
719.2766, 170.2148
719.7587, 206.0820
720.2408, 246.0312
720.7229, 260.9219
721.2050, 200.6016
721.6871, 79.58594
722.1693, 14.49609
722.6514, 20.64453
723.1335, 26.99609
723.6156, 94.62891
724.0977, 173.8164
724.5798, 191.4609
725.0620, 117.2539
725.5441, 32.21094
726.0262, 20.36719
726.5083, 81.67578
726.9904, 136.0742
727.4725, 192.0469
727.9547, 230.3789
728.4368, 242.1836
728.9189, 238.7734
729.4010, 231.2188
729.8831, 218.9219
730.3652, 190.5508
730.8474, 125.3555
731.3295, 54.95703
731.8116, 27.32422
732.2937, 36.55078
732.7758, 60.25391
733.2579, 96.46484
733.7401, 114.5977
734.2222, 75.08984
734.7043, 17.64062
735.1864, 57.44922
735.6685, 14.08203
736.1506, 63.12109
736.6328, 52.03125
737.1149, 30.34375
737.5970, 42.68359
738.0791, 84.41406
738.5612, 114.2188
739.0433, 98.41797
739.5255, 76.10547
740.0076, 108.8555
740.4897, 172.6562
740.9718, 180.7852
741.4539, 113.0234
741.9360, 38.37109
742.4182, 19.64844
742.9003, 51.75781
743.3824, 101.8594
743.8645, 198.8750
744.3466, 267.3281
744.8287, 299.2617
745.3109, 300.8906
745.7930, 262.7188
746.2751, 195.4141
746.7572, 136.7969
747.2393, 98.75000
747.7214, 82.18359
748.2036, 104.6094
748.6857, 144.9727
749.1678, 159.3047
749.6499, 142.1250
750.1320, 119.7812
750.6141, 112.1367
751.0963, 115.8008
751.5784, 120.0977
752.0605, 132.7539
752.5426, 122.4922
753.0247, 56.35547
753.5068, 3.117188
753.9890, 16.30078
754.4711, 6.269531
754.9532, 36.11328
755.4353, 72.27344
755.9174, 105.4805
756.3995, 136.4219
756.8817, 158.3672
757.3638, 158.3047
757.8459, 139.6211
758.3280, 121.5547
758.8101, 116.7539
759.2922, 116.1953
759.7744, 98.00000
760.2565, 59.91406
760.7386, 27.72656
761.2207, 0.5078130
761.7028, 13.41016
762.1849, 0.3828130
762.6671, 28.12109
763.1492, 43.24219
763.6313, 43.20312
764.1134, 32.03906
764.5955, 15.74219
765.0776, 51.77344
765.5598, 21.08203
766.0419, 49.06641
766.5240, 87.83203
767.0061, 63.84766
767.4882, 23.36328
767.9703, 37.17188
768.4525, 90.24609
768.9346, 84.06250
769.4167, 2.812500
769.8988, 43.91406
770.3809, 9.148438
770.8630, 116.6016
771.3452, 194.5898
771.8273, 249.7500
772.3094, 252.6133
772.7915, 154.1289
773.2736, 60.37500
773.7557, 14.82031
774.2379, 0.6132810
774.7200, 16.12109
775.2021, 38.12109
775.6842, 41.35547
776.1663, 20.14062
776.6484, 98.55078
777.1306, 106.1133
777.6127, 55.43750
778.0948, 15.32031
778.5769, 8.988281
779.0590, 39.51172
779.5411, 125.4688
780.0233, 269.6250
780.5054, 306.3789
780.9875, 147.1289
781.4696, 28.63281
781.9517, 35.19922
782.4338, 83.01172
782.9160, 99.64453
783.3981, 89.00391
783.8802, 114.1328
784.3623, 222.9180
784.8444, 346.1172
785.3265, 485.2109
785.8087, 590.7852
786.2908, 534.2070
786.7729, 329.6094
787.2550, 193.6953
787.7371, 313.6328
788.2192, 590.3398
788.7014, 752.0547
789.1835, 795.6641
789.6656, 736.3633
790.1477, 523.9141
790.6298, 322.2930
791.1119, 275.6953
791.5941, 347.7305
792.0762, 362.4492
792.5583, 270.3516
793.0404, 197.3555
793.5225, 179.6211
794.0046, 179.4844
794.4868, 181.0664
794.9689, 179.0859
795.4510, 165.4453
795.9331, 134.8203
796.4152, 107.7734
796.8973, 114.0977
797.3795, 139.1602
797.8616, 148.9961
798.3437, 140.7070
798.8258, 107.4062
799.3079, 39.91406
799.7900, 32.71484
800.2722, 55.34375
800.7543, 16.59375
801.2364, 19.27734
801.7185, 67.97266
802.2006, 91.21094
802.6827, 44.61328
803.1649, 12.81250
803.6470, 12.13281
804.1291, 53.31641
804.6112, 124.9141
805.0933, 188.7500
805.5754, 243.3281
806.0576, 297.7383
806.5397, 337.9922
807.0218, 335.7422
807.5039, 287.9688
807.9860, 219.2266
808.4681, 145.0664
808.9503, 81.42578
809.4324, 97.88672
809.9145, 201.6094
810.3966, 250.4258
810.8787, 191.9805
811.3608, 126.2578
811.8430, 147.5781
812.3251, 242.3711
812.8072, 294.8867
813.2893, 281.9297
813.7714, 260.9805
814.2535, 229.9961
814.7357, 198.2930
815.2178, 160.9414
815.6999, 129.3320
816.1820, 134.0430
816.6641, 196.1523
817.1462, 249.8906
817.6284, 225.8633
818.1105, 166.8945
818.5926, 142.1133
819.0747, 151.9727
819.5568, 169.4766
820.0389, 184.0547
820.5211, 199.8047
821.0032, 229.4688
821.4853, 276.5312
821.9674, 270.5117
822.4495, 179.7305
822.9316, 110.7539
823.4138, 124.4180
823.8959, 169.6953
824.3780, 178.5000
824.8601, 150.3828
825.3422, 124.9414
825.8243, 53.12891
826.3065, 48.34375
826.7886, 242.2617
827.2707, 468.6758
827.7528, 528.3125
828.2349, 430.4258
828.7170, 332.1328
829.1992, 338.5859
829.6813, 378.8516
830.1633, 358.2148
830.6454, 291.7773
831.1276, 222.7617
831.6097, 158.8008
832.0918, 111.0664
832.5739, 88.80469
833.0560, 84.27734
833.5381, 78.97266
834.0203, 69.93750
834.5024, 84.58203
834.9845, 143.9141
835.4666, 197.7344
835.9487, 210.9922
836.4308, 207.2773
836.9130, 223.7930
837.3951, 267.4297
837.8772, 301.1875
838.3593, 334.0273
838.8414, 335.5859
839.3235, 249.2461
839.8057, 136.4453
840.2878, 95.70703
840.7699, 143.1211
841.2520, 205.0547
841.7341, 224.0703
842.2162, 211.8438
842.6984, 186.9961
843.1805, 153.7734
843.6626, 137.2578
844.1447, 143.8008
844.6268, 153.5000
845.1089, 148.9453
845.5911, 134.6992
846.0732, 129.1719
846.5553, 138.8320
847.0374, 141.2695
847.5195, 128.6562
848.0016, 115.4531
848.4838, 113.1602
848.9659, 115.3125
849.4480, 105.0625
849.9301, 68.05078
850.4122, 60.13281
850.8943, 120.0742
851.3765, 192.5703
851.8586, 270.8555
852.3407, 334.8867
852.8228, 341.8633
853.3049, 284.6875
853.7870, 224.1289
854.2692, 231.8828
854.7513, 262.5742
855.2334, 214.2656
855.7155, 106.7500
856.1976, 41.29688
856.6797, 45.44141
857.1619, 66.84766
857.6440, 52.50000
858.1261, 14.38672
858.6082, 19.23438
859.0903, 86.65234
859.5724, 127.9766
860.0546, 120.0000
860.5367, 101.0625
861.0188, 99.02344
861.5009, 104.2031
861.9830, 88.44922
862.4651, 35.16016
862.9473, 4.289063
863.4294, 11.95703
863.9115, 11.44141
864.3936, 29.55469
864.8757, 43.89844
865.3578, 5.125000
865.8400, 95.15234
866.3221, 182.1289
866.8042, 195.4766
867.2863, 167.7344
867.7684, 126.7109
868.2505, 82.93359
868.7327, 71.87891
869.2148, 99.83203
869.6969, 130.9219
870.1790, 133.6172
870.6611, 115.4844
871.1432, 101.4844
871.6254, 90.97266
872.1075, 88.51562
872.5896, 95.00391
873.0717, 109.4414
873.5538, 137.1445
874.0359, 169.6797
874.5181, 183.4062
875.0002, 168.7148
875.4823, 156.1875
875.9644, 147.4922
876.4465, 139.4492
876.9286, 131.3594
877.4108, 123.1016
877.8929, 111.7305
878.3750, 97.72266
878.8571, 94.15234
879.3392, 122.6719
879.8214, 148.9531
880.3035, 137.5859
880.7856, 108.7148
881.2677, 91.98438
881.7498, 93.41016
882.2319, 111.4570
882.7141, 149.4727
883.1962, 188.6680
883.6783, 185.1094
884.1604, 148.1367
884.6425, 147.6016
885.1246, 193.7734
885.6068, 220.8477
886.0889, 188.5234
886.5710, 130.2461
887.0531, 112.3477
887.5352, 147.6172
888.0173, 148.2305
888.4995, 90.22656
888.9816, 38.39844
889.4637, 2.382813
889.9458, 10.49609
890.4279, 18.83203
890.9100, 85.76953
891.3922, 132.0273
891.8743, 143.1250
892.3564, 141.0586
892.8385, 119.7148
893.3206, 98.59766
893.8027, 95.83203
894.2849, 108.0938
894.7670, 122.8086
895.2491, 135.6055
895.7312, 145.5391
896.2133, 161.8047
896.6954, 168.9414
897.1776, 131.6953
897.6597, 62.12500
898.1418, 1.316406
898.6239, 35.32031
899.1060, 40.32422
899.5881, 3.828125
900.0703, 83.00000
900.5524, 138.9922
901.0345, 172.3555
901.5166, 160.9375
901.9987, 87.03516
902.4808, 13.50781
902.9630, 13.89844
903.4451, 3.226563
903.9272, 59.84766
904.4093, 174.9414
904.8914, 293.7227
905.3735, 485.5547
905.8557, 596.5391
906.3378, 525.3672
906.8199, 355.1445
907.3020, 181.8359
907.7841, 5.246094
908.2662, 91.20703
908.7484, 29.65625
909.2305, 48.60938
909.7126, 82.05078
910.1947, 89.03125
910.6768, 84.24609
911.1589, 76.32422
911.6411, 85.17969
912.1232, 130.4648
912.6053, 175.2344
913.0874, 169.8711
913.5695, 142.9570
914.0516, 151.3047
914.5338, 191.4219
915.0159, 213.0195
915.4980, 192.2031
915.9801, 177.3398
916.4622, 265.6328
916.9443, 427.4180
917.4265, 448.4844
917.9086, 323.3359
918.3907, 190.3750
918.8728, 80.36719
919.3549, 16.10938
919.8370, 31.12891
920.3192, 108.7383
920.8013, 132.1211
921.2834, 70.51172
921.7655, 35.98438
922.2476, 45.04297
922.7297, 68.13672
923.2119, 102.2148
923.6940, 131.7695
924.1761, 140.9258
924.6582, 124.8086
925.1403, 107.2148
925.6224, 67.87891
926.1046, 55.20703
926.5867, 117.4844
927.0688, 199.1250
927.5509, 241.2266
928.0330, 238.1953
928.5151, 224.2109
928.9973, 216.3711
929.4794, 199.9414
929.9615, 145.4258
930.4436, 87.91406
930.9257, 77.74609
931.4078, 107.1406
931.8900, 135.5391
932.3721, 145.4961
932.8542, 157.2188
933.3363, 210.5508
933.8184, 278.2578
934.3005, 279.3789
934.7827, 222.5820
935.2648, 181.0312
935.7469, 179.1445
936.2290, 201.1758
936.7111, 237.8320
937.1932, 277.5586
937.6754, 270.9922
938.1575, 209.2305
938.6396, 180.7188
939.1217, 206.1562
939.6038, 228.0547
940.0859, 214.1445
940.5681, 180.2188
941.0502, 153.9102
941.5323, 136.0312
942.0144, 122.7070
942.4965, 110.0781
942.9786, 108.3398
943.4608, 117.8828
943.9429, 140.6992
944.4250, 192.5586
944.9071, 261.9062
945.3892, 298.6680
945.8713, 288.0000
946.3535, 257.3203
946.8356, 192.0430
947.3177, 130.0742
947.7998, 89.32031
948.2819, 73.11328
948.7640, 87.57031
949.2462, 133.0273
949.7283, 180.6406
950.2104, 225.9570
950.6925, 254.0547
951.1746, 242.1719
951.6567, 208.3203
952.1389, 178.8203
952.6210, 158.2695
953.1031, 143.2812
953.5852, 132.6758
954.0673, 122.4297
954.5494, 83.50391
955.0316, 46.32812
955.5137, 133.5156
955.9958, 320.8477
956.4779, 389.5117
956.9600, 260.1328
957.4421, 111.0156
957.9243, 149.3477
958.4064, 322.7695
958.8885, 387.3555
959.3706, 337.8750
959.8527, 256.6094
960.3348, 140.7656
960.8170, 78.22656
961.2991, 147.0234
961.7812, 279.0898
962.2633, 308.4258
962.7454, 197.4609
963.2275, 158.9766
963.7097, 243.1758
964.1918, 303.3320
964.6739, 284.9258
965.1560, 232.1641
965.6381, 181.4531
966.1202, 129.0195
966.6024, 97.91016
967.0845, 103.8047
967.5666, 100.7422
968.0487, 78.27734
968.5308, 52.70312
969.0129, 29.12500
969.4951, 10.17969
969.9772, 1.378906
970.4593, 4.996094
970.9414, 1.589844
971.4235, 8.750000
971.9056, 25.87891
972.3878, 33.12109
972.8699, 58.75391
973.3520, 170.7930
973.8341, 334.1289
974.3162, 412.4609
974.7983, 331.0195
975.2805, 219.3008
975.7626, 170.9883
976.2447, 150.3242
976.7268, 118.8711
977.2089, 78.66797
977.6910, 42.62891
978.1732, 13.58594
978.6553, 18.29688
979.1374, 72.23828
979.6195, 118.3711
980.1016, 124.4297
980.5837, 80.73438
981.0659, 99.67188
981.5480, 389.4062
982.0301, 529.0859
982.5122, 381.9258
982.9943, 125.4609
983.4764, 13.17578
983.9586, 21.69531
984.4407, 9.980469
984.9228, 21.09375
985.4049, 4.875000
985.8870, 81.45312
986.3691, 160.9766
986.8513, 169.1367
987.3334, 127.3281
987.8155, 98.78516
988.2976, 84.63672
988.7797, 78.43359
989.2618, 84.21484
989.7440, 83.89844
990.2261, 70.80469
990.7082, 45.71875
991.1903, 2.167969
991.6724, 58.55859
992.1545, 73.30859
992.6367, 12.13281
993.1188, 33.24609
993.6009, 43.03125
994.0830, 46.66016
994.5651, 61.00391
995.0472, 80.97656
995.5294, 93.84375
996.0115, 94.10156
996.4936, 111.7500
996.9757, 189.7930
997.4578, 231.4492
997.9399, 175.2695
998.4221, 102.1602
998.9042, 84.34766
999.3863, 110.2344
999.8684, 121.4805
1000.351, 94.67188
1000.833, 83.69922
1001.315, 113.0859
1001.797, 152.0117
1002.279, 180.3555
1002.761, 207.7422
1003.243, 260.2852
1003.725, 333.8438
1004.207, 371.4727
1004.690, 316.0586
1005.172, 264.7031
1005.654, 290.9805
1006.136, 334.5117
1006.618, 329.4414
1007.100, 290.9883
1007.582, 270.8750
1008.064, 284.1133
1008.547, 286.0430
1009.029, 213.3867
1009.511, 142.4023
1009.993, 171.5352
1010.475, 248.1523
1010.957, 281.1875
1011.439, 268.6758
1011.921, 269.9844
1012.403, 317.7383
1012.886, 359.8672
1013.368, 324.4688
1013.850, 252.4531
1014.332, 203.9883
1014.814, 185.7617
1015.296, 226.2969
1015.778, 321.6719
1016.260, 386.9648
1016.742, 343.6445
1017.225, 286.2344
1017.707, 415.0742
1018.189, 669.0977
1018.671, 834.0234
1019.153, 897.6172
1019.635, 903.9844
1020.117, 869.0586
1020.599, 807.1562
1021.082, 725.2891
1021.564, 636.6523
1022.046, 583.9727
1022.528, 566.3906
1023.010, 580.7656
1023.492, 628.0039
1023.974, 666.9023
1024.456, 677.4492
1024.938, 664.7656
1025.421, 633.6484
1025.903, 585.7422
1026.385, 542.0000
1026.867, 504.8047
1027.349, 441.4961
1027.831, 332.3086
1028.313, 259.4219
1028.795, 286.6328
1029.278, 371.9297
1029.760, 420.8164
1030.242, 428.4336
1030.724, 447.4883
1031.206, 492.1680
1031.688, 493.4492
1032.170, 413.5352
1032.652, 325.2148
1033.135, 286.8281
1033.617, 294.0586
1034.099, 337.6445
1034.581, 446.9453
1035.063, 504.5859
1035.545, 488.7461
1036.027, 462.0156
1036.509, 431.2461
1036.991, 413.9883
1037.474, 442.0508
1037.956, 510.2305
1038.438, 545.5000
1038.920, 493.9023
1039.402, 519.8828
1039.884, 729.0234
1040.366, 883.0312
1040.848, 836.5664
1041.330, 699.7734
1041.813, 603.5742
1042.295, 545.0547
1042.777, 587.6562
1043.259, 873.6836
1043.741, 1060.359
1044.223, 1046.422
1044.705, 985.5391
1045.187, 953.9414
1045.670, 944.4414
1046.152, 952.5586
1046.634, 987.1055
1047.116, 966.8672
1047.598, 830.7500
1048.080, 714.7344
1048.562, 645.1992
1049.044, 609.8047
1049.526, 621.7578
1050.009, 653.5391
1050.491, 618.0781
1050.973, 450.8125
1051.455, 448.2383
1051.937, 931.3789
1052.419, 1238.016
1052.901, 971.2266
1053.383, 566.3633
1053.865, 399.3828
1054.348, 434.9102
1054.830, 456.0586
1055.312, 380.5820
1055.794, 386.4961
1056.276, 637.9531
1056.758, 840.9062
1057.240, 828.8945
1057.722, 721.4766
1058.205, 625.8047
1058.687, 548.3789
1059.169, 492.1016
1059.651, 461.9883
1060.133, 440.3125
1060.615, 415.2578
1061.097, 404.1992
1061.579, 437.0273
1062.062, 477.4023
1062.544, 470.8125
1063.026, 423.5430
1063.508, 398.6289
1063.990, 436.1641
1064.472, 459.9492
1064.954, 420.6250
1065.436, 378.0547
1065.918, 390.8242
1066.401, 416.7734
1066.883, 370.9414
1067.365, 256.7695
1067.847, 203.9922
1068.329, 299.8594
1068.811, 404.2773
1069.293, 479.2695
1069.775, 517.1562
1070.257, 496.0781
1070.740, 440.9648
1071.222, 372.8281
1071.704, 302.3047
1072.186, 291.7578
1072.668, 440.0703
1073.150, 558.5977
1073.632, 528.0430
1074.114, 459.8945
1074.597, 435.9453
1075.079, 444.3516
1075.561, 451.4609
1076.043, 449.7227
1076.525, 447.7852
1077.007, 448.5508
1077.489, 450.9492
1077.971, 476.3086
1078.453, 483.9180
1078.936, 406.5820
1079.418, 292.4727
1079.900, 247.3203
1080.382, 295.2344
1080.864, 343.9414
1081.346, 359.3281
1081.828, 356.3320
1082.310, 338.6133
1082.792, 309.7695
1083.275, 261.4922
1083.757, 208.0273
1084.239, 178.9766
1084.721, 181.9219
1085.203, 193.9336
1085.685, 218.4102
1086.167, 233.1094
1086.649, 208.0977
1087.131, 182.9102
1087.614, 210.6875
1088.096, 266.1953
1088.578, 283.6797
1089.060, 245.8828
1089.542, 193.1094
1090.024, 108.9180
1090.506, 54.04688
1090.988, 75.70703
1091.471, 127.7500
1091.953, 186.4219
1092.435, 233.6406
1092.917, 234.2070
1093.399, 175.6445
1093.881, 112.8281
1094.363, 45.95703
1094.845, 4.042969
1095.328, 15.52344
1095.810, 45.68750
1096.292, 74.08594
1096.774, 91.89453
1097.256, 75.81641
1097.738, 10.35547
1098.220, 9.960938
1098.702, 105.0703
1099.184, 195.4453
1099.667, 184.1328
1100.149, 124.8945
1100.631, 33.91797
1101.113, 57.40234
1101.595, 76.81641
1102.077, 4.558594
1102.559, 61.12891
1103.041, 34.80078
1103.523, 13.48438
1104.006, 42.82422
1104.488, 78.62891
1104.970, 81.49219
1105.452, 61.07812
1105.934, 43.13281
1106.416, 27.87891
1106.898, 30.55859
1107.380, 64.72266
1107.863, 102.4062
1108.345, 154.8281
1108.827, 189.3008
1109.309, 167.2109
1109.791, 110.9648
1110.273, 79.00391
1110.755, 87.50000
1111.237, 62.67578
1111.719, 78.93750
1112.202, 148.4414
1112.684, 18.60547
1113.166, 114.9336
1113.648, 100.3984
1114.130, 5.300781
1114.612, 78.98047
1115.094, 123.7070
1115.576, 111.7695
1116.058, 16.61328
1116.541, 110.9258
1117.023, 134.4336
1117.505, 131.9961
1117.987, 128.4375
1118.469, 119.5156
1118.951, 93.89062
1119.433, 47.42188
1119.915, 13.87109
1120.398, 17.78125
1120.880, 9.644531
1121.362, 79.92578
1121.844, 147.1484
1122.326, 110.2188
1122.808, 33.06641
1123.290, 35.75781
1123.772, 124.2891
1124.255, 159.8047
1124.737, 122.8711
1125.219, 93.63672
1125.701, 84.37500
1126.183, 83.33984
1126.665, 87.14062
1127.147, 89.38672
1127.629, 77.19922
1128.111, 52.50000
1128.594, 53.48438
1129.076, 86.01172
1129.558, 108.4805
1130.040, 117.7070
1130.522, 98.25391
1131.004, 33.51953
1131.486, 25.62891
1131.968, 7.070313
1132.450, 74.05078
1132.933, 142.3086
1133.415, 197.3594
1133.897, 194.9336
1134.379, 128.6172
1134.861, 107.0234
1135.343, 180.3320
1135.825, 262.0508
1136.307, 249.8125
1136.790, 184.2227
1137.272, 191.3008
1137.754, 254.2852
1138.236, 274.0352
1138.718, 247.0352
1139.200, 219.7852
1139.682, 208.6953
1140.164, 201.0469
1140.646, 184.0625
1141.129, 166.9961
1141.611, 173.8047
1142.093, 191.4180
1142.575, 178.7500
1143.057, 144.5430
1143.539, 135.7969
1144.021, 160.0898
1144.503, 167.7656
1144.985, 114.5859
1145.468, 61.37891
1145.950, 107.3828
1146.432, 181.0703
1146.914, 150.1289
1147.396, 67.05469
1147.878, 66.68359
1148.360, 157.5859
1148.842, 238.9258
1149.325, 261.4531
1149.807, 250.7188
1150.289, 195.0117
1150.771, 146.7617
1151.253, 178.3867
1151.735, 235.3281
1152.217, 229.2070
1152.699, 169.1133
1153.182, 130.2656
1153.664, 139.3086
1154.146, 161.0664
1154.628, 166.5742
1155.110, 194.5117
1155.592, 312.4258
1156.074, 423.8164
1156.556, 420.2500
1157.038, 334.7031
1157.521, 263.4414
1158.003, 218.1953
1158.485, 218.3438
1158.967, 300.0117
1159.449, 375.9375
1159.931, 446.9102
1160.413, 484.2031
1160.895, 453.6719
1161.377, 384.8906
1161.860, 327.3125
1162.342, 280.4766
1162.824, 265.9492
1163.306, 310.9805
1163.788, 340.2656
1164.270, 345.4727
1164.752, 337.0078
1165.234, 318.3711
1165.717, 289.8984
1166.199, 243.1445
1166.681, 185.6719
1167.163, 193.7422
1167.645, 293.2109
1168.127, 341.7109
1168.609, 322.1289
1169.091, 282.0039
1169.573, 223.7578
1170.056, 180.8828
1170.538, 200.5547
1171.020, 257.4219
1171.502, 287.6172
1171.984, 292.6562
1172.466, 344.0391
1172.948, 440.3047
1173.430, 452.8477
1173.912, 356.7578
1174.395, 265.4102
1174.877, 264.5859
1175.359, 304.8789
1175.841, 310.7773
1176.323, 295.4805
1176.805, 282.5820
1177.287, 280.9258
1177.769, 332.3828
1178.252, 425.4727
1178.734, 479.4727
1179.216, 456.0234
1179.698, 410.8477
1180.180, 409.6992
1180.662, 403.7930
1181.144, 303.9688
1181.626, 187.1094
1182.109, 179.9102
1182.591, 249.8086
1183.073, 285.2266
1183.555, 257.7773
1184.037, 232.6406
1184.519, 258.2500
1185.001, 275.0508
1185.483, 217.8047
1185.965, 174.6602
1186.448, 242.2891
1186.930, 352.3984
1187.412, 403.1992
1187.894, 387.4844
1188.376, 353.0820
1188.858, 286.5508
1189.340, 239.5078
1189.822, 237.2227
1190.304, 239.7070
1190.787, 205.7930
1191.269, 193.7852
1191.751, 298.2734
1192.233, 455.1641
1192.715, 438.3008
1193.197, 178.7227
1193.679, 60.73828
1194.161, 124.2305
1194.644, 219.4766
1195.126, 335.6953
1195.608, 410.8047
1196.090, 400.9219
1196.572, 339.7148
1197.054, 276.4492
1197.536, 214.4961
1198.018, 190.6758
1198.500, 204.2031
1198.983, 202.5625
1199.465, 180.8008
1199.947, 179.0977
1200.429, 214.2383
1200.911, 247.9609
1201.393, 232.5898
1201.875, 215.1875
1202.357, 314.3281
1202.839, 462.2812
1203.322, 517.1875
1203.804, 482.9102
1204.286, 372.0977
1204.768, 211.2070
1205.250, 105.8125
1205.732, 119.8711
1206.214, 179.9805
1206.696, 266.7656
1207.179, 333.1992
1207.661, 326.9688
1208.143, 282.4805
1208.625, 230.1602
1209.107, 183.0391
1209.589, 158.6328
1210.071, 161.3477
1210.553, 184.9062
1211.036, 259.7305
1211.518, 310.0703
1212.000, 310.8984
1212.482, 282.5820
1212.964, 211.0273
1213.446, 133.9805
1213.928, 100.8086
1214.410, 111.7930
1214.892, 184.3984
1215.375, 388.4570
1215.857, 453.5742
1216.339, 311.7031
1216.821, 195.2344
1217.303, 192.0898
1217.785, 216.2266
1218.267, 191.8594
1218.749, 137.4922
1219.231, 94.37109
1219.714, 63.05859
1220.196, 48.57812
1220.678, 52.10547
1221.160, 103.5703
1221.642, 200.5000
1222.124, 251.5078
1222.606, 206.9727
1223.088, 140.1484
1223.571, 138.4844
1224.053, 160.4531
1224.535, 142.0000
1225.017, 98.89062
1225.499, 42.25781
1225.981, 11.11328
1226.463, 27.64844
1226.945, 0.5898440
1227.427, 54.25000
1227.910, 154.6133
1228.392, 224.9922
1228.874, 215.4648
1229.356, 172.7031
1229.838, 83.79688
1230.320, 12.18750
1230.802, 59.87109
1231.284, 187.1875
1231.766, 233.7383
1232.249, 157.3633
1232.731, 95.16797
1233.213, 55.12109
1233.695, 22.94922
1234.177, 12.76172
1234.659, 22.57812
1235.141, 18.14844
1235.623, 80.39844
1236.106, 123.8711
1236.588, 150.6367
1237.070, 184.4336
1237.552, 226.6719
1238.034, 186.8516
1238.516, 60.91797
1238.998, 16.49219
1239.480, 102.4961
1239.963, 173.7812
1240.445, 112.3125
1240.927, 23.52344
1241.409, 63.16406
1241.891, 184.2930
1242.373, 369.1133
1242.855, 535.9141
1243.337, 465.4648
1243.819, 223.9570
1244.302, 96.35938
1244.784, 179.9922
1245.266, 256.1055
1245.748, 174.4922
1246.230, 85.82812
1246.712, 66.05859
1247.194, 69.29297
1247.676, 61.57812
1248.158, 58.80859
1248.641, 85.19531
1249.123, 135.9414
1249.605, 162.7656
1250.087, 150.0547
1250.569, 145.5508
1251.051, 158.9336
1251.533, 155.6680
1252.015, 115.2539
1252.498, 90.06250
1252.980, 125.1836
1253.462, 167.8125
1253.944, 114.9961
1254.426, 5.855469
1254.908, 6.273438
1255.390, 98.70703
1255.872, 176.5742
1256.354, 212.2422
1256.837, 188.3438
1257.319, 87.16406
1257.801, 6.707031
1258.283, 54.14062
1258.765, 119.4453
1259.247, 84.86719
1259.729, 0.0000000E+00
##END=



