##NAMES=Chalcopyrite
##RRUFFID=R050208
##IDEAL CHEMISTRY=Cu^1+^Fe^3+^S^2-^_2_
##LOCALITY=Kidd Creek mine, Timmins, Ontario, Canada
##OWNER=RRUFF
##SOURCE=Lloyd Twaites
##DESCRIPTION=Brass yellow metallic fine-grained massive
##STATUS=The identification of this mineral has been confirmed by X-ray diffraction and chemical analysis
##URL=rruff.info/R050208
##MEASURED CHEMISTRY=Cu_1.00_Fe_1.00_S_2.00_
204.8168, 0.0000000E+00
205.2990, 5.4421000E-02
205.7811, 0.1297740
206.2632, 0.1927120
206.7453, 0.3312510
207.2274, 0.3567360
207.7095, 0.2190560
208.1917, 5.5268999E-02
208.6738, 4.6870001E-03
209.1559, 5.1299999E-03
209.6380, 6.6491000E-02
210.1201, 0.1107800
210.6022, 0.1469550
211.0844, 0.1476550
211.5665, 6.1586998E-02
212.0486, 4.3538000E-02
212.5307, 7.6747000E-02
213.0128, 3.2319999E-03
213.4949, 0.1200510
213.9771, 0.1718990
214.4592, 0.1126490
214.9413, 7.5755998E-02
215.4234, 0.1051380
215.9055, 0.1669380
216.3876, 0.2069080
216.8698, 0.2035240
217.3519, 0.1795740
217.8340, 0.1836170
218.3161, 0.2263740
218.7982, 0.2492890
219.2803, 0.2078470
219.7625, 0.1327430
220.2446, 9.6745998E-02
220.7267, 0.1306110
221.2088, 0.1980390
221.6909, 0.2436960
222.1730, 0.2648860
222.6552, 0.2907260
223.1373, 0.3388460
223.6194, 0.4037630
224.1015, 0.4685660
224.5836, 0.5341010
225.0657, 0.5900330
225.5479, 0.6277820
226.0300, 0.6475430
226.5121, 0.6542800
226.9942, 0.6356460
227.4763, 0.5988060
227.9584, 0.5975950
228.4406, 0.6700870
228.9227, 0.7546670
229.4048, 0.7976530
229.8869, 0.8004060
230.3690, 0.7999940
230.8511, 0.8224000
231.3333, 0.8673830
231.8154, 0.9257480
232.2975, 1.013819
232.7796, 1.098736
233.2617, 1.155066
233.7438, 1.185807
234.2260, 1.217917
234.7081, 1.281737
235.1902, 1.380548
235.6723, 1.460592
236.1544, 1.502192
236.6365, 1.537058
237.1187, 1.573986
237.6008, 1.615553
238.0829, 1.664761
238.5650, 1.726946
239.0471, 1.804326
239.5292, 1.877599
240.0114, 1.949518
240.4935, 2.014449
240.9756, 2.048429
241.4577, 2.067155
241.9398, 2.118916
242.4219, 2.263092
242.9041, 2.519198
243.3862, 2.716089
243.8683, 2.705538
244.3504, 2.770554
244.8325, 3.043927
245.3146, 3.175486
245.7968, 3.262171
246.2789, 3.306399
246.7610, 3.180573
247.2431, 3.274660
247.7252, 3.280819
248.2073, 3.283508
248.6895, 3.359038
249.1716, 3.413117
249.6537, 3.494062
250.1358, 3.600004
250.6179, 3.736092
251.1000, 3.812054
251.5822, 3.778249
252.0643, 3.742586
252.5464, 3.740265
253.0285, 3.768612
253.5106, 3.814186
253.9927, 3.871390
254.4748, 3.939708
254.9570, 3.963162
255.4391, 3.928529
255.9212, 3.872447
256.4033, 3.776217
256.8854, 3.666285
257.3676, 3.606692
257.8497, 3.649996
258.3318, 3.782717
258.8139, 3.834390
259.2960, 3.746866
259.7781, 3.661565
260.2603, 3.623255
260.7424, 3.623698
261.2245, 3.644933
261.7066, 3.683574
262.1887, 3.728810
262.6708, 3.713936
263.1530, 3.603405
263.6351, 3.496437
264.1172, 3.413903
264.5993, 3.357261
265.0814, 3.330517
265.5635, 3.338032
266.0457, 3.373693
266.5278, 3.414712
267.0099, 3.441286
267.4920, 3.508579
267.9741, 3.655185
268.4562, 3.852168
268.9384, 4.037056
269.4204, 4.179761
269.9026, 4.305271
270.3847, 4.479128
270.8668, 4.726027
271.3489, 4.948405
271.8310, 5.120137
272.3131, 5.244859
272.7953, 5.324621
273.2774, 5.353584
273.7595, 5.354980
274.2416, 5.364149
274.7237, 5.382695
275.2058, 5.395515
275.6880, 5.368223
276.1701, 5.338171
276.6522, 5.383084
277.1343, 5.535305
277.6164, 5.717329
278.0985, 5.816586
278.5807, 5.841483
279.0628, 5.902481
279.5449, 6.058639
280.0270, 6.261023
280.5091, 6.441898
280.9912, 6.593367
281.4734, 6.713207
281.9555, 6.779885
282.4376, 6.806476
282.9197, 6.842519
283.4018, 6.917682
283.8839, 7.001733
284.3661, 7.057725
284.8482, 7.083452
285.3303, 7.080900
285.8124, 7.056468
286.2945, 7.003882
286.7766, 6.900338
287.2588, 6.711845
287.7409, 6.486761
288.2230, 6.296892
288.7051, 6.150843
289.1872, 5.955501
289.6693, 5.643265
290.1515, 5.244359
290.6336, 4.814425
291.1157, 4.332379
291.5978, 3.854454
292.0799, 3.441846
292.5620, 3.094167
293.0442, 2.749537
293.5263, 2.349264
294.0084, 1.960339
294.4905, 1.670979
294.9726, 1.497416
295.4547, 1.395278
295.9369, 1.352315
296.4190, 1.363920
296.9011, 1.367643
297.3832, 1.339924
297.8653, 1.299389
298.3474, 1.264311
298.8296, 1.234509
299.3117, 1.216917
299.7938, 1.213407
300.2759, 1.225052
300.7580, 1.264445
301.2401, 1.359982
301.7223, 1.448624
302.2044, 1.462199
302.6865, 1.409464
303.1686, 1.364813
303.6507, 1.365341
304.1328, 1.404869
304.6150, 1.471138
305.0971, 1.581180
305.5792, 1.681499
306.0613, 1.722533
306.5434, 1.721852
307.0255, 1.723924
307.5077, 1.751286
307.9898, 1.793477
308.4719, 1.831305
308.9540, 1.866208
309.4361, 1.891597
309.9182, 1.887569
310.4004, 1.873887
310.8825, 1.884458
311.3646, 1.949289
311.8467, 2.023752
312.3288, 2.034456
312.8109, 1.969793
313.2931, 1.919709
313.7752, 1.967766
314.2573, 2.034320
314.7394, 2.020160
315.2215, 1.893753
315.7036, 1.731874
316.1858, 1.625134
316.6679, 1.573996
317.1500, 1.511066
317.6321, 1.402690
318.1142, 1.283156
318.5963, 1.193956
319.0785, 1.141234
319.5606, 1.082667
320.0427, 0.9801020
320.5248, 0.8414750
321.0069, 0.7164220
321.4890, 0.6145150
321.9712, 0.5326360
322.4533, 0.4714520
322.9354, 0.4242970
323.4175, 0.3664620
323.8996, 0.2842970
324.3817, 0.1912160
324.8639, 0.1060580
325.3460, 2.1234000E-02
325.8281, 4.2665999E-02
326.3102, 5.8150001E-02
326.7923, 4.1280001E-02
327.2744, 2.4045000E-02
327.7566, 1.4058000E-02
328.2387, 8.7369997E-03
328.7208, 1.1509000E-02
329.2029, 2.6644001E-02
329.6850, 3.3960000E-02
330.1671, 1.8829999E-02
330.6493, 1.2299000E-02
331.1314, 4.9793001E-02
331.6135, 9.1021001E-02
332.0956, 0.1285960
332.5777, 0.1689990
333.0598, 0.2135720
333.5420, 0.2460190
334.0241, 0.2573800
334.5062, 0.2497070
334.9883, 0.2241200
335.4704, 0.1754670
335.9525, 0.1419960
336.4347, 0.1610040
336.9168, 0.2161770
337.3989, 0.2500210
337.8810, 0.2469420
338.3631, 0.2261050
338.8452, 0.1956320
339.3274, 0.1570060
339.8094, 0.1445580
340.2916, 0.1878120
340.7737, 0.2620650
341.2558, 0.3301970
341.7379, 0.3917820
342.2200, 0.4332660
342.7021, 0.4291630
343.1843, 0.3930250
343.6664, 0.3666720
344.1485, 0.3554020
344.6306, 0.3585840
345.1127, 0.3854170
345.5948, 0.4351270
346.0770, 0.4714510
346.5591, 0.4687240
347.0412, 0.4380850
347.5233, 0.4171410
348.0054, 0.4157620
348.4875, 0.4084870
348.9697, 0.3653280
349.4518, 0.3011400
349.9339, 0.2715220
350.4160, 0.3073770
350.8981, 0.3685650
351.3802, 0.3861230
351.8624, 0.3578870
352.3445, 0.3175900
352.8266, 0.2519110
353.3087, 0.1880900
353.7908, 0.1801810
354.2729, 0.2440980
354.7551, 0.3146290
355.2372, 0.3182200
355.7193, 0.2527310
356.2014, 0.1915130
356.6835, 0.1327720
357.1656, 8.7371998E-02
357.6478, 7.0006996E-02
358.1299, 7.8216001E-02
358.6120, 8.6666003E-02
359.0941, 7.5043000E-02
359.5762, 4.8953999E-02
360.0583, 4.5063000E-02
360.5405, 7.6255001E-02
361.0226, 0.1130140
361.5047, 0.1542160
361.9868, 0.1919050
362.4689, 0.2061480
362.9510, 0.1860710
363.4332, 0.1454130
363.9153, 0.1157850
364.3974, 9.5183998E-02
364.8795, 8.5993998E-02
365.3616, 9.8070003E-02
365.8438, 0.1173010
366.3259, 0.1287610
366.8080, 0.1291010
367.2901, 0.1234590
367.7722, 0.1168700
368.2543, 0.1077650
368.7365, 0.1061050
369.2186, 0.1081600
369.7007, 0.1204280
370.1828, 0.1707940
370.6649, 0.2405810
371.1470, 0.2637260
371.6292, 0.1824980
372.1113, 1.0769000E-02
372.5934, 7.8644998E-02
373.0755, 7.1520000E-03
373.5576, 5.0462000E-02
374.0397, 4.3568999E-02
374.5219, 4.2019999E-03
375.0040, 1.9850999E-02
375.4861, 8.2599996E-03
375.9682, 2.3597000E-02
376.4503, 4.2497002E-02
376.9324, 4.3671001E-02
377.4146, 3.7852000E-02
377.8967, 2.4587000E-02
378.3788, 5.6929998E-03
378.8609, 2.7133999E-02
379.3430, 6.9355004E-02
379.8251, 9.7635999E-02
380.3073, 7.9691000E-02
380.7894, 2.7870000E-03
381.2715, 3.0313000E-02
381.7536, 2.7313000E-02
382.2357, 8.2289003E-02
382.7178, 0.1042550
383.2000, 0.1001390
383.6821, 8.7683000E-02
384.1642, 7.5653002E-02
384.6463, 6.5793999E-02
385.1284, 6.8264000E-02
385.6105, 9.6102998E-02
386.0927, 0.1147670
386.5748, 0.1131630
387.0569, 0.1034170
387.5390, 0.1019170
388.0211, 0.1124580
388.5032, 0.1153210
388.9854, 7.1093000E-02
389.4675, 3.6403000E-02
389.9496, 9.9995002E-02
390.4317, 6.4691998E-02
390.9138, 1.7457001E-02
391.3959, 1.5199999E-04
391.8781, 1.0332000E-02
392.3602, 2.4466000E-02
392.8423, 2.2623001E-02
393.3244, 1.0138000E-02
393.8065, 1.6407000E-02
394.2886, 5.2386999E-02
394.7708, 8.3062999E-02
395.2529, 8.2624003E-02
395.7350, 7.0061997E-02
396.2171, 7.1780004E-02
396.6992, 0.1011320
397.1813, 0.1387990
397.6635, 0.1635340
398.1456, 0.1762790
398.6277, 0.1731310
399.1098, 0.1408920
399.5919, 0.1030840
400.0740, 8.3442003E-02
400.5562, 8.2681000E-02
401.0383, 9.4283000E-02
401.5204, 0.1286790
402.0025, 0.1722570
402.4846, 0.1848200
402.9667, 0.1532550
403.4489, 0.1186950
403.9310, 0.1207390
404.4131, 0.1510230
404.8952, 0.1804190
405.3773, 0.2122040
405.8594, 0.2356290
406.3416, 0.2309960
406.8237, 0.2035110
407.3058, 0.1864660
407.7879, 0.1971080
408.2700, 0.2273930
408.7521, 0.2599760
409.2343, 0.3095230
409.7164, 0.3313930
410.1985, 0.2893400
410.6806, 0.2186330
411.1627, 0.1662340
411.6448, 0.1432910
412.1269, 0.1474120
412.6090, 0.1831590
413.0912, 0.2626060
413.5733, 0.3013480
414.0554, 0.2576320
414.5375, 0.2131440
415.0196, 0.2215760
415.5017, 0.2722410
415.9839, 0.3223300
416.4660, 0.3449810
416.9481, 0.3455720
417.4302, 0.3500580
417.9123, 0.3807720
418.3944, 0.3866120
418.8766, 0.3487980
419.3587, 0.2919530
419.8408, 0.2341760
420.3229, 0.1832860
420.8050, 0.1472540
421.2871, 0.1387840
421.7693, 0.1643820
422.2514, 0.1942110
422.7335, 0.2423840
423.2156, 0.2818350
423.6977, 0.2953370
424.1798, 0.2907400
424.6620, 0.2883700
425.1441, 0.3031580
425.6262, 0.3280140
426.1083, 0.3346620
426.5904, 0.3139660
427.0725, 0.2929050
427.5547, 0.2689190
428.0368, 0.2516710
428.5189, 0.2557460
429.0010, 0.2837510
429.4831, 0.3152280
429.9652, 0.3237980
430.4474, 0.3047920
430.9295, 0.3044080
431.4116, 0.3365800
431.8937, 0.3664410
432.3758, 0.3664170
432.8579, 0.3455710
433.3401, 0.3343550
433.8222, 0.3550310
434.3043, 0.3853350
434.7864, 0.3861560
435.2685, 0.3537400
435.7506, 0.3355860
436.2328, 0.3691510
436.7149, 0.4170870
437.1970, 0.4152760
437.6791, 0.3460720
438.1612, 0.2897220
438.6433, 0.3036940
439.1255, 0.3585210
439.6076, 0.3961200
440.0897, 0.4062790
440.5718, 0.3973980
441.0539, 0.3688280
441.5360, 0.3218770
442.0182, 0.3005660
442.5003, 0.3423010
442.9824, 0.3775820
443.4645, 0.3447760
443.9466, 0.2649430
444.4287, 0.2109340
444.9109, 0.2238330
445.3930, 0.2720570
445.8751, 0.2697980
446.3572, 0.1457860
446.8393, 8.4192000E-02
447.3214, 0.1513220
447.8036, 0.2487140
448.2857, 0.2894490
448.7678, 0.2638410
449.2499, 0.2253690
449.7320, 0.2303230
450.2141, 0.2832030
450.6963, 0.2879560
451.1784, 9.3840003E-02
451.6605, 0.1929800
452.1426, 0.2487340
452.6247, 0.2626870
453.1068, 0.1062280
453.5890, 0.1689540
454.0711, 0.1434780
454.5532, 0.1150180
455.0353, 0.2097520
455.5174, 7.8760996E-02
455.9995, 0.1715600
456.4817, 0.1746330
456.9638, 0.2184820
457.4459, 0.1735080
457.9280, 0.1562700
458.4101, 0.2282130
458.8922, 0.2499930
459.3744, 0.1949430
459.8565, 0.2413240
460.3386, 0.1063790
460.8207, 0.1302330
461.3028, 0.2222950
461.7849, 0.1711180
462.2671, 0.2190670
462.7492, 0.2303150
463.2313, 7.1621999E-02
463.7134, 0.2090650
464.1955, 0.2178860
464.6776, 9.5151000E-02
465.1598, 0.1064350
465.6419, 0.1217380
466.1240, 0.1776330
466.6061, 0.2129340
467.0882, 0.2041060
467.5703, 0.1866150
468.0525, 0.1944310
468.5346, 0.2165140
469.0167, 0.2071090
469.4988, 0.1372610
469.9809, 4.2319000E-02
470.4630, 6.1209998E-03
470.9452, 7.0058003E-02
471.4273, 0.1210130
471.9094, 0.1601190
472.3915, 0.1812130
472.8736, 0.1682630
473.3557, 0.1272720
473.8379, 8.5194997E-02
474.3200, 6.2112000E-02
474.8021, 5.8556002E-02
475.2842, 8.5386001E-02
475.7663, 0.2094630
476.2484, 0.2792700
476.7306, 0.2284720
477.2127, 0.1336740
477.6948, 7.4234001E-02
478.1769, 7.3873997E-02
478.6590, 0.1030470
479.1411, 0.1364240
479.6233, 0.1784700
480.1054, 0.1809970
480.5875, 0.1027520
481.0696, 3.0510999E-02
481.5517, 8.1430003E-03
482.0338, 2.2814000E-02
482.5159, 4.8735000E-02
482.9980, 8.5190997E-02
483.4802, 0.1139480
483.9623, 9.5951997E-02
484.4444, 3.0900000E-02
484.9265, 7.0039998E-03
485.4086, 1.6920000E-02
485.8907, 6.7662999E-02
486.3729, 0.1008810
486.8550, 0.1165070
487.3371, 0.1288780
487.8192, 0.1415050
488.3013, 0.1540360
488.7834, 0.1729260
489.2656, 0.1965400
489.7477, 0.1979020
490.2298, 0.1495300
490.7119, 6.8802997E-02
491.1940, 4.5766000E-02
491.6761, 0.1355970
492.1583, 0.1986040
492.6404, 0.1982720
493.1225, 0.1637170
493.6046, 0.1157890
494.0867, 6.4199001E-02
494.5688, 2.7152000E-02
495.0510, 2.6838001E-02
495.5331, 6.6266000E-02
496.0152, 0.1006970
496.4973, 0.1353400
496.9794, 0.1592970
497.4615, 0.1698080
497.9437, 0.1678000
498.4258, 0.1488870
498.9079, 0.1115760
499.3900, 7.4816003E-02
499.8721, 7.3707998E-02
500.3542, 0.1156800
500.8364, 0.1342180
501.3185, 9.4582997E-02
501.8006, 6.1779000E-02
502.2827, 8.4772997E-02
502.7648, 0.1436390
503.2469, 0.1845440
503.7291, 0.1780210
504.2112, 0.1469870
504.6933, 0.1221170
505.1754, 0.1037970
505.6575, 7.8331001E-02
506.1396, 2.8553000E-02
506.6218, 1.6195999E-02
507.1039, 9.1100001E-04
507.5860, 8.0514997E-02
508.0681, 0.1339230
508.5502, 0.1087310
509.0323, 6.0299002E-02
509.5145, 4.4844002E-02
509.9966, 6.2885001E-02
510.4787, 9.2381001E-02
510.9608, 0.1234260
511.4429, 0.1510670
511.9250, 0.1513070
512.4072, 7.5571001E-02
512.8893, 3.6947001E-02
513.3714, 8.5423000E-02
513.8535, 0.1450690
514.3356, 0.1354830
514.8177, 5.7723001E-02
515.2999, 1.9871000E-02
515.7820, 3.3686999E-02
516.2641, 1.2202000E-02
516.7462, 5.6875002E-02
517.2283, 0.1132940
517.7104, 0.1473760
518.1926, 0.1480460
518.6747, 0.1270890
519.1568, 8.7920003E-02
519.6389, 3.2148998E-02
520.1210, 1.6563000E-02
520.6031, 3.0373000E-02
521.0853, 1.5093000E-02
521.5674, 7.9539996E-03
522.0495, 1.8812001E-02
522.5316, 2.3726000E-02
523.0137, 2.6529999E-03
523.4958, 3.6235001E-02
523.9780, 8.2234003E-02
524.4601, 0.1543820
524.9422, 0.1993720
525.4243, 0.1565770
525.9064, 6.2706001E-02
526.3885, 5.5129998E-03
526.8707, 8.7400004E-03
527.3528, 3.7147000E-02
527.8349, 5.5027001E-02
528.3170, 6.2144998E-02
528.7991, 5.6008998E-02
529.2813, 1.5043000E-02
529.7634, 1.5962999E-02
530.2455, 1.1957000E-02
530.7276, 1.2846000E-02
531.2097, 3.3399001E-02
531.6918, 4.0008001E-02
532.1740, 4.2435002E-02
532.6561, 6.0741000E-02
533.1382, 0.1082400
533.6203, 0.1264320
534.1024, 7.0597999E-02
534.5845, 2.7953999E-02
535.0667, 4.0001001E-02
535.5488, 8.7677002E-02
536.0309, 0.1319810
536.5130, 0.1561410
536.9951, 0.1716070
537.4772, 0.1957120
537.9594, 0.2261520
538.4415, 0.2424490
538.9236, 0.2359780
539.4057, 0.2253790
539.8878, 0.2261140
540.3699, 0.2375560
540.8521, 0.2571660
541.3342, 0.2915690
541.8163, 0.3273790
542.2984, 0.3508600
542.7805, 0.3650960
543.2626, 0.3833140
543.7448, 0.4100130
544.2269, 0.4449980
544.7090, 0.4895290
545.1911, 0.5523960
545.6732, 0.6001640
546.1553, 0.6199080
546.6375, 0.6373920
547.1196, 0.6589220
547.6017, 0.6898820
548.0838, 0.7434680
548.5659, 0.8282410
549.0480, 0.9283660
549.5302, 1.010196
550.0123, 1.073251
550.4944, 1.115538
550.9765, 1.123174
551.4586, 1.121603
551.9407, 1.120287
552.4229, 1.118249
552.9050, 1.113844
553.3871, 1.109305
553.8692, 1.098104
554.3513, 1.066982
554.8334, 1.016243
555.3156, 0.9646780
555.7977, 0.9175620
556.2798, 0.8736500
556.7619, 0.8311010
557.2440, 0.7909540
557.7261, 0.7587030
558.2083, 0.7409940
558.6904, 0.7173220
559.1725, 0.6584580
559.6546, 0.5846820
560.1367, 0.5668160
560.6188, 0.6429310
561.1010, 0.7484380
561.5831, 0.7439560
562.0652, 0.5592190
562.5473, 0.4273770
563.0294, 0.3558640
563.5115, 0.3095550
563.9937, 0.2813480
564.4758, 0.2662630
564.9579, 0.2628110
565.4400, 0.2722180
565.9221, 0.2819310
566.4042, 0.2597520
566.8864, 0.1980310
567.3685, 0.1669540
567.8506, 0.2032500
568.3327, 0.2451940
568.8148, 0.2356940
569.2969, 0.1439740
569.7791, 0.2021470
570.2612, 0.2340080
570.7433, 0.2409870
571.2254, 0.1509040
571.7075, 0.1870330
572.1896, 0.1728390
572.6718, 0.1557330
573.1539, 0.2077370
573.6360, 0.1299650
574.1181, 0.1814800
574.6002, 0.1821450
575.0823, 0.2065390
575.5645, 0.1805650
576.0466, 0.1703200
576.5287, 0.2106160
577.0108, 0.2225340
577.4929, 0.1899540
577.9750, 0.2145220
578.4572, 0.1349290
578.9393, 0.1468250
579.4214, 0.1981280
579.9035, 0.1671140
580.3856, 0.1922100
580.8677, 0.1965160
581.3499, 0.1160450
581.8320, 0.1108790
582.3141, 0.1402660
582.7962, 0.1706530
583.2783, 0.1674160
583.7604, 0.1406190
584.2426, 0.1223220
584.7247, 0.1184410
585.2068, 0.1237450
585.6889, 0.1342070
586.1710, 0.1500220
586.6531, 0.1715850
587.1352, 0.2056650
587.6173, 0.2357820
588.0994, 0.2693510
588.5815, 0.2916590
589.0637, 0.2755990
589.5458, 0.2220340
590.0279, 0.1683630
590.5100, 0.1533160
590.9921, 0.1720240
591.4742, 0.1652120
591.9564, 0.1154640
592.4385, 6.8181999E-02
592.9206, 3.4099001E-02
593.4027, 6.8760002E-03
593.8848, 2.4193000E-02
594.3669, 5.8582000E-02
594.8491, 7.4433997E-02
595.3312, 5.0446998E-02
595.8133, 4.7900001E-04
596.2954, 6.0759999E-02
596.7775, 0.1309000
597.2596, 0.1755350
597.7418, 0.1695360
598.2239, 0.1371430
598.7060, 0.1288250
599.1881, 0.1523460
599.6702, 0.1642400
600.1523, 0.1508490
600.6345, 0.1297570
601.1166, 0.1053160
601.5987, 8.4261999E-02
602.0808, 8.5317999E-02
602.5629, 0.1198000
603.0450, 0.1648090
603.5272, 0.1658090
604.0093, 9.7397000E-02
604.4914, 6.2107000E-02
604.9735, 0.1034220
605.4556, 0.1411990
605.9377, 0.1324320
606.4199, 9.5680997E-02
606.9020, 7.2944999E-02
607.3841, 8.5041001E-02
607.8662, 0.1029280
608.3483, 8.0773003E-02
608.8304, 3.3606000E-02
609.3126, 3.9671000E-02
609.7947, 0.1245120
610.2768, 0.2145670
610.7589, 0.2463030
611.2410, 0.2226730
611.7231, 0.1958580
612.2053, 0.1678890
612.6874, 0.1345490
613.1695, 9.0879001E-02
613.6516, 4.3283001E-02
614.1337, 1.2315000E-02
614.6158, 6.9360003E-02
615.0980, 9.5390998E-02
615.5801, 5.3135000E-02
616.0622, 4.3798000E-02
616.5443, 9.3905002E-02
617.0264, 6.7199998E-02
617.5085, 5.5730000E-02
617.9907, 0.1218120
618.4728, 0.1826350
618.9549, 0.1525640
619.4370, 3.8936000E-02
619.9191, 4.3954000E-02
620.4012, 1.0555000E-02
620.8834, 7.3198996E-02
621.3655, 0.1239660
621.8476, 0.1426220
622.3297, 0.1387100
622.8118, 0.1110300
623.2939, 7.6560996E-02
623.7761, 6.0371999E-02
624.2582, 6.1450999E-02
624.7403, 7.5286001E-02
625.2224, 0.1333290
625.7045, 0.1723510
626.1866, 0.1437510
626.6688, 8.3806999E-02
627.1509, 5.1810998E-02
627.6330, 6.7519002E-02
628.1151, 9.8113999E-02
628.5972, 9.6671000E-02
629.0793, 6.2755004E-02
629.5615, 5.8619998E-02
630.0436, 0.1020020
630.5257, 0.1390300
631.0078, 0.1385230
631.4899, 0.1186700
631.9720, 9.9031001E-02
632.4542, 8.0535002E-02
632.9363, 6.7505002E-02
633.4184, 6.0580999E-02
633.9005, 6.1053000E-02
634.3826, 6.9610000E-02
634.8647, 8.6800002E-02
635.3469, 0.1188900
635.8290, 0.1727090
636.3111, 0.2339530
636.7932, 0.2669930
637.2753, 0.2585320
637.7574, 0.2484690
638.2396, 0.2307700
638.7217, 0.2178080
639.2038, 0.2233730
639.6859, 0.2344790
640.1680, 0.2406900
640.6501, 0.2368620
641.1323, 0.2230410
641.6144, 0.1878360
642.0965, 0.1375040
642.5786, 0.1237740
643.0607, 0.1564270
643.5428, 0.2051190
644.0250, 0.2614690
644.5071, 0.3146440
644.9892, 0.3282190
645.4713, 0.2674260
645.9534, 0.2287140
646.4355, 0.2616300
646.9177, 0.3148660
647.3998, 0.3359090
647.8819, 0.3250080
648.3640, 0.3148890
648.8461, 0.3288110
649.3282, 0.3538220
649.8104, 0.3493990
650.2925, 0.3026920
650.7746, 0.2665880
651.2567, 0.2507460
651.7388, 0.2421040
652.2209, 0.2350090
652.7031, 0.2305220
653.1852, 0.2332360
653.6673, 0.2532170
654.1494, 0.2659420
654.6315, 0.2410540
655.1136, 0.1944820
655.5958, 0.1646220
656.0779, 0.1585870
656.5600, 0.1659750
657.0421, 0.1830150
657.5242, 0.2051940
658.0063, 0.2003180
658.4885, 0.1276760
658.9706, 8.0702998E-02
659.4527, 8.1391998E-02
659.9348, 9.5859997E-02
660.4169, 0.1036180
660.8990, 0.1009100
661.3812, 9.3984000E-02
661.8633, 8.3200000E-02
662.3454, 7.4837998E-02
662.8275, 8.0445997E-02
663.3096, 9.9628001E-02
663.7917, 0.1312540
664.2739, 0.1825250
664.7560, 0.2274890
665.2381, 0.2402070
665.7202, 0.2260580
666.2023, 0.2181850
666.6844, 0.2332900
667.1666, 0.2337490
667.6487, 0.1736710
668.1308, 0.1124980
668.6129, 0.1435310
669.0950, 0.2564810
669.5771, 0.3360160
670.0593, 0.2821540
670.5414, 0.1442210
671.0235, 9.5174000E-02
671.5056, 0.1667610
671.9877, 0.2101720
672.4698, 0.1834590
672.9520, 0.1395550
673.4341, 0.1103680
673.9162, 9.9289998E-02
674.3983, 0.1071790
674.8804, 0.1538110
675.3625, 0.1885020
675.8447, 0.1633210
676.3268, 0.1089950
676.8089, 8.3709002E-02
677.2910, 9.5913999E-02
677.7731, 0.1095960
678.2552, 0.1023100
678.7374, 8.1197001E-02
679.2195, 7.6191001E-02
679.7016, 0.1104310
680.1837, 0.1204150
680.6658, 5.8416001E-02
681.1479, 7.3370002E-03
681.6301, 3.5363000E-02
682.1122, 0.1190010
682.5943, 0.1817280
683.0764, 0.1879680
683.5585, 0.1657690
684.0406, 0.1296600
684.5228, 8.8674001E-02
685.0049, 8.1109002E-02
685.4870, 0.1168230
685.9691, 0.1532860
686.4512, 0.1522030
686.9333, 0.1223440
687.4155, 0.1189680
687.8976, 0.1554930
688.3797, 0.2016930
688.8618, 0.3019400
689.3439, 0.3727580
689.8260, 0.3245680
690.3082, 0.1973360
690.7903, 0.1015180
691.2724, 9.4338998E-02
691.7545, 0.1373570
692.2366, 0.1904550
692.7188, 0.2502400
693.2009, 0.2821830
693.6830, 0.2765380
694.1651, 0.2636060
694.6472, 0.2749460
695.1293, 0.2958600
695.6115, 0.2573230
696.0936, 8.2070999E-02
696.5757, 1.0986000E-02
697.0578, 9.0801001E-02
697.5399, 0.2226150
698.0220, 0.2600380
698.5042, 0.2142560
698.9863, 0.1410940
699.4684, 6.5471999E-02
699.9505, 1.4526000E-02
700.4326, 5.5773001E-02
700.9147, 0.1881900
701.3969, 0.2526460
701.8790, 0.2132760
702.3611, 0.1628390
702.8432, 0.1531200
703.3253, 0.1717020
703.8074, 0.1907120
704.2896, 0.2133310
704.7717, 0.2259960
705.2538, 0.2175000
705.7359, 0.2039120
706.2180, 0.1871100
706.7001, 0.1772130
707.1823, 0.2040690
707.6644, 0.2807710
708.1465, 0.3647430
708.6286, 0.3870560
709.1107, 0.3442860
709.5928, 0.3068020
710.0750, 0.2770420
710.5571, 0.2479220
711.0392, 0.2131810
711.5213, 0.1790170
712.0034, 0.1524280
712.4855, 0.1338370
712.9677, 0.1235640
713.4498, 0.1382830
713.9319, 0.1468640
714.4140, 0.1028700
714.8961, 3.5565000E-02
715.3782, 2.4989000E-02
715.8604, 9.5371999E-02
716.3425, 0.1725890
716.8246, 0.1553790
717.3067, 4.6844002E-02
717.7888, 2.9160001E-03
718.2709, 5.1004998E-02
718.7531, 0.1042010
719.2352, 0.1527410
719.7173, 0.1817350
720.1994, 0.1680530
720.6815, 0.1147650
721.1636, 6.8604000E-02
721.6458, 5.0634999E-02
722.1279, 3.9303001E-02
722.6100, 8.7150000E-03
723.0921, 2.3705000E-02
723.5742, 1.5880000E-02
724.0563, 3.7553001E-02
724.5385, 9.2817999E-02
725.0206, 0.1106990
725.5027, 9.4564997E-02
725.9848, 6.0825001E-02
726.4669, 7.5490000E-03
726.9490, 4.8912000E-02
727.4312, 3.5154000E-02
727.9132, 6.6960002E-03
728.3953, 1.8560000E-02
728.8774, 3.6467001E-02
729.3596, 3.5370000E-02
729.8417, 3.7390001E-03
730.3238, 3.3457998E-02
730.8059, 7.1710996E-02
731.2880, 0.1010280
731.7701, 0.1004920
732.2523, 7.2384998E-02
732.7344, 4.1616000E-02
733.2165, 2.4098000E-02
733.6986, 1.7292000E-02
734.1807, 1.6896000E-02
734.6628, 2.7192000E-02
735.1450, 2.6401000E-02
735.6271, 1.7600000E-03
736.1092, 2.1500001E-02
736.5913, 7.1190000E-03
737.0734, 2.3987001E-02
737.5555, 4.5302000E-02
738.0377, 5.2322000E-02
738.5198, 5.1437002E-02
739.0019, 4.5455001E-02
739.4840, 3.2715000E-02
739.9661, 1.3787000E-02
740.4482, 9.8190000E-03
740.9304, 4.1512001E-02
741.4125, 8.2517996E-02
741.8946, 0.1160280
742.3767, 0.1145540
742.8588, 7.5925000E-02
743.3409, 4.7137000E-02
743.8231, 2.7305000E-02
744.3052, 1.9143000E-02
744.7873, 3.2467000E-02
745.2694, 5.2244000E-02
745.7515, 7.0885003E-02
746.2336, 8.6851001E-02
746.7158, 7.8812003E-02
747.1979, 1.0909000E-02
747.6800, 5.3332999E-02
748.1621, 6.5430000E-02
748.6442, 4.5901000E-02
749.1263, 2.5191000E-02
749.6085, 1.2213000E-02
750.0906, 1.0307000E-02
750.5727, 2.6226999E-02
751.0548, 5.0376002E-02
751.5369, 3.9873999E-02
752.0190, 1.7108001E-02
752.5012, 5.6621000E-02
752.9833, 6.1758000E-02
753.4654, 5.4365002E-02
753.9475, 4.5077000E-02
754.4296, 3.3438999E-02
754.9117, 3.1622000E-02
755.3939, 3.5232998E-02
755.8760, 5.0179999E-02
756.3581, 9.9059999E-02
756.8402, 0.1450080
757.3223, 0.1410260
757.8044, 9.9588998E-02
758.2866, 7.3794000E-02
758.7687, 8.7522998E-02
759.2508, 0.1221960
759.7329, 0.1569340
760.2150, 0.1912030
760.6971, 0.1974790
761.1793, 0.1652020
761.6614, 0.1377010
762.1435, 0.1351050
762.6256, 0.1480120
763.1077, 0.1667940
763.5898, 0.1946690
764.0720, 0.2014380
764.5541, 0.1519720
765.0362, 0.1156080
765.5183, 0.1419310
766.0004, 0.1932060
766.4825, 0.2102910
766.9647, 0.1888280
767.4468, 0.1834040
767.9289, 0.2515910
768.4110, 0.3501110
768.8931, 0.3730210
769.3752, 0.3225420
769.8574, 0.2672990
770.3395, 0.2173410
770.8216, 0.1817360
771.3037, 0.1691440
771.7858, 0.1773620
772.2679, 0.1931300
772.7501, 0.2361750
773.2322, 0.2576430
773.7143, 0.2365020
774.1964, 0.2106090
774.6785, 0.1996120
775.1606, 0.2036420
775.6428, 0.2206720
776.1249, 0.2535900
776.6070, 0.2842630
777.0891, 0.2999310
777.5712, 0.3004310
778.0533, 0.2778500
778.5355, 0.2347390
779.0176, 0.2002220
779.4997, 0.1858770
779.9818, 0.1898760
780.4639, 0.2105450
780.9460, 0.2484820
781.4282, 0.2896090
781.9103, 0.3558600
782.3924, 0.3956410
782.8745, 0.3877670
783.3566, 0.3594810
783.8387, 0.3234570
784.3209, 0.2854100
784.8030, 0.2642890
785.2851, 0.2753080
785.7672, 0.3037900
786.2493, 0.3458310
786.7314, 0.3919940
787.2136, 0.4285350
787.6957, 0.4529910
788.1778, 0.4677150
788.6599, 0.4759790
789.1420, 0.4716220
789.6241, 0.4336560
790.1063, 0.3518990
790.5884, 0.3034500
791.0705, 0.2977330
791.5526, 0.3121320
792.0347, 0.3478790
792.5168, 0.3909010
792.9990, 0.4208720
793.4811, 0.4359120
793.9632, 0.4569960
794.4453, 0.5156690
794.9274, 0.5531530
795.4095, 0.5083480
795.8917, 0.4315650
796.3738, 0.4003340
796.8559, 0.4283600
797.3380, 0.4797860
797.8201, 0.5396170
798.3022, 0.5828440
798.7844, 0.4692700
799.2665, 0.5305550
799.7486, 0.5661630
800.2307, 0.5774750
800.7128, 0.4915810
801.1949, 0.5313100
801.6771, 0.5207570
802.1592, 0.5081850
802.6413, 0.5657220
803.1234, 0.4941980
803.6055, 0.5507140
804.0876, 0.5561820
804.5698, 0.5850840
805.0519, 0.5634060
805.5340, 0.5556280
806.0161, 0.5980370
806.4982, 0.6133570
806.9803, 0.5854800
807.4625, 0.6160010
807.9446, 0.5430680
808.4267, 0.5606270
808.9088, 0.6165620
809.3909, 0.5910580
809.8730, 0.6229620
810.3552, 0.6334650
810.8373, 0.5465190
811.3194, 0.5927500
811.8015, 0.6327970
812.2836, 0.6734280
812.7657, 0.7248410
813.2479, 0.7581640
813.7300, 0.7446620
814.2121, 0.7025310
814.6942, 0.6675950
815.1763, 0.6392110
815.6584, 0.6312100
816.1406, 0.6656500
816.6227, 0.7062590
817.1048, 0.7295410
817.5869, 0.7355370
818.0690, 0.7215090
818.5511, 0.6897310
819.0333, 0.6663780
819.5154, 0.6831820
819.9975, 0.7258710
820.4796, 0.7503740
820.9617, 0.7571080
821.4438, 0.7680760
821.9260, 0.7914380
822.4081, 0.8091210
822.8902, 0.8023670
823.3723, 0.7758610
823.8544, 0.7589390
824.3365, 0.7426210
824.8187, 0.7510030
825.3008, 0.8210700
825.7829, 0.8774750
826.2650, 0.8685690
826.7471, 0.8240470
827.2292, 0.7917250
827.7114, 0.7822890
828.1935, 0.7937720
828.6756, 0.8382750
829.1577, 0.8926080
829.6398, 0.9331340
830.1219, 0.9626020
830.6041, 0.9944650
831.0862, 1.030755
831.5683, 1.053784
832.0504, 1.045017
832.5325, 1.012057
833.0146, 0.9802670
833.4968, 0.9478310
833.9789, 0.9340460
834.4610, 0.9502260
834.9431, 0.9664860
835.4252, 0.9558420
835.9073, 0.9314060
836.3895, 0.9358050
836.8716, 0.9855310
837.3537, 1.018193
837.8358, 1.022301
838.3179, 1.015295
838.8000, 0.9925880
839.2822, 0.9705360
839.7643, 0.9724350
840.2464, 1.000651
840.7285, 1.032656
841.2106, 1.057405
841.6927, 1.074913
842.1749, 1.085826
842.6570, 1.089499
843.1391, 1.075959
843.6212, 1.046933
844.1033, 1.039628
844.5854, 1.084185
845.0676, 1.152900
845.5497, 1.172099
846.0318, 1.132027
846.5139, 1.100157
846.9960, 1.076740
847.4781, 1.067487
847.9603, 1.098182
848.4424, 1.128377
848.9245, 1.076716
849.4066, 0.9341680
849.8887, 0.8734860
850.3708, 1.001300
850.8530, 1.105991
851.3351, 1.096546
851.8172, 1.038401
852.2993, 0.9750480
852.7814, 0.9262050
853.2635, 0.9269700
853.7457, 1.008254
854.2278, 1.092198
854.7099, 1.076835
855.1920, 1.010127
855.6741, 1.005549
856.1563, 1.063127
856.6384, 1.103723
857.1205, 1.085915
857.6026, 1.043367
858.0847, 1.015957
858.5668, 1.003504
859.0490, 0.9993890
859.5311, 1.008788
860.0132, 1.009607
860.4953, 0.9845600
860.9774, 0.9646940
861.4595, 0.9908570
861.9417, 1.046197
862.4238, 1.062203
862.9059, 1.002835
863.3880, 0.9633660
863.8701, 0.9792390
864.3522, 1.003247
864.8344, 1.011359
865.3165, 1.001185
865.7986, 0.9658400
866.2807, 0.9071410
866.7628, 0.8684680
867.2449, 0.9118890
867.7271, 0.9700560
868.2092, 0.9297420
868.6913, 0.8311720
869.1733, 0.7979850
869.6555, 0.8486120
870.1376, 0.8917130
870.6197, 0.8563120
871.1018, 0.7837820
871.5839, 0.7808390
872.0660, 0.8578740
872.5482, 0.9189720
873.0303, 0.9691450
873.5124, 0.9732880
873.9945, 0.8845040
874.4766, 0.7689510
874.9587, 0.7320010
875.4409, 0.7835160
875.9230, 0.8086300
876.4051, 0.7716380
876.8872, 0.7563710
877.3693, 0.8128880
877.8514, 0.8697300
878.3336, 0.8630200
878.8157, 0.8080610
879.2978, 0.7544730
879.7799, 0.7177210
880.2620, 0.6938800
880.7441, 0.6887810
881.2263, 0.6910140
881.7084, 0.6929080
882.1905, 0.6881310
882.6726, 0.6552160
883.1547, 0.5917610
883.6368, 0.5391330
884.1190, 0.5405680
884.6011, 0.5772340
885.0832, 0.5982890
885.5653, 0.6038830
886.0474, 0.5922520
886.5295, 0.5596670
887.0117, 0.5300670
887.4938, 0.5207460
887.9759, 0.5215620
888.4580, 0.5092280
888.9401, 0.4796500
889.4222, 0.4529320
889.9044, 0.4243970
890.3865, 0.4061260
890.8686, 0.4097660
891.3507, 0.4157510
891.8328, 0.4061060
892.3149, 0.3847660
892.7971, 0.3713960
893.2792, 0.3765260
893.7613, 0.3807680
894.2434, 0.3854380
894.7255, 0.3779020
895.2076, 0.3232710
895.6898, 0.2518940
896.1719, 0.2425370
896.6540, 0.3162960
897.1361, 0.3846370
897.6182, 0.3537540
898.1003, 0.2727960
898.5825, 0.2188240
899.0646, 0.1906240
899.5467, 0.2071300
900.0288, 0.2700450
900.5109, 0.3128280
900.9930, 0.2826220
901.4752, 0.2126840
901.9573, 0.1884840
902.4394, 0.2182090
902.9215, 0.2307260
903.4036, 0.2211250
903.8857, 0.2046560
904.3679, 0.1863520
904.8500, 0.1657790
905.3321, 0.1371630
905.8142, 0.1009110
906.2963, 8.9665003E-02
906.7784, 0.1367750
907.2606, 0.1575430
907.7427, 0.1070770
908.2248, 6.3127004E-02
908.7069, 9.5507003E-02
909.1890, 0.1633010
909.6711, 0.1837470
910.1533, 0.1360650
910.6354, 7.8654997E-02
911.1175, 2.1986000E-02
911.5996, 1.4977000E-02
912.0817, 8.9140004E-03
912.5638, 5.1295001E-02
913.0460, 2.5209000E-02
913.5281, 6.2070999E-02
914.0102, 0.1037230
914.4923, 2.5362000E-02
914.9744, 8.8312998E-02
915.4565, 0.1141850
915.9387, 7.5459003E-02
916.4208, 4.0286001E-02
916.9029, 1.4739000E-02
917.3850, 8.1070000E-03
917.8671, 2.5680000E-02
918.3492, 4.1242000E-02
918.8314, 2.1379000E-02
919.3135, 2.6819000E-02
919.7956, 5.0732002E-02
920.2777, 4.3673001E-02
920.7598, 4.3953001E-02
921.2419, 6.5628998E-02
921.7241, 7.5905003E-02
922.2062, 4.5058999E-02
922.6883, 4.0610000E-03
923.1704, 2.2461999E-02
923.6525, 4.7400000E-04
924.1346, 1.5549000E-02
924.6168, 2.7014000E-02
925.0989, 3.0735999E-02
925.5810, 1.5962999E-02
926.0631, 1.1390001E-03
926.5452, 6.9610002E-03
927.0273, 2.6954999E-02
927.5095, 3.5278000E-02
927.9916, 2.0555999E-02
928.4737, 5.7669999E-03
928.9558, 3.3370000E-03
929.4379, 2.6750001E-03
929.9200, 2.6020000E-02
930.4022, 6.2162999E-02
930.8843, 6.7247003E-02
931.3664, 3.4752000E-02
931.8485, 1.2077000E-02
932.3306, 6.8086997E-02
932.8127, 0.1089690
933.2949, 7.9164997E-02
933.7770, 1.1608000E-02
934.2591, 1.2300001E-04
934.7412, 4.5839000E-02
935.2233, 8.3589002E-02
935.7054, 8.1937000E-02
936.1876, 6.0426001E-02
936.6697, 4.4791002E-02
937.1518, 3.3261999E-02
937.6339, 9.8000001E-03
938.1160, 2.8197000E-02
938.5981, 5.2804999E-02
939.0803, 5.7409000E-02
939.5624, 5.0106999E-02
940.0445, 3.3013001E-02
940.5266, 1.2156000E-02
941.0087, 5.1469998E-03
941.4908, 2.0613000E-02
941.9730, 1.9796999E-02
942.4551, 3.0570000E-03
942.9372, 3.4072001E-02
943.4193, 8.9355998E-02
943.9014, 0.1344490
944.3835, 0.1322630
944.8657, 9.2106998E-02
945.3478, 5.8665998E-02
945.8299, 3.6219001E-02
946.3120, 2.2236001E-02
946.7941, 2.2051999E-02
947.2762, 2.3838000E-02
947.7584, 9.6930005E-03
948.2405, 1.5920000E-03
948.7226, 2.7090000E-02
949.2047, 9.4906002E-02
949.6868, 0.1457200
950.1689, 0.1461280
950.6511, 0.1274450
951.1332, 0.1043060
951.6153, 8.2006000E-02
952.0974, 6.9721997E-02
952.5795, 6.4343996E-02
953.0616, 5.3624999E-02
953.5438, 3.3291001E-02
954.0259, 1.5463000E-02
954.5080, 1.8559000E-02
954.9901, 2.8035000E-02
955.4722, 3.3130001E-03
955.9543, 4.1219998E-02
956.4365, 4.5129001E-02
956.9186, 1.0010001E-03
957.4007, 4.5880999E-02
957.8828, 6.7704000E-02
958.3649, 7.9530001E-02
958.8470, 0.1165550
959.3292, 0.1758950
959.8113, 0.1729550
960.2934, 9.7401001E-02
960.7755, 5.1662002E-02
961.2576, 6.9806002E-02
961.7397, 0.1020050
962.2219, 0.1078710
962.7040, 9.3243003E-02
963.1861, 7.6021999E-02
963.6682, 4.4580001E-02
964.1503, 4.7881000E-02
964.6324, 0.1141310
965.1146, 0.1668580
965.5967, 0.1743610
966.0788, 0.1605490
966.5609, 0.1432090
967.0430, 0.1245600
967.5251, 0.1210170
968.0073, 0.1534750
968.4894, 0.1697340
968.9715, 0.1486050
969.4536, 0.1273980
969.9357, 0.1285280
970.4178, 0.1400570
970.9000, 0.1459830
971.3821, 0.1422990
971.8642, 0.1348760
972.3463, 0.1285530
972.8284, 0.1267440
973.3105, 0.1352620
973.7927, 0.1464970
974.2748, 0.1517180
974.7569, 0.1542840
975.2390, 0.1679720
975.7211, 0.1947950
976.2032, 0.2058700
976.6854, 0.1623260
977.1675, 0.1097570
977.6496, 0.1039600
978.1317, 0.1227220
978.6138, 0.1198610
979.0959, 9.6487999E-02
979.5781, 8.9143001E-02
980.0602, 0.1165960
980.5423, 0.1546380
981.0244, 0.1728910
981.5065, 0.1780180
981.9886, 0.1873230
982.4708, 0.1983310
982.9529, 0.1998590
983.4350, 0.1908260
983.9171, 0.1731730
984.3992, 0.1462110
984.8813, 0.1144910
985.3635, 8.6102001E-02
985.8456, 6.2904999E-02
986.3277, 4.9725998E-02
986.8098, 4.5642000E-02
987.2919, 6.5609999E-02
987.7740, 0.1176700
988.2562, 0.1605410
988.7383, 0.1591920
989.2204, 0.1374400
989.7025, 0.1621320
990.1846, 0.2500270
990.6667, 0.2798850
991.1489, 0.2282400
991.6310, 0.1776830
992.1131, 0.1488320
992.5952, 0.1383680
993.0773, 0.1476600
993.5594, 0.1703130
994.0416, 0.1765950
994.5237, 0.1514540
995.0058, 0.1414350
995.4879, 0.1574860
995.9700, 0.1720140
996.4521, 0.1885840
996.9343, 0.1940110
997.4164, 0.1649270
997.8985, 0.1103540
998.3806, 7.9636000E-02
998.8627, 9.3231000E-02
999.3448, 9.7736999E-02
999.8270, 6.3325003E-02
1000.309, 4.5177002E-02
1000.791, 8.8798001E-02
1001.273, 0.1518750
1001.755, 0.1836660
1002.238, 0.1818150
1002.720, 0.1717940
1003.202, 0.1589380
1003.684, 0.1433830
1004.166, 0.1167160
1004.648, 9.6037000E-02
1005.130, 9.6676998E-02
1005.612, 0.1110120
1006.094, 0.1295580
1006.577, 0.1511250
1007.059, 0.1720550
1007.541, 0.1948540
1008.023, 0.2060480
1008.505, 0.1873390
1008.987, 0.1574060
1009.469, 0.1356020
1009.951, 0.1220150
1010.433, 0.1120240
1010.916, 0.1041060
1011.398, 0.1013170
1011.880, 0.1079660
1012.362, 0.1174420
1012.844, 0.1220410
1013.326, 0.1211970
1013.808, 0.1117360
1014.290, 9.9423997E-02
1014.773, 9.6685000E-02
1015.255, 0.1060420
1015.737, 0.1249330
1016.219, 0.1575910
1016.701, 0.1896570
1017.183, 0.1854200
1017.665, 0.1605000
1018.147, 0.1553290
1018.629, 0.1728710
1019.112, 0.1876140
1019.594, 0.1895170
1020.076, 0.1841220
1020.558, 0.1787180
1021.040, 0.1732080
1021.522, 0.1685530
1022.004, 0.1672130
1022.486, 0.1461290
1022.969, 0.1055960
1023.451, 9.4434001E-02
1023.933, 0.1369260
1024.415, 0.1905110
1024.897, 0.2049400
1025.379, 0.1875600
1025.861, 0.1690050
1026.343, 0.1481430
1026.825, 0.1470990
1027.308, 0.1688440
1027.790, 0.2087180
1028.272, 0.2754410
1028.754, 0.3177730
1029.236, 0.2564760
1029.718, 0.1160250
1030.200, 7.2223000E-02
1030.682, 0.1529270
1031.165, 0.2127310
1031.647, 0.2359540
1032.129, 0.2400610
1032.611, 0.2257300
1033.093, 0.2107220
1033.575, 0.2222430
1034.057, 0.2568450
1034.539, 0.2631420
1035.021, 0.2250950
1035.504, 0.2022810
1035.986, 0.2076760
1036.468, 0.2121880
1036.950, 0.1944830
1037.432, 0.1782580
1037.914, 0.1991150
1038.396, 0.2544000
1038.878, 0.2912500
1039.360, 0.3131210
1039.843, 0.3088610
1040.325, 0.2405300
1040.807, 0.1974180
1041.289, 0.2512820
1041.771, 0.3251810
1042.253, 0.3106840
1042.735, 0.2138530
1043.217, 0.1649270
1043.700, 0.2023310
1044.182, 0.2273730
1044.664, 0.2424000
1045.146, 0.2377020
1045.628, 0.1784320
1046.110, 0.1186160
1046.592, 0.1359050
1047.074, 0.2198590
1047.557, 0.2608620
1048.039, 0.2153620
1048.521, 0.1849220
1049.003, 0.1884720
1049.485, 0.1981390
1049.967, 0.2047900
1050.449, 0.2091210
1050.931, 0.2131930
1051.413, 0.2163050
1051.896, 0.2129820
1052.378, 0.1882740
1052.860, 0.1856600
1053.342, 0.2475450
1053.824, 0.2927420
1054.306, 0.2686230
1054.788, 0.2180580
1055.270, 0.1804060
1055.752, 0.1597760
1056.235, 0.1542100
1056.717, 0.1681290
1057.199, 0.1857090
1057.681, 0.2081680
1058.163, 0.2289700
1058.645, 0.2457830
1059.127, 0.2534700
1059.609, 0.2422960
1060.092, 0.2181340
1060.574, 0.2021100
1061.056, 0.2015810
1061.538, 0.1996520
1062.020, 0.1882170
1062.502, 0.1795150
1062.984, 0.1859990
1063.466, 0.1870810
1063.948, 0.1483070
1064.431, 8.5414998E-02
1064.913, 4.8211001E-02
1065.395, 5.1798001E-02
1065.877, 6.2047999E-02
1066.359, 7.6585002E-02
1066.841, 8.1431001E-02
1067.323, 4.4362999E-02
1067.805, 1.4713000E-02
1068.287, 6.3831002E-02
1068.770, 0.1555720
1069.252, 0.1872200
1069.734, 0.1301880
1070.216, 8.4816001E-02
1070.698, 0.1017990
1071.180, 0.1291960
1071.662, 0.1556140
1072.144, 0.1668240
1072.627, 0.1335550
1073.109, 8.0748998E-02
1073.591, 6.4967997E-02
1074.073, 9.7514004E-02
1074.555, 0.1165460
1075.037, 4.7070999E-02
1075.519, 0.1108350
1076.001, 0.2020910
1076.484, 0.2267010
1076.966, 1.0765000E-02
1077.448, 8.7200001E-02
1077.930, 5.0756000E-02
1078.412, 8.8219997E-03
1078.894, 0.1540320
1079.376, 4.5809999E-02
1079.858, 9.6423000E-02
1080.340, 0.1022330
1080.823, 0.1706320
1081.305, 0.1038240
1081.787, 7.8679003E-02
1082.269, 0.1887160
1082.751, 0.2236780
1083.233, 0.1408010
1083.715, 0.2127790
1084.197, 8.1540002E-03
1084.679, 4.6386998E-02
1085.161, 0.1892700
1085.644, 0.1131540
1086.126, 0.1875710
1086.608, 0.2047840
1087.090, 3.8686998E-02
1087.572, 0.1709260
1088.054, 0.1845760
1088.536, 4.3370001E-02
1089.018, 5.3082000E-02
1089.501, 6.4704999E-02
1089.983, 6.3796997E-02
1090.465, 5.6336999E-02
1090.947, 4.1533999E-02
1091.429, 2.7651001E-02
1091.911, 3.8963001E-02
1092.393, 8.6138003E-02
1092.875, 0.1165340
1093.358, 8.5573003E-02
1093.840, 6.3807003E-02
1094.322, 0.1053970
1094.804, 0.1532440
1095.286, 0.1568750
1095.768, 0.1261400
1096.250, 7.7460997E-02
1096.732, 1.4343000E-02
1097.214, 5.9079998E-03
1097.697, 9.4149001E-02
1098.179, 0.1587520
1098.661, 9.0274997E-02
1099.143, 1.2596000E-02
1099.625, 3.0157000E-02
1100.107, 8.7550998E-02
1100.589, 8.9483000E-02
1101.071, 3.2005999E-02
1101.553, 9.0720002E-03
1102.036, 1.0414000E-02
1102.518, 2.7600001E-04
1103.000, 2.0383000E-02
1103.482, 4.3118998E-02
1103.964, 7.1887001E-02
1104.446, 9.4195001E-02
1104.928, 8.9120001E-02
1105.410, 6.3612998E-02
1105.893, 5.4857001E-02
1106.375, 7.9908997E-02
1106.857, 9.2713997E-02
1107.339, 6.4269997E-02
1107.821, 4.0282998E-02
1108.303, 4.5407001E-02
1108.785, 5.7905000E-02
1109.267, 5.9935000E-02
1109.750, 5.4396000E-02
1110.232, 5.1491000E-02
1110.714, 5.3746000E-02
1111.196, 4.7920998E-02
1111.678, 1.6106000E-02
1112.160, 1.1400000E-04
1112.642, 2.1512000E-02
1113.124, 4.7426000E-02
1113.606, 6.7645997E-02
1114.089, 7.5195000E-02
1114.571, 5.0023999E-02
1115.053, 1.0348000E-02
1115.535, 3.8291998E-02
1116.017, 1.7542999E-02
1116.499, 9.4929999E-03
1116.981, 4.7899000E-02
1117.463, 8.6850002E-02
1117.945, 0.1295890
1118.428, 0.1514020
1118.910, 0.1057130
1119.392, 1.0307000E-02
1119.874, 3.1180000E-02
1120.356, 5.7250001E-03
1120.838, 3.3867002E-02
1121.320, 5.0177999E-02
1121.802, 6.4507000E-02
1122.285, 8.5074000E-02
1122.767, 9.3983002E-02
1123.249, 6.6170998E-02
1123.731, 2.6782000E-02
1124.213, 4.4652000E-02
1124.695, 0.1321790
1125.177, 0.1576990
1125.659, 9.5610999E-02
1126.141, 5.5165999E-02
1126.624, 5.8123998E-02
1127.106, 7.8418002E-02
1127.588, 0.1089770
1128.070, 0.1324630
1128.552, 0.1208750
1129.034, 7.9163000E-02
1129.516, 4.6957001E-02
1129.998, 2.2407999E-02
1130.480, 2.8306000E-02
1130.963, 7.3709004E-02
1131.445, 9.7058997E-02
1131.927, 7.2696000E-02
1132.409, 2.7422000E-02
1132.891, 2.1067999E-02
1133.373, 5.3410999E-02
1133.855, 2.7982000E-02
1134.337, 5.1380001E-02
1134.820, 8.1698000E-02
1135.302, 6.3024998E-02
1135.784, 5.5725999E-02
1136.266, 7.3845997E-02
1136.748, 8.5630998E-02
1137.230, 6.7588001E-02
1137.712, 4.0235002E-02
1138.194, 1.8420000E-02
1138.677, 5.6989999E-03
1139.159, 2.0950001E-02
1139.641, 5.7328001E-02
1140.123, 8.6806998E-02
1140.605, 0.1044970
1141.087, 0.1020620
1141.569, 7.7951998E-02
1142.051, 6.1326001E-02
1142.533, 8.4965996E-02
1143.016, 0.1197400
1143.498, 0.1022500
1143.980, 6.7993999E-02
1144.462, 0.1145280
1144.944, 0.2069100
1145.426, 0.2295790
1145.908, 0.1699970
1146.390, 0.1383480
1146.872, 0.2020280
1147.355, 0.2702040
1147.837, 0.2426300
1148.319, 0.1822690
1148.801, 0.1659740
1149.283, 0.1660430
1149.765, 0.1279490
1150.247, 6.4075999E-02
1150.729, 2.7911000E-02
1151.212, 3.4589000E-02
1151.694, 4.6404999E-02
1152.176, 3.3535998E-02
1152.658, 2.9127000E-02
1153.140, 8.0627002E-02
1153.622, 0.1251130
1154.104, 8.1639998E-02
1154.586, 5.4839998E-03
1155.068, 1.2459000E-02
1155.551, 3.1228000E-02
1156.033, 7.6752000E-02
1156.515, 0.1139860
1156.997, 0.1298960
1157.479, 0.1029500
1157.961, 7.6580003E-02
1158.443, 7.7125996E-02
1158.925, 8.0700003E-02
1159.407, 6.1514001E-02
1159.890, 2.9963000E-02
1160.372, 1.1243000E-02
1160.854, 7.7840001E-03
1161.336, 1.0309000E-02
1161.818, 1.1249000E-02
1162.300, 2.8703000E-02
1162.782, 0.1056110
1163.264, 0.1464340
1163.747, 6.8406999E-02
1164.229, 2.6391000E-02
1164.711, 1.1081000E-02
1165.193, 9.0166003E-02
1165.675, 0.1456460
1166.157, 0.1467930
1166.639, 0.1265280
1167.121, 7.0130996E-02
1167.604, 3.8926002E-02
1168.086, 5.7266001E-02
1168.568, 7.8753002E-02
1169.050, 7.0473000E-02
1169.532, 4.9596000E-02
1170.014, 4.7596000E-02
1170.496, 6.2006999E-02
1170.978, 6.1712999E-02
1171.460, 4.6367999E-02
1171.943, 3.2102998E-02
1172.425, 2.0254999E-02
1172.907, 2.5211001E-02
1173.389, 5.2795000E-02
1173.871, 6.4366996E-02
1174.353, 1.4102000E-02
1174.835, 4.8560001E-02
1175.317, 3.6800001E-03
1175.799, 0.1246870
1176.282, 0.1464310
1176.764, 9.0544000E-02
1177.246, 5.8095001E-02
1177.728, 6.4047001E-02
1178.210, 7.9729997E-02
1178.692, 8.7677002E-02
1179.174, 9.0415999E-02
1179.656, 8.4861003E-02
1180.139, 8.2953997E-02
1180.621, 0.1113680
1181.103, 0.1404490
1181.585, 0.1150510
1182.067, 6.0649998E-02
1182.549, 4.3074999E-02
1183.031, 6.8933003E-02
1183.513, 8.9674003E-02
1183.995, 8.1855997E-02
1184.478, 6.9380999E-02
1184.960, 5.5475000E-02
1185.442, 5.4111999E-02
1185.924, 8.7452002E-02
1186.406, 0.1270500
1186.888, 0.1510010
1187.370, 0.1553820
1187.852, 0.1285930
1188.334, 6.5980002E-02
1188.817, 3.3291999E-02
1189.299, 8.3324000E-02
1189.781, 0.1036550
1190.263, 2.9083000E-02
1190.745, 2.4600999E-02
1191.227, 1.0879000E-02
1191.709, 8.2410000E-02
1192.191, 0.1525550
1192.674, 0.2092330
1193.156, 0.2155230
1193.638, 0.1601310
1194.120, 0.1089710
1194.602, 5.3580999E-02
1195.084, 2.7107000E-02
1195.566, 4.1620001E-02
1196.048, 6.4782001E-02
1196.531, 8.1883997E-02
1197.013, 9.1885999E-02
1197.495, 9.1242999E-02
1197.977, 8.3212003E-02
1198.459, 8.1995003E-02
1198.941, 8.6640000E-02
1199.423, 8.1596002E-02
1199.905, 6.7449003E-02
1200.387, 5.9661999E-02
1200.870, 6.1981998E-02
1201.352, 6.8287000E-02
1201.834, 7.4441001E-02
1202.316, 8.9946002E-02
1202.798, 0.1384530
1203.280, 0.1923190
1203.762, 0.1919960
1204.244, 0.1643140
1204.726, 0.1680720
1205.209, 0.1904560
1205.691, 0.1648160
1206.173, 8.9082003E-02
1206.655, 6.3555002E-02
1207.137, 0.1614490
1207.619, 0.2442680
1208.101, 0.1862970
1208.583, 0.1136980
1209.066, 0.1310920
1209.548, 0.1739080
1210.030, 0.1607000
1210.512, 0.1162290
1210.994, 0.1161950
1211.476, 0.1717770
1211.958, 0.2015720
1212.440, 0.1666120
1212.922, 0.1399040
1213.405, 0.1354220
1213.887, 0.1401360
1214.369, 0.1537160
1214.851, 0.1701090
1215.333, 0.1908910
1215.815, 0.2061150
1216.297, 0.1860860
1216.779, 0.1259670
1217.261, 0.1025950
1217.744, 0.1235400
1218.226, 0.1429070
1218.708, 0.1569350
1219.190, 0.1544610
1219.672, 0.1291490
1220.154, 9.5964998E-02
1220.636, 6.7703001E-02
1221.118, 4.5391999E-02
1221.600, 2.7253000E-02
1222.083, 1.9414000E-02
1222.565, 4.9302999E-02
1223.047, 9.9914998E-02
1223.529, 0.1039540
1224.011, 6.3983001E-02
1224.493, 4.4002999E-02
1224.975, 6.8519004E-02
1225.457, 9.4559997E-02
1225.940, 8.6112000E-02
1226.422, 7.2329998E-02
1226.904, 8.3405003E-02
1227.386, 9.9854000E-02
1227.868, 8.3425999E-02
1228.350, 5.2650001E-02
1228.832, 2.6253000E-02
1229.314, 1.5696000E-02
1229.797, 5.5707000E-02
1230.279, 0.1647850
1230.761, 0.2175590
1231.243, 0.1195550
1231.725, 4.9816001E-02
1232.207, 7.6355003E-02
1232.689, 0.1154700
1233.171, 0.1333920
1233.653, 0.1319140
1234.135, 0.1036970
1234.618, 6.1018001E-02
1235.100, 4.5855001E-02
1235.582, 7.3140003E-02
1236.064, 7.0469998E-02
1236.546, 3.0058000E-02
1237.028, 2.2310000E-03
1237.510, 2.0056000E-02
1237.992, 1.4922000E-02
1238.475, 1.7401000E-02
1238.957, 6.9829002E-02
1239.439, 0.1424000
1239.921, 0.2061300
1240.403, 0.1764870
1240.885, 9.3455002E-02
1241.367, 8.9359999E-02
1241.849, 0.1400440
1242.332, 0.1645420
1242.814, 0.1514780
1243.296, 0.1175720
1243.778, 7.0822001E-02
1244.260, 2.8612999E-02
1244.742, 3.7469999E-03
1245.224, 1.4765000E-02
1245.706, 1.9623000E-02
1246.188, 6.2642999E-02
1246.671, 8.9033000E-02
1247.153, 0.1020720
1247.635, 0.1100330
1248.117, 0.1100960
1248.599, 8.2534000E-02
1249.081, 1.5999001E-02
1249.563, 3.4599999E-04
1250.045, 0.1146450
1250.527, 0.1595600
1251.010, 5.5388000E-02
1251.492, 4.8759999E-03
1251.974, 7.9260997E-02
1252.456, 0.1810390
1252.938, 0.1896540
1253.420, 0.1349010
1253.902, 7.2412997E-02
1254.384, 6.9610002E-03
1254.867, 2.0636000E-02
1255.349, 0.1066620
1255.831, 0.1411380
1256.313, 0.1146450
1256.795, 8.6561002E-02
1257.277, 7.8171998E-02
1257.759, 8.8142999E-02
1258.241, 0.1146060
1258.724, 0.1360850
1259.206, 0.1061150
1259.688, 6.9909999E-03
1260.170, 6.6633001E-02
1260.652, 0.1005380
1261.134, 0.1100960
1261.616, 2.1955000E-02
1262.098, 5.3869002E-02
1262.580, 4.0612001E-02
1263.063, 2.5846001E-02
1263.545, 8.1110001E-02
1264.027, 6.5359999E-03
1264.509, 5.9238002E-02
1264.991, 6.2107000E-02
1265.473, 8.5686997E-02
1265.955, 6.1163001E-02
1266.437, 5.2216999E-02
1266.919, 9.1871001E-02
1267.402, 0.1053260
1267.884, 7.4597001E-02
1268.366, 0.1017140
1268.848, 2.5529999E-02
1269.330, 6.0527999E-02
1269.812, 3.6254000E-02
1270.294, 5.0485000E-02
1270.776, 0.1172960
1271.259, 0.1516660
1271.741, 0.1111840
1272.223, 5.3397998E-02
1272.705, 2.9530000E-02
1273.187, 2.7140999E-02
1273.669, 3.3822000E-02
1274.151, 4.3379001E-02
1274.633, 5.4632999E-02
1275.115, 6.0761001E-02
1275.598, 3.8339999E-02
1276.080, 6.2499999E-04
1276.562, 4.5100000E-04
1277.044, 5.1879000E-02
1277.526, 7.6647997E-02
1278.008, 3.9880000E-02
1278.490, 0.0000000E+00
##END=



