##NAMES=Chalcophyllite
##RRUFFID=R060702
##IDEAL CHEMISTRY=Cu^2+^_18_Al_2_(As^5+^O_4_)_4_(S^6+^O_4_)_3_(OH)_24_&#183;36H_2_O
##LOCALITY=Majuba Hill, Pershing County, Nevada, USA
##OWNER=RRUFF
##SOURCE=Bob Jenkins
##DESCRIPTION=Bluish-green thin hexagonal tablets
##STATUS=The identification of this mineral is not yet confirmed.
##URL=rruff.info/R060702
197.2200, 0.0000000E+00
197.7020, 22.72266
198.1850, 49.91406
198.6670, 72.47266
199.1490, 93.88281
199.6310, 127.8711
200.1130, 185.2305
200.5950, 264.7656
201.0770, 330.0898
201.5590, 352.4062
202.0420, 366.2891
202.5240, 374.3867
203.0060, 383.5352
203.4880, 405.4180
203.9700, 453.3359
204.4520, 559.6680
204.9340, 693.3164
205.4160, 710.5039
205.8980, 674.0156
206.3810, 560.2852
206.8630, 403.5312
207.3450, 280.3828
207.8270, 245.2070
208.3090, 285.5938
208.7910, 294.1562
209.2730, 245.1211
209.7550, 188.6602
210.2380, 128.5273
210.7200, 69.31641
211.2020, 13.68359
211.6840, 39.27734
212.1660, 84.68750
212.6480, 93.68359
213.1300, 22.04688
213.6120, 31.71875
214.0940, 32.10938
214.5770, 7.664063
215.0590, 4.878906
215.5410, 13.65234
216.0230, 58.86719
216.5050, 117.3633
216.9870, 203.2734
217.4690, 283.1836
217.9510, 380.6680
218.4340, 460.6953
218.9160, 469.6797
219.3980, 378.4727
219.8800, 240.7148
220.3620, 200.9648
220.8440, 341.5664
221.3260, 442.7969
221.8080, 445.7539
222.2900, 412.0195
222.7730, 406.9609
223.2550, 455.6602
223.7370, 518.6797
224.2190, 505.9414
224.7010, 351.7383
225.1830, 262.8008
225.6650, 317.1875
226.1470, 405.9570
226.6290, 445.1914
227.1120, 410.0078
227.5940, 334.4922
228.0760, 264.1406
228.5580, 192.7109
229.0400, 143.9102
229.5220, 112.5352
230.0040, 107.0156
230.4860, 147.6055
230.9690, 232.7656
231.4510, 323.1797
231.9330, 372.7578
232.4150, 375.4883
232.8970, 361.4297
233.3790, 294.0391
233.8610, 239.7617
234.3430, 239.2500
234.8250, 292.0508
235.3070, 362.1445
235.7900, 423.3984
236.2720, 477.8711
236.7540, 501.9688
237.2360, 442.8359
237.7180, 400.6094
238.2000, 435.0586
238.6820, 532.1133
239.1650, 632.0938
239.6470, 692.9492
240.1290, 715.6875
240.6110, 709.3086
241.0930, 644.0820
241.5750, 585.5352
242.0570, 577.1914
242.5390, 599.8438
243.0210, 605.1992
243.5030, 548.7188
243.9860, 451.0664
244.4680, 405.1016
244.9500, 446.9375
245.4320, 480.5938
245.9140, 451.1719
246.3960, 387.9297
246.8780, 339.4219
247.3610, 334.9062
247.8430, 353.8633
248.3250, 345.6875
248.8070, 293.9922
249.2890, 260.9062
249.7710, 294.2383
250.2530, 353.9531
250.7350, 392.4844
251.2170, 384.1406
251.6990, 364.9766
252.1820, 393.1016
252.6640, 477.2891
253.1460, 542.4570
253.6280, 540.4375
254.1100, 510.4297
254.5920, 491.7617
255.0740, 490.2852
255.5560, 496.5352
256.0390, 493.9375
256.5210, 483.5430
257.0030, 499.3711
257.4850, 563.9102
257.9670, 650.2695
258.4490, 739.1250
258.9310, 837.0547
259.4130, 890.8047
259.8960, 841.2461
260.3780, 714.5312
260.8600, 609.1680
261.3420, 543.6289
261.8240, 512.9258
262.3060, 511.9727
262.7880, 540.7773
263.2700, 591.6602
263.7520, 701.6992
264.2350, 818.3633
264.7170, 832.5898
265.1990, 706.2969
265.6810, 567.8516
266.1630, 572.0938
266.6450, 696.6602
267.1270, 763.1875
267.6090, 696.2031
268.0910, 578.5508
268.5740, 494.2422
269.0560, 449.0352
269.5380, 412.8711
270.0200, 367.3672
270.5020, 315.3789
270.9840, 270.6602
271.4660, 219.9688
271.9480, 181.0508
272.4310, 177.1172
272.9130, 200.0117
273.3950, 213.0586
273.8770, 190.2227
274.3590, 141.5234
274.8410, 115.6953
275.3230, 122.4062
275.8050, 136.0469
276.2880, 153.6055
276.7700, 171.4766
277.2520, 170.3281
277.7340, 135.4336
278.2160, 104.4531
278.6980, 174.9023
279.1800, 466.1484
279.6620, 672.7812
280.1440, 724.2344
280.6260, 699.1445
281.1090, 672.9961
281.5910, 668.0391
282.0730, 675.8438
282.5550, 682.9609
283.0370, 680.6875
283.5190, 702.0508
284.0010, 767.2969
284.4830, 838.2266
284.9660, 894.6719
285.4480, 932.5078
285.9300, 954.6602
286.4120, 960.2500
286.8940, 945.6328
287.3760, 947.4648
287.8580, 1030.711
288.3400, 1066.449
288.8230, 975.9688
289.3050, 800.1992
289.7870, 631.3164
290.2690, 533.0000
290.7510, 494.5156
291.2330, 440.2578
291.7150, 333.0625
292.1970, 261.8945
292.6790, 272.6641
293.1620, 317.6523
293.6440, 341.3594
294.1260, 319.2188
294.6080, 265.6055
295.0900, 204.5156
295.5720, 122.8203
296.0540, 67.22656
296.5360, 54.33203
297.0180, 62.58984
297.5010, 74.94141
297.9830, 87.86328
298.4650, 113.4180
298.9470, 171.9727
299.4290, 266.2070
299.9110, 345.8633
300.3930, 397.2656
300.8750, 436.3359
301.3580, 462.5547
301.8400, 480.5898
302.3220, 514.8633
302.8040, 586.9414
303.2860, 688.3516
303.7680, 798.4180
304.2500, 937.2539
304.7320, 1039.348
305.2150, 1024.809
305.6970, 944.8633
306.1790, 905.5742
306.6610, 968.9414
307.1430, 1069.379
307.6250, 1129.203
308.1070, 1147.410
308.5890, 1149.062
309.0710, 1147.586
309.5530, 1136.324
310.0360, 1102.016
310.5180, 1032.047
311.0000, 958.8867
311.4820, 904.8125
311.9640, 862.9609
312.4460, 812.6641
312.9280, 745.7148
313.4100, 669.4805
313.8930, 596.8281
314.3750, 528.8125
314.8570, 460.9883
315.3390, 382.2773
315.8210, 309.0391
316.3030, 264.2305
316.7850, 251.7070
317.2670, 253.0625
317.7500, 253.8320
318.2320, 259.1719
318.7140, 226.4844
319.1960, 117.0508
319.6780, 7.972656
320.1600, 82.37500
320.6420, 138.9414
321.1240, 126.9062
321.6060, 14.21484
322.0890, 184.8359
322.5710, 338.1250
323.0530, 440.1680
323.5350, 498.4766
324.0170, 460.0000
324.4990, 394.2695
324.9810, 393.0703
325.4630, 492.7578
325.9450, 647.6367
326.4280, 763.1289
326.9100, 818.8047
327.3920, 876.7773
327.8740, 966.7188
328.3560, 1042.570
328.8380, 1056.199
329.3200, 1010.793
329.8020, 965.1094
330.2840, 991.6953
330.7670, 1094.797
331.2490, 1154.699
331.7310, 1154.730
332.2130, 1119.207
332.6950, 1046.328
333.1770, 955.4375
333.6590, 882.5586
334.1420, 851.3750
334.6240, 848.6133
335.1060, 852.6836
335.5880, 870.5547
336.0700, 868.8867
336.5520, 820.9609
337.0340, 748.3047
337.5160, 675.8945
337.9980, 607.7773
338.4800, 541.3516
338.9630, 465.7578
339.4450, 387.1055
339.9270, 336.8047
340.4090, 331.0117
340.8910, 346.2422
341.3730, 353.6484
341.8550, 355.2305
342.3370, 339.6836
342.8190, 279.1367
343.3020, 210.8906
343.7840, 178.3711
344.2660, 187.1211
344.7480, 224.8477
345.2300, 290.1875
345.7120, 383.4688
346.1940, 434.9062
346.6770, 415.2422
347.1590, 385.5117
347.6410, 353.9766
348.1230, 334.1797
348.6050, 360.2656
349.0870, 454.5547
349.5690, 588.0312
350.0510, 665.9609
350.5330, 610.0234
351.0160, 596.6016
351.4980, 668.9453
351.9800, 765.3828
352.4620, 839.3281
352.9440, 877.1094
353.4260, 881.8984
353.9080, 843.3750
354.3900, 740.8047
354.8720, 698.2188
355.3550, 818.1172
355.8370, 907.5391
356.3190, 870.2578
356.8010, 742.9922
357.2830, 622.1562
357.7650, 568.7812
358.2470, 564.0000
358.7290, 557.4531
359.2110, 560.4609
359.6940, 531.7656
360.1760, 426.4531
360.6580, 293.4531
361.1400, 179.4922
361.6220, 95.06250
362.1040, 30.32812
362.5860, 23.79688
363.0690, 66.16406
363.5510, 88.14844
364.0330, 84.25781
364.5150, 64.32812
364.9970, 37.42969
365.4790, 3.781250
365.9610, 32.39062
366.4430, 86.59375
366.9250, 133.0781
367.4080, 125.5391
367.8900, 65.90625
368.3720, 23.28906
368.8540, 50.41406
369.3360, 140.9453
369.8180, 228.2656
370.3000, 325.3203
370.7820, 403.5703
371.2640, 435.3594
371.7470, 446.0938
372.2290, 476.6172
372.7110, 542.8047
373.1930, 630.8359
373.6750, 719.3984
374.1570, 831.2344
374.6390, 894.2734
375.1210, 863.3125
375.6030, 827.2188
376.0860, 851.6719
376.5680, 928.6406
377.0500, 998.6250
377.5320, 1006.516
378.0140, 957.2891
378.4960, 930.9375
378.9780, 970.4062
379.4600, 975.6641
379.9430, 888.8906
380.4250, 757.6562
380.9070, 642.2891
381.3890, 563.0078
381.8710, 504.3359
382.3530, 457.3594
382.8350, 422.6953
383.3170, 356.1641
383.7990, 221.8125
384.2820, 80.02344
384.7640, 8.335938
385.2460, 43.77344
385.7280, 57.36719
386.2100, 39.94531
386.6920, 16.39062
387.1740, 34.43750
387.6560, 98.25781
388.1380, 150.9844
388.6210, 157.4375
389.1030, 115.5391
389.5850, 32.77344
390.0670, 155.9609
390.5490, 310.1797
391.0310, 347.2891
391.5130, 322.0703
391.9960, 330.6172
392.4780, 408.4688
392.9600, 515.6484
393.4420, 580.8984
393.9240, 573.4141
394.4060, 592.1250
394.8880, 668.0391
395.3700, 739.3047
395.8520, 772.3359
396.3350, 767.4062
396.8170, 733.9766
397.2990, 664.2344
397.7810, 576.8906
398.2630, 595.0859
398.7450, 800.6797
399.2270, 963.7109
399.7090, 1034.266
400.1910, 1026.312
400.6740, 925.9219
401.1560, 717.8750
401.6380, 518.6406
402.1200, 474.6406
402.6020, 564.3125
403.0840, 586.5312
403.5660, 469.3750
404.0480, 340.3516
404.5300, 358.4766
405.0130, 488.9844
405.4950, 538.7109
405.9770, 386.8281
406.4590, 183.6875
406.9410, 53.87500
407.4230, 7.0312999E-02
407.9050, 14.71094
408.3870, 115.2891
408.8700, 259.5312
409.3520, 305.9766
409.8340, 168.6172
410.3160, 71.46875
410.7980, 64.89062
411.2800, 99.07812
411.7620, 131.8203
412.2440, 152.4453
412.7270, 164.0938
413.2090, 166.7266
413.6910, 157.0391
414.1730, 168.3828
414.6550, 192.5703
415.1370, 246.5547
415.6190, 356.6562
416.1010, 493.0000
416.5830, 621.5000
417.0650, 731.2344
417.5480, 801.6875
418.0300, 770.5938
418.5120, 616.4297
418.9940, 541.3359
419.4760, 648.6250
419.9580, 792.6172
420.4400, 845.8438
420.9220, 813.6719
421.4050, 777.1875
421.8870, 779.1250
422.3690, 797.3359
422.8510, 797.7031
423.3330, 779.1797
423.8150, 760.6719
424.2970, 758.6172
424.7790, 766.4219
425.2620, 756.5000
425.7440, 708.3984
426.2260, 675.3203
426.7080, 696.7109
427.1900, 732.6250
427.6720, 708.6016
428.1540, 608.4609
428.6360, 501.7578
429.1180, 468.9609
429.6010, 529.0781
430.0830, 547.3984
430.5650, 458.4141
431.0470, 398.9531
431.5290, 456.1016
432.0110, 562.7812
432.4930, 600.0703
432.9750, 506.5703
433.4570, 351.0469
433.9400, 247.6016
434.4220, 200.2344
434.9040, 185.1406
435.3860, 222.3594
435.8680, 268.5469
436.3500, 288.9297
436.8320, 284.7422
437.3140, 278.8594
437.7970, 283.3125
438.2790, 291.8516
438.7610, 287.8125
439.2430, 271.6641
439.7250, 278.5938
440.2070, 336.7109
440.6890, 428.3203
441.1710, 490.0547
441.6540, 502.9531
442.1360, 521.0703
442.6180, 559.8203
443.1000, 604.9297
443.5820, 647.9688
444.0640, 685.9609
444.5460, 709.5312
445.0280, 702.2500
445.5100, 658.4844
445.9920, 632.7344
446.4750, 649.7266
446.9570, 664.8125
447.4390, 673.1875
447.9210, 671.6484
448.4030, 655.8203
448.8850, 624.5938
449.3670, 585.7969
449.8490, 546.8828
450.3320, 508.2578
450.8140, 477.8672
451.2960, 458.7109
451.7780, 447.8672
452.2600, 457.7656
452.7420, 479.3594
453.2240, 469.9688
453.7060, 388.8828
454.1890, 295.2109
454.6710, 238.0781
455.1530, 215.0547
455.6350, 217.9297
456.1170, 251.2500
456.5990, 286.4062
457.0810, 261.1797
457.5630, 112.3203
458.0450, 27.42969
458.5280, 46.15625
459.0100, 99.46094
459.4920, 151.9219
459.9740, 194.9062
460.4560, 222.5000
460.9380, 225.7344
461.4200, 215.1250
461.9020, 241.6016
462.3840, 328.8359
462.8670, 403.7578
463.3490, 438.9062
463.8310, 463.1719
464.3130, 513.9922
464.7950, 593.0703
465.2770, 633.9141
465.7590, 539.3125
466.2410, 377.4297
466.7240, 346.0547
467.2060, 476.7109
467.6880, 616.6328
468.1700, 678.4766
468.6520, 671.0781
469.1340, 643.1953
469.6160, 567.6875
470.0980, 511.0156
470.5810, 510.9062
471.0630, 536.1562
471.5450, 546.5703
472.0270, 532.6406
472.5090, 507.4609
472.9910, 486.4453
473.4730, 471.2031
473.9550, 431.4062
474.4370, 337.3984
474.9190, 248.7500
475.4020, 168.7266
475.8840, 105.0781
476.3660, 73.64062
476.8480, 80.72656
477.3300, 95.57031
477.8120, 76.94531
478.2940, 27.03125
478.7760, 11.25781
479.2590, 28.34375
479.7410, 39.64844
480.2230, 52.00000
480.7050, 66.77344
481.1870, 91.19531
481.6690, 175.4844
482.1510, 222.6172
482.6330, 113.0234
483.1160, 81.21875
483.5980, 170.9531
484.0800, 85.10156
484.5620, 51.39844
485.0440, 48.58594
485.5260, 160.9844
486.0080, 262.3984
486.4900, 131.9609
486.9720, 32.88281
487.4550, 108.7812
487.9370, 292.9766
488.4190, 454.5547
488.9010, 529.2891
489.3830, 552.8125
489.8650, 585.7891
490.3470, 629.7734
490.8290, 665.1406
491.3110, 696.4844
491.7940, 706.3906
492.2760, 666.5625
492.7580, 589.6797
493.2400, 539.3516
493.7220, 557.9453
494.2040, 595.0312
494.6860, 614.2109
495.1680, 613.3047
495.6510, 574.2422
496.1330, 482.5547
496.6150, 383.7656
497.0970, 362.4531
497.5790, 475.2891
498.0610, 521.7500
498.5430, 460.5859
499.0250, 376.8516
499.5080, 302.5000
499.9900, 243.5625
500.4720, 203.1484
500.9540, 184.2734
501.4360, 178.4297
501.9180, 168.9141
502.4000, 155.2734
502.8820, 137.5000
503.3640, 85.31250
503.8460, 62.26562
504.3290, 149.3516
504.8110, 321.0469
505.2930, 428.6797
505.7750, 359.2188
506.2570, 246.5938
506.7390, 235.6172
507.2210, 304.1562
507.7030, 340.4766
508.1860, 291.1172
508.6680, 219.5156
509.1500, 241.2812
509.6320, 419.0156
510.1140, 531.7734
510.5960, 562.3516
511.0780, 548.8750
511.5600, 475.4375
512.0420, 376.9609
512.5250, 322.6797
513.0070, 352.9062
513.4890, 428.6875
513.9710, 470.2578
514.4530, 470.3516
514.9350, 475.5938
515.4170, 509.5000
515.8990, 533.9766
516.3820, 486.1953
516.8640, 392.9922
517.3460, 382.0703
517.8280, 607.3672
518.3100, 836.9844
518.7920, 821.3906
519.2740, 636.8359
519.7560, 516.6797
520.2390, 548.7812
520.7210, 650.1719
521.2030, 674.0469
521.6850, 574.7422
522.1670, 528.4766
522.6490, 600.3203
523.1310, 663.6875
523.6130, 660.4766
524.0960, 614.0391
524.5780, 564.2109
525.0600, 526.3438
525.5420, 504.1797
526.0240, 513.8438
526.5060, 554.2344
526.9880, 564.7891
527.4700, 520.7734
527.9520, 477.1719
528.4350, 506.4375
528.9170, 577.4219
529.3990, 583.1875
529.8810, 434.9297
530.3630, 297.5781
530.8450, 270.0391
531.3270, 309.9453
531.8090, 357.1406
532.2910, 393.4219
532.7740, 401.5781
533.2560, 349.9141
533.7380, 229.0938
534.2200, 191.5859
534.7020, 343.5391
535.1840, 450.6406
535.6660, 391.4531
536.1480, 287.7578
536.6300, 300.6016
537.1130, 472.2422
537.5950, 651.5859
538.0770, 691.3281
538.5590, 630.0312
539.0410, 589.7031
539.5230, 576.8828
540.0050, 578.6016
540.4870, 605.3047
540.9690, 647.3047
541.4520, 654.5938
541.9340, 609.0859
542.4160, 555.6484
542.8980, 497.9219
543.3800, 454.2422
543.8620, 436.8516
544.3440, 444.1953
544.8260, 462.7422
545.3090, 491.2188
545.7910, 516.9297
546.2730, 476.4062
546.7550, 332.9297
547.2370, 227.3125
547.7190, 239.8047
548.2010, 269.7734
548.6830, 213.1875
549.1660, 77.99219
549.6480, 8.554688
550.1300, 151.9688
550.6120, 332.9844
551.0940, 325.7109
551.5760, 169.2891
552.0580, 70.45312
552.5400, 123.8828
553.0230, 242.4922
553.5050, 268.5078
553.9870, 138.6016
554.4690, 94.68750
554.9510, 187.9375
555.4330, 301.1875
555.9150, 400.7969
556.3970, 480.9219
556.8790, 540.1719
557.3620, 578.0625
557.8440, 595.9219
558.3260, 582.6562
558.8080, 544.2266
559.2900, 537.6953
559.7720, 579.2969
560.2540, 629.7734
560.7360, 673.8203
561.2180, 701.9297
561.7010, 682.5000
562.1830, 527.3047
562.6650, 418.6641
563.1470, 476.5625
563.6290, 595.0703
564.1110, 646.5547
564.5930, 612.7969
565.0750, 552.7734
565.5570, 517.5156
566.0400, 501.5469
566.5220, 470.4766
567.0040, 416.5156
567.4860, 364.3984
567.9680, 331.1250
568.4500, 295.4297
568.9320, 234.5703
569.4140, 148.6250
569.8960, 70.65625
570.3790, 8.507813
570.8610, 33.14062
571.3430, 45.73438
571.8250, 31.53906
572.3070, 2.351563
572.7890, 55.42969
573.2710, 115.2734
573.7530, 165.9609
574.2360, 224.3281
574.7180, 219.7812
575.2000, 55.71875
575.6820, 63.89844
576.1640, 6.093750
576.6460, 130.1875
577.1280, 167.7578
577.6100, 34.03906
578.0930, 126.4375
578.5750, 187.5156
579.0570, 153.7734
579.5390, 11.35938
580.0210, 259.5234
580.5030, 499.7500
580.9850, 596.9609
581.4670, 572.5859
581.9500, 529.2109
582.4320, 462.9141
582.9140, 385.1328
583.3960, 256.0547
583.8780, 145.1328
584.3600, 121.2500
584.8420, 176.6016
585.3240, 259.6016
585.8060, 347.4609
586.2890, 418.5469
586.7710, 401.2031
587.2530, 278.8828
587.7350, 207.8125
588.2170, 250.2656
588.6990, 320.3047
589.1810, 330.0938
589.6630, 289.1016
590.1450, 258.5547
590.6280, 270.9219
591.1100, 272.6484
591.5920, 207.3281
592.0740, 121.7734
592.5560, 104.9375
593.0380, 174.7969
593.5200, 256.1094
594.0020, 264.1562
594.4840, 200.8125
594.9670, 170.1250
595.4490, 189.8047
595.9310, 206.8281
596.4130, 196.5703
596.8950, 178.7266
597.3770, 172.7969
597.8590, 180.6328
598.3410, 185.9297
598.8230, 170.2266
599.3060, 156.3359
599.7880, 169.9531
600.2700, 208.0938
600.7520, 265.4141
601.2340, 342.9766
601.7160, 405.0000
602.1980, 382.4375
602.6800, 243.7578
603.1620, 144.0547
603.6450, 98.69531
604.1270, 79.28125
604.6090, 95.19531
605.0910, 125.0312
605.5730, 135.2656
606.0550, 113.8281
606.5370, 95.71094
607.0190, 107.5625
607.5020, 143.6406
607.9840, 184.0156
608.4660, 223.8672
608.9480, 279.5625
609.4300, 371.2891
609.9120, 472.8828
610.3940, 502.1328
610.8760, 381.1016
611.3590, 322.5391
611.8410, 373.8594
612.3230, 434.3047
612.8050, 458.0234
613.2870, 446.7344
613.7690, 411.8281
614.2510, 353.1172
614.7330, 289.6250
615.2160, 238.4766
615.6980, 200.6797
616.1800, 184.0000
616.6620, 191.8984
617.1440, 204.3516
617.6260, 215.6094
618.1080, 217.8203
618.5900, 162.9062
619.0720, 86.57031
619.5550, 201.8594
620.0370, 50.96094
620.5190, 152.5312
621.0010, 264.1250
621.4830, 281.6172
621.9650, 259.3359
622.4470, 213.7031
622.9290, 170.4375
623.4110, 184.1172
623.8940, 245.0000
624.3760, 261.2188
624.8580, 198.9922
625.3400, 146.0781
625.8220, 191.3750
626.3040, 326.5391
626.7860, 411.2969
627.2680, 432.9766
627.7500, 428.2422
628.2330, 395.6016
628.7150, 343.7891
629.1970, 265.1562
629.6790, 175.5547
630.1610, 128.3594
630.6430, 176.6406
631.1250, 264.7891
631.6070, 266.9453
632.0890, 186.8906
632.5720, 164.9062
633.0540, 260.5234
633.5360, 353.7031
634.0180, 317.0391
634.5000, 148.0469
634.9820, 70.21875
635.4640, 157.7266
635.9460, 230.9531
636.4290, 231.9141
636.9110, 216.3047
637.3930, 248.8125
637.8750, 323.7109
638.3570, 394.4375
638.8390, 427.4531
639.3210, 430.9922
639.8030, 417.6562
640.2860, 386.7109
640.7680, 363.0859
641.2500, 354.7812
641.7320, 352.5703
642.2140, 352.0781
642.6960, 353.5859
643.1780, 326.6406
643.6600, 217.6094
644.1430, 146.8750
644.6250, 186.7656
645.1070, 260.9844
645.5890, 292.8516
646.0710, 269.5859
646.5530, 214.9531
647.0350, 130.0000
647.5170, 41.02344
647.9990, 16.77344
648.4820, 58.10156
648.9640, 100.1953
649.4460, 132.5391
649.9280, 141.8438
650.4100, 99.54688
650.8920, 0.4296880
651.3740, 37.28906
651.8560, 19.88281
652.3380, 92.34375
652.8210, 181.1562
653.3030, 259.6641
653.7850, 302.6484
654.2670, 305.8750
654.7490, 274.4609
655.2310, 184.0625
655.7130, 83.32031
656.1950, 81.28125
656.6770, 170.9844
657.1600, 268.1016
657.6420, 358.2188
658.1240, 413.1094
658.6060, 382.6094
659.0880, 260.9062
659.5700, 245.0234
660.0520, 454.2031
660.5340, 606.4453
661.0160, 615.6016
661.4990, 563.8828
661.9810, 533.2969
662.4630, 524.5000
662.9450, 475.6562
663.4270, 325.1719
663.9090, 137.4531
664.3910, 2.835938
664.8730, 95.23438
665.3560, 131.8906
665.8380, 105.2969
666.3200, 58.36719
666.8020, 35.28906
667.2840, 33.21875
667.7660, 3.406250
668.2480, 135.2734
668.7300, 219.0156
669.2130, 211.3906
669.6950, 173.1094
670.1770, 127.4297
670.6590, 90.58594
671.1410, 105.2031
671.6230, 225.5625
672.1050, 358.8594
672.5870, 379.6328
673.0700, 335.6719
673.5520, 380.7500
674.0340, 543.1797
674.5160, 682.2188
674.9980, 670.6406
675.4800, 541.8516
675.9620, 489.7422
676.4440, 568.3750
676.9260, 612.6328
677.4090, 582.5312
677.8910, 545.1719
678.3730, 513.5156
678.8550, 489.7031
679.3370, 487.8125
679.8190, 539.7031
680.3010, 564.1641
680.7830, 460.2344
681.2650, 313.6953
681.7480, 275.1797
682.2300, 346.0234
682.7120, 405.1953
683.1940, 370.9922
683.6760, 274.3047
684.1580, 189.2344
684.6400, 107.9219
685.1220, 76.95312
685.6040, 133.8125
686.0870, 194.6797
686.5690, 197.2422
687.0510, 169.1719
687.5330, 169.1641
688.0150, 224.4688
688.4970, 257.9766
688.9790, 210.4453
689.4610, 154.9219
689.9430, 178.6562
690.4260, 254.4609
690.9080, 280.0938
691.3900, 204.3125
691.8720, 113.2109
692.3540, 153.3906
692.8360, 314.7031
693.3180, 427.6250
693.8000, 476.9141
694.2830, 499.6641
694.7650, 502.1953
695.2470, 498.1641
695.7290, 521.1250
696.2110, 590.0078
696.6930, 620.2266
697.1750, 532.0547
697.6570, 481.3906
698.1400, 601.9766
698.6220, 786.9062
699.1040, 857.4766
699.5860, 770.6484
700.0680, 672.0078
700.5500, 721.1641
701.0320, 839.8281
701.5140, 863.2109
701.9970, 792.3125
702.4790, 634.0391
702.9610, 369.5781
703.4430, 156.4844
703.9250, 216.0703
704.4070, 578.5312
704.8890, 731.7969
705.3710, 472.7500
705.8530, 280.9219
706.3360, 319.4375
706.8180, 410.8672
707.3000, 387.3516
707.7820, 253.6250
708.2640, 146.5312
708.7460, 137.8672
709.2280, 167.5156
709.7100, 199.0938
710.1920, 232.0703
710.6750, 273.3125
711.1570, 320.8672
711.6390, 350.3438
712.1210, 337.2109
712.6030, 297.7109
713.0850, 294.3047
713.5670, 336.6406
714.0490, 363.6016
714.5310, 347.1328
715.0140, 340.6797
715.4960, 410.4453
715.9780, 522.2734
716.4600, 565.2344
716.9420, 473.8516
717.4240, 415.3516
717.9060, 459.3125
718.3880, 527.2422
718.8700, 560.7344
719.3530, 562.9219
719.8350, 555.2422
720.3170, 546.5547
720.7990, 543.2188
721.2810, 558.2109
721.7630, 585.5156
722.2450, 599.0000
722.7270, 593.4609
723.2100, 601.8516
723.6920, 639.0781
724.1740, 682.6172
724.6560, 700.3438
725.1380, 703.0312
725.6200, 640.6875
726.1020, 381.9062
726.5840, 212.5156
727.0670, 292.6094
727.5490, 450.1328
728.0310, 489.5625
728.5130, 390.0625
728.9950, 283.3125
729.4770, 239.7969
729.9590, 210.0781
730.4410, 137.3672
730.9240, 48.90625
731.4060, 0.3125000
731.8880, 3.132813
732.3700, 47.76562
732.8520, 135.0859
733.3340, 241.6250
733.8160, 257.5156
734.2980, 161.3047
734.7800, 119.8828
735.2630, 194.0938
735.7450, 273.2812
736.2270, 251.6328
736.7090, 153.6562
737.1910, 120.8906
737.6730, 227.9297
738.1550, 285.1406
738.6370, 217.7656
739.1190, 135.0156
739.6020, 94.48438
740.0840, 104.8906
740.5660, 187.8203
741.0480, 367.4766
741.5300, 509.3203
742.0120, 440.0156
742.4940, 260.7656
742.9760, 169.7969
743.4580, 173.5703
743.9410, 209.8828
744.4230, 253.7891
744.9050, 304.0781
745.3870, 363.7344
745.8690, 437.5703
746.3510, 403.4375
746.8330, 154.4219
747.3150, 5.898438
747.7970, 136.7344
748.2800, 355.5234
748.7620, 463.8203
749.2440, 465.7812
749.7260, 495.6797
750.2080, 630.6953
750.6900, 736.1016
751.1720, 752.1094
751.6540, 706.4531
752.1370, 607.6562
752.6190, 476.0234
753.1010, 360.4766
753.5830, 280.9531
754.0650, 260.3672
754.5470, 391.9141
755.0290, 622.6094
755.5110, 697.0156
755.9940, 576.2422
756.4760, 432.4141
756.9580, 368.5859
757.4400, 360.9844
757.9220, 356.0000
758.4040, 372.8750
758.8860, 337.5703
759.3680, 215.9297
759.8510, 86.85938
760.3330, 76.00000
760.8150, 200.3516
761.2970, 170.3438
761.7790, 35.40625
762.2610, 225.7656
762.7430, 361.1797
763.2250, 440.5703
763.7070, 423.5156
764.1900, 368.5938
764.6720, 376.0000
765.1540, 449.7812
765.6360, 490.5859
766.1180, 404.9375
766.6000, 267.0469
767.0820, 234.5703
767.5640, 295.7891
768.0460, 363.6797
768.5290, 420.4922
769.0110, 486.8203
769.4930, 591.2422
769.9750, 705.1797
770.4570, 724.7656
770.9390, 609.2969
771.4210, 488.9219
771.9030, 330.4297
772.3850, 211.3594
772.8680, 175.5859
773.3500, 195.9219
773.8320, 237.5312
774.3140, 301.2500
774.7960, 351.4062
775.2780, 400.7422
775.7600, 408.8203
776.2420, 310.7734
776.7240, 165.1406
777.2070, 59.96875
777.6890, 19.08594
778.1710, 29.79688
778.6530, 113.1406
779.1350, 210.0625
779.6170, 168.1484
780.0990, 12.55469
780.5810, 77.44531
781.0640, 61.40625
781.5460, 4.421875
782.0280, 50.92188
782.5100, 97.88281
782.9920, 100.8125
783.4740, 13.29688
783.9560, 7.953125
784.4380, 182.8984
784.9200, 325.5156
785.4030, 271.6484
785.8850, 139.5703
786.3670, 124.6094
786.8490, 264.5391
787.3310, 395.1875
787.8130, 478.3281
788.2950, 533.3906
788.7780, 547.7500
789.2600, 551.3438
789.7420, 600.4766
790.2240, 695.7188
790.7060, 760.2109
791.1880, 724.4141
791.6700, 643.4688
792.1520, 597.2578
792.6340, 577.6172
793.1170, 558.2812
793.5990, 534.6172
794.0810, 506.8828
794.5630, 478.5156
795.0450, 439.6328
795.5270, 351.7734
796.0090, 198.8203
796.4910, 88.17969
796.9730, 23.72656
797.4560, 8.664063
797.9380, 70.90625
798.4200, 167.6797
798.9020, 223.8750
799.3840, 234.9453
799.8660, 230.3359
800.3480, 211.1875
800.8300, 174.7812
801.3120, 103.0469
801.7950, 23.51562
802.2770, 46.82812
802.7590, 99.40625
803.2410, 112.4141
803.7230, 64.80469
804.2050, 10.33594
804.6870, 121.9062
805.1690, 225.2344
805.6520, 226.7656
806.1340, 137.6406
806.6160, 51.75000
807.0980, 19.28906
807.5800, 32.10156
808.0620, 99.23438
808.5440, 210.3359
809.0260, 257.7891
809.5080, 229.7656
809.9910, 199.4062
810.4730, 197.5234
810.9550, 210.4531
811.4370, 221.9297
811.9190, 232.0781
812.4010, 226.7812
812.8830, 168.3828
813.3650, 154.4531
813.8470, 274.0625
814.3300, 376.6797
814.8120, 330.0312
815.2940, 181.5703
815.7760, 92.99219
816.2580, 113.5469
816.7400, 153.2578
817.2220, 200.1875
817.7050, 237.9219
818.1870, 228.4062
818.6690, 198.7266
819.1510, 241.3828
819.6330, 385.0469
820.1150, 477.6094
820.5970, 344.6797
821.0790, 116.2812
821.5610, 15.82812
822.0440, 61.06250
822.5260, 42.50781
823.0080, 29.76562
823.4900, 111.0000
823.9720, 168.9609
824.4540, 198.0000
824.9360, 151.2891
825.4180, 11.50000
825.9010, 22.92969
826.3830, 267.6562
826.8650, 473.0469
827.3470, 466.5312
827.8290, 337.8906
828.3110, 262.9688
828.7930, 249.3125
829.2750, 259.7344
829.7570, 353.8906
830.2400, 396.4297
830.7220, 316.4453
831.2040, 203.5078
831.6860, 123.6641
832.1680, 90.00781
832.6500, 80.93750
833.1320, 94.67969
833.6140, 125.6719
834.0960, 171.1406
834.5790, 237.6328
835.0610, 346.6797
835.5430, 470.7266
836.0250, 523.0391
836.5070, 465.2109
836.9890, 392.4453
837.4710, 427.1406
837.9530, 494.0391
838.4350, 417.6016
838.9180, 245.3594
839.4000, 174.6562
839.8820, 257.7578
840.3640, 366.4062
840.8460, 378.9219
841.3280, 321.3203
841.8100, 280.0938
842.2920, 256.1953
842.7740, 269.0703
843.2570, 334.7266
843.7390, 392.7266
844.2210, 411.2578
844.7030, 390.7578
845.1850, 324.0547
845.6670, 169.9766
846.1490, 101.2656
846.6310, 180.1406
847.1140, 263.8750
847.5960, 303.9688
848.0780, 332.8359
848.5600, 403.0078
849.0420, 503.6875
849.5240, 524.7734
850.0060, 336.1797
850.4880, 206.4688
850.9710, 269.4688
851.4530, 382.3359
851.9350, 445.4844
852.4170, 453.7812
852.8990, 410.7109
853.3810, 311.4062
853.8630, 245.1953
854.3450, 337.1875
854.8280, 453.7109
855.3100, 418.3125
855.7920, 282.4141
856.2740, 153.5703
856.7560, 68.00781
857.2380, 48.63281
857.7200, 131.1328
858.2020, 256.1094
858.6840, 293.5469
859.1670, 258.2812
859.6490, 240.1016
860.1310, 246.9062
860.6130, 256.0625
861.0950, 256.5859
861.5770, 261.1172
862.0590, 292.9609
862.5410, 351.7031
863.0230, 370.6484
863.5060, 339.4297
863.9880, 299.5859
864.4700, 265.6328
864.9520, 220.5859
865.4340, 138.2891
865.9160, 28.79688
866.3980, 29.90625
866.8800, 38.67969
867.3620, 2.968750
867.8450, 157.7969
868.3270, 277.5703
868.8090, 246.9922
869.2910, 139.5469
869.7730, 60.90625
870.2550, 25.10156
870.7370, 8.812500
871.2190, 15.32812
871.7010, 28.57031
872.1840, 41.86719
872.6660, 56.86719
873.1480, 81.89844
873.6300, 111.0156
874.1120, 121.9453
874.5940, 100.8984
875.0760, 72.83594
875.5580, 30.02344
876.0410, 10.39844
876.5230, 93.74219
877.0050, 243.9453
877.4870, 360.3984
877.9690, 409.8125
878.4510, 411.7812
878.9330, 371.4766
879.4150, 308.2422
879.8980, 255.6250
880.3800, 224.0312
880.8620, 283.2891
881.3440, 436.4297
881.8260, 530.2500
882.3080, 467.7344
882.7900, 313.2109
883.2720, 167.6094
883.7550, 30.77344
884.2370, 14.60156
884.7190, 50.10156
885.2010, 127.7578
885.6830, 203.5469
886.1650, 249.1641
886.6470, 232.5078
887.1290, 160.1250
887.6110, 69.00000
888.0940, 106.8594
888.5760, 160.1562
889.0580, 21.34375
889.5400, 200.7812
890.0220, 277.6172
890.5040, 273.9375
890.9860, 189.7969
891.4680, 0.2031250
891.9500, 81.58594
892.4330, 74.96875
892.9150, 200.8203
893.3970, 174.3750
893.8790, 120.7891
894.3610, 164.5703
894.8430, 272.6406
895.3250, 325.7656
895.8070, 278.6406
896.2890, 218.4844
896.7720, 160.5938
897.2540, 129.9844
897.7360, 154.7656
898.2180, 216.6953
898.7000, 310.6797
899.1820, 419.3281
899.6640, 463.1875
900.1460, 365.8047
900.6280, 231.2656
901.1110, 165.0391
901.5930, 133.2500
902.0750, 58.54688
902.5570, 38.15625
903.0390, 41.30469
903.5210, 94.03906
904.0030, 236.7109
904.4850, 213.8828
904.9680, 101.9688
905.4500, 86.63281
905.9320, 153.9609
906.4140, 258.2031
906.8960, 383.9922
907.3780, 457.3594
907.8600, 417.2656
908.3420, 332.8438
908.8250, 369.0469
909.3070, 516.5781
909.7890, 533.1953
910.2710, 394.1953
910.7530, 339.1094
911.2350, 472.5625
911.7170, 618.3203
912.1990, 577.1953
912.6820, 390.1719
913.1640, 314.4844
913.6460, 386.8438
914.1280, 428.4062
914.6100, 410.5000
915.0920, 392.6953
915.5740, 422.2500
916.0560, 452.1328
916.5380, 394.2109
917.0210, 230.9141
917.5030, 138.0156
917.9850, 150.9844
918.4670, 179.9844
918.9490, 235.3594
919.4310, 278.8281
919.9130, 282.0703
920.3950, 255.0234
920.8770, 219.6250
921.3600, 169.5938
921.8420, 134.0234
922.3240, 142.8438
922.8060, 134.3750
923.2880, 37.64844
923.7700, 53.42969
924.2520, 14.82812
924.7340, 128.6953
925.2160, 209.5234
925.6990, 146.1406
926.1810, 83.72656
926.6630, 65.02344
927.1450, 76.82031
927.6270, 138.5781
928.1090, 210.5000
928.5910, 214.1875
929.0730, 145.5625
929.5550, 118.2969
930.0380, 248.5234
930.5200, 369.5234
931.0020, 326.6641
931.4840, 240.9062
931.9660, 220.7656
932.4480, 273.2344
932.9300, 378.5938
933.4120, 527.6719
933.8950, 624.7734
934.3770, 529.9844
934.8590, 390.8750
935.3410, 417.1406
935.8230, 528.2812
936.3050, 572.8828
936.7870, 535.6094
937.2690, 446.5391
937.7520, 315.5312
938.2340, 218.8438
938.7160, 310.0234
939.1980, 484.9062
939.6800, 493.8984
940.1620, 361.6094
940.6440, 215.1875
941.1260, 96.32812
941.6090, 40.18750
942.0910, 79.82812
942.5730, 177.3438
943.0550, 288.5078
943.5370, 394.1953
944.0190, 362.8906
944.5010, 201.5703
944.9830, 108.6484
945.4650, 157.8203
945.9480, 257.1328
946.4300, 334.3750
946.9120, 382.8672
947.3940, 276.5781
947.8760, 20.53125
948.3580, 17.27344
948.8400, 226.1484
949.3220, 397.0625
949.8040, 301.3281
950.2870, 131.7344
950.7690, 151.5547
951.2510, 341.2422
951.7330, 451.7656
952.2150, 474.7109
952.6970, 457.8750
953.1790, 389.4688
953.6610, 357.9688
954.1430, 429.7578
954.6260, 552.3750
955.1080, 631.7422
955.5900, 670.7891
956.0720, 621.0469
956.5540, 439.8438
957.0360, 297.3906
957.5180, 230.5625
958.0000, 219.1250
958.4820, 267.6172
958.9650, 348.7031
959.4470, 377.6406
959.9290, 331.6641
960.4110, 319.3750
960.8930, 377.1406
961.3750, 407.0234
961.8570, 341.8828
962.3390, 281.0156
962.8220, 339.0312
963.3040, 480.0000
963.7860, 525.8984
964.2680, 395.8203
964.7500, 330.7578
965.2320, 355.8828
965.7140, 411.0469
966.1960, 512.3359
966.6790, 605.5859
967.1610, 627.7266
967.6430, 585.2969
968.1250, 540.8203
968.6070, 515.8750
969.0890, 457.4141
969.5710, 304.2812
970.0530, 185.3594
970.5360, 183.1250
971.0180, 232.9609
971.5000, 240.1094
971.9820, 205.0391
972.4640, 242.3750
972.9460, 472.0469
973.4280, 618.8047
973.9100, 594.2344
974.3920, 521.6953
974.8750, 407.6797
975.3570, 320.9141
975.8390, 395.1719
976.3210, 645.8984
976.8030, 805.0234
977.2850, 783.8281
977.7670, 717.3438
978.2490, 574.1328
978.7310, 463.2734
979.2140, 518.2422
979.6960, 637.8594
980.1780, 601.1875
980.6600, 359.3203
981.1420, 235.2734
981.6240, 427.6406
982.1060, 604.5859
982.5880, 613.9922
983.0700, 576.4297
983.5530, 595.2500
984.0350, 646.8125
984.5170, 665.0625
984.9990, 637.5312
985.4810, 577.5391
985.9630, 428.3516
986.4450, 324.3906
986.9270, 418.3828
987.4090, 510.7734
987.8920, 347.9766
988.3740, 36.12500
988.8560, 109.5234
989.3380, 13.75781
989.8200, 128.0938
990.3020, 113.0859
990.7840, 76.85938
991.2660, 66.02344
991.7490, 71.74219
992.2310, 107.5078
992.7130, 147.5078
993.1950, 114.3594
993.6770, 33.00781
994.1590, 151.3594
994.6410, 171.1797
995.1230, 152.8828
995.6060, 110.1250
996.0880, 64.63281
996.5700, 64.90625
997.0520, 83.57031
997.5340, 13.92188
998.0160, 203.5625
998.4980, 388.4766
998.9800, 433.1328
999.4630, 445.8672
999.9450, 489.5703
1000.427, 543.7969
1000.909, 594.7812
1001.391, 629.1641
1001.873, 603.8125
1002.355, 471.6172
1002.837, 403.7578
1003.319, 582.6953
1003.802, 739.5000
1004.284, 646.1797
1004.766, 461.3594
1005.248, 368.4922
1005.730, 380.4062
1006.212, 443.9609
1006.694, 573.0781
1007.176, 661.5625
1007.658, 622.9297
1008.141, 571.5781
1008.623, 626.6562
1009.105, 686.1406
1009.587, 577.3984
1010.069, 342.8516
1010.551, 219.9062
1011.033, 317.5312
1011.515, 400.6016
1011.997, 340.5000
1012.480, 275.0547
1012.962, 299.9609
1013.444, 364.3672
1013.926, 402.9531
1014.408, 414.8359
1014.890, 435.6953
1015.372, 483.1797
1015.854, 517.7422
1016.337, 524.0938
1016.819, 510.8906
1017.301, 486.9297
1017.783, 443.0859
1018.265, 348.3906
1018.747, 221.1641
1019.229, 132.8047
1019.711, 98.29688
1020.193, 117.4297
1020.676, 226.6562
1021.158, 348.2734
1021.640, 481.1484
1022.122, 573.7969
1022.604, 552.4844
1023.086, 439.8438
1023.568, 336.9922
1024.050, 256.8359
1024.533, 218.7578
1025.015, 259.8750
1025.497, 308.1484
1025.979, 362.2500
1026.461, 381.1094
1026.943, 284.3516
1027.425, 118.7812
1027.907, 66.02344
1028.390, 217.2031
1028.872, 364.2031
1029.354, 463.9297
1029.836, 552.3281
1030.318, 699.8594
1030.800, 795.4922
1031.282, 666.9141
1031.764, 399.5938
1032.246, 295.1094
1032.729, 455.1719
1033.211, 565.6953
1033.693, 571.0078
1034.175, 542.9219
1034.657, 444.0391
1035.139, 374.0469
1035.621, 478.3203
1036.103, 671.0781
1036.585, 682.1562
1037.068, 410.0859
1037.550, 262.2344
1038.032, 360.6953
1038.514, 441.1719
1038.996, 398.6406
1039.478, 366.1406
1039.960, 479.0000
1040.442, 657.0547
1040.925, 699.8594
1041.407, 565.9609
1041.889, 484.6719
1042.371, 485.1562
1042.853, 483.9531
1043.335, 456.8828
1043.817, 436.2422
1044.299, 456.8906
1044.781, 486.0703
1045.264, 449.8672
1045.746, 335.2969
1046.228, 294.6172
1046.710, 364.3594
1047.192, 401.8594
1047.674, 356.0547
1048.156, 311.9609
1048.638, 319.9297
1049.120, 364.1641
1049.603, 418.5859
1050.085, 472.0469
1050.567, 423.3125
1051.049, 227.9609
1051.531, 161.6953
1052.013, 296.2578
1052.495, 398.8828
1052.977, 339.5938
1053.460, 235.8750
1053.942, 247.6484
1054.424, 351.4844
1054.906, 425.4688
1055.388, 475.8125
1055.870, 428.6562
1056.352, 259.7109
1056.834, 188.0078
1057.317, 315.5625
1057.799, 488.4219
1058.281, 545.2812
1058.763, 509.5000
1059.245, 433.4297
1059.727, 326.8281
1060.209, 285.8438
1060.691, 315.2656
1061.173, 392.0859
1061.656, 507.0781
1062.138, 576.2422
1062.620, 516.9766
1063.102, 400.5625
1063.584, 388.6797
1064.066, 431.8750
1064.548, 324.4062
1065.030, 109.6562
1065.512, 51.24219
1065.995, 190.4531
1066.477, 286.0703
1066.959, 170.0859
1067.441, 10.08594
1067.923, 95.10938
1068.405, 93.35156
1068.887, 39.71875
1069.369, 228.8672
1069.852, 296.4219
1070.334, 231.4297
1070.816, 137.9609
1071.298, 60.65625
1071.780, 31.06250
1072.262, 118.9141
1072.744, 228.3438
1073.226, 246.7969
1073.708, 227.3438
1074.191, 240.4375
1074.673, 292.7812
1075.155, 383.4531
1075.637, 513.3359
1076.119, 601.1094
1076.601, 605.1719
1077.083, 547.6484
1077.565, 356.7188
1078.047, 186.0938
1078.530, 213.6562
1079.012, 359.0781
1079.494, 456.4609
1079.976, 475.9219
1080.458, 476.6328
1080.940, 469.1719
1081.422, 455.5625
1081.904, 452.7891
1082.386, 425.8359
1082.869, 354.3906
1083.351, 246.5547
1083.833, 66.37500
1084.315, 165.1562
1084.797, 229.2812
1085.279, 55.73438
1085.761, 232.7812
1086.243, 229.5391
1086.726, 197.4844
1087.208, 169.5781
1087.690, 146.8516
1088.172, 121.3359
1088.654, 103.4688
1089.136, 136.9531
1089.618, 247.8984
1090.100, 292.7109
1090.583, 226.2812
1091.065, 234.8906
1091.547, 396.7734
1092.029, 532.6484
1092.511, 499.1953
1092.993, 403.3984
1093.475, 467.3828
1093.957, 678.5859
1094.439, 721.7266
1094.922, 588.4062
1095.404, 527.7344
1095.886, 580.9219
1096.368, 642.3672
1096.850, 661.6797
1097.332, 654.4062
1097.814, 640.9531
1098.296, 613.5000
1098.778, 527.4609
1099.261, 409.5469
1099.743, 364.0000
1100.225, 392.1953
1100.707, 458.0625
1101.189, 545.7500
1101.671, 636.0547
1102.153, 729.6953
1102.635, 772.0000
1103.118, 626.2031
1103.600, 432.7656
1104.082, 463.8750
1104.564, 597.9922
1105.046, 545.2422
1105.528, 297.5625
1106.010, 56.83594
1106.492, 98.03125
1106.974, 159.8438
1107.457, 49.00000
1107.939, 74.79688
1108.421, 67.41406
1108.903, 30.58594
1109.385, 83.89062
1109.867, 202.7734
1110.349, 311.0078
1110.831, 394.1797
1111.313, 429.8125
1111.796, 344.4688
1112.278, 303.4453
1112.760, 411.9062
1113.242, 509.6875
1113.724, 453.8672
1114.206, 354.4375
1114.688, 407.4141
1115.170, 593.1641
1115.653, 627.6875
1116.135, 356.4844
1116.617, 297.4688
1117.099, 605.8594
1117.581, 816.0781
1118.063, 759.1719
1118.545, 589.5859
1119.027, 405.0703
1119.510, 253.9531
1119.992, 287.2031
1120.474, 515.7891
1120.956, 643.7188
1121.438, 670.6562
1121.920, 596.0859
1122.402, 416.6562
1122.884, 295.1953
1123.366, 324.0781
1123.849, 413.0391
1124.331, 449.4766
1124.813, 453.3984
1125.295, 481.0234
1125.777, 524.4609
1126.259, 611.2656
1126.741, 713.5781
1127.223, 672.7031
1127.705, 467.8047
1128.188, 316.1250
1128.670, 382.6797
1129.152, 511.9297
1129.634, 615.5625
1130.116, 661.9219
1130.598, 569.5625
1131.080, 422.2734
1131.562, 359.1875
1132.045, 380.2109
1132.527, 387.3516
1133.009, 341.5938
1133.491, 336.3984
1133.973, 492.1875
1134.455, 586.7734
1134.937, 489.4609
1135.419, 339.5703
1135.901, 207.6875
1136.384, 114.6016
1136.866, 102.5859
1137.348, 176.2578
1137.830, 206.6953
1138.312, 143.2109
1138.794, 145.8047
1139.276, 282.5469
1139.758, 344.4453
1140.240, 208.5625
1140.723, 68.90625
1141.205, 114.9844
1141.687, 288.2188
1142.169, 446.8594
1142.651, 599.5078
1143.133, 512.7188
1143.615, 177.3828
1144.097, 13.26562
1144.580, 16.76562
1145.062, 144.1953
1145.544, 307.2500
1146.026, 415.4453
1146.508, 315.8750
1146.990, 139.6094
1147.472, 151.3984
1147.954, 273.7188
1148.437, 389.1250
1148.919, 455.6016
1149.401, 364.5859
1149.883, 125.9375
1150.365, 21.54688
1150.847, 84.57812
1151.329, 216.4688
1151.811, 225.7266
1152.293, 199.9531
1152.776, 192.3828
1153.258, 196.3281
1153.740, 217.7891
1154.222, 238.6562
1154.704, 195.3125
1155.186, 56.23438
1155.668, 11.59375
1156.150, 190.8906
1156.632, 303.8984
1157.115, 283.6172
1157.597, 223.1328
1158.079, 127.4609
1158.561, 61.99219
1159.043, 120.0547
1159.525, 267.9141
1160.007, 338.8750
1160.489, 317.7500
1160.972, 369.7422
1161.454, 505.7344
1161.936, 590.6250
1162.418, 590.5469
1162.900, 536.8828
1163.382, 443.9062
1163.864, 367.8516
1164.346, 421.4688
1164.828, 515.8203
1165.311, 419.3984
1165.793, 226.1562
1166.275, 154.2109
1166.757, 197.7812
1167.239, 288.2266
1167.721, 389.1797
1168.203, 402.0703
1168.685, 210.9688
1169.167, 71.27344
1169.650, 217.3750
1170.132, 392.5859
1170.614, 430.7969
1171.096, 382.0156
1171.578, 262.1484
1172.060, 121.0781
1172.542, 89.71875
1173.024, 213.8750
1173.507, 259.6250
1173.989, 154.0859
1174.471, 76.06250
1174.953, 20.02344
1175.435, 53.89844
1175.917, 260.4844
1176.399, 459.6719
1176.881, 439.1562
1177.364, 277.0547
1177.846, 251.7656
1178.328, 355.7656
1178.810, 355.8828
1179.292, 255.7109
1179.774, 170.7422
1180.256, 123.4844
1180.738, 74.62500
1181.220, 3.773438
1181.703, 47.86719
1182.185, 25.52344
1182.667, 26.91406
1183.149, 75.98438
1183.631, 100.5625
1184.113, 49.07812
1184.595, 41.21094
1185.077, 106.8984
1185.559, 132.4062
1186.042, 108.3516
1186.524, 2.820313
1187.006, 57.64062
1187.488, 22.20312
1187.970, 82.04688
1188.452, 68.97656
1188.934, 6.828125
1189.416, 144.9297
1189.899, 287.5078
1190.381, 235.3906
1190.863, 9.187500
1191.345, 39.40625
1191.827, 135.8125
1192.309, 226.8359
1192.791, 207.7734
1193.273, 178.3281
1193.755, 168.1953
1194.238, 162.5859
1194.720, 151.6953
1195.202, 138.8047
1195.684, 111.5469
1196.166, 97.07031
1196.648, 184.8828
1197.130, 316.8516
1197.612, 362.9531
1198.094, 340.4062
1198.577, 330.5078
1199.059, 356.8203
1199.541, 421.2109
1200.023, 565.6953
1200.505, 637.0703
1200.987, 480.5234
1201.469, 340.6016
1201.951, 377.8828
1202.434, 467.7969
1202.916, 503.9375
1203.398, 495.6719
1203.880, 472.3047
1204.362, 431.9375
1204.844, 407.7266
1205.326, 411.2344
1205.808, 420.9609
1206.291, 451.5938
1206.773, 382.4844
1207.255, 157.3203
1207.737, 8.179688
1208.219, 137.3438
1208.701, 356.5078
1209.183, 320.7969
1209.665, 140.2969
1210.147, 82.79688
1210.630, 112.9141
1211.112, 173.2344
1211.594, 231.9688
1212.076, 197.1016
1212.558, 66.45312
1213.040, 49.80469
1213.522, 333.5078
1214.004, 556.9531
1214.486, 491.0156
1214.969, 378.3828
1215.451, 297.5938
1215.933, 279.0938
1216.415, 394.1250
1216.897, 568.8750
1217.379, 643.5391
1217.861, 618.4375
1218.343, 627.3359
1218.826, 674.0547
1219.308, 767.8984
1219.790, 934.4766
1220.272, 899.9531
1220.754, 564.4609
1221.236, 313.6797
1221.718, 439.5312
1222.200, 712.1562
1222.682, 844.9531
1223.165, 866.4219
1223.647, 774.7734
1224.129, 621.3125
1224.611, 569.5469
1225.093, 584.4141
1225.575, 516.9453
1226.057, 384.5391
1226.539, 340.7109
1227.021, 503.3438
1227.504, 599.6016
1227.986, 463.4688
1228.468, 336.9219
1228.950, 318.8125
1229.432, 337.8047
1229.914, 362.0859
1230.396, 382.0781
1230.878, 379.6797
1231.361, 360.7969
1231.843, 369.4688
1232.325, 409.1484
1232.807, 386.2109
1233.289, 300.7812
1233.771, 242.7891
1234.253, 233.2109
1234.735, 255.8438
1235.218, 301.1406
1235.700, 376.5625
1236.182, 532.0859
1236.664, 662.6875
1237.146, 603.8906
1237.628, 501.5312
1238.110, 551.0703
1238.592, 646.9141
1239.074, 574.8516
1239.557, 371.6562
1240.039, 290.7266
1240.521, 401.4766
1241.003, 513.6719
1241.485, 657.5312
1241.967, 711.5469
1242.449, 618.1484
1242.931, 549.1875
1243.413, 589.3125
1243.896, 640.5781
1244.378, 602.4375
1244.860, 524.3750
1245.342, 527.3203
1245.824, 579.1016
1246.306, 561.9375
1246.788, 497.9297
1247.270, 449.5781
1247.753, 421.3125
1248.235, 395.7344
1248.717, 366.6406
1249.199, 327.7500
1249.681, 258.6719
1250.163, 219.2188
1250.645, 242.6172
1251.127, 293.4844
1251.609, 419.7344
1252.092, 498.1016
1252.574, 387.7422
1253.056, 205.5781
1253.538, 139.4531
1254.020, 175.6797
1254.502, 196.5781
1254.984, 201.7656
1255.466, 231.1875
1255.948, 282.3828
1256.431, 213.6953
1256.913, 17.30469
1257.395, 34.43750
1257.877, 198.4219
1258.359, 434.5000
1258.841, 394.0234
1259.323, 288.9531
1259.805, 279.9766
1260.288, 204.9688
1260.770, 122.4609
1261.252, 5.703125
1261.734, 74.50781
1262.216, 0.0000000E+00
##END=



