##NAMES=Chestermanite
##RRUFFID=R070351
##IDEAL CHEMISTRY=Mg_2_(Fe^3+^,Mg,Al,Sb^5+^)O_2_BO_3_
##LOCALITY=Twin Lakes region, Kaiser Peak quadrangle, Fresno County, California, USA
##OWNER=RRUFF
##SOURCE=Michael Scott
##DESCRIPTION=Black bladed associated with calcite, co-type sample
##STATUS=The identification of this mineral is not yet confirmed.
##URL=rruff.info/R070351
159.1066, 0.0000000E+00
159.5887, 10.79590
160.0709, 5.407471
160.5530, 1.290039
161.0351, 4.596924
161.5172, 6.287354
161.9993, 4.015381
162.4814, 42.74658
162.9636, 97.38354
163.4457, 147.2075
163.9278, 179.1528
164.4099, 202.3574
164.8920, 232.5752
165.3741, 270.1560
165.8563, 312.5454
166.3384, 365.5537
166.8205, 421.5193
167.3026, 466.0552
167.7847, 485.3198
168.2668, 492.0642
168.7490, 517.5920
169.2311, 573.0015
169.7132, 621.8577
170.1953, 641.4583
170.6774, 643.1733
171.1595, 643.5972
171.6417, 649.9277
172.1238, 659.9065
172.6059, 668.1475
173.0880, 674.6294
173.5701, 679.0771
174.0522, 677.5879
174.5344, 675.0015
175.0165, 679.1094
175.4986, 696.8040
175.9807, 721.7810
176.4628, 735.0144
176.9449, 726.3186
177.4271, 724.9111
177.9092, 745.5234
178.3913, 778.1333
178.8734, 808.7974
179.3555, 829.7180
179.8376, 845.7188
180.3198, 873.2285
180.8019, 923.0483
181.2840, 964.8899
181.7661, 983.4580
182.2482, 991.7393
182.7303, 1006.080
183.2125, 1035.497
183.6946, 1074.245
184.1767, 1104.899
184.6588, 1118.915
185.1409, 1139.629
185.6230, 1179.470
186.1052, 1225.919
186.5873, 1264.529
187.0694, 1287.982
187.5515, 1301.326
188.0336, 1317.594
188.5157, 1334.028
188.9979, 1358.635
189.4800, 1397.919
189.9621, 1442.534
190.4442, 1484.190
190.9263, 1519.106
191.4084, 1547.817
191.8906, 1571.737
192.3727, 1591.954
192.8548, 1604.648
193.3369, 1604.041
193.8190, 1599.455
194.3011, 1600.256
194.7833, 1610.214
195.2654, 1625.311
195.7475, 1636.751
196.2296, 1642.691
196.7117, 1648.402
197.1938, 1657.346
197.6760, 1665.033
198.1581, 1668.179
198.6402, 1665.637
199.1223, 1657.248
199.6044, 1642.480
200.0865, 1619.891
200.5687, 1593.002
201.0508, 1559.916
201.5329, 1524.824
202.0150, 1491.206
202.4971, 1459.896
202.9792, 1429.756
203.4614, 1397.687
203.9435, 1358.199
204.4256, 1330.060
204.9077, 1326.157
205.3898, 1323.693
205.8719, 1305.350
206.3541, 1268.605
206.8362, 1225.352
207.3183, 1192.035
207.8004, 1174.124
208.2825, 1152.997
208.7646, 1126.210
209.2468, 1098.372
209.7289, 1068.935
210.2110, 1039.737
210.6931, 1016.810
211.1752, 1010.371
211.6573, 1029.173
212.1395, 1031.988
212.6216, 1006.500
213.1037, 976.7866
213.5858, 952.8613
214.0679, 935.2876
214.5500, 921.7739
215.0322, 911.2168
215.5143, 903.7407
215.9964, 901.0103
216.4785, 903.7866
216.9606, 903.4409
217.4427, 903.2954
217.9249, 903.5786
218.4070, 905.8936
218.8891, 912.9546
219.3712, 924.6924
219.8533, 924.6919
220.3354, 898.3901
220.8176, 874.2051
221.2997, 863.4351
221.7818, 861.2007
222.2639, 855.6821
222.7460, 837.8066
223.2281, 809.0620
223.7103, 787.2144
224.1924, 774.6294
224.6745, 767.8379
225.1566, 768.4990
225.6387, 774.3691
226.1208, 784.3574
226.6030, 798.7266
227.0851, 813.0942
227.5672, 810.2739
228.0493, 775.8506
228.5314, 743.5625
229.0135, 717.8989
229.4957, 697.7227
229.9778, 682.3467
230.4599, 671.7236
230.9420, 663.8984
231.4241, 654.0063
231.9063, 643.9312
232.3884, 628.5522
232.8705, 601.6621
233.3526, 573.1079
233.8347, 551.4014
234.3168, 539.3823
234.7990, 533.2725
235.2811, 528.4907
235.7632, 530.4355
236.2453, 520.0723
236.7274, 481.2808
237.2095, 441.8589
237.6917, 420.8848
238.1738, 421.1450
238.6559, 429.0986
239.1380, 428.9346
239.6201, 418.8350
240.1022, 407.1392
240.5844, 395.7300
241.0665, 381.5015
241.5486, 362.8848
242.0307, 339.9517
242.5128, 315.3521
242.9949, 296.3989
243.4771, 284.4595
243.9592, 278.0205
244.4413, 289.7593
244.9234, 295.9639
245.4055, 281.3130
245.8876, 251.8950
246.3698, 225.0020
246.8519, 216.8687
247.3340, 225.0293
247.8161, 223.7363
248.2982, 209.1973
248.7803, 189.3633
249.2625, 156.3994
249.7446, 121.9160
250.2267, 106.8442
250.7088, 127.6860
251.1909, 169.7393
251.6730, 190.2690
252.1552, 181.0308
252.6373, 166.8477
253.1194, 155.9517
253.6015, 143.9673
254.0836, 124.1255
254.5657, 92.58545
255.0479, 61.17139
255.5300, 50.65723
256.0121, 66.91895
256.4942, 79.08789
256.9763, 74.35303
257.4584, 65.09277
257.9406, 59.76074
258.4227, 59.80078
258.9048, 61.47217
259.3869, 60.19531
259.8690, 55.95850
260.3511, 57.85547
260.8333, 78.65137
261.3154, 95.27783
261.7975, 87.10010
262.2796, 55.44385
262.7617, 25.63574
263.2438, 16.90088
263.7260, 25.93994
264.2081, 34.95166
264.6902, 43.78369
265.1723, 48.55859
265.6544, 47.73242
266.1365, 41.89502
266.6187, 31.55811
267.1008, 10.67188
267.5829, 13.72217
268.0650, 25.26758
268.5471, 20.85645
269.0292, 11.98047
269.5114, 3.088379
269.9935, 4.604980
270.4756, 8.403320
270.9577, 6.630859
271.4398, 1.476074
271.9219, 6.866211
272.4041, 18.62256
272.8862, 25.35840
273.3683, 19.34082
273.8504, 7.155762
274.3325, 1.539063
274.8146, 4.534180
275.2968, 11.41846
275.7789, 23.69971
276.2610, 38.60303
276.7431, 42.93262
277.2252, 27.58350
277.7073, 5.562988
278.1895, 6.3477002E-02
278.6716, 14.25488
279.1537, 26.07422
279.6358, 26.34131
280.1179, 19.37158
280.6000, 11.12451
281.0822, 2.266602
281.5643, 3.918945
282.0464, 2.202637
282.5285, 8.145996
283.0106, 16.91943
283.4927, 26.59766
283.9749, 31.93457
284.4570, 26.59717
284.9391, 10.67725
285.4212, 9.735352
285.9033, 32.70068
286.3854, 57.16162
286.8676, 63.74902
287.3497, 33.04004
287.8318, 4.986328
288.3139, 2.337891
288.7960, 18.42041
289.2781, 34.12012
289.7603, 39.02246
290.2424, 35.27881
290.7245, 31.60156
291.2066, 22.93896
291.6887, 20.58545
292.1708, 35.19043
292.6530, 53.95215
293.1351, 58.45850
293.6172, 42.16748
294.0993, 16.87549
294.5814, 3.082031
295.0635, 5.570801
295.5457, 11.91602
296.0278, 27.10303
296.5099, 42.10547
296.9920, 53.49951
297.4741, 59.27539
297.9562, 54.30713
298.4384, 29.07568
298.9205, 23.65869
299.4026, 44.94580
299.8847, 1.845215
300.3668, 42.26221
300.8489, 46.09814
301.3311, 23.14551
301.8132, 2.407227
302.2953, 15.28857
302.7774, 15.86035
303.2595, 6.227539
303.7416, 24.38330
304.2238, 47.77441
304.7059, 57.49463
305.1880, 59.18311
305.6701, 56.35986
306.1522, 49.80713
306.6343, 44.50439
307.1165, 52.39600
307.5986, 81.02441
308.0807, 95.24561
308.5628, 74.63770
309.0449, 47.69775
309.5270, 28.03516
310.0092, 18.11279
310.4913, 17.30469
310.9734, 30.23486
311.4555, 54.73047
311.9376, 66.53467
312.4197, 55.39258
312.9019, 43.82812
313.3840, 47.74463
313.8661, 61.32324
314.3482, 70.87695
314.8303, 66.43848
315.3124, 56.26270
315.7946, 56.87305
316.2767, 70.79004
316.7588, 82.74951
317.2409, 82.33350
317.7230, 77.94336
318.2051, 80.81152
318.6873, 96.13379
319.1694, 108.6880
319.6515, 104.2666
320.1336, 86.75195
320.6157, 71.88672
321.0978, 64.17188
321.5800, 63.57031
322.0621, 72.73291
322.5442, 93.53809
323.0263, 109.7949
323.5084, 112.1172
323.9905, 109.5610
324.4727, 114.2812
324.9548, 128.3315
325.4369, 145.6450
325.9190, 161.9941
326.4011, 177.8652
326.8832, 186.3535
327.3654, 183.6890
327.8475, 177.2607
328.3296, 167.5166
328.8117, 157.0210
329.2938, 152.2305
329.7759, 157.1353
330.2581, 169.7231
330.7402, 181.7100
331.2223, 199.3218
331.7044, 209.7900
332.1865, 204.9746
332.6686, 194.9629
333.1508, 191.0952
333.6329, 196.4165
334.1150, 205.1753
334.5971, 209.7344
335.0792, 209.7397
335.5613, 209.8433
336.0435, 211.8862
336.5256, 194.3271
337.0077, 212.9976
337.4898, 222.6216
337.9719, 224.0161
338.4540, 191.7598
338.9362, 203.6323
339.4183, 198.0640
339.9004, 191.7173
340.3825, 209.4224
340.8646, 181.6108
341.3467, 197.9185
341.8289, 196.0293
342.3110, 202.5381
342.7931, 192.1543
343.2752, 196.3462
343.7573, 189.7437
344.2394, 183.7231
344.7216, 185.8140
345.2037, 186.3555
345.6858, 175.3911
346.1679, 152.8340
346.6500, 131.9912
347.1321, 123.3623
347.6143, 122.4209
348.0964, 115.8887
348.5785, 100.9619
349.0606, 85.04102
349.5427, 70.93115
350.0248, 60.10791
350.5070, 58.37793
350.9891, 77.32178
351.4712, 97.40381
351.9533, 100.5562
352.4354, 89.05078
352.9175, 79.19531
353.3997, 79.23486
353.8818, 84.81689
354.3639, 83.69580
354.8460, 74.02051
355.3281, 63.34277
355.8102, 51.38574
356.2924, 40.14795
356.7745, 29.52783
357.2566, 21.32080
357.7387, 18.86816
358.2208, 20.85840
358.7029, 27.92773
359.1851, 26.95459
359.6672, 6.552246
360.1493, 10.77148
360.6314, 10.84570
361.1135, 1.088867
361.5956, 12.25195
362.0778, 13.54980
362.5599, 7.312988
363.0420, 3.741211
363.5241, 5.406250
364.0062, 5.471191
364.4883, 4.109863
364.9705, 0.6381840
365.4526, 6.026367
365.9347, 16.14648
366.4168, 28.27734
366.8989, 43.30469
367.3810, 62.20068
367.8632, 72.93359
368.3453, 68.21680
368.8274, 61.78809
369.3095, 63.62646
369.7916, 69.76270
370.2737, 69.61475
370.7559, 54.91260
371.2380, 33.09814
371.7201, 17.70361
372.2022, 9.601074
372.6843, 0.7094730
373.1664, 20.23633
373.6486, 38.41016
374.1307, 28.66260
374.6128, 19.36914
375.0949, 61.52441
375.5770, 72.02100
376.0591, 60.70508
376.5413, 43.92627
377.0234, 24.00098
377.5055, 8.057129
377.9876, 5.459961
378.4697, 18.04590
378.9518, 23.24170
379.4340, 16.03906
379.9161, 4.960449
380.3982, 6.191406
380.8803, 16.96533
381.3624, 28.32715
381.8445, 41.47607
382.3267, 53.62500
382.8088, 56.10400
383.2909, 37.93701
383.7730, 23.71973
384.2551, 8.954590
384.7372, 1.420410
385.2194, 13.45557
385.7015, 43.40381
386.1836, 72.50537
386.6657, 80.10498
387.1478, 64.95264
387.6299, 51.08545
388.1121, 33.57715
388.5942, 23.69141
389.0763, 27.06787
389.5584, 39.64746
390.0405, 55.94678
390.5226, 74.96094
391.0048, 93.32324
391.4869, 102.7212
391.9690, 101.1035
392.4511, 110.3911
392.9332, 145.0986
393.4153, 185.1611
393.8975, 210.3774
394.3796, 220.7505
394.8617, 230.5522
395.3438, 250.2070
395.8259, 272.5635
396.3080, 282.4048
396.7902, 277.4722
397.2723, 276.9463
397.7544, 296.3887
398.2365, 331.8193
398.7186, 359.9321
399.2007, 376.6494
399.6829, 390.5186
400.1650, 401.4121
400.6471, 412.3501
401.1292, 430.6499
401.6113, 458.9106
402.0934, 488.0352
402.5756, 503.8853
403.0577, 498.6919
403.5398, 503.7812
404.0219, 524.6118
404.5040, 549.2207
404.9861, 575.5171
405.4683, 600.5508
405.9504, 618.8862
406.4325, 626.6802
406.9146, 626.1318
407.3967, 623.5605
407.8788, 612.3584
408.3610, 613.4141
408.8431, 639.9258
409.3252, 673.5923
409.8073, 702.7349
410.2894, 724.8750
410.7715, 739.2329
411.2537, 741.9795
411.7358, 735.4775
412.2179, 730.6025
412.7000, 726.4556
413.1821, 727.5474
413.6642, 741.2490
414.1464, 762.1304
414.6285, 779.5249
415.1106, 791.1519
415.5927, 799.6133
416.0748, 802.6323
416.5569, 803.7856
417.0391, 816.6304
417.5212, 847.9404
418.0033, 880.7188
418.4854, 888.7871
418.9675, 862.3325
419.4496, 846.7676
419.9318, 848.1890
420.4139, 855.9014
420.8960, 864.0156
421.3781, 872.6255
421.8602, 885.1479
422.3423, 905.1084
422.8245, 927.8198
423.3066, 932.6914
423.7887, 904.6187
424.2708, 881.1562
424.7529, 865.2290
425.2350, 855.0640
425.7172, 854.4722
426.1993, 862.4492
426.6814, 866.6284
427.1635, 847.6333
427.6456, 808.5713
428.1277, 794.0562
428.6099, 818.4185
429.0920, 842.8091
429.5741, 842.4009
430.0562, 829.4810
430.5383, 822.4556
431.0204, 826.8354
431.5026, 834.5210
431.9847, 841.7207
432.4668, 846.2817
432.9489, 841.8623
433.4310, 827.4399
433.9131, 811.2197
434.3953, 801.0493
434.8774, 797.3540
435.3595, 797.8247
435.8416, 810.3921
436.3237, 818.1724
436.8058, 803.9141
437.2880, 777.2764
437.7701, 764.0293
438.2522, 778.0522
438.7343, 806.6045
439.2164, 816.7720
439.6985, 792.2666
440.1807, 778.1763
440.6628, 784.0044
441.1449, 792.1040
441.6270, 791.3579
442.1091, 781.9365
442.5912, 769.9712
443.0734, 759.4521
443.5555, 750.2495
444.0376, 741.9360
444.5197, 734.5488
445.0018, 727.9077
445.4839, 718.6011
445.9661, 711.8706
446.4482, 715.1675
446.9303, 730.7944
447.4124, 745.1636
447.8945, 749.0146
448.3766, 745.9009
448.8588, 744.3940
449.3409, 746.0674
449.8230, 742.3555
450.3051, 722.5664
450.7872, 689.8594
451.2693, 674.9116
451.7515, 684.3794
452.2336, 702.2559
452.7157, 731.3252
453.1978, 762.7891
453.6799, 785.4409
454.1620, 795.8228
454.6442, 795.6450
455.1263, 785.3735
455.6084, 762.1138
456.0905, 745.2524
456.5726, 735.1328
457.0547, 731.7305
457.5369, 736.9961
458.0190, 748.6777
458.5011, 762.7251
458.9832, 776.9775
459.4653, 795.4209
459.9474, 828.8467
460.4296, 877.5273
460.9117, 912.7568
461.3938, 923.7402
461.8759, 926.7456
462.3580, 936.7935
462.8401, 952.2397
463.3223, 964.3042
463.8044, 963.8696
464.2865, 964.4072
464.7686, 981.7661
465.2507, 1011.588
465.7328, 1034.776
466.2150, 1041.780
466.6971, 1042.418
467.1792, 1056.388
467.6613, 1096.459
468.1434, 1122.712
468.6255, 1122.065
469.1077, 1119.260
469.5898, 1133.568
470.0719, 1159.618
470.5540, 1179.260
471.0361, 1181.241
471.5182, 1168.835
472.0004, 1149.278
472.4825, 1117.603
472.9646, 1092.723
473.4467, 1085.945
473.9288, 1082.233
474.4109, 1068.393
474.8931, 1045.819
475.3752, 1032.010
475.8573, 1049.021
476.3394, 1076.417
476.8215, 1075.949
477.3036, 1046.535
477.7858, 1016.081
478.2679, 999.5610
478.7500, 989.9458
479.2321, 968.3169
479.7142, 927.2314
480.1964, 894.8833
480.6785, 887.2876
481.1606, 883.5679
481.6427, 861.0815
482.1248, 821.3706
482.6069, 784.3467
483.0891, 765.2041
483.5712, 760.6143
484.0533, 752.1338
484.5354, 742.8750
485.0175, 723.7402
485.4996, 683.8760
485.9818, 641.6670
486.4639, 614.3677
486.9460, 602.2388
487.4281, 589.7441
487.9102, 559.2637
488.3923, 519.3032
488.8745, 499.2759
489.3566, 503.4155
489.8387, 503.6182
490.3208, 480.0278
490.8029, 446.7700
491.2850, 436.0278
491.7672, 460.2339
492.2493, 470.7324
492.7314, 435.4482
493.2135, 386.6982
493.6956, 363.6890
494.1777, 368.1992
494.6599, 375.1221
495.1420, 365.1245
495.6241, 341.3218
496.1062, 323.6426
496.5883, 318.0742
497.0704, 310.5464
497.5526, 300.5938
498.0347, 287.5635
498.5168, 268.8960
498.9989, 245.5986
499.4810, 224.0205
499.9631, 210.1885
500.4453, 202.1948
500.9274, 193.5522
501.4095, 184.4365
501.8916, 173.5713
502.3737, 157.4346
502.8558, 140.9678
503.3380, 132.2139
503.8201, 132.9199
504.3022, 134.7373
504.7843, 131.9229
505.2664, 130.1128
505.7485, 137.6919
506.2307, 154.4248
506.7128, 172.3643
507.1949, 186.4121
507.6770, 196.0781
508.1591, 200.4756
508.6412, 195.4663
509.1234, 191.8867
509.6055, 189.6387
510.0876, 188.9727
510.5697, 189.4980
511.0518, 191.4639
511.5339, 196.3389
512.0161, 206.1445
512.4982, 219.6475
512.9803, 232.4268
513.4624, 243.4473
513.9445, 257.6880
514.4266, 280.0088
514.9088, 303.5806
515.3909, 319.3027
515.8730, 327.3901
516.3551, 336.2017
516.8372, 347.0566
517.3193, 359.5425
517.8015, 372.3149
518.2836, 386.0293
518.7657, 405.6064
519.2478, 434.7588
519.7299, 466.0591
520.2120, 478.9663
520.6942, 453.4775
521.1763, 448.7812
521.6584, 490.2354
522.1405, 526.4219
522.6226, 519.6519
523.1047, 484.5889
523.5869, 462.8247
524.0690, 478.5991
524.5511, 512.8062
525.0332, 534.6846
525.5153, 544.3276
525.9974, 558.3979
526.4796, 587.5630
526.9617, 611.3511
527.4438, 601.1245
527.9259, 562.0225
528.4080, 531.9004
528.8901, 515.0200
529.3723, 508.5640
529.8544, 519.0586
530.3365, 536.9609
530.8186, 543.8569
531.3007, 533.7715
531.7828, 515.5557
532.2650, 502.4321
532.7471, 496.4336
533.2292, 481.6738
533.7113, 439.2554
534.1934, 408.2681
534.6755, 411.5044
535.1577, 429.4272
535.6398, 434.8413
536.1219, 419.3145
536.6040, 395.9453
537.0861, 375.4014
537.5682, 357.4189
538.0504, 338.9531
538.5325, 319.6025
539.0146, 299.4707
539.4967, 277.1821
539.9788, 254.9482
540.4609, 243.4312
540.9431, 250.5244
541.4252, 255.2563
541.9073, 248.7065
542.3894, 239.9160
542.8715, 241.2197
543.3536, 251.1768
543.8358, 255.5229
544.3179, 242.2891
544.8000, 215.1250
545.2821, 187.6831
545.7642, 153.4419
546.2463, 133.5371
546.7285, 153.1436
547.2106, 175.4375
547.6927, 170.8096
548.1748, 139.6592
548.6569, 102.9429
549.1390, 56.77393
549.6212, 20.11279
550.1033, 23.10205
550.5854, 57.32520
551.0675, 85.46533
551.5496, 92.93115
552.0317, 84.29004
552.5139, 64.30371
552.9960, 22.48584
553.4781, 5.643555
553.9602, 40.64941
554.4423, 68.10791
554.9244, 56.12549
555.4066, 23.79297
555.8887, 2.975586
556.3708, 5.378418
556.8529, 16.00977
557.3350, 18.02295
557.8171, 12.71484
558.2993, 7.736816
558.7814, 2.977539
559.2635, 1.254883
559.7456, 4.319336
560.2277, 12.04443
560.7098, 24.08691
561.1920, 49.63086
561.6741, 63.45557
562.1562, 51.14111
562.6383, 27.17480
563.1204, 3.085938
563.6025, 17.66504
564.0847, 31.27344
564.5668, 34.19043
565.0489, 29.68750
565.5310, 31.42578
566.0131, 42.97363
566.4952, 51.74707
566.9774, 55.17285
567.4595, 55.43359
567.9416, 51.54395
568.4237, 44.98584
568.9058, 41.81885
569.3879, 48.55127
569.8701, 56.27002
570.3522, 56.66797
570.8343, 50.57861
571.3164, 38.27246
571.7985, 18.93311
572.2806, 2.741699
572.7628, 3.503418
573.2449, 23.97949
573.7270, 35.48389
574.2091, 35.59570
574.6912, 30.36621
575.1733, 14.51709
575.6555, 2.371094
576.1376, 7.325684
576.6197, 1.419922
577.1018, 9.791992
577.5839, 1.095703
578.0660, 18.13818
578.5482, 23.69189
579.0303, 13.45166
579.5124, 5.693359
579.9945, 10.24365
580.4766, 20.81055
580.9587, 25.03662
581.4409, 21.59473
581.9230, 18.87158
582.4051, 17.80420
582.8872, 18.04688
583.3693, 22.13477
583.8514, 27.04834
584.3336, 25.45557
584.8157, 13.98682
585.2978, 0.8461910
585.7799, 9.130859
586.2620, 10.50000
586.7441, 8.910156
587.2263, 3.417480
587.7084, 3.100586
588.1905, 13.45996
588.6726, 22.59912
589.1547, 19.90283
589.6368, 2.125977
590.1190, 19.89697
590.6011, 21.92236
591.0832, 13.42285
591.5653, 1.904785
592.0474, 22.00293
592.5295, 42.58057
593.0117, 61.84424
593.4938, 76.35059
593.9759, 73.36816
594.4580, 41.25244
594.9401, 19.47852
595.4222, 18.08789
595.9044, 21.87744
596.3865, 28.64990
596.8686, 34.57129
597.3507, 29.83057
597.8328, 3.847168
598.3149, 20.15137
598.7971, 17.57227
599.2792, 3.017090
599.7613, 20.94189
600.2434, 32.26953
600.7255, 38.06592
601.2076, 39.17871
601.6898, 35.58521
602.1719, 26.88306
602.6540, 0.8989260
603.1361, 14.23584
603.6182, 0.9663090
604.1003, 22.10767
604.5825, 30.80908
605.0646, 28.83276
605.5467, 31.84546
606.0288, 54.78857
606.5109, 79.48950
606.9930, 72.89917
607.4752, 39.50024
607.9573, 15.20923
608.4394, 9.095947
608.9215, 13.05981
609.4036, 20.21460
609.8857, 30.59058
610.3679, 41.47632
610.8500, 53.19678
611.3321, 64.94287
611.8142, 83.29248
612.2963, 97.35010
612.7784, 90.00220
613.2606, 63.96533
613.7427, 43.81665
614.2248, 51.18384
614.7069, 75.03369
615.1890, 88.69043
615.6711, 91.82812
616.1533, 91.47144
616.6354, 87.95630
617.1175, 84.66504
617.5996, 85.74780
618.0817, 91.29810
618.5638, 96.76489
619.0460, 101.0007
619.5281, 106.2556
620.0102, 114.1958
620.4923, 123.2522
620.9744, 132.4973
621.4565, 140.7893
621.9387, 145.6113
622.4208, 144.0769
622.9029, 138.3247
623.3850, 135.1965
623.8671, 134.2725
624.3492, 135.9812
624.8314, 141.5618
625.3135, 149.1533
625.7956, 157.1165
626.2777, 165.5588
626.7598, 173.1104
627.2419, 179.5144
627.7241, 184.0671
628.2062, 186.3357
628.6883, 187.3833
629.1704, 187.2168
629.6525, 186.8142
630.1346, 190.0217
630.6168, 201.7510
631.0989, 218.9365
631.5810, 230.0762
632.0631, 236.6611
632.5452, 233.3337
633.0273, 209.6914
633.5095, 184.5857
633.9916, 180.2400
634.4737, 195.2063
634.9558, 208.0427
635.4379, 210.7271
635.9200, 215.4448
636.4022, 234.1057
636.8843, 257.2000
637.3664, 269.3284
637.8485, 267.2759
638.3306, 258.4529
638.8127, 249.5864
639.2949, 240.5051
639.7770, 228.7805
640.2591, 210.7290
640.7412, 203.6624
641.2233, 220.1055
641.7054, 242.5281
642.1876, 250.3967
642.6697, 245.2507
643.1518, 246.8801
643.6339, 271.8491
644.1160, 292.1792
644.5981, 287.8552
645.0803, 270.8188
645.5624, 258.7075
646.0445, 256.2664
646.5266, 258.6082
647.0087, 261.8040
647.4908, 264.4187
647.9730, 263.8821
648.4551, 260.8059
648.9372, 258.4043
649.4193, 257.1433
649.9014, 257.7285
650.3835, 261.4575
650.8657, 267.4111
651.3478, 270.8635
651.8299, 271.2639
652.3120, 268.8120
652.7941, 258.8352
653.2762, 247.6948
653.7584, 243.8345
654.2405, 248.6570
654.7226, 259.4800
655.2047, 276.3884
655.6868, 292.9897
656.1689, 285.6731
656.6511, 249.5767
657.1332, 233.4539
657.6153, 257.7351
658.0974, 287.8752
658.5795, 291.3740
659.0616, 273.7139
659.5438, 258.7642
660.0259, 249.2812
660.5080, 240.5483
660.9901, 233.4409
661.4722, 227.7678
661.9543, 221.3188
662.4365, 213.6660
662.9186, 205.4512
663.4007, 195.1226
663.8828, 188.7834
664.3649, 204.7534
664.8470, 243.9590
665.3292, 263.5557
665.8113, 251.5513
666.2934, 231.4241
666.7755, 220.5847
667.2576, 216.8706
667.7397, 208.7783
668.2219, 186.9927
668.7040, 175.3943
669.1861, 188.9014
669.6682, 206.0259
670.1503, 208.2991
670.6324, 198.7063
671.1146, 191.1409
671.5967, 193.0356
672.0788, 196.7205
672.5609, 188.8877
673.0430, 171.1892
673.5251, 157.2656
674.0073, 147.9536
674.4894, 145.0413
674.9715, 152.3464
675.4536, 164.8250
675.9357, 168.9075
676.4178, 159.4663
676.9000, 153.0854
677.3821, 151.5515
677.8642, 151.1040
678.3463, 152.5398
678.8284, 153.4729
679.3105, 150.0276
679.7927, 140.7759
680.2748, 128.5291
680.7569, 113.5854
681.2390, 98.52417
681.7211, 88.39624
682.2032, 83.64478
682.6854, 88.70166
683.1675, 108.1458
683.6496, 129.2688
684.1317, 131.0686
684.6138, 108.4280
685.0959, 93.75049
685.5781, 95.50830
686.0602, 94.97998
686.5423, 85.05322
687.0244, 72.13770
687.5065, 63.27612
687.9886, 59.11743
688.4708, 55.29932
688.9529, 49.77905
689.4350, 43.09766
689.9171, 34.91309
690.3992, 25.96606
690.8813, 18.26172
691.3635, 12.38843
691.8456, 8.847168
692.3277, 7.850586
692.8098, 9.618896
693.2919, 17.00391
693.7740, 34.36548
694.2562, 47.46948
694.7383, 54.04443
695.2204, 55.31689
695.7025, 48.50171
696.1846, 36.48853
696.6667, 30.08838
697.1489, 35.42969
697.6310, 41.71191
698.1131, 44.84546
698.5952, 44.74878
699.0773, 39.70386
699.5594, 30.88574
700.0416, 23.45581
700.5237, 20.66406
701.0058, 19.66235
701.4879, 11.21851
701.9700, 5.827637
702.4521, 2.873535
702.9343, 33.43555
703.4164, 61.64209
703.8985, 49.93384
704.3806, 16.17700
704.8627, 4.764160
705.3448, 25.29712
705.8270, 38.96509
706.3091, 34.15430
706.7912, 27.29370
707.2733, 30.21167
707.7554, 37.37231
708.2375, 37.97119
708.7197, 28.83569
709.2018, 16.86328
709.6839, 4.593506
710.1660, 4.450684
710.6481, 2.040283
711.1302, 22.93457
711.6124, 40.50488
712.0945, 48.89648
712.5766, 49.56592
713.0587, 43.12964
713.5408, 29.14404
714.0229, 18.42529
714.5051, 8.289795
714.9872, 5.656982
715.4693, 17.50732
715.9514, 32.32690
716.4335, 41.19824
716.9156, 44.29590
717.3978, 46.70654
717.8799, 53.72705
718.3620, 56.03540
718.8441, 41.29810
719.3262, 18.64819
719.8083, 4.1260000E-02
720.2905, 10.96558
720.7726, 5.504150
721.2547, 25.21484
721.7368, 64.38452
722.2189, 65.00830
722.7010, 17.87207
723.1832, 1.197510
723.6653, 28.15625
724.1474, 56.69385
724.6295, 51.32593
725.1116, 29.22632
725.5938, 27.28345
726.0759, 54.79053
726.5580, 71.96460
727.0401, 66.18311
727.5222, 53.70044
728.0043, 40.86499
728.4865, 29.17676
728.9686, 19.40137
729.4507, 11.94629
729.9328, 7.564697
730.4149, 7.223145
730.8970, 10.38550
731.3792, 17.25439
731.8613, 27.51367
732.3434, 36.62012
732.8255, 44.04175
733.3076, 44.89697
733.7897, 31.13184
734.2719, 5.123047
734.7540, 1.321777
735.2361, 32.23022
735.7182, 50.91748
736.2003, 32.15063
736.6824, 12.55981
737.1646, 18.84912
737.6467, 42.43530
738.1288, 57.52466
738.6109, 55.70752
739.0930, 48.36377
739.5751, 36.52124
740.0573, 26.52246
740.5394, 27.36133
741.0215, 36.56128
741.5036, 44.84229
741.9857, 47.69092
742.4678, 45.77808
742.9500, 37.58301
743.4321, 24.12451
743.9142, 19.05566
744.3963, 23.55347
744.8784, 31.66016
745.3605, 43.13599
745.8427, 53.51538
746.3248, 56.27856
746.8069, 50.17969
747.2890, 49.59668
747.7711, 64.93555
748.2532, 71.72705
748.7354, 58.25146
749.2175, 38.96558
749.6996, 23.52417
750.1817, 14.39795
750.6638, 15.19873
751.1459, 33.89404
751.6281, 51.56689
752.1102, 45.93213
752.5923, 28.17651
753.0744, 18.96729
753.5565, 20.40674
754.0386, 25.82397
754.5208, 31.46240
755.0029, 38.30273
755.4850, 50.56714
755.9671, 70.14600
756.4492, 74.41797
756.9313, 54.90601
757.4135, 40.42261
757.8956, 47.36792
758.3777, 63.06543
758.8598, 68.55029
759.3419, 63.33667
759.8240, 54.66479
760.3062, 37.18506
760.7883, 25.20020
761.2704, 28.02100
761.7525, 35.35889
762.2346, 34.77808
762.7167, 26.86133
763.1989, 23.24951
763.6810, 33.52563
764.1631, 44.38477
764.6452, 35.57715
765.1273, 16.46899
765.6094, 13.70337
766.0916, 28.90918
766.5737, 38.41797
767.0558, 26.73828
767.5379, 4.982422
768.0200, 2.007080
768.5021, 8.931641
768.9843, 18.82837
769.4664, 26.77637
769.9485, 34.77417
770.4306, 47.79028
770.9127, 58.39453
771.3948, 52.88184
771.8770, 29.55078
772.3591, 14.44629
772.8412, 16.83350
773.3233, 20.86987
773.8054, 17.57324
774.2875, 14.60278
774.7697, 24.33691
775.2518, 43.95288
775.7339, 56.80981
776.2160, 52.79810
776.6981, 40.86938
777.1802, 26.20239
777.6624, 12.13745
778.1445, 8.486816
778.6266, 15.78540
779.1087, 23.17896
779.5908, 24.36816
780.0729, 21.02856
780.5551, 15.91431
781.0372, 8.902100
781.5193, 1.341309
782.0014, 9.747803
782.4835, 14.03003
782.9656, 4.296387
783.4478, 11.08203
783.9299, 22.44873
784.4120, 29.74414
784.8941, 33.51392
785.3762, 26.80518
785.8583, 25.51318
786.3405, 41.28027
786.8226, 58.33960
787.3047, 64.94507
787.7868, 60.38696
788.2689, 45.82788
788.7510, 17.13525
789.2332, 6.086182
789.7153, 2.646484
790.1974, 14.40698
790.6795, 27.82153
791.1616, 35.01367
791.6437, 31.40991
792.1259, 14.85718
792.6080, 0.4785160
793.0901, 8.412842
793.5722, 37.61182
794.0543, 47.90405
794.5364, 35.84399
795.0186, 27.18359
795.5007, 31.74048
795.9828, 36.54736
796.4649, 26.98560
796.9470, 5.012939
797.4291, 7.636719
797.9113, 3.557861
798.3934, 0.4863280
798.8755, 2.851318
799.3576, 2.706299
799.8397, 9.804932
800.3218, 26.54810
800.8040, 30.99780
801.2861, 17.76001
801.7682, 3.743652
802.2503, 4.897461
802.7324, 8.434570
803.2145, 2.974609
803.6967, 6.113037
804.1788, 6.870850
804.6609, 2.301025
805.1430, 8.997314
805.6251, 1.170898
806.1072, 13.88232
806.5894, 20.49048
807.0715, 19.57910
807.5536, 18.67627
808.0357, 18.67554
808.5178, 16.82544
808.9999, 9.865723
809.4821, 2.564697
809.9642, 8.828369
810.4463, 35.96875
810.9284, 49.43970
811.4105, 43.73022
811.8926, 33.44482
812.3748, 20.54614
812.8569, 8.253174
813.3390, 0.3969730
813.8211, 3.010986
814.3032, 4.609131
814.7853, 5.136963
815.2675, 3.474365
815.7496, 1.041504
816.2317, 5.329346
816.7138, 25.65796
817.1959, 52.37915
817.6780, 61.82031
818.1602, 40.51636
818.6423, 16.58228
819.1244, 15.51489
819.6065, 26.23608
820.0886, 32.60474
820.5707, 34.69019
821.0529, 39.04541
821.5350, 47.71753
822.0171, 51.60425
822.4992, 37.41748
822.9813, 11.65869
823.4634, 4.412109
823.9456, 16.71851
824.4277, 26.24829
824.9098, 27.82422
825.3919, 27.41382
825.8740, 28.32715
826.3561, 31.93262
826.8383, 43.58032
827.3204, 76.26099
827.8025, 86.63330
828.2846, 54.06299
828.7667, 24.34155
829.2488, 15.09937
829.7310, 16.69141
830.2131, 20.52832
830.6952, 25.88501
831.1773, 24.88550
831.6594, 7.648438
832.1415, 6.600830
832.6237, 8.866943
833.1058, 4.537354
833.5879, 2.734619
834.0700, 11.15918
834.5521, 17.49292
835.0342, 19.53833
835.5164, 23.06982
835.9985, 40.96875
836.4806, 59.91675
836.9627, 51.48975
837.4448, 23.04712
837.9269, 6.129150
838.4091, 11.14746
838.8912, 24.85522
839.3733, 35.41895
839.8554, 41.37354
840.3375, 36.12036
840.8196, 20.12573
841.3018, 11.67456
841.7839, 14.96533
842.2660, 20.56152
842.7481, 21.79639
843.2302, 21.27100
843.7123, 26.32349
844.1945, 40.43726
844.6766, 48.65015
845.1587, 49.90332
845.6408, 46.83032
846.1229, 33.07690
846.6050, 20.32812
847.0872, 23.82544
847.5693, 42.16724
848.0514, 51.03589
848.5335, 36.60376
849.0156, 26.37476
849.4977, 31.27222
849.9799, 39.94360
850.4620, 38.95703
850.9441, 65.15698
851.4262, 73.45850
851.9083, 78.26367
852.3904, 79.01587
852.8726, 51.75171
853.3547, 74.27686
853.8368, 85.17310
854.3189, 51.49146
854.8010, 57.37134
855.2831, 53.76685
855.7653, 44.29541
856.2474, 29.29517
856.7295, 14.94165
857.2116, 15.23267
857.6937, 26.55591
858.1758, 32.14331
858.6580, 30.41211
859.1401, 25.33423
859.6222, 17.85571
860.1043, 14.25000
860.5864, 26.18530
861.0685, 52.98438
861.5507, 63.85132
862.0328, 54.05908
862.5149, 46.71924
862.9970, 49.69531
863.4791, 50.32056
863.9612, 34.31689
864.4434, 8.740723
864.9255, 2.296143
865.4076, 5.943848
865.8897, 17.41992
866.3718, 39.90088
866.8539, 56.25879
867.3361, 58.54541
867.8182, 52.96729
868.3003, 43.94092
868.7824, 32.55225
869.2645, 26.07812
869.7466, 25.32422
870.2288, 31.19336
870.7109, 53.43359
871.1930, 74.58569
871.6751, 77.32642
872.1572, 66.23804
872.6393, 53.29248
873.1215, 42.29932
873.6036, 35.56519
874.0857, 38.32275
874.5678, 43.11255
875.0499, 40.25977
875.5320, 33.21802
876.0142, 28.65723
876.4963, 28.31396
876.9784, 33.22144
877.4605, 45.54248
877.9426, 57.46704
878.4247, 51.75562
878.9069, 34.87280
879.3890, 35.80225
879.8711, 54.14233
880.3532, 57.25415
880.8353, 30.77222
881.3174, 4.070313
881.7996, 15.24268
882.2817, 56.08521
882.7638, 73.59009
883.2459, 64.71802
883.7280, 53.39673
884.2101, 41.09839
884.6923, 35.37695
885.1744, 44.07812
885.6565, 59.23853
886.1386, 62.92432
886.6207, 51.94482
887.1028, 43.67627
887.5850, 36.57373
888.0671, 34.84717
888.5492, 44.67529
889.0313, 55.87085
889.5134, 61.50732
889.9955, 60.96948
890.4777, 52.85913
890.9598, 29.16870
891.4419, 13.24902
891.9240, 12.05200
892.4061, 14.70923
892.8882, 15.88306
893.3704, 17.16284
893.8525, 21.93042
894.3346, 30.26099
894.8167, 37.24097
895.2988, 43.41846
895.7809, 44.67163
896.2631, 31.59985
896.7452, 18.00562
897.2273, 20.88989
897.7094, 35.63965
898.1915, 48.47974
898.6736, 54.53052
899.1558, 53.73340
899.6379, 39.74268
900.1200, 23.84888
900.6021, 19.37524
901.0842, 24.06958
901.5663, 36.38208
902.0485, 53.23071
902.5306, 63.09937
903.0127, 58.30151
903.4948, 46.16724
903.9769, 33.65308
904.4590, 23.09131
904.9412, 25.13916
905.4233, 38.11572
905.9054, 48.07275
906.3875, 50.41016
906.8696, 44.36743
907.3517, 27.73853
907.8339, 4.576416
908.3160, 15.49536
908.7981, 32.59399
909.2802, 25.32080
909.7623, 13.07617
910.2444, 40.30444
910.7266, 33.35767
911.2087, 12.77417
911.6908, 8.706543
912.1729, 20.85229
912.6550, 23.01953
913.1371, 9.679932
913.6193, 4.803467
914.1014, 17.82007
914.5835, 29.81494
915.0656, 27.08765
915.5477, 15.55249
916.0298, 8.680664
916.5120, 7.843994
916.9941, 7.979980
917.4762, 9.112061
917.9583, 10.97827
918.4404, 13.69482
918.9225, 16.98804
919.4047, 23.14746
919.8868, 29.90186
920.3689, 28.43262
920.8510, 12.77490
921.3331, 0.7202150
921.8152, 9.372070
922.2974, 10.52490
922.7795, 6.071533
923.2616, 29.77295
923.7437, 50.81738
924.2258, 66.92017
924.7079, 72.54688
925.1901, 59.16675
925.6722, 46.49512
926.1543, 43.52490
926.6364, 43.50415
927.1185, 41.34326
927.6006, 38.15112
928.0828, 35.81494
928.5649, 35.04346
929.0470, 37.80127
929.5291, 50.92896
930.0112, 61.32788
930.4933, 56.69849
930.9755, 45.40845
931.4576, 35.31445
931.9397, 28.48657
932.4218, 27.60132
932.9039, 33.45923
933.3860, 39.78174
933.8682, 42.17651
934.3503, 41.17969
934.8324, 33.51831
935.3145, 24.34839
935.7966, 26.70898
936.2787, 39.68750
936.7609, 50.22900
937.2430, 51.38745
937.7251, 47.86572
938.2072, 44.06616
938.6893, 40.37720
939.1714, 37.80420
939.6536, 36.15649
940.1357, 35.03076
940.6178, 34.14478
941.0999, 30.99097
941.5820, 22.79761
942.0641, 16.66260
942.5463, 32.44043
943.0284, 62.76904
943.5105, 64.88281
943.9926, 39.40039
944.4747, 16.78296
944.9568, 6.272461
945.4390, 6.784912
945.9211, 19.38232
946.4032, 37.57471
946.8853, 40.54297
947.3674, 28.41357
947.8495, 29.31885
948.3317, 45.74536
948.8138, 54.18701
949.2959, 43.83691
949.7780, 34.81909
950.2601, 52.31592
950.7422, 88.78857
951.2244, 102.4607
951.7065, 89.65015
952.1886, 77.50977
952.6707, 68.33350
953.1528, 60.92749
953.6349, 54.83228
954.1171, 50.21069
954.5992, 47.84204
955.0813, 47.47241
955.5634, 41.88550
956.0455, 26.12085
956.5276, 22.04492
957.0098, 40.75513
957.4919, 52.96021
957.9740, 37.14209
958.4561, 11.87598
958.9382, 9.037842
959.4203, 30.83691
959.9025, 42.98828
960.3846, 38.89331
960.8667, 38.86182
961.3488, 53.59570
961.8309, 61.98657
962.3130, 42.35425
962.7952, 12.09741
963.2773, 9.999023
963.7594, 44.20996
964.2415, 62.90356
964.7236, 54.76636
965.2057, 47.55786
965.6879, 49.42676
966.1700, 49.45898
966.6521, 38.32886
967.1342, 22.49780
967.6163, 14.41357
968.0984, 13.43018
968.5806, 16.66431
969.0627, 31.02246
969.5448, 40.10791
970.0269, 36.78442
970.5090, 29.47339
970.9911, 23.14404
971.4733, 18.15283
971.9554, 15.43042
972.4375, 16.75635
972.9196, 14.23535
973.4017, 0.3127440
973.8839, 9.409424
974.3660, 6.819580
974.8481, 9.3262002E-02
975.3302, 4.777100
975.8123, 7.664307
976.2944, 11.62378
976.7766, 17.74805
977.2587, 22.79248
977.7408, 25.31372
978.2229, 27.46948
978.7050, 31.44019
979.1871, 34.44922
979.6693, 32.60303
980.1514, 27.35986
980.6335, 23.71558
981.1156, 22.67603
981.5977, 20.40796
982.0798, 12.43042
982.5620, 6.868896
983.0441, 9.734375
983.5262, 15.79443
984.0083, 20.88037
984.4904, 23.73022
984.9725, 21.35547
985.4547, 9.259521
985.9368, 3.028076
986.4189, 14.32471
986.9010, 26.20703
987.3831, 29.28711
987.8652, 27.08276
988.3474, 20.74805
988.8295, 13.25684
989.3116, 15.22534
989.7937, 36.40576
990.2758, 47.74414
990.7579, 24.06396
991.2401, 1.182861
991.7222, 4.286133
992.2043, 20.36572
992.6864, 35.75806
993.1685, 46.80591
993.6506, 48.03125
994.1328, 33.57495
994.6149, 21.00366
995.0970, 21.30664
995.5791, 22.70752
996.0612, 11.89307
996.5433, 0.8662110
997.0255, 10.52808
997.5076, 36.36792
997.9897, 49.33081
998.4718, 35.17993
998.9539, 20.33228
999.4360, 17.50342
999.9182, 17.59302
1000.400, 12.25000
1000.882, 7.395508
1001.365, 14.31445
1001.847, 30.08276
1002.329, 37.89429
1002.811, 29.48755
1003.293, 20.41113
1003.775, 20.64038
1004.257, 19.77344
1004.739, 4.376465
1005.221, 12.04224
1005.704, 8.583008
1006.186, 10.96118
1006.668, 21.53149
1007.150, 10.83325
1007.632, 3.857178
1008.114, 18.48535
1008.596, 33.39819
1009.078, 29.57764
1009.560, 21.58862
1010.043, 31.05200
1010.525, 54.20874
1011.007, 69.23145
1011.489, 69.23877
1011.971, 61.60327
1012.453, 35.39697
1012.935, 18.56079
1013.417, 41.97559
1013.900, 73.95801
1014.382, 74.32275
1014.864, 49.68164
1015.346, 36.30591
1015.828, 47.48071
1016.310, 55.60767
1016.792, 45.77222
1017.274, 35.28027
1017.756, 38.17261
1018.239, 41.75073
1018.721, 26.76807
1019.203, 1.155762
1019.685, 7.402588
1020.167, 11.22778
1020.649, 27.61035
1021.131, 32.83032
1021.613, 32.91821
1022.096, 29.90454
1022.578, 23.73242
1023.060, 10.91138
1023.542, 4.562500
1024.024, 14.08716
1024.506, 16.59229
1024.988, 9.620605
1025.470, 18.95166
1025.952, 42.06299
1026.435, 49.98828
1026.917, 48.09521
1027.399, 34.02002
1027.881, 15.55811
1028.363, 10.12622
1028.845, 22.06909
1029.327, 30.52124
1029.809, 29.05249
1030.292, 27.33716
1030.774, 25.04541
1031.256, 26.21191
1031.738, 38.09619
1032.220, 53.45874
1032.702, 57.80249
1033.184, 48.99194
1033.666, 40.61206
1034.148, 33.40942
1034.631, 27.66870
1035.113, 23.09082
1035.595, 20.36328
1036.077, 18.90771
1036.559, 20.04492
1037.041, 28.21826
1037.523, 43.88574
1038.005, 50.34741
1038.488, 39.97998
1038.970, 32.48535
1039.452, 30.94092
1039.934, 29.72998
1040.416, 21.84351
1040.898, 17.13354
1041.380, 32.30151
1041.862, 64.20264
1042.344, 77.33203
1042.827, 62.77832
1043.309, 48.37402
1043.791, 31.70361
1044.273, 21.76953
1044.755, 25.03735
1045.237, 31.81812
1045.719, 32.23315
1046.201, 27.76123
1046.683, 25.29639
1047.166, 25.47144
1047.648, 26.00146
1048.130, 28.84937
1048.612, 24.94092
1049.094, 7.301025
1049.576, 6.989258
1050.058, 2.411865
1050.540, 14.79175
1051.022, 27.46875
1051.505, 34.67065
1051.987, 49.76221
1052.469, 76.54150
1052.951, 83.27246
1053.433, 58.50757
1053.915, 34.32812
1054.397, 32.24390
1054.879, 43.40918
1055.362, 53.71338
1055.844, 62.45508
1056.326, 58.32739
1056.808, 41.38647
1057.290, 36.12695
1057.772, 46.88770
1058.254, 56.75244
1058.736, 56.73120
1059.219, 49.54858
1059.701, 35.93799
1060.183, 20.52612
1060.665, 24.08936
1061.147, 41.05029
1061.629, 36.69653
1062.111, 10.83765
1062.593, 4.033936
1063.075, 3.736816
1063.558, 17.84937
1064.040, 23.31079
1064.522, 22.12500
1065.004, 14.11475
1065.486, 4.546631
1065.968, 9.142578
1066.450, 24.44751
1066.932, 34.92236
1067.415, 36.81982
1067.897, 36.93799
1068.379, 39.58301
1068.861, 43.71338
1069.343, 51.26123
1069.825, 56.89478
1070.307, 51.23145
1070.789, 38.80908
1071.271, 26.35840
1071.754, 16.71680
1072.236, 15.88745
1072.718, 28.53442
1073.200, 36.50537
1073.682, 17.16772
1074.164, 2.097412
1074.646, 7.104004
1075.128, 25.52466
1075.610, 26.87061
1076.093, 16.09033
1076.575, 13.50024
1077.057, 24.62500
1077.539, 38.05176
1078.021, 58.43359
1078.503, 68.81445
1078.985, 51.70190
1079.467, 31.69946
1079.949, 27.25879
1080.432, 33.07056
1080.914, 40.44678
1081.396, 47.73315
1081.878, 49.27026
1082.360, 41.12476
1082.842, 33.14453
1083.324, 28.06396
1083.806, 21.48730
1084.289, 5.939453
1084.771, 7.487305
1085.253, 5.366943
1085.735, 9.530518
1086.217, 24.71167
1086.699, 44.23193
1087.181, 52.48901
1087.663, 42.26111
1088.146, 35.24414
1088.628, 36.68311
1089.110, 44.31970
1089.592, 61.04578
1090.074, 77.16565
1090.556, 67.57874
1091.038, 30.41089
1091.520, 27.04907
1092.002, 65.84375
1092.485, 82.79395
1092.967, 64.60071
1093.449, 45.65027
1093.931, 44.08191
1094.413, 46.16089
1094.895, 32.21838
1095.377, 9.951660
1095.859, 11.92786
1096.342, 33.96008
1096.824, 41.90417
1097.306, 34.63049
1097.788, 30.63123
1098.270, 35.75745
1098.752, 41.26904
1099.234, 39.81714
1099.716, 37.53198
1100.198, 46.66846
1100.681, 60.23315
1101.163, 64.78528
1101.645, 61.06750
1102.127, 49.65356
1102.609, 33.67358
1103.091, 23.10144
1103.573, 22.88318
1104.055, 25.25171
1104.537, 25.28772
1105.020, 23.43140
1105.502, 15.18933
1105.984, 9.071045
1106.466, 19.12598
1106.948, 38.59790
1107.430, 53.17749
1107.912, 59.82080
1108.394, 55.83447
1108.876, 29.81616
1109.359, 9.435791
1109.841, 3.327759
1110.323, 6.723022
1110.805, 25.66919
1111.287, 46.93250
1111.769, 52.98645
1112.251, 45.85974
1112.733, 41.84985
1113.216, 43.26941
1113.698, 46.16943
1114.180, 58.85962
1114.662, 59.11096
1115.144, 27.25647
1115.626, 3.839600
1116.108, 23.39478
1116.590, 58.40222
1117.073, 58.37561
1117.555, 23.35205
1118.037, 9.969360
1118.519, 22.71802
1119.001, 31.26367
1119.483, 31.38489
1119.965, 32.70142
1120.447, 39.38257
1120.929, 46.24146
1121.412, 47.51514
1121.894, 44.80981
1122.376, 41.25403
1122.858, 37.46069
1123.340, 36.05505
1123.822, 37.13208
1124.304, 43.51868
1124.786, 54.07373
1125.269, 54.22534
1125.751, 34.78796
1126.233, 15.73950
1126.715, 27.43555
1127.197, 46.41284
1127.679, 34.35059
1128.161, 10.67749
1128.643, 5.536011
1129.125, 17.65991
1129.608, 38.81531
1130.090, 64.10718
1130.572, 73.10364
1131.054, 45.24365
1131.536, 17.36597
1132.018, 5.288208
1132.500, 3.165649
1132.982, 12.30774
1133.464, 25.01770
1133.947, 33.81567
1134.429, 38.16174
1134.911, 39.40503
1135.393, 37.98096
1135.875, 32.49194
1136.357, 11.41211
1136.839, 4.076050
1137.321, 27.05139
1137.803, 47.49341
1138.286, 43.34424
1138.768, 30.21106
1139.250, 31.57666
1139.732, 45.62036
1140.214, 56.90808
1140.696, 67.05798
1141.178, 58.44885
1141.660, 27.20508
1142.143, 7.427612
1142.625, 10.33325
1143.107, 18.60388
1143.589, 18.68530
1144.071, 15.29297
1144.553, 18.19226
1145.035, 24.17175
1145.517, 20.80066
1146.000, 12.36047
1146.482, 14.91064
1146.964, 26.87878
1147.446, 31.10608
1147.928, 21.83252
1148.410, 14.34717
1148.892, 23.93872
1149.374, 33.03979
1149.856, 18.98474
1150.339, 3.562134
1150.821, 13.54883
1151.303, 33.90344
1151.785, 39.53040
1152.267, 31.19189
1152.749, 27.26953
1153.231, 32.99243
1153.713, 39.94324
1154.196, 54.67236
1154.678, 58.45776
1155.160, 31.94641
1155.642, 8.232666
1156.124, 12.40735
1156.606, 27.44287
1157.088, 28.33142
1157.570, 16.47571
1158.052, 8.123657
1158.535, 2.920044
1159.017, 4.184692
1159.499, 13.79382
1159.981, 19.69861
1160.463, 17.98877
1160.945, 14.05530
1161.427, 11.85938
1161.909, 11.02112
1162.391, 11.33142
1162.874, 12.17908
1163.356, 10.31934
1163.838, 7.376099
1164.320, 11.20032
1164.802, 19.50720
1165.284, 19.44531
1165.766, 7.791016
1166.248, 4.705933
1166.730, 12.29553
1167.213, 14.93176
1167.695, 9.210938
1168.177, 1.831055
1168.659, 0.3682860
1169.141, 1.274170
1169.623, 8.476074
1170.105, 18.73987
1170.587, 20.96301
1171.070, 12.04443
1171.552, 3.659058
1172.034, 2.057007
1172.516, 7.500244
1172.998, 18.10864
1173.480, 19.23926
1173.962, 2.774414
1174.444, 26.73511
1174.927, 29.70471
1175.409, 17.96790
1175.891, 13.71521
1176.373, 17.63855
1176.855, 17.68091
1177.337, 13.68225
1177.819, 16.07129
1178.301, 26.46692
1178.783, 38.17407
1179.266, 47.64136
1179.748, 50.96411
1180.230, 42.03357
1180.712, 29.20422
1181.194, 27.87085
1181.676, 31.19775
1182.158, 25.40308
1182.640, 15.42578
1183.123, 12.82227
1183.605, 18.57019
1184.087, 30.62183
1184.569, 48.92163
1185.051, 61.59363
1185.533, 62.65698
1186.015, 57.68079
1186.497, 38.77966
1186.979, 25.67908
1187.462, 39.27393
1187.944, 61.26880
1188.426, 62.82458
1188.908, 48.36682
1189.390, 43.58374
1189.872, 53.23291
1190.354, 56.01416
1190.836, 50.94653
1191.318, 46.90015
1191.801, 45.36340
1192.283, 46.41907
1192.765, 49.59741
1193.247, 56.12793
1193.729, 71.98181
1194.211, 88.78784
1194.693, 82.24207
1195.175, 64.70483
1195.657, 69.49963
1196.140, 88.98474
1196.622, 97.24573
1197.104, 89.46191
1197.586, 71.79370
1198.068, 44.60474
1198.550, 23.83228
1199.032, 29.22363
1199.514, 42.62561
1199.997, 55.36121
1200.479, 63.91235
1200.961, 56.80676
1201.443, 45.37329
1201.925, 52.70154
1202.407, 83.88916
1202.889, 92.79382
1203.371, 67.39954
1203.854, 55.59094
1204.336, 63.14990
1204.818, 66.49390
1205.300, 59.73914
1205.782, 49.93689
1206.264, 40.57458
1206.746, 35.66675
1207.228, 43.65100
1207.710, 57.57678
1208.193, 58.58459
1208.675, 49.67603
1209.157, 40.94409
1209.639, 32.54883
1210.121, 21.53259
1210.603, 9.911133
1211.085, 7.249390
1211.567, 17.87292
1212.050, 27.43176
1212.532, 25.73706
1213.014, 21.84229
1213.496, 18.41028
1213.978, 16.81665
1214.460, 17.36523
1214.942, 20.73193
1215.424, 30.43628
1215.906, 41.73584
1216.389, 38.12036
1216.871, 15.14978
1217.353, 2.258667
1217.835, 1.173218
1218.317, 11.68579
1218.799, 45.97205
1219.281, 65.61279
1219.763, 54.80176
1220.245, 36.82007
1220.728, 31.70007
1221.210, 35.93066
1221.692, 43.85608
1222.174, 49.83655
1222.656, 37.96753
1223.138, 19.09509
1223.620, 14.84277
1224.102, 21.37500
1224.584, 32.99829
1225.067, 43.94373
1225.549, 45.01355
1226.031, 25.72095
1226.513, 9.242432
1226.995, 3.480347
1227.477, 2.098755
1227.959, 0.3946530
1228.441, 1.829956
1228.924, 16.31128
1229.406, 20.25134
1229.888, 0.0000000E+00
##END=



