##NAMES=Choloalite
##RRUFFID=R070140
##IDEAL CHEMISTRY=(Pb^2+^,Ca)_3_(Cu^2+^,Sb^5+^)_3_Te^4+^_6_O_18_Cl
##LOCALITY=McAlpine Mine, Moccasin, Tuolumne County, California, USA
##OWNER=RRUFF
##SOURCE=Michael Scott
##DESCRIPTION=Pistachio green thin coating on quartz
##STATUS=The identification of this mineral is not yet confirmed.
##URL=rruff.info/R070140
141.0765, 0.0000000E+00
141.5586, 1.574995
142.0408, 0.1106910
142.5229, 1.297176
143.0050, 4.633381
143.4871, 7.476017
143.9692, 9.567932
144.4513, 11.31529
144.9335, 12.57208
145.4156, 13.60063
145.8977, 14.71116
146.3798, 16.02674
146.8619, 17.28728
147.3440, 17.83241
147.8261, 17.91703
148.3083, 16.77185
148.7904, 13.14252
149.2725, 8.768349
149.7546, 5.338844
150.2367, 3.693268
150.7188, 3.471352
151.2010, 3.659363
151.6831, 5.045803
152.1652, 5.911827
152.6473, 5.626114
153.1294, 4.861294
153.6115, 4.419399
154.0937, 4.650791
154.5758, 5.512630
155.0579, 6.941467
155.5400, 11.53479
156.0221, 13.58976
156.5042, 9.475285
156.9864, 2.677536
157.4685, 0.8613280
157.9506, 1.908524
158.4327, 8.568615
158.9148, 11.46306
159.3969, 7.925861
159.8791, 5.066883
160.3612, 5.678692
160.8433, 8.110256
161.3254, 8.830177
161.8075, 5.790665
162.2896, 0.9566920
162.7718, 0.2994650
163.2539, 6.473427
163.7360, 11.52472
164.2181, 10.85123
164.7002, 6.970875
165.1823, 6.578022
165.6645, 13.68234
166.1466, 24.18832
166.6287, 27.87932
167.1108, 22.17204
167.5929, 16.28049
168.0750, 14.25155
168.5572, 15.09752
169.0393, 15.99165
169.5214, 15.98909
170.0035, 15.21807
170.4856, 13.69720
170.9677, 10.54432
171.4499, 8.796650
171.9320, 11.15700
172.4141, 16.45979
172.8962, 20.62939
173.3783, 22.10721
173.8604, 21.67617
174.3426, 20.82701
174.8247, 19.54932
175.3068, 17.96496
175.7889, 15.62286
176.2710, 12.85255
176.7531, 11.24285
177.2353, 11.88670
177.7174, 13.33242
178.1995, 13.51997
178.6816, 12.27393
179.1637, 10.74229
179.6458, 9.468830
180.1280, 8.273697
180.6101, 7.642902
181.0922, 7.596268
181.5743, 8.343632
182.0564, 10.14157
182.5385, 13.09961
183.0207, 16.02320
183.5028, 18.30196
183.9849, 19.94512
184.4670, 20.83968
184.9491, 20.40926
185.4312, 19.80576
185.9134, 20.62002
186.3955, 22.88302
186.8776, 24.21234
187.3597, 22.38983
187.8418, 17.90381
188.3239, 13.88114
188.8061, 10.25666
189.2882, 8.138844
189.7703, 8.653828
190.2524, 11.62392
190.7345, 14.85336
191.2166, 16.81370
191.6988, 17.69811
192.1809, 19.06265
192.6630, 22.85328
193.1451, 24.93826
193.6272, 20.61111
194.1093, 10.93747
194.5915, 3.290974
195.0736, 3.844620
195.5557, 11.13140
196.0378, 15.48852
196.5199, 14.49111
197.0020, 12.58602
197.4842, 13.14795
197.9663, 15.50472
198.4484, 16.99472
198.9305, 14.80800
199.4126, 9.997532
199.8947, 7.926384
200.3769, 9.975609
200.8590, 13.31619
201.3411, 17.31312
201.8232, 21.28451
202.3053, 23.50172
202.7874, 21.94325
203.2696, 17.64482
203.7517, 15.03276
204.2338, 14.62528
204.7159, 15.20070
205.1980, 17.14087
205.6801, 19.44472
206.1623, 20.21123
206.6444, 17.48547
207.1265, 12.59781
207.6086, 9.443996
208.0907, 8.621311
208.5728, 8.509567
209.0549, 8.535225
209.5371, 8.693256
210.0192, 9.112175
210.5013, 10.22077
210.9834, 11.28074
211.4655, 10.00304
211.9476, 4.632942
212.4298, 1.018791
212.9119, 2.884064
213.3940, 7.024105
213.8761, 9.692120
214.3582, 9.056278
214.8403, 7.123848
215.3225, 8.411476
215.8046, 15.14053
216.2867, 18.44176
216.7688, 10.40874
217.2509, 6.9695003E-02
217.7330, 3.437550
218.2152, 3.455044
218.6973, 13.86938
219.1794, 17.52373
219.6615, 12.55226
220.1436, 8.338493
220.6257, 8.638756
221.1079, 10.10117
221.5900, 9.744061
222.0721, 6.959419
222.5542, 4.313316
223.0363, 5.773617
223.5184, 12.30883
224.0006, 16.26086
224.4827, 13.27870
224.9648, 8.928688
225.4469, 6.533081
225.9290, 6.463364
226.4111, 7.056465
226.8933, 6.393398
227.3754, 4.397743
227.8575, 4.002426
228.3396, 6.796997
228.8217, 10.25908
229.3038, 13.55941
229.7860, 16.39942
230.2681, 17.75546
230.7502, 15.68830
231.2323, 10.66029
231.7144, 8.142494
232.1965, 10.40585
232.6787, 12.85649
233.1608, 12.67519
233.6429, 10.45796
234.1250, 8.140656
234.6071, 7.048409
235.0892, 6.850525
235.5714, 5.895107
236.0535, 3.308456
236.5356, 1.525612
237.0177, 2.081821
237.4998, 4.199829
237.9819, 6.609726
238.4641, 9.387589
238.9462, 11.72486
239.4283, 11.13553
239.9104, 6.040386
240.3925, 2.333580
240.8746, 4.803833
241.3568, 9.745384
241.8389, 12.49981
242.3210, 10.94420
242.8031, 7.498528
243.2852, 5.772057
243.7673, 6.212059
244.2495, 5.871895
244.7316, 1.333900
245.2137, 3.491802
245.6958, 3.891453
246.1779, 2.236420
246.6600, 8.782806
247.1422, 8.535873
247.6243, 1.469612
248.1064, 3.305973
248.5885, 1.815422
249.0706, 2.181618
249.5527, 4.871338
250.0349, 5.968102
250.5170, 6.680771
250.9991, 8.279961
251.4812, 10.26382
251.9633, 11.17239
252.4454, 10.89008
252.9276, 9.528145
253.4097, 6.366837
253.8918, 1.636383
254.3739, 1.228279
254.8560, 0.5554430
255.3382, 5.316452
255.8203, 9.535355
256.3024, 13.24323
256.7845, 15.18702
257.2666, 12.34982
257.7487, 6.380234
258.2308, 3.003563
258.7130, 5.544914
259.1951, 9.984749
259.6772, 11.28047
260.1593, 8.901001
260.6414, 7.071159
261.1235, 10.36543
261.6057, 16.30863
262.0878, 17.83673
262.5699, 9.449982
263.0520, 0.2315750
263.5341, 1.804050
264.0162, 2.674629
264.4984, 7.503036
264.9805, 9.830620
265.4626, 10.21901
265.9447, 10.54449
266.4268, 11.25116
266.9089, 11.17722
267.3911, 8.490211
267.8732, 4.462822
268.3553, 2.984619
268.8374, 6.116653
269.3195, 11.12743
269.8016, 12.34087
270.2838, 8.660576
270.7659, 6.316795
271.2480, 8.427582
271.7301, 12.29260
272.2122, 13.78124
272.6943, 11.81528
273.1765, 9.185005
273.6586, 9.632675
274.1407, 14.13873
274.6228, 16.39219
275.1049, 14.27904
275.5870, 10.93785
276.0692, 9.486259
276.5513, 9.894196
277.0334, 9.808075
277.5155, 6.768974
277.9976, 0.6503680
278.4797, 1.619770
278.9619, 4.143913
279.4440, 9.157501
279.9261, 8.247353
280.4082, 3.172150
280.8903, 1.141140
281.3724, 1.839241
281.8546, 0.5355680
282.3367, 3.377861
282.8188, 9.227592
283.3009, 12.41292
283.7830, 9.888474
284.2651, 4.900337
284.7473, 1.443039
285.2294, 1.077362
285.7115, 2.847237
286.1936, 5.036369
286.6757, 9.387238
287.1578, 11.13334
287.6400, 7.860435
288.1221, 3.815269
288.6042, 1.888458
289.0863, 2.656212
289.5684, 5.326263
290.0505, 9.473900
290.5327, 16.12730
291.0148, 19.36666
291.4969, 16.45819
291.9790, 13.00591
292.4611, 11.42948
292.9432, 11.30550
293.4254, 10.81450
293.9075, 8.410835
294.3896, 4.433960
294.8717, 2.353889
295.3538, 3.901962
295.8359, 5.238243
296.3181, 5.222839
296.8002, 4.559967
297.2823, 4.216408
297.7644, 4.652542
298.2465, 5.467552
298.7286, 5.604767
299.2108, 4.341667
299.6929, 4.356384
300.1750, 7.962296
300.6571, 11.85413
301.1392, 13.28645
301.6213, 11.82610
302.1035, 9.714172
302.5856, 9.182693
303.0677, 10.14463
303.5498, 11.93761
304.0319, 16.82842
304.5140, 20.01291
304.9962, 17.31268
305.4783, 10.03481
305.9604, 3.875053
306.4425, 3.040031
306.9246, 5.616539
307.4067, 5.304680
307.8889, 0.6572720
308.3710, 3.280972
308.8531, 2.304310
309.3352, 1.361816
309.8173, 4.329292
310.2994, 5.547630
310.7816, 5.929138
311.2637, 6.032120
311.7458, 5.896683
312.2279, 6.812531
312.7100, 10.59626
313.1921, 14.81599
313.6743, 15.41529
314.1564, 11.72321
314.6385, 7.016113
315.1206, 0.7576140
315.6027, 5.226955
316.0848, 6.229164
316.5670, 0.3919070
317.0491, 8.242004
317.5312, 13.91643
318.0133, 16.85830
318.4954, 18.70322
318.9775, 19.80891
319.4597, 20.01664
319.9418, 17.64875
320.4239, 13.27924
320.9060, 9.875465
321.3881, 10.14485
321.8702, 13.97561
322.3524, 14.87565
322.8345, 9.198421
323.3166, 5.014477
323.7987, 7.154072
324.2808, 12.57281
324.7629, 14.99277
325.2451, 11.30721
325.7272, 4.530365
326.2093, 2.023743
326.6914, 9.209686
327.1735, 13.58421
327.6556, 13.35371
328.1378, 11.44936
328.6199, 9.809578
329.1020, 9.010063
329.5841, 9.136566
330.0662, 10.70184
330.5483, 14.48400
331.0305, 15.48323
331.5126, 9.991337
331.9947, 5.339054
332.4768, 5.119640
332.9589, 7.817188
333.4410, 9.703712
333.9232, 8.161991
334.4053, 4.311775
334.8874, 2.507298
335.3695, 3.815269
335.8516, 5.224762
336.3337, 5.915253
336.8159, 6.369133
337.2980, 6.953545
337.7801, 7.838837
338.2622, 8.248665
338.7443, 6.700916
339.2264, 3.104107
339.7086, 0.7342030
340.1907, 0.3205030
340.6728, 1.011269
341.1549, 2.546135
341.6370, 4.733475
342.1191, 6.285568
342.6013, 5.910034
343.0834, 4.558178
343.5655, 4.291897
344.0476, 5.343674
344.5297, 6.866306
345.0118, 8.942272
345.4940, 11.00283
345.9761, 11.51924
346.4582, 8.897026
346.9403, 6.256027
347.4224, 6.370773
347.9045, 8.436745
348.3867, 9.224327
348.8688, 6.962761
349.3509, 3.719467
349.8330, 4.191528
350.3151, 10.30609
350.7972, 13.82130
351.2794, 11.23267
351.7615, 6.496952
352.2436, 3.422585
352.7257, 2.654488
353.2078, 2.984127
353.6899, 3.176807
354.1721, 3.082008
354.6542, 4.745304
355.1363, 11.42136
355.6184, 16.12500
356.1005, 14.25985
356.5826, 8.772560
357.0648, 5.580345
357.5469, 7.877644
358.0290, 13.21167
358.5111, 14.33175
358.9932, 6.793499
359.4753, 2.709686
359.9575, 5.055283
360.4396, 9.283749
360.9217, 12.99840
361.4038, 15.34081
361.8859, 15.41228
362.3680, 10.75230
362.8502, 1.031536
363.3322, 3.801544
363.8144, 0.2335510
364.2965, 4.145821
364.7786, 6.333828
365.2607, 7.018715
365.7428, 7.557346
366.2249, 8.361946
366.7071, 9.385223
367.1892, 10.60063
367.6713, 12.01686
368.1534, 11.83177
368.6355, 8.116905
369.1176, 3.337078
369.5998, 0.1606410
370.0819, 1.331524
370.5640, 1.008591
371.0461, 2.235844
371.5282, 7.193565
372.0103, 12.03418
372.4925, 16.82839
372.9746, 18.91168
373.4567, 13.64982
373.9388, 1.704304
374.4209, 4.302502
374.9030, 1.560734
375.3852, 7.977905
375.8673, 6.537365
376.3494, 0.1426430
376.8315, 3.661087
377.3136, 0.5503960
377.7957, 9.342903
378.2779, 14.43851
378.7600, 12.07183
379.2421, 10.93446
379.7242, 13.01619
380.2063, 15.16101
380.6884, 14.33982
381.1706, 10.41991
381.6527, 5.693974
382.1348, 2.327782
382.6169, 0.3414310
383.0990, 0.6220400
383.5811, 0.2968790
384.0633, 1.389095
384.5454, 2.483349
385.0275, 3.403954
385.5096, 3.930336
385.9917, 3.950729
386.4738, 3.605476
386.9560, 2.849018
387.4381, 1.407112
387.9202, 1.089520
388.4023, 3.079273
388.8844, 5.717171
389.3665, 8.042175
389.8487, 10.05961
390.3308, 11.52306
390.8129, 12.52766
391.2950, 12.90656
391.7771, 11.55296
392.2592, 7.999332
392.7414, 5.287426
393.2235, 6.011181
393.7056, 9.065811
394.1877, 10.79068
394.6698, 9.815399
395.1519, 9.134743
395.6341, 11.10342
396.1162, 14.41240
396.5983, 16.09191
397.0804, 15.11403
397.5625, 13.09728
398.0446, 12.31098
398.5268, 13.08774
399.0089, 14.48183
399.4910, 17.90223
399.9731, 20.65917
400.4552, 20.85641
400.9373, 18.92910
401.4195, 16.31567
401.9016, 13.82944
402.3837, 11.65348
402.8658, 10.60018
403.3479, 11.84475
403.8300, 12.39117
404.3122, 11.05663
404.7943, 9.551033
405.2764, 9.281738
405.7585, 10.23172
406.2406, 11.74190
406.7227, 13.32732
407.2049, 14.94633
407.6870, 15.38723
408.1691, 13.83270
408.6512, 12.35829
409.1333, 13.01654
409.6154, 14.39375
410.0976, 13.68185
410.5797, 8.807903
411.0618, 3.337505
411.5439, 1.022709
412.0260, 1.536247
412.5081, 2.851868
412.9903, 4.724300
413.4724, 6.464512
413.9545, 6.640228
414.4366, 5.056786
414.9187, 4.337898
415.4008, 5.866039
415.8830, 7.833637
416.3651, 8.667171
416.8472, 8.354820
417.3293, 7.486012
417.8114, 6.274925
418.2935, 4.995270
418.7757, 5.227680
419.2578, 10.69684
419.7399, 12.99623
420.2220, 8.019623
420.7041, 1.365982
421.1862, 1.539585
421.6684, 0.7681690
422.1505, 4.817837
422.6326, 6.850300
423.1147, 6.711220
423.5968, 6.920174
424.0789, 8.145058
424.5611, 8.854698
425.0432, 8.226730
425.5253, 6.819057
426.0074, 5.454025
426.4895, 4.384182
426.9716, 3.612297
427.4538, 3.134022
427.9359, 2.895199
428.4180, 2.813225
428.9001, 2.807716
429.3822, 3.111736
429.8643, 4.453693
430.3465, 6.727749
430.8286, 8.255772
431.3107, 8.021355
431.7928, 7.472569
432.2749, 7.860985
432.7570, 9.698948
433.2392, 10.44449
433.7213, 8.516762
434.2034, 5.109886
434.6855, 4.012085
435.1676, 8.559227
435.6497, 11.54959
436.1319, 11.66564
436.6140, 10.70832
437.0961, 10.07296
437.5782, 9.967953
438.0603, 9.886726
438.5424, 9.283504
439.0246, 8.229561
439.5067, 7.974415
439.9888, 9.033424
440.4709, 10.15601
440.9530, 11.88742
441.4352, 13.13817
441.9173, 11.86244
442.3994, 7.626366
442.8815, 3.929192
443.3636, 5.340572
443.8457, 11.21764
444.3279, 15.59993
444.8100, 18.12732
445.2921, 18.25029
445.7742, 13.58643
446.2563, 5.899174
446.7384, 0.4659460
447.2206, 1.633316
447.7027, 1.309517
448.1848, 2.439480
448.6669, 8.185699
449.1490, 11.94569
449.6311, 12.18633
450.1133, 10.93362
450.5954, 11.50590
451.0775, 15.45728
451.5596, 16.83145
452.0417, 13.35072
452.5238, 9.620193
453.0060, 7.838177
453.4881, 7.854340
453.9702, 9.077816
454.4523, 11.35920
454.9344, 13.74385
455.4165, 13.32642
455.8987, 8.582932
456.3808, 5.271461
456.8629, 5.549889
457.3450, 6.658131
457.8271, 7.166969
458.3092, 7.000767
458.7914, 6.625488
459.2735, 5.967720
459.7556, 5.401264
460.2377, 6.266750
460.7198, 8.754120
461.2019, 9.400154
461.6841, 5.170658
462.1662, 0.9250950
462.6483, 2.241550
463.1304, 3.026943
463.6125, 7.560719
464.0946, 9.355255
464.5768, 9.373962
465.0589, 7.998642
465.5410, 5.602791
466.0231, 3.520885
466.5052, 2.788475
466.9873, 3.335354
467.4695, 4.502117
467.9516, 7.268425
468.4337, 9.433464
468.9158, 10.63827
469.3979, 11.20296
469.8800, 11.58722
470.3622, 11.80330
470.8443, 11.26999
471.3264, 8.751602
471.8085, 4.586288
472.2906, 2.095745
472.7727, 1.285789
473.2549, 2.162899
473.7370, 7.134701
474.2191, 13.06089
474.7012, 15.27328
475.1833, 11.91810
475.6654, 7.799847
476.1476, 5.052280
476.6297, 3.869629
477.1118, 5.377827
477.5939, 9.872196
478.0760, 14.34177
478.5581, 16.01248
479.0403, 14.75213
479.5224, 13.58683
480.0045, 11.75513
480.4866, 10.70693
480.9687, 11.70614
481.4508, 13.36463
481.9330, 13.76110
482.4151, 12.40842
482.8972, 10.49054
483.3793, 9.216545
483.8614, 8.527832
484.3435, 9.418446
484.8257, 13.82227
485.3078, 17.13860
485.7899, 17.24921
486.2720, 15.31142
486.7541, 13.09757
487.2362, 11.16355
487.7183, 8.813313
488.2004, 3.843231
488.6826, 2.317242
489.1647, 3.845783
489.6468, 0.9718400
490.1289, 8.049564
490.6110, 14.48573
491.0931, 20.10631
491.5753, 22.90125
492.0574, 20.58885
492.5395, 17.56062
493.0216, 15.14778
493.5037, 13.33493
493.9858, 12.19215
494.4680, 11.66466
494.9501, 11.23027
495.4322, 9.935059
495.9143, 7.407917
496.3964, 6.927406
496.8785, 11.21086
497.3607, 14.24543
497.8428, 14.15392
498.3249, 11.75719
498.8070, 7.490833
499.2891, 0.9624820
499.7712, 4.424221
500.2534, 4.038712
500.7355, 0.9006840
501.2176, 4.159328
501.6997, 4.417385
502.1818, 4.059017
502.6639, 5.295254
503.1461, 7.798298
503.6282, 8.937641
504.1103, 7.158268
504.5924, 5.659206
505.0745, 5.887070
505.5566, 7.170929
506.0388, 8.934669
506.5209, 10.73245
507.0030, 11.26634
507.4851, 8.553669
507.9672, 2.174072
508.4493, 1.484932
508.9315, 0.7879750
509.4136, 0.7450220
509.8957, 2.536419
510.3778, 4.498730
510.8599, 6.468018
511.3420, 8.228218
511.8242, 10.21395
512.3063, 13.47231
512.7884, 17.31412
513.2705, 18.88415
513.7526, 17.66747
514.2347, 15.20041
514.7169, 11.73462
515.1990, 7.890682
515.6811, 6.063457
516.1632, 8.196083
516.6453, 9.467308
517.1274, 6.806499
517.6096, 3.330902
518.0917, 2.885624
518.5738, 5.887138
519.0559, 10.18011
519.5380, 14.14723
520.0201, 17.55319
520.5023, 18.57651
520.9844, 15.15087
521.4665, 13.24405
521.9486, 16.35117
522.4307, 19.86584
522.9128, 18.87293
523.3950, 13.07944
523.8771, 7.900013
524.3592, 8.058273
524.8413, 11.18756
525.3234, 11.94081
525.8055, 10.05589
526.2877, 8.422169
526.7698, 8.493862
527.2519, 9.697437
527.7340, 10.85002
528.2161, 12.46013
528.6982, 12.91720
529.1804, 10.36647
529.6625, 7.583782
530.1446, 6.703186
530.6267, 7.638477
531.1088, 9.645569
531.5909, 12.56894
532.0731, 15.42360
532.5552, 14.70410
533.0373, 8.116669
533.5194, 5.184528
534.0015, 12.00468
534.4836, 18.49765
534.9658, 16.93129
535.4479, 9.522869
535.9300, 5.206284
536.4121, 10.39724
536.8942, 17.51292
537.3763, 17.22834
537.8585, 11.69859
538.3406, 9.675026
538.8227, 14.33550
539.3048, 20.42154
539.7869, 21.18508
540.2690, 15.43527
540.7512, 11.54630
541.2333, 10.25994
541.7154, 9.780251
542.1975, 10.41286
542.6796, 11.07915
543.1617, 9.810936
543.6439, 6.142334
544.1260, 2.656250
544.6081, 3.167862
545.0902, 7.455223
545.5723, 9.516884
546.0544, 8.010658
546.5366, 6.766960
547.0187, 10.02817
547.5008, 14.67399
547.9829, 14.21840
548.4650, 5.641365
548.9471, 1.081436
549.4293, 0.7857890
549.9114, 5.982437
550.3935, 6.619247
550.8756, 2.731026
551.3577, 1.972870
551.8398, 10.71854
552.3220, 25.06346
552.8041, 28.47957
553.2862, 11.35725
553.7683, 0.2810290
554.2504, 2.332123
554.7325, 0.8950810
555.2147, 1.221573
555.6968, 3.368179
556.1789, 5.016335
556.6610, 5.602913
557.1431, 5.820297
557.6252, 6.878136
558.1074, 8.979050
558.5895, 9.867081
559.0716, 7.861328
559.5537, 6.000221
560.0358, 8.506989
560.5179, 16.07005
561.0001, 20.29759
561.4822, 19.12479
561.9643, 16.77186
562.4464, 14.52740
562.9285, 12.59528
563.4106, 10.56445
563.8928, 8.196999
564.3749, 6.736107
564.8570, 8.549171
565.3391, 13.48476
565.8212, 15.88158
566.3033, 15.18934
566.7855, 12.90649
567.2676, 6.920570
567.7497, 0.8306880
568.2318, 0.2360380
568.7139, 5.161201
569.1960, 10.09288
569.6782, 10.65814
570.1603, 9.409119
570.6424, 9.490532
571.1245, 10.88460
571.6066, 11.98452
572.0887, 11.82801
572.5709, 11.13658
573.0530, 11.86147
573.5351, 16.05811
574.0172, 17.33081
574.4993, 13.30497
574.9814, 8.923233
575.4636, 5.973076
575.9457, 4.451729
576.4278, 4.272987
576.9099, 5.786636
577.3920, 7.399910
577.8741, 6.788994
578.3563, 4.509201
578.8384, 2.823067
579.3205, 1.917992
579.8026, 3.116035
580.2847, 8.752022
580.7668, 17.72162
581.2490, 20.89137
581.7311, 12.41031
582.2132, 6.799194
582.6953, 8.891052
583.1774, 13.05588
583.6595, 14.87802
584.1417, 13.78398
584.6238, 10.88055
585.1059, 6.408302
585.5880, 1.459076
586.0701, 0.9029540
586.5522, 0.3535080
587.0344, 8.4251001E-02
587.5165, 0.7182850
587.9986, 1.369667
588.4807, 2.4132000E-02
588.9628, 2.980835
589.4449, 5.245583
589.9271, 5.744934
590.4092, 6.085342
590.8913, 7.193718
591.3734, 8.696869
591.8555, 10.16322
592.3376, 11.40356
592.8198, 12.03069
593.3019, 11.67743
593.7840, 10.33456
594.2661, 7.718933
594.7482, 2.460938
595.2303, 1.287605
595.7125, 1.612869
596.1946, 0.2798160
596.6767, 1.812454
597.1588, 4.518059
597.6409, 6.483223
598.1230, 7.004295
598.6052, 6.589111
599.0873, 4.995720
599.5694, 2.824669
600.0515, 2.343727
600.5336, 4.506683
601.0157, 7.298668
601.4979, 7.689049
601.9800, 5.115906
602.4621, 3.360832
602.9442, 1.661751
603.4263, 1.798134
603.9084, 6.507462
604.3906, 12.15907
604.8727, 14.09499
605.3548, 11.37080
605.8369, 7.872437
606.3190, 5.387054
606.8011, 4.197418
607.2833, 6.679924
607.7654, 12.37930
608.2475, 15.22623
608.7296, 11.80746
609.2117, 5.487701
609.6938, 2.776756
610.1760, 5.312569
610.6581, 6.801384
611.1402, 5.944099
611.6223, 5.428391
612.1044, 7.072952
612.5865, 9.778038
613.0687, 11.68405
613.5508, 12.12257
614.0329, 11.06730
614.5150, 7.312836
614.9971, 2.045151
615.4792, 0.5801390
615.9614, 0.2119290
616.4435, 1.600464
616.9256, 4.751823
617.4077, 8.098267
617.8898, 8.824379
618.3719, 5.643440
618.8541, 2.870270
619.3362, 0.6865620
619.8183, 1.086357
620.3004, 3.826454
620.7825, 5.946457
621.2646, 3.433533
621.7468, 5.488510
622.2289, 14.62029
622.7110, 15.40252
623.1931, 9.056931
623.6752, 3.455612
624.1573, 1.134750
624.6395, 3.607445
625.1216, 2.441666
625.6037, 0.7793350
626.0858, 1.750412
626.5679, 0.9988020
627.0500, 1.436188
627.5322, 3.002159
628.0143, 8.482971
628.4964, 14.25591
628.9785, 18.72334
629.4606, 18.02086
629.9427, 10.27132
630.4249, 1.074944
630.9070, 0.9574360
631.3891, 3.664703
631.8712, 7.456047
632.3533, 10.26799
632.8354, 11.00206
633.3176, 7.996750
633.7997, 2.897789
634.2818, 0.5033720
634.7639, 2.297394
635.2460, 2.264679
635.7281, 1.273720
636.2103, 5.225739
636.6924, 7.346306
637.1745, 8.004715
637.6566, 8.587410
638.1387, 9.714722
638.6208, 10.85699
639.1030, 11.13554
639.5851, 10.58254
640.0672, 10.20023
640.5493, 10.11313
641.0314, 9.902542
641.5135, 8.500366
641.9957, 7.244949
642.4778, 9.752846
642.9599, 18.78123
643.4420, 22.87603
643.9241, 15.02693
644.4063, 5.551910
644.8884, 1.152939
645.3705, 1.101700
645.8526, 3.038895
646.3347, 6.072144
646.8168, 9.264030
647.2990, 11.44091
647.7811, 12.60252
648.2632, 12.72475
648.7453, 11.76807
649.2274, 9.792831
649.7095, 5.851807
650.1917, 1.480415
650.6738, 0.3858570
651.1559, 0.6154630
651.6380, 2.349152
652.1201, 5.463470
652.6022, 8.265976
653.0844, 9.666969
653.5665, 9.904099
654.0486, 9.334358
654.5307, 8.056770
655.0128, 6.302666
655.4949, 3.824867
655.9771, 0.9375460
656.4592, 0.5807650
656.9413, 3.363914
657.4234, 5.841003
657.9055, 6.587219
658.3876, 6.159149
658.8698, 4.983414
659.3519, 2.637291
659.8340, 2.171051
660.3161, 6.627159
660.7982, 10.08338
661.2803, 8.008522
661.7625, 3.698189
662.2446, 2.126495
662.7267, 4.560059
663.2088, 8.609367
663.6909, 13.19037
664.1730, 17.38396
664.6552, 16.71136
665.1373, 10.65047
665.6194, 7.721001
666.1015, 12.34229
666.5836, 18.56215
667.0657, 18.22062
667.5479, 10.13798
668.0300, 5.707497
668.5121, 7.623016
668.9942, 9.845566
669.4763, 10.34399
669.9584, 10.28989
670.4406, 11.32439
670.9227, 13.45737
671.4048, 14.96452
671.8868, 13.73151
672.3690, 11.93507
672.8511, 14.90489
673.3332, 21.90303
673.8153, 25.96264
674.2974, 25.13786
674.7795, 21.58595
675.2617, 16.54053
675.7438, 10.27287
676.2259, 8.035500
676.7080, 14.29430
677.1901, 18.59013
677.6722, 18.88590
678.1544, 17.40861
678.6365, 15.00052
679.1186, 12.69847
679.6007, 12.17698
680.0828, 14.50025
680.5649, 17.80967
681.0471, 21.26814
681.5292, 23.97536
682.0113, 21.91612
682.4934, 14.56267
682.9755, 9.491165
683.4576, 12.91236
683.9398, 21.24132
684.4219, 21.93944
684.9040, 8.617188
685.3861, 1.111092
685.8682, 4.429184
686.3503, 9.230087
686.8325, 12.38094
687.3146, 13.83458
687.7967, 13.22845
688.2788, 9.626923
688.7609, 7.694427
689.2430, 12.87814
689.7252, 19.97357
690.2073, 21.52342
690.6894, 18.15710
691.1715, 14.80151
691.6536, 13.74864
692.1357, 14.51312
692.6179, 16.76170
693.1000, 21.00211
693.5821, 23.05518
694.0642, 21.94225
694.5463, 20.26802
695.0284, 18.46999
695.5106, 17.02576
695.9927, 16.66547
696.4748, 17.48782
696.9569, 18.19181
697.4390, 18.80636
697.9211, 18.81145
698.4033, 16.90432
698.8854, 14.51067
699.3675, 14.09587
699.8496, 16.14464
700.3317, 19.01027
700.8138, 21.35174
701.2960, 23.17144
701.7781, 24.55515
702.2602, 25.55443
702.7423, 25.45738
703.2244, 23.70390
703.7065, 21.62435
704.1887, 20.79488
704.6708, 21.05496
705.1529, 19.69070
705.6350, 13.70750
706.1171, 10.23135
706.5992, 12.71085
707.0814, 16.41535
707.5635, 17.62907
708.0456, 16.53364
708.5277, 15.05577
709.0098, 14.08066
709.4919, 13.30662
709.9741, 11.94083
710.4562, 10.42118
710.9383, 9.894279
711.4204, 10.49129
711.9025, 12.14128
712.3846, 15.08672
712.8668, 18.39938
713.3489, 19.84402
713.8310, 19.01720
714.3131, 17.46882
714.7952, 14.25799
715.2773, 11.41579
715.7595, 9.228638
716.2416, 8.024727
716.7237, 8.274261
717.2058, 10.11855
717.6879, 13.18918
718.1700, 19.02411
718.6522, 23.94727
719.1343, 23.15100
719.6164, 18.81943
720.0985, 16.10551
720.5806, 16.46359
721.0627, 17.48388
721.5449, 16.27937
722.0270, 13.74836
722.5091, 15.34644
722.9912, 22.22870
723.4733, 27.04065
723.9554, 27.90849
724.4376, 26.30272
724.9197, 22.47470
725.4018, 16.88566
725.8839, 13.76150
726.3660, 15.37899
726.8481, 16.44736
727.3303, 15.57275
727.8124, 14.18066
728.2945, 13.14664
728.7766, 12.63885
729.2587, 11.86288
729.7408, 10.08582
730.2230, 9.909348
730.7051, 16.84681
731.1872, 27.17194
731.6693, 30.31238
732.1514, 25.76450
732.6335, 19.75072
733.1157, 15.00642
733.5978, 12.26850
734.0799, 13.46147
734.5620, 20.05350
735.0441, 22.92501
735.5262, 19.63527
736.0084, 16.01673
736.4905, 13.46848
736.9726, 11.71107
737.4547, 10.35249
737.9368, 9.407059
738.4189, 9.569153
738.9011, 12.73387
739.3832, 15.29350
739.8653, 13.52020
740.3474, 10.38419
740.8295, 10.75010
741.3116, 14.94300
741.7938, 19.43250
742.2759, 22.65053
742.7580, 23.98840
743.2401, 20.84782
743.7222, 13.53619
744.2043, 9.569336
744.6865, 10.52553
745.1686, 12.60579
745.6507, 13.49441
746.1328, 13.54247
746.6149, 13.68870
747.0970, 13.20673
747.5792, 14.39008
748.0613, 21.18394
748.5434, 25.20168
749.0255, 20.18301
749.5076, 11.53490
749.9897, 7.088760
750.4719, 8.385262
750.9540, 10.19713
751.4361, 10.16483
751.9182, 8.904053
752.4003, 4.751640
752.8824, 0.3893740
753.3646, 0.3266450
753.8467, 5.929581
754.3288, 11.70341
754.8109, 10.45293
755.2930, 4.320419
755.7751, 1.916824
756.2573, 3.770561
756.7394, 4.687485
757.2215, 3.322517
757.7036, 2.250824
758.1857, 3.503571
758.6678, 6.442299
759.1500, 8.621002
759.6321, 9.977112
760.1142, 10.77407
760.5963, 9.888443
761.0784, 9.616478
761.5605, 12.69273
762.0427, 16.74056
762.5248, 17.65110
763.0069, 14.33138
763.4890, 9.793419
763.9711, 4.365730
764.4532, 0.1425250
764.9354, 1.768547
765.4175, 7.063225
765.8996, 8.062698
766.3817, 2.780045
766.8638, 1.965797
767.3459, 1.280098
767.8281, 10.14165
768.3102, 12.32693
768.7923, 6.065552
769.2744, 2.080009
769.7565, 2.918373
770.2386, 5.166473
770.7208, 6.426018
771.2029, 7.110779
771.6850, 8.871269
772.1671, 12.98493
772.6492, 15.55187
773.1313, 17.04872
773.6135, 15.94380
774.0956, 7.990425
774.5777, 1.881821
775.0598, 5.198166
775.5419, 1.3824000E-02
776.0240, 6.797440
776.5062, 10.40536
776.9883, 11.98199
777.4704, 13.74838
777.9525, 15.06914
778.4346, 13.14173
778.9167, 7.582359
779.3989, 3.090271
779.8810, 4.366859
780.3631, 9.459526
780.8452, 10.74485
781.3273, 7.367439
781.8094, 6.625557
782.2916, 11.14635
782.7737, 14.77514
783.2558, 13.00376
783.7379, 7.599594
784.2200, 3.046951
784.7021, 2.129845
785.1843, 2.833015
785.6664, 6.136681
786.1485, 14.04759
786.6306, 16.31185
787.1127, 14.68329
787.5948, 10.44125
788.0770, 4.319901
788.5591, 0.4543690
789.0412, 3.259438
789.5233, 7.374016
790.0054, 7.719177
790.4875, 5.628357
790.9697, 3.163292
791.4518, 0.9728550
791.9339, 0.3727110
792.4160, 0.5469280
792.8981, 0.6858900
793.3802, 4.792557
793.8624, 11.62237
794.3445, 15.25926
794.8266, 14.76597
795.3087, 13.21188
795.7908, 12.00484
796.2729, 10.87760
796.7551, 9.403755
797.2372, 7.627548
797.7193, 5.288857
798.2014, 1.289375
798.6835, 3.715134
799.1656, 3.669853
799.6478, 13.09610
800.1299, 18.36124
800.6120, 19.17693
801.0941, 17.17233
801.5762, 9.458977
802.0583, 4.093864
802.5405, 8.367455
803.0226, 15.05783
803.5047, 15.57018
803.9868, 11.08893
804.4689, 7.893288
804.9510, 8.815689
805.4332, 11.00204
805.9153, 10.61157
806.3974, 8.909393
806.8795, 10.97151
807.3616, 16.29740
807.8438, 17.08890
808.3259, 10.32250
808.8080, 1.872650
809.2901, 2.136841
809.7722, 1.908905
810.2543, 1.357956
810.7365, 9.905693
811.2186, 15.04223
811.7007, 14.78091
812.1828, 11.78563
812.6649, 5.540031
813.1470, 1.747551
813.6292, 4.496216
814.1113, 1.273682
814.5934, 2.968910
815.0755, 9.935310
815.5576, 15.09911
816.0397, 14.85472
816.5219, 12.10080
817.0040, 10.78717
817.4861, 11.50648
817.9682, 12.19643
818.4503, 11.41119
818.9324, 10.17625
819.4146, 8.810394
819.8967, 8.009438
820.3788, 10.26052
820.8609, 14.89993
821.3430, 16.75072
821.8251, 12.39539
822.3073, 6.147774
822.7894, 5.876152
823.2715, 10.94572
823.7536, 14.45906
824.2357, 15.79845
824.7178, 15.02550
825.2000, 11.69965
825.6821, 8.720154
826.1642, 10.43973
826.6463, 16.83383
827.1284, 19.13852
827.6105, 14.32584
828.0927, 11.14809
828.5748, 12.40038
829.0569, 14.25906
829.5390, 14.62637
830.0211, 13.69745
830.5032, 11.67519
830.9854, 7.461021
831.4675, 5.244308
831.9496, 9.638100
832.4317, 12.52340
832.9138, 6.273087
833.3959, 3.143730
833.8781, 7.695648
834.3602, 5.905060
834.8423, 1.676170
835.3244, 3.670410
835.8065, 9.126884
836.2886, 15.30297
836.7708, 20.94155
837.2529, 23.24638
837.7350, 22.12205
838.2171, 18.94457
838.6992, 14.33466
839.1813, 9.900444
839.6635, 8.818481
840.1456, 10.55029
840.6277, 10.68198
841.1098, 8.968681
841.5919, 7.453117
842.0740, 6.640678
842.5562, 7.070129
843.0383, 9.765945
843.5204, 14.76810
844.0025, 19.68779
844.4846, 25.26205
844.9667, 29.08772
845.4489, 30.72945
845.9310, 30.76050
846.4131, 29.07034
846.8952, 26.13130
847.3773, 22.45684
847.8594, 17.29189
848.3416, 14.28787
848.8237, 16.33078
849.3058, 17.87222
849.7879, 15.32349
850.2700, 11.68743
850.7521, 10.64817
851.2343, 12.15826
851.7164, 13.52111
852.1985, 13.41559
852.6806, 13.04075
853.1627, 13.19472
853.6448, 13.63646
854.1270, 14.18414
854.6091, 14.78847
855.0912, 15.15561
855.5733, 15.29533
856.0554, 15.20424
856.5375, 15.52882
857.0197, 15.94452
857.5018, 13.25945
857.9839, 8.259727
858.4660, 6.021523
858.9481, 7.729881
859.4302, 9.921700
859.9124, 9.753784
860.3945, 8.517143
860.8766, 10.42251
861.3587, 16.14119
861.8408, 18.70422
862.3229, 17.10564
862.8051, 14.39454
863.2872, 11.36661
863.7693, 8.592461
864.2514, 6.788963
864.7335, 5.946449
865.2156, 6.098167
865.6978, 8.279198
866.1799, 9.877457
866.6620, 9.695961
867.1441, 9.493530
867.6262, 12.05372
868.1083, 15.63647
868.5905, 15.03169
869.0726, 7.666336
869.5547, 3.437759
870.0368, 8.632973
870.5189, 13.62599
871.0010, 11.70476
871.4832, 6.994041
871.9653, 4.834381
872.4474, 5.919441
872.9295, 8.882645
873.4116, 15.18518
873.8937, 19.25844
874.3759, 13.97617
874.8580, 5.392311
875.3401, 1.454521
875.8222, 1.938850
876.3043, 4.096313
876.7864, 6.751091
877.2686, 8.739540
877.7507, 7.804054
878.2328, 5.936035
878.7149, 9.693451
879.1970, 17.03782
879.6791, 17.07788
880.1613, 8.011215
880.6434, 0.8295520
881.1255, 3.171028
881.6076, 0.6442410
882.0897, 4.521309
882.5718, 12.44225
883.0540, 17.05833
883.5361, 17.92300
884.0182, 17.04594
884.5003, 14.67496
884.9824, 11.99178
885.4645, 10.37357
885.9467, 9.659599
886.4288, 8.204880
886.9109, 4.888298
887.3930, 3.476608
887.8751, 6.046028
888.3572, 8.124573
888.8394, 6.252655
889.3215, 2.975250
889.8036, 2.906113
890.2857, 6.667999
890.7678, 9.085945
891.2499, 9.813843
891.7321, 8.392632
892.2142, 1.742432
892.6963, 3.489311
893.1784, 0.4021760
893.6605, 7.402176
894.1426, 10.98438
894.6248, 6.829842
895.1069, 2.955353
895.5890, 3.186050
896.0711, 4.404350
896.5532, 3.424393
897.0353, 2.462242
897.5175, 6.857048
897.9996, 15.73969
898.4817, 19.92542
898.9638, 11.91685
899.4459, 2.280235
899.9280, 1.443573
900.4102, 4.794891
900.8923, 5.537209
901.3744, 4.145004
901.8565, 4.577553
902.3386, 8.106949
902.8207, 11.74399
903.3029, 12.18729
903.7850, 11.07535
904.2671, 12.32094
904.7492, 15.00731
905.2313, 15.27658
905.7134, 12.71844
906.1956, 9.866714
906.6777, 8.161209
907.1598, 7.329475
907.6419, 7.553436
908.1240, 8.759575
908.6061, 8.342377
909.0883, 6.127792
909.5704, 6.824692
910.0525, 12.49824
910.5346, 16.21320
911.0167, 11.09927
911.4988, 0.9887310
911.9810, 0.5370860
912.4631, 9.443443
912.9452, 13.95326
913.4273, 10.61495
913.9094, 6.872040
914.3915, 4.919159
914.8737, 4.865204
915.3558, 7.715813
915.8379, 13.15263
916.3200, 14.74702
916.8021, 8.463707
917.2842, 5.788635
917.7664, 11.54419
918.2484, 16.29392
918.7305, 13.71452
919.2126, 8.127457
919.6948, 6.129524
920.1769, 8.276886
920.6590, 9.503647
921.1411, 7.698769
921.6232, 7.297585
922.1053, 11.60529
922.5875, 15.29339
923.0696, 12.35037
923.5517, 6.314552
924.0338, 6.472832
924.5159, 16.19325
924.9980, 22.19719
925.4802, 16.99453
925.9623, 10.49871
926.4444, 7.589661
926.9265, 6.755722
927.4086, 6.253922
927.8907, 5.958344
928.3729, 6.580940
928.8550, 8.882591
929.3371, 10.31570
929.8192, 7.987534
930.3013, 5.238594
930.7834, 5.475502
931.2656, 7.505951
931.7477, 9.196274
932.2298, 10.05186
932.7119, 10.26948
933.1940, 9.617752
933.6761, 9.166641
934.1583, 10.58270
934.6404, 12.51904
935.1225, 13.08623
935.6046, 12.25554
936.0867, 9.947113
936.5688, 6.413055
937.0510, 3.739815
937.5331, 4.023819
938.0152, 5.875801
938.4973, 6.773895
938.9794, 7.199158
939.4615, 9.061035
939.9437, 12.22975
940.4258, 15.14194
940.9079, 17.15277
941.3900, 17.85604
941.8721, 16.40021
942.3542, 13.49733
942.8364, 11.29715
943.3185, 9.736427
943.8006, 8.130493
944.2827, 6.432686
944.7648, 6.446915
945.2469, 9.403793
945.7291, 13.08031
946.2112, 13.49848
946.6933, 11.15886
947.1754, 10.94518
947.6575, 12.96821
948.1396, 14.36684
948.6218, 14.67717
949.1039, 12.22650
949.5860, 4.981712
950.0681, 3.576065
950.5502, 5.318947
951.0323, 0.8570020
951.5145, 5.101685
951.9966, 7.085869
952.4787, 8.377289
952.9608, 9.438492
953.4429, 9.672249
953.9250, 8.139664
954.4072, 5.794739
954.8893, 6.132462
955.3714, 10.43547
955.8535, 12.11574
956.3356, 9.615456
956.8177, 8.724174
957.2999, 12.61308
957.7820, 16.74216
958.2641, 16.46774
958.7462, 12.56249
959.2283, 9.173523
959.7104, 5.590073
960.1926, 4.391144
960.6747, 7.287560
961.1568, 9.781166
961.6389, 10.56245
962.1210, 9.735138
962.6031, 6.726349
963.0853, 1.850647
963.5674, 1.206680
964.0495, 3.030769
964.5316, 1.963402
965.0137, 6.112595
965.4958, 12.15381
965.9780, 10.28422
966.4601, 5.633873
966.9422, 4.982880
967.4243, 8.243889
967.9064, 9.154846
968.3885, 5.363121
968.8707, 2.460182
969.3528, 0.7733920
969.8349, 0.2624130
970.3170, 1.541229
970.7991, 3.800903
971.2813, 6.767059
971.7634, 10.42845
972.2455, 11.06905
972.7276, 2.983261
973.2097, 0.6132200
973.6918, 8.701111
974.1740, 17.21489
974.6561, 14.38149
975.1382, 6.115410
975.6203, 2.100327
976.1024, 3.454391
976.5845, 6.153603
977.0667, 13.16782
977.5488, 16.21420
978.0309, 9.146004
978.5130, 0.9508210
978.9951, 2.177826
979.4772, 1.714157
979.9594, 0.6917720
980.4415, 0.7421950
980.9236, 1.969337
981.4057, 0.9267430
981.8878, 0.6913070
982.3699, 3.009293
982.8521, 5.744896
983.3342, 7.470703
983.8163, 8.205040
984.2984, 7.926559
984.7805, 6.540474
985.2626, 6.141052
985.7448, 9.082024
986.2269, 11.07262
986.7090, 9.741425
987.1911, 7.080933
987.6732, 3.904938
988.1553, 1.076851
988.6375, 7.6301999E-02
989.1196, 0.7440640
989.6017, 3.124207
990.0838, 9.613182
990.5659, 14.27898
991.0480, 12.59476
991.5302, 9.037842
992.0123, 7.825714
992.4944, 8.253838
992.9765, 7.376404
993.4586, 4.305222
993.9407, 2.860069
994.4229, 6.329094
994.9050, 9.842255
995.3871, 10.50343
995.8692, 10.14345
996.3513, 10.95136
996.8334, 12.21182
997.3156, 11.42622
997.7977, 7.771347
998.2798, 5.227730
998.7619, 7.071251
999.2440, 8.698280
999.7261, 6.150558
1000.208, 3.259644
1000.690, 4.952736
1001.172, 9.346672
1001.655, 10.63369
1002.137, 7.022797
1002.619, 5.641762
1003.101, 12.64989
1003.583, 19.23326
1004.065, 19.55634
1004.547, 17.88200
1005.029, 19.30098
1005.512, 22.19762
1005.994, 21.17096
1006.476, 14.65688
1006.958, 9.786415
1007.440, 11.21750
1007.922, 13.13279
1008.404, 13.28288
1008.886, 12.51247
1009.368, 10.38167
1009.851, 7.534035
1010.333, 4.731102
1010.815, 2.107162
1011.297, 1.656288
1011.779, 6.196678
1012.261, 10.65291
1012.743, 12.72572
1013.225, 13.37515
1013.708, 13.42719
1014.190, 12.80197
1014.672, 10.82996
1015.154, 7.364510
1015.636, 4.444031
1016.118, 1.108971
1016.600, 0.7551730
1017.082, 8.488289
1017.564, 16.44953
1018.047, 17.22480
1018.529, 13.69311
1019.011, 12.68306
1019.493, 15.49678
1019.975, 16.71722
1020.457, 12.91021
1020.939, 9.425804
1021.421, 8.227966
1021.904, 7.948357
1022.386, 8.784752
1022.868, 9.594482
1023.350, 7.621307
1023.832, 2.724838
1024.314, 0.6631240
1024.796, 5.942543
1025.278, 10.06489
1025.760, 8.898735
1026.243, 7.646057
1026.725, 11.26692
1027.207, 16.05620
1027.689, 15.40692
1028.171, 9.223030
1028.653, 6.034439
1029.135, 11.88801
1029.617, 14.35044
1030.099, 7.287964
1030.582, 0.5352480
1031.064, 9.9109998E-03
1031.546, 2.332237
1032.028, 2.788361
1032.510, 1.485703
1032.992, 2.521324
1033.474, 10.11961
1033.956, 13.88763
1034.439, 8.575455
1034.921, 4.292587
1035.403, 7.236115
1035.885, 11.79501
1036.367, 13.68536
1036.849, 12.67976
1037.331, 8.607529
1037.813, 4.327835
1038.296, 9.099083
1038.778, 0.6977010
1039.260, 10.11166
1039.742, 15.83845
1040.224, 18.34720
1040.706, 17.05968
1041.188, 12.96968
1041.670, 9.694870
1042.152, 6.365028
1042.635, 6.089256
1043.117, 12.32829
1043.599, 15.04513
1044.081, 9.345398
1044.563, 2.815269
1045.045, 1.032143
1045.527, 2.832176
1046.009, 5.645409
1046.491, 10.00578
1046.974, 11.66714
1047.456, 9.162910
1047.938, 8.275337
1048.420, 11.01139
1048.902, 13.44711
1049.384, 12.77876
1049.866, 10.76138
1050.348, 11.00889
1050.830, 13.53332
1051.313, 11.84757
1051.795, 4.485039
1052.277, 1.765984
1052.759, 6.268173
1053.241, 10.63910
1053.723, 11.10355
1054.205, 9.098595
1054.687, 6.161499
1055.170, 2.759979
1055.652, 2.247711
1056.134, 4.678169
1056.616, 4.545860
1057.098, 1.108185
1057.580, 0.3592380
1058.062, 5.052208
1058.544, 9.389534
1059.026, 6.669785
1059.509, 0.2738490
1059.991, 0.5763240
1060.473, 6.068703
1060.955, 6.950150
1061.437, 3.235214
1061.919, 1.338715
1062.401, 3.155396
1062.883, 5.592628
1063.365, 6.201233
1063.848, 6.185974
1064.330, 8.164963
1064.812, 10.91479
1065.294, 10.59616
1065.776, 8.154396
1066.258, 7.246964
1066.740, 8.495308
1067.222, 10.54942
1067.705, 12.81496
1068.187, 14.00694
1068.669, 11.75443
1069.151, 8.299484
1069.633, 6.354401
1070.115, 5.902260
1070.597, 7.225655
1071.079, 9.868996
1071.562, 13.18483
1072.044, 16.89509
1072.526, 17.62645
1073.008, 9.623093
1073.490, 1.132782
1073.972, 4.4548001E-02
1074.454, 1.585098
1074.936, 0.1645580
1075.418, 2.664009
1075.901, 1.741951
1076.383, 3.792564
1076.865, 8.715385
1077.347, 10.66380
1077.829, 11.55406
1078.311, 12.19894
1078.793, 12.19906
1079.275, 10.36681
1079.757, 8.756958
1080.240, 9.283737
1080.722, 11.90006
1081.204, 11.96003
1081.686, 5.784630
1082.168, 2.855652
1082.650, 8.839737
1083.132, 13.56527
1083.614, 11.29259
1084.097, 7.316055
1084.579, 6.677750
1085.061, 8.426476
1085.543, 8.769241
1086.025, 6.700768
1086.507, 6.937042
1086.989, 11.27283
1087.471, 14.65480
1087.953, 15.86349
1088.436, 16.45135
1088.918, 17.86509
1089.400, 18.57071
1089.882, 15.27898
1090.364, 8.181252
1090.846, 6.192680
1091.328, 11.48222
1091.810, 10.87731
1092.292, 0.9742510
1092.775, 4.725952
1093.257, 0.3277890
1093.739, 8.781822
1094.221, 12.89471
1094.703, 13.51173
1095.185, 13.11362
1095.667, 11.49287
1096.149, 8.818077
1096.632, 6.160774
1097.114, 6.369148
1097.596, 10.15416
1098.078, 11.52280
1098.560, 5.782654
1099.042, 1.389389
1099.524, 0.4602430
1100.006, 5.165733
1100.489, 8.038078
1100.971, 8.572525
1101.453, 8.096252
1101.935, 6.943687
1102.417, 4.943649
1102.899, 2.153656
1103.381, 0.2121810
1103.863, 1.292320
1104.345, 3.228477
1104.828, 2.575127
1105.310, 2.323349
1105.792, 8.641846
1106.274, 17.58507
1106.756, 20.00633
1107.238, 14.77737
1107.720, 9.224007
1108.202, 5.685394
1108.684, 4.160568
1109.167, 6.304588
1109.649, 8.582825
1110.131, 6.745102
1110.613, 5.359512
1111.095, 12.19267
1111.577, 24.21285
1112.059, 28.90818
1112.541, 22.69017
1113.024, 16.66406
1113.506, 9.154442
1113.988, 6.123009
1114.470, 13.48398
1114.952, 19.83708
1115.434, 17.16499
1115.916, 10.35784
1116.398, 7.166405
1116.880, 7.501915
1117.363, 8.490715
1117.845, 10.71914
1118.327, 10.91422
1118.809, 8.044449
1119.291, 6.442551
1119.773, 7.821808
1120.255, 11.07374
1120.737, 15.75322
1121.219, 20.15013
1121.702, 18.64389
1122.184, 12.28566
1122.666, 11.06702
1123.148, 14.32481
1123.630, 13.37211
1124.112, 7.263138
1124.594, 5.819542
1125.076, 14.65633
1125.559, 24.51740
1126.041, 23.96145
1126.523, 18.36199
1127.005, 15.93660
1127.487, 15.27598
1127.969, 13.47504
1128.451, 11.15159
1128.933, 11.25780
1129.416, 14.15893
1129.898, 16.09230
1130.380, 14.31966
1130.862, 12.65143
1131.344, 14.55707
1131.826, 16.39780
1132.308, 14.40241
1132.790, 11.39917
1133.272, 11.75798
1133.755, 14.35838
1134.237, 12.80779
1134.719, 3.925705
1135.201, 0.1925130
1135.683, 11.30780
1136.165, 16.57155
1136.647, 2.722221
1137.129, 7.976486
1137.611, 0.7367630
1138.094, 13.30904
1138.576, 18.84767
1139.058, 16.71339
1139.540, 15.18813
1140.022, 14.64535
1140.504, 12.61474
1140.986, 8.371773
1141.468, 6.189209
1141.951, 7.575653
1142.433, 9.991501
1142.915, 11.43506
1143.397, 11.92871
1143.879, 11.44953
1144.361, 10.56004
1144.843, 13.03612
1145.325, 17.37912
1145.807, 16.49172
1146.290, 10.42896
1146.772, 4.049026
1147.254, 0.5553740
1147.736, 1.916023
1148.218, 2.022911
1148.700, 7.951515
1149.182, 15.28422
1149.664, 20.13238
1150.146, 14.66963
1150.629, 4.821312
1151.111, 2.162621
1151.593, 6.120918
1152.075, 8.379082
1152.557, 5.741859
1153.039, 4.851067
1153.521, 9.995186
1154.003, 14.51344
1154.486, 15.52863
1154.968, 15.57666
1155.450, 17.03967
1155.932, 18.35506
1156.414, 16.04529
1156.896, 10.49105
1157.378, 10.03947
1157.860, 18.42027
1158.343, 19.97002
1158.825, 11.94275
1159.307, 4.425713
1159.789, 0.1529390
1160.271, 1.527306
1160.753, 0.9861600
1161.235, 1.512291
1161.717, 6.561737
1162.199, 12.93814
1162.682, 13.61826
1163.164, 9.999680
1163.646, 9.096497
1164.128, 11.20749
1164.610, 12.23436
1165.092, 10.98431
1165.574, 11.47195
1166.056, 18.35945
1166.538, 23.60966
1167.021, 16.05241
1167.503, 5.268379
1167.985, 0.3250120
1168.467, 7.2281003E-02
1168.949, 3.584175
1169.431, 8.897667
1169.913, 9.426666
1170.395, 2.931747
1170.878, 0.6961290
1171.360, 4.273544
1171.842, 8.076630
1172.324, 7.735626
1172.806, 6.203857
1173.288, 3.683739
1173.770, 2.084091
1174.252, 4.266113
1174.734, 8.941307
1175.217, 10.61607
1175.699, 8.867477
1176.181, 5.820862
1176.663, 0.8632510
1177.145, 0.1732100
1177.627, 4.118301
1178.109, 9.626884
1178.591, 14.37328
1179.073, 16.03146
1179.556, 10.21752
1180.038, 2.106766
1180.520, 5.100418
1181.002, 13.61607
1181.484, 14.15416
1181.966, 8.801643
1182.448, 4.943985
1182.930, 4.415070
1183.413, 6.970551
1183.895, 13.09827
1184.377, 17.65160
1184.859, 15.61390
1185.341, 13.43589
1185.823, 15.23257
1186.305, 18.10862
1186.787, 21.51469
1187.270, 23.31814
1187.752, 19.18365
1188.234, 9.497269
1188.716, 2.985008
1189.198, 0.4700090
1189.680, 0.3871610
1190.162, 8.547615
1190.644, 12.00168
1191.126, 7.409767
1191.609, 3.989700
1192.091, 8.424057
1192.573, 14.75206
1193.055, 13.46844
1193.537, 7.243011
1194.019, 6.312057
1194.501, 9.345306
1194.983, 11.37228
1195.465, 11.75642
1195.948, 8.150772
1196.430, 1.831779
1196.912, 0.6844480
1197.394, 9.819588
1197.876, 19.40296
1198.358, 23.44562
1198.840, 22.17570
1199.322, 10.06940
1199.805, 2.064484
1200.287, 2.567398
1200.769, 4.063049
1201.251, 9.846016
1201.733, 13.62096
1202.215, 14.12727
1202.697, 8.572403
1203.179, 5.863586
1203.661, 8.071602
1204.144, 8.385742
1204.626, 3.788147
1205.108, 0.8453450
1205.590, 4.256256
1206.072, 9.783905
1206.554, 11.18333
1207.036, 9.541039
1207.518, 8.440636
1208.000, 8.106224
1208.483, 9.547661
1208.965, 12.24121
1209.447, 13.68929
1209.929, 13.38483
1210.411, 12.02614
1210.893, 9.868759
1211.375, 8.043022
1211.857, 7.938057
1212.340, 7.850693
1212.822, 6.349716
1213.304, 4.360062
1213.786, 1.530113
1214.268, 0.4696270
1214.750, 1.757744
1215.232, 7.529610
1215.714, 10.70543
1216.197, 9.256187
1216.679, 9.921585
1217.161, 15.06682
1217.643, 16.57214
1218.125, 11.37569
1218.607, 7.742485
1219.089, 10.24490
1219.571, 14.48164
1220.053, 15.20202
1220.536, 14.43936
1221.018, 19.02422
1221.500, 26.21420
1221.982, 25.29047
1222.464, 18.44214
1222.946, 11.68974
1223.428, 6.787895
1223.910, 7.818336
1224.392, 16.01624
1224.875, 22.29249
1225.357, 19.24391
1225.839, 15.61127
1226.321, 16.57216
1226.803, 17.92673
1227.285, 16.97161
1227.767, 14.97155
1228.249, 12.21901
1228.732, 10.02193
1229.214, 12.42861
1229.696, 20.27363
1230.178, 21.07418
1230.660, 12.59561
1231.142, 8.761940
1231.624, 11.49115
1232.106, 12.80537
1232.589, 9.950996
1233.071, 7.352852
1233.553, 8.520447
1234.035, 10.46307
1234.517, 7.631706
1234.999, 3.844101
1235.481, 6.880096
1235.963, 12.57052
1236.445, 14.86159
1236.927, 13.79336
1237.410, 10.14497
1237.892, 4.746796
1238.374, 0.8695220
1238.856, 0.5319900
1239.338, 0.3403170
1239.820, 1.455238
1240.302, 4.635223
1240.784, 10.19622
1241.267, 15.31358
1241.749, 16.60377
1242.231, 17.25897
1242.713, 11.23910
1243.195, 2.292953
1243.677, 0.0000000E+00
##END=



