##NAMES=Cianciulliite
##RRUFFID=R150124
##IDEAL CHEMISTRY=Mg_2_Mn^2+^Zn^2+^_2_(OH)_10_&#183;2-4H_2_O
##LOCALITY=Franklin Mine, Franklin, Sussex Co., New Jersey, USA
##OWNER=RRUFF
##SOURCE=Van King
##DESCRIPTION=Yellow brown aggregate. A cotype sample from Peter J. Dunn.
##STATUS=unconfirmed
##URL=rruff.info/R150124
94.93475, 0.0000000E+00
95.41687, 0.3769230
95.89898, 0.3297270
96.38110, 0.3542480
96.86321, 1.043198
97.34533, 3.023895
97.82745, 4.726990
98.30956, 4.826126
98.79168, 2.516495
99.27380, 1.200897
99.75591, 0.5751650
100.2380, 0.6824650
100.7201, 1.088730
101.2023, 1.765945
101.6844, 2.238708
102.1665, 2.191742
102.6486, 1.095215
103.1307, 7.2708003E-02
103.6128, 1.7090000E-02
104.0950, 1.581482
104.5771, 2.875122
105.0592, 3.784424
105.5413, 4.367935
106.0234, 4.490021
106.5055, 3.677475
106.9877, 2.209427
107.4698, 1.884857
107.9519, 3.923035
108.4340, 5.557190
108.9161, 5.811600
109.3982, 5.021835
109.8804, 3.950119
110.3625, 3.308609
110.8446, 3.290665
111.3267, 2.908142
111.8088, 1.529602
112.2909, 0.2503810
112.7731, 0.3737180
113.2552, 0.2132570
113.7373, 0.4812160
114.2194, 1.342392
114.7015, 2.814835
115.1836, 4.104263
115.6658, 4.895203
116.1479, 5.240341
116.6300, 4.963135
117.1121, 3.978821
117.5942, 2.692001
118.0763, 2.062027
118.5584, 2.342575
119.0406, 2.424744
119.5227, 1.789993
120.0048, 0.7347560
120.4869, 2.5040001E-02
120.9690, 0.1404570
121.4511, 0.2155000
121.9333, 0.5998080
122.4154, 1.040024
122.8975, 1.404175
123.3796, 1.658310
123.8617, 1.845581
124.3438, 2.045242
124.8260, 2.384705
125.3081, 2.726517
125.7902, 2.868286
126.2723, 2.708237
126.7544, 2.461166
127.2365, 2.216110
127.7187, 2.050751
128.2008, 2.045883
128.6829, 2.416977
129.1650, 2.872742
129.6471, 3.044907
130.1292, 2.653763
130.6114, 1.717407
131.0935, 0.9884490
131.5756, 0.5073850
132.0577, 0.2221830
132.5398, 0.2617340
133.0219, 0.5171810
133.5041, 0.6800990
133.9862, 0.4329530
134.4683, 0.3222960
134.9504, 0.6295170
135.4325, 0.4159240
135.9146, 0.8955380
136.3968, 0.8666080
136.8789, 1.873962
137.3610, 2.860657
137.8431, 3.571823
138.3252, 3.952957
138.8073, 3.998062
139.2895, 3.474548
139.7716, 2.676956
140.2537, 1.964386
140.7358, 1.441208
141.2179, 1.232788
141.7000, 1.441803
142.1821, 2.143875
142.6643, 2.675049
143.1464, 2.728806
143.6285, 2.415787
144.1106, 1.997238
144.5927, 1.346161
145.0748, 0.8233490
145.5570, 0.7458340
146.0391, 1.117218
146.5212, 1.629074
147.0033, 2.179794
147.4854, 2.837265
147.9675, 3.017807
148.4497, 1.907654
148.9318, 0.7177580
149.4139, 5.5236999E-02
149.8960, 7.0724003E-02
150.3781, 0.5491330
150.8602, 1.291412
151.3424, 2.690125
151.8245, 3.490402
152.3066, 3.418564
152.7887, 3.102478
153.2708, 2.640839
153.7529, 2.151474
154.2351, 1.656311
154.7172, 1.203232
155.1993, 0.6794590
155.6814, 0.3603820
156.1635, 0.4451140
156.6456, 0.6879430
157.1278, 0.7233430
157.6099, 0.3521270
158.0920, 0.2392430
158.5741, 0.2475130
159.0562, 0.8910370
159.5383, 1.889694
160.0205, 2.340164
160.5026, 2.402802
160.9847, 2.441208
161.4668, 2.669220
161.9489, 3.090225
162.4310, 3.592560
162.9131, 4.528748
163.3953, 5.212814
163.8774, 5.001617
164.3595, 3.993042
164.8416, 3.185883
165.3237, 3.420044
165.8058, 4.262604
166.2880, 4.655380
166.7701, 4.293884
167.2522, 3.577667
167.7343, 2.822189
168.2164, 1.950638
168.6985, 1.426620
169.1807, 1.956573
169.6628, 2.894119
170.1449, 3.421951
170.6270, 3.038254
171.1091, 2.196747
171.5912, 1.940689
172.0734, 2.687332
172.5555, 3.209290
173.0376, 2.789230
173.5197, 1.923218
174.0018, 1.327133
174.4839, 1.489685
174.9661, 2.257538
175.4482, 2.698120
175.9303, 2.564774
176.4124, 2.355957
176.8945, 2.136353
177.3766, 1.933060
177.8588, 1.799973
178.3409, 1.795364
178.8230, 1.937378
179.3051, 1.856415
179.7872, 1.004639
180.2693, 0.4451290
180.7515, 0.8315890
181.2336, 1.839157
181.7157, 2.590698
182.1978, 2.263885
182.6799, 0.6712800
183.1620, 0.1799930
183.6441, 0.1032100
184.1263, 0.5971530
184.6084, 1.014526
185.0905, 1.269302
185.5726, 1.214981
186.0547, 1.326860
186.5368, 0.6657410
187.0190, 1.214615
187.5011, 0.5229950
187.9832, 0.4947510
188.4653, 1.147705
188.9474, 1.366714
189.4296, 1.575516
189.9117, 2.332840
190.3938, 3.604324
190.8759, 4.287704
191.3580, 3.852951
191.8401, 2.949814
192.3223, 2.248825
192.8044, 1.852646
193.2865, 1.645920
193.7686, 1.592682
194.2507, 1.635986
194.7328, 1.649002
195.2150, 1.572968
195.6971, 1.440552
196.1792, 1.270416
196.6613, 0.9798430
197.1434, 0.8328700
197.6255, 1.199539
198.1077, 1.880844
198.5898, 2.348618
199.0719, 2.176682
199.5540, 1.526932
200.0361, 1.124985
200.5182, 1.153122
201.0004, 1.204636
201.4825, 0.9463650
201.9646, 0.5191350
202.4467, 0.2814640
202.9288, 0.6018370
203.4109, 1.435913
203.8930, 1.964691
204.3752, 1.895859
204.8573, 1.802109
205.3394, 1.977310
205.8215, 2.315750
206.3036, 2.534103
206.7857, 2.363235
207.2679, 1.777069
207.7500, 1.309387
208.2321, 0.9783170
208.7142, 0.7700040
209.1963, 0.5998080
209.6784, 0.5360570
210.1606, 0.7815090
210.6427, 1.605637
211.1248, 3.135239
211.6069, 4.052048
212.0890, 4.135284
212.5711, 3.878174
213.0533, 3.250717
213.5354, 2.406815
214.0175, 1.677963
214.4996, 1.384491
214.9817, 1.585968
215.4638, 1.689087
215.9460, 1.774429
216.4281, 1.710663
216.9102, 1.290848
217.3923, 0.5932010
217.8744, 1.0406000E-02
218.3565, 7.6981001E-02
218.8387, 0.4034120
219.3208, 0.8446810
219.8029, 1.158112
220.2850, 1.512878
220.7671, 2.194077
221.2492, 3.125748
221.7314, 3.752289
222.2135, 3.499451
222.6956, 2.299622
223.1777, 1.508347
223.6598, 1.245728
224.1419, 1.271957
224.6240, 1.476791
225.1062, 1.838959
225.5883, 2.273056
226.0704, 2.819260
226.5525, 3.402832
227.0346, 3.590500
227.5167, 2.864349
227.9989, 2.031082
228.4810, 2.016357
228.9631, 2.890991
229.4452, 3.612885
229.9273, 3.149445
230.4094, 1.946808
230.8916, 1.258499
231.3737, 1.644440
231.8558, 2.402573
232.3379, 2.724442
232.8200, 2.560760
233.3021, 2.335617
233.7843, 2.175735
234.2664, 2.160553
234.7485, 2.512909
235.2306, 3.612549
235.7127, 4.736359
236.1948, 4.667511
236.6770, 3.084412
237.1591, 1.644501
237.6412, 1.433990
238.1233, 1.761902
238.6054, 1.856552
239.0875, 1.309875
239.5697, 0.7285000
240.0518, 1.135681
240.5339, 2.878067
241.0160, 4.316483
241.4981, 4.712662
241.9802, 4.573700
242.4624, 4.263351
242.9445, 3.849472
243.4266, 3.482864
243.9087, 3.517410
244.3908, 4.181473
244.8729, 4.471237
245.3550, 3.671692
245.8372, 2.728714
246.3193, 2.563538
246.8014, 3.528961
247.2835, 4.929108
247.7656, 5.561813
248.2477, 5.153503
248.7299, 4.589111
249.2120, 3.757339
249.6941, 2.999222
250.1762, 2.674896
250.6583, 2.879807
251.1404, 3.273788
251.6226, 3.270386
252.1047, 2.692337
252.5868, 2.098343
253.0689, 1.371140
253.5510, 0.7571110
254.0331, 0.5081790
254.5153, 0.6581880
254.9974, 0.9436040
255.4795, 0.9012910
255.9616, 0.1392820
256.4437, 6.5613002E-02
256.9258, 0.7296300
257.4080, 1.669937
257.8901, 2.234375
258.3722, 2.315704
258.8543, 2.108749
259.3364, 1.839249
259.8185, 1.400452
260.3007, 1.184586
260.7828, 1.285233
261.2649, 1.488922
261.7470, 1.670273
262.2291, 1.810242
262.7112, 1.963867
263.1934, 2.209335
263.6755, 2.607529
264.1576, 2.868515
264.6397, 3.032196
265.1218, 3.067459
265.6039, 2.828018
266.0861, 2.387543
266.5682, 1.975815
267.0503, 1.836792
267.5324, 2.043427
268.0145, 2.056854
268.4966, 1.678207
268.9788, 1.333405
269.4609, 1.335617
269.9430, 1.590027
270.4251, 1.685043
270.9072, 1.215118
271.3893, 0.1410220
271.8715, 0.2574620
272.3536, 0.3284450
272.8357, 1.127411
273.3178, 2.084763
273.7999, 3.022705
274.2820, 3.505615
274.7642, 3.164185
275.2463, 2.093964
275.7284, 1.491409
276.2105, 1.740234
276.6926, 1.928970
277.1747, 1.651443
277.6568, 1.110687
278.1389, 0.6564480
278.6211, 0.5662230
279.1032, 0.2306037
279.5853, 0.7256620
280.0674, 4.7943000E-02
280.5495, 0.2395020
281.0316, 0.4591060
281.5138, 1.688583
281.9959, 2.677765
282.4780, 3.112518
282.9601, 3.073303
283.4422, 2.669342
283.9243, 1.562180
284.4065, 0.7769170
284.8886, 0.7364650
285.3707, 1.085892
285.8528, 1.337097
286.3349, 1.344315
286.8170, 1.155212
287.2992, 0.7550960
287.7813, 2.5374999E-02
288.2634, 0.4367680
288.7455, 9.5627002E-02
289.2276, 0.5791320
289.7097, 1.189301
290.1919, 1.681458
290.6740, 1.839264
291.1561, 1.301102
291.6382, 5.3879000E-02
292.1203, 0.6846470
292.6024, 0.2603450
293.0846, 1.630188
293.5667, 2.203995
294.0488, 1.804047
294.5309, 1.186279
295.0130, 1.196030
295.4951, 0.8302125
295.9773, 0.8316646
296.4594, 0.5339810
296.9415, 0.8195950
297.4236, 0.8225250
297.9057, 0.4825900
298.3878, 1.918945
298.8700, 2.763290
299.3521, 2.989990
299.8342, 2.882202
300.3163, 1.970535
300.7984, 1.157318
301.2805, 1.083557
301.7627, 1.613785
302.2448, 2.095795
302.7269, 2.174896
303.2090, 1.986160
303.6911, 1.958420
304.1732, 2.177429
304.6554, 2.396790
305.1375, 2.529922
305.6196, 2.584366
306.1017, 2.588516
306.5838, 2.568909
307.0659, 2.475006
307.5481, 2.149078
308.0302, 1.501160
308.5123, 1.010025
308.9944, 0.8115080
309.4765, 0.8733830
309.9586, 1.235657
310.4408, 1.969223
310.9229, 2.730652
311.4050, 2.968994
311.8871, 2.665939
312.3692, 2.552902
312.8513, 2.975220
313.3335, 3.566193
313.8156, 3.944473
314.2977, 4.059250
314.7798, 3.888947
315.2619, 3.233185
315.7440, 2.145416
316.2262, 1.487289
316.7083, 1.634293
317.1904, 2.019638
317.6725, 2.168839
318.1546, 2.081619
318.6367, 2.044647
319.1188, 2.325912
319.6010, 2.798767
320.0831, 2.900375
320.5652, 2.442261
321.0473, 1.815460
321.5294, 0.9438780
322.0115, 9.0180002E-03
322.4937, 0.2342070
322.9758, 0.8100890
323.4579, 2.474670
323.9400, 3.043640
324.4221, 2.076141
324.9042, 1.200439
325.3864, 1.045242
325.8685, 1.363708
326.3506, 1.751282
326.8327, 2.123154
327.3148, 2.372375
327.7969, 2.257599
328.2791, 1.713959
328.7612, 1.265579
329.2433, 0.9329680
329.7254, 0.7757420
330.2075, 1.022598
330.6896, 1.706375
331.1718, 2.299149
331.6539, 2.147141
332.1360, 1.179276
332.6181, 0.7762300
333.1002, 1.752213
333.5823, 2.722931
334.0645, 2.301010
334.5466, 0.6693730
335.0287, 0.4687960
335.5108, 0.2793730
335.9929, 2.556366
336.4750, 3.615723
336.9572, 2.487732
337.4393, 1.324631
337.9214, 1.021347
338.4035, 1.366058
338.8856, 1.955627
339.3677, 2.676743
339.8499, 3.319214
340.3320, 3.220093
340.8141, 1.812500
341.2962, 0.8031460
341.7783, 0.6554720
342.2604, 1.028198
342.7426, 1.616287
343.2247, 2.332764
343.7068, 2.950928
344.1889, 3.132294
344.6710, 2.684708
345.1531, 2.297684
345.6353, 2.174576
346.1174, 1.963852
346.5995, 1.145554
347.0816, 0.1764980
347.5637, 1.059814
348.0458, 0.4961700
348.5280, 1.628281
349.0101, 2.599319
349.4922, 1.660141
349.9743, 0.5105900
350.4564, 0.2746730
350.9385, 0.6598050
351.4207, 0.5376280
351.9028, 0.2329250
352.3849, 1.396454
352.8670, 1.848145
353.3491, 0.7063900
353.8312, 4.8675999E-02
354.3134, 4.5441002E-02
354.7955, 0.5135350
355.2776, 0.8966670
355.7597, 1.065353
356.2418, 1.145538
356.7239, 1.450348
357.2061, 2.353485
357.6882, 2.673233
358.1703, 1.912918
358.6524, 1.026947
359.1345, 0.6479800
359.6166, 0.7936550
360.0987, 1.066681
360.5808, 1.042007
361.0630, 0.6614530
361.5451, 0.5485230
362.0272, 0.8993680
362.5093, 1.293640
362.9914, 1.608383
363.4735, 1.863525
363.9557, 2.118958
364.4378, 2.413223
364.9199, 2.731903
365.4020, 3.028503
365.8841, 3.543015
366.3662, 3.669083
366.8484, 2.945541
367.3305, 2.023499
367.8126, 1.577026
368.2947, 1.808136
368.7768, 2.354553
369.2589, 2.662491
369.7411, 2.641296
370.2232, 2.620926
370.7053, 2.530869
371.1874, 2.543915
371.6695, 2.818893
372.1516, 3.278610
372.6338, 3.583939
373.1159, 3.317490
373.5980, 2.508743
374.0801, 2.181747
374.5622, 2.826462
375.0443, 3.366257
375.5265, 3.400131
376.0086, 3.114258
376.4907, 2.784271
376.9728, 2.522263
377.4549, 2.350296
377.9370, 2.409546
378.4192, 2.924210
378.9013, 3.024094
379.3834, 1.871216
379.8655, 0.5724640
380.3476, 7.2998002E-02
380.8297, 0.5843510
381.3119, 1.350876
381.7940, 1.612915
382.2761, 1.385422
382.7582, 1.259201
383.2403, 1.416580
383.7224, 1.570084
384.2046, 1.392502
384.6867, 1.012146
385.1688, 0.8898160
385.6509, 1.524902
386.1330, 2.546921
386.6151, 3.134491
387.0973, 3.288269
387.5794, 3.108429
388.0615, 2.263931
388.5436, 1.245331
389.0257, 0.7615510
389.5078, 1.121689
389.9900, 1.718994
390.4721, 2.035461
390.9542, 2.108734
391.4363, 2.233124
391.9184, 2.626572
392.4005, 2.978745
392.8827, 2.705231
393.3648, 1.804199
393.8469, 1.062668
394.3290, 0.8306580
394.8111, 0.9874570
395.2932, 1.367340
395.7754, 1.989334
396.2575, 2.566147
396.7396, 2.940598
397.2217, 3.097656
397.7038, 3.041901
398.1859, 2.471268
398.6681, 1.952438
399.1501, 1.943481
399.6323, 2.324905
400.1144, 2.618546
400.5965, 2.550171
401.0786, 2.291000
401.5607, 2.378937
402.0428, 3.216278
402.5250, 3.646561
403.0071, 3.042038
403.4892, 2.120880
403.9713, 1.815506
404.4534, 2.306824
404.9355, 2.914597
405.4177, 2.804688
405.8998, 1.879364
406.3819, 1.284531
406.8640, 0.8073730
407.3461, 0.6666870
407.8282, 1.345947
408.3104, 2.478241
408.7925, 3.225784
409.2746, 3.071213
409.7567, 2.261475
410.2388, 1.745605
410.7209, 1.785355
411.2031, 1.791946
411.6852, 1.531784
412.1673, 1.317215
412.6494, 1.588928
413.1315, 2.387909
413.6136, 3.164108
414.0958, 3.114838
414.5779, 1.979874
415.0600, 1.059250
415.5421, 0.2180630
416.0242, 0.2650600
416.5063, 8.4122002E-02
416.9885, 0.5597380
417.4706, 1.220688
417.9527, 1.644211
418.4348, 1.850159
418.9169, 1.861404
419.3990, 1.513138
419.8812, 1.345901
420.3633, 1.773621
420.8454, 2.319992
421.3275, 2.530182
421.8096, 2.315781
422.2917, 2.007614
422.7739, 2.009018
423.2560, 2.294418
423.7381, 2.285583
424.2202, 1.584274
424.7023, 1.011215
425.1844, 1.430832
425.6666, 2.546661
426.1487, 3.273560
426.6308, 2.965988
427.1129, 2.094864
427.5950, 1.195679
428.0771, 0.2421420
428.5593, 0.2807460
429.0414, 8.5525997E-02
429.5235, 0.9723210
430.0056, 1.525467
430.4877, 1.687637
430.9698, 1.644775
431.4520, 1.360641
431.9341, 0.9802400
432.4162, 0.7285770
432.8983, 0.5739440
433.3804, 0.5716550
433.8625, 0.8935090
434.3447, 1.607010
434.8268, 2.040436
435.3089, 1.952927
435.7910, 1.764832
436.2731, 1.786407
436.7552, 1.958923
437.2374, 2.024597
437.7195, 1.823334
438.2016, 1.412262
438.6837, 1.065063
439.1658, 0.6452640
439.6479, 0.4479980
440.1301, 0.6577450
440.6122, 1.006866
441.0943, 1.242340
441.5764, 1.315643
442.0585, 1.363327
442.5406, 1.594467
443.0227, 1.266323
443.5049, 2.095474
443.9870, 0.7025910
444.4691, 0.3223570
444.9512, 0.1828460
445.4333, 0.6431730
445.9154, 1.346863
446.3976, 1.510101
446.8797, 1.335693
447.3618, 1.297882
447.8439, 1.514709
448.3260, 1.511536
448.8081, 0.9994960
449.2903, 0.3831330
449.7724, 0.2128140
450.2545, 0.1163359
450.7366, 0.9316100
451.2187, 0.4125370
451.7008, 0.5972440
452.1830, 0.9602050
452.6651, 0.3446350
453.1472, 0.1424100
453.6293, 0.4116210
454.1114, 1.445389
454.5935, 2.180145
455.0757, 2.400955
455.5578, 2.386368
456.0399, 2.353668
456.5220, 2.280426
457.0041, 1.992401
457.4862, 1.306961
457.9684, 0.6772000
458.4505, 0.9104160
458.9326, 2.009933
459.4147, 2.640137
459.8968, 2.239029
460.3789, 1.505798
460.8611, 0.9770660
461.3432, 0.6790310
461.8253, 0.5000760
462.3074, 0.3873290
462.7895, 0.3249510
463.2716, 0.2428740
463.7538, 0.2630460
464.2359, 0.2642210
464.7180, 0.9165800
465.2001, 2.343185
465.6822, 3.006989
466.1643, 2.745804
466.6465, 2.128159
467.1286, 1.763580
467.6107, 1.678741
468.0928, 1.555511
468.5749, 1.265396
469.0570, 1.073608
469.5392, 1.078461
470.0213, 1.220566
470.5034, 1.459213
470.9855, 1.786362
471.4676, 2.054138
471.9497, 1.924393
472.4319, 1.255966
472.9140, 0.8152310
473.3961, 0.8942720
473.8782, 1.052750
474.3603, 1.027359
474.8424, 0.8936460
475.3246, 0.9581150
475.8067, 1.765610
476.2888, 1.277846
476.7709, 2.564804
477.2530, 0.8798220
477.7351, 0.4369510
478.2173, 0.2943570
478.6994, 0.6198730
479.1815, 1.198715
479.6636, 1.337296
480.1457, 1.366928
480.6278, 1.417191
481.1100, 1.477783
481.5920, 1.519989
482.0742, 1.536530
482.5563, 1.581894
483.0384, 1.743698
483.5205, 2.010071
484.0026, 2.058167
484.4847, 1.764114
484.9669, 1.402222
485.4490, 0.9089510
485.9311, 0.4511870
486.4132, 0.3992610
486.8953, 0.9402470
487.3774, 1.657318
487.8596, 1.860519
488.3417, 1.383377
488.8238, 0.8253940
489.3059, 0.3810120
489.7880, 1.119080
490.2701, 0.5101470
490.7523, 0.9981540
491.2344, 2.392334
491.7165, 3.075180
492.1986, 3.200134
492.6807, 3.149841
493.1628, 2.857437
493.6450, 2.576233
494.1271, 2.206970
494.6092, 1.980988
495.0913, 2.204285
495.5734, 2.822479
496.0555, 3.300888
496.5377, 3.075363
497.0198, 2.442047
497.5019, 2.330978
497.9840, 2.923492
498.4661, 3.279221
498.9482, 2.664810
499.4304, 1.557922
499.9125, 0.8905030
500.3946, 0.8178560
500.8767, 0.9134370
501.3588, 0.9797970
501.8409, 1.067230
502.3231, 1.260208
502.8052, 1.630447
503.2873, 2.063126
503.7694, 2.451385
504.2515, 2.796234
504.7336, 2.752899
505.2158, 1.985962
505.6979, 1.252548
506.1800, 0.6609340
506.6621, 0.3228300
507.1442, 0.5128170
507.6263, 1.280716
508.1085, 2.173889
508.5906, 2.467865
509.0727, 1.957336
509.5548, 1.803055
510.0369, 2.484085
510.5190, 2.956024
511.0012, 2.568985
511.4833, 1.738632
511.9654, 1.198807
512.4475, 1.354324
512.9296, 1.866776
513.4117, 2.154175
513.8939, 2.201035
514.3760, 2.131409
514.8581, 1.761734
515.3402, 1.504608
515.8223, 1.897125
516.3044, 2.801895
516.7866, 3.306030
517.2687, 2.520416
517.7508, 1.418533
518.2329, 1.444199
518.7150, 2.518723
519.1971, 3.320923
519.6793, 3.169830
520.1614, 2.442886
520.6435, 1.998184
521.1256, 1.953690
521.6077, 1.754562
522.0898, 1.071060
522.5720, 0.4418950
523.0541, 0.3543240
523.5362, 0.7745360
524.0183, 1.290268
524.5004, 1.606339
524.9825, 1.760590
525.4647, 1.964417
525.9468, 2.470200
526.4289, 2.642258
526.9110, 2.203873
527.3931, 1.585587
527.8752, 1.008759
528.3574, 0.5767060
528.8395, 0.4817500
529.3216, 1.075760
529.8037, 2.152817
530.2858, 2.658264
530.7679, 2.431290
531.2501, 2.065048
531.7322, 1.675034
532.2143, 1.341370
532.6964, 1.191132
533.1785, 1.273849
533.6606, 1.322754
534.1428, 1.068924
534.6249, 0.6702120
535.1070, 0.5189670
535.5891, 0.6458890
536.0712, 0.8390200
536.5533, 0.8903500
537.0355, 0.8381810
537.5176, 1.045914
537.9997, 1.968536
538.4818, 2.580231
538.9639, 2.450272
539.4460, 1.898499
539.9282, 1.190842
540.4103, 0.4497990
540.8924, 3.4866001E-02
541.3745, 0.1139530
541.8566, 0.9260100
542.3387, 1.336853
542.8209, 0.8858030
543.3029, 0.5676730
543.7850, 0.7332150
544.2672, 1.060394
544.7493, 1.154343
545.2314, 0.9176180
545.7135, 0.6089020
546.1956, 0.5113070
546.6777, 0.6082310
547.1599, 0.6984860
547.6420, 0.7884670
548.1241, 0.8613130
548.6062, 0.7294460
549.0883, 0.5366060
549.5704, 0.6224520
550.0526, 1.222992
550.5347, 1.721634
551.0168, 1.631119
551.4989, 1.200455
551.9810, 0.9340970
552.4631, 0.9386900
552.9453, 1.042419
553.4274, 1.094879
553.9095, 1.095566
554.3916, 1.097214
554.8737, 1.136597
555.3558, 1.132629
555.8380, 1.012817
556.3201, 0.8593440
556.8022, 0.7641910
557.2843, 0.7542110
557.7664, 0.8196560
558.2485, 0.9790500
558.7307, 1.241196
559.2128, 1.345459
559.6949, 1.226593
560.1770, 1.032913
560.6591, 0.7208400
561.1412, 0.4135890
561.6234, 0.2518920
562.1055, 0.2725220
562.5876, 0.4356230
563.0697, 0.8662870
563.5518, 1.421982
564.0339, 1.534134
564.5161, 1.046249
564.9982, 0.5849300
565.4803, 0.6101840
565.9624, 1.042175
566.4445, 1.445297
566.9266, 1.867371
567.4088, 2.192810
567.8909, 2.347717
568.3730, 2.400284
568.8551, 2.507721
569.3372, 2.660828
569.8193, 2.570389
570.3015, 1.894028
570.7836, 0.6848140
571.2657, 3.0548001E-02
571.7478, 0.3299410
572.2299, 0.6757350
572.7120, 1.003372
573.1942, 1.265671
573.6763, 1.419235
574.1584, 1.460464
574.6405, 1.425568
575.1226, 1.214722
575.6047, 0.9363560
576.0869, 1.163544
576.5690, 2.070908
577.0511, 2.749817
577.5332, 2.747116
578.0153, 2.252075
578.4974, 1.518021
578.9796, 0.4297490
579.4617, 0.3541410
579.9438, 0.4551090
580.4259, 0.1989140
580.9080, 0.1399990
581.3901, 0.4953770
581.8723, 0.7178340
582.3544, 0.6834410
582.8365, 0.5039370
583.3186, 0.5670780
583.8007, 1.208084
584.2828, 1.580597
584.7650, 1.716537
585.2471, 1.562744
585.7292, 1.544246
586.2113, 0.3456270
586.6934, 1.028290
587.1755, 0.6733700
587.6577, 0.2593380
588.1398, 0.6452180
588.6219, 0.3634490
589.1040, 0.4175720
589.5861, 1.479782
590.0682, 2.470154
590.5504, 2.119904
591.0325, 0.6752010
591.5146, 0.2449340
591.9967, 0.2363430
592.4788, 1.110504
592.9609, 1.698471
593.4431, 1.980515
593.9252, 1.877167
594.4073, 1.335785
594.8894, 0.6274720
595.3715, 9.6252002E-02
595.8536, 0.2920380
596.3358, 0.3226320
596.8179, 0.3489690
597.3000, 0.9416500
597.7821, 1.143616
598.2642, 1.108963
598.7463, 1.087311
599.2285, 1.163422
599.7106, 1.209503
600.1927, 0.9989010
600.6748, 0.5471950
601.1569, 0.3400120
601.6390, 0.4791870
602.1212, 0.6891170
602.6033, 0.7496030
603.0854, 0.8019410
603.5675, 1.115433
604.0496, 1.847778
604.5317, 2.466064
605.0139, 2.839600
605.4960, 2.876007
605.9781, 2.210938
606.4602, 0.9061130
606.9423, 0.2231600
607.4244, 0.5844880
607.9066, 0.2997590
608.3887, 9.0759002E-02
608.8708, 0.8538820
609.3529, 1.330673
609.8350, 1.191055
610.3171, 1.016663
610.7993, 1.402451
611.2814, 2.164459
611.7635, 2.536911
612.2456, 1.906586
612.7277, 0.8065190
613.2098, 0.4368740
613.6920, 0.8737640
614.1741, 1.065613
614.6562, 0.4989470
615.1383, 5.4031000E-02
615.6204, 0.3819430
616.1025, 1.615158
616.5847, 2.476929
617.0668, 2.356247
617.5489, 2.164536
618.0310, 2.743378
618.5131, 3.626495
618.9952, 3.739319
619.4774, 2.786102
619.9595, 1.537811
620.4416, 0.8718870
620.9237, 0.8050080
621.4058, 1.042603
621.8879, 1.985321
622.3701, 2.744980
622.8522, 3.081787
623.3343, 3.181625
623.8164, 3.215134
624.2985, 3.222061
624.7806, 3.182724
625.2628, 3.087097
625.7448, 2.932709
626.2269, 2.692947
626.7090, 2.358215
627.1912, 2.019669
627.6733, 1.638885
628.1554, 1.352066
628.6375, 1.475266
629.1196, 2.074905
629.6017, 2.655304
630.0839, 3.407501
630.5660, 3.884857
631.0481, 3.493469
631.5302, 2.596069
632.0123, 2.122498
632.4944, 2.502213
632.9766, 3.188553
633.4587, 3.202667
633.9408, 2.370209
634.4229, 1.741852
634.9050, 1.240280
635.3871, 1.090378
635.8693, 1.637665
636.3514, 2.478134
636.8335, 2.968231
637.3156, 2.887650
637.7977, 2.717468
638.2798, 2.833008
638.7620, 3.092178
639.2441, 3.210297
639.7262, 3.160568
640.2083, 3.106094
640.6904, 3.131699
641.1725, 3.254730
641.6547, 3.541306
642.1368, 4.330963
642.6189, 4.770050
643.1010, 4.721268
643.5831, 4.446457
644.0652, 3.869659
644.5474, 3.191040
645.0295, 2.924332
645.5116, 3.358963
645.9937, 4.136337
646.4758, 4.769028
646.9579, 5.242081
647.4401, 5.623688
647.9222, 5.987015
648.4043, 6.120178
648.8864, 5.749680
649.3685, 5.006409
649.8506, 4.325394
650.3328, 3.572296
650.8149, 3.161469
651.2970, 3.422470
651.7791, 3.970459
652.2612, 4.488815
652.7433, 4.897171
653.2255, 5.179337
653.7076, 5.315277
654.1897, 5.316391
654.6718, 5.184036
655.1539, 4.779770
655.6360, 4.574722
656.1182, 4.762314
656.6003, 5.020950
657.0824, 5.178177
657.5645, 5.289993
658.0466, 5.519958
658.5287, 6.012375
659.0109, 6.382446
659.4930, 6.097107
659.9751, 5.422913
660.4572, 5.167023
660.9393, 5.513306
661.4214, 5.936035
661.9036, 5.925644
662.3857, 5.557602
662.8678, 5.648132
663.3499, 7.097244
663.8320, 7.825470
664.3141, 7.017151
664.7963, 5.883347
665.2784, 5.303894
665.7605, 5.350632
666.2426, 5.701263
666.7247, 6.239578
667.2068, 6.817749
667.6890, 7.186996
668.1711, 7.352036
668.6532, 7.329391
669.1353, 7.053879
669.6174, 6.756393
670.0995, 6.673538
670.5817, 6.782104
671.0638, 6.821289
671.5459, 6.596481
672.0280, 6.544373
672.5101, 7.052994
672.9922, 7.631561
673.4744, 7.646408
673.9565, 7.116577
674.4386, 6.581100
674.9207, 6.488754
675.4028, 6.688492
675.8849, 6.636765
676.3671, 6.287811
676.8492, 6.010330
677.3313, 5.799141
677.8134, 5.824348
678.2955, 6.518387
678.7776, 7.601387
679.2598, 8.019699
679.7419, 7.019768
680.2240, 5.984695
680.7061, 5.787239
681.1882, 6.074730
681.6703, 6.198219
682.1525, 6.046616
682.6346, 5.938797
683.1167, 6.127136
683.5988, 5.896568
684.0809, 6.443535
684.5630, 5.673599
685.0452, 5.166489
685.5273, 5.067169
686.0094, 5.191803
686.4915, 5.634796
686.9736, 6.178276
687.4557, 6.362350
687.9379, 5.709572
688.4200, 4.976578
688.9021, 4.933105
689.3842, 5.288483
689.8663, 5.298615
690.3484, 4.830833
690.8306, 4.313431
691.3127, 4.074921
691.7948, 4.069992
692.2769, 4.148819
692.7590, 4.601379
693.2411, 4.675362
693.7233, 3.776794
694.2054, 3.040878
694.6875, 3.481041
695.1696, 4.629608
695.6517, 5.151436
696.1339, 4.333153
696.6160, 3.100571
697.0981, 2.371910
697.5802, 2.081009
698.0623, 2.073578
698.5444, 2.352844
699.0266, 2.545189
699.5087, 2.358902
699.9908, 1.900398
700.4729, 1.580856
700.9550, 1.496597
701.4371, 1.408005
701.9193, 1.412796
702.4014, 1.332321
702.8835, 0.8677440
703.3656, 0.2394180
703.8477, 8.3786003E-02
704.3298, 0.1184310
704.8120, 0.5172960
705.2941, 0.7927170
705.7762, 0.9315340
706.2583, 0.8161390
706.7404, 0.4003450
707.2225, 3.1700000E-02
707.7046, 0.3800130
708.1867, 0.5905300
708.6688, 0.4855270
709.1509, 0.7425389
709.6331, 0.5582730
710.1152, 0.8281860
710.5973, 0.9146500
711.0794, 0.7105560
711.5615, 0.3474350
712.0436, 7.3930002E-03
712.5258, 0.2407760
713.0079, 0.3376240
713.4900, 6.9381997E-02
713.9721, 0.4472810
714.4542, 0.4518660
714.9363, 0.1914600
715.4185, 0.5868150
715.9006, 0.2009200
716.3827, 0.5260090
716.8648, 0.8419950
717.3469, 0.6769870
717.8290, 0.5919800
718.3112, 0.7645870
718.7933, 0.8815990
719.2754, 0.7576140
719.7575, 0.4967580
720.2396, 0.2189030
720.7217, 2.4483001E-02
721.2039, 0.1780780
721.6860, 0.1557010
722.1681, 4.6919999E-03
722.6502, 8.4624998E-02
723.1323, 0.1051790
723.6144, 0.1085050
724.0966, 7.3875003E-02
724.5787, 8.8661000E-02
725.0608, 0.3581700
725.5429, 0.7889630
726.0250, 1.037651
726.5071, 0.9542010
726.9893, 0.9229580
727.4714, 1.251556
727.9535, 1.607323
728.4356, 1.552193
728.9177, 1.090408
729.3998, 1.304952
729.8820, 0.6667100
730.3641, 0.9291920
730.8462, 0.9748150
731.3283, 0.1554640
731.8104, 0.4552000
732.2925, 0.3057630
732.7747, 0.1360400
733.2568, 0.5900270
733.7389, 0.1047520
734.2210, 0.3451690
734.7031, 0.3391490
735.1852, 0.5377960
735.6674, 0.2834700
736.1495, 0.1676030
736.6316, 0.5024110
737.1137, 0.5866090
737.5958, 0.2776720
738.0779, 0.4850160
738.5601, 0.2309110
739.0422, 0.1373600
739.5243, 0.3053820
740.0064, 1.7921001E-02
740.4885, 0.1847530
740.9706, 0.5485990
741.4528, 0.7058720
741.9349, 0.6688920
742.4170, 0.2122500
742.8991, 4.8576001E-02
743.3812, 0.1148220
743.8633, 0.2729800
744.3455, 0.2153550
744.8276, 0.4258420
745.3097, 0.4245047
745.7918, 0.1834180
746.2739, 0.5027080
746.7560, 0.3934170
747.2382, 0.4463200
747.7203, 0.9733200
748.2024, 1.273056
748.6845, 0.2597580
749.1666, 0.4130710
749.6487, 0.9926070
750.1309, 1.534302
750.6130, 1.378830
751.0951, 0.4599690
751.5772, 0.1751860
752.0593, 1.116173
752.5414, 1.865585
753.0236, 2.042572
753.5057, 1.946922
753.9878, 1.702583
754.4699, 1.437759
754.9520, 1.474434
755.4341, 2.118996
755.9163, 2.885971
756.3984, 2.984306
756.8805, 2.589905
757.3626, 2.607559
757.8447, 3.228294
758.3268, 3.498314
758.8090, 2.596283
759.2911, 0.9809800
759.7732, 0.1934740
760.2553, 0.8223040
760.7374, 1.221054
761.2195, 1.240768
761.7017, 1.200264
762.1838, 1.278473
762.6659, 1.404938
763.1480, 1.469627
763.6301, 1.442810
764.1122, 1.361076
764.5944, 1.134895
765.0765, 0.9257430
765.5586, 1.027435
766.0407, 1.409660
766.5228, 1.858215
767.0049, 2.322968
767.4871, 2.675713
767.9692, 2.776382
768.4513, 2.614517
768.9334, 2.419136
769.4155, 2.139145
769.8976, 1.897316
770.3798, 1.721893
770.8619, 1.584297
771.3440, 1.525940
771.8261, 1.510803
772.3082, 1.381660
772.7903, 0.8815990
773.2725, 0.4799880
773.7546, 0.7347110
774.2367, 1.267914
774.7188, 1.339790
775.2009, 0.9654690
775.6830, 0.9184110
776.1652, 1.774055
776.6473, 2.970009
777.1294, 3.034111
777.6115, 1.724495
778.0936, 0.9279560
778.5757, 0.9442830
779.0579, 1.126030
779.5400, 1.151764
780.0221, 1.140648
780.5042, 1.381874
780.9863, 1.096335
781.4684, 1.021990
781.9506, 0.5222780
782.4327, 0.8660130
782.9148, 0.4232410
783.3969, 0.9569240
783.8790, 1.676971
784.3611, 1.358330
784.8433, 0.8254170
785.3254, 0.7800900
785.8075, 1.133759
786.2896, 1.823143
786.7717, 2.859428
787.2538, 3.169540
787.7360, 2.324562
788.2181, 1.239815
788.7002, 0.7262570
789.1823, 0.7186810
789.6644, 0.7906570
790.1465, 1.171707
790.6286, 1.273270
791.1107, 0.7252430
791.5928, 0.1837230
792.0750, 0.1911240
792.5571, 0.5680010
793.0392, 0.9058910
793.5213, 1.047462
794.0034, 1.161491
794.4855, 1.493874
794.9677, 1.867043
795.4498, 1.906342
795.9319, 1.645340
796.4140, 1.328575
796.8961, 1.097115
797.3782, 0.9913480
797.8604, 1.036858
798.3425, 1.266655
798.8246, 1.475121
799.3067, 1.809898
799.7888, 1.889740
800.2709, 1.279442
800.7531, 0.6393360
801.2352, 0.3660740
801.7173, 0.4431300
802.1994, 0.7631760
802.6815, 1.552193
803.1636, 2.106667
803.6458, 1.681641
804.1279, 0.9729770
804.6100, 0.9016340
805.0921, 1.367737
805.5742, 1.598251
806.0563, 1.154152
806.5385, 0.4600370
807.0206, 0.2034990
807.5027, 0.3655930
807.9848, 0.6804200
808.4669, 1.162994
808.9490, 1.693481
809.4312, 2.372108
809.9133, 2.883255
810.3954, 2.596519
810.8775, 1.314827
811.3596, 0.5225300
811.8417, 0.4809880
812.3239, 0.5896070
812.8060, 0.6960140
813.2881, 0.8753050
813.7702, 1.344681
814.2523, 1.989357
814.7344, 2.329117
815.2166, 2.057838
815.6987, 1.539337
816.1808, 0.9598770
816.6629, 0.4739990
817.1450, 0.5494380
817.6271, 1.158241
818.1093, 1.689789
818.5914, 1.765587
819.0735, 1.608704
819.5556, 1.696304
820.0377, 2.119804
820.5198, 2.185265
821.0020, 1.637970
821.4841, 1.169197
821.9662, 1.174965
822.4483, 1.354538
822.9304, 1.407753
823.4125, 1.332542
823.8947, 1.161674
824.3768, 0.7779690
824.8589, 0.4470750
825.3410, 0.2863850
825.8231, 0.2384950
826.3052, 0.2087860
826.7874, 0.2220760
827.2695, 0.4398730
827.7516, 0.9955980
828.2337, 1.595039
828.7158, 1.858223
829.1979, 1.809685
829.6801, 1.401154
830.1622, 0.6265790
830.6443, 0.2505870
831.1264, 0.7517010
831.6085, 1.563797
832.0906, 1.719604
832.5728, 1.093636
833.0549, 0.6869200
833.5370, 0.5241240
834.0191, 0.5630650
834.5012, 0.8854370
834.9833, 1.313927
835.4655, 1.769806
835.9476, 2.211189
836.4297, 2.534676
836.9118, 2.774635
837.3939, 2.787689
837.8760, 2.190552
838.3582, 1.530342
838.8403, 1.571739
839.3224, 2.151672
839.8045, 2.669380
840.2866, 2.814194
840.7687, 2.729225
841.2509, 2.369621
841.7330, 1.787766
842.2151, 1.546280
842.6972, 1.642677
843.1793, 1.703072
843.6614, 1.591850
844.1436, 1.517731
844.6257, 1.772461
845.1078, 2.341873
845.5899, 2.612755
846.0720, 2.459824
846.5541, 2.174797
847.0363, 1.454567
847.5184, 0.9269260
848.0005, 1.296989
848.4826, 2.105415
848.9647, 2.201736
849.4468, 1.083344
849.9290, 0.1764220
850.4111, 0.5097430
850.8932, 1.224274
851.3753, 1.471092
851.8574, 1.368752
852.3395, 1.342827
852.8217, 1.513863
853.3038, 1.667801
853.7859, 1.616615
854.2680, 1.368561
854.7501, 0.7781070
855.2322, 0.1554490
855.7144, 0.4105610
856.1965, 0.3478930
856.6786, 1.247925
857.1607, 1.687531
857.6428, 1.736931
858.1249, 1.600037
858.6071, 1.077034
859.0892, 0.7977680
859.5713, 0.9279170
860.0534, 1.103386
860.5355, 1.221649
861.0176, 1.299156
861.4998, 1.353706
861.9819, 1.389740
862.4640, 1.436096
862.9461, 1.593323
863.4282, 1.665245
863.9103, 1.440964
864.3925, 1.089546
864.8746, 0.7860180
865.3567, 0.5973510
865.8388, 0.6512830
866.3209, 1.042358
866.8030, 1.536438
867.2852, 1.846344
867.7673, 1.989433
868.2494, 1.808006
868.7315, 1.336357
869.2136, 1.027626
869.6957, 1.062813
870.1779, 1.378143
870.6600, 2.007805
871.1421, 2.963417
871.6242, 2.984200
872.1063, 1.185455
872.5884, 9.3769999E-03
873.0705, 0.2454610
873.5526, 0.8644410
874.0347, 1.526001
874.5168, 2.063049
874.9990, 2.058220
875.4811, 1.199348
875.9632, 0.5519560
876.4453, 0.8074490
876.9274, 1.101532
877.4095, 0.5825960
877.8917, 0.2687760
878.3738, 0.5184630
878.8559, 1.8471001E-02
879.3380, 0.5535890
879.8201, 0.6227420
880.3022, 0.5158690
880.7844, 0.8345950
881.2665, 1.447395
881.7486, 1.908241
882.2307, 2.138870
882.7128, 2.073311
883.1949, 1.632065
883.6771, 1.034729
884.1592, 0.7510530
884.6413, 0.8222430
885.1234, 0.8872450
885.6055, 0.9193270
886.0876, 1.015282
886.5698, 1.264862
887.0519, 1.535248
887.5340, 1.731140
888.0161, 1.840080
888.4982, 1.697960
888.9803, 0.9084170
889.4625, 0.4273610
889.9446, 0.5731890
890.4267, 0.9312060
890.9088, 1.444313
891.3909, 1.887566
891.8730, 1.766197
892.3552, 0.9134750
892.8373, 0.2686920
893.3194, 0.6682890
893.8015, 1.376129
894.2836, 1.773537
894.7657, 1.823021
895.2479, 1.287094
895.7300, 0.2596510
896.2121, 0.4848250
896.6942, 0.3463820
897.1763, 0.3489530
897.6584, 1.202766
898.1406, 0.8024488
898.6227, 0.8447300
899.1048, 0.6465840
899.5869, 0.4031140
900.0690, 0.3608780
900.5511, 0.2423400
901.0333, 0.6351090
901.5154, 0.8042530
901.9975, 1.098679
902.4796, 1.720993
902.9617, 2.090981
903.4438, 1.886246
903.9260, 1.606583
904.4081, 1.729027
904.8902, 2.025154
905.3723, 1.833870
905.8544, 0.8011700
906.3365, 0.1037670
906.8187, 0.2330320
907.3008, 0.5639880
907.7829, 0.7584840
908.2650, 0.9054640
908.7471, 1.241013
909.2292, 1.737854
909.7114, 1.993179
910.1935, 1.598381
910.6756, 1.132858
911.1577, 1.321617
911.6398, 1.805161
912.1219, 1.874474
912.6041, 1.539963
913.0862, 1.246063
913.5683, 1.197922
914.0504, 1.100463
914.5325, 1.307556
915.0146, 1.280853
915.4968, 1.436432
915.9789, 1.786789
916.4610, 1.955528
916.9431, 1.825661
917.4252, 1.606285
917.9073, 1.475182
918.3895, 1.384949
918.8716, 1.136597
919.3537, 0.5494920
919.8358, 0.2576900
920.3179, 0.3120570
920.8000, 0.5915910
921.2822, 1.372803
921.7643, 2.144791
922.2464, 2.287262
922.7285, 1.815712
923.2106, 1.339355
923.6927, 0.9955750
924.1749, 0.5831680
924.6570, 0.4639510
925.1391, 1.143486
925.6212, 0.1556700
926.1033, 1.689903
926.5854, 2.589142
927.0676, 1.995979
927.5497, 1.195587
928.0318, 0.9078750
928.5139, 0.9346470
928.9960, 1.327393
929.4781, 1.792809
929.9603, 1.647705
930.4424, 0.9091800
930.9245, 0.3458710
931.4066, 0.4624790
931.8887, 0.8970950
932.3708, 1.087791
932.8530, 1.106155
933.3351, 1.359505
933.8172, 1.833794
934.2993, 1.840080
934.7814, 1.079353
935.2635, 0.2126010
935.7457, 6.8512000E-02
936.2278, 0.1691130
936.7099, 0.6893460
937.1920, 1.660278
937.6741, 1.953125
938.1563, 1.071358
938.6384, 0.3369670
939.1205, 0.6167600
939.6026, 1.388382
940.0847, 1.652451
940.5668, 1.245949
941.0490, 1.201218
941.5311, 1.979485
942.0132, 2.477226
942.4953, 2.275261
942.9774, 1.916763
943.4595, 1.850227
943.9417, 1.948692
944.4238, 1.776535
944.9059, 1.105118
945.3880, 0.6656650
945.8701, 0.9375230
946.3522, 1.288063
946.8344, 1.244469
947.3165, 1.049965
947.7986, 1.118622
948.2807, 1.439438
948.7628, 1.621254
949.2449, 1.428551
949.7271, 1.126106
950.2092, 0.7737730
950.6913, 0.4786910
951.1734, 0.5568470
951.6555, 0.9107820
952.1376, 1.160675
952.6198, 1.178650
953.1019, 1.116997
953.5840, 1.150429
954.0661, 1.140472
954.5482, 0.7150270
955.0303, 3.0670001E-03
955.5124, 0.2120210
955.9945, 0.1997220
956.4766, 0.5527270
956.9587, 0.4639970
957.4409, 0.2116390
957.9230, 0.2661820
958.4051, 0.6539080
958.8872, 0.9740680
959.3693, 1.207397
959.8514, 1.469597
960.3336, 1.845673
960.8157, 2.120415
961.2978, 2.141136
961.7799, 1.930626
962.2620, 1.501877
962.7441, 0.6094130
963.2263, 0.2656170
963.7084, 0.9738160
964.1905, 1.552032
964.6726, 1.531403
965.1547, 1.389290
965.6368, 1.574608
966.1190, 2.009155
966.6011, 2.286652
967.0832, 2.338783
967.5653, 2.267807
968.0474, 1.868286
968.5295, 1.595940
969.0117, 1.884064
969.4938, 2.360458
969.9759, 2.519524
970.4580, 2.319061
970.9401, 2.062897
971.4222, 1.906090
971.9044, 1.691872
972.3865, 1.082504
972.8686, 0.5529250
973.3507, 0.7957990
973.8328, 1.507759
974.3149, 1.961586
974.7971, 1.934586
975.2792, 1.648453
975.7613, 1.121094
976.2434, 0.6037290
976.7255, 0.4381480
977.2076, 0.5375290
977.6898, 0.8056870
978.1719, 1.165970
978.6540, 1.343361
979.1361, 1.207451
979.6182, 1.008194
980.1003, 1.079208
980.5825, 1.329002
981.0646, 1.435760
981.5467, 1.420593
982.0288, 1.472687
982.5109, 1.597176
982.9930, 1.654350
983.4752, 1.671074
983.9573, 1.593193
984.4394, 1.353493
984.9215, 0.9500810
985.4036, 0.7666400
985.8857, 0.8400730
986.3679, 0.9167940
986.8500, 0.9219820
987.3321, 0.9453430
987.8142, 1.069496
988.2963, 1.257919
988.7784, 1.390213
989.2606, 1.440399
989.7427, 1.558876
990.2248, 1.870621
990.7069, 2.019745
991.1890, 1.819565
991.6711, 1.494675
992.1533, 1.233040
992.6354, 1.030785
993.1175, 0.8629380
993.5996, 0.6627960
994.0817, 0.6179890
994.5638, 1.003563
995.0460, 1.207214
995.5281, 0.8344350
996.0102, 0.2739410
996.4923, 0.1380690
996.9744, 0.3614200
997.4565, 0.3002010
997.9387, 0.2977140
998.4208, 0.7910770
998.9029, 1.062531
999.3850, 1.133667
999.8671, 0.9062810
1000.349, 0.5426640
1000.831, 0.2100370
1001.313, 4.3999001E-02
1001.796, 0.1195220
1002.278, 6.4925998E-02
1002.760, 0.3787460
1003.242, 0.8356320
1003.724, 1.314705
1004.206, 1.849953
1004.688, 2.271469
1005.170, 2.252968
1005.653, 1.742645
1006.135, 1.063606
1006.617, 0.1970370
1007.099, 0.4591600
1007.581, 0.4916530
1008.063, 0.1051330
1008.545, 0.6075440
1009.027, 1.453842
1009.509, 2.045578
1009.992, 2.238045
1010.474, 2.093582
1010.956, 1.461205
1011.438, 0.7511140
1011.920, 0.5879970
1012.402, 0.8324890
1012.884, 1.383186
1013.366, 2.040314
1013.849, 1.990768
1014.331, 0.8747790
1014.813, 0.2183460
1015.295, 9.0378001E-02
1015.777, 1.204941
1016.259, 1.659828
1016.741, 1.552322
1017.223, 1.289909
1017.705, 0.9647670
1018.188, 0.8409120
1018.670, 1.065735
1019.152, 1.354622
1019.634, 1.314209
1020.116, 0.9996570
1020.598, 0.5627900
1021.080, 2.4094000E-02
1021.562, 8.2984999E-02
1022.044, 0.9112090
1022.527, 1.460152
1023.009, 0.9906310
1023.491, 0.1680300
1023.973, 7.8598000E-02
1024.455, 0.6748350
1024.937, 1.220444
1025.419, 1.750023
1025.901, 1.835388
1026.384, 1.265747
1026.866, 0.8807830
1027.348, 1.299294
1027.830, 2.004189
1028.312, 1.976952
1028.794, 1.169678
1029.276, 0.8722000
1029.758, 1.261795
1030.240, 1.534050
1030.723, 1.516899
1031.205, 1.408829
1031.687, 1.340019
1032.169, 1.257301
1032.651, 1.005142
1033.133, 0.5136720
1033.615, 0.4703830
1034.097, 1.096634
1034.579, 1.676529
1035.062, 2.259109
1035.544, 2.497787
1036.026, 1.782616
1036.508, 0.6936650
1036.990, 0.5375980
1037.472, 1.551292
1037.954, 2.166473
1038.436, 2.212624
1038.919, 2.120850
1039.401, 1.743469
1039.883, 1.491798
1040.365, 1.673790
1040.847, 2.154739
1041.329, 2.766434
1041.811, 3.674637
1042.293, 3.850006
1042.776, 2.434212
1043.258, 1.469994
1043.740, 1.682251
1044.222, 2.108879
1044.704, 2.286171
1045.186, 2.187263
1045.668, 1.641304
1046.150, 0.4895320
1046.632, 2.0569000E-02
1047.115, 0.8184510
1047.597, 1.517632
1048.079, 1.681534
1048.561, 1.622719
1049.043, 1.418617
1049.525, 1.198097
1050.007, 1.218124
1050.489, 1.542137
1050.971, 1.675629
1051.454, 1.356621
1051.936, 1.062500
1052.418, 0.8661270
1052.900, 0.8095470
1053.382, 1.027725
1053.864, 1.362663
1054.346, 1.534645
1054.828, 1.500763
1055.311, 1.385124
1055.793, 1.047913
1056.275, 0.9113460
1056.757, 1.420357
1057.239, 1.863014
1057.721, 1.503639
1058.203, 0.7624440
1058.685, 0.3830340
1059.167, 0.4798740
1059.650, 0.7743150
1060.132, 1.411499
1060.614, 1.935951
1061.096, 2.122711
1061.578, 2.187050
1062.060, 2.316658
1062.542, 2.430428
1063.024, 2.314980
1063.506, 1.964897
1063.989, 1.742897
1064.471, 2.040443
1064.953, 2.086929
1065.435, 1.340302
1065.917, 0.5465850
1066.399, 0.1987610
1066.881, 0.1729050
1067.363, 0.3007280
1067.846, 0.5179140
1068.328, 0.6364820
1068.810, 0.5014500
1069.292, 0.4055100
1069.774, 0.5768590
1070.256, 0.7380520
1070.738, 0.6011960
1071.220, 0.3652270
1071.703, 0.3908160
1072.185, 0.6594920
1072.667, 0.7119060
1073.149, 0.2077480
1073.631, 3.6612999E-02
1074.113, 0.7753750
1074.595, 1.555443
1075.077, 1.324478
1075.559, 0.6976930
1076.042, 0.5798800
1076.524, 0.9536440
1077.006, 1.133575
1077.488, 0.8215870
1077.970, 0.5050740
1078.452, 0.4984740
1078.934, 0.4673770
1079.416, 8.5831001E-02
1079.898, 0.6011200
1080.380, 0.1907730
1080.863, 0.8972240
1081.345, 1.513351
1081.827, 1.175682
1082.309, 1.012001
1082.791, 2.003197
1083.273, 2.766068
1083.755, 2.022636
1084.237, 0.9368900
1084.720, 1.086487
1085.202, 2.059349
1085.684, 2.335899
1086.166, 1.438217
1086.648, 0.6777040
1087.130, 0.6861650
1087.612, 0.8733980
1088.094, 1.036346
1088.577, 1.145439
1089.059, 1.241348
1089.541, 1.256233
1090.023, 0.9681930
1090.505, 0.3292240
1090.987, 5.3070001E-02
1091.469, 0.3816450
1091.951, 0.6745380
1092.433, 0.1008000
1092.916, 0.4670720
1093.398, 0.1861500
1093.880, 0.5212100
1094.362, 0.8979720
1094.844, 0.8437270
1095.326, 0.7184300
1095.808, 0.6069870
1096.290, 0.4844210
1096.772, 0.2994310
1097.255, 0.1473160
1097.737, 8.5654996E-02
1098.219, 9.3758002E-02
1098.701, 0.1123280
1099.183, 0.1565550
1099.665, 0.3683400
1100.147, 0.9421840
1100.629, 1.343315
1101.112, 1.366508
1101.594, 1.263077
1102.076, 0.9922490
1102.558, 0.7829280
1103.040, 1.008873
1103.522, 1.511726
1104.004, 1.642555
1104.486, 1.180901
1104.969, 0.7398760
1105.451, 0.2150190
1105.933, 1.2772000E-02
1106.415, 0.4906770
1106.897, 1.064606
1107.379, 1.116127
1107.861, 0.8368070
1108.343, 0.7406690
1108.825, 0.8969040
1109.307, 1.050812
1109.790, 1.160393
1110.272, 1.294136
1110.754, 1.660362
1111.236, 1.848259
1111.718, 1.498032
1112.200, 0.8656310
1112.682, 0.2834850
1113.164, 0.2586590
1113.647, 0.3841860
1114.129, 0.2429200
1114.611, 0.7336880
1115.093, 1.085243
1115.575, 1.211159
1116.057, 0.9352490
1116.539, 0.5416720
1117.021, 0.3370130
1117.504, 0.3115540
1117.986, 0.3884740
1118.468, 0.6958160
1118.950, 0.7918170
1119.432, 0.5211260
1119.914, 0.3506770
1120.396, 0.4907150
1120.878, 0.6744310
1121.360, 0.6840970
1121.843, 0.5516430
1122.325, 0.3377690
1122.807, 2.0004001E-02
1123.289, 2.9418999E-02
1123.771, 0.4647600
1124.253, 0.7534870
1124.735, 0.6376650
1125.217, 0.4419560
1125.699, 0.3659130
1126.182, 0.3414610
1126.664, 0.2395710
1127.146, 7.1075000E-02
1127.628, 3.0121000E-02
1128.110, 0.1154330
1128.592, 0.4166950
1129.074, 1.012985
1129.556, 1.217461
1130.039, 0.6536940
1130.521, 4.0245000E-02
1131.003, 0.2183530
1131.485, 0.9569550
1131.967, 1.441597
1132.449, 1.670609
1132.931, 1.640816
1133.413, 1.361229
1133.896, 1.165253
1134.378, 1.154274
1134.860, 1.062172
1135.342, 0.6573490
1135.824, 0.1789090
1136.306, 5.2627999E-02
1136.788, 0.2248230
1137.270, 0.6125340
1137.752, 1.089264
1138.234, 1.154335
1138.717, 0.7685390
1139.199, 0.5581440
1139.681, 0.8522490
1140.163, 1.103516
1140.645, 0.4329760
1141.127, 0.4381100
1141.609, 0.1354600
1142.091, 0.2640186
1142.574, 0.2695798
1143.056, 0.8621750
1143.538, 0.5381700
1144.020, 0.9749300
1144.502, 1.277771
1144.984, 0.6654820
1145.466, 1.7844999E-02
1145.948, 0.4628140
1146.431, 1.249840
1146.913, 1.389572
1147.395, 1.117355
1147.877, 0.9140930
1148.359, 0.8583300
1148.841, 0.8072050
1149.323, 0.7056960
1149.805, 0.6606450
1150.287, 0.8775100
1150.770, 0.9893190
1151.252, 0.6410600
1151.734, 0.2334370
1152.216, 0.1092450
1152.698, 0.3088460
1153.180, 0.9679950
1153.662, 2.107826
1154.144, 2.752525
1154.626, 2.311684
1155.109, 1.702888
1155.591, 0.8729020
1156.073, 0.3593290
1156.555, 0.8018040
1157.037, 1.555244
1157.519, 1.807037
1158.001, 1.554955
1158.483, 1.177536
1158.966, 0.5222780
1159.448, 0.1417690
1159.930, 0.1132130
1160.412, 0.3092270
1160.894, 0.9221420
1161.376, 1.491722
1161.858, 1.626778
1162.340, 1.508934
1162.822, 1.560959
1163.305, 1.825058
1163.787, 1.748764
1164.269, 1.062935
1164.751, 0.9071960
1165.233, 1.660141
1165.715, 2.263245
1166.197, 2.176033
1166.679, 1.839668
1167.161, 1.780716
1167.644, 1.623358
1168.126, 1.794228
1168.608, 1.434326
1169.090, 1.237999
1169.572, 1.224762
1170.054, 1.495186
1170.536, 2.064934
1171.018, 2.312424
1171.500, 1.807045
1171.983, 1.060448
1172.465, 0.8559420
1172.947, 0.9965970
1173.429, 0.7825470
1173.911, 0.3303530
1174.393, 1.9173000E-02
1174.875, 8.4206000E-02
1175.357, 7.8162998E-02
1175.840, 0.5069430
1176.322, 0.9473950
1176.804, 1.239929
1177.286, 1.328049
1177.768, 0.8597720
1178.250, 0.3518830
1178.732, 0.8655550
1179.214, 1.803535
1179.697, 1.738411
1180.179, 0.7320330
1180.661, 0.1236880
1181.143, 0.5049210
1181.625, 1.041550
1182.107, 1.186859
1182.589, 1.355545
1183.071, 2.060516
1183.553, 2.698914
1184.036, 2.543152
1184.518, 1.931946
1185.000, 1.771713
1185.482, 2.146584
1185.964, 2.116463
1186.446, 1.067131
1186.928, 0.2533800
1187.410, 0.2394560
1187.892, 0.3072660
1188.375, 0.3783570
1188.857, 1.267670
1189.339, 1.988861
1189.821, 2.479462
1190.303, 2.507065
1190.785, 1.983513
1191.267, 1.514267
1191.749, 1.024239
1192.232, 0.8101350
1192.714, 1.009727
1193.196, 1.227448
1193.678, 1.258179
1194.160, 1.216034
1194.642, 1.238579
1195.124, 1.309586
1195.606, 1.390312
1196.089, 1.473999
1196.571, 1.369598
1197.053, 1.081581
1197.535, 0.8337710
1198.017, 0.6905210
1198.499, 0.7410430
1198.981, 1.014999
1199.463, 1.490128
1199.945, 2.324631
1200.427, 3.039055
1200.910, 2.153320
1201.392, 2.900104
1201.874, 0.9021990
1202.356, 2.471344
1202.838, 2.683777
1203.320, 1.050743
1203.802, 0.1893160
1204.284, 0.4026110
1204.767, 1.323135
1205.249, 1.447639
1205.731, 1.412651
1206.213, 1.936737
1206.695, 1.644811
1207.177, 2.147812
1207.659, 1.263329
1208.141, 0.5938570
1208.624, 0.2753070
1209.106, 0.5100710
1209.588, 2.002464
1210.070, 3.065811
1210.552, 3.178276
1211.034, 2.995796
1211.516, 2.677666
1211.998, 2.390839
1212.480, 2.275314
1212.963, 2.265434
1213.445, 1.981209
1213.927, 2.114114
1214.409, 1.188255
1214.891, 2.061653
1215.373, 2.436447
1215.855, 1.959732
1216.337, 1.350548
1216.819, 0.9563830
1217.302, 0.7951580
1217.784, 0.9353790
1218.266, 1.258888
1218.748, 1.445015
1219.230, 1.480186
1219.712, 1.195976
1220.194, 0.6705780
1220.676, 0.3374860
1221.159, 0.2774660
1221.641, 0.2698820
1222.123, 0.1924060
1222.605, 0.2132800
1223.087, 0.7015530
1223.569, 1.174294
1224.051, 0.8871540
1224.533, 1.198627
1225.016, 0.5384750
1225.498, 1.006714
1225.980, 1.003326
1226.462, 0.4756390
1226.944, 2.8441999E-02
1227.426, 0.2046360
1227.908, 0.1016850
1228.390, 0.5855940
1228.872, 1.311501
1229.354, 2.230408
1229.837, 2.719833
1230.319, 1.873154
1230.801, 0.4920270
1231.283, 1.5495000E-02
1231.765, 0.4131470
1232.247, 0.6727910
1232.729, 0.7822880
1233.211, 0.7576900
1233.694, 0.5075990
1234.176, 0.5125890
1234.658, 0.9955440
1235.140, 1.391937
1235.622, 1.258575
1236.104, 0.9557650
1236.586, 1.147324
1237.068, 0.8781621
1237.551, 1.508842
1238.033, 0.8044280
1238.515, 0.6511990
1238.997, 1.048111
1239.479, 1.524956
1239.961, 1.872627
1240.443, 1.696281
1240.925, 0.6009600
1241.407, 0.3353350
1241.890, 0.2799680
1242.372, 1.181747
1242.854, 1.079987
1243.336, 0.5644450
1243.818, 0.2209630
1244.300, 0.1655730
1244.782, 0.6179810
1245.264, 1.566879
1245.746, 1.941475
1246.229, 1.055260
1246.711, 0.3447880
1247.193, 0.1101380
1247.675, 7.1180002E-03
1248.157, 6.1028000E-02
1248.639, 6.4521998E-02
1249.121, 5.6412000E-02
1249.603, 0.2142490
1250.085, 0.2170180
1250.568, 8.7585002E-02
1251.050, 0.3171080
1251.532, 0.9806750
1252.014, 1.094246
1252.496, 0.5604100
1252.978, 0.1385730
1253.460, 5.6107000E-02
1253.942, 0.1066130
1254.425, 0.1523360
1254.907, 0.2757260
1255.389, 0.7525180
1255.871, 1.279221
1256.353, 1.184647
1256.835, 0.7696380
1257.317, 0.3659360
1257.799, 7.3265001E-02
1258.281, 6.4323001E-02
1258.764, 0.3512650
1259.246, 0.7369540
1259.728, 1.232803
1260.210, 1.444603
1260.692, 0.8194500
1261.174, 0.3489990
1261.656, 0.7109830
1262.138, 1.193291
1262.620, 1.110359
1263.103, 1.532458
1263.585, 1.131607
1264.067, 1.963203
1264.549, 2.450134
1265.031, 2.557198
1265.513, 2.440392
1265.995, 2.036400
1266.477, 1.589554
1266.960, 1.107803
1267.442, 0.9341510
1267.924, 1.222786
1268.406, 1.424988
1268.888, 0.7043230
1269.370, 0.3121410
1269.852, 0.2242510
1270.334, 1.572121
1270.817, 1.725014
1271.299, 1.004837
1271.781, 0.4329910
1272.263, 0.3085170
1272.745, 0.7344210
1273.227, 1.747070
1273.709, 2.442490
1274.191, 2.054558
1274.673, 1.511070
1275.156, 1.108459
1275.638, 0.8860400
1276.120, 1.021347
1276.602, 1.232025
1277.084, 1.141533
1277.566, 0.6561050
1278.048, 0.5906750
1278.530, 0.7711940
1279.012, 0.9212880
1279.495, 1.041313
1279.977, 1.178749
1280.459, 1.355019
1280.941, 1.514038
1281.423, 1.666634
1281.905, 1.599594
1282.387, 1.096863
1282.869, 0.4584810
1283.352, 7.1373001E-02
1283.834, 5.1799999E-03
1284.316, 0.2366870
1284.798, 0.0000000E+00
##END=



