##NAMES=Cianciulliite
##RRUFFID=R150124
##IDEAL CHEMISTRY=Mg_2_Mn^2+^Zn^2+^_2_(OH)_10_&#183;2-4H_2_O
##LOCALITY=Franklin Mine, Franklin, Sussex Co., New Jersey, USA
##OWNER=RRUFF
##SOURCE=Van King
##DESCRIPTION=Yellow brown aggregate. A cotype sample from Peter J. Dunn.
##STATUS=unconfirmed
##URL=rruff.info/R150124
9.059570e+001, 2.308624e+002
9.107782e+001, 2.249631e+002
9.155994e+001, 2.228766e+002
9.204205e+001, 2.276500e+002
9.252417e+001, 2.341570e+002
9.300629e+001, 2.404694e+002
9.348840e+001, 2.447996e+002
9.397052e+001, 2.459987e+002
9.445264e+001, 2.442270e+002
9.493475e+001, 2.431086e+002
9.541687e+001, 2.416748e+002
9.589898e+001, 2.397533e+002
9.638110e+001, 2.379063e+002
9.686321e+001, 2.368511e+002
9.734533e+001, 2.367474e+002
9.782745e+001, 2.365965e+002
9.830956e+001, 2.351820e+002
9.879168e+001, 2.314014e+002
9.927380e+001, 2.281329e+002
9.975591e+001, 2.261494e+002
1.002380e+002, 2.251546e+002
1.007201e+002, 2.245129e+002
1.012023e+002, 2.240195e+002
1.016844e+002, 2.235179e+002
1.021665e+002, 2.225638e+002
1.026486e+002, 2.204921e+002
1.031307e+002, 2.183680e+002
1.036128e+002, 2.172718e+002
1.040950e+002, 2.173253e+002
1.045771e+002, 2.176197e+002
1.050592e+002, 2.177538e+002
1.055413e+002, 2.176467e+002
1.060234e+002, 2.170821e+002
1.065055e+002, 2.155150e+002
1.069877e+002, 2.133276e+002
1.074698e+002, 2.122169e+002
1.079519e+002, 2.132236e+002
1.084340e+002, 2.140448e+002
1.089161e+002, 2.136171e+002
1.093982e+002, 2.122101e+002
1.098804e+002, 2.105715e+002
1.103625e+002, 2.093994e+002
1.108446e+002, 2.088533e+002
1.113267e+002, 2.079360e+002
1.118088e+002, 2.060417e+002
1.122909e+002, 2.042847e+002
1.127731e+002, 2.031685e+002
1.132552e+002, 2.027737e+002
1.137373e+002, 2.028804e+002
1.142194e+002, 2.032095e+002
1.147015e+002, 2.040571e+002
1.151836e+002, 2.045798e+002
1.156658e+002, 2.048728e+002
1.161479e+002, 2.048273e+002
1.166300e+002, 2.041985e+002
1.171121e+002, 2.028674e+002
1.175942e+002, 2.012090e+002
1.180763e+002, 2.001767e+002
1.185584e+002, 2.000766e+002
1.190406e+002, 1.998094e+002
1.195227e+002, 1.988226e+002
1.200048e+002, 1.973861e+002
1.204869e+002, 1.962476e+002
1.209690e+002, 1.957940e+002
1.214511e+002, 1.958380e+002
1.219333e+002, 1.958782e+002
1.224154e+002, 1.959225e+002
1.228975e+002, 1.959453e+002
1.233796e+002, 1.959139e+002
1.238617e+002, 1.958211e+002
1.243438e+002, 1.957244e+002
1.248260e+002, 1.957480e+002
1.253081e+002, 1.957447e+002
1.257902e+002, 1.955451e+002
1.262723e+002, 1.950443e+002
1.267544e+002, 1.943735e+002
1.272365e+002, 1.938181e+002
1.277187e+002, 1.933632e+002
1.282008e+002, 1.930737e+002
1.286829e+002, 1.931734e+002
1.291650e+002, 1.933807e+002
1.296471e+002, 1.933004e+002
1.301292e+002, 1.926422e+002
1.306114e+002, 1.914563e+002
1.310935e+002, 1.904724e+002
1.315756e+002, 1.897181e+002
1.320577e+002, 1.891534e+002
1.325398e+002, 1.889356e+002
1.330219e+002, 1.889315e+002
1.335041e+002, 1.888348e+002
1.339862e+002, 1.883393e+002
1.344683e+002, 1.873214e+002
1.349504e+002, 1.867573e+002
1.354325e+002, 1.867259e+002
1.359146e+002, 1.869780e+002
1.363968e+002, 1.875136e+002
1.368789e+002, 1.882771e+002
1.373610e+002, 1.890189e+002
1.378431e+002, 1.894771e+002
1.383252e+002, 1.896282e+002
1.388073e+002, 1.894369e+002
1.392895e+002, 1.886486e+002
1.397716e+002, 1.876129e+002
1.402537e+002, 1.866705e+002
1.407358e+002, 1.858631e+002
1.412179e+002, 1.852945e+002
1.417000e+002, 1.852783e+002
1.421821e+002, 1.857655e+002
1.426643e+002, 1.860999e+002
1.431464e+002, 1.859704e+002
1.436285e+002, 1.854622e+002
1.441106e+002, 1.848444e+002
1.445927e+002, 1.839958e+002
1.450748e+002, 1.832776e+002
1.455570e+002, 1.830042e+002
1.460391e+002, 1.831773e+002
1.465212e+002, 1.834988e+002
1.470033e+002, 1.838678e+002
1.474854e+002, 1.843369e+002
1.479675e+002, 1.843297e+002
1.484497e+002, 1.830298e+002
1.489318e+002, 1.816497e+002
1.494139e+002, 1.808103e+002
1.498960e+002, 1.806521e+002
1.503781e+002, 1.809611e+002
1.508602e+002, 1.815383e+002
1.513424e+002, 1.827663e+002
1.518245e+002, 1.833922e+002
1.523066e+002, 1.831452e+002
1.527887e+002, 1.824775e+002
1.532708e+002, 1.816748e+002
1.537529e+002, 1.808584e+002
1.542351e+002, 1.800462e+002
1.547172e+002, 1.792819e+002
1.551993e+002, 1.784553e+002
1.556814e+002, 1.778401e+002
1.561635e+002, 1.776313e+002
1.566456e+002, 1.775835e+002
1.571278e+002, 1.773407e+002
1.576099e+002, 1.767028e+002
1.580920e+002, 1.758498e+002
1.585741e+002, 1.755822e+002
1.590562e+002, 1.764637e+002
1.595383e+002, 1.772061e+002
1.600205e+002, 1.774018e+002
1.605026e+002, 1.772173e+002
1.609847e+002, 1.770319e+002
1.614668e+002, 1.770419e+002
1.619489e+002, 1.772362e+002
1.624310e+002, 1.775109e+002
1.629131e+002, 1.782204e+002
1.633953e+002, 1.786811e+002
1.638774e+002, 1.782525e+002
1.643595e+002, 1.770330e+002
1.648416e+002, 1.760240e+002
1.653237e+002, 1.760589e+002
1.658058e+002, 1.766950e+002
1.662880e+002, 1.768772e+002
1.667701e+002, 1.763073e+002
1.672522e+002, 1.753891e+002
1.677343e+002, 1.744399e+002
1.682164e+002, 1.733812e+002
1.686985e+002, 1.726745e+002
1.691807e+002, 1.730257e+002
1.696628e+002, 1.737954e+002
1.701449e+002, 1.741752e+002
1.706270e+002, 1.736755e+002
1.711091e+002, 1.727101e+002
1.715912e+002, 1.723074e+002
1.720734e+002, 1.728985e+002
1.725555e+002, 1.732577e+002
1.730376e+002, 1.726704e+002
1.735197e+002, 1.716329e+002
1.740018e+002, 1.708669e+002
1.744839e+002, 1.708651e+002
1.749661e+002, 1.714751e+002
1.754482e+002, 1.717641e+002
1.759303e+002, 1.714842e+002
1.764124e+002, 1.711272e+002
1.768945e+002, 1.707598e+002
1.773766e+002, 1.704164e+002
1.778588e+002, 1.701563e+002
1.783409e+002, 1.700487e+002
1.788230e+002, 1.700958e+002
1.793051e+002, 1.699019e+002
1.797872e+002, 1.689257e+002
1.802693e+002, 1.682364e+002
1.807515e+002, 1.684919e+002
1.812336e+002, 1.693677e+002
1.817157e+002, 1.699845e+002
1.821978e+002, 1.695194e+002
1.826799e+002, 1.677884e+002
1.831620e+002, 1.668044e+002
1.836441e+002, 1.669556e+002
1.841263e+002, 1.673195e+002
1.846084e+002, 1.676098e+002
1.850905e+002, 1.677399e+002
1.855726e+002, 1.675632e+002
1.860547e+002, 1.668363e+002
1.865368e+002, 1.654380e+002
1.870190e+002, 1.647652e+002
1.875011e+002, 1.653333e+002
1.879832e+002, 1.662302e+002
1.884653e+002, 1.667690e+002
1.889474e+002, 1.668809e+002
1.894296e+002, 1.669897e+002
1.899117e+002, 1.676533e+002
1.903938e+002, 1.688307e+002
1.908759e+002, 1.694160e+002
1.913580e+002, 1.688817e+002
1.918401e+002, 1.678831e+002
1.923223e+002, 1.671202e+002
1.928044e+002, 1.666819e+002
1.932865e+002, 1.664201e+002
1.937686e+002, 1.662818e+002
1.942507e+002, 1.662272e+002
1.947328e+002, 1.661345e+002
1.952150e+002, 1.659489e+002
1.956971e+002, 1.657020e+002
1.961792e+002, 1.654140e+002
1.966613e+002, 1.650051e+002
1.971434e+002, 1.647436e+002
1.976255e+002, 1.650011e+002
1.981077e+002, 1.655768e+002
1.985898e+002, 1.659411e+002
1.990719e+002, 1.656679e+002
1.995540e+002, 1.649199e+002
2.000361e+002, 1.644192e+002
2.005182e+002, 1.643480e+002
2.010004e+002, 1.643005e+002
2.014825e+002, 1.639451e+002
2.019646e+002, 1.634229e+002
2.024467e+002, 1.630939e+002
2.029288e+002, 1.633270e+002
2.034109e+002, 1.640755e+002
2.038930e+002, 1.645169e+002
2.043752e+002, 1.643577e+002
2.048573e+002, 1.641717e+002
2.053394e+002, 1.642525e+002
2.058215e+002, 1.644963e+002
2.063036e+002, 1.646252e+002
2.067857e+002, 1.643745e+002
2.072679e+002, 1.637189e+002
2.077500e+002, 1.631812e+002
2.082321e+002, 1.627731e+002
2.087142e+002, 1.624816e+002
2.091963e+002, 1.622214e+002
2.096784e+002, 1.620648e+002
2.101606e+002, 1.622182e+002
2.106427e+002, 1.629530e+002
2.111248e+002, 1.643964e+002
2.116069e+002, 1.652289e+002
2.120890e+002, 1.652311e+002
2.125711e+002, 1.648987e+002
2.130533e+002, 1.642018e+002
2.135354e+002, 1.632911e+002
2.140175e+002, 1.624910e+002
2.144996e+002, 1.621179e+002
2.149817e+002, 1.622483e+002
2.154638e+002, 1.622885e+002
2.159460e+002, 1.623356e+002
2.164281e+002, 1.622349e+002
2.169102e+002, 1.617517e+002
2.173923e+002, 1.609847e+002
2.178744e+002, 1.603316e+002
2.183565e+002, 1.601742e+002
2.188387e+002, 1.605855e+002
2.193208e+002, 1.609574e+002
2.198029e+002, 1.612005e+002
2.202850e+002, 1.614815e+002
2.207671e+002, 1.620839e+002
2.212492e+002, 1.629343e+002
2.217314e+002, 1.634819e+002
2.222135e+002, 1.631550e+002
2.226956e+002, 1.618823e+002
2.231777e+002, 1.610113e+002
2.236598e+002, 1.606744e+002
2.241419e+002, 1.606298e+002
2.246240e+002, 1.607660e+002
2.251062e+002, 1.610632e+002
2.255883e+002, 1.614361e+002
2.260704e+002, 1.619253e+002
2.265525e+002, 1.624546e+002
2.270346e+002, 1.625834e+002
2.275167e+002, 1.617948e+002
2.279989e+002, 1.608987e+002
2.284810e+002, 1.608239e+002
2.289631e+002, 1.616422e+002
2.294452e+002, 1.623084e+002
2.299273e+002, 1.617849e+002
2.304094e+002, 1.605168e+002
2.308916e+002, 1.597511e+002
2.313737e+002, 1.600764e+002
2.318558e+002, 1.607815e+002
2.323379e+002, 1.610525e+002
2.328200e+002, 1.608358e+002
2.333021e+002, 1.605560e+002
2.337843e+002, 1.603416e+002
2.342664e+002, 1.602663e+002
2.347485e+002, 1.605304e+002
2.352306e+002, 1.615750e+002
2.357127e+002, 1.626496e+002
2.361948e+002, 1.625314e+002
2.366770e+002, 1.608982e+002
2.371591e+002, 1.594071e+002
2.376412e+002, 1.591493e+002
2.381233e+002, 1.594358e+002
2.386054e+002, 1.594861e+002
2.390875e+002, 1.588868e+002
2.395697e+002, 1.582042e+002
2.400518e+002, 1.585116e+002
2.405339e+002, 1.602077e+002
2.410160e+002, 1.616167e+002
2.414981e+002, 1.619763e+002
2.419802e+002, 1.617969e+002
2.424624e+002, 1.614440e+002
2.429445e+002, 1.609868e+002
2.434266e+002, 1.605760e+002
2.439087e+002, 1.605693e+002
2.443908e+002, 1.612336e+002
2.448729e+002, 1.615581e+002
2.453550e+002, 1.607500e+002
2.458372e+002, 1.597694e+002
2.463193e+002, 1.595634e+002
2.468014e+002, 1.604873e+002
2.472835e+002, 1.618452e+002
2.477656e+002, 1.624326e+002
2.482477e+002, 1.619738e+002
2.487299e+002, 1.613562e+002
2.492120e+002, 1.604732e+002
2.496941e+002, 1.596678e+002
2.501762e+002, 1.592990e+002
2.506583e+002, 1.594608e+002
2.511404e+002, 1.598107e+002
2.516226e+002, 1.597627e+002
2.521047e+002, 1.591403e+002
2.525868e+002, 1.585037e+002
2.530689e+002, 1.577351e+002
2.535510e+002, 1.570805e+002
2.540331e+002, 1.567920e+002
2.545153e+002, 1.569040e+002
2.549974e+002, 1.571523e+002
2.554795e+002, 1.570716e+002
2.559616e+002, 1.562686e+002
2.564437e+002, 1.560210e+002
2.569258e+002, 1.567745e+002
2.574080e+002, 1.576760e+002
2.578901e+002, 1.582035e+002
2.583722e+002, 1.582480e+002
2.588543e+002, 1.580042e+002
2.593364e+002, 1.576991e+002
2.598185e+002, 1.572267e+002
2.603007e+002, 1.569784e+002
2.607828e+002, 1.570454e+002
2.612649e+002, 1.572121e+002
2.617470e+002, 1.573544e+002
2.622291e+002, 1.574558e+002
2.627112e+002, 1.575714e+002
2.631934e+002, 1.577783e+002
2.636755e+002, 1.581367e+002
2.641576e+002, 1.583557e+002
2.646397e+002, 1.584733e+002
2.651218e+002, 1.584520e+002
2.656039e+002, 1.581753e+002
2.660861e+002, 1.577010e+002
2.665682e+002, 1.572565e+002
2.670503e+002, 1.570856e+002
2.675324e+002, 1.572605e+002
2.680145e+002, 1.572407e+002
2.684966e+002, 1.568265e+002
2.689788e+002, 1.564399e+002
2.694609e+002, 1.563990e+002
2.699430e+002, 1.566105e+002
2.704251e+002, 1.566628e+002
2.709072e+002, 1.561511e+002
2.713893e+002, 1.550388e+002
2.718715e+002, 1.546040e+002
2.723536e+002, 1.551544e+002
2.728357e+002, 1.559182e+002
2.733178e+002, 1.568408e+002
2.737999e+002, 1.577435e+002
2.742820e+002, 1.581913e+002
2.747642e+002, 1.578164e+002
2.752463e+002, 1.567141e+002
2.757284e+002, 1.560838e+002
2.762105e+002, 1.563062e+002
2.766926e+002, 1.564657e+002
2.771747e+002, 1.561550e+002
2.776568e+002, 1.555447e+002
2.781389e+002, 1.550531e+002
2.786211e+002, 1.549266e+002
2.791032e+002, 1.550615e+002
2.795853e+002, 1.550069e+002
2.800674e+002, 1.542899e+002
2.805495e+002, 1.539657e+002
2.810316e+002, 1.546317e+002
2.815138e+002, 1.558298e+002
2.819959e+002, 1.567876e+002
2.824780e+002, 1.571902e+002
2.829601e+002, 1.571174e+002
2.834422e+002, 1.566781e+002
2.839243e+002, 1.555319e+002
2.844065e+002, 1.547069e+002
2.848886e+002, 1.546284e+002
2.853707e+002, 1.549404e+002
2.858528e+002, 1.551576e+002
2.863349e+002, 1.551309e+002
2.868170e+002, 1.549048e+002
2.872992e+002, 1.544678e+002
2.877813e+002, 1.536506e+002
2.882634e+002, 1.532059e+002
2.887455e+002, 1.535169e+002
2.892276e+002, 1.541600e+002
2.897097e+002, 1.547136e+002
2.901919e+002, 1.550925e+002
2.906740e+002, 1.551728e+002
2.911561e+002, 1.546003e+002
2.916382e+002, 1.532117e+002
2.921203e+002, 1.525475e+002
2.926024e+002, 1.534558e+002
2.930846e+002, 1.547632e+002
2.935667e+002, 1.552504e+002
2.940488e+002, 1.547715e+002
2.945309e+002, 1.541160e+002
2.950130e+002, 1.540952e+002
2.954951e+002, 1.547010e+002
2.959773e+002, 1.547374e+002
2.964594e+002, 1.533257e+002
2.969415e+002, 1.519346e+002
2.974236e+002, 1.519039e+002
2.979057e+002, 1.531820e+002
2.983878e+002, 1.545857e+002
2.988700e+002, 1.553974e+002
2.993521e+002, 1.555915e+002
2.998342e+002, 1.554512e+002
3.003163e+002, 1.545071e+002
3.007984e+002, 1.536615e+002
3.012805e+002, 1.535553e+002
3.017627e+002, 1.540519e+002
3.022448e+002, 1.545008e+002
3.027269e+002, 1.545471e+002
3.032090e+002, 1.543255e+002
3.036911e+002, 1.542639e+002
3.041732e+002, 1.544487e+002
3.046554e+002, 1.546354e+002
3.051375e+002, 1.547360e+002
3.056196e+002, 1.547580e+002
3.061017e+002, 1.547298e+002
3.065838e+002, 1.546780e+002
3.070659e+002, 1.545520e+002
3.075481e+002, 1.541941e+002
3.080302e+002, 1.535143e+002
3.085123e+002, 1.529914e+002
3.089944e+002, 1.527612e+002
3.094765e+002, 1.527915e+002
3.099586e+002, 1.531223e+002
3.104408e+002, 1.538245e+002
3.109229e+002, 1.545574e+002
3.114050e+002, 1.547698e+002
3.118871e+002, 1.544419e+002
3.123692e+002, 1.543034e+002
3.128513e+002, 1.546991e+002
3.133335e+002, 1.552636e+002
3.138156e+002, 1.556185e+002
3.142977e+002, 1.557115e+002
3.147798e+002, 1.555154e+002
3.152619e+002, 1.548299e+002
3.157440e+002, 1.537114e+002
3.162262e+002, 1.530226e+002
3.167083e+002, 1.531390e+002
3.171904e+002, 1.534940e+002
3.176725e+002, 1.536147e+002
3.181546e+002, 1.534999e+002
3.186367e+002, 1.534349e+002
3.191188e+002, 1.536873e+002
3.196010e+002, 1.541306e+002
3.200831e+002, 1.542021e+002
3.205652e+002, 1.537139e+002
3.210473e+002, 1.530571e+002
3.215294e+002, 1.521556e+002
3.220115e+002, 1.511909e+002
3.224937e+002, 1.509173e+002
3.229758e+002, 1.519217e+002
3.234579e+002, 1.535564e+002
3.239400e+002, 1.540961e+002
3.244221e+002, 1.530994e+002
3.249042e+002, 1.521945e+002
3.253864e+002, 1.520102e+002
3.258685e+002, 1.522996e+002
3.263506e+002, 1.526583e+002
3.268327e+002, 1.530028e+002
3.273148e+002, 1.532247e+002
3.277969e+002, 1.530816e+002
3.282791e+002, 1.525094e+002
3.287612e+002, 1.520344e+002
3.292433e+002, 1.516797e+002
3.297254e+002, 1.515073e+002
3.302075e+002, 1.517311e+002
3.306896e+002, 1.523885e+002
3.311718e+002, 1.529529e+002
3.316539e+002, 1.527726e+002
3.321360e+002, 1.517765e+002
3.326181e+002, 1.513453e+002
3.331002e+002, 1.522932e+002
3.335823e+002, 1.532362e+002
3.340645e+002, 1.527863e+002
3.345466e+002, 1.511267e+002
3.350287e+002, 1.499605e+002
3.355108e+002, 1.506827e+002
3.359929e+002, 1.529354e+002
3.364750e+002, 1.539707e+002
3.369572e+002, 1.528180e+002
3.374393e+002, 1.516303e+002
3.379214e+002, 1.513053e+002
3.384035e+002, 1.516348e+002
3.388856e+002, 1.522009e+002
3.393677e+002, 1.528942e+002
3.398499e+002, 1.535089e+002
3.403320e+002, 1.533821e+002
3.408141e+002, 1.519469e+002
3.412962e+002, 1.509100e+002
3.417783e+002, 1.507349e+002
3.422604e+002, 1.510832e+002
3.427426e+002, 1.516471e+002
3.432247e+002, 1.523380e+002
3.437068e+002, 1.529296e+002
3.441889e+002, 1.530844e+002
3.446710e+002, 1.526111e+002
3.451531e+002, 1.522001e+002
3.456353e+002, 1.520568e+002
3.461174e+002, 1.518401e+002
3.465995e+002, 1.510033e+002
3.470816e+002, 1.496582e+002
3.475637e+002, 1.487496e+002
3.480458e+002, 1.492878e+002
3.485280e+002, 1.513872e+002
3.490101e+002, 1.523340e+002
3.494922e+002, 1.513774e+002
3.499743e+002, 1.502393e+002
3.504564e+002, 1.494342e+002
3.509385e+002, 1.490245e+002
3.514207e+002, 1.491226e+002
3.519028e+002, 1.498696e+002
3.523849e+002, 1.510112e+002
3.528670e+002, 1.514410e+002
3.533491e+002, 1.502759e+002
3.538312e+002, 1.494976e+002
3.543134e+002, 1.495729e+002
3.547955e+002, 1.500681e+002
3.552776e+002, 1.504787e+002
3.557597e+002, 1.506290e+002
3.562418e+002, 1.506865e+002
3.567239e+002, 1.509687e+002
3.572061e+002, 1.518493e+002
3.576882e+002, 1.521466e+002
3.581703e+002, 1.513564e+002
3.586524e+002, 1.504161e+002
3.591345e+002, 1.499946e+002
3.596166e+002, 1.501173e+002
3.600987e+002, 1.503683e+002
3.605808e+002, 1.503217e+002
3.610630e+002, 1.499193e+002
3.615451e+002, 1.497846e+002
3.620272e+002, 1.501138e+002
3.625093e+002, 1.504865e+002
3.629914e+002, 1.507796e+002
3.634735e+002, 1.510131e+002
3.639557e+002, 1.512470e+002
3.644378e+002, 1.515198e+002
3.649199e+002, 1.518171e+002
3.654020e+002, 1.520924e+002
3.658841e+002, 1.525857e+002
3.663662e+002, 1.526923e+002
3.668484e+002, 1.519502e+002
3.673305e+002, 1.510094e+002
3.678126e+002, 1.505427e+002
3.682947e+002, 1.507530e+002
3.687768e+002, 1.512787e+002
3.692589e+002, 1.515660e+002
3.697411e+002, 1.515242e+002
3.702232e+002, 1.514833e+002
3.707053e+002, 1.513652e+002
3.711874e+002, 1.513235e+002
3.716695e+002, 1.515653e+002
3.721516e+002, 1.520047e+002
3.726338e+002, 1.522898e+002
3.731159e+002, 1.520032e+002
3.735980e+002, 1.511744e+002
3.740801e+002, 1.508274e+002
3.745622e+002, 1.514521e+002
3.750443e+002, 1.519715e+002
3.755265e+002, 1.519830e+002
3.760086e+002, 1.516748e+002
3.764907e+002, 1.513247e+002
3.769728e+002, 1.510427e+002
3.774549e+002, 1.508508e+002
3.779370e+002, 1.508902e+002
3.784192e+002, 1.513851e+002
3.789013e+002, 1.514653e+002
3.793834e+002, 1.502943e+002
3.798655e+002, 1.489824e+002
3.803476e+002, 1.484829e+002
3.808297e+002, 1.489770e+002
3.813119e+002, 1.497244e+002
3.817940e+002, 1.499666e+002
3.822761e+002, 1.497165e+002
3.827582e+002, 1.495711e+002
3.832403e+002, 1.497106e+002
3.837224e+002, 1.498454e+002
3.842046e+002, 1.496492e+002
3.846867e+002, 1.492503e+002
3.851688e+002, 1.491095e+002
3.856509e+002, 1.497262e+002
3.861330e+002, 1.507299e+002
3.866151e+002, 1.512992e+002
3.870973e+002, 1.513988e+002
3.875794e+002, 1.511737e+002
3.880615e+002, 1.503116e+002
3.885436e+002, 1.492750e+002
3.890257e+002, 1.487733e+002
3.895078e+002, 1.491156e+002
3.899900e+002, 1.496953e+002
3.904721e+002, 1.499959e+002
3.909542e+002, 1.500516e+002
3.914363e+002, 1.501585e+002
3.919184e+002, 1.505307e+002
3.924005e+002, 1.508381e+002
3.928827e+002, 1.505252e+002
3.933648e+002, 1.495384e+002
3.938469e+002, 1.487389e+002
3.943290e+002, 1.484897e+002
3.948111e+002, 1.486296e+002
3.952932e+002, 1.489886e+002
3.957754e+002, 1.495700e+002
3.962575e+002, 1.501276e+002
3.967396e+002, 1.504854e+002
3.972217e+002, 1.506259e+002
3.977038e+002, 1.505537e+002
3.981859e+002, 1.499667e+002
3.986681e+002, 1.494316e+002
3.991501e+002, 1.494079e+002
3.996323e+002, 1.497753e+002
4.001144e+002, 1.500534e+002
4.005965e+002, 1.499691e+002
4.010786e+002, 1.496941e+002
4.015607e+002, 1.497663e+002
4.020428e+002, 1.505880e+002
4.025250e+002, 1.510027e+002
4.030071e+002, 1.503827e+002
4.034892e+002, 1.494461e+002
4.039713e+002, 1.491253e+002
4.044534e+002, 1.496012e+002
4.049355e+002, 1.502144e+002
4.054177e+002, 1.501645e+002
4.058998e+002, 1.492623e+002
4.063819e+002, 1.486250e+002
4.068640e+002, 1.481056e+002
4.073461e+002, 1.479500e+002
4.078282e+002, 1.486165e+002
4.083104e+002, 1.497616e+002
4.087925e+002, 1.505463e+002
4.092746e+002, 1.504214e+002
4.097567e+002, 1.496003e+002
4.102388e+002, 1.490698e+002
4.107209e+002, 1.490950e+002
4.112031e+002, 1.490884e+002
4.116852e+002, 1.488280e+002
4.121673e+002, 1.486076e+002
4.126494e+002, 1.488667e+002
4.131315e+002, 1.496511e+002
4.136136e+002, 1.504127e+002
4.140958e+002, 1.503489e+002
4.145779e+002, 1.491995e+002
4.150600e+002, 1.482645e+002
4.155421e+002, 1.474090e+002
4.160242e+002, 1.469117e+002
4.165063e+002, 1.470788e+002
4.169885e+002, 1.477103e+002
4.174706e+002, 1.483583e+002
4.179527e+002, 1.487684e+002
4.184348e+002, 1.489610e+002
4.189169e+002, 1.489600e+002
4.193990e+002, 1.486000e+002
4.198812e+002, 1.484196e+002
4.203633e+002, 1.488026e+002
4.208454e+002, 1.493122e+002
4.213275e+002, 1.495094e+002
4.218096e+002, 1.492821e+002
4.222917e+002, 1.489611e+002
4.227739e+002, 1.489497e+002
4.232560e+002, 1.492224e+002
4.237381e+002, 1.492009e+002
4.242202e+002, 1.484870e+002
4.247023e+002, 1.479014e+002
4.251844e+002, 1.483085e+002
4.256666e+002, 1.494119e+002
4.261487e+002, 1.501264e+002
4.266308e+002, 1.498065e+002
4.271129e+002, 1.489231e+002
4.275950e+002, 1.480117e+002
4.280771e+002, 1.470460e+002
4.285593e+002, 1.465111e+002
4.290414e+002, 1.468657e+002
4.295235e+002, 1.477410e+002
4.300056e+002, 1.482827e+002
4.304877e+002, 1.484335e+002
4.309698e+002, 1.483793e+002
4.314520e+002, 1.480839e+002
4.319341e+002, 1.476682e+002
4.324162e+002, 1.473411e+002
4.328983e+002, 1.471446e+002
4.333804e+002, 1.471313e+002
4.338625e+002, 1.474422e+002
4.343447e+002, 1.481448e+002
4.348268e+002, 1.485674e+002
4.353089e+002, 1.484691e+002
4.357910e+002, 1.482703e+002
4.362731e+002, 1.482812e+002
4.367552e+002, 1.484431e+002
4.372374e+002, 1.484982e+002
4.377195e+002, 1.482871e+002
4.382016e+002, 1.478759e+002
4.386837e+002, 1.475187e+002
4.391658e+002, 1.470884e+002
4.396479e+002, 1.468807e+002
4.401301e+002, 1.470801e+002
4.406122e+002, 1.474189e+002
4.410943e+002, 1.476441e+002
4.415764e+002, 1.477072e+002
4.420585e+002, 1.477447e+002
4.425406e+002, 1.479657e+002
4.430227e+002, 1.484674e+002
4.435049e+002, 1.484466e+002
4.439870e+002, 1.470437e+002
4.444691e+002, 1.460088e+002
4.449512e+002, 1.461387e+002
4.454333e+002, 1.469554e+002
4.459154e+002, 1.476498e+002
4.463976e+002, 1.478038e+002
4.468797e+002, 1.476202e+002
4.473618e+002, 1.475732e+002
4.478439e+002, 1.477809e+002
4.483260e+002, 1.477686e+002
4.488081e+002, 1.472475e+002
4.492903e+002, 1.466221e+002
4.497724e+002, 1.460172e+002
4.502545e+002, 1.454981e+002
4.507366e+002, 1.452814e+002
4.512187e+002, 1.457928e+002
4.517008e+002, 1.467953e+002
4.521830e+002, 1.471510e+002
4.526651e+002, 1.465282e+002
4.531472e+002, 1.460340e+002
4.536293e+002, 1.465811e+002
4.541114e+002, 1.476080e+002
4.545935e+002, 1.483359e+002
4.550757e+002, 1.485499e+002
4.555578e+002, 1.485285e+002
4.560399e+002, 1.484890e+002
4.565220e+002, 1.484090e+002
4.570041e+002, 1.481142e+002
4.574862e+002, 1.474220e+002
4.579684e+002, 1.467855e+002
4.584505e+002, 1.470120e+002
4.589326e+002, 1.481048e+002
4.594147e+002, 1.487283e+002
4.598968e+002, 1.483205e+002
4.603789e+002, 1.475806e+002
4.608611e+002, 1.470452e+002
4.613432e+002, 1.467405e+002
4.618253e+002, 1.465549e+002
4.623074e+002, 1.464355e+002
4.627895e+002, 1.463664e+002
4.632716e+002, 1.462773e+002
4.637538e+002, 1.457642e+002
4.642359e+002, 1.457561e+002
4.647180e+002, 1.469302e+002
4.652001e+002, 1.483507e+002
4.656822e+002, 1.490077e+002
4.661643e+002, 1.487396e+002
4.666465e+002, 1.481148e+002
4.671286e+002, 1.477429e+002
4.676107e+002, 1.476507e+002
4.680928e+002, 1.475201e+002
4.685749e+002, 1.472226e+002
4.690570e+002, 1.470234e+002
4.695392e+002, 1.470208e+002
4.700213e+002, 1.471554e+002
4.705034e+002, 1.473865e+002
4.709855e+002, 1.477061e+002
4.714676e+002, 1.479663e+002
4.719497e+002, 1.478288e+002
4.724319e+002, 1.471525e+002
4.729140e+002, 1.467039e+002
4.733961e+002, 1.467826e+002
4.738782e+002, 1.469666e+002
4.743603e+002, 1.469553e+002
4.748424e+002, 1.468145e+002
4.753246e+002, 1.468710e+002
4.758067e+002, 1.476705e+002
4.762888e+002, 1.486739e+002
4.767709e+002, 1.484536e+002
4.772530e+002, 1.467605e+002
4.777351e+002, 1.454356e+002
4.782173e+002, 1.455703e+002
4.786994e+002, 1.464768e+002
4.791815e+002, 1.470479e+002
4.796636e+002, 1.471787e+002
4.801457e+002, 1.472005e+002
4.806278e+002, 1.472429e+002
4.811100e+002, 1.472956e+002
4.815920e+002, 1.473298e+002
4.820742e+002, 1.473383e+002
4.825563e+002, 1.473756e+002
4.830384e+002, 1.475293e+002
4.835205e+002, 1.477867e+002
4.840026e+002, 1.478266e+002
4.844847e+002, 1.475243e+002
4.849669e+002, 1.471541e+002
4.854490e+002, 1.466525e+002
4.859311e+002, 1.461939e+002
4.864132e+002, 1.461679e+002
4.868953e+002, 1.467132e+002
4.873774e+002, 1.474217e+002
4.878596e+002, 1.476163e+002
4.883417e+002, 1.471305e+002
4.888238e+002, 1.465638e+002
4.893059e+002, 1.453486e+002
4.897880e+002, 1.446019e+002
4.902701e+002, 1.452029e+002
4.907523e+002, 1.467054e+002
4.912344e+002, 1.480937e+002
4.917165e+002, 1.487685e+002
4.921986e+002, 1.488853e+002
4.926807e+002, 1.488267e+002
4.931628e+002, 1.485259e+002
4.936450e+002, 1.482362e+002
4.941271e+002, 1.478584e+002
4.946092e+002, 1.476238e+002
4.950913e+002, 1.478384e+002
4.955734e+002, 1.484478e+002
4.960555e+002, 1.489173e+002
4.965377e+002, 1.486828e+002
4.970198e+002, 1.480412e+002
4.975019e+002, 1.479246e+002
4.979840e+002, 1.485085e+002
4.984661e+002, 1.488549e+002
4.989482e+002, 1.482311e+002
4.994304e+002, 1.471147e+002
4.999125e+002, 1.464377e+002
5.003946e+002, 1.463554e+002
5.008767e+002, 1.464412e+002
5.013588e+002, 1.464977e+002
5.018409e+002, 1.465752e+002
5.023231e+002, 1.467954e+002
5.028052e+002, 1.471845e+002
5.032873e+002, 1.476073e+002
5.037694e+002, 1.479852e+002
5.042515e+002, 1.483196e+002
5.047336e+002, 1.482657e+002
5.052158e+002, 1.474881e+002
5.056979e+002, 1.467439e+002
5.061800e+002, 1.461414e+002
5.066621e+002, 1.457923e+002
5.071442e+002, 1.459750e+002
5.076263e+002, 1.467613e+002
5.081085e+002, 1.477027e+002
5.085906e+002, 1.480576e+002
5.090727e+002, 1.475764e+002
5.095548e+002, 1.474106e+002
5.100369e+002, 1.480798e+002
5.105190e+002, 1.485438e+002
5.110012e+002, 1.481691e+002
5.114833e+002, 1.473290e+002
5.119654e+002, 1.467768e+002
5.124475e+002, 1.469198e+002
5.129296e+002, 1.474196e+002
5.134117e+002, 1.476942e+002
5.138939e+002, 1.477281e+002
5.143760e+002, 1.476454e+002
5.148581e+002, 1.472625e+002
5.153402e+002, 1.469920e+002
5.158223e+002, 1.473710e+002
5.163044e+002, 1.482621e+002
5.167866e+002, 1.487524e+002
5.172687e+002, 1.479528e+002
5.177508e+002, 1.468368e+002
5.182329e+002, 1.468482e+002
5.187150e+002, 1.479083e+002
5.191971e+002, 1.486959e+002
5.196793e+002, 1.485301e+002
5.201614e+002, 1.477894e+002
5.206435e+002, 1.473318e+002
5.211256e+002, 1.472760e+002
5.216077e+002, 1.470889e+002
5.220898e+002, 1.464086e+002
5.225720e+002, 1.457518e+002
5.230541e+002, 1.456443e+002
5.235362e+002, 1.460485e+002
5.240183e+002, 1.465480e+002
5.245004e+002, 1.468477e+002
5.249825e+002, 1.469854e+002
5.254647e+002, 1.471725e+002
5.259468e+002, 1.476614e+002
5.264289e+002, 1.478164e+002
5.269110e+002, 1.473608e+002
5.273931e+002, 1.467251e+002
5.278752e+002, 1.461307e+002
5.283574e+002, 1.456809e+002
5.288395e+002, 1.455598e+002
5.293216e+002, 1.461018e+002
5.298037e+002, 1.471409e+002
5.302858e+002, 1.476279e+002
5.307679e+002, 1.473823e+002
5.312501e+002, 1.469972e+002
5.317322e+002, 1.465880e+002
5.322143e+002, 1.462349e+002
5.326964e+002, 1.460650e+002
5.331785e+002, 1.461279e+002
5.336606e+002, 1.461568e+002
5.341428e+002, 1.458776e+002
5.346249e+002, 1.454585e+002
5.351070e+002, 1.452867e+002
5.355891e+002, 1.454245e+002
5.360712e+002, 1.456204e+002
5.365533e+002, 1.456506e+002
5.370355e+002, 1.455771e+002
5.375176e+002, 1.457633e+002
5.379997e+002, 1.466642e+002
5.384818e+002, 1.472474e+002
5.389639e+002, 1.470879e+002
5.394460e+002, 1.465138e+002
5.399282e+002, 1.457836e+002
5.404103e+002, 1.450198e+002
5.408924e+002, 1.445122e+002
5.413745e+002, 1.446379e+002
5.418566e+002, 1.454266e+002
5.423387e+002, 1.458139e+002
5.428209e+002, 1.453391e+002
5.433029e+002, 1.449970e+002
5.437850e+002, 1.451383e+002
5.442672e+002, 1.454409e+002
5.447493e+002, 1.455100e+002
5.452314e+002, 1.452482e+002
5.457135e+002, 1.449142e+002
5.461956e+002, 1.447911e+002
5.466777e+002, 1.448623e+002
5.471599e+002, 1.449507e+002
5.476420e+002, 1.450788e+002
5.481241e+002, 1.451560e+002
5.486062e+002, 1.449975e+002
5.490883e+002, 1.447778e+002
5.495704e+002, 1.448320e+002
5.500526e+002, 1.453890e+002
5.505347e+002, 1.458533e+002
5.510168e+002, 1.457350e+002
5.514989e+002, 1.452763e+002
5.519810e+002, 1.449817e+002
5.524631e+002, 1.449578e+002
5.529453e+002, 1.450328e+002
5.534274e+002, 1.450563e+002
5.539095e+002, 1.450278e+002
5.543916e+002, 1.450000e+002
5.548737e+002, 1.450097e+002
5.553558e+002, 1.449758e+002
5.558380e+002, 1.448258e+002
5.563201e+002, 1.446419e+002
5.568022e+002, 1.445161e+002
5.572843e+002, 1.444752e+002
5.577664e+002, 1.445087e+002
5.582485e+002, 1.446367e+002
5.587307e+002, 1.448672e+002
5.592128e+002, 1.449396e+002
5.596949e+002, 1.447886e+002
5.601770e+002, 1.445624e+002
5.606591e+002, 1.442174e+002
5.611412e+002, 1.438770e+002
5.616234e+002, 1.436819e+002
5.621055e+002, 1.436689e+002
5.625876e+002, 1.437981e+002
5.630697e+002, 1.441946e+002
5.635518e+002, 1.447159e+002
5.640339e+002, 1.447934e+002
5.645161e+002, 1.442706e+002
5.649982e+002, 1.437741e+002
5.654803e+002, 1.437638e+002
5.659624e+002, 1.441597e+002
5.664445e+002, 1.445262e+002
5.669266e+002, 1.449112e+002
5.674088e+002, 1.451993e+002
5.678909e+002, 1.453166e+002
5.683730e+002, 1.453313e+002
5.688551e+002, 1.454005e+002
5.693372e+002, 1.455151e+002
5.698193e+002, 1.453859e+002
5.703015e+002, 1.446705e+002
5.707836e+002, 1.434220e+002
5.712657e+002, 1.427282e+002
5.717478e+002, 1.429878e+002
5.722299e+002, 1.432935e+002
5.727120e+002, 1.435808e+002
5.731942e+002, 1.438025e+002
5.736763e+002, 1.439152e+002
5.741584e+002, 1.439153e+002
5.746405e+002, 1.438390e+002
5.751226e+002, 1.435865e+002
5.756047e+002, 1.432662e+002
5.760869e+002, 1.434512e+002
5.765690e+002, 1.443161e+002
5.770511e+002, 1.449523e+002
5.775332e+002, 1.449066e+002
5.780153e+002, 1.443683e+002
5.784974e+002, 1.435907e+002
5.789796e+002, 1.424586e+002
5.794617e+002, 1.416305e+002
5.799438e+002, 1.414850e+002
5.804259e+002, 1.416965e+002
5.809080e+002, 1.419905e+002
5.813901e+002, 1.423007e+002
5.818723e+002, 1.424777e+002
5.823544e+002, 1.423976e+002
5.828365e+002, 1.421721e+002
5.833186e+002, 1.421890e+002
5.838007e+002, 1.427835e+002
5.842828e+002, 1.431092e+002
5.847650e+002, 1.431981e+002
5.852471e+002, 1.429970e+002
5.857292e+002, 1.421701e+002
5.862113e+002, 1.409932e+002
5.866934e+002, 1.402625e+002
5.871755e+002, 1.405694e+002
5.876577e+002, 1.414540e+002
5.881398e+002, 1.417915e+002
5.886219e+002, 1.414611e+002
5.891040e+002, 1.414663e+002
5.895861e+002, 1.424793e+002
5.900682e+002, 1.434202e+002
5.905504e+002, 1.430202e+002
5.910325e+002, 1.415255e+002
5.915146e+002, 1.405551e+002
5.919967e+002, 1.409859e+002
5.924788e+002, 1.418093e+002
5.929609e+002, 1.423461e+002
5.934431e+002, 1.425764e+002
5.939252e+002, 1.424208e+002
5.944073e+002, 1.418269e+002
5.948894e+002, 1.410658e+002
5.953715e+002, 1.404815e+002
5.958536e+002, 1.400399e+002
5.963358e+002, 1.399558e+002
5.968179e+002, 1.405737e+002
5.973000e+002, 1.411124e+002
5.977821e+002, 1.412600e+002
5.982642e+002, 1.411706e+002
5.987463e+002, 1.410947e+002
5.992285e+002, 1.411155e+002
5.997106e+002, 1.411060e+002
6.001927e+002, 1.408395e+002
6.006748e+002, 1.403314e+002
6.011569e+002, 1.400675e+002
6.016390e+002, 1.401497e+002
6.021212e+002, 1.403024e+002
6.026033e+002, 1.403054e+002
6.030854e+002, 1.403000e+002
6.035675e+002, 1.405555e+002
6.040496e+002, 1.412296e+002
6.045317e+002, 1.417894e+002
6.050139e+002, 1.421041e+002
6.054960e+002, 1.420811e+002
6.059781e+002, 1.413562e+002
6.064602e+002, 1.399912e+002
6.069423e+002, 1.388014e+002
6.074244e+002, 1.383793e+002
6.079066e+002, 1.386031e+002
6.083887e+002, 1.389325e+002
6.088708e+002, 1.396342e+002
6.093529e+002, 1.400493e+002
6.098350e+002, 1.398477e+002
6.103171e+002, 1.396111e+002
6.107993e+002, 1.399344e+002
6.112814e+002, 1.406337e+002
6.117635e+002, 1.409432e+002
6.122456e+002, 1.402497e+002
6.127277e+002, 1.390862e+002
6.132098e+002, 1.386529e+002
6.136920e+002, 1.390259e+002
6.141741e+002, 1.391536e+002
6.146562e+002, 1.385225e+002
6.151383e+002, 1.379049e+002
6.156204e+002, 1.382760e+002
6.161025e+002, 1.394441e+002
6.165847e+002, 1.402405e+002
6.170668e+002, 1.400542e+002
6.175489e+002, 1.397966e+002
6.180310e+002, 1.403093e+002
6.185131e+002, 1.411260e+002
6.189952e+002, 1.411721e+002
6.194774e+002, 1.401519e+002
6.199595e+002, 1.388364e+002
6.204416e+002, 1.381030e+002
6.209237e+002, 1.379684e+002
6.214058e+002, 1.381380e+002
6.218879e+002, 1.390125e+002
6.223701e+002, 1.397037e+002
6.228522e+002, 1.399718e+002
6.233343e+002, 1.400027e+002
6.238164e+002, 1.399669e+002
6.242985e+002, 1.399042e+002
6.247806e+002, 1.397950e+002
6.252628e+002, 1.396292e+002
6.257448e+002, 1.394044e+002
6.262269e+002, 1.390940e+002
6.267090e+002, 1.386884e+002
6.271912e+002, 1.382788e+002
6.276733e+002, 1.378266e+002
6.281554e+002, 1.374681e+002
6.286375e+002, 1.375193e+002
6.291196e+002, 1.380466e+002
6.296017e+002, 1.385544e+002
6.300839e+002, 1.392336e+002
6.305660e+002, 1.396377e+002
6.310481e+002, 1.391728e+002
6.315302e+002, 1.382017e+002
6.320123e+002, 1.376542e+002
6.324944e+002, 1.379598e+002
6.329766e+002, 1.385718e+002
6.334587e+002, 1.385114e+002
6.339408e+002, 1.376042e+002
6.344229e+002, 1.369009e+002
6.349050e+002, 1.363242e+002
6.353871e+002, 1.360990e+002
6.358693e+002, 1.365708e+002
6.363514e+002, 1.373356e+002
6.368335e+002, 1.377498e+002
6.373156e+002, 1.376017e+002
6.377977e+002, 1.373672e+002
6.382798e+002, 1.374104e+002
6.387620e+002, 1.375930e+002
6.392441e+002, 1.376344e+002
6.397262e+002, 1.375078e+002
6.402083e+002, 1.373763e+002
6.406904e+002, 1.373247e+002
6.411725e+002, 1.373704e+002
6.416547e+002, 1.375795e+002
6.421368e+002, 1.382915e+002
6.426189e+002, 1.386528e+002
6.431010e+002, 1.385261e+002
6.435831e+002, 1.381732e+002
6.440652e+002, 1.375264e+002
6.445474e+002, 1.368033e+002
6.450295e+002, 1.364777e+002
6.455116e+002, 1.368336e+002
6.459937e+002, 1.375321e+002
6.464758e+002, 1.380780e+002
6.469579e+002, 1.384719e+002
6.474401e+002, 1.387742e+002
6.479222e+002, 1.390581e+002
6.484043e+002, 1.391117e+002
6.488864e+002, 1.386615e+002
6.493685e+002, 1.378436e+002
6.498506e+002, 1.370765e+002
6.503328e+002, 1.362153e+002
6.508149e+002, 1.356827e+002
6.512970e+002, 1.358281e+002
6.517791e+002, 1.362950e+002
6.522612e+002, 1.367328e+002
6.527433e+002, 1.370605e+002
6.532255e+002, 1.372619e+002
6.537076e+002, 1.373235e+002
6.541897e+002, 1.372511e+002
6.546718e+002, 1.370313e+002
6.551539e+002, 1.365236e+002
6.556360e+002, 1.362087e+002
6.561182e+002, 1.363029e+002
6.566003e+002, 1.364801e+002
6.570824e+002, 1.365558e+002
6.575645e+002, 1.365655e+002
6.580466e+002, 1.366682e+002
6.585287e+002, 1.370572e+002
6.590109e+002, 1.373454e+002
6.594930e+002, 1.369781e+002
6.599751e+002, 1.362219e+002
6.604572e+002, 1.358839e+002
6.609393e+002, 1.361480e+002
6.614214e+002, 1.364885e+002
6.619036e+002, 1.363958e+002
6.623857e+002, 1.359454e+002
6.628678e+002, 1.359509e+002
6.633499e+002, 1.373047e+002
6.638320e+002, 1.379277e+002
6.643141e+002, 1.370153e+002
6.647963e+002, 1.357912e+002
6.652784e+002, 1.351375e+002
6.657605e+002, 1.351011e+002
6.662426e+002, 1.353617e+002
6.667247e+002, 1.358084e+002
6.672068e+002, 1.362953e+002
6.676890e+002, 1.365787e+002
6.681711e+002, 1.366604e+002
6.686532e+002, 1.365544e+002
6.691353e+002, 1.361955e+002
6.696174e+002, 1.358146e+002
6.700995e+002, 1.356483e+002
6.705817e+002, 1.356734e+002
6.710638e+002, 1.356291e+002
6.715459e+002, 1.353208e+002
6.720280e+002, 1.351760e+002
6.725101e+002, 1.356000e+002
6.729922e+002, 1.360958e+002
6.734744e+002, 1.360271e+002
6.739565e+002, 1.354032e+002
6.744386e+002, 1.347805e+002
6.749207e+002, 1.345980e+002
6.754028e+002, 1.347025e+002
6.758849e+002, 1.345648e+002
6.763671e+002, 1.341071e+002
6.768492e+002, 1.337397e+002
6.773313e+002, 1.334383e+002
6.778134e+002, 1.333764e+002
6.782955e+002, 1.339787e+002
6.787776e+002, 1.349665e+002
6.792598e+002, 1.352970e+002
6.797419e+002, 1.342102e+002
6.802240e+002, 1.330828e+002
6.807061e+002, 1.327970e+002
6.811882e+002, 1.329666e+002
6.816703e+002, 1.329780e+002
6.821525e+002, 1.327344e+002
6.826346e+002, 1.325241e+002
6.831167e+002, 1.326170e+002
6.835988e+002, 1.328983e+002
6.840809e+002, 1.327594e+002
6.845630e+002, 1.319030e+002
6.850452e+002, 1.312787e+002
6.855273e+002, 1.310783e+002
6.860094e+002, 1.310918e+002
6.864915e+002, 1.314137e+002
6.869736e+002, 1.318623e+002
6.874557e+002, 1.319157e+002
6.879379e+002, 1.311639e+002
6.884200e+002, 1.303351e+002
6.889021e+002, 1.302029e+002
6.893842e+002, 1.304677e+002
6.898663e+002, 1.303882e+002
6.903484e+002, 1.298363e+002
6.908306e+002, 1.292361e+002
6.913127e+002, 1.289041e+002
6.917948e+002, 1.288091e+002
6.922769e+002, 1.288041e+002
6.927590e+002, 1.291748e+002
6.932411e+002, 1.291667e+002
6.937233e+002, 1.281790e+002
6.942054e+002, 1.273475e+002
6.946875e+002, 1.277047e+002
6.951696e+002, 1.287719e+002
6.956517e+002, 1.292124e+002
6.961339e+002, 1.283129e+002
6.966160e+002, 1.269992e+002
6.970981e+002, 1.261892e+002
6.975802e+002, 1.258172e+002
6.980623e+002, 1.257290e+002
6.985444e+002, 1.259276e+002
6.990266e+002, 1.260394e+002
6.995087e+002, 1.257727e+002
6.999908e+002, 1.252339e+002
7.004729e+002, 1.248342e+002
7.009550e+002, 1.246699e+002
7.014371e+002, 1.245014e+002
7.019193e+002, 1.244239e+002
7.024014e+002, 1.242497e+002
7.028835e+002, 1.237015e+002
7.033656e+002, 1.229920e+002
7.038477e+002, 1.225878e+002
7.043298e+002, 1.227091e+002
7.048120e+002, 1.230275e+002
7.052941e+002, 1.232231e+002
7.057762e+002, 1.232825e+002
7.062583e+002, 1.230877e+002
7.067404e+002, 1.225923e+002
7.072225e+002, 1.220798e+002
7.077046e+002, 1.216502e+002
7.081867e+002, 1.213595e+002
7.086688e+002, 1.213866e+002
7.091509e+002, 1.219082e+002
7.096331e+002, 1.222769e+002
7.101152e+002, 1.224703e+002
7.105973e+002, 1.224804e+002
7.110794e+002, 1.222001e+002
7.115615e+002, 1.217609e+002
7.120436e+002, 1.213449e+002
7.125258e+002, 1.210210e+002
7.130079e+002, 1.208488e+002
7.134900e+002, 1.210421e+002
7.139721e+002, 1.214841e+002
7.144542e+002, 1.214142e+002
7.149363e+002, 1.206961e+002
7.154185e+002, 1.202243e+002
7.159006e+002, 1.205316e+002
7.163827e+002, 1.211826e+002
7.168648e+002, 1.214251e+002
7.173469e+002, 1.211871e+002
7.178290e+002, 1.210277e+002
7.183112e+002, 1.211259e+002
7.187933e+002, 1.211708e+002
7.192754e+002, 1.209749e+002
7.197575e+002, 1.206423e+002
7.202396e+002, 1.202929e+002
7.207217e+002, 1.199761e+002
7.212039e+002, 1.197495e+002
7.216860e+002, 1.197001e+002
7.221681e+002, 1.197799e+002
7.226502e+002, 1.197983e+002
7.231323e+002, 1.197491e+002
7.236144e+002, 1.196829e+002
7.240966e+002, 1.195790e+002
7.245787e+002, 1.195208e+002
7.250608e+002, 1.196569e+002
7.255429e+002, 1.199824e+002
7.260250e+002, 1.201612e+002
7.265071e+002, 1.200097e+002
7.269893e+002, 1.199106e+002
7.274714e+002, 1.201694e+002
7.279535e+002, 1.204554e+002
7.284356e+002, 1.203322e+002
7.289177e+002, 1.198034e+002
7.293998e+002, 1.192415e+002
7.298820e+002, 1.189180e+002
7.303641e+002, 1.187396e+002
7.308462e+002, 1.184171e+002
7.313283e+002, 1.179345e+002
7.318104e+002, 1.178045e+002
7.322925e+002, 1.181576e+002
7.327747e+002, 1.188360e+002
7.332568e+002, 1.200786e+002
7.337389e+002, 1.215789e+002
7.342210e+002, 1.218272e+002
7.347031e+002, 1.196178e+002
7.351852e+002, 1.180276e+002
7.356674e+002, 1.181816e+002
7.361495e+002, 1.187813e+002
7.366316e+002, 1.188023e+002
7.371137e+002, 1.183033e+002
7.375958e+002, 1.177711e+002
7.380779e+002, 1.174344e+002
7.385601e+002, 1.172526e+002
7.390422e+002, 1.172234e+002
7.395243e+002, 1.173224e+002
7.400064e+002, 1.172954e+002
7.404885e+002, 1.170976e+002
7.409706e+002, 1.168816e+002
7.414528e+002, 1.166899e+002
7.419349e+002, 1.165659e+002
7.424170e+002, 1.166831e+002
7.428991e+002, 1.172493e+002
7.433812e+002, 1.173348e+002
7.438633e+002, 1.161535e+002
7.443455e+002, 1.152154e+002
7.448276e+002, 1.155277e+002
7.453097e+002, 1.165279e+002
7.457918e+002, 1.174010e+002
7.462739e+002, 1.178796e+002
7.467560e+002, 1.180083e+002
7.472382e+002, 1.176681e+002
7.477203e+002, 1.170368e+002
7.482024e+002, 1.166300e+002
7.486845e+002, 1.164480e+002
7.491666e+002, 1.165461e+002
7.496487e+002, 1.170696e+002
7.501309e+002, 1.175563e+002
7.506130e+002, 1.173474e+002
7.510951e+002, 1.163762e+002
7.515772e+002, 1.160394e+002
7.520593e+002, 1.169287e+002
7.525414e+002, 1.176267e+002
7.530236e+002, 1.177525e+002
7.535057e+002, 1.176059e+002
7.539878e+002, 1.173095e+002
7.544699e+002, 1.169927e+002
7.549520e+002, 1.169781e+002
7.554341e+002, 1.175721e+002
7.559163e+002, 1.182893e+002
7.563984e+002, 1.183381e+002
7.568805e+002, 1.178944e+002
7.573626e+002, 1.178630e+002
7.578447e+002, 1.184349e+002
7.583268e+002, 1.186563e+002
7.588090e+002, 1.177059e+002
7.592911e+002, 1.160411e+002
7.597732e+002, 1.152047e+002
7.602553e+002, 1.157860e+002
7.607374e+002, 1.161375e+002
7.612195e+002, 1.161102e+002
7.617017e+002, 1.160307e+002
7.621838e+002, 1.160624e+002
7.626659e+002, 1.161426e+002
7.631480e+002, 1.161612e+002
7.636301e+002, 1.160884e+002
7.641122e+002, 1.159609e+002
7.645944e+002, 1.156892e+002
7.650765e+002, 1.154409e+002
7.655586e+002, 1.155256e+002
7.660407e+002, 1.159046e+002
7.665228e+002, 1.163439e+002
7.670049e+002, 1.167650e+002
7.674871e+002, 1.170724e+002
7.679692e+002, 1.171273e+002
7.684513e+002, 1.169197e+002
7.689334e+002, 1.166787e+002
7.694155e+002, 1.163534e+002
7.698976e+002, 1.160738e+002
7.703798e+002, 1.158779e+002
7.708619e+002, 1.157264e+002
7.713440e+002, 1.156378e+002
7.718261e+002, 1.155806e+002
7.723082e+002, 1.154096e+002
7.727903e+002, 1.148881e+002
7.732725e+002, 1.144888e+002
7.737546e+002, 1.147240e+002
7.742367e+002, 1.152163e+002
7.747188e+002, 1.152475e+002
7.752009e+002, 1.148327e+002
7.756830e+002, 1.147454e+002
7.761652e+002, 1.155604e+002
7.766473e+002, 1.167161e+002
7.771294e+002, 1.167406e+002
7.776115e+002, 1.153916e+002
7.780936e+002, 1.145585e+002
7.785757e+002, 1.145487e+002
7.790579e+002, 1.147144e+002
7.795400e+002, 1.147231e+002
7.800221e+002, 1.146859e+002
7.805042e+002, 1.148968e+002
7.809863e+002, 1.155305e+002
7.814684e+002, 1.155853e+002
7.819506e+002, 1.139470e+002
7.824327e+002, 1.125296e+002
7.829148e+002, 1.129383e+002
7.833969e+002, 1.142822e+002
7.838790e+002, 1.149662e+002
7.843611e+002, 1.146117e+002
7.848433e+002, 1.140430e+002
7.853254e+002, 1.139620e+002
7.858075e+002, 1.142802e+002
7.862896e+002, 1.149343e+002
7.867717e+002, 1.159355e+002
7.872538e+002, 1.162199e+002
7.877360e+002, 1.153413e+002
7.882181e+002, 1.142221e+002
7.887002e+002, 1.136742e+002
7.891823e+002, 1.136430e+002
7.896644e+002, 1.136847e+002
7.901465e+002, 1.140386e+002
7.906286e+002, 1.141183e+002
7.911107e+002, 1.135393e+002
7.915928e+002, 1.129898e+002
7.920750e+002, 1.129706e+002
7.925571e+002, 1.133198e+002
7.930392e+002, 1.136285e+002
7.935213e+002, 1.137459e+002
7.940034e+002, 1.138394e+002
7.944855e+002, 1.141441e+002
7.949677e+002, 1.144888e+002
7.954498e+002, 1.145053e+002
7.959319e+002, 1.142177e+002
7.964140e+002, 1.139041e+002
7.968961e+002, 1.136702e+002
7.973782e+002, 1.135421e+002
7.978604e+002, 1.135701e+002
7.983425e+002, 1.137614e+002
7.988246e+002, 1.139433e+002
7.993067e+002, 1.142507e+002
7.997888e+002, 1.143037e+002
8.002709e+002, 1.136975e+002
8.007531e+002, 1.130456e+002
8.012352e+002, 1.127708e+002
8.017173e+002, 1.128565e+002
8.021994e+002, 1.131592e+002
8.026815e+002, 1.139669e+002
8.031636e+002, 1.145086e+002
8.036458e+002, 1.140678e+002
8.041279e+002, 1.133365e+002
8.046100e+002, 1.132446e+002
8.050921e+002, 1.136894e+002
8.055742e+002, 1.138933e+002
8.060563e+002, 1.134215e+002
8.065385e+002, 1.127106e+002
8.070206e+002, 1.124341e+002
8.075027e+002, 1.125702e+002
8.079848e+002, 1.128573e+002
8.084669e+002, 1.133126e+002
8.089490e+002, 1.138231e+002
8.094312e+002, 1.144884e+002
8.099133e+002, 1.149737e+002
8.103954e+002, 1.146594e+002
8.108775e+002, 1.133502e+002
8.113596e+002, 1.125305e+002
8.118417e+002, 1.124617e+002
8.123239e+002, 1.125435e+002
8.128060e+002, 1.126231e+002
8.132881e+002, 1.127755e+002
8.137702e+002, 1.132181e+002
8.142523e+002, 1.138361e+002
8.147344e+002, 1.141493e+002
8.152166e+002, 1.138492e+002
8.156987e+002, 1.133030e+002
8.161808e+002, 1.126973e+002
8.166629e+002, 1.121853e+002
8.171450e+002, 1.122372e+002
8.176271e+002, 1.128340e+002
8.181093e+002, 1.133436e+002
8.185914e+002, 1.133952e+002
8.190735e+002, 1.132142e+002
8.195556e+002, 1.132779e+002
8.200377e+002, 1.136773e+002
8.205198e+002, 1.137031e+002
8.210020e+002, 1.131001e+002
8.214841e+002, 1.126040e+002
8.219662e+002, 1.125857e+002
8.224483e+002, 1.127423e+002
8.229304e+002, 1.127735e+002
8.234125e+002, 1.126757e+002
8.238947e+002, 1.124804e+002
8.243768e+002, 1.120716e+002
8.248589e+002, 1.117157e+002
8.253410e+002, 1.115301e+002
8.258231e+002, 1.114574e+002
8.263052e+002, 1.114030e+002
8.267874e+002, 1.113917e+002
8.272695e+002, 1.115850e+002
8.277516e+002, 1.121163e+002
8.282337e+002, 1.126913e+002
8.287158e+002, 1.129300e+002
8.291979e+002, 1.128570e+002
8.296801e+002, 1.124241e+002
8.301622e+002, 1.116257e+002
8.306443e+002, 1.112279e+002
8.311264e+002, 1.117098e+002
8.316085e+002, 1.125004e+002
8.320906e+002, 1.126320e+002
8.325728e+002, 1.119821e+002
8.330549e+002, 1.115531e+002
8.335370e+002, 1.113683e+002
8.340191e+002, 1.113832e+002
8.345012e+002, 1.116816e+002
8.349833e+002, 1.120862e+002
8.354655e+002, 1.125171e+002
8.359476e+002, 1.129368e+002
8.364297e+002, 1.132385e+002
8.369118e+002, 1.134558e+002
8.373939e+002, 1.134460e+002
8.378760e+002, 1.128260e+002
8.383582e+002, 1.121408e+002
8.388403e+002, 1.121281e+002
8.393224e+002, 1.126626e+002
8.398045e+002, 1.131598e+002
8.402866e+002, 1.133456e+002
8.407687e+002, 1.132737e+002
8.412509e+002, 1.128920e+002
8.417330e+002, 1.122865e+002
8.422151e+002, 1.119953e+002
8.426972e+002, 1.120468e+002
8.431793e+002, 1.120847e+002
8.436614e+002, 1.119509e+002
8.441436e+002, 1.118534e+002
8.446257e+002, 1.120848e+002
8.451078e+002, 1.126309e+002
8.455899e+002, 1.128785e+002
8.460720e+002, 1.127027e+002
8.465541e+002, 1.123970e+002
8.470363e+002, 1.116561e+002
8.475184e+002, 1.111075e+002
8.480005e+002, 1.114550e+002
8.484826e+002, 1.122404e+002
8.489647e+002, 1.123141e+002
8.494468e+002, 1.111777e+002
8.499290e+002, 1.102540e+002
8.504111e+002, 1.105671e+002
8.508932e+002, 1.112600e+002
8.513753e+002, 1.114846e+002
8.518574e+002, 1.113595e+002
8.523395e+002, 1.113105e+002
8.528217e+002, 1.114585e+002
8.533038e+002, 1.115894e+002
8.537859e+002, 1.115152e+002
8.542680e+002, 1.112440e+002
8.547501e+002, 1.106306e+002
8.552322e+002, 1.096745e+002
8.557144e+002, 1.093966e+002
8.561965e+002, 1.101320e+002
8.566786e+002, 1.110090e+002
8.571607e+002, 1.114256e+002
8.576428e+002, 1.114520e+002
8.581249e+002, 1.112920e+002
8.586071e+002, 1.107477e+002
8.590892e+002, 1.104481e+002
8.595713e+002, 1.105573e+002
8.600534e+002, 1.107104e+002
8.605355e+002, 1.108051e+002
8.610176e+002, 1.108590e+002
8.614998e+002, 1.108899e+002
8.619819e+002, 1.109023e+002
8.624640e+002, 1.109239e+002
8.629461e+002, 1.110565e+002
8.634282e+002, 1.111048e+002
8.639103e+002, 1.108569e+002
8.643925e+002, 1.104837e+002
8.648746e+002, 1.101595e+002
8.653567e+002, 1.099494e+002
8.658388e+002, 1.099806e+002
8.663209e+002, 1.103481e+002
8.668030e+002, 1.108186e+002
8.672852e+002, 1.110731e+002
8.677673e+002, 1.111181e+002
8.682494e+002, 1.109006e+002
8.687315e+002, 1.104054e+002
8.692136e+002, 1.100745e+002
8.696957e+002, 1.100877e+002
8.701779e+002, 1.103806e+002
8.706600e+002, 1.109874e+002
8.711421e+002, 1.119196e+002
8.716242e+002, 1.119170e+002
8.721063e+002, 1.100949e+002
8.725884e+002, 1.088955e+002
8.730705e+002, 1.091083e+002
8.735526e+002, 1.097032e+002
8.740347e+002, 1.103412e+002
8.745168e+002, 1.108564e+002
8.749990e+002, 1.108294e+002
8.754811e+002, 1.099473e+002
8.759632e+002, 1.092767e+002
8.764453e+002, 1.095090e+002
8.769274e+002, 1.097799e+002
8.774095e+002, 1.092378e+002
8.778917e+002, 1.083619e+002
8.783738e+002, 1.080821e+002
8.788559e+002, 1.085580e+002
8.793380e+002, 1.091074e+002
8.798201e+002, 1.091539e+002
8.803022e+002, 1.090244e+002
8.807844e+002, 1.093205e+002
8.812665e+002, 1.099100e+002
8.817486e+002, 1.103482e+002
8.822307e+002, 1.105561e+002
8.827128e+002, 1.104690e+002
8.831949e+002, 1.100069e+002
8.836771e+002, 1.093889e+002
8.841592e+002, 1.090847e+002
8.846413e+002, 1.091353e+002
8.851234e+002, 1.091788e+002
8.856055e+002, 1.091882e+002
8.860876e+002, 1.092615e+002
8.865698e+002, 1.094884e+002
8.870519e+002, 1.097361e+002
8.875340e+002, 1.099093e+002
8.880161e+002, 1.099959e+002
8.884982e+002, 1.098330e+002
8.889803e+002, 1.090208e+002
8.894625e+002, 1.085171e+002
8.899446e+002, 1.086403e+002
8.904267e+002, 1.089757e+002
8.909088e+002, 1.094662e+002
8.913909e+002, 1.098875e+002
8.918730e+002, 1.097440e+002
8.923552e+002, 1.088686e+002
8.928373e+002, 1.082010e+002
8.933194e+002, 1.085772e+002
8.938015e+002, 1.092620e+002
8.942836e+002, 1.096366e+002
8.947657e+002, 1.096633e+002
8.952479e+002, 1.091046e+002
8.957300e+002, 1.080544e+002
8.962121e+002, 1.072872e+002
8.966942e+002, 1.074032e+002
8.971763e+002, 1.080763e+002
8.976584e+002, 1.089025e+002
8.981406e+002, 1.097921e+002
8.986227e+002, 1.096462e+002
8.991048e+002, 1.082585e+002
8.995869e+002, 1.071858e+002
9.000690e+002, 1.072042e+002
9.005511e+002, 1.077841e+002
9.010333e+002, 1.081547e+002
9.015154e+002, 1.083017e+002
9.019975e+002, 1.085740e+002
9.024796e+002, 1.091742e+002
9.029617e+002, 1.095221e+002
9.034438e+002, 1.092953e+002
9.039260e+002, 1.089936e+002
9.044081e+002, 1.090940e+002
9.048902e+002, 1.093681e+002
9.053723e+002, 1.091548e+002
9.058544e+002, 1.080990e+002
9.063365e+002, 1.073796e+002
9.068187e+002, 1.074869e+002
9.073008e+002, 1.077959e+002
9.077829e+002, 1.079700e+002
9.082650e+002, 1.080952e+002
9.087471e+002, 1.084088e+002
9.092292e+002, 1.088837e+002
9.097114e+002, 1.091171e+002
9.101935e+002, 1.087004e+002
9.106756e+002, 1.082130e+002
9.111577e+002, 1.083799e+002
9.116398e+002, 1.088416e+002
9.121219e+002, 1.088891e+002
9.126041e+002, 1.085328e+002
9.130862e+002, 1.082230e+002
9.135683e+002, 1.081731e+002
9.140504e+002, 1.082440e+002
9.145325e+002, 1.082400e+002
9.150146e+002, 1.081916e+002
9.154968e+002, 1.083255e+002
9.159789e+002, 1.086542e+002
9.164610e+002, 1.088013e+002
9.169431e+002, 1.086498e+002
9.174252e+002, 1.084088e+002
9.179073e+002, 1.082561e+002
9.183895e+002, 1.081443e+002
9.188716e+002, 1.078744e+002
9.193537e+002, 1.072654e+002
9.198358e+002, 1.069521e+002
9.203179e+002, 1.069850e+002
9.208000e+002, 1.072431e+002
9.212822e+002, 1.080029e+002
9.217643e+002, 1.087535e+002
9.222464e+002, 1.088746e+002
9.227285e+002, 1.083817e+002
9.232106e+002, 1.078840e+002
9.236927e+002, 1.075189e+002
9.241749e+002, 1.070852e+002
9.246570e+002, 1.060168e+002
9.251391e+002, 1.053163e+002
9.256212e+002, 1.062838e+002
9.261033e+002, 1.081092e+002
9.265854e+002, 1.089883e+002
9.270676e+002, 1.083750e+002
9.275497e+002, 1.075545e+002
9.280318e+002, 1.072467e+002
9.285139e+002, 1.072534e+002
9.289960e+002, 1.076261e+002
9.294781e+002, 1.080715e+002
9.299603e+002, 1.079064e+002
9.304424e+002, 1.071503e+002
9.309245e+002, 1.065684e+002
9.314066e+002, 1.066651e+002
9.318887e+002, 1.070798e+002
9.323708e+002, 1.072506e+002
9.328530e+002, 1.072491e+002
9.333351e+002, 1.074826e+002
9.338172e+002, 1.079371e+002
9.342993e+002, 1.079236e+002
9.347814e+002, 1.071431e+002
9.352635e+002, 1.062566e+002
9.357457e+002, 1.059709e+002
9.362278e+002, 1.062199e+002
9.367099e+002, 1.067234e+002
9.371920e+002, 1.076748e+002
9.376741e+002, 1.079481e+002
9.381563e+002, 1.070470e+002
9.386384e+002, 1.062925e+002
9.391205e+002, 1.065421e+002
9.396026e+002, 1.072695e+002
9.400847e+002, 1.074932e+002
9.405668e+002, 1.070668e+002
9.410490e+002, 1.070027e+002
9.415311e+002, 1.077616e+002
9.420132e+002, 1.082400e+002
9.424953e+002, 1.080187e+002
9.429774e+002, 1.076409e+002
9.434595e+002, 1.075542e+002
9.439417e+002, 1.076283e+002
9.444238e+002, 1.074272e+002
9.449059e+002, 1.067351e+002
9.453880e+002, 1.062763e+002
9.458701e+002, 1.065290e+002
9.463522e+002, 1.068604e+002
9.468344e+002, 1.067977e+002
9.473165e+002, 1.065846e+002
9.477986e+002, 1.066342e+002
9.482807e+002, 1.069360e+002
9.487628e+002, 1.070988e+002
9.492449e+002, 1.068862e+002
9.497271e+002, 1.065337e+002
9.502092e+002, 1.061293e+002
9.506913e+002, 1.058076e+002
9.511734e+002, 1.058669e+002
9.516555e+002, 1.062020e+002
9.521376e+002, 1.064331e+002
9.526198e+002, 1.064323e+002
9.531019e+002, 1.063519e+002
9.535840e+002, 1.063678e+002
9.540661e+002, 1.063695e+002
9.545482e+002, 1.059471e+002
9.550303e+002, 1.052112e+002
9.555124e+002, 1.049837e+002
9.559945e+002, 1.053771e+002
9.564766e+002, 1.057118e+002
9.569587e+002, 1.056048e+002
9.574409e+002, 1.053450e+002
9.579230e+002, 1.054036e+002
9.584051e+002, 1.057745e+002
9.588872e+002, 1.060765e+002
9.593693e+002, 1.062917e+002
9.598514e+002, 1.065358e+002
9.603336e+002, 1.068938e+002
9.608157e+002, 1.071505e+002
9.612978e+002, 1.071532e+002
9.617799e+002, 1.069247e+002
9.622620e+002, 1.064780e+002
9.627441e+002, 1.055676e+002
9.632263e+002, 1.052059e+002
9.637084e+002, 1.058947e+002
9.641905e+002, 1.064557e+002
9.646726e+002, 1.064186e+002
9.651547e+002, 1.062585e+002
9.656368e+002, 1.064258e+002
9.661190e+002, 1.068412e+002
9.666011e+002, 1.070992e+002
9.670832e+002, 1.071334e+002
9.675653e+002, 1.070445e+002
9.680474e+002, 1.066271e+002
9.685295e+002, 1.063369e+002
9.690117e+002, 1.066072e+002
9.694938e+002, 1.070658e+002
9.699759e+002, 1.072071e+002
9.704580e+002, 1.069889e+002
9.709401e+002, 1.067150e+002
9.714222e+002, 1.065404e+002
9.719044e+002, 1.063084e+002
9.723865e+002, 1.056813e+002
9.728686e+002, 1.051340e+002
9.733507e+002, 1.053592e+002
9.738328e+002, 1.060535e+002
9.743149e+002, 1.064897e+002
9.747971e+002, 1.064451e+002
9.752792e+002, 1.061414e+002
9.757613e+002, 1.055965e+002
9.762434e+002, 1.050616e+002
9.767255e+002, 1.048785e+002
9.772076e+002, 1.049604e+002
9.776898e+002, 1.052123e+002
9.781719e+002, 1.055560e+002
9.786540e+002, 1.057158e+002
9.791361e+002, 1.055623e+002
9.796182e+002, 1.053455e+002
9.801003e+002, 1.053990e+002
9.805825e+002, 1.056313e+002
9.810646e+002, 1.057206e+002
9.815467e+002, 1.056880e+002
9.820288e+002, 1.057227e+002
9.825109e+002, 1.058616e+002
9.829930e+002, 1.059759e+002
9.834752e+002, 1.059878e+002
9.839573e+002, 1.058926e+002
9.844394e+002, 1.056356e+002
9.849215e+002, 1.052149e+002
9.854036e+002, 1.050142e+002
9.858857e+002, 1.050704e+002
9.863679e+002, 1.051299e+002
9.868500e+002, 1.051179e+002
9.873321e+002, 1.051241e+002
9.878142e+002, 1.052311e+002
9.882963e+002, 1.054024e+002
9.887784e+002, 1.055184e+002
9.892606e+002, 1.055457e+002
9.897427e+002, 1.056471e+002
9.902248e+002, 1.059418e+002
9.907069e+002, 1.060739e+002
9.911890e+002, 1.058567e+002
9.916711e+002, 1.055148e+002
9.921533e+002, 1.052362e+002
9.926354e+002, 1.050170e+002
9.931175e+002, 1.048336e+002
9.935996e+002, 1.046236e+002
9.940817e+002, 1.045631e+002
9.945638e+002, 1.049316e+002
9.950460e+002, 1.051182e+002
9.955281e+002, 1.047284e+002
9.960102e+002, 1.041509e+002
9.964923e+002, 1.037226e+002
9.969744e+002, 1.034824e+002
9.974565e+002, 1.035270e+002
9.979387e+002, 1.041085e+002
9.984208e+002, 1.045854e+002
9.989029e+002, 1.048403e+002
9.993850e+002, 1.048949e+002
9.998671e+002, 1.046510e+002
1.000349e+003, 1.042709e+002
1.000831e+003, 1.039218e+002
1.001313e+003, 1.036509e+002
1.001796e+003, 1.035590e+002
1.002278e+003, 1.037272e+002
1.002760e+003, 1.040248e+002
1.003242e+003, 1.044655e+002
1.003724e+003, 1.049284e+002
1.004206e+003, 1.054475e+002
1.004688e+003, 1.058529e+002
1.005170e+003, 1.058183e+002
1.005653e+003, 1.052919e+002
1.006135e+003, 1.045968e+002
1.006617e+003, 1.037142e+002
1.007099e+003, 1.030420e+002
1.007581e+003, 1.029938e+002
1.008063e+003, 1.033649e+002
1.008545e+003, 1.040628e+002
1.009027e+003, 1.048931e+002
1.009509e+003, 1.054685e+002
1.009992e+003, 1.056452e+002
1.010474e+003, 1.054855e+002
1.010956e+003, 1.048379e+002
1.011438e+003, 1.041126e+002
1.011920e+003, 1.039341e+002
1.012402e+003, 1.041632e+002
1.012884e+003, 1.047039e+002
1.013366e+003, 1.053642e+002
1.013849e+003, 1.053006e+002
1.014331e+003, 1.041692e+002
1.014813e+003, 1.030612e+002
1.015295e+003, 1.033561e+002
1.015777e+003, 1.044556e+002
1.016259e+003, 1.048906e+002
1.016741e+003, 1.047678e+002
1.017223e+003, 1.044901e+002
1.017705e+003, 1.041497e+002
1.018188e+003, 1.040106e+002
1.018670e+003, 1.042202e+002
1.019152e+003, 1.044939e+002
1.019634e+003, 1.044383e+002
1.020116e+003, 1.041086e+002
1.020598e+003, 1.036566e+002
1.021080e+003, 1.031039e+002
1.021562e+003, 1.031477e+002
1.022044e+003, 1.039531e+002
1.022527e+003, 1.044469e+002
1.023009e+003, 1.039480e+002
1.023491e+003, 1.031104e+002
1.023973e+003, 1.030060e+002
1.024455e+003, 1.035873e+002
1.024937e+003, 1.041180e+002
1.025419e+003, 1.046327e+002
1.025901e+003, 1.047032e+002
1.026384e+003, 1.041186e+002
1.026866e+003, 1.037187e+002
1.027348e+003, 1.041223e+002
1.027830e+003, 1.048123e+002
1.028312e+003, 1.047702e+002
1.028794e+003, 1.039481e+002
1.029276e+003, 1.036358e+002
1.029758e+003, 1.040106e+002
1.030240e+003, 1.042681e+002
1.030723e+003, 1.042362e+002
1.031205e+003, 1.041134e+002
1.031687e+003, 1.040299e+002
1.032169e+003, 1.039325e+002
1.032651e+003, 1.036657e+002
1.033133e+003, 1.031591e+002
1.033615e+003, 1.030948e+002
1.034097e+003, 1.037062e+002
1.034579e+003, 1.042719e+002
1.035062e+003, 1.048385e+002
1.035544e+003, 1.050303e+002
1.036026e+003, 1.042859e+002
1.036508e+003, 1.031825e+002
1.036990e+003, 1.030120e+002
1.037472e+003, 1.040113e+002
1.037954e+003, 1.046121e+002
1.038436e+003, 1.046439e+002
1.038919e+003, 1.045378e+002
1.039401e+003, 1.041455e+002
1.039883e+003, 1.038783e+002
1.040365e+003, 1.040444e+002
1.040847e+003, 1.045092e+002
1.041329e+003, 1.051048e+002
1.041811e+003, 1.059971e+002
1.042293e+003, 1.061575e+002
1.042776e+003, 1.047271e+002
1.043258e+003, 1.037483e+002
1.043740e+003, 1.039460e+002
1.044222e+003, 1.043581e+002
1.044704e+003, 1.045209e+002
1.045186e+003, 1.044075e+002
1.045668e+003, 1.038471e+002
1.046150e+003, 1.026809e+002
1.046632e+003, 1.021564e+002
1.047115e+003, 1.029811e+002
1.047597e+003, 1.036660e+002
1.048079e+003, 1.038147e+002
1.048561e+003, 1.037383e+002
1.049043e+003, 1.035200e+002
1.049525e+003, 1.032853e+002
1.050007e+003, 1.032912e+002
1.050489e+003, 1.036011e+002
1.050971e+003, 1.037205e+002
1.051454e+003, 1.033874e+002
1.051936e+003, 1.030792e+002
1.052418e+003, 1.028688e+002
1.052900e+003, 1.027982e+002
1.053382e+003, 1.030024e+002
1.053864e+003, 1.033240e+002
1.054346e+003, 1.034928e+002
1.054828e+003, 1.034698e+002
1.055311e+003, 1.033606e+002
1.055793e+003, 1.029915e+002
1.056275e+003, 1.028147e+002
1.056757e+003, 1.033091e+002
1.057239e+003, 1.037380e+002
1.057721e+003, 1.033649e+002
1.058203e+003, 1.026100e+002
1.058685e+003, 1.022178e+002
1.059167e+003, 1.023061e+002
1.059650e+003, 1.025962e+002
1.060132e+003, 1.032207e+002
1.060614e+003, 1.037315e+002
1.061096e+003, 1.039047e+002
1.061578e+003, 1.039555e+002
1.062060e+003, 1.040716e+002
1.062542e+003, 1.041715e+002
1.063024e+003, 1.040426e+002
1.063506e+003, 1.036791e+002
1.063989e+003, 1.034437e+002
1.064471e+003, 1.037288e+002
1.064953e+003, 1.037926e+002
1.065435e+003, 1.030624e+002
1.065917e+003, 1.022603e+002
1.066399e+003, 1.018992e+002
1.066881e+003, 1.018601e+002
1.067363e+003, 1.019747e+002
1.067846e+003, 1.021787e+002
1.068328e+003, 1.022838e+002
1.068810e+003, 1.021352e+002
1.069292e+003, 1.020253e+002
1.069774e+003, 1.021820e+002
1.070256e+003, 1.023284e+002
1.070738e+003, 1.021771e+002
1.071220e+003, 1.019279e+002
1.071703e+003, 1.019404e+002
1.072185e+003, 1.021960e+002
1.072667e+003, 1.022506e+002
1.073149e+003, 1.017327e+002
1.073631e+003, 1.014741e+002
1.074113e+003, 1.022730e+002
1.074595e+003, 1.030400e+002
1.075077e+003, 1.027960e+002
1.075559e+003, 1.021562e+002
1.076042e+003, 1.020254e+002
1.076524e+003, 1.023862e+002
1.077006e+003, 1.025532e+002
1.077488e+003, 1.022283e+002
1.077970e+003, 1.018989e+002
1.078452e+003, 1.018782e+002
1.078934e+003, 1.018340e+002
1.079416e+003, 1.012682e+002
1.079898e+003, 1.007402e+002
1.080380e+003, 1.011382e+002
1.080863e+003, 1.022140e+002
1.081345e+003, 1.028191e+002
1.081827e+003, 1.024708e+002
1.082309e+003, 1.022950e+002
1.082791e+003, 1.032741e+002
1.083273e+003, 1.040249e+002
1.083755e+003, 1.032407e+002
1.084237e+003, 1.021417e+002
1.084720e+003, 1.022793e+002
1.085202e+003, 1.032402e+002
1.085684e+003, 1.035048e+002
1.086166e+003, 1.025952e+002
1.086648e+003, 1.018228e+002
1.087130e+003, 1.018194e+002
1.087612e+003, 1.019948e+002
1.088094e+003, 1.021442e+002
1.088577e+003, 1.022415e+002
1.089059e+003, 1.023256e+002
1.089541e+003, 1.023287e+002
1.090023e+003, 1.020289e+002
1.090505e+003, 1.013782e+002
1.090987e+003, 1.009842e+002
1.091469e+003, 1.014073e+002
1.091951e+003, 1.016886e+002
1.092433e+003, 1.011033e+002
1.092916e+003, 1.005239e+002
1.093398e+003, 1.007936e+002
1.093880e+003, 1.014899e+002
1.094362e+003, 1.018549e+002
1.094844e+003, 1.017884e+002
1.095326e+003, 1.016517e+002
1.095808e+003, 1.015293e+002
1.096290e+003, 1.013958e+002
1.096772e+003, 1.011999e+002
1.097255e+003, 1.010369e+002
1.097737e+003, 1.009644e+002
1.098219e+003, 1.009617e+002
1.098701e+003, 1.009693e+002
1.099183e+003, 1.010028e+002
1.099665e+003, 1.012039e+002
1.100147e+003, 1.017671e+002
1.100629e+003, 1.021576e+002
1.101112e+003, 1.021702e+002
1.101594e+003, 1.020562e+002
1.102076e+003, 1.017737e+002
1.102558e+003, 1.015526e+002
1.103040e+003, 1.017676e+002
1.103522e+003, 1.022600e+002
1.104004e+003, 1.023804e+002
1.104486e+003, 1.019145e+002
1.104969e+003, 1.014631e+002
1.105451e+003, 1.009279e+002
1.105933e+003, 1.006898e+002
1.106415e+003, 1.011830e+002
1.106897e+003, 1.017467e+002
1.107379e+003, 1.017880e+002
1.107861e+003, 1.014985e+002
1.108343e+003, 1.013922e+002
1.108825e+003, 1.015383e+002
1.109307e+003, 1.016821e+002
1.109790e+003, 1.017816e+002
1.110272e+003, 1.019053e+002
1.110754e+003, 1.022615e+002
1.111236e+003, 1.024394e+002
1.111718e+003, 1.020792e+002
1.112200e+003, 1.014368e+002
1.112682e+003, 1.008445e+002
1.113164e+003, 1.002921e+002
1.113647e+003, 1.001565e+002
1.114129e+003, 1.007738e+002
1.114611e+003, 1.012548e+002
1.115093e+003, 1.015966e+002
1.115575e+003, 1.017128e+002
1.116057e+003, 1.014272e+002
1.116539e+003, 1.010240e+002
1.117021e+003, 1.008080e+002
1.117504e+003, 1.007678e+002
1.117986e+003, 1.008336e+002
1.118468e+003, 1.011313e+002
1.118950e+003, 1.012177e+002
1.119432e+003, 1.009374e+002
1.119914e+003, 1.007574e+002
1.120396e+003, 1.008879e+002
1.120878e+003, 1.010618e+002
1.121360e+003, 1.010620e+002
1.121843e+003, 1.009201e+002
1.122325e+003, 1.006968e+002
1.122807e+003, 1.003295e+002
1.123289e+003, 1.003092e+002
1.123771e+003, 1.007938e+002
1.124253e+003, 1.010739e+002
1.124735e+003, 1.009496e+002
1.125217e+003, 1.007449e+002
1.125699e+003, 1.006594e+002
1.126182e+003, 1.006255e+002
1.126664e+003, 1.005141e+002
1.127146e+003, 1.003362e+002
1.127628e+003, 1.002858e+002
1.128110e+003, 1.003617e+002
1.128592e+003, 1.006536e+002
1.129074e+003, 1.012408e+002
1.129556e+003, 1.014352e+002
1.130039e+003, 1.008464e+002
1.130521e+003, 1.002036e+002
1.131003e+003, 1.003729e+002
1.131485e+003, 1.011068e+002
1.131967e+003, 1.015822e+002
1.132449e+003, 1.018020e+002
1.132931e+003, 1.017630e+002
1.133413e+003, 1.014742e+002
1.133896e+003, 1.012690e+002
1.134378e+003, 1.012488e+002
1.134860e+003, 1.011475e+002
1.135342e+003, 1.007335e+002
1.135824e+003, 1.002459e+002
1.136306e+003, 1.001105e+002
1.136788e+003, 1.002736e+002
1.137270e+003, 1.006600e+002
1.137752e+003, 1.011678e+002
1.138234e+003, 1.012382e+002
1.138717e+003, 1.008434e+002
1.139199e+003, 1.006240e+002
1.139681e+003, 1.009091e+002
1.140163e+003, 1.011514e+002
1.140645e+003, 1.004719e+002
1.141127e+003, 9.959188e+001
1.141609e+003, 1.001568e+002
1.142091e+003, 1.014193e+002
1.142574e+003, 1.015960e+002
1.143056e+003, 1.008577e+002
1.143538e+003, 1.005251e+002
1.144020e+003, 1.009533e+002
1.144502e+003, 1.012476e+002
1.144984e+003, 1.006268e+002
1.145466e+003, 9.997068e+001
1.145948e+003, 1.004072e+002
1.146431e+003, 1.011728e+002
1.146913e+003, 1.013037e+002
1.147395e+003, 1.010231e+002
1.147877e+003, 1.008115e+002
1.148359e+003, 1.007479e+002
1.148841e+003, 1.006949e+002
1.149323e+003, 1.005854e+002
1.149805e+003, 1.005321e+002
1.150287e+003, 1.007422e+002
1.150770e+003, 1.008782e+002
1.151252e+003, 1.005355e+002
1.151734e+003, 1.001197e+002
1.152216e+003, 9.998738e+001
1.152698e+003, 1.001789e+002
1.153180e+003, 1.008300e+002
1.153662e+003, 1.019618e+002
1.154144e+003, 1.025985e+002
1.154626e+003, 1.021502e+002
1.155109e+003, 1.015346e+002
1.155591e+003, 1.006981e+002
1.156073e+003, 1.001780e+002
1.156555e+003, 1.006139e+002
1.157037e+003, 1.013606e+002
1.157519e+003, 1.016048e+002
1.158001e+003, 1.013448e+002
1.158483e+003, 1.009595e+002
1.158966e+003, 1.002964e+002
1.159448e+003, 9.990807e+001
1.159930e+003, 9.987173e+001
1.160412e+003, 1.000600e+002
1.160894e+003, 1.006652e+002
1.161376e+003, 1.012271e+002
1.161858e+003, 1.013545e+002
1.162340e+003, 1.012290e+002
1.162822e+003, 1.012734e+002
1.163305e+003, 1.015299e+002
1.163787e+003, 1.014482e+002
1.164269e+003, 1.007536e+002
1.164751e+003, 1.005888e+002
1.165233e+003, 1.013328e+002
1.165715e+003, 1.019285e+002
1.166197e+003, 1.018339e+002
1.166679e+003, 1.014902e+002
1.167161e+003, 1.014232e+002
1.167644e+003, 1.015404e+002
1.168126e+003, 1.014221e+002
1.168608e+003, 1.010550e+002
1.169090e+003, 1.008511e+002
1.169572e+003, 1.008279e+002
1.170054e+003, 1.010751e+002
1.170536e+003, 1.016287e+002
1.171018e+003, 1.018877e+002
1.171500e+003, 1.014017e+002
1.171983e+003, 1.006489e+002
1.172465e+003, 1.004374e+002
1.172947e+003, 1.005711e+002
1.173429e+003, 1.003497e+002
1.173911e+003, 9.988732e+001
1.174393e+003, 9.956846e+001
1.174875e+003, 9.945860e+001
1.175357e+003, 9.961465e+001
1.175840e+003, 1.000368e+002
1.176322e+003, 1.004700e+002
1.176804e+003, 1.007553e+002
1.177286e+003, 1.008366e+002
1.177768e+003, 1.003619e+002
1.178250e+003, 9.984722e+001
1.178732e+003, 1.003541e+002
1.179214e+003, 1.012855e+002
1.179697e+003, 1.012138e+002
1.180179e+003, 1.002013e+002
1.180661e+003, 9.958981e+001
1.181143e+003, 9.996848e+001
1.181625e+003, 1.004986e+002
1.182107e+003, 1.006374e+002
1.182589e+003, 1.007996e+002
1.183071e+003, 1.014981e+002
1.183553e+003, 1.021303e+002
1.184036e+003, 1.019432e+002
1.184518e+003, 1.013250e+002
1.185000e+003, 1.011599e+002
1.185482e+003, 1.015301e+002
1.185964e+003, 1.014947e+002
1.186446e+003, 1.004374e+002
1.186928e+003, 9.961514e+001
1.187410e+003, 9.911602e+001
1.187892e+003, 9.904202e+001
1.188375e+003, 9.972339e+001
1.188857e+003, 1.006077e+002
1.189339e+003, 1.013216e+002
1.189821e+003, 1.018035e+002
1.190303e+003, 1.018205e+002
1.190785e+003, 1.012820e+002
1.191267e+003, 1.007975e+002
1.191749e+003, 1.002980e+002
1.192232e+003, 1.000760e+002
1.192714e+003, 1.002677e+002
1.193196e+003, 1.004763e+002
1.193678e+003, 1.005009e+002
1.194160e+003, 1.004546e+002
1.194642e+003, 1.004723e+002
1.195124e+003, 1.005369e+002
1.195606e+003, 1.006088e+002
1.196089e+003, 1.006824e+002
1.196571e+003, 1.005687e+002
1.197053e+003, 1.002719e+002
1.197535e+003, 1.000163e+002
1.198017e+003, 9.986700e+001
1.198499e+003, 9.991148e+001
1.198981e+003, 1.002083e+002
1.199463e+003, 1.006789e+002
1.199945e+003, 1.015064e+002
1.200427e+003, 1.022115e+002
1.200910e+003, 1.013163e+002
1.201392e+003, 9.976456e+001
1.201874e+003, 1.000525e+002
1.202356e+003, 1.016160e+002
1.202838e+003, 1.018228e+002
1.203320e+003, 1.001859e+002
1.203802e+003, 9.893881e+001
1.204284e+003, 9.952520e+001
1.204767e+003, 1.004402e+002
1.205249e+003, 1.005592e+002
1.205731e+003, 1.005187e+002
1.206213e+003, 1.010376e+002
1.206695e+003, 1.015592e+002
1.207177e+003, 1.012383e+002
1.207659e+003, 1.003487e+002
1.208141e+003, 9.967412e+001
1.208624e+003, 9.935036e+001
1.209106e+003, 9.957997e+001
1.209588e+003, 1.010682e+002
1.210070e+003, 1.021280e+002
1.210552e+003, 1.022362e+002
1.211034e+003, 1.020491e+002
1.211516e+003, 1.017264e+002
1.211998e+003, 1.014099e+002
1.212480e+003, 1.012883e+002
1.212963e+003, 1.012742e+002
1.213445e+003, 1.009858e+002
1.213927e+003, 1.002550e+002
1.214409e+003, 1.001843e+002
1.214891e+003, 1.010526e+002
1.215373e+003, 1.014236e+002
1.215855e+003, 1.009432e+002
1.216337e+003, 1.003304e+002
1.216819e+003, 9.993270e+001
1.217302e+003, 9.976915e+001
1.217784e+003, 9.990725e+001
1.218266e+003, 1.002279e+002
1.218748e+003, 1.004108e+002
1.219230e+003, 1.004428e+002
1.219712e+003, 1.001555e+002
1.220194e+003, 9.962796e+001
1.220676e+003, 9.929284e+001
1.221159e+003, 9.923095e+001
1.221641e+003, 9.922166e+001
1.222123e+003, 9.914262e+001
1.222605e+003, 9.916211e+001
1.223087e+003, 9.964917e+001
1.223569e+003, 1.001209e+002
1.224051e+003, 9.983293e+001
1.224533e+003, 9.933711e+001
1.225016e+003, 9.948299e+001
1.225498e+003, 9.995078e+001
1.225980e+003, 9.994553e+001
1.226462e+003, 9.941434e+001
1.226944e+003, 9.896671e+001
1.227426e+003, 9.873808e+001
1.227908e+003, 9.883446e+001
1.228390e+003, 9.951492e+001
1.228872e+003, 1.002339e+002
1.229354e+003, 1.011459e+002
1.229837e+003, 1.016306e+002
1.230319e+003, 1.007839e+002
1.230801e+003, 9.939597e+001
1.231283e+003, 9.891265e+001
1.231765e+003, 9.930387e+001
1.232247e+003, 9.955674e+001
1.232729e+003, 9.965947e+001
1.233211e+003, 9.962947e+001
1.233694e+003, 9.937253e+001
1.234176e+003, 9.937069e+001
1.234658e+003, 9.984691e+001
1.235140e+003, 1.002367e+002
1.235622e+003, 1.000967e+002
1.236104e+003, 9.978832e+001
1.236586e+003, 1.000158e+002
1.237068e+003, 1.005622e+002
1.237551e+003, 1.003654e+002
1.238033e+003, 9.965493e+001
1.238515e+003, 9.949583e+001
1.238997e+003, 9.988692e+001
1.239479e+003, 1.003580e+002
1.239961e+003, 1.006999e+002
1.240443e+003, 1.005178e+002
1.240925e+003, 9.941682e+001
1.241407e+003, 9.847494e+001
1.241890e+003, 9.908468e+001
1.242372e+003, 9.998058e+001
1.242854e+003, 9.987297e+001
1.243336e+003, 9.935165e+001
1.243818e+003, 9.900241e+001
1.244300e+003, 9.894126e+001
1.244782e+003, 9.940713e+001
1.245264e+003, 1.003505e+002
1.245746e+003, 1.007196e+002
1.246229e+003, 9.982787e+001
1.246711e+003, 9.911189e+001
1.247193e+003, 9.887332e+001
1.247675e+003, 9.876480e+001
1.248157e+003, 9.869112e+001
1.248639e+003, 9.868224e+001
1.249121e+003, 9.879797e+001
1.249603e+003, 9.895059e+001
1.250085e+003, 9.894813e+001
1.250568e+003, 9.881345e+001
1.251050e+003, 9.903770e+001
1.251532e+003, 9.969591e+001
1.252014e+003, 9.980407e+001
1.252496e+003, 9.926476e+001
1.252978e+003, 9.883910e+001
1.253460e+003, 9.875552e+001
1.253942e+003, 9.880606e+001
1.254425e+003, 9.884609e+001
1.254907e+003, 9.896507e+001
1.255389e+003, 9.943616e+001
1.255871e+003, 9.995761e+001
1.256353e+003, 9.989490e+001
1.256835e+003, 9.949416e+001
1.257317e+003, 9.908521e+001
1.257799e+003, 9.878726e+001
1.258281e+003, 9.878088e+001
1.258764e+003, 9.906442e+001
1.259246e+003, 9.944515e+001
1.259728e+003, 9.993796e+001
1.260210e+003, 1.001450e+002
1.260692e+003, 9.951516e+001
1.261174e+003, 9.903924e+001
1.261656e+003, 9.939577e+001
1.262138e+003, 9.987267e+001
1.262620e+003, 9.978438e+001
1.263103e+003, 9.953178e+001
1.263585e+003, 9.986690e+001
1.264067e+003, 1.006949e+002
1.264549e+003, 1.011839e+002
1.265031e+003, 1.012937e+002
1.265513e+003, 1.011735e+002
1.265995e+003, 1.007699e+002
1.266477e+003, 1.003423e+002
1.266960e+003, 9.991609e+001
1.267442e+003, 9.975952e+001
1.267924e+003, 1.000655e+002
1.268406e+003, 1.002738e+002
1.268888e+003, 9.955647e+001
1.269370e+003, 9.856675e+001
1.269852e+003, 9.912878e+001
1.270334e+003, 1.004879e+002
1.270817e+003, 1.006456e+002
1.271299e+003, 9.993481e+001
1.271781e+003, 9.939985e+001
1.272263e+003, 9.928817e+001
1.272745e+003, 9.972194e+001
1.273227e+003, 1.007505e+002
1.273709e+003, 1.014565e+002
1.274191e+003, 1.010806e+002
1.274673e+003, 1.005474e+002
1.275156e+003, 1.001561e+002
1.275638e+003, 9.994630e+001
1.276120e+003, 1.000930e+002
1.276602e+003, 1.003133e+002
1.277084e+003, 1.002327e+002
1.277566e+003, 9.996424e+001
1.278048e+003, 9.992121e+001
1.278530e+003, 1.001318e+002
1.279012e+003, 1.003191e+002
1.279495e+003, 1.004677e+002
1.279977e+003, 1.006372e+002
1.280459e+003, 1.008501e+002
1.280941e+003, 1.010520e+002
1.281423e+003, 1.012427e+002
1.281905e+003, 1.012033e+002
1.282387e+003, 1.007268e+002
1.282869e+003, 1.001128e+002
1.283352e+003, 9.974246e+001
1.283834e+003, 9.967479e+001
1.284316e+003, 1.000314e+002
1.284798e+003, 1.008178e+002
##END=



