##NAMES=Claringbullite
##RRUFFID=R090014
##IDEAL CHEMISTRY=Cu^2+^_4_FCl(OH)_6_
##LOCALITY=Mina Ojuela, Mapim√≠, Durango, Mexico
##OWNER=RRUFF
##SOURCE=Marcus Origlieri
##DESCRIPTION=Electric blue platy crystals in massive cuprite
##STATUS=The identification of this mineral has been confirmed by single-crystal X-ray diffraction.
##URL=rruff.info/R090014
136.2496, 0.0000000E+00
136.7317, 7.6930001E-03
137.2138, 0.2838780
137.6959, 0.6044240
138.1780, 0.6979870
138.6601, 0.5270890
139.1423, 0.4396930
139.6244, 0.5484320
140.1065, 0.6424260
140.5886, 0.5910760
141.0707, 0.4198660
141.5528, 0.2730310
142.0350, 0.3453070
142.5171, 0.7989750
142.9992, 1.041639
143.4813, 0.8838570
143.9634, 0.6857640
144.4455, 0.7315490
144.9277, 1.074939
145.4098, 1.507565
145.8919, 1.689438
146.3740, 1.476449
146.8561, 1.248011
147.3382, 0.9043290
147.8204, 0.5863350
148.3025, 0.5026230
148.7846, 0.7522680
149.2667, 1.171751
149.7488, 1.444626
150.2309, 1.591244
150.7131, 1.623557
151.1952, 1.433913
151.6773, 1.108760
152.1594, 0.9477800
152.6415, 1.149767
153.1236, 1.476181
153.6058, 1.548629
154.0879, 1.311405
154.5700, 0.9918600
155.0521, 0.7207800
155.5342, 0.4945790
156.0163, 0.4081800
156.4985, 0.6718450
156.9806, 1.010440
157.4627, 1.199308
157.9448, 1.174612
158.4269, 1.037915
158.9090, 0.9284000
159.3912, 0.8463150
159.8733, 0.7956670
160.3554, 0.7958720
160.8375, 0.8183960
161.3196, 0.8229140
161.8017, 0.8075810
162.2839, 0.7789080
162.7660, 0.8865080
163.2481, 1.310223
163.7302, 1.544332
164.2123, 1.582783
164.6944, 1.467003
165.1766, 1.307640
165.6587, 1.224582
166.1408, 1.195027
166.6229, 1.281222
167.1050, 1.802368
167.5871, 2.188367
168.0693, 2.122998
168.5514, 1.858683
169.0335, 1.716865
169.5156, 1.918194
169.9977, 2.430882
170.4798, 2.797089
170.9620, 3.056478
171.4441, 3.166788
171.9262, 3.079692
172.4083, 2.826166
172.8904, 2.515001
173.3725, 2.181443
173.8547, 1.861387
174.3368, 1.722736
174.8189, 1.855176
175.3010, 2.103624
175.7831, 2.410625
176.2652, 2.779209
176.7474, 3.033432
177.2295, 2.981667
177.7116, 2.714012
178.1937, 2.448919
178.6758, 2.268668
179.1579, 2.092555
179.6401, 1.756471
180.1222, 1.168599
180.6043, 0.7024810
181.0864, 0.7091250
181.5685, 0.9788680
182.0506, 1.203953
182.5328, 1.260985
183.0149, 1.179304
183.4970, 1.005116
183.9791, 0.6457490
184.4612, 0.3577080
184.9433, 0.2675630
185.4255, 0.3000440
185.9076, 0.3246670
186.3897, 0.2459730
186.8718, 8.9763999E-02
187.3539, 5.1580002E-03
187.8360, 6.4549997E-02
188.3182, 0.1010490
188.8003, 8.1709996E-03
189.2824, 0.1567590
189.7645, 0.2870570
190.2466, 0.2606030
190.7287, 6.2748000E-02
191.2109, 3.0765001E-02
191.6930, 0.1323980
192.1751, 0.2530220
192.6572, 0.1881140
193.1393, 1.2684000E-02
193.6214, 0.1964960
194.1036, 0.2239920
194.5857, 5.4434001E-02
195.0678, 1.5862999E-02
195.5499, 0.2897850
196.0320, 0.5017930
196.5141, 0.4098150
196.9963, 5.7560001E-02
197.4784, 0.3135150
197.9605, 0.4893670
198.4426, 0.4439520
198.9247, 0.2880200
199.4068, 0.1335080
199.8890, 0.5379510
200.3711, 0.7219320
200.8532, 0.6766810
201.3353, 0.5455920
201.8174, 0.4352900
202.2995, 0.3506350
202.7817, 0.3388200
203.2638, 0.5186320
203.7459, 0.7049940
204.2280, 0.6658750
204.7101, 0.3642240
205.1922, 9.3027003E-02
205.6744, 0.1827100
206.1565, 0.5562620
206.6386, 0.8488180
207.1207, 0.9322340
207.6028, 0.9176080
208.0849, 0.9712880
208.5671, 1.130085
209.0492, 1.260825
209.5313, 1.199517
210.0134, 1.026109
210.4955, 0.9110390
210.9776, 0.9627920
211.4598, 1.109658
211.9419, 1.189161
212.4240, 1.176492
212.9061, 1.141898
213.3882, 1.154299
213.8703, 1.177195
214.3525, 1.132738
214.8346, 0.9122610
215.3167, 0.5941450
215.7988, 0.4875110
216.2809, 0.7269670
216.7630, 0.9797770
217.2451, 1.142557
217.7273, 1.215298
218.2094, 1.193741
218.6915, 1.050935
219.1736, 0.8114560
219.6557, 0.6157010
220.1378, 0.3928790
220.6200, 0.3228230
221.1021, 0.6047900
221.5842, 1.048719
222.0663, 1.336560
222.5484, 1.224047
223.0305, 0.7681830
223.5127, 0.5205470
223.9948, 0.7784220
224.4769, 0.9447870
224.9590, 0.7871180
225.4411, 0.4603330
225.9232, 0.2474590
226.4054, 0.3502520
226.8875, 0.7325880
227.3696, 0.9740750
227.8517, 1.018995
228.3338, 0.9726820
228.8159, 0.7374840
229.2981, 0.4322300
229.7802, 0.2843660
230.2623, 0.4627910
230.7444, 0.9182640
231.2265, 1.079761
231.7086, 0.6398660
232.1908, 0.2674330
232.6729, 0.1544490
233.1550, 0.2301900
233.6371, 0.3441280
234.1192, 0.4091340
234.6013, 0.4292230
235.0835, 0.4372100
235.5656, 0.4653940
236.0477, 0.4510420
236.5298, 0.3036020
237.0119, 9.7691000E-02
237.4940, 1.9500000E-04
237.9762, 0.1226820
238.4583, 0.4230830
238.9404, 0.6820720
239.4225, 1.010165
239.9046, 1.172260
240.3867, 0.9509540
240.8689, 0.4872560
241.3510, 0.1238500
241.8331, 2.9292000E-02
242.3152, 0.1523360
242.7973, 0.3362130
243.2794, 0.6382680
243.7616, 0.8978460
244.2437, 1.010980
244.7258, 1.017426
245.2079, 1.040867
245.6900, 1.146442
246.1721, 1.295787
246.6543, 1.420326
247.1364, 1.528537
247.6185, 1.572882
248.1006, 1.496627
248.5827, 1.358210
249.0648, 1.287767
249.5470, 1.336900
250.0291, 1.400817
250.5112, 1.312127
250.9933, 1.052123
251.4754, 0.8245980
251.9576, 0.7744050
252.4397, 0.8595020
252.9218, 0.8853450
253.4039, 0.7283740
253.8860, 0.6071000
254.3681, 0.8006340
254.8503, 1.304704
255.3324, 1.747797
255.8145, 1.947930
256.2966, 1.934482
256.7787, 1.746086
257.2608, 1.193994
257.7430, 0.7431520
258.2251, 0.9008800
258.7072, 1.568802
259.1893, 2.101820
259.6714, 1.949229
260.1535, 1.254945
260.6357, 0.8403530
261.1178, 0.9379320
261.5999, 1.131121
262.0820, 1.140704
262.5641, 1.012437
263.0462, 0.8934970
263.5284, 0.8924750
264.0105, 0.9913930
264.4926, 1.074097
264.9747, 1.130765
265.4568, 1.181842
265.9389, 1.224350
266.4211, 1.269761
266.9032, 1.346919
267.3853, 1.514179
267.8674, 1.724184
268.3495, 1.743573
268.8316, 1.395980
269.3138, 1.125948
269.7959, 1.113574
270.2780, 1.272702
270.7601, 1.492968
271.2422, 1.748779
271.7243, 1.991682
272.2065, 2.039642
272.6886, 1.768493
273.1707, 1.502107
273.6528, 1.341138
274.1349, 1.230792
274.6170, 1.094057
275.0992, 0.8875900
275.5813, 0.6705610
276.0634, 0.6059460
276.5455, 0.8008100
277.0276, 0.9502810
277.5097, 1.009811
277.9919, 1.000715
278.4740, 0.9092990
278.9561, 0.7341180
279.4382, 0.5601630
279.9203, 0.5709980
280.4024, 0.9122640
280.8846, 1.126556
281.3667, 1.134212
281.8488, 1.043687
282.3309, 0.8829020
282.8130, 0.6764960
283.2951, 0.5072150
283.7773, 0.5371880
284.2594, 0.9347610
284.7415, 1.114689
285.2236, 0.8698560
285.7057, 0.5799760
286.1878, 0.4884350
286.6700, 0.6102400
287.1521, 0.7821630
287.6342, 0.8128890
288.1163, 0.6589330
288.5984, 0.5430770
289.0805, 0.4962150
289.5627, 0.4532360
290.0448, 0.3555870
290.5269, 0.2258130
291.0090, 0.1506940
291.4911, 0.2234850
291.9732, 0.4632300
292.4554, 0.5960330
292.9375, 0.5694120
293.4196, 0.4907660
293.9017, 0.3641230
294.3838, 0.2102420
294.8659, 4.7818001E-02
295.3481, 0.1208440
295.8302, 0.2765790
296.3123, 0.2706140
296.7944, 3.4210000E-02
297.2765, 0.3591970
297.7586, 0.7703370
298.2408, 1.144564
298.7229, 1.259754
299.2050, 0.9768100
299.6871, 0.4330450
300.1692, 0.1680520
300.6513, 0.5135760
301.1335, 0.7503510
301.6156, 0.7590960
302.0977, 0.6519450
302.5798, 0.5425160
303.0619, 0.4769530
303.5440, 0.4455230
304.0262, 0.4333970
304.5083, 0.5325970
304.9904, 0.5012770
305.4725, 0.1609500
305.9546, 0.1932190
306.4367, 0.2981980
306.9189, 0.1037350
307.4010, 0.2235500
307.8831, 0.4543900
308.3652, 0.5558810
308.8473, 0.6368030
309.3294, 0.7319270
309.8116, 0.7844390
310.2937, 0.7533290
310.7758, 0.6375800
311.2579, 0.4767390
311.7400, 0.3281930
312.2221, 0.1828530
312.7043, 0.1276570
313.1864, 0.2747850
313.6685, 0.3890280
314.1506, 0.3408700
314.6327, 0.1786220
315.1148, 3.4283001E-02
315.5970, 6.0310001E-03
316.0791, 8.5170001E-02
316.5612, 0.1531940
317.0433, 0.1270020
317.5254, 0.1828710
318.0075, 0.4867080
318.4897, 0.8698860
318.9718, 1.038145
319.4539, 0.8283240
319.9360, 0.4021670
320.4181, 0.2917680
320.9002, 0.9773130
321.3824, 1.382921
321.8645, 1.301175
322.3466, 0.9938320
322.8287, 0.6801890
323.3108, 0.4447150
323.7929, 0.2894120
324.2751, 0.2374370
324.7572, 0.3941970
325.2393, 0.4352680
325.7214, 0.1821940
326.2035, 4.9890999E-02
326.6856, 4.8420001E-03
327.1678, 0.3200950
327.6499, 0.7156720
328.1320, 0.9610860
328.6141, 1.038050
329.0962, 1.045381
329.5783, 0.9185370
330.0605, 0.7933710
330.5426, 0.7319130
331.0247, 0.7220500
331.5068, 0.7074730
331.9889, 0.6329520
332.4710, 0.5112880
332.9532, 0.5538180
333.4353, 0.9930080
333.9174, 1.351925
334.3995, 1.538529
334.8816, 1.588187
335.3637, 1.532127
335.8459, 1.382149
336.3280, 1.193060
336.8101, 1.143932
337.2922, 1.358304
337.7743, 1.469919
338.2564, 1.376935
338.7386, 1.220013
339.2206, 1.140977
339.7028, 1.166625
340.1849, 1.210451
340.6670, 1.125994
341.1491, 0.7908910
341.6312, 0.6405310
342.1133, 0.7773300
342.5955, 0.9872460
343.0776, 1.213535
343.5597, 1.415888
344.0418, 1.518064
344.5239, 1.410850
345.0060, 1.070728
345.4882, 0.9316710
345.9703, 1.361258
346.4524, 1.636860
346.9345, 1.421649
347.4166, 0.9247800
347.8987, 0.5373730
348.3809, 0.5000930
348.8630, 0.7336780
349.3451, 0.9030390
349.8272, 0.9513950
350.3093, 1.025654
350.7914, 1.240026
351.2736, 1.450583
351.7557, 1.497777
352.2378, 1.327744
352.7199, 1.037046
353.2020, 0.7571920
353.6841, 0.4556680
354.1663, 0.2704040
354.6484, 0.3018810
355.1305, 0.3971840
355.6126, 0.5107110
356.0947, 0.6214180
356.5768, 0.6920350
357.0590, 0.6700340
357.5411, 0.5509810
358.0232, 0.4539180
358.5053, 0.3817510
358.9874, 0.3365870
359.4695, 0.2707460
359.9517, 0.2309320
360.4338, 0.3437110
360.9159, 0.7786930
361.3980, 1.355663
361.8801, 1.449127
362.3622, 0.7840200
362.8444, 0.2506580
363.3265, 0.2858840
363.8086, 0.5351760
364.2907, 0.6471580
364.7728, 0.5210610
365.2549, 0.3232330
365.7371, 0.3054460
366.2192, 0.4999880
366.7013, 0.5561160
367.1834, 0.1858860
367.6655, 0.1799670
368.1476, 0.2008410
368.6298, 0.1254490
369.1119, 0.5368930
369.5940, 0.9137200
370.0761, 1.234332
370.5582, 1.376035
371.0403, 1.276919
371.5225, 1.088333
372.0046, 0.8232050
372.4867, 0.5478760
372.9688, 0.4336480
373.4509, 0.6720360
373.9330, 1.031607
374.4152, 1.170179
374.8973, 1.072299
375.3794, 0.8628630
375.8615, 0.4338450
376.3436, 1.3838000E-02
376.8257, 4.2269998E-03
377.3079, 0.5832130
377.7900, 1.151765
378.2721, 1.184642
378.7542, 0.7948040
379.2363, 0.4735240
379.7184, 0.3729460
380.2006, 0.3594820
380.6827, 0.2476830
381.1648, 3.9213002E-02
381.6469, 0.1187860
382.1290, 0.1992910
382.6111, 0.1931610
383.0933, 4.2922001E-02
383.5754, 0.2660950
384.0575, 0.5394060
384.5396, 0.6182230
385.0217, 0.5193170
385.5038, 0.4513910
385.9860, 0.4535710
386.4681, 0.4573960
386.9502, 0.3733680
387.4323, 0.2452720
387.9144, 0.2515070
388.3965, 0.5183120
388.8787, 0.9051440
389.3608, 1.012753
389.8429, 0.6827920
390.3250, 0.4621550
390.8071, 0.5663380
391.2892, 0.7937840
391.7714, 0.9227750
392.2535, 0.9001990
392.7356, 0.7503370
393.2177, 0.4641840
393.6998, 3.0895000E-02
394.1819, 0.2551060
394.6641, 6.5337002E-02
395.1462, 0.3929850
395.6283, 0.3922810
396.1104, 0.1470490
396.5925, 6.1769001E-02
397.0746, 4.7724999E-02
397.5568, 0.1465510
398.0389, 0.2842710
398.5210, 0.2971550
399.0031, 0.3333440
399.4852, 0.4575350
399.9673, 0.5911610
400.4495, 0.6447640
400.9316, 0.5915150
401.4137, 0.4753130
401.8958, 0.3517630
402.3779, 0.1857600
402.8600, 0.1134400
403.3422, 0.2425010
403.8243, 0.3557650
404.3064, 0.2772760
404.7885, 7.2967999E-02
405.2706, 3.6474999E-02
405.7527, 0.1357280
406.2349, 0.5490870
406.7170, 0.8863220
407.1991, 1.226411
407.6812, 1.352297
408.1633, 1.047811
408.6454, 0.5993900
409.1276, 0.3349050
409.6097, 0.3683910
410.0918, 0.5342030
410.5739, 0.6079570
411.0560, 0.5755800
411.5381, 0.5236720
412.0203, 0.4077430
412.5024, 0.3251340
412.9845, 0.3729450
413.4666, 0.5336690
413.9487, 0.7031940
414.4308, 0.8644570
414.9130, 0.9830010
415.3951, 0.8864550
415.8772, 0.4703250
416.3593, 9.5909998E-02
416.8414, 3.0779999E-03
417.3235, 6.0690999E-02
417.8057, 9.0944998E-02
418.2878, 9.3019996E-03
418.7699, 2.4625000E-02
419.2520, 0.2314650
419.7341, 0.7391050
420.2162, 1.048959
420.6984, 0.9199070
421.1805, 0.6836750
421.6626, 0.8218750
422.1447, 1.338112
422.6268, 1.719062
423.1089, 1.642795
423.5911, 1.385067
424.0732, 1.369589
424.5553, 1.618739
425.0374, 1.864466
425.5195, 1.931643
426.0016, 1.839375
426.4838, 1.735245
426.9659, 1.549885
427.4480, 1.400873
427.9301, 1.361571
428.4122, 1.396459
428.8943, 1.422715
429.3765, 1.405370
429.8586, 1.394946
430.3407, 1.496278
430.8228, 1.857630
431.3049, 1.986251
431.7870, 1.582665
432.2692, 1.166486
432.7513, 1.185277
433.2334, 1.597976
433.7155, 2.030319
434.1976, 2.182557
434.6797, 2.071509
435.1619, 1.932449
435.6440, 1.755739
436.1261, 1.556647
436.6082, 1.298120
437.0903, 1.034964
437.5724, 0.8258530
438.0546, 0.6924280
438.5367, 0.6168440
439.0188, 0.5736170
439.5009, 0.5599490
439.9830, 0.5631480
440.4651, 0.5865440
440.9473, 0.6434430
441.4294, 0.7867160
441.9115, 0.9622660
442.3936, 1.033100
442.8757, 0.8760450
443.3578, 0.5673520
443.8400, 0.3717390
444.3221, 0.3213530
444.8042, 0.3031050
445.2863, 0.2031840
445.7684, 0.1543180
446.2505, 0.3661830
446.7327, 0.9051930
447.2148, 1.357485
447.6969, 1.242227
448.1790, 0.6770590
448.6611, 0.3329830
449.1432, 0.3738440
449.6254, 0.5303610
450.1075, 0.6354380
450.5896, 0.6793850
451.0717, 0.6019970
451.5538, 0.1586830
452.0359, 0.2643020
452.5181, 0.1587410
453.0002, 0.3886640
453.4823, 0.8781330
453.9644, 1.089293
454.4465, 1.095939
454.9286, 1.069130
455.4108, 1.027256
455.8929, 0.9234760
456.3750, 0.6690880
456.8571, 0.3899060
457.3392, 0.1954320
457.8214, 0.1111480
458.3035, 0.1736160
458.7856, 0.4580550
459.2677, 0.9701610
459.7498, 1.194395
460.2319, 0.9203050
460.7141, 0.6502940
461.1962, 0.4709540
461.6783, 0.3993000
462.1604, 0.5010100
462.6425, 0.7913640
463.1246, 1.110973
463.6068, 1.185889
464.0889, 0.9127190
464.5710, 0.6533830
465.0531, 0.3681380
465.5352, 0.1325930
466.0173, 3.0592000E-02
466.4995, 0.1142970
466.9816, 9.5012002E-02
467.4637, 7.7477999E-02
467.9458, 0.3232670
468.4279, 0.3543790
468.9100, 4.9722001E-02
469.3922, 0.1543760
469.8743, 1.8308001E-02
470.3564, 0.2018640
470.8385, 0.2879880
471.3206, 0.2093080
471.8027, 0.1292650
472.2849, 0.1925310
472.7670, 0.3613700
473.2491, 0.4875130
473.7312, 0.5457400
474.2133, 0.5973870
474.6954, 0.7554640
475.1776, 0.9376170
475.6597, 0.9209720
476.1418, 0.5057630
476.6239, 8.2924001E-02
477.1060, 7.8304999E-02
477.5881, 2.5668001E-02
478.0703, 0.1352520
478.5524, 0.3925750
479.0345, 0.6586640
479.5166, 0.8226670
479.9987, 0.8945320
480.4808, 0.7874260
480.9630, 0.1902770
481.4451, 0.3326810
481.9272, 0.2924250
482.4093, 0.1852500
482.8914, 0.6276000
483.3735, 0.7508430
483.8557, 0.6354720
484.3378, 0.5689740
484.8199, 0.5674560
485.3020, 0.5975200
485.7841, 0.6854190
486.2662, 0.7833180
486.7484, 0.8931150
487.2305, 0.9895520
487.7126, 0.9830160
488.1947, 0.7500680
488.6768, 0.3147030
489.1589, 6.2569998E-02
489.6411, 5.0521001E-02
490.1232, 0.1573000
490.6053, 0.4241920
491.0874, 0.7183420
491.5695, 0.8617060
492.0516, 0.8171260
492.5338, 0.7383630
493.0159, 0.8248700
493.4980, 1.045394
493.9801, 1.079565
494.4622, 0.7678960
494.9443, 0.4794730
495.4265, 0.6192860
495.9086, 1.035715
496.3907, 1.304899
496.8728, 1.241015
497.3549, 1.067346
497.8370, 0.9441380
498.3192, 0.8642260
498.8013, 0.8063280
499.2834, 0.7711950
499.7655, 0.7301400
500.2476, 0.6083050
500.7297, 0.3287950
501.2119, 0.2561780
501.6940, 0.5991520
502.1761, 1.003296
502.6582, 1.285647
503.1403, 1.411749
503.6224, 1.310134
504.1045, 0.8962120
504.5866, 0.3432530
505.0688, 0.3016130
505.5509, 1.348150
506.0330, 1.999154
506.5151, 1.989494
506.9972, 1.727999
507.4793, 1.449637
507.9615, 1.211659
508.4436, 1.011894
508.9257, 0.8293290
509.4078, 0.6822110
509.8899, 0.6937540
510.3720, 0.9790120
510.8542, 1.249470
511.3363, 1.427326
511.8184, 1.506312
512.3005, 1.427775
512.7827, 1.163943
513.2648, 0.9391480
513.7469, 0.9714020
514.2290, 1.174052
514.7111, 1.284203
515.1932, 1.253941
515.6754, 1.209404
516.1575, 1.292945
516.6396, 1.444249
517.1217, 1.399335
517.6038, 0.9196410
518.0859, 0.5091520
518.5681, 0.4883150
519.0502, 0.6639690
519.5323, 0.6654930
520.0144, 0.3925960
520.4965, 0.1131790
520.9786, 0.1761710
521.4608, 0.6669340
521.9429, 0.9811260
522.4250, 1.045464
522.9071, 1.046592
523.3892, 1.039485
523.8713, 1.013826
524.3535, 0.9309810
524.8356, 0.7838680
525.3177, 0.6300080
525.7998, 0.5530270
526.2819, 0.5614300
526.7640, 0.6030370
527.2462, 0.6481070
527.7283, 0.7573530
528.2104, 1.040726
528.6925, 1.390154
529.1746, 1.551611
529.6567, 1.342212
530.1389, 1.016614
530.6210, 0.9536900
531.1031, 1.133744
531.5852, 1.184917
532.0673, 0.9219150
532.5494, 0.6130430
533.0316, 0.6045660
533.5137, 0.8730500
533.9958, 1.192528
534.4779, 1.735570
534.9600, 2.129162
535.4421, 1.961707
535.9243, 1.378715
536.4064, 0.8806510
536.8885, 0.7053720
537.3706, 0.7630140
537.8527, 0.8823340
538.3348, 1.202293
538.8170, 1.291937
539.2991, 0.8673920
539.7812, 0.4699640
540.2633, 0.4945660
540.7454, 0.8047860
541.2275, 1.000939
541.7097, 0.8146710
542.1918, 0.4412450
542.6739, 0.4367630
543.1560, 0.9620430
543.6381, 1.342534
544.1202, 1.404057
544.6024, 1.307940
545.0845, 1.106391
545.5666, 0.8212950
546.0487, 0.5290540
546.5308, 0.2409220
547.0129, 1.7104000E-02
547.4951, 0.2332530
547.9772, 0.4055930
548.4593, 0.4000860
548.9414, 9.0287000E-02
549.4235, 0.3433040
549.9056, 0.5661320
550.3878, 0.5608780
550.8699, 0.5268720
551.3520, 0.4427720
551.8341, 0.3875550
552.3162, 0.4499600
552.7983, 0.6271520
553.2805, 0.8576400
553.7626, 1.103982
554.2447, 1.288199
554.7268, 1.187565
555.2089, 0.4691250
555.6910, 6.4764999E-02
556.1732, 0.1527840
556.6553, 0.3858050
557.1374, 0.6153410
557.6195, 0.8026540
558.1016, 0.9115510
558.5837, 0.8912630
559.0659, 0.8209980
559.5480, 0.9448860
560.0301, 1.328768
560.5122, 1.506157
560.9943, 1.229164
561.4764, 0.7991520
561.9586, 0.4768380
562.4407, 0.2659810
562.9228, 0.1721190
563.4049, 0.2087830
563.8870, 0.3546610
564.3691, 0.6972040
564.8513, 1.169715
565.3334, 1.406162
565.8155, 1.206243
566.2976, 0.7853270
566.7797, 0.5441010
567.2618, 0.5483030
567.7440, 0.6050800
568.2261, 0.8308870
568.7082, 1.001613
569.1903, 0.9161230
569.6724, 0.6729550
570.1545, 0.5335940
570.6367, 0.6463790
571.1188, 0.8620650
571.6009, 0.8245820
572.0830, 0.4209660
572.5651, 0.1968430
573.0472, 0.3019770
573.5294, 0.5178650
574.0115, 0.7939440
574.4936, 1.086163
574.9757, 1.286790
575.4578, 1.322675
575.9399, 1.301999
576.4221, 1.343982
576.9042, 1.429534
577.3863, 1.339031
577.8684, 0.9665880
578.3505, 0.5276530
578.8326, 0.2613380
579.3148, 0.1818830
579.7969, 0.1684100
580.2790, 0.2604920
580.7611, 0.3768180
581.2432, 0.4916210
581.7253, 0.6264640
582.2075, 0.7548050
582.6896, 0.8803100
583.1717, 0.9695720
583.6538, 0.9404000
584.1359, 0.7629760
584.6180, 0.6836400
585.1002, 0.8209150
585.5823, 0.9154790
586.0643, 0.8398450
586.5464, 0.6941170
587.0286, 0.6055740
587.5107, 0.6091180
587.9928, 0.6759450
588.4749, 0.8591330
588.9570, 1.094355
589.4391, 1.070206
589.9213, 0.6863690
590.4034, 0.3622120
590.8855, 0.4212210
591.3676, 0.7642150
591.8497, 0.9933990
592.3318, 1.105677
592.8140, 1.117693
593.2961, 0.9637950
593.7782, 0.7519890
594.2603, 0.5657520
594.7424, 0.4374990
595.2245, 0.4266790
595.7067, 0.5924430
596.1888, 0.9064870
596.6709, 1.231307
597.1530, 1.779921
597.6351, 1.954505
598.1172, 1.338449
598.5994, 0.6350010
599.0815, 0.3882890
599.5636, 0.5750290
600.0457, 0.7886050
600.5278, 0.7307610
601.0099, 0.5611280
601.4921, 0.6159870
601.9742, 0.8988020
602.4563, 1.156962
602.9384, 1.337319
603.4205, 1.407184
603.9026, 1.250716
604.3848, 0.8564560
604.8669, 0.5979000
605.3490, 0.5945170
605.8311, 0.6543190
606.3132, 0.6809530
606.7953, 0.7011690
607.2775, 0.7621670
607.7596, 0.8805480
608.2417, 0.9506150
608.7238, 0.7824880
609.2059, 0.3069840
609.6880, 6.5481998E-02
610.1702, 0.4152890
610.6523, 0.5548420
611.1344, 0.2734960
611.6165, 0.1954330
612.0986, 0.5444820
612.5807, 0.6720000
613.0629, 0.6921550
613.5450, 0.7248230
614.0271, 0.7473500
614.5092, 0.6570670
614.9913, 0.4257640
615.4734, 0.2111400
615.9556, 9.5417000E-02
616.4377, 7.9462998E-02
616.9198, 0.1714880
617.4019, 0.4889790
617.8840, 0.6827650
618.3661, 0.6105130
618.8483, 0.4382220
619.3304, 0.2837960
619.8125, 0.1710950
620.2946, 9.5220000E-02
620.7767, 4.9504999E-02
621.2589, 5.0641000E-02
621.7410, 0.1710570
622.2231, 0.4823600
622.7052, 0.7003980
623.1873, 0.7358350
623.6694, 0.7123460
624.1516, 0.6746410
624.6337, 0.6336430
625.1158, 0.6128360
625.5979, 0.6421150
626.0800, 0.6651220
626.5621, 0.6047800
627.0443, 0.4878360
627.5264, 0.4073460
628.0085, 0.3860960
628.4906, 0.4006430
628.9727, 0.4333650
629.4548, 0.4842150
629.9370, 0.5290020
630.4191, 0.5454290
630.9012, 0.5861950
631.3833, 0.7737380
631.8654, 0.9204610
632.3475, 0.7070280
632.8297, 0.1793630
633.3118, 0.1524550
633.7939, 0.2706400
634.2760, 1.192703
634.7581, 1.488309
635.2402, 0.9947900
635.7224, 0.5045800
636.2045, 0.2018640
636.6866, 6.4810000E-02
637.1687, 0.1442280
637.6508, 0.4200710
638.1329, 0.5246750
638.6151, 6.3291997E-02
639.0972, 0.3727170
639.5793, 0.1301680
640.0614, 0.5342660
640.5435, 0.8771370
641.0256, 0.6329380
641.5078, 0.2416870
641.9899, 0.3359160
642.4720, 1.023346
642.9541, 1.308738
643.4362, 0.7607990
643.9183, 0.3001680
644.4005, 0.1242270
644.8826, 0.1421250
645.3647, 0.2743690
645.8468, 0.4949300
646.3289, 0.7491750
646.8110, 1.068374
647.2932, 1.371846
647.7753, 1.399454
648.2574, 1.133385
648.7395, 0.9189660
649.2216, 0.9350810
649.7037, 1.053404
650.1859, 1.046411
650.6680, 0.8924800
651.1501, 0.7213500
651.6322, 0.4810350
652.1143, 0.2856610
652.5964, 0.2147740
653.0786, 0.2347480
653.5607, 0.2865670
654.0428, 0.3459820
654.5249, 0.4072910
655.0070, 0.4800610
655.4891, 0.5862160
655.9713, 0.5968180
656.4534, 0.3240410
656.9355, 0.1716810
657.4176, 0.5215220
657.8997, 1.008205
658.3818, 1.170006
658.8640, 0.9178370
659.3461, 0.6750440
659.8282, 0.6495040
660.3103, 0.7191570
660.7924, 0.7606040
661.2745, 0.7686880
661.7567, 0.7741140
662.2388, 0.7936740
662.7209, 0.8038980
663.2030, 0.7501850
663.6851, 0.5849940
664.1672, 0.5117220
664.6494, 0.6069570
665.1315, 0.7123390
665.6136, 0.7782830
666.0957, 0.8214870
666.5778, 0.8937390
667.0599, 1.014064
667.5421, 1.046607
668.0242, 0.7961230
668.5063, 0.3873370
668.9884, 8.2496002E-02
669.4705, 9.9917002E-02
669.9526, 8.3552003E-02
670.4348, 0.2461740
670.9169, 0.7210140
671.3990, 0.9627620
671.8811, 0.8404830
672.3632, 0.8043170
672.8453, 0.9567530
673.3275, 1.102653
673.8096, 1.131830
674.2917, 1.079577
674.7738, 1.025236
675.2559, 0.9979930
675.7380, 0.9517960
676.2202, 0.7803630
676.7023, 0.5096860
677.1844, 0.4335240
677.6665, 0.6255860
678.1486, 0.7962000
678.6307, 0.8020230
679.1129, 0.6918660
679.5950, 0.5399380
680.0771, 0.3068290
680.5592, 0.1922930
681.0413, 0.3333580
681.5234, 0.5340890
682.0056, 0.6490320
682.4877, 0.6987760
682.9698, 0.7779350
683.4519, 0.9249990
683.9340, 1.049215
684.4161, 0.9756010
684.8983, 0.6731540
685.3804, 0.5647000
685.8625, 0.8022200
686.3446, 0.9674450
686.8267, 0.8095620
687.3088, 0.5193780
687.7910, 0.2502200
688.2731, 2.3000001E-03
688.7552, 1.7259000E-02
689.2373, 0.5623180
689.7194, 1.212057
690.2015, 1.281625
690.6837, 0.9073270
691.1658, 0.6295000
691.6479, 0.7079140
692.1300, 0.9217680
692.6121, 0.9512060
693.0942, 0.7512220
693.5764, 0.6922160
694.0585, 0.9246480
694.5406, 1.095438
695.0227, 1.043829
695.5048, 0.9251360
695.9869, 0.9527390
696.4691, 1.144337
696.9512, 1.191813
697.4333, 0.8126820
697.9154, 0.3217630
698.3975, 0.1363130
698.8796, 0.2221280
699.3618, 0.3827800
699.8439, 0.5583850
700.3260, 0.6811200
700.8081, 0.6429070
701.2902, 0.4174560
701.7723, 0.2808650
702.2545, 0.3448550
702.7366, 0.3777290
703.2187, 0.2234370
703.7008, 8.5242003E-02
704.1829, 0.2191380
704.6650, 0.6059700
705.1472, 0.9108350
705.6293, 0.8321430
706.1114, 0.5964560
706.5935, 0.6281040
707.0756, 0.8694640
707.5577, 0.8845060
708.0399, 0.4953190
708.5220, 0.1150800
709.0041, 0.2463570
709.4862, 0.8916160
709.9683, 1.159344
710.4504, 0.6629430
710.9326, 0.3290300
711.4147, 0.5412360
711.8968, 0.7919230
712.3789, 0.4746830
712.8610, 0.2721970
713.3431, 0.6635100
713.8253, 9.3451999E-02
714.3074, 0.8654320
714.7895, 1.353071
715.2716, 1.412132
715.7537, 1.327406
716.2358, 1.128161
716.7180, 0.9331890
717.2001, 0.8544810
717.6822, 0.8687270
718.1643, 0.8168890
718.6464, 0.6178550
719.1285, 0.4724620
719.6107, 0.3843650
720.0928, 0.3693220
720.5749, 0.4944680
721.0570, 0.7001930
721.5391, 0.8434230
722.0212, 0.8525350
722.5034, 0.7806110
722.9855, 0.6612690
723.4676, 0.5123440
723.9497, 0.4619280
724.4318, 0.5396230
724.9139, 0.6155120
725.3961, 0.6124770
725.8782, 0.5495820
726.3603, 0.4751780
726.8424, 0.3707830
727.3245, 0.2874710
727.8066, 0.1926730
728.2888, 0.1809420
728.7709, 0.3725330
729.2530, 0.6519280
729.7351, 0.8157110
730.2172, 0.7949130
730.6993, 0.6970560
731.1815, 0.6156680
731.6636, 0.5515640
732.1457, 0.5255520
732.6278, 0.5443560
733.1099, 0.4884000
733.5920, 0.2445070
734.0742, 5.0590001E-03
734.5563, 0.1175660
735.0384, 0.7101500
735.5205, 0.9888520
736.0026, 0.6412140
736.4847, 0.3504260
736.9669, 0.4321960
737.4490, 0.6613820
737.9311, 0.7774670
738.4132, 0.7339210
738.8953, 0.6372430
739.3774, 0.5438620
739.8596, 0.4702350
740.3417, 0.4473680
740.8238, 0.4754610
741.3059, 0.5881130
741.7880, 0.8300470
742.2701, 1.021832
742.7523, 0.9581930
743.2344, 0.6629640
743.7165, 0.5074340
744.1986, 0.5873860
744.6807, 0.6632970
745.1628, 0.7532100
745.6450, 0.7900000
746.1271, 0.6586630
746.6092, 0.4299170
747.0913, 0.3076910
747.5734, 0.4031140
748.0555, 0.5623620
748.5377, 0.5546970
749.0198, 0.4453960
749.5019, 0.5408550
749.9840, 0.8918420
750.4661, 1.099916
750.9482, 0.8754120
751.4304, 0.4215920
751.9125, 0.2513650
752.3946, 0.5826450
752.8767, 0.6829190
753.3588, 0.3193220
753.8409, 6.4699998E-04
754.3231, 6.2185999E-02
754.8052, 4.9244002E-02
755.2873, 0.2487590
755.7694, 0.5072520
756.2515, 0.7037470
756.7336, 0.6885400
757.2158, 0.5826250
757.6979, 0.6570320
758.1800, 0.8593150
758.6621, 0.7940420
759.1442, 0.2930570
759.6263, 0.2229550
760.1085, 0.2233820
760.5906, 0.2938090
761.0727, 0.5679730
761.5548, 0.4481310
762.0369, 0.3024580
762.5190, 0.1008320
763.0012, 3.3851001E-02
763.4833, 1.9954000E-02
763.9654, 0.2279290
764.4475, 0.4518080
764.9296, 0.6951190
765.4117, 0.8349350
765.8939, 0.7066730
766.3760, 0.4256380
766.8581, 0.1821990
767.3402, 9.7510004E-03
767.8223, 8.9511998E-02
768.3044, 0.1570780
768.7866, 0.1472450
769.2687, 6.1115000E-02
769.7508, 0.5842780
770.2329, 0.8749980
770.7150, 0.7928870
771.1971, 0.6013290
771.6793, 0.3802940
772.1614, 0.2038470
772.6435, 0.2720800
773.1256, 0.6477370
773.6077, 0.8549180
774.0898, 0.5012930
774.5720, 9.5863998E-02
775.0541, 8.5334003E-02
775.5362, 0.3375510
776.0183, 0.5873120
776.5004, 0.7420740
776.9825, 0.7788560
777.4647, 0.6329410
777.9468, 0.3679150
778.4289, 0.3367660
778.9110, 0.5981030
779.3931, 0.7748820
779.8752, 0.7429490
780.3574, 0.6549910
780.8395, 0.6658490
781.3216, 0.7435850
781.8037, 0.7212790
782.2858, 0.4511220
782.7679, 0.2853180
783.2501, 0.4401760
783.7322, 0.6247930
784.2143, 0.5144070
784.6964, 0.2275600
785.1785, 0.1503670
785.6606, 0.4678530
786.1428, 0.8790400
786.6249, 1.036456
787.1070, 0.9703010
787.5891, 0.7468660
788.0712, 0.3616770
788.5533, 7.6523997E-02
789.0355, 3.3280000E-03
789.5176, 0.1180640
789.9997, 0.4465890
790.4818, 1.092883
790.9639, 1.298428
791.4460, 0.5469870
791.9282, 3.1753000E-02
792.4103, 0.2127790
792.8924, 0.6046040
793.3745, 0.7971570
793.8566, 0.7546510
794.3387, 0.6124150
794.8209, 0.3839500
795.3030, 0.1633350
795.7851, 3.1028001E-02
796.2672, 2.1241000E-02
796.7493, 2.5457000E-02
797.2314, 1.9285999E-02
797.7136, 0.1881610
798.1957, 0.5544550
798.6778, 0.9767970
799.1599, 1.060025
799.6420, 0.6666070
800.1241, 0.5201280
800.6063, 0.8274160
801.0884, 1.081726
801.5705, 1.018402
802.0526, 0.7852420
802.5347, 0.5217030
803.0168, 0.2278850
803.4990, 1.5314000E-02
803.9811, 7.2485998E-02
804.4632, 8.1386998E-02
804.9453, 1.1975000E-02
805.4274, 0.1054670
805.9095, 0.2566930
806.3917, 0.4206330
806.8738, 0.5294530
807.3559, 0.5228100
807.8380, 0.4375110
808.3201, 0.3165020
808.8022, 0.1659290
809.2844, 0.1820120
809.7665, 0.4349820
810.2486, 0.6913690
810.7307, 0.8036320
811.2128, 0.7887850
811.6949, 0.6839450
812.1771, 0.3530160
812.6592, 0.2137420
813.1413, 0.3936160
813.6234, 0.6140270
814.1055, 0.7856860
814.5876, 0.9093850
815.0698, 1.010874
815.5519, 1.090618
816.0340, 1.080898
816.5161, 0.8431100
816.9982, 0.5682540
817.4803, 0.4873630
817.9625, 0.5514890
818.4446, 0.6325730
818.9267, 0.6776830
819.4088, 0.6326940
819.8909, 0.4321500
820.3730, 0.1444390
820.8552, 2.7401000E-02
821.3373, 0.1285200
821.8194, 0.1930750
822.3015, 0.1201260
822.7836, 0.1360910
823.2657, 0.5729640
823.7479, 1.124995
824.2300, 1.078241
824.7121, 0.1341840
825.1942, 0.3067060
825.6763, 0.6310620
826.1584, 1.505289
826.6406, 1.349710
827.1227, 0.6765300
827.6048, 0.2293530
828.0869, 0.1733300
828.5690, 0.2540370
829.0511, 0.2907630
829.5333, 0.3334220
830.0154, 0.5120790
830.4975, 0.7857660
830.9796, 0.9536080
831.4617, 0.9759770
831.9438, 0.8953000
832.4260, 0.7206380
832.9081, 0.5016610
833.3902, 0.3963510
833.8723, 0.4506900
834.3544, 0.4753480
834.8365, 0.4007730
835.3187, 0.3854210
835.8008, 0.5427240
836.2829, 0.7615120
836.7650, 0.9222310
837.2471, 1.013022
837.7292, 1.018637
838.2114, 0.8354940
838.6935, 0.6714420
839.1756, 0.7271210
839.6577, 0.8479430
840.1398, 0.7544910
840.6219, 0.4649460
841.1041, 0.2979310
841.5862, 0.4946010
842.0683, 0.8287170
842.5504, 0.8877670
843.0325, 0.7129270
843.5146, 0.5876380
843.9968, 0.5489470
844.4789, 0.4603300
844.9610, 0.2110180
845.4431, 4.7375001E-02
845.9252, 2.3182999E-02
846.4073, 0.3487330
846.8895, 0.6764820
847.3716, 1.046524
847.8537, 1.255073
848.3358, 1.222493
848.8179, 1.075964
849.3000, 0.8354430
849.7822, 0.5197610
850.2643, 0.3958720
850.7464, 0.6369560
851.2285, 0.9178890
851.7106, 1.177639
852.1927, 1.292990
852.6749, 0.9805050
853.1570, 0.3849930
853.6391, 1.4399000E-02
854.1212, 3.0230000E-03
854.6033, 0.2208250
855.0854, 0.3926470
855.5676, 0.5265720
856.0497, 0.6713700
856.5318, 0.8292840
857.0139, 0.9440720
857.4960, 1.003352
857.9781, 0.9871640
858.4603, 0.8511630
858.9424, 0.6123000
859.4245, 0.4649930
859.9066, 0.3953580
860.3887, 0.4436700
860.8708, 0.7413030
861.3530, 1.023144
861.8351, 1.182772
862.3172, 1.219742
862.7993, 1.111908
863.2814, 0.8214210
863.7635, 0.5838930
864.2457, 0.4637730
864.7278, 0.4667570
865.2099, 0.7034740
865.6920, 1.026763
866.1741, 1.152496
866.6563, 1.051516
867.1384, 0.9842760
867.6205, 1.198912
868.1026, 1.474631
868.5847, 1.302399
869.0668, 0.7706450
869.5490, 0.4510050
870.0311, 0.4261060
870.5132, 0.5593440
870.9953, 0.8204490
871.4774, 1.067407
871.9595, 0.9845910
872.4417, 0.4753630
872.9238, 0.1628560
873.4059, 0.1359340
873.8880, 0.1631410
874.3701, 0.1880720
874.8522, 0.2315220
875.3344, 0.3308040
875.8165, 0.4719250
876.2986, 0.5732210
876.7807, 0.6119790
877.2628, 0.6209090
877.7449, 0.5434020
878.2271, 0.4906750
878.7092, 0.5681900
879.1913, 0.7483060
879.6734, 0.9910960
880.1555, 1.276457
880.6376, 1.458375
881.1198, 1.291959
881.6019, 0.9821930
882.0840, 0.9226300
882.5661, 1.069879
883.0482, 1.234659
883.5303, 1.399433
884.0125, 1.467261
884.4946, 1.335349
884.9767, 1.077044
885.4588, 0.9086520
885.9409, 0.8557060
886.4230, 0.7341620
886.9052, 0.4670470
887.3873, 0.2775340
887.8694, 0.2980100
888.3515, 0.4430950
888.8336, 0.6197940
889.3157, 0.8612640
889.7979, 0.8748600
890.2800, 0.3438560
890.7621, 1.3936000E-02
891.2442, 0.1094010
891.7263, 0.3888220
892.2084, 0.5512590
892.6906, 0.6176740
893.1727, 0.7663990
893.6548, 1.118521
894.1369, 1.348352
894.6190, 1.124353
895.1011, 0.7447670
895.5833, 0.5436350
896.0654, 0.4994030
896.5475, 0.4983340
897.0296, 0.5075720
897.5117, 0.4935640
897.9938, 0.4240830
898.4760, 0.3367520
898.9581, 0.3277880
899.4402, 0.3911190
899.9223, 0.4336570
900.4044, 0.4387350
900.8865, 0.4468850
901.3687, 0.4810500
901.8508, 0.5396750
902.3329, 0.6167810
902.8150, 0.7061550
903.2971, 0.8684620
903.7792, 1.334822
904.2614, 1.475506
904.7435, 0.8279250
905.2256, 6.4139999E-03
905.7077, 0.5312050
906.1898, 0.7691690
906.6719, 0.6526880
907.1541, 0.2232500
907.6362, 0.8171330
908.1183, 0.6125900
908.6004, 0.2866420
909.0825, 0.3160440
909.5646, 0.5703140
910.0468, 0.8308300
910.5289, 1.042453
911.0110, 1.138209
911.4931, 0.9658190
911.9752, 0.7475700
912.4573, 0.7628290
912.9395, 0.9003210
913.4216, 0.9275500
913.9037, 0.8176950
914.3858, 0.6586650
914.8679, 0.4949570
915.3500, 0.3896250
915.8321, 0.5048650
916.3142, 0.7987280
916.7963, 0.9424840
917.2784, 0.9222580
917.7606, 0.8077940
918.2427, 0.5947830
918.7248, 0.4141350
919.2069, 0.4184660
919.6890, 0.5792920
920.1711, 0.6796650
920.6533, 0.7195630
921.1354, 0.6923150
921.6175, 0.4990830
922.0996, 0.3688250
922.5817, 0.4854610
923.0638, 0.7099120
923.5460, 0.8407770
924.0281, 0.8646180
924.5102, 0.8682320
924.9923, 0.8765500
925.4744, 0.8500640
925.9565, 0.6939690
926.4387, 0.5604610
926.9208, 0.6554320
927.4029, 0.8956400
927.8850, 0.9925870
928.3671, 0.8144140
928.8492, 0.6332020
929.3314, 0.6657160
929.8135, 0.7690830
930.2956, 0.8143430
930.7777, 0.7927470
931.2598, 0.6470570
931.7419, 0.4022460
932.2241, 0.3160760
932.7062, 0.6610750
933.1883, 1.108773
933.6704, 0.9431540
934.1525, 0.3343590
934.6346, 6.4691000E-02
935.1168, 0.2050220
935.5989, 0.4449270
936.0810, 0.6539210
936.5631, 0.7777330
937.0452, 0.6969850
937.5273, 0.4410650
938.0095, 0.5510180
938.4916, 1.179561
938.9737, 1.545388
939.4558, 1.469152
939.9379, 1.160557
940.4200, 0.6086090
940.9022, 1.1021000E-02
941.3843, 8.3586998E-02
941.8664, 0.6081860
942.3485, 0.9301690
942.8306, 0.4912160
943.3127, 0.1996910
943.7949, 0.4292440
944.2770, 0.7998930
944.7591, 1.030018
945.2412, 1.098603
945.7233, 0.9946290
946.2054, 0.5455800
946.6876, 0.3000810
947.1697, 0.7109520
947.6518, 1.148426
948.1339, 1.083573
948.6160, 0.7468450
949.0981, 0.5341920
949.5803, 0.5256990
950.0624, 0.5970420
950.5445, 0.7621580
951.0266, 0.8406350
951.5087, 0.4874490
951.9908, 5.8209999E-03
952.4730, 7.1510002E-03
952.9551, 0.3978970
953.4372, 0.5705790
953.9193, 0.2794480
954.4014, 7.9949997E-02
954.8835, 1.2527000E-02
955.3657, 0.3091530
955.8478, 0.3589150
956.3299, 0.1790810
956.8120, 8.2516998E-02
957.2941, 0.1309150
957.7762, 0.2231140
958.2584, 0.2960050
958.7405, 0.3622110
959.2226, 0.4537520
959.7047, 0.5867880
960.1868, 0.6907070
960.6689, 0.8078050
961.1511, 0.7525390
961.6332, 0.3727260
962.1153, 1.2326000E-02
962.5974, 2.4290001E-03
963.0795, 0.2517430
963.5616, 0.4347100
964.0438, 0.6183400
964.5259, 0.6585830
965.0080, 0.5163580
965.4901, 0.3216570
965.9722, 3.0110001E-03
966.4543, 0.2457230
966.9365, 0.1690530
967.4186, 0.2003640
967.9007, 0.5085390
968.3828, 0.7364210
968.8649, 0.8585620
969.3470, 0.7815620
969.8292, 0.6839690
970.3113, 0.7126740
970.7934, 0.7830560
971.2755, 0.7305950
971.7576, 0.5436230
972.2397, 0.4085980
972.7219, 0.4759470
973.2040, 0.5372040
973.6861, 0.4053010
974.1682, 0.2490620
974.6503, 0.2986950
975.1324, 0.4946450
975.6146, 0.6337750
976.0967, 0.6434380
976.5788, 0.5974360
977.0609, 0.5181230
977.5430, 0.4523730
978.0251, 0.4801550
978.5073, 0.5699770
978.9894, 0.6777370
979.4715, 0.7769290
979.9536, 0.7652850
980.4357, 0.5802850
980.9178, 0.3929850
981.4000, 0.5044440
981.8821, 0.8132640
982.3642, 0.8928320
982.8463, 0.7720560
983.3284, 0.7742200
983.8105, 0.9801470
984.2927, 1.120132
984.7748, 0.9780470
985.2569, 0.6917340
985.7390, 0.6042370
986.2211, 0.7336560
986.7032, 0.6529150
987.1854, 0.2968660
987.6675, 7.7193998E-02
988.1496, 0.1398610
988.6317, 0.3315550
989.1138, 0.5364100
989.5959, 0.7340020
990.0781, 0.8185440
990.5602, 0.7060280
991.0423, 0.7451950
991.5244, 1.116500
992.0065, 1.305043
992.4886, 0.9923940
992.9708, 0.5347120
993.4529, 0.2759610
993.9350, 0.2145090
994.4171, 0.3331460
994.8992, 0.9437920
995.3813, 1.249063
995.8635, 0.9645940
996.3456, 0.6658890
996.8277, 0.6249940
997.3098, 0.6998020
997.7919, 0.6973570
998.2740, 0.6153460
998.7562, 0.6059820
999.2383, 0.8614890
999.7204, 0.9779200
1000.203, 0.6835780
1000.685, 0.3554520
1001.167, 0.2333400
1001.649, 0.2634500
1002.131, 0.3614920
1002.613, 0.5042130
1003.095, 0.6106380
1003.577, 0.6681740
1004.059, 0.6522520
1004.542, 0.4602220
1005.024, 0.2609210
1005.506, 0.2358460
1005.988, 0.3404970
1006.470, 0.4483520
1006.952, 0.5222440
1007.434, 0.5964550
1007.916, 0.7247740
1008.398, 0.8320630
1008.881, 0.8398090
1009.363, 0.7835060
1009.845, 0.6667430
1010.327, 0.5375510
1010.809, 0.5323240
1011.291, 0.6913650
1011.773, 0.8299950
1012.255, 0.7372870
1012.738, 0.5444010
1013.220, 0.4178310
1013.702, 0.3388750
1014.184, 0.2810800
1014.666, 0.2363530
1015.148, 0.2081840
1015.630, 0.1965680
1016.112, 0.1558330
1016.594, 5.3851001E-02
1017.077, 0.2925540
1017.559, 8.2668997E-02
1018.041, 0.4653550
1018.523, 0.8120490
1019.005, 0.8676950
1019.487, 0.7655020
1019.969, 0.5658930
1020.451, 0.3580750
1020.934, 0.2961800
1021.416, 0.3410200
1021.898, 0.2515420
1022.380, 3.5344999E-02
1022.862, 4.1319998E-03
1023.344, 0.2306080
1023.826, 0.4227520
1024.308, 0.3692650
1024.791, 0.2439960
1025.273, 0.3423790
1025.755, 0.6459190
1026.237, 0.9210370
1026.719, 1.196525
1027.201, 1.177373
1027.683, 0.7406060
1028.165, 0.2570500
1028.647, 4.3825001E-02
1029.130, 0.1926150
1029.612, 0.2351130
1030.094, 0.1956490
1030.576, 4.6829998E-02
1031.058, 0.2447400
1031.540, 0.5592650
1032.022, 0.9654920
1032.504, 1.149728
1032.986, 0.7631000
1033.469, 0.1365780
1033.951, 5.9067000E-02
1034.433, 0.6667980
1034.915, 0.9769980
1035.397, 0.8500180
1035.879, 0.7296760
1036.361, 0.7329960
1036.843, 0.7242910
1037.326, 0.5429840
1037.808, 0.3168420
1038.290, 0.3832450
1038.772, 0.8678420
1039.254, 1.078907
1039.736, 0.8616810
1040.218, 0.6130330
1040.700, 0.3200440
1041.182, 0.1151400
1041.665, 0.1089720
1042.147, 0.2493320
1042.629, 0.4330990
1043.111, 0.7008150
1043.593, 0.8360160
1044.075, 0.6776470
1044.557, 0.6019680
1045.039, 0.7976190
1045.521, 0.9897230
1046.004, 0.9856300
1046.486, 0.8424980
1046.968, 0.6653250
1047.450, 0.4338090
1047.932, 0.3297410
1048.414, 0.4848430
1048.896, 0.6152830
1049.378, 0.5951200
1049.861, 0.5749760
1050.343, 0.7015620
1050.825, 0.8957470
1051.307, 0.9878850
1051.789, 0.9485920
1052.271, 0.8981520
1052.753, 0.9283670
1053.235, 0.8579000
1053.718, 0.4508440
1054.200, 9.3235001E-02
1054.682, 0.1199830
1055.164, 0.3948330
1055.646, 0.6718840
1056.128, 0.9199300
1056.610, 0.9844520
1057.092, 0.5581900
1057.574, 0.2904200
1058.057, 0.5274760
1058.539, 0.9103940
1059.021, 1.285313
1059.503, 1.553615
1059.985, 1.552789
1060.467, 1.259916
1060.949, 0.9614830
1061.431, 0.6621250
1061.913, 0.4964200
1062.396, 0.6252430
1062.878, 0.8021500
1063.360, 0.8346560
1063.842, 0.7767080
1064.324, 0.7304940
1064.806, 0.7156710
1065.288, 0.7290100
1065.770, 0.7849360
1066.253, 0.8476150
1066.735, 0.9497650
1067.217, 1.006426
1067.699, 0.9257520
1068.181, 0.7680930
1068.663, 0.6248780
1069.145, 0.5121900
1069.627, 0.4030160
1070.109, 0.2048370
1070.592, 0.1478940
1071.074, 0.4521340
1071.556, 0.8177750
1072.038, 1.079098
1072.520, 1.222948
1073.002, 1.231420
1073.484, 1.123528
1073.966, 0.9979030
1074.448, 0.8562790
1074.931, 0.7615820
1075.413, 0.9079600
1075.895, 0.9939790
1076.377, 0.6449610
1076.859, 0.2014510
1077.341, 0.1799360
1077.823, 0.5466750
1078.305, 0.8561550
1078.788, 0.9876330
1079.270, 0.9486840
1079.752, 0.5348490
1080.234, 0.1789060
1080.716, 0.2123150
1081.198, 0.4412330
1081.680, 0.7087310
1082.162, 0.9344530
1082.644, 0.9623290
1083.127, 0.7015950
1083.609, 0.4588310
1084.091, 0.3125460
1084.573, 0.2917940
1085.055, 0.6179990
1085.537, 0.9193100
1086.019, 0.6631460
1086.501, 6.1147001E-02
1086.984, 0.2305140
1087.466, 1.1703000E-02
1087.948, 0.2302980
1088.430, 0.2317080
1088.912, 0.2723190
1089.394, 0.6625180
1089.876, 1.047532
1090.358, 1.017347
1090.840, 0.7448440
1091.323, 0.6596020
1091.805, 0.8490650
1092.287, 0.9394020
1092.769, 0.6654060
1093.251, 0.4329650
1093.733, 0.4427110
1094.215, 0.5290200
1094.697, 0.5705310
1095.179, 0.5930460
1095.662, 0.6687350
1096.144, 0.8003400
1096.626, 0.8942410
1097.108, 1.000929
1097.590, 0.9415780
1098.072, 0.3755690
1098.554, 6.8460003E-02
1099.036, 0.1103130
1099.519, 0.5814040
1100.001, 0.9786920
1100.483, 1.236404
1100.965, 1.289343
1101.447, 1.010995
1101.929, 0.7723290
1102.411, 0.6756360
1102.893, 0.6316470
1103.375, 0.6918220
1103.858, 0.7273240
1104.340, 0.5839240
1104.822, 0.3265460
1105.304, 0.1902660
1105.786, 0.2324850
1106.268, 0.3021100
1106.750, 0.4276920
1107.232, 0.5037710
1107.714, 0.4671020
1108.197, 0.3946200
1108.679, 0.3341220
1109.161, 0.2871930
1109.643, 0.2556210
1110.125, 0.2443400
1110.607, 0.2140350
1111.089, 0.1546200
1111.571, 8.5694999E-02
1112.054, 6.4699999E-03
1112.536, 8.8109002E-02
1113.018, 0.1579600
1113.500, 0.1971060
1113.982, 0.1830280
1114.464, 0.1156870
1114.946, 2.3421001E-02
1115.428, 0.3566550
1115.911, 0.5570550
1116.393, 0.5483620
1116.875, 0.4877590
1117.357, 0.4323040
1117.839, 0.3563260
1118.321, 0.1805530
1118.803, 4.8027001E-02
1119.285, 3.5576001E-02
1119.767, 0.4035720
1120.250, 0.6157690
1120.732, 0.4360360
1121.214, 0.3232420
1121.696, 0.4499480
1122.178, 0.6150370
1122.660, 0.6355900
1123.142, 0.5930550
1123.624, 0.7196140
1124.106, 1.061120
1124.589, 1.213232
1125.071, 1.136130
1125.553, 0.9989850
1126.035, 0.8209990
1126.517, 0.6090120
1126.999, 0.3183140
1127.481, 0.1121640
1127.963, 0.2988920
1128.446, 0.8231150
1128.928, 1.004450
1129.410, 0.7950010
1129.892, 0.6978700
1130.374, 0.7786000
1130.856, 0.7804840
1131.338, 0.5730680
1131.820, 0.3874540
1132.302, 0.4901510
1132.785, 0.7675630
1133.267, 0.8694790
1133.749, 0.8041340
1134.231, 0.6560590
1134.713, 0.4372510
1135.195, 0.3964360
1135.677, 0.6007660
1136.159, 0.8661320
1136.641, 1.068822
1137.124, 1.205907
1137.606, 1.276839
1138.088, 1.279622
1138.570, 1.164644
1139.052, 0.9696890
1139.534, 0.8724660
1140.016, 0.8948490
1140.498, 0.9778200
1140.981, 1.091796
1141.463, 1.177933
1141.945, 1.194698
1142.427, 1.117716
1142.909, 0.8189400
1143.391, 0.4307240
1143.873, 0.2780150
1144.355, 0.3088520
1144.838, 0.2225050
1145.320, 1.0661000E-02
1145.802, 0.1450150
1146.284, 1.3992000E-02
1146.766, 0.2626020
1147.248, 0.4053460
1147.730, 0.5116790
1148.212, 0.7274890
1148.694, 0.9387480
1149.177, 0.9039620
1149.659, 0.6566300
1150.141, 0.4187370
1150.623, 0.2582350
1151.105, 0.2818200
1151.587, 0.8120580
1152.069, 1.245327
1152.551, 1.039550
1153.033, 0.6374360
1153.516, 0.4535060
1153.998, 0.4541480
1154.480, 0.4983890
1154.962, 0.5561950
1155.444, 0.6105750
1155.926, 0.6468480
1156.408, 0.6895900
1156.890, 0.8168540
1157.373, 0.8818430
1157.855, 0.6305660
1158.337, 0.3950100
1158.819, 0.7896900
1159.301, 1.598203
1159.783, 1.647249
1160.265, 0.3721540
1160.747, 0.4087160
1161.229, 0.3403390
1161.712, 0.1110500
1162.194, 0.2213080
1162.676, 0.5660670
1163.158, 0.9430440
1163.640, 1.234246
1164.122, 1.154450
1164.604, 0.6819170
1165.086, 0.6580420
1165.568, 1.373096
1166.051, 1.614396
1166.533, 1.102818
1167.015, 0.6002450
1167.497, 0.4095550
1167.979, 0.3939080
1168.461, 0.4530350
1168.943, 0.5330110
1169.425, 0.4731780
1169.908, 0.2726210
1170.390, 0.3867800
1170.872, 0.8347490
1171.354, 1.070311
1171.836, 0.9672210
1172.318, 0.8486970
1172.800, 0.9169380
1173.282, 1.039531
1173.765, 1.051795
1174.247, 0.9722500
1174.729, 0.8028140
1175.211, 0.5942640
1175.693, 0.6008930
1176.175, 0.7676560
1176.657, 0.6722160
1177.139, 0.2215790
1177.621, 0.1205470
1178.104, 8.8040000E-03
1178.586, 0.2943560
1179.068, 0.4046930
1179.550, 0.4069290
1180.032, 0.2886970
1180.514, 0.1842470
1180.996, 0.4084280
1181.478, 0.8769500
1181.960, 1.160096
1182.443, 1.097899
1182.925, 0.9565120
1183.407, 0.8858160
1183.889, 0.7912990
1184.371, 0.4831370
1184.853, 0.2530390
1185.335, 0.5409290
1185.817, 0.9858710
1186.300, 0.8830240
1186.782, 0.2529430
1187.264, 3.8798999E-02
1187.746, 0.3691130
1188.228, 0.7337300
1188.710, 1.047771
1189.192, 1.142423
1189.674, 0.7077870
1190.156, 0.2700450
1190.639, 0.3330820
1191.121, 0.6446340
1191.603, 0.6148210
1192.085, 0.1924850
1192.567, 0.1409650
1193.049, 0.6653500
1193.531, 0.9571370
1194.013, 0.8731200
1194.495, 0.7162870
1194.978, 0.6001840
1195.460, 0.4946690
1195.942, 0.3454940
1196.424, 0.2264720
1196.906, 0.4510570
1197.388, 0.9862400
1197.870, 1.031663
1198.352, 0.6084450
1198.835, 0.3527490
1199.317, 0.3736510
1199.799, 0.4117010
1200.281, 0.3269010
1200.763, 0.2538080
1201.245, 0.3689680
1201.727, 0.5655240
1202.209, 0.6758640
1202.692, 0.7088760
1203.174, 0.6186370
1203.656, 0.4747200
1204.138, 0.4752280
1204.620, 0.6480360
1205.102, 0.9713350
1205.584, 1.497522
1206.066, 1.829431
1206.548, 1.446473
1207.031, 1.021702
1207.513, 1.214342
1207.995, 1.518979
1208.477, 1.332991
1208.959, 0.8345100
1209.441, 0.4686940
1209.923, 0.3099070
1210.405, 0.2511570
1210.887, 0.1542450
1211.370, 0.2392540
1211.852, 0.8345390
1212.334, 1.273177
1212.816, 1.209937
1213.298, 0.9458720
1213.780, 0.6652720
1214.262, 0.3939250
1214.744, 0.1805510
1215.227, 1.2660000E-02
1215.709, 5.4667000E-02
1216.191, 0.3563950
1216.673, 0.6887790
1217.155, 1.055214
1217.637, 1.264531
1218.119, 1.213835
1218.601, 1.070441
1219.083, 1.073133
1219.566, 1.146262
1220.048, 1.061214
1220.530, 0.8481200
1221.012, 0.6442750
1221.494, 0.4786450
1221.976, 0.5156610
1222.458, 0.7287280
1222.940, 0.8002010
1223.422, 0.5932060
1223.905, 0.3845340
1224.387, 0.4868530
1224.869, 0.5941100
1225.351, 0.2297690
1225.833, 0.1913480
1226.315, 0.1162570
1226.797, 0.2404450
1227.279, 0.5458740
1227.762, 0.7160880
1228.244, 0.6626210
1228.726, 0.2832780
1229.208, 0.1083210
1229.690, 0.5111060
1230.172, 0.8641490
1230.654, 0.9514920
1231.136, 0.9143990
1231.619, 0.7877420
1232.101, 0.6188860
1232.583, 0.4247700
1233.065, 0.2513320
1233.547, 0.4876080
1234.029, 1.416952
1234.511, 1.764990
1234.993, 1.386396
1235.475, 0.9418120
1235.958, 0.5361130
1236.440, 0.2971170
1236.922, 0.2910320
1237.404, 0.5219960
1237.886, 1.064683
1238.368, 1.702270
1238.850, 1.688068
1239.332, 1.182091
1239.814, 0.7526830
1240.297, 0.4686280
1240.779, 0.4089570
1241.261, 0.5721500
1241.743, 0.9111020
1242.225, 1.421576
1242.707, 1.747819
1243.189, 1.344677
1243.671, 0.8773310
1244.154, 0.9949370
1244.636, 1.325787
1245.118, 1.558270
1245.600, 1.654339
1246.082, 1.566900
1246.564, 1.334427
1247.046, 1.178166
1247.528, 1.213683
1248.010, 1.132470
1248.493, 0.6498140
1248.975, 0.3825210
1249.457, 0.6813430
1249.939, 0.9719640
1250.421, 0.9017180
1250.903, 0.6880950
1251.385, 0.6387620
1251.867, 0.7255270
1252.349, 0.7810470
1252.832, 0.8025980
1253.314, 0.8377990
1253.796, 0.8882400
1254.278, 0.9661910
1254.760, 1.069551
1255.242, 0.9338810
1255.724, 0.4059190
1256.206, 9.8980004E-03
1256.689, 0.4661750
1257.171, 1.238989
1257.653, 1.197863
1258.135, 0.7849450
1258.617, 0.7571000
1259.099, 0.9858300
1259.581, 1.110174
1260.063, 1.092398
1260.546, 1.100562
1261.028, 1.201382
1261.510, 1.221791
1261.992, 0.9703450
1262.474, 0.7853530
1262.956, 0.8019320
1263.438, 0.9246800
1263.920, 1.259140
1264.402, 1.538553
1264.885, 1.344099
1265.367, 0.8525110
1265.849, 0.7442310
1266.331, 1.149921
1266.813, 1.019267
1267.295, 0.1611930
1267.777, 0.2853980
1268.259, 0.1109890
1268.741, 0.1825540
1269.224, 0.3904850
1269.706, 0.4896690
1270.188, 0.4300410
1270.670, 0.3559660
1271.152, 0.6132140
1271.634, 1.000188
1272.116, 1.107500
1272.598, 1.022704
1273.081, 1.037134
1273.563, 1.131836
1274.045, 1.075910
1274.527, 0.8292740
1275.009, 0.7039120
1275.491, 0.9201100
1275.973, 1.143358
1276.455, 1.223061
1276.938, 1.243445
1277.420, 1.020416
1277.902, 1.000971
1278.384, 0.9533330
1278.866, 0.8910850
1279.348, 0.9005640
1279.830, 0.9685280
1280.312, 0.8454150
1280.794, 0.4483800
1281.276, 0.1685620
1281.759, 1.3066000E-02
1282.241, 9.4640002E-02
1282.723, 0.4413390
1283.205, 0.6895690
1283.687, 0.6171770
1284.169, 0.3703550
1284.651, 0.1481700
1285.133, 2.4570001E-03
1285.616, 2.3965999E-02
1286.098, 0.0000000E+00
##END=



