##NAMES=Claraite
##RRUFFID=R110020
##IDEAL CHEMISTRY=(Cu^2+^,Zn^2+^)_15_(CO_3_)_4_(As^5+^O_4_)_2_(S^6+^O_4_)(OH)_14_&#183;7H_2_O
##LOCALITY=Sommerau District, Brixlegg - Rattenberg, Brixlegg - Schwaz area, Inn valley, North Tyrol, Tyrol, Austria
##OWNER=RRUFF
##SOURCE=Bob Jenkins
##DESCRIPTION=Light blue massive coating with scattered isolated crystals, associated with dark blue azurite
##STATUS=The identification of this mineral is not yet confirmed.
##URL=rruff.info/R110020
168.7422, 0.0000000E+00
169.2243, 0.8070180
169.7064, 1.572987
170.1885, 0.7929730
170.6707, 4.2045999E-02
171.1528, 0.1777270
171.6349, 1.093975
172.1170, 1.998569
172.5991, 2.049854
173.0812, 1.177551
173.5634, 0.8886680
174.0455, 1.962399
174.5276, 3.059052
175.0097, 3.743725
175.4918, 3.904057
175.9739, 3.695911
176.4561, 3.369389
176.9382, 2.837265
177.4203, 2.480587
177.9024, 2.427467
178.3845, 2.475845
178.8666, 2.997990
179.3488, 3.966499
179.8309, 4.742981
180.3130, 4.353741
180.7951, 1.756626
181.2772, 0.3214950
181.7593, 0.5492130
182.2415, 1.441673
182.7236, 2.392365
183.2057, 3.221214
183.6878, 3.990162
184.1699, 4.854221
184.6520, 6.342731
185.1342, 6.686676
185.6163, 4.830940
186.0984, 2.246281
186.5805, 0.4187550
187.0626, 0.2133180
187.5447, 1.7895000E-02
188.0269, 0.8710330
188.5090, 2.980145
188.9911, 4.352180
189.4732, 4.511913
189.9553, 4.025513
190.4374, 3.434460
190.9196, 2.741459
191.4017, 2.213284
191.8838, 2.445969
192.3659, 3.449219
192.8480, 4.552952
193.3301, 5.733475
193.8123, 6.836769
194.2944, 7.157871
194.7765, 5.903275
195.2586, 4.601154
195.7407, 5.144062
196.2228, 7.579327
196.7050, 9.700794
197.1871, 9.367222
197.6692, 6.731579
198.1513, 5.074909
198.6334, 6.059387
199.1155, 7.457535
199.5977, 7.640038
200.0798, 6.593367
200.5619, 5.255043
201.0440, 4.537888
201.5261, 4.536444
202.0082, 4.464220
202.4904, 4.245077
202.9725, 3.913624
203.4546, 3.375309
203.9367, 2.653065
204.4188, 1.957901
204.9009, 1.578844
205.3831, 1.651712
205.8652, 1.630707
206.3473, 1.565804
206.8294, 1.358301
207.3115, 0.6613710
207.7936, 0.4459570
208.2758, 1.304407
208.7579, 0.7685380
209.2400, 2.565729
209.7221, 4.564024
210.2042, 5.433525
210.6863, 5.505070
211.1685, 4.570570
211.6506, 2.777071
212.1327, 0.9932860
212.6148, 0.4977420
213.0969, 2.215668
213.5790, 3.321228
214.0612, 3.489080
214.5433, 3.299383
215.0254, 3.204798
215.5075, 3.315077
215.9896, 3.476685
216.4717, 3.424038
216.9539, 2.982592
217.4360, 2.740364
217.9181, 2.462488
218.4002, 2.274939
218.8823, 2.350981
219.3644, 2.822371
219.8466, 3.331041
220.3287, 3.702061
220.8108, 3.926239
221.2929, 4.185629
221.7750, 4.870235
222.2571, 5.470484
222.7393, 5.137644
223.2214, 3.565283
223.7035, 1.750519
224.1856, 1.046436
224.6677, 1.354088
225.1498, 1.692471
225.6320, 1.778639
226.1141, 1.752666
226.5962, 1.987495
227.0783, 2.609861
227.5604, 3.077696
228.0425, 2.292524
228.5247, 0.6395190
229.0068, 2.8107001E-02
229.4889, 2.358860
229.9710, 6.136190
230.4531, 7.839560
230.9352, 6.456709
231.4174, 4.345232
231.8995, 3.041811
232.3816, 2.432070
232.8637, 2.327822
233.3458, 2.918240
233.8279, 4.034134
234.3101, 5.019039
234.7922, 5.781727
235.2743, 5.986441
235.7564, 5.275093
236.2385, 4.023178
236.7206, 2.967403
237.2028, 2.527882
237.6849, 2.620468
238.1670, 2.919378
238.6491, 3.616734
239.1312, 4.219004
239.6133, 4.534750
240.0955, 4.651075
240.5776, 4.727318
241.0597, 4.897074
241.5418, 5.086075
242.0239, 4.878712
242.5060, 3.659258
242.9882, 2.923685
243.4703, 3.646240
243.9524, 4.971811
244.4345, 5.574583
244.9166, 4.572948
245.3987, 2.423418
245.8809, 1.154066
246.3630, 1.161047
246.8451, 1.644016
247.3272, 3.263245
247.8093, 5.009981
248.2914, 5.329874
248.7736, 3.252401
249.2557, 0.3459300
249.7378, 1.832718
250.2199, 1.065351
250.7020, 3.375673
251.1841, 4.201639
251.6663, 4.190048
252.1484, 4.119762
252.6305, 4.355820
253.1126, 4.736725
253.5947, 4.717995
254.0768, 3.874458
254.5590, 3.109262
255.0411, 2.279041
255.5232, 1.627970
256.0053, 1.511015
256.4874, 2.075474
256.9695, 3.016920
257.4517, 3.600275
257.9338, 3.532993
258.4159, 3.416422
258.8980, 2.991339
259.3801, 2.631813
259.8622, 2.884378
260.3444, 3.920830
260.8265, 5.215048
261.3086, 5.768057
261.7907, 5.237520
262.2728, 4.398849
262.7549, 2.513294
263.2371, 0.6864600
263.7192, 0.3820040
264.2013, 1.931511
264.6834, 3.897123
265.1655, 4.013481
265.6476, 0.9009800
266.1298, 0.8273050
266.6119, 1.1198000E-02
267.0940, 1.797831
267.5761, 3.348297
268.0582, 4.363489
268.5403, 4.617105
269.0225, 3.563084
269.5046, 0.6466870
269.9867, 0.7801700
270.4688, 0.4889350
270.9509, 2.601709
271.4330, 3.976377
271.9152, 4.422100
272.3973, 4.688730
272.8794, 5.654541
273.3615, 7.361959
273.8436, 7.882446
274.3257, 6.247719
274.8079, 4.079918
275.2900, 2.506655
275.7721, 1.604483
276.2542, 1.175463
276.7363, 1.115671
277.2184, 1.460987
277.7006, 2.051003
278.1827, 3.477470
278.6648, 4.671888
279.1469, 4.578007
279.6290, 3.361946
280.1111, 2.420719
280.5933, 2.818317
281.0754, 4.033981
281.5575, 4.327423
282.0396, 2.856798
282.5217, 1.531618
283.0038, 1.854342
283.4860, 3.496233
283.9681, 4.694414
284.4502, 4.487051
284.9323, 3.484829
285.4144, 3.032459
285.8965, 3.278631
286.3787, 3.654724
286.8608, 3.862303
287.3429, 3.980791
287.8250, 4.173195
288.3071, 4.560575
288.7892, 4.957294
289.2714, 5.271524
289.7535, 5.613302
290.2356, 5.228367
290.7177, 2.794909
291.1998, 0.6637690
291.6819, 2.297436
292.1641, 1.050259
292.6462, 1.348120
293.1283, 3.394623
293.6104, 5.095463
294.0925, 5.897598
294.5746, 4.960140
295.0568, 3.070822
295.5389, 1.829094
296.0210, 1.537222
296.5031, 1.545002
296.9852, 1.276236
297.4673, 0.8479940
297.9495, 0.6023350
298.4316, 0.4515990
298.9137, 0.6222530
299.3958, 1.760098
299.8779, 4.152340
300.3600, 6.165686
300.8422, 6.331032
301.3243, 5.411821
301.8064, 4.630758
302.2885, 4.292974
302.7706, 4.158777
303.2527, 3.858908
303.7349, 3.355961
304.2170, 3.229652
304.6991, 4.338055
305.1812, 5.685434
305.6633, 5.767790
306.1454, 3.951925
306.6276, 1.978048
307.1097, 1.592207
307.5918, 2.640360
308.0739, 3.202381
308.5560, 1.823427
309.0381, 8.3316997E-02
309.5203, 5.0393999E-02
310.0024, 1.623171
310.4845, 3.291479
310.9666, 3.535868
311.4487, 2.654991
311.9308, 2.164335
312.4130, 2.419464
312.8951, 2.924850
313.3772, 3.299494
313.8593, 3.552385
314.3414, 3.693987
314.8235, 3.639551
315.3057, 3.478868
315.7878, 3.541277
316.2699, 4.044569
316.7520, 4.300531
317.2341, 3.282064
317.7162, 1.623390
318.1984, 0.7760490
318.6805, 1.999113
319.1626, 3.986748
319.6447, 4.465761
320.1268, 3.080471
320.6089, 1.982496
321.0911, 3.107574
321.5732, 5.074938
322.0553, 5.871761
322.5374, 4.579388
323.0195, 2.836031
323.5016, 2.499899
323.9838, 3.523758
324.4659, 4.291937
324.9480, 3.862169
325.4301, 2.961384
325.9122, 2.562441
326.3943, 2.808878
326.8765, 3.046286
327.3586, 2.719463
327.8407, 1.877340
328.3228, 1.162174
328.8049, 0.4903390
329.2870, 0.1589340
329.7692, 0.6529640
330.2513, 1.886383
330.7334, 2.876709
331.2155, 2.977787
331.6976, 2.510042
332.1797, 2.172480
332.6619, 2.003668
333.1440, 2.059914
333.6261, 2.700106
334.1082, 3.634167
334.5903, 4.113873
335.0724, 3.668520
335.5546, 2.772581
336.0367, 1.970894
336.5188, 1.264067
337.0009, 0.7004130
337.4830, 0.1008340
337.9651, 0.3454880
338.4473, 3.7136000E-02
338.9294, 1.644472
339.4115, 3.325609
339.8936, 3.815844
340.3757, 3.247763
340.8578, 2.468822
341.3400, 1.593822
341.8221, 0.8630910
342.3042, 0.6879040
342.7863, 1.177404
343.2684, 1.572975
343.7505, 1.278023
344.2327, 0.6223510
344.7148, 0.4595760
345.1969, 1.071915
345.6790, 1.930071
346.1611, 2.457592
346.6432, 2.704828
347.1254, 2.883562
347.6075, 2.969553
348.0896, 3.053864
348.5717, 3.281685
349.0538, 3.609636
349.5359, 3.819445
350.0181, 3.996830
350.5002, 4.123938
350.9823, 4.096149
351.4644, 3.752611
351.9465, 3.380146
352.4286, 3.188583
352.9108, 3.144922
353.3929, 3.070173
353.8750, 2.851355
354.3571, 2.637686
354.8392, 2.720751
355.3214, 3.084402
355.8035, 3.239885
356.2856, 2.855707
356.7677, 2.139013
357.2498, 1.373886
357.7319, 0.6556090
358.2141, 0.2113570
358.6962, 0.3025050
359.1783, 1.036139
359.6604, 1.540630
360.1425, 1.608950
360.6246, 1.465931
361.1068, 1.098080
361.5889, 0.5741040
362.0710, 0.5253560
362.5531, 1.657568
363.0352, 3.937550
363.5173, 5.310417
363.9995, 5.087240
364.4816, 4.739237
364.9637, 4.970510
365.4458, 5.641649
365.9279, 6.417751
366.4100, 7.204554
366.8922, 7.787642
367.3743, 7.432777
367.8564, 5.485176
368.3385, 3.628258
368.8206, 1.403940
369.3027, 0.3392620
369.7849, 0.1325510
370.2670, 2.328253
370.7491, 5.302601
371.2312, 6.291973
371.7133, 4.298088
372.1954, 3.272806
372.6776, 3.957861
373.1597, 4.910862
373.6418, 5.475716
374.1239, 5.516281
374.6060, 4.902887
375.0881, 3.358448
375.5703, 0.9548150
376.0524, 2.3662999E-02
376.5345, 2.210041
377.0166, 3.957695
377.4987, 4.336174
377.9808, 3.817665
378.4630, 2.993933
378.9451, 2.132671
379.4272, 1.457888
379.9093, 1.535191
380.3914, 3.054811
380.8735, 4.210171
381.3557, 5.163754
381.8378, 5.622217
382.3199, 5.065790
382.8020, 3.600510
383.2841, 2.089899
383.7662, 1.504278
384.2484, 1.947155
384.7305, 2.580858
385.2126, 4.014297
385.6947, 5.046841
386.1768, 5.189508
386.6589, 4.631908
387.1411, 3.723642
387.6232, 2.574839
388.1053, 1.386129
388.5874, 0.9286370
389.0695, 1.599434
389.5516, 2.276913
390.0338, 2.541412
390.5159, 2.780172
390.9980, 3.482788
391.4801, 4.775032
391.9622, 6.044840
392.4443, 6.693306
392.9265, 6.755392
393.4086, 5.805677
393.8907, 2.426867
394.3728, 0.6870820
394.8549, 1.841174
395.3370, 1.323895
395.8192, 0.4884360
396.3013, 0.2013320
396.7834, 0.2033020
397.2655, 0.4990220
397.7476, 2.285866
398.2297, 3.814312
398.7119, 3.965818
399.1940, 3.607697
399.6761, 3.939665
400.1582, 5.539970
400.6403, 7.296171
401.1224, 8.291842
401.6046, 8.520681
402.0867, 7.609476
402.5688, 4.556868
403.0509, 1.328781
403.5330, 0.4339710
404.0151, 1.904205
404.4973, 3.343880
404.9794, 3.754442
405.4615, 3.443188
405.9436, 2.699856
406.4257, 1.460545
406.9078, 0.6352420
407.3900, 1.355234
407.8721, 3.232037
408.3542, 4.189611
408.8363, 3.049866
409.3184, 1.883345
409.8005, 2.613096
410.2827, 4.568010
410.7648, 5.133799
411.2469, 2.799767
411.7290, 0.8504830
412.2111, 2.013889
412.6932, 0.3605940
413.1754, 2.157967
413.6575, 2.578985
414.1396, 2.141102
414.6217, 0.8903560
415.1038, 0.9925210
415.5859, 2.219461
416.0681, 1.291581
416.5502, 2.111311
417.0323, 4.121307
417.5144, 3.768791
417.9965, 3.276234
418.4786, 3.650385
418.9608, 4.531967
419.4429, 5.080601
419.9250, 4.850145
420.4071, 4.160145
420.8892, 3.912880
421.3713, 4.871719
421.8535, 5.089308
422.3356, 3.806156
422.8177, 2.305096
423.2998, 1.503359
423.7819, 1.549307
424.2640, 2.143158
424.7462, 3.121489
425.2283, 4.559391
425.7104, 5.309614
426.1925, 4.738272
426.6746, 4.121889
427.1567, 3.786171
427.6389, 3.658609
428.1210, 3.486172
428.6031, 3.088001
429.0852, 2.713732
429.5673, 2.916956
430.0494, 3.842640
430.5316, 4.818060
431.0137, 6.494274
431.4958, 7.584753
431.9779, 6.649439
432.4600, 3.822182
432.9421, 1.353851
433.4243, 1.485899
433.9064, 3.503607
434.3885, 4.234774
434.8706, 3.102001
435.3527, 1.657381
435.8348, 0.6220630
436.3170, 1.0960000E-02
436.7991, 0.1618060
437.2812, 0.3388920
437.7633, 1.120852
438.2454, 2.014572
438.7275, 2.965328
439.2097, 3.568922
439.6918, 3.681650
440.1739, 3.385757
440.6560, 2.517641
441.1381, 0.9394860
441.6202, 0.1876260
442.1024, 1.627539
442.5845, 3.602009
443.0666, 4.042421
443.5487, 2.833130
444.0308, 1.388811
444.5129, 0.6819630
444.9951, 0.6875920
445.4772, 1.028719
445.9593, 1.989140
446.4414, 2.899183
446.9235, 3.840252
447.4056, 4.521847
447.8878, 4.255678
448.3699, 2.838186
448.8520, 1.231707
449.3341, 0.9681450
449.8162, 2.706245
450.2983, 3.961845
450.7805, 4.754253
451.2626, 5.128788
451.7447, 4.893497
452.2268, 4.200502
452.7089, 3.525980
453.1910, 3.353910
453.6732, 3.498659
454.1553, 2.925617
454.6374, 0.4620700
455.1195, 0.6877590
455.6016, 0.9706780
456.0837, 3.302551
456.5659, 4.414034
457.0480, 4.014088
457.5301, 3.288298
458.0122, 3.392611
458.4943, 4.317102
458.9764, 5.662195
459.4586, 8.296844
459.9407, 9.966164
460.4228, 8.862268
460.9049, 6.217402
461.3870, 4.243185
461.8691, 3.894947
462.3513, 4.220963
462.8334, 4.094625
463.3155, 3.536966
463.7976, 3.097158
464.2797, 2.997429
464.7618, 3.207594
465.2440, 3.446075
465.7261, 3.686010
466.2082, 3.785425
466.6903, 3.475861
467.1724, 3.082094
467.6545, 3.107635
468.1367, 3.557129
468.6188, 3.838692
469.1009, 3.447935
469.5830, 2.544598
470.0651, 2.180820
470.5472, 3.084452
471.0294, 3.842041
471.5115, 3.988811
471.9936, 3.867462
472.4757, 3.842894
472.9578, 3.967434
473.4399, 4.297710
473.9221, 5.179575
474.4042, 6.908503
474.8863, 7.481939
475.3684, 5.963795
475.8505, 4.432508
476.3326, 3.552488
476.8148, 3.207056
477.2969, 3.163357
477.7790, 3.319571
478.2611, 3.550850
478.7432, 3.549793
479.2253, 3.158033
479.7075, 2.986633
480.1896, 3.226242
480.6717, 3.602438
481.1538, 3.953623
481.6359, 4.300556
482.1180, 4.793949
482.6002, 5.668688
483.0823, 6.720064
483.5644, 7.254719
484.0465, 7.049383
484.5286, 7.168560
485.0107, 8.848806
485.4929, 10.69305
485.9750, 10.81259
486.4571, 8.688511
486.9392, 6.549763
487.4213, 5.807095
487.9034, 6.011677
488.3856, 6.242277
488.8677, 6.371429
489.3498, 6.393051
489.8319, 6.267014
490.3140, 6.005222
490.7961, 5.814325
491.2783, 5.529634
491.7604, 5.486208
492.2425, 6.156282
492.7246, 7.116478
493.2067, 7.558422
493.6888, 7.198620
494.1710, 6.375799
494.6531, 5.557882
495.1352, 4.613338
495.6173, 4.168388
496.0994, 4.696148
496.5815, 5.189438
497.0637, 5.016769
497.5458, 4.435049
498.0279, 4.096111
498.5100, 4.389980
498.9921, 5.027578
499.4742, 5.297346
499.9564, 5.150192
500.4385, 4.743986
500.9206, 3.647556
501.4027, 2.656334
501.8848, 2.221006
502.3669, 2.363546
502.8491, 2.933371
503.3312, 4.168898
503.8133, 5.679052
504.2954, 6.320097
504.7775, 5.949039
505.2596, 5.343081
505.7418, 4.441010
506.2239, 3.780105
506.7060, 4.341795
507.1881, 6.601048
507.6702, 8.107922
508.1523, 6.880876
508.6345, 4.381842
509.1166, 3.186949
509.5987, 3.677457
510.0808, 4.341993
510.5629, 3.840972
511.0450, 2.340723
511.5272, 1.781971
512.0093, 3.056343
512.4914, 4.076806
512.9735, 3.910681
513.4556, 3.287136
513.9377, 3.210808
514.4199, 3.914425
514.9020, 4.691673
515.3841, 4.578976
515.8662, 3.365586
516.3483, 2.697103
516.8304, 3.438723
517.3126, 3.818821
517.7947, 3.010570
518.2768, 1.628375
518.7589, 0.5496590
519.2410, 0.1189110
519.7231, 0.1300740
520.2053, 0.5559930
520.6874, 1.481800
521.1695, 1.390906
521.6516, 1.100022
522.1337, 3.101871
522.6158, 2.025777
523.0980, 1.088537
523.5801, 3.219346
524.0622, 2.569874
524.5443, 1.200373
525.0264, 1.510104
525.5085, 3.199091
525.9907, 4.444111
526.4728, 4.565105
526.9549, 4.085695
527.4370, 3.709467
527.9191, 3.432723
528.4012, 3.477158
528.8834, 3.988475
529.3655, 4.185757
529.8476, 3.583349
530.3297, 2.558151
530.8118, 1.935995
531.2939, 2.183786
531.7761, 2.950675
532.2582, 3.327825
532.7403, 2.952274
533.2224, 2.854195
533.7045, 3.223199
534.1866, 3.683996
534.6688, 4.168341
535.1509, 4.559401
535.6330, 4.588537
536.1151, 3.972973
536.5972, 3.018804
537.0793, 2.582802
537.5615, 2.794126
538.0436, 3.009783
538.5257, 3.199935
539.0078, 3.190061
539.4899, 2.697435
539.9720, 1.753057
540.4542, 0.9827240
540.9363, 0.6280240
541.4184, 0.6593330
541.9005, 1.209689
542.3826, 2.242363
542.8647, 3.107574
543.3469, 3.484834
543.8290, 3.544292
544.3111, 3.664736
544.7932, 4.021034
545.2753, 4.043837
545.7574, 3.100058
546.2396, 2.177859
546.7217, 2.325692
547.2038, 3.398459
547.6859, 4.393909
548.1680, 4.586720
548.6501, 4.187185
549.1323, 4.147200
549.6144, 4.782290
550.0965, 5.232347
550.5786, 5.639565
551.0607, 5.681470
551.5428, 4.853416
552.0250, 3.317101
552.5071, 1.955911
552.9892, 1.420177
553.4713, 1.528614
553.9534, 1.884560
554.4355, 2.604760
554.9177, 2.929730
555.3998, 2.094008
555.8819, 1.051412
556.3640, 1.234699
556.8461, 2.849703
557.3282, 4.142418
557.8104, 4.212546
558.2925, 3.735746
558.7746, 3.360568
559.2567, 3.173770
559.7388, 3.347429
560.2209, 4.074099
560.7031, 5.095781
561.1852, 5.595237
561.6673, 5.586674
562.1494, 4.978079
562.6315, 3.053287
563.1136, 1.086731
563.5958, 4.5518000E-02
564.0779, 0.3399910
564.5600, 0.1798170
565.0421, 0.1922850
565.5242, 0.7636740
566.0063, 1.551244
566.4885, 2.695102
566.9706, 3.635448
567.4527, 4.065498
567.9348, 4.362549
568.4169, 4.924150
568.8990, 5.671408
569.3812, 5.991523
569.8633, 5.206261
570.3454, 3.992452
570.8275, 3.427230
571.3096, 3.463169
571.7917, 3.195350
572.2739, 2.031671
572.7560, 0.7008160
573.2381, 0.6696400
573.7202, 2.394441
574.2023, 3.530531
574.6844, 3.376376
575.1666, 2.993485
575.6487, 3.176090
576.1308, 3.747167
576.6129, 4.067925
577.0950, 3.794098
577.5771, 3.225990
578.0593, 3.066966
578.5414, 3.559508
579.0235, 3.797419
579.5056, 3.731489
579.9877, 3.231533
580.4698, 2.046223
580.9520, 0.6546720
581.4341, 4.9493000E-02
581.9162, 0.5127140
582.3983, 1.672439
582.8804, 2.770284
583.3625, 3.768689
583.8447, 4.224935
584.3268, 4.100023
584.8089, 3.255034
585.2910, 0.7430530
585.7731, 3.100007
586.2552, 4.641281
586.7374, 1.467542
587.2195, 1.869459
587.7016, 2.794827
588.1837, 2.335586
588.6658, 2.319596
589.1479, 3.302159
589.6301, 4.726607
590.1122, 5.996901
590.5943, 7.106551
591.0764, 7.696538
591.5585, 7.830547
592.0406, 7.364181
592.5228, 5.651966
593.0049, 3.611375
593.4870, 2.301655
593.9691, 1.987828
594.4512, 2.192542
594.9333, 2.658059
595.4155, 3.292596
595.8976, 3.659709
596.3797, 3.685975
596.8618, 3.660166
597.3439, 3.689659
597.8260, 3.808461
598.3082, 4.187021
598.7903, 5.247311
599.2724, 5.505148
599.7545, 3.721226
600.2366, 1.370720
600.7188, 0.2379050
601.2009, 0.8711420
601.6830, 0.2958690
602.1651, 1.841079
602.6472, 4.829036
603.1293, 5.902457
603.6115, 3.428394
604.0936, 2.042215
604.5757, 2.968980
605.0578, 4.155884
605.5399, 4.320062
606.0220, 3.615455
606.5042, 2.887341
606.9863, 2.547370
607.4684, 2.526400
607.9505, 2.742154
608.4326, 3.194389
608.9147, 3.871316
609.3969, 5.025114
609.8790, 5.926735
610.3611, 5.462343
610.8432, 3.777435
611.3253, 2.749182
611.8074, 2.909739
612.2896, 3.420732
612.7717, 4.058014
613.2538, 4.685555
613.7359, 5.168715
614.2180, 5.448524
614.7001, 5.352230
615.1823, 4.528296
615.6644, 2.895370
616.1465, 2.271137
616.6286, 3.623012
617.1107, 4.667787
617.5928, 4.694918
618.0750, 4.226451
618.5571, 3.763062
619.0392, 3.409063
619.5213, 3.041132
620.0034, 2.228427
620.4855, 1.426099
620.9677, 1.991594
621.4498, 4.011514
621.9319, 5.593040
622.4140, 5.832367
622.8961, 5.107748
623.3782, 3.964094
623.8604, 1.964643
624.3425, 0.9312650
624.8246, 2.012902
625.3067, 3.291381
625.7888, 3.191002
626.2709, 2.227846
626.7531, 2.055621
627.2352, 3.512461
627.7173, 5.425560
628.1994, 5.427912
628.6815, 3.030846
629.1636, 1.433971
629.6458, 1.085597
630.1279, 1.232982
630.6100, 1.680243
631.0921, 2.263010
631.5742, 2.686942
632.0563, 2.858406
632.5385, 2.911133
633.0206, 2.880250
633.5027, 2.814449
633.9848, 2.854896
634.4669, 3.001733
634.9490, 3.197647
635.4312, 3.530028
635.9133, 3.946102
636.3954, 3.976643
636.8775, 2.749256
637.3596, 2.326956
637.8417, 3.826642
638.3239, 5.294603
638.8060, 5.142497
639.2881, 3.631190
639.7702, 2.069505
640.2523, 1.113391
640.7344, 0.7382940
641.2166, 1.201498
641.6987, 2.570813
642.1808, 3.168501
642.6629, 2.297709
643.1450, 1.177182
643.6271, 0.5537780
644.1093, 0.4646280
644.5914, 1.066249
645.0735, 3.357462
645.5556, 4.916610
646.0377, 3.956895
646.5198, 1.761562
647.0020, 0.1927220
647.4841, 0.3540380
647.9662, 0.2372460
648.4483, 0.3086910
648.9304, 1.197683
649.4125, 1.805327
649.8947, 1.821664
650.3768, 2.137724
650.8589, 3.620377
651.3410, 4.871853
651.8231, 4.588321
652.3052, 3.026117
652.7874, 1.754255
653.2695, 1.502138
653.7516, 2.008441
654.2337, 3.349711
654.7158, 5.242772
655.1979, 6.205605
655.6801, 5.733372
656.1622, 4.684398
656.6443, 3.897060
657.1264, 3.366457
657.6085, 3.265315
658.0906, 4.283525
658.5728, 4.769413
659.0549, 3.794893
659.5370, 2.507833
660.0191, 2.109701
660.5012, 2.592694
660.9833, 3.319820
661.4655, 3.745220
661.9476, 4.041534
662.4297, 4.741508
662.9118, 5.927497
663.3939, 6.004718
663.8760, 3.808922
664.3582, 1.193860
664.8403, 0.5974630
665.3224, 1.836353
665.8045, 2.739361
666.2866, 2.681272
666.7687, 2.500340
667.2509, 2.625784
667.7330, 2.951063
668.2151, 3.325540
668.6972, 3.691014
669.1793, 3.990553
669.6614, 4.085379
670.1436, 3.981039
670.6257, 4.132324
671.1078, 4.990652
671.5899, 5.257187
672.0720, 3.803174
672.5541, 2.153692
673.0363, 1.619429
673.5184, 2.173372
674.0005, 2.680284
674.4826, 2.726449
674.9647, 2.451793
675.4468, 1.706568
675.9290, 0.7503460
676.4111, 0.4387720
676.8932, 1.065957
677.3753, 2.037109
677.8574, 2.690860
678.3395, 3.022544
678.8217, 3.147123
679.3038, 2.805437
679.7859, 2.584970
680.2680, 2.799386
680.7501, 3.031177
681.2322, 2.679784
681.7144, 1.837517
682.1965, 1.444854
682.6786, 2.683201
683.1607, 4.356910
683.6428, 4.138334
684.1249, 2.291305
684.6071, 1.179640
685.0892, 1.635489
685.5713, 2.591567
686.0534, 2.767891
686.5355, 2.080563
687.0176, 2.151463
687.4998, 3.960741
687.9819, 5.224211
688.4640, 5.044617
688.9461, 4.248460
689.4282, 3.743392
689.9103, 3.584697
690.3925, 3.087127
690.8746, 1.449967
691.3567, 0.6063680
691.8388, 1.258918
692.3209, 0.4641730
692.8030, 0.6607060
693.2852, 2.013079
693.7673, 3.272655
694.2494, 4.257915
694.7315, 4.922411
695.2136, 4.677757
695.6957, 2.154498
696.1779, 0.3516940
696.6600, 1.042241
697.1421, 2.547738
697.6242, 2.833588
698.1063, 1.801676
698.5884, 0.8845310
699.0706, 1.241985
699.5527, 2.393293
700.0348, 2.993902
700.5169, 2.988523
700.9990, 2.762823
701.4811, 2.352604
701.9633, 1.798815
702.4454, 0.7338090
702.9275, 0.5156410
703.4096, 0.7253480
703.8917, 1.335512
704.3738, 2.986460
704.8560, 2.498054
705.3381, 1.317780
705.8202, 1.416364
706.3023, 2.821981
706.7844, 4.162977
707.2665, 4.524000
707.7487, 4.114102
708.2308, 3.384874
708.7129, 2.210788
709.1950, 1.335155
709.6771, 0.9264970
710.1592, 0.6614600
710.6414, 0.1671030
711.1235, 0.2659750
711.6056, 0.1012440
712.0877, 1.884271
712.5698, 3.304203
713.0519, 3.209375
713.5341, 2.450903
714.0162, 1.872445
714.4983, 1.605121
714.9804, 1.738954
715.4625, 2.378603
715.9446, 3.057661
716.4268, 2.577319
716.9089, 0.4441840
717.3910, 0.5683050
717.8731, 0.5724010
718.3552, 1.518097
718.8373, 0.7005980
719.3195, 0.7869190
719.8016, 1.311375
720.2837, 0.5050330
720.7658, 0.4458190
721.2479, 0.9814190
721.7300, 1.371637
722.2122, 1.860336
722.6943, 2.467667
723.1764, 3.365857
723.6585, 4.640318
724.1406, 5.606414
724.6227, 5.061222
725.1049, 2.778289
725.5870, 1.101859
726.0691, 0.1582060
726.5512, 0.3588300
727.0333, 0.5335820
727.5154, 0.3585770
727.9976, 0.4289630
728.4797, 1.811127
728.9618, 2.718040
729.4439, 2.265694
729.9260, 1.523623
730.4081, 1.653712
730.8903, 2.282753
731.3724, 2.327958
731.8545, 1.507028
732.3366, 0.4989740
732.8187, 4.3570999E-02
733.3008, 0.1116270
733.7830, 0.5177230
734.2651, 2.560372
734.7472, 3.745910
735.2293, 2.595714
735.7114, 1.207216
736.1935, 1.015429
736.6757, 1.889209
737.1578, 3.109084
737.6399, 5.315103
738.1220, 6.679667
738.6041, 5.169008
739.0862, 2.345886
739.5684, 0.5902430
740.0505, 0.2710190
740.5326, 0.7669260
741.0147, 1.717263
741.4968, 2.915005
741.9789, 3.677910
742.4611, 3.812629
742.9432, 4.260147
743.4253, 5.614693
743.9074, 6.642414
744.3895, 6.517385
744.8716, 5.641868
745.3538, 4.669626
745.8359, 3.556823
746.3180, 2.800682
746.8001, 2.998306
747.2822, 3.393013
747.7643, 2.931080
748.2465, 1.934471
748.7286, 1.803052
749.2107, 3.121546
749.6928, 4.588099
750.1749, 4.010895
750.6570, 1.222253
751.1392, 0.1372670
751.6213, 0.4285440
752.1034, 1.290487
752.5855, 2.079841
753.0676, 2.652607
753.5497, 2.808657
754.0319, 2.535846
754.5140, 2.147865
754.9961, 1.278731
755.4782, 0.7689440
755.9603, 1.535202
756.4424, 2.829195
756.9246, 3.454054
757.4067, 3.201954
757.8888, 2.737816
758.3709, 2.606911
758.8530, 2.733156
759.3351, 2.864909
759.8173, 2.997243
760.2994, 3.185692
760.7815, 3.449368
761.2636, 3.654009
761.7457, 3.574829
762.2278, 3.304775
762.7100, 3.583352
763.1921, 5.259251
763.6742, 6.187855
764.1563, 5.517361
764.6384, 4.201417
765.1205, 2.718163
765.6027, 1.292213
766.0848, 0.1551340
766.5669, 0.6015100
767.0490, 0.8676130
767.5311, 0.2917820
768.0132, 0.9595230
768.4954, 2.021234
768.9775, 2.844719
769.4596, 3.271149
769.9417, 3.092556
770.4238, 2.576206
770.9059, 2.202341
771.3881, 2.048482
771.8702, 1.720820
772.3523, 0.8808350
772.8344, 0.2726480
773.3165, 0.1725030
773.7986, 0.4280780
774.2808, 0.9535310
774.7629, 1.676846
775.2450, 2.337572
775.7271, 2.952486
776.2092, 3.399730
776.6913, 3.523503
777.1735, 3.312729
777.6556, 2.948576
778.1377, 2.543092
778.6198, 2.206199
779.1019, 1.986105
779.5840, 1.889403
780.0662, 1.958031
780.5483, 2.248552
781.0304, 2.600076
781.5125, 3.327923
781.9946, 3.783606
782.4767, 3.401365
782.9589, 2.582302
783.4410, 2.121777
783.9231, 2.273946
784.4052, 2.439781
784.8873, 2.504886
785.3694, 2.295443
785.8516, 1.242811
786.3337, 0.3456310
786.8158, 1.279651
787.2979, 1.089017
787.7800, 0.4322160
788.2621, 0.2553700
788.7443, 0.7205570
789.2264, 0.2450000
789.7085, 2.588627
790.1906, 4.425102
790.6727, 5.161672
791.1548, 5.125472
791.6370, 4.505371
792.1191, 3.361412
792.6012, 2.213737
793.0833, 0.4824730
793.5654, 0.4302110
794.0475, 0.5113030
794.5297, 2.179878
795.0118, 3.644729
795.4939, 4.722975
795.9760, 5.398632
796.4581, 5.637277
796.9402, 5.649567
797.4224, 5.830751
797.9045, 6.103704
798.3866, 5.875203
798.8687, 5.049160
799.3508, 4.110593
799.8329, 3.164182
800.3151, 2.488679
800.7972, 2.790915
801.2793, 4.700224
801.7614, 5.073869
802.2435, 1.850325
802.7256, 0.2335080
803.2078, 1.160114
803.6899, 3.741497
804.1720, 5.380131
804.6541, 5.752517
805.1362, 5.259565
805.6183, 3.382344
806.1005, 1.592066
806.5826, 1.811700
807.0647, 3.212677
807.5468, 3.856564
808.0289, 3.469980
808.5110, 3.024347
808.9932, 3.201603
809.4753, 3.794859
809.9574, 4.295237
810.4395, 4.811279
810.9216, 4.667377
811.4037, 3.234917
811.8859, 2.136624
812.3680, 2.652786
812.8501, 3.775095
813.3322, 3.875774
813.8143, 2.657498
814.2964, 2.136998
814.7786, 3.441633
815.2607, 4.858620
815.7428, 5.361631
816.2249, 5.363749
816.7070, 5.455326
817.1891, 5.767363
817.6713, 6.224180
818.1534, 7.016350
818.6355, 7.532718
819.1176, 6.057085
819.5997, 2.946268
820.0818, 1.174953
820.5640, 1.374522
821.0461, 1.934834
821.5282, 1.707667
822.0103, 1.029251
822.4924, 0.9437380
822.9745, 1.828134
823.4567, 2.464903
823.9388, 2.843711
824.4209, 2.968898
824.9030, 2.727311
825.3851, 2.357116
825.8672, 2.083715
826.3494, 1.931934
826.8315, 1.783010
827.3136, 1.379594
827.7957, 1.146921
828.2778, 1.298682
828.7599, 1.931466
829.2421, 3.741993
829.7242, 6.513023
830.2063, 8.193443
830.6884, 6.995636
831.1705, 4.284872
831.6526, 3.748817
832.1348, 5.494722
832.6169, 6.037428
833.0990, 4.683412
833.5811, 3.030769
834.0632, 1.733789
834.5453, 0.9118210
835.0275, 0.9347270
835.5096, 2.298143
835.9917, 3.017756
836.4738, 2.169264
836.9559, 1.754476
837.4380, 2.825151
837.9202, 4.520480
838.4023, 6.101299
838.8844, 7.343815
839.3665, 7.917898
839.8486, 7.216191
840.3307, 6.311190
840.8129, 6.606585
841.2950, 7.401570
841.7771, 7.217971
842.2592, 5.930260
842.7413, 4.314659
843.2234, 2.735826
843.7056, 1.337820
844.1877, 0.7794880
844.6698, 1.043357
845.1519, 2.205129
845.6340, 4.865761
846.1161, 6.737362
846.5983, 6.666544
847.0804, 5.505727
847.5625, 4.146481
848.0446, 2.515051
848.5267, 1.974216
849.0089, 2.958618
849.4910, 4.220356
849.9731, 6.484877
850.4552, 8.247438
850.9373, 7.395385
851.4194, 4.660311
851.9016, 2.894430
852.3837, 3.455755
852.8658, 4.881346
853.3479, 6.492954
853.8300, 7.744473
854.3121, 7.184752
854.7943, 5.153151
855.2764, 3.355855
855.7585, 2.529152
856.2406, 2.781619
856.7227, 4.695171
857.2048, 7.961697
857.6870, 8.683532
858.1691, 5.915144
858.6512, 4.475571
859.1333, 6.382154
859.6154, 8.621813
860.0975, 8.128535
860.5797, 5.573205
861.0618, 4.847174
861.5439, 7.880808
862.0260, 9.466490
862.5081, 7.715397
862.9902, 5.731085
863.4724, 5.342293
863.9545, 5.987761
864.4366, 6.629589
864.9187, 7.017071
865.4008, 7.391727
865.8829, 7.630390
866.3651, 7.783430
866.8472, 7.935309
867.3293, 8.095067
867.8114, 8.333932
868.2935, 8.639801
868.7756, 8.822716
869.2578, 8.737741
869.7399, 8.432484
870.2220, 8.077674
870.7041, 7.691133
871.1862, 6.638945
871.6683, 4.456745
872.1505, 3.186904
872.6326, 4.228522
873.1147, 6.396027
873.5968, 7.762245
874.0789, 8.228898
874.5610, 8.395498
875.0432, 8.561629
875.5253, 8.054836
876.0074, 5.527071
876.4895, 3.222703
876.9716, 3.484154
877.4537, 5.730839
877.9359, 7.387152
878.4180, 7.636518
878.9001, 7.050787
879.3822, 5.226777
879.8643, 3.302399
880.3464, 2.671330
880.8286, 3.077920
881.3107, 3.611529
881.7928, 3.918825
882.2749, 4.074293
882.7570, 4.118323
883.2391, 4.088883
883.7213, 4.036247
884.2034, 3.976581
884.6855, 4.269574
885.1676, 5.046877
885.6497, 5.891280
886.1318, 6.595106
886.6140, 6.986279
887.0961, 6.343908
887.5782, 3.830132
888.0603, 2.484807
888.5424, 3.400774
889.0245, 3.999692
889.5067, 2.792190
889.9888, 1.002457
890.4709, 6.6278003E-02
890.9530, 0.3464740
891.4351, 0.1448010
891.9172, 0.9777440
892.3994, 1.978970
892.8815, 2.540805
893.3636, 2.704741
893.8457, 2.145848
894.3278, 1.252811
894.8099, 1.126829
895.2921, 2.318748
895.7742, 3.662358
896.2563, 3.842960
896.7384, 4.851179
897.2205, 4.239900
897.7026, 5.597788
898.1848, 6.229380
898.6669, 5.695770
899.1490, 4.238415
899.6311, 1.803562
900.1132, 0.9946670
900.5953, 1.563268
901.0775, 0.3111230
901.5596, 2.039225
902.0417, 3.379436
902.5238, 4.141371
903.0059, 4.108471
903.4880, 3.650368
903.9702, 3.710208
904.4523, 4.900661
904.9344, 4.677365
905.4165, 1.132984
905.8986, 1.350429
906.3807, 0.9519660
906.8629, 0.2030980
907.3450, 0.2049250
907.8271, 0.7326160
908.3092, 1.242283
908.7913, 0.8637210
909.2734, 0.2513860
909.7556, 0.6803810
910.2377, 1.394535
910.7198, 0.9163840
911.2019, 1.1662000E-02
911.6840, 0.4837590
912.1661, 2.760870
912.6483, 4.503941
913.1304, 3.209633
913.6125, 0.7211120
914.0946, 2.7156999E-02
914.5767, 0.5893560
915.0588, 1.518125
915.5410, 2.529360
916.0231, 3.549701
916.5052, 4.601779
916.9873, 5.253523
917.4694, 4.253451
917.9515, 1.481804
918.4337, 0.6826660
918.9158, 2.409255
919.3979, 3.555164
919.8800, 2.785570
920.3621, 1.630345
920.8442, 1.929953
921.3264, 3.435000
921.8085, 3.460096
922.2906, 0.1322580
922.7727, 1.603129
923.2548, 0.5527500
923.7369, 0.9907780
924.2191, 2.142467
924.7012, 3.029734
925.1833, 3.978136
925.6654, 5.046876
926.1475, 5.614939
926.6296, 5.114708
927.1118, 4.516221
927.5939, 4.064059
928.0760, 3.941380
928.5581, 4.749085
929.0402, 6.068203
929.5223, 6.474072
930.0045, 5.226705
930.4866, 3.723879
930.9687, 3.224621
931.4508, 3.278748
931.9329, 3.440713
932.4150, 3.574037
932.8972, 3.313211
933.3793, 2.595046
933.8614, 1.784537
934.3435, 1.123346
934.8256, 0.7682250
935.3077, 1.381290
935.7899, 2.852942
936.2720, 3.479432
936.7541, 3.010949
937.2362, 2.459062
937.7183, 2.297649
938.2004, 2.380575
938.6826, 2.501645
939.1647, 2.661171
939.6468, 2.877553
940.1289, 3.245599
940.6110, 3.428299
941.0931, 3.215334
941.5753, 2.992480
942.0574, 3.070871
942.5395, 3.336524
943.0216, 3.455561
943.5037, 3.317848
943.9858, 3.369808
944.4680, 3.845042
944.9501, 4.273767
945.4322, 4.328795
945.9143, 4.362094
946.3964, 5.180756
946.8785, 6.423199
947.3607, 6.206243
947.8428, 2.813207
948.3249, 0.2284140
948.8070, 1.376793
949.2891, 3.655140
949.7712, 4.745998
950.2534, 4.950587
950.7355, 5.428802
951.2176, 6.390218
951.6997, 6.734478
952.1818, 5.229782
952.6639, 3.178782
953.1461, 2.388583
953.6282, 2.434260
954.1103, 2.343549
954.5924, 2.033553
955.0745, 1.828401
955.5566, 1.884571
956.0388, 2.301256
956.5209, 3.479036
957.0030, 5.120587
957.4851, 5.545014
957.9672, 4.696261
958.4493, 4.073755
958.9315, 4.261633
959.4136, 3.922268
959.8957, 1.681918
960.3778, 1.201023
960.8599, 1.410342
961.3420, 1.884267
961.8242, 3.517058
962.3063, 2.854856
962.7884, 2.040089
963.2705, 1.572950
963.7526, 1.380526
964.2347, 1.737938
964.7169, 2.598248
965.1990, 3.226888
965.6811, 3.710698
966.1632, 3.697216
966.6453, 2.642818
967.1274, 1.849714
967.6096, 1.802198
968.0917, 2.330450
968.5738, 3.458742
969.0559, 5.055043
969.5380, 6.052262
970.0201, 5.940801
970.5023, 5.513455
970.9844, 4.898800
971.4665, 4.218252
971.9486, 3.191899
972.4307, 2.344287
972.9128, 2.706532
973.3950, 4.584764
973.8771, 5.924882
974.3592, 4.910619
974.8413, 3.448211
975.3234, 3.162313
975.8055, 3.549002
976.2877, 3.980117
976.7698, 4.285228
977.2519, 4.342331
977.7340, 4.102195
978.2161, 3.795460
978.6982, 3.721686
979.1804, 3.694955
979.6625, 3.208376
980.1446, 2.445032
980.6267, 1.953272
981.1088, 2.048236
981.5909, 2.653729
982.0731, 3.753066
982.5552, 4.804159
983.0373, 4.579925
983.5194, 3.321319
984.0015, 2.819167
984.4836, 3.125533
984.9658, 3.649963
985.4479, 4.241011
985.9300, 4.733856
986.4121, 5.049520
986.8942, 5.034709
987.3763, 3.829709
987.8585, 1.020333
988.3406, 8.6938001E-02
988.8227, 1.157362
989.3048, 2.452348
989.7869, 2.896806
990.2690, 2.903774
990.7512, 2.909205
991.2333, 2.916556
991.7154, 2.985600
992.1975, 3.267738
992.6796, 3.267806
993.1617, 2.553240
993.6439, 2.110207
994.1260, 2.685496
994.6081, 3.636743
995.0902, 4.142711
995.5723, 4.208057
996.0544, 3.753659
996.5366, 1.643636
997.0187, 0.6365650
997.5008, 2.409132
997.9829, 4.148313
998.4650, 3.769100
998.9471, 2.337195
999.4293, 1.824341
999.9114, 2.533463
1000.393, 3.088467
1000.876, 3.114740
1001.358, 2.909083
1001.840, 2.163106
1002.322, 1.603522
1002.804, 2.301647
1003.286, 3.614746
1003.768, 3.841195
1004.250, 2.442678
1004.733, 1.353456
1005.215, 2.035276
1005.697, 2.952702
1006.179, 2.710951
1006.661, 2.179667
1007.143, 2.740524
1007.625, 4.093900
1008.107, 4.743711
1008.589, 4.020025
1009.072, 3.109251
1009.554, 3.075793
1010.036, 3.343565
1010.518, 3.200538
1011.000, 2.834288
1011.482, 2.640000
1011.964, 2.671823
1012.446, 2.805886
1012.929, 2.988353
1013.411, 3.119471
1013.893, 3.044631
1014.375, 2.850574
1014.857, 2.909391
1015.339, 3.006802
1015.821, 1.899086
1016.303, 0.3943000
1016.785, 1.296486
1017.268, 1.163523
1017.750, 4.609479
1018.232, 4.675435
1018.714, 2.217759
1019.196, 1.417580
1019.678, 2.114923
1020.160, 2.624211
1020.642, 2.482613
1021.125, 2.333918
1021.607, 2.752228
1022.089, 3.304948
1022.571, 2.803302
1023.053, 1.331384
1023.535, 0.7405470
1024.017, 1.140829
1024.499, 1.234499
1024.981, 0.4486880
1025.464, 0.3790260
1025.946, 0.5744980
1026.428, 0.1765950
1026.910, 0.9521640
1027.392, 3.018503
1027.874, 3.696437
1028.356, 2.658548
1028.838, 1.305757
1029.321, 0.1727250
1029.803, 0.8605340
1030.285, 0.4651760
1030.767, 3.120110
1031.249, 3.917444
1031.731, 2.269054
1032.213, 1.010677
1032.695, 0.2770570
1033.177, 0.2219090
1033.660, 0.6189200
1034.142, 0.7603020
1034.624, 0.3939840
1035.106, 0.3712470
1035.588, 0.8446020
1036.070, 0.9670650
1036.552, 0.9250120
1037.034, 0.5841350
1037.516, 0.3053230
1037.999, 9.0538003E-02
1038.481, 0.1468910
1038.963, 0.9033230
1039.445, 2.205193
1039.927, 2.837179
1040.409, 2.061760
1040.891, 1.927691
1041.373, 3.184288
1041.855, 4.135267
1042.338, 3.856571
1042.820, 3.193598
1043.302, 3.090969
1043.784, 3.440814
1044.266, 3.377173
1044.748, 2.432708
1045.230, 1.821659
1045.712, 1.690529
1046.195, 1.788986
1046.677, 2.218591
1047.159, 2.726096
1047.641, 2.931145
1048.123, 2.926394
1048.605, 3.435257
1049.087, 5.470440
1049.569, 6.318278
1050.052, 4.430727
1050.534, 2.645621
1051.016, 2.356525
1051.498, 2.773505
1051.980, 3.251806
1052.462, 3.618814
1052.944, 3.280259
1053.426, 1.190428
1053.908, 0.3088350
1054.391, 2.465032
1054.873, 4.663971
1055.355, 5.623732
1055.837, 5.581459
1056.319, 4.402564
1056.801, 2.454438
1057.283, 1.284470
1057.765, 1.590913
1058.248, 1.900446
1058.730, 1.138479
1059.212, 1.001869
1059.694, 3.649516
1060.176, 6.589761
1060.658, 6.403169
1061.140, 3.666409
1061.622, 2.184626
1062.104, 3.649787
1062.587, 4.510552
1063.069, 2.612754
1063.551, 0.7515980
1064.033, 0.7927160
1064.515, 1.592898
1064.997, 1.805759
1065.479, 1.442133
1065.961, 1.124194
1066.443, 0.9256420
1066.926, 1.222560
1067.408, 2.661546
1067.890, 4.169089
1068.372, 5.478393
1068.854, 6.241845
1069.336, 5.827867
1069.818, 4.556223
1070.300, 3.541092
1070.782, 3.170995
1071.265, 2.702460
1071.747, 1.397773
1072.229, 0.3658360
1072.711, 0.4494840
1073.193, 1.023506
1073.675, 1.737480
1074.157, 2.246799
1074.639, 1.641721
1075.122, 0.4344170
1075.604, 1.529440
1076.086, 0.3883500
1076.568, 2.583069
1077.050, 3.649609
1077.532, 4.027425
1078.014, 3.944049
1078.496, 3.660700
1078.979, 3.677827
1079.461, 4.144799
1079.943, 4.481485
1080.425, 4.822765
1080.907, 4.469068
1081.389, 1.695965
1081.871, 0.7788150
1082.353, 0.5207710
1082.835, 3.898245
1083.318, 5.071598
1083.800, 3.082195
1084.282, 1.767812
1084.764, 3.914505
1085.246, 5.847703
1085.728, 5.343475
1086.210, 4.207189
1086.692, 3.878377
1087.175, 4.138165
1087.657, 4.510212
1088.139, 4.950342
1088.621, 4.900737
1089.103, 3.467992
1089.585, 2.479154
1090.067, 3.274843
1090.549, 4.264457
1091.031, 3.948346
1091.514, 3.121954
1091.996, 3.280838
1092.478, 4.500116
1092.960, 5.358347
1093.442, 5.204873
1093.924, 4.886491
1094.406, 4.414685
1094.888, 4.208232
1095.370, 5.060773
1095.853, 6.002667
1096.335, 5.251234
1096.817, 3.241098
1097.299, 2.981034
1097.781, 6.414039
1098.263, 8.666465
1098.745, 7.203589
1099.227, 5.348973
1099.709, 4.987876
1100.192, 5.013530
1100.674, 3.683055
1101.156, 1.625495
1101.638, 1.423291
1102.120, 4.212705
1102.602, 6.369375
1103.084, 6.878243
1103.566, 6.781432
1104.049, 6.132305
1104.531, 5.432055
1105.013, 5.043929
1105.495, 4.936429
1105.977, 5.104494
1106.459, 5.684963
1106.941, 5.581398
1107.423, 3.130586
1107.906, 2.039551
1108.388, 5.008494
1108.870, 7.884274
1109.352, 7.429378
1109.834, 5.246703
1110.316, 4.417960
1110.798, 5.213431
1111.280, 4.896435
1111.762, 1.489456
1112.245, 0.3808210
1112.727, 0.6858480
1113.209, 2.437695
1113.691, 4.539697
1114.173, 6.244658
1114.655, 6.361334
1115.137, 5.026573
1115.619, 4.119585
1116.102, 3.730098
1116.584, 3.633859
1117.066, 4.305922
1117.548, 4.538575
1118.030, 3.398674
1118.512, 2.219186
1118.994, 2.489814
1119.476, 3.745517
1119.958, 4.064015
1120.441, 3.030331
1120.923, 2.406662
1121.405, 2.466483
1121.887, 2.326039
1122.369, 1.661407
1122.851, 0.8808210
1123.333, 4.1090999E-02
1123.815, 0.4356260
1124.297, 0.5922160
1124.780, 3.340866
1125.262, 4.710426
1125.744, 4.372018
1126.226, 3.699933
1126.708, 2.602909
1127.190, 2.425199
1127.672, 4.328489
1128.154, 6.451301
1128.636, 5.834318
1129.119, 2.945360
1129.601, 1.979551
1130.083, 3.200225
1130.565, 3.144908
1131.047, 1.272472
1131.529, 2.6505999E-02
1132.011, 0.2145150
1132.493, 1.401821
1132.976, 3.063992
1133.458, 4.773294
1133.940, 5.422586
1134.422, 5.044356
1134.904, 5.206165
1135.386, 5.931815
1135.868, 6.198430
1136.350, 5.730781
1136.833, 4.923796
1137.315, 4.039648
1137.797, 3.053922
1138.279, 1.801079
1138.761, 0.4391950
1139.243, 0.4683860
1139.725, 1.015736
1140.207, 1.451858
1140.689, 1.808811
1141.172, 1.411013
1141.654, 5.0154999E-02
1142.136, 1.553773
1142.618, 1.865207
1143.100, 2.754266
1143.582, 2.304101
1144.064, 3.285746
1144.546, 3.540041
1145.029, 3.275281
1145.511, 3.691938
1145.993, 4.965186
1146.475, 5.417598
1146.957, 3.417300
1147.439, 1.436319
1147.921, 2.363044
1148.403, 4.307939
1148.885, 5.237978
1149.368, 5.340462
1149.850, 5.139211
1150.332, 4.741149
1150.814, 3.893565
1151.296, 2.292906
1151.778, 1.495648
1152.260, 3.521152
1152.742, 5.412521
1153.224, 4.845457
1153.707, 3.361626
1154.189, 2.506546
1154.671, 2.205025
1155.153, 1.784727
1155.635, 1.102499
1156.117, 0.9360030
1156.599, 1.773428
1157.081, 2.814108
1157.563, 4.331524
1158.046, 5.412453
1158.528, 5.489666
1159.010, 4.777284
1159.492, 3.114135
1159.974, 0.7673150
1160.456, 0.3277360
1160.938, 0.5709340
1161.420, 1.598426
1161.903, 3.261772
1162.385, 4.211174
1162.867, 3.695938
1163.349, 2.767109
1163.831, 2.054041
1164.313, 1.631212
1164.795, 1.763042
1165.277, 2.564467
1165.760, 2.952580
1166.242, 2.862690
1166.724, 2.489984
1167.206, 1.667514
1167.688, 1.263406
1168.170, 1.873388
1168.652, 2.660781
1169.134, 2.416007
1169.616, 1.536913
1170.099, 2.297020
1170.581, 1.895703
1171.063, 1.362548
1171.545, 2.362150
1172.027, 0.9578030
1172.509, 1.840677
1172.991, 3.422817
1173.473, 4.581268
1173.956, 5.224400
1174.438, 4.826222
1174.920, 3.879539
1175.402, 4.199836
1175.884, 5.459389
1176.366, 6.744250
1176.848, 7.822113
1177.330, 7.778848
1177.813, 6.264528
1178.295, 4.755994
1178.777, 4.645414
1179.259, 5.093339
1179.741, 5.142130
1180.223, 5.016914
1180.705, 5.173733
1181.187, 5.370317
1181.669, 4.995293
1182.151, 4.062528
1182.634, 2.906823
1183.116, 1.498303
1183.598, 0.6484460
1184.080, 0.9473280
1184.562, 1.838872
1185.044, 3.749519
1185.526, 5.399024
1186.008, 4.974681
1186.490, 3.365280
1186.973, 2.974356
1187.455, 4.278667
1187.937, 5.193050
1188.419, 5.645613
1188.901, 5.180530
1189.383, 2.351626
1189.865, 0.1707070
1190.347, 0.9661860
1190.830, 2.520669
1191.312, 2.028799
1191.794, 0.2017090
1192.276, 0.8141250
1192.758, 5.459881
1193.240, 6.843853
1193.722, 3.459021
1194.204, 1.399240
1194.687, 2.403459
1195.169, 3.965130
1195.651, 4.680683
1196.133, 4.504711
1196.615, 3.100502
1197.097, 0.8203850
1197.579, 0.1068680
1198.061, 0.8818130
1198.543, 1.672186
1199.026, 2.366710
1199.508, 2.976602
1199.990, 3.349475
1200.472, 3.050667
1200.954, 1.639685
1201.436, 0.3593300
1201.918, 1.723248
1202.400, 4.159270
1202.883, 4.453721
1203.365, 3.225960
1203.847, 1.661390
1204.329, 0.3045850
1204.811, 0.2039180
1205.293, 1.691234
1205.775, 3.086874
1206.257, 2.932208
1206.740, 2.709860
1207.222, 3.527789
1207.704, 4.739599
1208.186, 6.379671
1208.668, 7.625968
1209.150, 6.979983
1209.632, 4.795995
1210.114, 3.438437
1210.596, 3.717122
1211.078, 3.880114
1211.561, 3.499121
1212.043, 3.069241
1212.525, 2.387355
1213.007, 2.102876
1213.489, 3.206813
1213.971, 4.509710
1214.453, 3.880677
1214.935, 1.493934
1215.417, 0.5642600
1215.900, 1.398216
1216.382, 2.692867
1216.864, 4.668072
1217.346, 5.666823
1217.828, 4.972571
1218.310, 4.284671
1218.792, 5.065166
1219.274, 4.129664
1219.757, 5.638139
1220.239, 3.778042
1220.721, 3.485444
1221.203, 4.388773
1221.685, 4.559021
1222.167, 3.902042
1222.649, 3.402877
1223.131, 3.393056
1223.614, 3.395039
1224.096, 2.978748
1224.578, 2.629931
1225.060, 3.065117
1225.542, 3.708797
1226.024, 4.143141
1226.506, 4.123979
1226.988, 2.859946
1227.470, 0.9344940
1227.953, 0.1564910
1228.435, 1.095794
1228.917, 2.215489
1229.399, 3.299721
1229.881, 3.945896
1230.363, 3.762944
1230.845, 3.406281
1231.327, 3.651248
1231.810, 3.648091
1232.292, 1.669601
1232.774, 1.449647
1233.256, 2.289670
1233.738, 0.3346220
1234.220, 1.834865
1234.702, 4.637724
1235.184, 6.155830
1235.667, 5.795453
1236.149, 4.983500
1236.631, 4.365102
1237.113, 4.072642
1237.595, 4.360382
1238.077, 4.915849
1238.559, 4.594303
1239.041, 3.704552
1239.523, 4.461397
1240.005, 6.390265
1240.488, 6.508327
1240.970, 4.550967
1241.452, 2.926984
1241.934, 2.811951
1242.416, 3.534770
1242.898, 5.376222
1243.380, 6.643302
1243.862, 4.665929
1244.344, 2.028080
1244.827, 1.681756
1245.309, 2.773994
1245.791, 3.618667
1246.273, 4.044836
1246.755, 4.964024
1247.237, 7.137000
1247.719, 7.957203
1248.201, 5.367362
1248.684, 3.424668
1249.166, 3.740594
1249.648, 4.571047
1250.130, 5.267982
1250.612, 5.574353
1251.094, 5.047160
1251.576, 3.847694
1252.058, 3.040339
1252.541, 2.641121
1253.023, 2.607051
1253.505, 2.987042
1253.987, 3.053274
1254.469, 2.628517
1254.951, 2.365682
1255.433, 2.667772
1255.915, 2.772145
1256.397, 1.452828
1256.880, 0.2985290
1257.362, 0.6421070
1257.844, 0.2129920
1258.326, 2.987748
1258.808, 6.260362
1259.290, 5.923030
1259.772, 2.280910
1260.254, 0.5139350
1260.737, 2.155576
1261.219, 4.302545
1261.701, 6.159153
1262.183, 7.159176
1262.665, 6.784744
1263.147, 5.716923
1263.629, 3.913561
1264.111, 2.067753
1264.594, 1.192863
1265.076, 0.3690370
1265.558, 3.8729999E-03
1266.040, 0.3050080
1266.522, 0.5406370
1267.004, 1.927976
1267.486, 3.317022
1267.968, 4.648379
1268.450, 5.044216
1268.932, 3.922468
1269.415, 2.581062
1269.897, 2.510934
1270.379, 3.201052
1270.861, 3.377979
1271.343, 3.077495
1271.825, 3.355563
1272.307, 3.198983
1272.789, 4.426836
1273.271, 3.481630
1273.754, 3.055817
1274.236, 3.633823
1274.718, 4.088092
1275.200, 3.352705
1275.682, 2.597396
1276.164, 3.237730
1276.646, 3.909748
1277.128, 3.323182
1277.611, 2.211573
1278.093, 1.052837
1278.575, 0.1923480
1279.057, 0.7966670
1279.539, 3.132340
1280.021, 4.540734
1280.503, 4.925073
1280.985, 4.584133
1281.468, 3.335078
1281.950, 2.051760
1282.432, 0.9156720
1282.914, 0.2149270
1283.396, 3.6058001E-02
1283.878, 0.1382500
1284.360, 0.8136110
1284.842, 0.7750900
1285.324, 0.0000000E+00
##END=



