##NAMES=Claringbullite
##RRUFFID=R090016
##IDEAL CHEMISTRY=Cu^2+^_4_FCl(OH)_6_
##LOCALITY=Copper Queen Mine, Bisbee, Arizona
##OWNER=RRUFF
##SOURCE=William W. Pinch
##DESCRIPTION=Blue green crystal plates and cleavages on cuprite with connellite, atacamite, clinoatacamite R090062. Note that this is the same sample used in the Burns et al (1995) structural study.
##STATUS=The identification of this mineral has been confirmed by single-crystal X-ray diffraction.
##URL=rruff.info/R090016
148.3025, 0.0000000E+00
148.7846, 0.1106290
149.2667, 1.9453000E-02
149.7488, 4.6589999E-03
150.2309, 0.1559680
150.7131, 0.2871270
151.1952, 0.2742990
151.6773, 0.1673670
152.1594, 0.1017150
152.6415, 0.1692710
153.1236, 0.2899300
153.6058, 0.2934380
154.0879, 0.1502000
154.5700, 2.3556000E-02
155.0521, 9.6491002E-02
155.5342, 0.3823910
156.0163, 0.5681120
156.4985, 0.3954270
156.9806, 0.1383250
157.4627, 1.5561000E-02
157.9448, 8.6407997E-02
158.4269, 0.2671470
158.9090, 0.4621900
159.3912, 0.7219830
159.8733, 0.8991470
160.3554, 0.7403670
160.8375, 0.5038700
161.3196, 0.3985710
161.8017, 0.5236950
162.2839, 0.7800660
162.7660, 0.8677350
163.2481, 0.6187050
163.7302, 0.4144550
164.2123, 0.2953400
164.6944, 0.2515390
165.1766, 0.2957960
165.6587, 0.4428330
166.1408, 0.6609130
166.6229, 0.7374430
167.1050, 0.4455790
167.5871, 0.2583880
168.0693, 0.3839860
168.5514, 0.7018680
169.0335, 0.9115230
169.5156, 0.8505430
169.9977, 0.5396460
170.4798, 0.3059100
170.9620, 2.7191000E-02
171.4441, 8.4524997E-02
171.9262, 0.2125710
172.4083, 0.8306890
172.8904, 1.372784
173.3725, 1.542564
173.8547, 1.345399
174.3368, 1.148709
174.8189, 0.8504610
175.3010, 0.5776770
175.7831, 0.4263630
176.2652, 0.4083140
176.7474, 0.4637370
177.2295, 0.6192670
177.7116, 0.7912730
178.1937, 0.8356600
178.6758, 0.5903910
179.1579, 0.2770690
179.6401, 0.2856530
180.1222, 0.6439210
180.6043, 1.006652
181.0864, 1.257292
181.5685, 1.396135
182.0506, 1.384907
182.5328, 1.111225
183.0149, 0.6858790
183.4970, 0.4690520
183.9791, 0.5864310
184.4612, 0.7351340
184.9433, 0.8119350
185.4255, 0.8226950
185.9076, 0.7752150
186.3897, 0.6606220
186.8718, 0.4856640
187.3539, 0.3243620
187.8360, 0.1050640
188.3182, 1.5001000E-02
188.8003, 8.2390003E-02
189.2824, 0.3147970
189.7645, 0.5183790
190.2466, 0.5567740
190.7287, 0.4235700
191.2109, 0.3367340
191.6930, 0.3516650
192.1751, 0.3592940
192.6572, 0.2896840
193.1393, 0.1740970
193.6214, 0.1099020
194.1036, 0.1973750
194.5857, 0.4722830
195.0678, 0.6111960
195.5499, 0.5226010
196.0320, 0.4032610
196.5141, 0.3294540
196.9963, 0.3084350
197.4784, 0.3230560
197.9605, 0.3699600
198.4426, 0.4612040
198.9247, 0.4578440
199.4068, 0.2301320
199.8890, 8.2670003E-03
200.3711, 2.3343001E-02
200.8532, 0.1382730
201.3353, 0.3196100
201.8174, 0.2129310
202.2995, 0.3212240
202.7817, 0.3737030
203.2638, 0.3623460
203.7459, 8.9992002E-02
204.2280, 0.1412210
204.7101, 6.2706999E-02
205.1922, 2.0780999E-02
205.6744, 7.5833999E-02
206.1565, 0.1544200
206.6386, 5.4722000E-02
207.1207, 0.1308360
207.6028, 0.4753710
208.0849, 0.6532410
208.5671, 0.6240570
209.0492, 0.4981710
209.5313, 0.2937230
210.0134, 5.3844001E-02
210.4955, 0.1170500
210.9776, 0.1665570
211.4598, 0.1228220
211.9419, 3.5687000E-02
212.4240, 0.1203280
212.9061, 0.2628930
213.3882, 0.3378270
213.8703, 0.3665070
214.3525, 0.3858820
214.8346, 0.4204740
215.3167, 0.4598840
215.7988, 0.4638380
216.2809, 0.4061950
216.7630, 0.3510520
217.2451, 0.3373210
217.7273, 0.3439500
218.2094, 0.3310530
218.6915, 0.2622400
219.1736, 0.1534800
219.6557, 0.1037360
220.1378, 0.1492380
220.6200, 0.2164190
221.1021, 0.2969900
221.5842, 0.3809470
222.0663, 0.4578840
222.5484, 0.5224380
223.0305, 0.5653270
223.5127, 0.5768770
223.9948, 0.5124590
224.4769, 0.4636490
224.9590, 0.4491220
225.4411, 0.4634060
225.9232, 0.5001630
226.4054, 0.5599390
226.8875, 0.6371220
227.3696, 0.6649660
227.8517, 0.5861900
228.3338, 0.5162730
228.8159, 0.4708880
229.2981, 0.4462390
229.7802, 0.4643730
230.2623, 0.5313070
230.7444, 0.6345760
231.2265, 0.6304840
231.7086, 0.3998920
232.1908, 0.2017000
232.6729, 8.8573001E-02
233.1550, 5.4908998E-02
233.6371, 9.1518998E-02
234.1192, 0.2030060
234.6013, 0.3712990
235.0835, 0.4566300
235.5656, 0.4053320
236.0477, 0.3485110
236.5298, 0.2953170
237.0119, 0.2644270
237.4940, 0.3026570
237.9762, 0.4494470
238.4583, 0.6733770
238.9404, 0.8265620
239.4225, 0.9697950
239.9046, 0.9973860
240.3867, 0.7522670
240.8689, 0.3492540
241.3510, 8.9004003E-02
241.8331, 1.7824000E-02
242.3152, 0.2191310
242.7973, 0.3541090
243.2794, 0.4263280
243.7616, 0.2479020
244.2437, 0.3930740
244.7258, 0.4087700
245.2079, 0.4189070
245.6900, 0.6083130
246.1721, 0.4611660
246.6543, 0.6475310
247.1364, 0.7041490
247.6185, 0.5374040
248.1006, 0.3710960
248.5827, 0.1999680
249.0648, 9.4033003E-02
249.5470, 8.0452003E-02
250.0291, 0.1469720
250.5112, 0.2971600
250.9933, 0.5338460
251.4754, 0.7128590
251.9576, 0.7205880
252.4397, 0.5923590
252.9218, 0.4750230
253.4039, 0.3877750
253.8860, 0.3521300
254.3681, 0.4216500
254.8503, 0.5970830
255.3324, 0.7043260
255.8145, 0.5765190
256.2966, 0.2664260
256.7787, 3.5978001E-02
257.2608, 8.8613003E-02
257.7430, 8.7678999E-02
258.2251, 9.7011998E-02
258.7072, 0.4398230
259.1893, 0.7239420
259.6714, 0.7863850
260.1535, 0.6631440
260.6357, 0.5430620
261.1178, 0.4232200
261.5999, 0.3365460
262.0820, 0.3258690
262.5641, 0.3658990
263.0462, 0.3808420
263.5284, 0.2726830
264.0105, 6.7621998E-02
264.4926, 5.7224002E-02
264.9747, 0.4202530
265.4568, 0.7165560
265.9389, 0.6666440
266.4211, 0.4039830
266.9032, 0.2039590
267.3853, 0.2550600
267.8674, 0.4950180
268.3495, 0.6549200
268.8316, 0.7315460
269.3138, 0.7521810
269.7959, 0.7100660
270.2780, 0.6307930
270.7601, 0.5400320
271.2422, 0.4481910
271.7243, 0.3593170
272.2065, 0.2879250
272.6886, 0.2284560
273.1707, 0.2023280
273.6528, 0.2206730
274.1349, 0.2669110
274.6170, 0.3296710
275.0992, 0.4079270
275.5813, 0.4839260
276.0634, 0.5086070
276.5455, 0.4503070
277.0276, 0.3972720
277.5097, 0.3931210
277.9919, 0.3886980
278.4740, 0.3151990
278.9561, 0.1488110
279.4382, 3.2262001E-02
279.9203, 8.1102997E-02
280.4024, 4.1475002E-02
280.8846, 0.2255790
281.3667, 0.5750310
281.8488, 0.8985710
282.3309, 1.024514
282.8130, 0.9219350
283.2951, 0.7229770
283.7773, 0.6248230
284.2594, 0.6793740
284.7415, 0.7079340
285.2236, 0.6594690
285.7057, 0.6224240
286.1878, 0.6893410
286.6700, 0.8472080
287.1521, 0.9765310
287.6342, 0.9208420
288.1163, 0.6116960
288.5984, 0.3870030
289.0805, 0.2013800
289.5627, 0.1303340
290.0448, 0.3003190
290.5269, 0.6445960
291.0090, 0.9510130
291.4911, 1.017838
291.9732, 0.8245800
292.4554, 0.6566880
292.9375, 0.4552920
293.4196, 0.3349630
293.9017, 0.3878720
294.3838, 0.5542020
294.8659, 0.7167670
295.3481, 0.7992560
295.8302, 0.8012760
296.3123, 0.7067640
296.7944, 0.3246550
297.2765, 4.8710000E-02
297.7586, 3.2846000E-02
298.2408, 3.8587999E-02
298.7229, 0.2351410
299.2050, 0.5508560
299.6871, 0.9149880
300.1692, 1.050147
300.6513, 0.6928780
301.1335, 0.4051230
301.6156, 0.2561600
302.0977, 0.1915630
302.5798, 0.1551980
303.0619, 0.1242880
303.5440, 0.1009220
304.0262, 8.4769003E-02
304.5083, 1.5265000E-02
304.9904, 5.6428999E-02
305.4725, 0.3863670
305.9546, 0.7114810
306.4367, 0.7418630
306.9189, 0.4332920
307.4010, 2.0156000E-02
307.8831, 0.1654980
308.3652, 2.3845000E-02
308.8473, 0.1004150
309.3294, 0.2086010
309.8116, 0.3019560
310.2937, 0.3793010
310.7758, 0.4417820
311.2579, 0.4921460
311.7400, 0.5321280
312.2221, 0.5614480
312.7043, 0.5862670
313.1864, 0.6625190
313.6685, 0.6819980
314.1506, 0.5236070
314.6327, 0.2643450
315.1148, 9.8729998E-02
315.5970, 0.1973620
316.0791, 0.5376510
316.5612, 0.7030830
317.0433, 0.4828980
317.5254, 0.3202450
318.0075, 0.3606400
318.4897, 0.5059540
318.9718, 0.5860100
319.4539, 0.5090780
319.9360, 0.3467740
320.4181, 0.3332260
320.9002, 0.7475530
321.3824, 0.9559580
321.8645, 0.7690390
322.3466, 0.4416300
322.8287, 0.2275450
323.3108, 0.2038670
323.7929, 0.2774400
324.2751, 0.3023640
324.7572, 0.2641890
325.2393, 0.1976510
325.7214, 4.0033001E-02
326.2035, 9.7156003E-02
326.6856, 0.1183380
327.1678, 2.4651000E-02
327.6499, 9.3998000E-02
328.1320, 0.1315090
328.6141, 5.3052001E-02
329.0962, 7.0180997E-02
329.5783, 0.2352090
330.0605, 0.4314640
330.5426, 0.6728070
331.0247, 0.9103770
331.5068, 1.032868
331.9889, 0.9464060
332.4710, 0.6562040
332.9532, 0.4670820
333.4353, 0.4845930
333.9174, 0.4932380
334.3995, 0.4238360
334.8816, 0.3315480
335.3637, 0.3161650
335.8459, 0.4124310
336.3280, 0.5555600
336.8101, 0.5595130
337.2922, 0.2402420
337.7743, 5.3087000E-02
338.2564, 0.1406700
338.7386, 0.3089940
339.2206, 0.3796690
339.7028, 0.3091130
340.1849, 0.2004350
340.6670, 0.2232090
341.1491, 0.4675530
341.6312, 0.6169550
342.1133, 0.6404600
342.5955, 0.6084940
343.0776, 0.5351080
343.5597, 0.4454810
344.0418, 0.3697560
344.5239, 0.3160130
345.0060, 0.2702110
345.4882, 0.2830640
345.9703, 0.3882040
346.4524, 0.5254220
346.9345, 0.7490950
347.4166, 0.9863840
347.8987, 1.106536
348.3809, 1.014157
348.8630, 0.7673090
349.3451, 0.6024710
349.8272, 0.5392540
350.3093, 0.5360510
350.7914, 0.6475600
351.2736, 0.7768360
351.7557, 0.8134780
352.2378, 0.7203220
352.7199, 0.5740100
353.2020, 0.5035500
353.6841, 0.5315010
354.1663, 0.5680540
354.6484, 0.6235320
355.1305, 0.6730070
355.6126, 0.6954210
356.0947, 0.6894320
356.5768, 0.6694940
357.0590, 0.6641250
357.5411, 0.6793170
358.0232, 0.6178050
358.5053, 0.3300230
358.9874, 0.1376380
359.4695, 0.2720150
359.9517, 0.5942060
360.4338, 0.8058340
360.9159, 0.6873210
361.3980, 0.3667430
361.8801, 0.2570580
362.3622, 0.4665020
362.8444, 0.6509740
363.3265, 0.6942690
363.8086, 0.6506280
364.2907, 0.5559160
364.7728, 0.4111830
365.2549, 0.2694840
365.7371, 0.1975690
366.2192, 0.2218230
366.7013, 0.2547600
367.1834, 0.2668620
367.6655, 0.2906210
368.1476, 0.3686350
368.6298, 0.4969690
369.1119, 0.5995970
369.5940, 0.6001160
370.0761, 0.5218170
370.5582, 0.4769870
371.0403, 0.4842560
371.5225, 0.5092390
372.0046, 0.5288970
372.4867, 0.5470110
372.9688, 0.5729490
373.4509, 0.6159920
373.9330, 0.6665080
374.4152, 0.7295480
374.8973, 0.8138490
375.3794, 0.8301450
375.8615, 0.6694580
376.3436, 0.4419300
376.8257, 0.3163380
377.3079, 0.3303760
377.7900, 0.3901620
378.2721, 0.4733250
378.7542, 0.5580690
379.2363, 0.5216100
379.7184, 0.2620940
380.2006, 1.7638000E-02
380.6827, 1.1147000E-02
381.1648, 0.2741900
381.6469, 0.4893360
382.1290, 0.4518190
382.6111, 0.3087560
383.0933, 0.2675880
383.5754, 0.3539120
384.0575, 0.4799310
384.5396, 0.6087200
385.0217, 0.7364940
385.5038, 0.8064230
385.9860, 0.7550500
386.4681, 0.6982170
386.9502, 0.7622390
387.4323, 0.8937290
387.9144, 0.8770670
388.3965, 0.5676500
388.8787, 0.1152900
389.3608, 6.4328000E-02
389.8429, 0.1483920
390.3250, 0.3214810
390.8071, 0.3708080
391.2892, 0.3324100
391.7714, 0.1998160
392.2535, 1.9388000E-02
392.7356, 0.1843820
393.2177, 9.8938003E-02
393.6998, 0.3296770
394.1819, 0.5334050
394.6641, 0.3201600
395.1462, 7.6451004E-02
395.6283, 1.2429000E-02
396.1104, 0.1066910
396.5925, 0.2497580
397.0746, 0.3792030
397.5568, 0.4864110
398.0389, 0.5245010
398.5210, 0.4358990
399.0031, 0.3450430
399.4852, 0.2748370
399.9673, 0.2045510
400.4495, 7.7090003E-02
400.9316, 0.1148530
401.4137, 0.2718820
401.8958, 0.2139940
402.3779, 0.2110760
402.8600, 0.4324930
403.3422, 0.2813090
403.8243, 0.1077720
404.3064, 9.4701998E-02
404.7885, 0.2210190
405.2706, 0.3668360
405.7527, 0.4437980
406.2349, 0.4586420
406.7170, 0.4614930
407.1991, 0.4654910
407.6812, 0.4350540
408.1633, 0.3272150
408.6454, 0.1992600
409.1276, 0.1142790
409.6097, 9.5623001E-02
410.0918, 0.1181370
410.5739, 0.1643150
411.0560, 0.2511700
411.5381, 0.2681630
412.0203, 0.1144040
412.5024, 4.5251001E-02
412.9845, 0.1231590
413.4666, 0.1199680
413.9487, 7.4803002E-02
414.4308, 5.5160001E-03
414.9130, 8.5377999E-02
415.3951, 0.1984480
415.8772, 0.3575010
416.3593, 0.4798750
416.8414, 0.4777070
417.3235, 0.4236890
417.8057, 0.4248500
418.2878, 0.5456910
418.7699, 0.6498840
419.2520, 0.5416930
419.7341, 0.2534490
420.2162, 0.1276920
420.6984, 0.3533190
421.1805, 0.6688530
421.6626, 0.7090710
422.1447, 0.4748900
422.6268, 0.2898610
423.1089, 0.3309220
423.5911, 0.4616520
424.0732, 0.4834550
424.5553, 0.3742040
425.0374, 0.2545550
425.5195, 0.2033780
426.0016, 0.2236990
426.4838, 0.2913620
426.9659, 0.4723600
427.4480, 0.6297530
427.9301, 0.6919120
428.4122, 0.6858010
428.8943, 0.6629120
429.3765, 0.6410120
429.8586, 0.6238820
430.3407, 0.6216030
430.8228, 0.6612630
431.3049, 0.6511910
431.7870, 0.5392870
432.2692, 0.4161030
432.7513, 0.3182740
433.2334, 0.2659680
433.7155, 0.3114480
434.1976, 0.5190740
434.6797, 0.8671420
435.1619, 1.037462
435.6440, 0.8811880
436.1261, 0.7118890
436.6082, 0.5406030
437.0903, 0.3987200
437.5724, 0.3268050
438.0546, 0.3326510
438.5367, 0.3801960
439.0188, 0.4010930
439.5009, 0.3617460
439.9830, 0.3886540
440.4651, 0.5965710
440.9473, 0.7718650
441.4294, 0.7780340
441.9115, 0.6625670
442.3936, 0.5775160
442.8757, 0.6438570
443.3578, 0.8024070
443.8400, 0.8449630
444.3221, 0.7337670
444.8042, 0.6001710
445.2863, 0.4390250
445.7684, 0.3046670
446.2505, 0.2606200
446.7327, 0.3223540
447.2148, 0.4200440
447.6969, 0.5457910
448.1790, 0.6779590
448.6611, 0.7189670
449.1432, 0.6179990
449.6254, 0.4937150
450.1075, 0.4400110
450.5896, 0.4347350
451.0717, 0.4548360
451.5538, 0.5529950
452.0359, 0.6240980
452.5181, 0.5067200
453.0002, 0.2392940
453.4823, 0.1158210
453.9644, 0.3282390
454.4465, 0.6999250
454.9286, 0.8201660
455.4108, 0.6321610
455.8929, 0.4311490
456.3750, 0.2284970
456.8571, 7.5668998E-02
457.3392, 5.8426000E-02
457.8214, 0.1762420
458.3035, 0.3103420
458.7856, 0.3444550
459.2677, 0.2766390
459.7498, 0.2506460
460.2319, 0.3263920
460.7141, 0.3791440
461.1962, 0.3034720
461.6783, 0.4500810
462.1604, 0.5303580
462.6425, 0.5481360
463.1246, 0.3152990
463.6068, 0.4061020
464.0889, 0.3672210
464.5710, 0.3230440
465.0531, 0.4215880
465.5352, 0.3890570
466.0173, 0.2535490
466.4995, 7.5264998E-02
466.9816, 9.7930003E-03
467.4637, 0.1158710
467.9458, 0.3640470
468.4279, 0.4276600
468.9100, 0.2062070
469.3922, 6.1905999E-02
469.8743, 0.2167150
470.3564, 0.4164510
470.8385, 0.4388450
471.3206, 0.2583820
471.8027, 6.4039998E-02
472.2849, 6.9140000E-03
472.7670, 2.4498999E-02
473.2491, 0.1077450
473.7312, 0.2696990
474.2133, 0.3922170
474.6954, 0.3598610
475.1776, 0.2245660
475.6597, 9.9413998E-02
476.1418, 1.0844000E-02
476.6239, 9.0057999E-02
477.1060, 0.1254260
477.5881, 0.1203310
478.0703, 6.1425000E-02
478.5524, 7.5437002E-02
479.0345, 0.1441050
479.5166, 0.3517420
479.9987, 0.4930980
480.4808, 0.5717410
480.9630, 0.3997840
481.4451, 0.5514620
481.9272, 0.5935470
482.4093, 0.3964990
482.8914, 0.1991670
483.3735, 0.1972780
483.8557, 0.3301890
484.3378, 0.3796380
484.8199, 0.2638310
485.3020, 0.1776850
485.7841, 0.1405890
486.2662, 0.1258980
486.7484, 9.9381998E-02
487.2305, 6.6583000E-02
487.7126, 7.7260002E-02
488.1947, 0.1976650
488.6768, 0.4155550
489.1589, 0.5339890
489.6411, 0.5172510
490.1232, 0.4518620
490.6053, 0.3309970
491.0874, 0.1993890
491.5695, 0.1041100
492.0516, 5.7606999E-02
492.5338, 5.5218000E-02
493.0159, 0.1239400
493.4980, 0.2503450
493.9801, 0.3028820
494.4622, 0.2348200
494.9443, 0.1515670
495.4265, 0.1035120
495.9086, 8.7636001E-02
496.3907, 0.1227440
496.8728, 0.2807900
497.3549, 0.4386590
497.8370, 0.4908590
498.3192, 0.4546360
498.8013, 0.3766840
499.2834, 0.2569780
499.7655, 0.1553160
500.2476, 0.1888670
500.7297, 0.4220690
501.2119, 0.5560800
501.6940, 0.4617040
502.1761, 0.3536710
502.6582, 0.4197710
503.1403, 0.6152620
503.6224, 0.7571490
504.1045, 0.7270440
504.5866, 0.5733700
505.0688, 0.4697110
505.5509, 0.4353320
506.0330, 0.4245520
506.5151, 0.4857520
506.9972, 0.5293830
507.4793, 0.4452610
507.9615, 0.2584600
508.4436, 0.1251700
508.9257, 0.1998550
509.4078, 0.4418140
509.8899, 0.5935860
510.3720, 0.6157060
510.8542, 0.6340900
511.3363, 0.7335460
511.8184, 0.8333860
512.3005, 0.8261640
512.7827, 0.6809540
513.2648, 0.5631210
513.7469, 0.6641100
514.2290, 0.8895240
514.7111, 0.9252240
515.1932, 0.6894350
515.6754, 0.4738230
516.1575, 0.5597140
516.6396, 0.8595800
517.1217, 0.9554430
517.6038, 0.6042590
518.0859, 0.3130960
518.5681, 0.4012530
519.0502, 0.6781210
519.5323, 0.7947210
520.0144, 0.6559200
520.4965, 0.4710460
520.9786, 0.5113240
521.4608, 0.8399970
521.9429, 1.008614
522.4250, 0.9568320
522.9071, 0.8425670
523.3892, 0.6833900
523.8713, 0.5278290
524.3535, 0.4352090
524.8356, 0.4293820
525.3177, 0.4613740
525.7998, 0.4524800
526.2819, 0.3970030
526.7640, 0.3240380
527.2462, 0.1211610
527.7283, 2.8764000E-02
528.2104, 0.3009970
528.6925, 0.7615180
529.1746, 0.9980590
529.6567, 0.7450010
530.1389, 0.3377390
530.6210, 0.2497750
531.1031, 0.4610820
531.5852, 0.6209760
532.0673, 0.6232600
532.5494, 0.5460050
533.0316, 0.4518240
533.5137, 0.3422630
533.9958, 0.3064090
534.4779, 0.4497990
534.9600, 0.5968340
535.4421, 0.6257070
535.9243, 0.5535540
536.4064, 0.4365020
536.8885, 0.2937550
537.3706, 0.1601760
537.8527, 0.1173680
538.3348, 0.2025870
538.8170, 0.3134570
539.2991, 0.5198660
539.7812, 0.6871090
540.2633, 0.7241710
540.7454, 0.6546640
541.2275, 0.5461000
541.7097, 0.4290690
542.1918, 0.3332360
542.6739, 0.3620610
543.1560, 0.5834030
543.6381, 0.7116580
544.1202, 0.5981910
544.6024, 0.4480780
545.0845, 0.3839290
545.5666, 0.4019360
546.0487, 0.4412520
546.5308, 0.4909670
547.0129, 0.5316360
547.4951, 0.5166080
547.9772, 0.4478840
548.4593, 0.4057960
548.9414, 0.4284030
549.4235, 0.4900020
549.9056, 0.5748930
550.3878, 0.7165710
550.8699, 0.7156290
551.3520, 0.3832170
551.8341, 9.6070003E-03
552.3162, 0.1729130
552.7983, 0.1741960
553.2805, 0.1022570
553.7626, 1.5838001E-02
554.2447, 8.5846998E-02
554.7268, 0.2108830
555.2089, 0.4182160
555.6910, 0.5397930
556.1732, 0.5572640
556.6553, 0.5122810
557.1374, 0.3868030
557.6195, 0.2174610
558.1016, 9.3001001E-02
558.5837, 6.7647003E-02
559.0659, 0.1251260
559.5480, 0.2588510
560.0301, 0.4705160
560.5122, 0.6087680
560.9943, 0.5800420
561.4764, 0.5065900
561.9586, 0.5381710
562.4407, 0.6632340
562.9228, 0.7046060
563.4049, 0.5033640
563.8870, 0.2468710
564.3691, 0.1519680
564.8513, 0.2030230
565.3334, 0.2832730
565.8155, 0.3476170
566.2976, 0.3896270
566.7797, 0.3911560
567.2618, 0.3076530
567.7440, 0.2916940
568.2261, 0.4221890
568.7082, 0.5472100
569.1903, 0.5896470
569.6724, 0.5608250
570.1545, 0.4642210
570.6367, 0.2971900
571.1188, 0.1228160
571.6009, 8.7195002E-02
572.0830, 0.2485590
572.5651, 0.3363340
573.0472, 0.1854050
573.5294, 5.3477999E-02
574.0115, 0.1420190
574.4936, 0.3696250
574.9757, 0.4781850
575.4578, 0.2741010
575.9399, 2.5172001E-02
576.4221, 8.5987002E-02
576.9042, 0.3985640
577.3863, 0.6466450
577.8684, 0.7558010
578.3505, 0.7220300
578.8326, 0.4730260
579.3148, 1.5893999E-02
579.7969, 0.2669120
580.2790, 0.1125250
580.7611, 0.1213510
581.2432, 0.3517220
581.7253, 0.5342450
582.2075, 0.5896940
582.6896, 0.4962430
583.1717, 0.3551250
583.6538, 0.3180820
584.1359, 0.4129030
584.6180, 0.4092280
585.1002, 0.1676220
585.5823, 6.0230000E-03
586.0643, 1.2428000E-02
586.5464, 0.1400800
587.0286, 0.2911710
587.5107, 0.4485150
587.9928, 0.5376140
588.4749, 0.4001660
588.9570, 0.1227390
589.4391, 0.1011760
589.9213, 0.4438740
590.4034, 0.7212460
590.8855, 0.5674400
591.3676, 0.1255340
591.8497, 4.6992000E-02
592.3318, 0.2495890
592.8140, 0.4690510
593.2961, 0.3549100
593.7782, 0.1238820
594.2603, 1.8750999E-02
594.7424, 6.3464999E-02
595.2245, 0.1444720
595.7067, 0.1698860
596.1888, 0.1553610
596.6709, 0.1982440
597.1530, 0.3451600
597.6351, 0.4753050
598.1172, 0.5936730
598.5994, 0.6675800
599.0815, 0.6502780
599.5636, 0.5532620
600.0457, 0.4371710
600.5278, 0.3152300
601.0099, 0.2205170
601.4921, 0.2494780
601.9742, 0.4045480
602.4563, 0.4901870
602.9384, 0.4059160
603.4205, 0.2675210
603.9026, 0.2439930
604.3848, 0.3356890
604.8669, 0.4237630
605.3490, 0.4898430
605.8311, 0.5499480
606.3132, 0.6331960
606.7953, 0.7164510
607.2775, 0.7361670
607.7596, 0.6689870
608.2417, 0.5817200
608.7238, 0.5885270
609.2059, 0.7217630
609.6880, 0.7862840
610.1702, 0.6829080
610.6523, 0.6138090
611.1344, 0.7003010
611.6165, 0.8413660
612.0986, 0.8819870
612.5807, 0.7732680
613.0629, 0.6344630
613.5450, 0.5613930
614.0271, 0.5468160
614.5092, 0.6032230
614.9913, 0.7539200
615.4734, 0.7956340
615.9556, 0.5226030
616.4377, 6.5205000E-02
616.9198, 0.1186950
617.4019, 8.3287001E-02
617.8840, 0.3079410
618.3661, 0.5952770
618.8483, 0.7957080
619.3304, 0.6965670
619.8125, 0.3604720
620.2946, 5.8249000E-02
620.7767, 3.3939000E-02
621.2589, 3.5861999E-02
621.7410, 0.1479230
622.2231, 0.3399880
622.7052, 0.4617980
623.1873, 0.4350870
623.6694, 0.3846050
624.1516, 0.3832410
624.6337, 0.4165560
625.1158, 0.4365340
625.5979, 0.4381710
626.0800, 0.3994840
626.5621, 0.2102830
627.0443, 4.8491001E-02
627.5264, 1.9308001E-02
628.0085, 0.4229330
628.4906, 0.8394660
628.9727, 0.7579760
629.4548, 0.1762940
629.9370, 0.1613380
630.4191, 0.1441380
630.9012, 6.2272001E-02
631.3833, 8.4775001E-02
631.8654, 0.2283280
632.3475, 0.2815210
632.8297, 0.2457510
633.3118, 0.2130410
633.7939, 0.2697570
634.2760, 0.3905640
634.7581, 0.4619980
635.2402, 0.4692650
635.7224, 0.4873430
636.2045, 0.5707250
636.6866, 0.6454140
637.1687, 0.6106640
637.6508, 0.4605770
638.1329, 0.3664630
638.6151, 0.3798830
639.0972, 0.4509150
639.5793, 0.5916720
640.0614, 0.7604560
640.5435, 0.8585740
641.0256, 0.8507860
641.5078, 0.7565550
641.9899, 0.5813280
642.4720, 0.2985730
642.9541, 0.1533330
643.4362, 0.2516220
643.9183, 0.3689730
644.4005, 0.4874250
644.8826, 0.5816900
645.3647, 0.6329980
645.8468, 0.6363070
646.3289, 0.5875080
646.8110, 0.4324670
647.2932, 0.2325580
647.7753, 0.1588430
648.2574, 0.2198750
648.7395, 0.2846260
649.2216, 0.2925620
649.7037, 0.2699480
650.1859, 0.2734560
650.6680, 0.2855030
651.1501, 0.3700650
651.6322, 0.6925970
652.1143, 0.9310120
652.5964, 0.8551400
653.0786, 0.5713420
653.5607, 0.2539670
654.0428, 2.2963000E-02
654.5249, 0.2089590
655.0070, 0.1911390
655.4891, 4.1588001E-02
655.9713, 0.1607270
656.4534, 9.6110001E-02
656.9355, 5.4028999E-02
657.4176, 0.1568010
657.8997, 0.3250280
658.3818, 0.4807510
658.8640, 0.6204990
659.3461, 0.7168520
659.8282, 0.7468710
660.3103, 0.7340660
660.7924, 0.6998420
661.2745, 0.6471460
661.7567, 0.5738550
662.2388, 0.4769530
662.7209, 0.3763270
663.2030, 0.2933530
663.6851, 0.2220950
664.1672, 0.1809620
664.6494, 0.1616840
665.1315, 0.1825430
665.6136, 0.2919030
666.0957, 0.4294240
666.5778, 0.4987740
667.0599, 0.4706750
667.5421, 0.4461510
668.0242, 0.5328970
668.5063, 0.6845540
668.9884, 0.8010270
669.4705, 0.8755970
669.9526, 0.8846500
670.4348, 0.8064420
670.9169, 0.6656940
671.3990, 0.5035830
671.8811, 0.2533850
672.3632, 0.1546780
672.8453, 0.3412530
673.3275, 0.5525160
673.8096, 0.6547180
674.2917, 0.6766650
674.7738, 0.6891750
675.2559, 0.7421980
675.7380, 0.7750460
676.2202, 0.7096440
676.7023, 0.5590450
677.1844, 0.3976660
677.6665, 0.1963290
678.1486, 9.9932998E-02
678.6307, 0.2477050
679.1129, 0.5156400
679.5950, 0.6513140
680.0771, 0.6356120
680.5592, 0.5757360
681.0413, 0.4629010
681.5234, 0.3519440
682.0056, 0.2476850
682.4877, 0.1804770
682.9698, 0.2155470
683.4519, 0.3787540
683.9340, 0.5751120
684.4161, 0.6555000
684.8983, 0.5999440
685.3804, 0.5881730
685.8625, 0.6933700
686.3446, 0.7197890
686.8267, 0.4316890
687.3088, 9.5533997E-02
687.7910, 4.2468000E-02
688.2731, 0.3514780
688.7552, 0.6184600
689.2373, 0.6482120
689.7194, 0.5576410
690.2015, 0.4219160
690.6837, 0.2746540
691.1658, 0.2162870
691.6479, 0.2753160
692.1300, 0.3769600
692.6121, 0.4122980
693.0942, 0.3679500
693.5764, 0.3499140
694.0585, 0.3450060
694.5406, 0.3870570
695.0227, 0.5429780
695.5048, 0.7139360
695.9869, 0.7896250
696.4691, 0.7556960
696.9512, 0.6967540
697.4333, 0.6139250
697.9154, 0.5642140
698.3975, 0.6977380
698.8796, 0.9582040
699.3618, 1.031660
699.8439, 0.7874460
700.3260, 0.4546870
700.8081, 0.3498060
701.2902, 0.5102170
701.7723, 0.5472400
702.2545, 0.2070450
702.7366, 0.3937700
703.2187, 0.5141980
703.7008, 0.5718860
704.1829, 0.3789400
704.6650, 0.5096140
705.1472, 0.5203610
705.6293, 0.5347810
706.1114, 0.7281060
706.5935, 0.5778000
707.0756, 0.7511290
707.5577, 0.7573190
708.0399, 0.6598770
708.5220, 0.5908450
709.0041, 0.7296600
709.4862, 1.077622
709.9683, 1.165711
710.4504, 0.7199070
710.9326, 0.3890100
711.4147, 0.3577510
711.8968, 0.4203860
712.3789, 0.4000520
712.8610, 0.3043010
713.3431, 0.2305060
713.8253, 0.2168010
714.3074, 0.2399730
714.7895, 0.2852220
715.2716, 0.3466750
715.7537, 0.3478690
716.2358, 0.2547510
716.7180, 0.1974190
717.2001, 0.3159380
717.6822, 0.5681300
718.1643, 0.6708600
718.6464, 0.5441050
719.1285, 0.3921010
719.6107, 0.1410210
720.0928, 4.9697001E-02
720.5749, 3.1948000E-02
721.0570, 0.1448850
721.5391, 0.3398750
722.0212, 0.4925750
722.5034, 0.5912800
722.9855, 0.6137060
723.4676, 0.5657580
723.9497, 0.4562220
724.4318, 0.2655100
724.9139, 0.1546660
725.3961, 0.2665450
725.8782, 0.4982290
726.3603, 0.5479370
726.8424, 0.2838000
727.3245, 0.1476190
727.8066, 0.3028160
728.2888, 0.4519930
728.7709, 0.3912050
729.2530, 0.2149240
729.7351, 9.7493999E-02
730.2172, 9.9797003E-02
730.6993, 0.1726160
731.1815, 0.3123670
731.6636, 0.4809860
732.1457, 0.5221470
732.6278, 0.4247980
733.1099, 0.2839690
733.5920, 0.1029360
734.0742, 4.1186001E-02
734.5563, 8.2940003E-03
735.0384, 0.2563210
735.5205, 0.4221590
736.0026, 0.4573340
736.4847, 0.4327000
736.9669, 0.3414830
737.4490, 0.2216500
737.9311, 8.1831001E-02
738.4132, 5.6437999E-02
738.8953, 0.1071280
739.3774, 4.6787001E-02
739.8596, 0.2879150
740.3417, 0.3496110
740.8238, 0.2444350
741.3059, 0.1848810
741.7880, 0.2314060
742.2701, 0.2784640
742.7523, 0.2038770
743.2344, 2.3248000E-02
743.7165, 1.7552000E-02
744.1986, 0.2464010
744.6807, 0.4108470
745.1628, 0.2818150
745.6450, 0.1544070
746.1271, 0.3698530
746.6092, 0.7890160
747.0913, 0.9488540
747.5734, 0.5757110
748.0555, 5.7395000E-02
748.5377, 0.1333940
749.0198, 6.4126998E-02
749.5019, 3.5169002E-02
749.9840, 0.1401320
750.4661, 0.2218480
750.9482, 0.2571580
751.4304, 0.2668690
751.9125, 0.3055640
752.3946, 0.4060360
752.8767, 0.4563820
753.3588, 0.4531190
753.8409, 0.4082690
754.3231, 0.2705340
754.8052, 0.1190530
755.2873, 7.1712002E-02
755.7694, 0.1538010
756.2515, 0.2598070
756.7336, 0.3320450
757.2158, 0.3665720
757.6979, 0.3266500
758.1800, 0.2314070
758.6621, 0.2025580
759.1442, 0.2878810
759.6263, 0.4015150
760.1085, 0.4481970
760.5906, 0.4277670
761.0727, 0.3560590
761.5548, 0.1965510
762.0369, 3.8543001E-02
762.5190, 0.1772390
763.0012, 0.3270050
763.4833, 0.2983230
763.9654, 0.1177060
764.4475, 0.1023400
764.9296, 0.3479980
765.4117, 0.5649020
765.8939, 0.7092270
766.3760, 0.7939490
766.8581, 0.8559060
767.3402, 0.8928270
767.8223, 0.8389790
768.3044, 0.6426650
768.7866, 0.3694350
769.2687, 0.1780920
769.7508, 6.5977000E-02
770.2329, 4.7573000E-02
770.7150, 0.1682450
771.1971, 0.3218760
771.6793, 0.5395120
772.1614, 0.7243010
772.6435, 0.7021680
773.1256, 0.4275250
773.6077, 0.2201120
774.0898, 0.2697150
774.5720, 0.3745490
775.0541, 0.3781390
775.5362, 0.3074150
776.0183, 0.2134760
776.5004, 0.1197090
776.9825, 7.1979001E-02
777.4647, 0.1325130
777.9468, 0.2672930
778.4289, 0.3239820
778.9110, 0.2861660
779.3931, 0.2740820
779.8752, 0.3353590
780.3574, 0.4027180
780.8395, 0.4195950
781.3216, 0.3906360
781.8037, 0.3390160
782.2858, 0.2073350
782.7679, 0.1377870
783.2501, 0.1762650
783.7322, 0.2803790
784.2143, 0.4928530
784.6964, 0.7342920
785.1785, 0.8096590
785.6606, 0.6240560
786.1428, 0.3561710
786.6249, 0.2023290
787.1070, 0.1536930
787.5891, 0.1979760
788.0712, 0.3385030
788.5533, 0.4631770
789.0355, 0.5255320
789.5176, 0.5348720
789.9997, 0.4981090
790.4818, 0.4046530
790.9639, 0.3312000
791.4460, 0.2782590
791.9282, 0.2403740
792.4103, 0.2344370
792.8924, 0.2391780
793.3745, 0.2233300
793.8566, 0.1942980
794.3387, 0.2037960
794.8209, 0.3207670
795.3030, 0.4193470
795.7851, 0.3302120
796.2672, 0.1376560
796.7493, 5.3440001E-02
797.2314, 0.1070940
797.7136, 0.1357160
798.1957, 2.6590001E-02
798.6778, 0.1290400
799.1599, 7.9130001E-02
799.6420, 0.2615060
800.1241, 0.4462800
800.6063, 0.3574670
801.0884, 0.2826890
801.5705, 0.4522380
802.0526, 0.6611090
802.5347, 0.5200980
803.0168, 0.6638540
803.4990, 0.7413390
803.9811, 0.7561140
804.4632, 0.5202850
804.9453, 0.6081080
805.4274, 0.5662570
805.9095, 0.5191100
806.3917, 0.6444630
806.8738, 0.4411500
807.3559, 0.5717700
807.8380, 0.5707390
808.3201, 0.6299920
808.8022, 0.5587750
809.2844, 0.6373150
809.7665, 0.5528480
810.2486, 0.4186420
810.7307, 0.3457180
811.2128, 0.3222020
811.6949, 0.3129270
812.1771, 0.3100410
812.6592, 0.3393460
813.1413, 0.4882050
813.6234, 0.5720240
814.1055, 0.4174110
814.5876, 0.1932740
815.0698, 0.1636140
815.5519, 0.3671440
816.0340, 0.5340070
816.5161, 0.4179440
816.9982, 0.2380490
817.4803, 0.2639290
817.9625, 0.4347800
818.4446, 0.6245570
818.9267, 0.7904260
819.4088, 0.8121050
819.8909, 0.5562930
820.3730, 0.1279600
820.8552, 4.2500000E-02
821.3373, 0.1224260
821.8194, 0.2718040
822.3015, 0.3602790
822.7836, 0.4241290
823.2657, 0.4947400
823.7479, 0.5552990
824.2300, 0.5720220
824.7121, 0.5401750
825.1942, 0.4800580
825.6763, 0.3745180
826.1584, 0.2644580
826.6406, 0.1091840
827.1227, 5.9850002E-03
827.6048, 9.6115001E-02
828.0869, 0.4106290
828.5690, 0.6659180
829.0511, 0.6119380
829.5333, 0.4190280
830.0154, 0.3956700
830.4975, 0.5041180
830.9796, 0.5601380
831.4617, 0.5274850
831.9438, 0.4459670
832.4260, 0.3319290
832.9081, 0.2112200
833.3902, 0.1692830
833.8723, 0.2601060
834.3544, 0.2856770
834.8365, 0.1607860
835.3187, 7.8557000E-02
835.8008, 0.1772900
836.2829, 0.3236880
836.7650, 0.3220490
837.2471, 0.1508860
837.7292, 6.3679002E-02
838.2114, 0.2644840
838.6935, 0.4432710
839.1756, 0.3202140
839.6577, 9.6551999E-02
840.1398, 9.0345003E-02
840.6219, 0.3092740
841.1041, 0.5135790
841.5862, 0.5463520
842.0683, 0.4686050
842.5504, 0.3423670
843.0325, 0.1877160
843.5146, 0.1805390
843.9968, 0.3569020
844.4789, 0.4506070
844.9610, 0.2869380
845.4431, 2.8247001E-02
845.9252, 2.1384001E-02
846.4073, 0.1883520
846.8895, 0.3495520
847.3716, 0.4765920
847.8537, 0.5327730
848.3358, 0.4832000
848.8179, 0.3824840
849.3000, 0.2387390
849.7822, 7.9609998E-02
850.2643, 1.9490000E-02
850.7464, 0.1271560
851.2285, 0.2586900
851.7106, 0.3521670
852.1927, 0.4174150
852.6749, 0.4904240
853.1570, 0.5473920
853.6391, 0.3019670
854.1212, 0.4408770
854.6033, 0.5135480
855.0854, 0.5274110
855.5676, 0.2946430
856.0497, 0.3846710
856.5318, 0.3358540
857.0139, 0.2817130
857.4960, 0.4103450
857.9781, 0.2062710
858.4603, 0.2278080
858.9424, 0.3027300
859.4245, 0.3589900
859.9066, 0.4191700
860.3887, 0.4207670
860.8708, 0.3061940
861.3530, 0.1877240
861.8351, 8.7642998E-02
862.3172, 3.5417002E-02
862.7993, 0.1068420
863.2814, 0.3450800
863.7635, 0.5160990
864.2457, 0.4802370
864.7278, 0.3793340
865.2099, 0.3021930
865.6920, 0.2494360
866.1741, 0.2084400
866.6563, 0.1788190
867.1384, 0.1810330
867.6205, 0.2417270
868.1026, 0.3219520
868.5847, 0.3492160
869.0668, 0.3277340
869.5490, 0.2614230
870.0311, 0.1459460
870.5132, 0.1169740
870.9953, 0.2809880
871.4774, 0.5108080
871.9595, 0.5297520
872.4417, 0.2680040
872.9238, 0.1839300
873.4059, 0.4407070
873.8880, 0.6156540
874.3701, 0.4593550
874.8522, 0.2653890
875.3344, 0.3305620
875.8165, 0.6027440
876.2986, 0.7428030
876.7807, 0.6141720
877.2628, 0.4498200
877.7449, 0.2903750
878.2271, 0.1701550
878.7092, 7.7412002E-02
879.1913, 4.5302998E-02
879.6734, 0.1641070
880.1555, 0.4590560
880.6376, 0.7112320
881.1198, 0.6744570
881.6019, 0.4761910
882.0840, 0.3115670
882.5661, 0.1948340
883.0482, 0.1991660
883.5303, 0.3362200
884.0125, 0.4968190
884.4946, 0.5899310
884.9767, 0.6276490
885.4588, 0.6130440
885.9409, 0.5291360
886.4230, 0.4925410
886.9052, 0.5366510
887.3873, 0.5714580
887.8694, 0.5584120
888.3515, 0.5057990
888.8336, 0.4161440
889.3157, 0.2808840
889.7979, 0.1759420
890.2800, 8.6631998E-02
890.7621, 4.8886999E-02
891.2442, 8.7511003E-02
891.7263, 0.1691210
892.2084, 0.3143080
892.6906, 0.4763010
893.1727, 0.5131630
893.6548, 0.3319810
894.1369, 0.1797430
894.6190, 0.2716860
895.1011, 0.4466490
895.5833, 0.5399330
896.0654, 0.5482540
896.5475, 0.4597080
897.0296, 0.2898520
897.5117, 0.1958180
897.9938, 0.3743750
898.4760, 0.6802380
898.9581, 0.6793490
899.4402, 0.4110720
899.9223, 0.2779690
900.4044, 0.3522630
900.8865, 0.4783130
901.3687, 0.5790480
901.8508, 0.6170870
902.3329, 0.4901870
902.8150, 0.1210720
903.2971, 8.3050001E-03
903.7792, 0.3314130
904.2614, 0.3491630
904.7435, 0.4237380
905.2256, 0.4320320
905.7077, 0.3775880
906.1898, 7.2524004E-02
906.6719, 9.1104999E-02
907.1541, 2.0036001E-02
907.6362, 0.1364790
908.1183, 7.2411001E-02
908.6004, 0.3891410
909.0825, 0.5412920
909.5646, 0.4710460
910.0468, 0.4414910
910.5289, 0.5160660
911.0110, 0.5372020
911.4931, 0.3383450
911.9752, 8.4949002E-02
912.4573, 6.9649003E-02
912.9395, 0.1350170
913.4216, 0.1204710
913.9037, 3.7656002E-02
914.3858, 8.7233000E-02
914.8679, 0.2441930
915.3500, 0.3802060
915.8321, 0.3722150
916.3142, 0.2470610
916.7963, 0.2391100
917.2784, 0.3636200
917.7606, 0.4207890
918.2427, 0.3246020
918.7248, 0.2050140
919.2069, 0.2054230
919.6890, 0.3069670
920.1711, 0.3602940
920.6533, 0.3333330
921.1354, 0.3360580
921.6175, 0.3994450
922.0996, 0.4645150
922.5817, 0.5154310
923.0638, 0.5424800
923.5460, 0.5182460
924.0281, 0.4331060
924.5102, 0.3815740
924.9923, 0.3758210
925.4744, 0.4060680
925.9565, 0.5414530
926.4387, 0.6541020
926.9208, 0.5882910
927.4029, 0.3962980
927.8850, 0.2569760
928.3671, 0.2370010
928.8492, 0.2622860
929.3314, 0.3277170
929.8135, 0.3675130
930.2956, 0.2638910
930.7777, 0.1030730
931.2598, 0.1080300
931.7419, 0.3067300
932.2241, 0.4836870
932.7062, 0.4589940
933.1883, 0.3414050
933.6704, 0.3613680
934.1525, 0.4685760
934.6346, 0.3786530
935.1168, 7.6770999E-02
935.5989, 6.7520000E-02
936.0810, 0.1350120
936.5631, 0.4386070
937.0452, 0.4926860
937.5273, 0.3184660
938.0095, 0.2900980
938.4916, 0.4729160
938.9737, 0.5232470
939.4558, 0.3269420
939.9379, 8.5037999E-02
940.4200, 0.1023370
940.9022, 0.2162820
941.3843, 0.2012260
941.8664, 1.2319000E-02
942.3485, 0.1728050
942.8306, 0.3875840
943.3127, 0.5408770
943.7949, 0.5822430
944.2770, 0.5717470
944.7591, 0.5676210
945.2412, 0.5607040
945.7233, 0.4900870
946.2054, 0.2745590
946.6876, 0.1442330
947.1697, 0.2583540
947.6518, 0.4134100
948.1339, 0.4672110
948.6160, 0.4534500
949.0981, 0.4482040
949.5803, 0.4614280
950.0624, 0.4300790
950.5445, 0.2752990
951.0266, 0.1205660
951.5087, 0.1061900
951.9908, 0.1667490
952.4730, 0.1790900
952.9551, 0.1546170
953.4372, 0.2056150
953.9193, 0.3750130
954.4014, 0.5426590
954.8835, 0.5786450
955.3657, 0.5036590
955.8478, 0.3395390
956.3299, 0.1063770
956.8120, 5.6503002E-02
957.2941, 0.1205350
957.7762, 0.1249230
958.2584, 9.3218997E-02
958.7405, 2.5977001E-02
959.2226, 9.2711002E-02
959.7047, 0.2716840
960.1868, 0.3475040
960.6689, 0.2931390
961.1511, 0.2397470
961.6332, 0.2095490
962.1153, 0.2246320
962.5974, 0.3112700
963.0795, 0.4586500
963.5616, 0.6272020
964.0438, 0.9047740
964.5259, 1.014916
965.0080, 0.8516770
965.4901, 0.6487820
965.9722, 0.4385350
966.4543, 0.2810040
966.9365, 0.2456160
967.4186, 0.3254940
967.9007, 0.4405780
968.3828, 0.6978530
968.8649, 0.8167710
969.3470, 0.6209550
969.8292, 0.3842830
970.3113, 0.2442340
970.7934, 0.1939740
971.2755, 0.2243040
971.7576, 0.3305670
972.2397, 0.4491640
972.7219, 0.6057550
973.2040, 0.6968550
973.6861, 0.5495070
974.1682, 0.3774090
974.6503, 0.5045100
975.1324, 0.8198940
975.6146, 0.9517140
976.0967, 0.7718840
976.5788, 0.5511670
977.0609, 0.5430760
977.5430, 0.6222750
978.0251, 0.6158220
978.5073, 0.5644990
978.9894, 0.5569940
979.4715, 0.5995120
979.9536, 0.6426820
980.4357, 0.6606490
980.9178, 0.6462370
981.4000, 0.5593910
981.8821, 0.4403130
982.3642, 0.5107060
982.8463, 0.7577320
983.3284, 0.8982280
983.8105, 0.8610670
984.2927, 0.7452550
984.7748, 0.6197460
985.2569, 0.4815920
985.7390, 0.2954230
986.2211, 5.1979002E-02
986.7032, 2.0222001E-02
987.1854, 0.1102700
987.6675, 0.2593960
988.1496, 0.3885650
988.6317, 0.4597730
989.1138, 0.4136970
989.5959, 0.2938190
990.0781, 0.2988300
990.5602, 0.4981410
991.0423, 0.6219680
991.5244, 0.6590810
992.0065, 0.6290400
992.4886, 0.4952380
992.9708, 0.3395690
993.4529, 0.2179790
993.9350, 0.1504490
994.4171, 0.2245570
994.8992, 0.6799630
995.3813, 0.9040400
995.8635, 0.6331950
996.3456, 0.4064790
996.8277, 0.5406400
997.3098, 0.8026100
997.7919, 0.9295540
998.2740, 0.8942100
998.7562, 0.7373020
999.2383, 0.2639550
999.7204, 1.3829000E-02
1000.203, 0.1736000
1000.685, 0.4397600
1001.167, 0.5426590
1001.649, 0.5347810
1002.131, 0.5169320
1002.613, 0.5093660
1003.095, 0.5106950
1003.577, 0.5448670
1004.059, 0.5573810
1004.542, 0.4685920
1005.024, 0.3840310
1005.506, 0.4534760
1005.988, 0.6030580
1006.470, 0.6401330
1006.952, 0.5171060
1007.434, 0.3992190
1007.916, 0.4342210
1008.398, 0.4891610
1008.881, 0.3813500
1009.363, 0.2449470
1009.845, 0.3243280
1010.327, 0.5567460
1010.809, 0.7196940
1011.291, 0.7275550
1011.773, 0.6610470
1012.255, 0.5819640
1012.738, 0.4859140
1013.220, 0.2834030
1013.702, 7.8557998E-02
1014.184, 0.2158600
1014.666, 0.6432400
1015.148, 0.9072200
1015.630, 0.7883520
1016.112, 0.5501520
1016.594, 0.5128280
1017.077, 0.6009210
1017.559, 0.5883520
1018.041, 0.5035430
1018.523, 0.5122960
1019.005, 0.6279600
1019.487, 0.7072520
1019.969, 0.6665600
1020.451, 0.5685250
1020.934, 0.5061140
1021.416, 0.4704680
1021.898, 0.3970760
1022.380, 0.2880030
1022.862, 0.2208220
1023.344, 0.2107820
1023.826, 0.2472780
1024.308, 0.3318900
1024.791, 0.4221870
1025.273, 0.4292290
1025.755, 0.3572380
1026.237, 0.3740990
1026.719, 0.4973790
1027.201, 0.5625060
1027.683, 0.5200020
1028.165, 0.4872680
1028.647, 0.5600680
1029.130, 0.6579420
1029.612, 0.5938440
1030.094, 0.3449140
1030.576, 0.2443690
1031.058, 0.3421500
1031.540, 0.4177960
1032.022, 0.4287800
1032.504, 0.3953200
1032.986, 0.3225460
1033.469, 0.2218810
1033.951, 0.1017350
1034.433, 6.8195000E-02
1034.915, 6.2601000E-02
1035.397, 0.1777430
1035.879, 0.4835850
1036.361, 0.9823520
1036.843, 1.296776
1037.326, 1.075551
1037.808, 0.5237950
1038.290, 9.1917999E-02
1038.772, 0.2484830
1039.254, 0.3420300
1039.736, 2.0715000E-02
1040.218, 0.2823760
1040.700, 0.5062900
1041.182, 0.6635490
1041.665, 0.7387830
1042.147, 0.7576040
1042.629, 0.7882650
1043.111, 0.8548150
1043.593, 0.8281830
1044.075, 0.5556840
1044.557, 0.3904280
1045.039, 0.5322550
1045.521, 0.6917580
1046.004, 0.6037480
1046.486, 0.4116940
1046.968, 0.4744140
1047.450, 0.9026230
1047.932, 1.088831
1048.414, 0.7533330
1048.896, 0.4638680
1049.378, 0.3918390
1049.861, 0.3938480
1050.343, 0.3833430
1050.825, 0.3632270
1051.307, 0.3424390
1051.789, 0.3163360
1052.271, 0.3415300
1052.753, 0.4364510
1053.235, 0.5733940
1053.718, 0.8495970
1054.200, 1.067354
1054.682, 1.032517
1055.164, 0.8387650
1055.646, 0.6464830
1056.128, 0.4770930
1056.610, 0.3737440
1057.092, 0.3838730
1057.574, 0.4093050
1058.057, 0.4375870
1058.539, 0.4608600
1059.021, 0.4727670
1059.503, 0.4795850
1059.985, 0.5012600
1060.467, 0.5403450
1060.949, 0.5428710
1061.431, 0.4324030
1061.913, 0.3615510
1062.396, 0.4546770
1062.878, 0.5476140
1063.360, 0.4831450
1063.842, 0.3382420
1064.324, 0.2570760
1064.806, 0.2596960
1065.288, 0.2539530
1065.770, 0.2161030
1066.253, 0.1498910
1066.735, 1.4534000E-02
1067.217, 0.1329970
1067.699, 4.0467001E-02
1068.181, 0.1468110
1068.663, 0.2429480
1069.145, 0.2228080
1069.627, 0.1702690
1070.109, 4.2289998E-02
1070.592, 1.5689000E-02
1071.074, 0.3130900
1071.556, 0.5980940
1072.038, 0.5658180
1072.520, 0.3865740
1073.002, 0.3439820
1073.484, 0.4514640
1073.966, 0.5010400
1074.448, 0.4001370
1074.931, 0.2673700
1075.413, 8.6576000E-02
1075.895, 2.9864000E-02
1076.377, 4.2750999E-02
1076.859, 0.2032770
1077.341, 0.3476350
1077.823, 0.4440000
1078.305, 0.4430400
1078.788, 0.2920060
1079.270, 0.1600900
1079.752, 0.1514280
1080.234, 0.1624270
1080.716, 9.1344997E-02
1081.198, 2.1922000E-02
1081.680, 7.8414001E-02
1082.162, 0.2346980
1082.644, 0.3673950
1083.127, 0.4438210
1083.609, 0.4673940
1084.091, 0.4065420
1084.573, 0.3322620
1085.055, 0.2680920
1085.537, 0.2283740
1086.019, 0.2317140
1086.501, 0.2692010
1086.984, 0.3587030
1087.466, 0.5242850
1087.948, 0.5837670
1088.430, 0.3213540
1088.912, 0.1067190
1089.394, 0.1629930
1089.876, 0.3278270
1090.358, 0.5320070
1090.840, 0.6945430
1091.323, 0.6408150
1091.805, 0.3362360
1092.287, 0.1325430
1092.769, 0.2469420
1093.251, 0.3956040
1093.733, 0.4872880
1094.215, 0.5266260
1094.697, 0.4968410
1095.179, 0.4280190
1095.662, 0.3557960
1096.144, 0.2886380
1096.626, 0.2333900
1097.108, 0.2353010
1097.590, 0.2458210
1098.072, 0.1966610
1098.554, 0.1652050
1099.036, 0.2563210
1099.519, 0.3877870
1100.001, 0.4419350
1100.483, 0.4171330
1100.965, 0.3869090
1101.447, 0.3817790
1101.929, 0.3412790
1102.411, 0.2060800
1102.893, 8.5262999E-02
1103.375, 1.4252000E-02
1103.858, 3.9510999E-02
1104.340, 0.1215930
1104.822, 0.4010570
1105.304, 0.5557530
1105.786, 0.5121830
1106.268, 0.4865050
1106.750, 0.5680420
1107.232, 0.6054980
1107.714, 0.5303830
1108.197, 0.4096100
1108.679, 0.2489070
1109.161, 9.5693998E-02
1109.643, 7.4620999E-02
1110.125, 0.2278230
1110.607, 0.2773140
1111.089, 3.7342001E-02
1111.571, 7.6778002E-02
1112.054, 0.1502030
1112.536, 0.3736720
1113.018, 0.3893400
1113.500, 0.2841900
1113.982, 0.1624870
1114.464, 2.4180001E-02
1114.946, 5.0530001E-03
1115.428, 0.2303400
1115.911, 0.3648680
1116.393, 0.3155960
1116.875, 0.2804320
1117.357, 0.3700910
1117.839, 0.4819100
1118.321, 0.5167730
1118.803, 0.4768390
1119.285, 0.3646880
1119.767, 9.2808001E-02
1120.250, 2.3251001E-02
1120.732, 0.1077110
1121.214, 0.2079850
1121.696, 0.1894550
1122.178, 0.1236160
1122.660, 3.5967998E-02
1123.142, 2.7889000E-02
1123.624, 7.8331001E-02
1124.106, 0.4031390
1124.589, 0.5025850
1125.071, 0.2913730
1125.553, 0.1393860
1126.035, 0.1281710
1126.517, 0.1259500
1126.999, 4.5212001E-02
1127.481, 4.0468998E-02
1127.963, 2.3403000E-02
1128.446, 9.0925001E-02
1128.928, 0.2227560
1129.410, 0.3851460
1129.892, 0.4146870
1130.374, 0.2672280
1130.856, 0.2164060
1131.338, 0.4030890
1131.820, 0.5868410
1132.302, 0.4946440
1132.785, 0.2402260
1133.267, 0.1497280
1133.749, 0.2161810
1134.231, 0.4218620
1134.713, 0.7548830
1135.195, 0.9410620
1135.677, 0.9047510
1136.159, 0.7691340
1136.641, 0.6135030
1137.124, 0.4638900
1137.606, 0.3724480
1138.088, 0.3216840
1138.570, 0.2310830
1139.052, 0.1180690
1139.534, 6.2500998E-02
1140.016, 7.7901997E-02
1140.498, 0.1795150
1140.981, 0.3718170
1141.463, 0.5247960
1141.945, 0.4933240
1142.427, 0.3441890
1142.909, 0.1127860
1143.391, 0.1120090
1143.873, 8.3424002E-02
1144.355, 0.1339340
1144.838, 0.2726810
1145.320, 0.2677390
1145.802, 0.2704810
1146.284, 0.3957150
1146.766, 0.5208730
1147.248, 0.5224690
1147.730, 0.4534840
1148.212, 0.3164040
1148.694, 0.1876180
1149.177, 0.2332670
1149.659, 0.4138220
1150.141, 0.5023230
1150.623, 0.4054130
1151.105, 0.2764170
1151.587, 0.1539290
1152.069, 9.7901002E-02
1152.551, 0.1890690
1153.033, 0.3333260
1153.516, 0.5159360
1153.998, 0.6441630
1154.480, 0.4920520
1154.962, 4.4560999E-02
1155.444, 0.2433020
1155.926, 0.1139050
1156.408, 3.9918002E-02
1156.890, 0.1397800
1157.373, 0.1856690
1157.855, 0.1387670
1158.337, 6.6064000E-02
1158.819, 4.1538998E-02
1159.301, 6.1783999E-02
1159.783, 8.3676003E-02
1160.265, 8.0765001E-02
1160.747, 0.1410020
1161.229, 0.3431800
1161.712, 0.5031650
1162.194, 0.5804110
1162.676, 0.6137110
1163.158, 0.6142860
1163.640, 0.6005060
1164.122, 0.5984450
1164.604, 0.6079490
1165.086, 0.6455610
1165.568, 0.7575140
1166.051, 0.7388040
1166.533, 0.5062630
1167.015, 0.3415020
1167.497, 0.3793450
1167.979, 0.4830960
1168.461, 0.5199580
1168.943, 0.5006630
1169.425, 0.4386220
1169.908, 0.3393520
1170.390, 0.3416030
1170.872, 0.4519500
1171.354, 0.4575680
1171.836, 0.3066700
1172.318, 0.1858990
1172.800, 0.2120640
1173.282, 0.3130720
1173.765, 0.4224150
1174.247, 0.5175820
1174.729, 0.5158410
1175.211, 0.4420440
1175.693, 0.3699830
1176.175, 0.3151350
1176.657, 0.3158060
1177.139, 0.3755400
1177.621, 0.4180090
1178.104, 0.4235110
1178.586, 0.3842580
1179.068, 0.2304640
1179.550, 6.9929004E-02
1180.032, 5.6515001E-02
1180.514, 0.1471000
1180.996, 0.2992050
1181.478, 0.4638440
1181.960, 0.5035870
1182.443, 0.3635480
1182.925, 0.2499880
1183.407, 0.3661660
1183.889, 0.4424530
1184.371, 0.1981900
1184.853, 4.5141000E-02
1185.335, 1.7720001E-02
1185.817, 0.2650030
1186.300, 0.5450580
1186.782, 0.7998650
1187.264, 0.8079500
1187.746, 0.3510870
1188.228, 1.2386000E-02
1188.710, 7.8166001E-02
1189.192, 7.3241003E-02
1189.674, 3.7898000E-02
1190.156, 0.1627870
1190.639, 0.2434540
1191.121, 0.2790870
1191.603, 0.2473260
1192.085, 0.1318670
1192.567, 0.1814490
1193.049, 0.4968220
1193.531, 0.6842650
1194.013, 0.6843900
1194.495, 0.5939560
1194.978, 0.4282900
1195.460, 0.2667210
1195.942, 0.1883760
1196.424, 0.1828410
1196.906, 0.2339810
1197.388, 0.3378710
1197.870, 0.4095050
1198.352, 0.4484900
1198.835, 0.4894540
1199.317, 0.5364160
1199.799, 0.5375180
1200.281, 0.4648190
1200.763, 0.3707110
1201.245, 0.3098390
1201.727, 0.2676480
1202.209, 0.1734140
1202.692, 7.9802997E-02
1203.174, 0.1445470
1203.656, 0.3078070
1204.138, 0.3718330
1204.620, 0.3141680
1205.102, 0.2835240
1205.584, 0.3586210
1206.066, 0.4601250
1206.548, 0.5956100
1207.031, 0.6606730
1207.513, 0.4732890
1207.995, 0.2577570
1208.477, 0.2945230
1208.959, 0.4788300
1209.441, 0.5487160
1209.923, 0.4663870
1210.405, 0.4058520
1210.887, 0.4292770
1211.370, 0.4437690
1211.852, 0.4120350
1212.334, 0.3974170
1212.816, 0.4494660
1213.298, 0.4909240
1213.780, 0.4840150
1214.262, 0.4636520
1214.744, 0.4838770
1215.227, 0.5582860
1215.709, 0.6010210
1216.191, 0.6252390
1216.673, 0.5316690
1217.155, 0.2597730
1217.637, 0.1506690
1218.119, 0.3883920
1218.601, 0.6026220
1219.083, 0.3815300
1219.566, 3.3606999E-02
1220.048, 2.8044000E-02
1220.530, 0.3040000
1221.012, 0.5897750
1221.494, 0.7913490
1221.976, 0.7062170
1222.458, 0.3846970
1222.940, 0.3200090
1223.422, 0.7216560
1223.905, 1.092207
1224.387, 0.9512810
1224.869, 0.6413100
1225.351, 0.5040200
1225.833, 0.4310290
1226.315, 0.2479810
1226.797, 5.7204001E-02
1227.279, 6.2636003E-02
1227.762, 0.2497030
1228.244, 0.4680290
1228.726, 0.7120420
1229.208, 0.7644010
1229.690, 0.2907240
1230.172, 2.7868001E-02
1230.654, 0.2288390
1231.136, 0.5216750
1231.619, 0.4495450
1232.101, 0.2385850
1232.583, 0.2374220
1233.065, 0.3927450
1233.547, 0.3315980
1234.029, 9.6341997E-02
1234.511, 0.2061720
1234.993, 0.1001350
1235.475, 0.3650370
1235.958, 0.4905330
1236.440, 0.4995270
1236.922, 0.3758590
1237.404, 0.2526590
1237.886, 0.3148470
1238.368, 0.5061720
1238.850, 0.5403750
1239.332, 0.4700060
1239.814, 0.5503240
1240.297, 0.7399630
1240.779, 0.7764530
1241.261, 0.6280180
1241.743, 0.4978180
1242.225, 0.4941770
1242.707, 0.4778640
1243.189, 0.2384630
1243.671, 2.9347001E-02
1244.154, 0.1167350
1244.636, 0.3220310
1245.118, 0.4859560
1245.600, 0.6056690
1246.082, 0.7493920
1246.564, 0.8894260
1247.046, 0.8078190
1247.528, 0.2940730
1248.010, 3.5147998E-02
1248.493, 0.4328200
1248.975, 0.6798510
1249.457, 0.4173750
1249.939, 0.1707840
1250.421, 0.2631840
1250.903, 0.4908730
1251.385, 0.5899530
1251.867, 0.5795360
1252.349, 0.5638350
1252.832, 0.5419160
1253.314, 0.5131630
1253.796, 0.4964710
1254.278, 0.5314950
1254.760, 0.6263070
1255.242, 0.6278270
1255.724, 0.4491830
1256.206, 0.3164130
1256.689, 0.5586550
1257.171, 0.8787420
1257.653, 0.6851780
1258.135, 0.2902410
1258.617, 0.2414960
1259.099, 0.4288070
1259.581, 0.5543980
1260.063, 0.5631220
1260.546, 0.4291250
1261.028, 0.2411830
1261.510, 0.1298140
1261.992, 0.2073580
1262.474, 0.3312580
1262.956, 0.5210220
1263.438, 0.6534670
1263.920, 0.6096120
1264.402, 0.4983520
1264.885, 0.4360980
1265.367, 0.4190680
1265.849, 0.4336550
1266.331, 0.4699460
1266.813, 0.6258200
1267.295, 0.9723380
1267.777, 1.057682
1268.259, 0.7779810
1268.741, 0.5069380
1269.224, 0.4050250
1269.706, 0.3625420
1270.188, 0.2824940
1270.670, 0.1771500
1271.152, 9.9330004E-03
1271.634, 0.1337290
1272.116, 6.7710001E-03
1272.598, 0.2905770
1273.081, 0.5827290
1273.563, 0.7962820
1274.045, 0.7794020
1274.527, 0.5169250
1275.009, 0.3151090
1275.491, 0.3510380
1275.973, 0.4244710
1276.455, 0.4399930
1276.938, 0.4644740
1277.420, 0.5634950
1277.902, 0.6617300
1278.384, 0.6845410
1278.866, 0.6491450
1279.348, 0.5269150
1279.830, 0.5083690
1280.312, 0.5011040
1280.794, 0.5140000
1281.276, 0.4819560
1281.759, 0.3724630
1282.241, 0.4364760
1282.723, 0.7686220
1283.205, 0.9328790
1283.687, 0.6300250
1284.169, 0.1865870
1284.651, 6.0359999E-03
1285.133, 1.8729999E-03
1285.616, 1.0549000E-02
1286.098, 0.0000000E+00
##END=



