##NAMES=Cleusonite
##RRUFFID=R061019
##IDEAL CHEMISTRY=Pb^2+^(U^4+^,U^6+^)Fe^2+^_2_(Ti^4+^,Fe^2+^,Fe^3+^)_18_(O,OH)_38_
##LOCALITY=Bella Tola, Alpe Roua, St-Luc, Val d'Annivers, Wallis
##OWNER=RRUFF
##SOURCE=Michael Scott
##DESCRIPTION=Metamict black semimetallic prismatic, associated with quartz
##STATUS=The identification of this mineral is not yet confirmed.
##URL=rruff.info/R061019
142.7361, 0.0000000E+00
143.2183, 23.28247
143.7004, 36.41406
144.1825, 26.87036
144.6646, 13.18628
145.1467, 15.30151
145.6288, 43.20142
146.1110, 70.80005
146.5931, 94.42822
147.0752, 115.3516
147.5573, 122.7720
148.0394, 110.5225
148.5215, 86.90234
149.0037, 63.98633
149.4858, 32.51904
149.9679, 8.721191
150.4500, 2.174561
150.9321, 7.559082
151.4142, 15.35229
151.8964, 21.77563
152.3785, 26.40552
152.8606, 28.17993
153.3427, 26.43066
153.8248, 22.77368
154.3069, 17.45605
154.7890, 0.3232420
155.2712, 5.385010
155.7533, 16.51538
156.2354, 57.19019
156.7175, 84.78955
157.1996, 80.14819
157.6817, 68.41553
158.1639, 65.03882
158.6460, 83.38403
159.1281, 100.2280
159.6102, 107.8020
160.0923, 106.8472
160.5744, 106.6711
161.0566, 110.5903
161.5387, 116.3569
162.0208, 121.9683
162.5029, 123.6460
162.9850, 127.4619
163.4671, 141.2546
163.9493, 165.3999
164.4314, 178.0867
164.9135, 154.8142
165.3956, 120.0356
165.8777, 95.97778
166.3598, 109.3242
166.8420, 131.3206
167.3241, 145.6802
167.8062, 151.7615
168.2883, 146.9814
168.7704, 117.7625
169.2525, 76.98462
169.7346, 48.47046
170.2168, 53.04834
170.6989, 70.92969
171.1810, 85.87939
171.6631, 97.71753
172.1452, 102.4202
172.6273, 95.32275
173.1095, 79.65430
173.5916, 64.55396
174.0737, 54.18506
174.5558, 47.76880
175.0379, 45.37598
175.5201, 49.10449
176.0022, 52.50659
176.4843, 43.39844
176.9664, 25.08594
177.4485, 14.09424
177.9306, 28.29980
178.4128, 57.25684
178.8949, 83.33154
179.3770, 102.2429
179.8591, 111.8025
180.3412, 104.3618
180.8233, 80.94604
181.3055, 57.64429
181.7876, 45.91504
182.2697, 44.39771
182.7518, 51.91650
183.2339, 74.71484
183.7160, 96.18408
184.1982, 90.38135
184.6803, 57.11743
185.1624, 24.89307
185.6445, 30.99072
186.1266, 66.78662
186.6087, 85.16431
187.0908, 55.23218
187.5730, 2.240479
188.0551, 16.70020
188.5372, 16.56934
189.0193, 61.37500
189.5014, 75.81738
189.9835, 62.09937
190.4657, 47.03467
190.9478, 39.33179
191.4299, 38.51367
191.9120, 44.82764
192.3941, 59.97363
192.8762, 75.04395
193.3584, 75.97290
193.8405, 63.03516
194.3226, 49.22754
194.8047, 42.96655
195.2868, 43.61572
195.7689, 38.04126
196.2511, 24.05664
196.7332, 7.676514
197.2153, 0.2272950
197.6974, 2.359375
198.1795, 5.763672
198.6616, 6.697998
199.1438, 5.114502
199.6259, 3.019775
200.1080, 0.9868160
200.5901, 4.025146
201.0722, 3.621582
201.5543, 24.04370
202.0364, 41.33618
202.5186, 48.24341
203.0007, 43.84912
203.4828, 35.99854
203.9649, 22.06152
204.4470, 6.893311
204.9291, 6.697754
205.4113, 25.58765
205.8934, 45.44312
206.3755, 53.90039
206.8576, 48.28589
207.3397, 45.50928
207.8218, 47.38794
208.3040, 53.16187
208.7861, 62.20874
209.2682, 78.21460
209.7503, 88.77441
210.2324, 81.16870
210.7145, 47.65283
211.1967, 29.10938
211.6788, 36.68677
212.1609, 63.87354
212.6430, 73.08569
213.1251, 58.52026
213.6072, 36.83960
214.0894, 18.16919
214.5715, 0.4821780
215.0536, 7.547119
215.5357, 2.190186
216.0178, 14.84155
216.4999, 29.61182
216.9820, 43.06519
217.4642, 52.27930
217.9463, 52.81299
218.4284, 38.51978
218.9105, 31.63892
219.3926, 39.07520
219.8747, 59.76953
220.3569, 72.02026
220.8390, 76.28931
221.3211, 71.50073
221.8032, 53.44116
222.2853, 11.30273
222.7674, 18.44849
223.2496, 25.79956
223.7317, 10.57788
224.2138, 2.358643
224.6959, 14.85156
225.1780, 23.37183
225.6601, 23.14233
226.1423, 7.343750
226.6244, 3.013184
227.1065, 2.438477
227.5886, 9.777100
228.0707, 21.22070
228.5528, 33.20483
229.0350, 44.12402
229.5171, 50.86475
229.9992, 50.53735
230.4813, 46.59497
230.9634, 40.01172
231.4455, 30.22607
231.9276, 21.84253
232.4098, 11.06958
232.8919, 4.967773
233.3740, 15.04346
233.8561, 58.60254
234.3382, 86.42114
234.8203, 80.44067
235.3025, 32.84814
235.7846, 9.509521
236.2667, 23.51294
236.7488, 51.75171
237.2309, 64.85376
237.7130, 55.52002
238.1952, 44.60400
238.6773, 36.33643
239.1594, 31.78149
239.6415, 26.34058
240.1236, 18.40820
240.6057, 10.75708
241.0879, 7.272461
241.5700, 10.31812
242.0521, 13.62476
242.5342, 15.82544
243.0163, 16.95898
243.4984, 16.08032
243.9806, 10.08521
244.4627, 4.161377
244.9448, 6.387207
245.4269, 23.21509
245.9090, 35.80811
246.3911, 39.85571
246.8732, 31.95679
247.3554, 27.04565
247.8375, 23.63525
248.3196, 24.15723
248.8017, 34.52808
249.2838, 66.90723
249.7659, 86.83032
250.2481, 81.01318
250.7302, 42.95996
251.2123, 17.34863
251.6944, 7.387939
252.1765, 7.617676
252.6586, 11.37329
253.1408, 21.96924
253.6229, 30.46680
254.1050, 34.89600
254.5871, 35.12891
255.0692, 31.89795
255.5513, 22.29004
256.0334, 11.96338
256.5156, 10.15356
256.9977, 23.56372
257.4798, 31.42505
257.9619, 23.37866
258.4440, 5.538086
258.9261, 13.10352
259.4083, 9.416992
259.8904, 44.02271
260.3725, 64.86255
260.8546, 66.14062
261.3367, 67.12769
261.8188, 74.97607
262.3010, 91.18140
262.7831, 96.63062
263.2652, 85.48853
263.7473, 70.14502
264.2294, 69.44556
264.7115, 91.67725
265.1937, 106.0825
265.6758, 99.95459
266.1579, 71.55469
266.6400, 56.46362
267.1221, 59.24731
267.6042, 69.38721
268.0864, 73.65063
268.5685, 70.55981
269.0506, 66.63989
269.5327, 63.23462
270.0148, 60.36865
270.4969, 59.27490
270.9791, 59.14697
271.4612, 62.31079
271.9433, 75.16504
272.4254, 102.2078
272.9075, 117.7200
273.3896, 111.9404
273.8718, 86.13818
274.3539, 64.97192
274.8360, 47.60962
275.3181, 36.19214
275.8002, 33.97876
276.2823, 41.85425
276.7645, 53.47998
277.2466, 70.39453
277.7287, 90.98022
278.2108, 98.65723
278.6929, 91.55029
279.1750, 77.13184
279.6572, 58.65503
280.1393, 34.80298
280.6214, 23.55664
281.1035, 37.44971
281.5856, 70.78247
282.0677, 83.26587
282.5499, 70.99170
283.0320, 51.33154
283.5141, 41.56714
283.9962, 41.69531
284.4783, 39.53247
284.9604, 32.82202
285.4425, 22.68213
285.9247, 7.470947
286.4068, 14.34180
286.8889, 28.38770
287.3710, 15.78784
287.8531, 20.64062
288.3352, 51.02734
288.8174, 68.65527
289.2995, 76.05249
289.7816, 77.92261
290.2637, 74.05127
290.7458, 68.43384
291.2279, 67.07935
291.7101, 67.90991
292.1922, 60.16846
292.6743, 37.92480
293.1564, 10.46069
293.6385, 3.856201
294.1206, 5.187744
294.6028, 2.520752
295.0849, 5.432861
295.5670, 9.868164
296.0491, 0.5749510
296.5312, 32.02710
297.0133, 67.93872
297.4955, 71.82666
297.9776, 47.65552
298.4597, 23.23926
298.9418, 19.40845
299.4239, 28.58301
299.9060, 34.93384
300.3882, 34.94849
300.8703, 33.44849
301.3524, 37.21338
301.8345, 44.70947
302.3166, 50.23169
302.7987, 46.39429
303.2809, 40.13062
303.7630, 43.74854
304.2451, 62.27832
304.7272, 78.61450
305.2093, 68.71875
305.6914, 41.82666
306.1736, 23.63696
306.6557, 30.74951
307.1378, 51.53345
307.6199, 80.30322
308.1020, 121.1575
308.5841, 145.4192
309.0663, 114.9314
309.5484, 52.99121
310.0305, 5.039795
310.5126, 4.629883
310.9947, 4.666016
311.4768, 23.12915
311.9590, 51.07031
312.4411, 75.16406
312.9232, 89.02100
313.4053, 93.82642
313.8874, 90.61108
314.3695, 71.06250
314.8517, 51.06348
315.3337, 40.09155
315.8159, 38.71362
316.2980, 37.18262
316.7801, 33.28662
317.2622, 28.63135
317.7443, 22.12012
318.2264, 8.734375
318.7086, 1.704834
319.1907, 5.035156
319.6728, 1.442139
320.1549, 4.408203
320.6370, 15.72485
321.1191, 26.30615
321.6013, 31.45215
322.0834, 22.37158
322.5655, 15.90430
323.0476, 17.93115
323.5297, 26.68286
324.0118, 31.18018
324.4940, 18.28076
324.9761, 8.308594
325.4582, 12.36230
325.9403, 61.32275
326.4224, 88.70410
326.9045, 75.16992
327.3867, 33.59497
327.8688, 9.956055
328.3509, 18.83301
328.8330, 34.45679
329.3151, 47.46753
329.7972, 59.36182
330.2794, 66.00317
330.7615, 65.15918
331.2436, 59.65967
331.7257, 55.57739
332.2078, 54.47510
332.6899, 52.73315
333.1721, 48.85132
333.6542, 41.97461
334.1363, 36.21826
334.6184, 31.70850
335.1005, 28.26758
335.5826, 25.47266
336.0648, 23.07129
336.5469, 21.90210
337.0290, 21.92651
337.5111, 23.05127
337.9932, 26.96851
338.4753, 34.27368
338.9575, 43.12915
339.4396, 52.94800
339.9217, 64.95898
340.4038, 71.03638
340.8859, 67.41040
341.3680, 55.97095
341.8502, 48.34082
342.3323, 45.25757
342.8144, 43.69775
343.2965, 40.04028
343.7786, 34.40747
344.2607, 33.07666
344.7429, 40.02002
345.2250, 51.84985
345.7071, 55.22778
346.1892, 48.95435
346.6713, 41.07471
347.1534, 37.28101
347.6355, 36.66895
348.1176, 34.00732
348.5998, 26.38672
349.0819, 20.97583
349.5640, 34.32690
350.0461, 62.96680
350.5282, 84.51343
351.0103, 79.16821
351.4925, 59.22852
351.9746, 47.77100
352.4567, 47.96069
352.9388, 52.48511
353.4209, 58.49316
353.9030, 64.35034
354.3852, 63.89941
354.8673, 46.84277
355.3494, 26.40918
355.8315, 17.28149
356.3136, 20.41016
356.7957, 25.32178
357.2779, 24.05566
357.7600, 20.31201
358.2421, 19.13330
358.7242, 19.78467
359.2063, 25.67090
359.6884, 47.44922
360.1706, 81.84521
360.6527, 99.52490
361.1348, 67.16309
361.6169, 22.31567
362.0990, 3.517578
362.5811, 11.08765
363.0633, 28.44336
363.5454, 40.10400
364.0275, 45.95166
364.5096, 45.68237
364.9917, 26.95337
365.4738, 11.17261
365.9560, 10.42480
366.4381, 37.80615
366.9202, 58.70361
367.4023, 67.46362
367.8844, 67.82861
368.3665, 66.66235
368.8487, 70.39868
369.3308, 67.17334
369.8129, 49.89941
370.2950, 11.05957
370.7771, 10.12817
371.2592, 3.144287
371.7414, 14.64136
372.2235, 23.28540
372.7056, 16.49756
373.1877, 11.86523
373.6698, 13.77563
374.1519, 21.82593
374.6341, 26.95923
375.1162, 27.17578
375.5983, 27.64062
376.0804, 33.38330
376.5625, 45.70532
377.0446, 56.55786
377.5267, 65.63135
378.0089, 72.22241
378.4910, 73.62061
378.9731, 69.49976
379.4552, 62.72949
379.9373, 54.63794
380.4194, 45.34351
380.9016, 34.69897
381.3837, 20.47876
381.8658, 9.845459
382.3479, 18.47437
382.8300, 43.97168
383.3121, 65.83130
383.7943, 70.38037
384.2764, 64.19971
384.7585, 65.60181
385.2406, 75.61450
385.7227, 80.82324
386.2048, 58.16382
386.6870, 20.31299
387.1691, 4.875000
387.6512, 1.078613
388.1333, 15.76929
388.6154, 33.26855
389.0975, 50.55371
389.5797, 61.88599
390.0618, 56.48828
390.5439, 45.97046
391.0260, 43.55542
391.5081, 57.77344
391.9902, 72.05688
392.4724, 76.15503
392.9545, 73.85815
393.4366, 73.17065
393.9187, 81.07983
394.4008, 87.83984
394.8829, 88.21680
395.3651, 80.72510
395.8472, 69.58228
396.3293, 46.92114
396.8114, 23.72510
397.2935, 14.49976
397.7756, 41.25269
398.2578, 62.62036
398.7399, 63.90234
399.2220, 41.51074
399.7041, 31.33960
400.1862, 44.82153
400.6683, 62.49609
401.1505, 69.49268
401.6326, 57.17578
402.1147, 48.93823
402.5968, 48.69580
403.0789, 54.31177
403.5610, 56.77612
404.0432, 55.82324
404.5253, 52.33911
405.0074, 45.70410
405.4895, 35.00684
405.9716, 29.33301
406.4537, 29.00610
406.9359, 30.73071
407.4180, 30.19336
407.9001, 27.36157
408.3822, 24.76123
408.8643, 22.24121
409.3464, 20.50757
409.8285, 25.52319
410.3106, 38.37793
410.7928, 50.31982
411.2749, 47.84204
411.7570, 35.22778
412.2391, 26.97803
412.7212, 25.53638
413.2033, 32.81250
413.6855, 57.15625
414.1676, 93.36841
414.6497, 120.7119
415.1318, 119.4968
415.6139, 102.2766
416.0960, 83.44287
416.5782, 63.48340
417.0603, 47.71851
417.5424, 42.47729
418.0245, 44.21509
418.5066, 46.23560
418.9887, 48.09253
419.4709, 47.46777
419.9530, 40.91846
420.4351, 27.97852
420.9172, 18.97876
421.3993, 21.12646
421.8814, 27.37085
422.3636, 31.43555
422.8457, 27.55200
423.3278, 26.56201
423.8099, 34.12891
424.2920, 47.94751
424.7741, 54.12842
425.2563, 44.07739
425.7384, 33.56836
426.2205, 29.82349
426.7026, 36.62646
427.1847, 40.29980
427.6668, 40.18311
428.1490, 37.67627
428.6311, 34.72925
429.1132, 31.27783
429.5953, 28.13599
430.0774, 24.99780
430.5595, 22.01587
431.0417, 22.64233
431.5238, 27.79199
432.0059, 34.00562
432.4880, 36.96094
432.9701, 36.81079
433.4522, 41.45972
433.9344, 55.44629
434.4165, 71.32178
434.8986, 72.66260
435.3807, 60.34229
435.8628, 45.10327
436.3449, 32.00244
436.8271, 21.07178
437.3092, 10.23755
437.7913, 1.349365
438.2734, 3.269531
438.7555, 25.98901
439.2376, 70.76929
439.7197, 102.2385
440.2018, 105.1516
440.6840, 92.39038
441.1661, 64.50659
441.6482, 24.43896
442.1303, 3.512451
442.6124, 0.7934570
443.0945, 17.69922
443.5767, 31.95630
444.0588, 39.84937
444.5409, 45.85498
445.0230, 50.40283
445.5051, 54.01001
445.9872, 56.33032
446.4694, 56.00146
446.9515, 55.19653
447.4336, 55.94434
447.9157, 61.13013
448.3978, 58.33813
448.8799, 42.60400
449.3621, 23.29761
449.8442, 7.294922
450.3263, 8.240234
450.8084, 12.81226
451.2905, 1.831543
451.7726, 20.88672
452.2548, 42.40137
452.7369, 65.51123
453.2190, 77.52539
453.7011, 63.25854
454.1832, 23.62988
454.6653, 4.135010
455.1475, 10.52612
455.6296, 26.64087
456.1117, 28.27808
456.5938, 18.24854
457.0759, 13.99487
457.5580, 30.43237
458.0402, 53.16260
458.5223, 52.79810
459.0044, 31.05981
459.4865, 11.60205
459.9686, 16.81543
460.4507, 33.07935
460.9329, 42.78149
461.4150, 41.18677
461.8971, 33.46240
462.3792, 16.01465
462.8613, 4.945801
463.3434, 17.01953
463.8256, 12.40479
464.3077, 7.9346001E-02
464.7898, 21.02637
465.2719, 52.74438
465.7540, 71.78809
466.2361, 66.87671
466.7183, 51.00488
467.2004, 34.85107
467.6825, 7.226318
468.1646, 5.025879
468.6467, 11.32812
469.1288, 45.44751
469.6110, 53.78564
470.0930, 19.39209
470.5752, 11.22754
471.0573, 15.63550
471.5394, 11.31958
472.0215, 31.87817
472.5036, 46.57153
472.9857, 53.68604
473.4679, 46.57764
473.9500, 25.15967
474.4321, 11.12231
474.9142, 12.45557
475.3963, 23.33887
475.8784, 31.84912
476.3606, 37.93262
476.8427, 39.56934
477.3248, 31.52466
477.8069, 19.10620
478.2890, 11.91895
478.7711, 11.76147
479.2533, 14.51270
479.7354, 18.64819
480.2175, 22.95581
480.6996, 25.27441
481.1817, 24.14209
481.6638, 21.12402
482.1460, 15.41382
482.6281, 7.530273
483.1102, 2.338379
483.5923, 1.872803
484.0744, 0.8056640
484.5565, 9.431885
485.0387, 43.07129
485.5208, 63.32690
486.0029, 59.77002
486.4850, 42.65576
486.9671, 27.78564
487.4492, 11.72095
487.9314, 3.787109
488.4135, 9.947998
488.8956, 30.04614
489.3777, 38.99023
489.8598, 33.63232
490.3419, 24.75366
490.8241, 21.03638
491.3062, 22.89746
491.7883, 22.80005
492.2704, 19.46240
492.7525, 14.80713
493.2346, 13.63159
493.7168, 15.15796
494.1989, 12.66431
494.6810, 4.432373
495.1631, 25.47070
495.6452, 29.97144
496.1273, 18.07764
496.6095, 0.7038570
497.0916, 18.88477
497.5737, 36.45557
498.0558, 46.62280
498.5379, 46.20532
499.0201, 41.21704
499.5022, 33.52563
499.9843, 23.58496
500.4664, 13.10620
500.9485, 3.245605
501.4306, 14.91846
501.9127, 14.59277
502.3948, 0.3054200
502.8770, 8.311768
503.3591, 4.156982
503.8412, 15.89551
504.3233, 10.35547
504.8054, 31.78979
505.2875, 52.74414
505.7697, 40.53418
506.2518, 9.127686
506.7339, 5.945313
507.2160, 1.706543
507.6981, 7.119873
508.1802, 15.78125
508.6624, 24.15015
509.1445, 27.24658
509.6266, 23.74170
510.1087, 21.78589
510.5908, 31.37793
511.0729, 49.32935
511.5551, 66.84009
512.0372, 85.12500
512.5193, 95.90601
513.0014, 81.52661
513.4835, 50.91504
513.9656, 27.97510
514.4478, 30.32764
514.9299, 40.82129
515.4120, 46.50317
515.8941, 46.51782
516.3762, 49.93506
516.8583, 67.35229
517.3405, 85.58081
517.8226, 94.49341
518.3047, 90.89893
518.7868, 79.68335
519.2689, 43.83960
519.7510, 2.590820
520.2332, 0.2609860
520.7153, 68.11377
521.1974, 120.8513
521.6795, 129.3237
522.1616, 94.23096
522.6437, 69.09229
523.1259, 54.97070
523.6080, 47.96045
524.0901, 47.88843
524.5722, 54.53271
525.0543, 53.82373
525.5364, 40.73389
526.0186, 27.43774
526.5007, 44.91113
526.9828, 83.61133
527.4649, 104.6213
527.9470, 68.08618
528.4291, 14.86865
528.9113, 8.8623002E-02
529.3934, 22.05542
529.8755, 45.08105
530.3576, 49.21802
530.8397, 44.12305
531.3218, 37.49561
531.8040, 29.12012
532.2861, 23.54053
532.7682, 25.94849
533.2503, 31.30225
533.7324, 32.16406
534.2145, 16.38916
534.6967, 8.883057
535.1788, 0.2604980
535.6609, 31.17969
536.1430, 50.00024
536.6251, 57.37158
537.1072, 18.99976
537.5894, 39.70166
538.0715, 36.73193
538.5536, 32.79443
539.0357, 61.81714
539.5178, 30.10986
539.9999, 53.81226
540.4821, 68.57666
540.9642, 77.43164
541.4463, 71.33862
541.9284, 59.46289
542.4105, 55.49805
542.8926, 58.53979
543.3748, 65.65308
543.8569, 80.49438
544.3390, 95.27930
544.8211, 101.1116
545.3032, 96.15991
545.7853, 91.36401
546.2675, 92.80151
546.7495, 96.96216
547.2316, 100.4465
547.7137, 100.1902
548.1959, 101.9512
548.6780, 109.6062
549.1601, 120.1675
549.6422, 124.8901
550.1243, 121.5469
550.6064, 115.5088
551.0886, 106.9338
551.5707, 95.58813
552.0528, 91.54492
552.5349, 96.73218
553.0170, 101.5127
553.4991, 98.46729
553.9813, 89.06787
554.4634, 80.70044
554.9455, 72.15503
555.4276, 67.58643
555.9097, 77.57593
556.3918, 97.74976
556.8740, 113.9895
557.3561, 116.6909
557.8382, 114.6919
558.3203, 117.2156
558.8024, 123.1252
559.2845, 126.3384
559.7667, 123.1921
560.2488, 118.8503
560.7309, 115.6477
561.2130, 114.2524
561.6951, 110.9128
562.1772, 102.3726
562.6594, 94.47534
563.1415, 93.03125
563.6236, 104.2700
564.1057, 112.0029
564.5878, 113.9158
565.0699, 111.0583
565.5521, 102.3018
566.0342, 84.05859
566.5163, 72.17188
566.9984, 79.66113
567.4805, 102.7649
567.9626, 107.1067
568.4448, 91.33740
568.9269, 71.14526
569.4090, 57.67554
569.8911, 51.00049
570.3732, 52.59106
570.8553, 66.09863
571.3375, 79.27734
571.8196, 78.26880
572.3017, 69.32886
572.7838, 64.10767
573.2659, 70.67236
573.7480, 78.65259
574.2302, 82.57935
574.7123, 82.87256
575.1944, 86.30054
575.6765, 101.8083
576.1586, 113.9917
576.6407, 114.7908
577.1229, 98.67969
577.6050, 89.55591
578.0871, 91.48779
578.5692, 95.28809
579.0513, 88.15039
579.5334, 68.17285
580.0156, 54.69507
580.4977, 51.50439
580.9798, 56.66382
581.4619, 69.65308
581.9440, 89.08008
582.4261, 105.5911
582.9083, 114.7207
583.3904, 117.4456
583.8725, 113.2654
584.3546, 102.5322
584.8367, 91.71777
585.3188, 79.77515
585.8010, 72.25781
586.2831, 76.45996
586.7652, 103.6023
587.2473, 119.2844
587.7294, 106.0173
588.2115, 79.34790
588.6937, 59.75366
589.1758, 45.39966
589.6579, 42.65625
590.1400, 58.22070
590.6221, 85.95874
591.1042, 99.67651
591.5864, 96.05957
592.0685, 89.93042
592.5506, 88.45996
593.0327, 91.01074
593.5148, 93.18433
593.9969, 95.27856
594.4791, 93.75220
594.9612, 81.73730
595.4433, 64.35815
595.9254, 51.72510
596.4075, 45.74414
596.8896, 45.21899
597.3718, 49.79297
597.8539, 59.08569
598.3360, 72.50830
598.8181, 100.9656
599.3002, 122.3647
599.7823, 124.6816
600.2645, 110.8523
600.7466, 101.4958
601.2287, 101.8110
601.7108, 102.7974
602.1929, 100.4131
602.6750, 93.61987
603.1572, 92.50488
603.6393, 99.40088
604.1214, 106.6997
604.6035, 106.2527
605.0856, 98.44409
605.5677, 94.23804
606.0499, 95.05908
606.5320, 99.59766
607.0141, 110.3992
607.4962, 124.2224
607.9783, 131.8079
608.4604, 121.6531
608.9425, 109.7224
609.4246, 113.2771
609.9067, 128.1216
610.3889, 136.4041
610.8710, 121.5923
611.3531, 104.7319
611.8352, 96.40161
612.3173, 98.49512
612.7994, 103.8298
613.2816, 118.8438
613.7637, 131.5603
614.2458, 132.1038
614.7279, 115.7109
615.2100, 99.97192
615.6921, 84.59009
616.1743, 74.46729
616.6564, 79.08765
617.1385, 96.73828
617.6206, 112.4600
618.1027, 121.5449
618.5848, 124.5308
619.0670, 123.8584
619.5491, 120.6917
620.0312, 118.4194
620.5133, 122.3005
620.9954, 125.7126
621.4775, 119.2173
621.9597, 101.8718
622.4418, 96.34644
622.9239, 126.0217
623.4060, 157.2458
623.8881, 166.2358
624.3702, 130.5439
624.8524, 113.0444
625.3345, 123.5837
625.8166, 144.4656
626.2987, 151.6721
626.7808, 142.5605
627.2629, 133.1792
627.7451, 126.3909
628.2272, 121.6865
628.7093, 119.1519
629.1914, 118.4080
629.6735, 115.4475
630.1556, 105.1167
630.6378, 93.03320
631.1199, 87.33716
631.6020, 87.70801
632.0841, 89.32690
632.5662, 90.71924
633.0483, 91.36816
633.5305, 90.73950
634.0126, 88.48486
634.4947, 86.04297
634.9768, 79.94458
635.4589, 75.95239
635.9410, 80.38647
636.4232, 101.5771
636.9053, 112.3430
637.3874, 105.5081
637.8695, 91.25073
638.3516, 94.49829
638.8337, 116.6702
639.3159, 126.4612
639.7980, 104.7634
640.2801, 69.38232
640.7622, 62.49878
641.2443, 80.19165
641.7264, 97.64600
642.2086, 101.1782
642.6907, 95.91479
643.1728, 85.20996
643.6549, 69.18164
644.1370, 52.43848
644.6191, 31.70630
645.1013, 14.13940
645.5834, 5.077393
646.0655, 8.165527
646.5476, 15.31909
647.0297, 31.73364
647.5118, 48.02197
647.9940, 48.87378
648.4761, 28.64966
648.9582, 20.13550
649.4403, 33.78003
649.9224, 56.83911
650.4045, 61.80591
650.8867, 50.42480
651.3688, 36.30469
651.8509, 20.75781
652.3330, 9.265869
652.8151, 14.04541
653.2972, 32.02588
653.7794, 44.76953
654.2615, 37.21216
654.7436, 24.92896
655.2257, 18.11353
655.7078, 19.06348
656.1899, 19.07715
656.6721, 9.343262
657.1542, 4.112549
657.6363, 16.16577
658.1184, 56.97363
658.6005, 79.28760
659.0826, 76.97559
659.5648, 61.66870
660.0469, 49.20068
660.5290, 39.32373
661.0111, 28.13281
661.4932, 12.98291
661.9753, 1.187012
662.4575, 6.628906
662.9396, 4.986328
663.4217, 1.189941
663.9038, 5.773926
664.3859, 11.31030
664.8680, 11.55884
665.3502, 7.096680
665.8323, 3.174561
666.3144, 2.704102
666.7965, 1.475830
667.2786, 3.311768
667.7607, 13.19434
668.2429, 17.92822
668.7250, 16.33960
669.2071, 12.10107
669.6892, 7.285889
670.1713, 2.077148
670.6534, 0.5788570
671.1355, 4.086670
671.6176, 7.785645
672.0997, 1.078125
672.5818, 9.583496
673.0640, 8.913086
673.5461, 15.87598
674.0282, 39.96997
674.5103, 48.20581
674.9924, 43.69019
675.4745, 32.70435
675.9567, 3.912354
676.4388, 17.25415
676.9209, 20.21167
677.4030, 8.633545
677.8851, 0.4208980
678.3672, 2.505615
678.8494, 6.327393
679.3315, 16.73853
679.8136, 32.04102
680.2957, 32.25854
680.7778, 16.73315
681.2599, 3.364746
681.7421, 24.18945
682.2242, 41.73706
682.7063, 45.73975
683.1884, 33.60840
683.6705, 20.88818
684.1526, 19.01636
684.6348, 21.62817
685.1169, 22.16284
685.5990, 15.99487
686.0811, 12.75220
686.5632, 14.91577
687.0453, 20.49731
687.5275, 27.60962
688.0096, 37.74902
688.4917, 45.91650
688.9738, 51.83618
689.4559, 54.97754
689.9380, 53.27393
690.4202, 46.94458
690.9023, 39.40015
691.3844, 29.85693
691.8665, 21.54395
692.3486, 19.58887
692.8307, 23.23950
693.3129, 29.11523
693.7950, 42.51025
694.2771, 51.68970
694.7592, 42.69336
695.2413, 11.97144
695.7234, 1.352539
696.2056, 38.14673
696.6877, 77.88281
697.1698, 97.46265
697.6519, 92.47339
698.1340, 84.73071
698.6161, 72.81885
699.0983, 62.08203
699.5804, 60.27222
700.0625, 65.43213
700.5446, 65.61035
701.0267, 57.18848
701.5089, 49.75586
701.9910, 59.98730
702.4731, 76.75879
702.9552, 81.08789
703.4373, 49.61230
703.9194, 24.44141
704.4016, 28.07861
704.8837, 48.87329
705.3658, 59.20337
705.8479, 52.26685
706.3300, 41.15112
706.8121, 24.20508
707.2943, 5.357666
707.7764, 5.375488
708.2585, 26.83350
708.7406, 46.30371
709.2227, 52.34644
709.7048, 47.76831
710.1870, 34.44141
710.6691, 13.70435
711.1512, 1.444580
711.6333, 16.96948
712.1154, 39.59912
712.5975, 50.28882
713.0797, 46.17456
713.5618, 41.81860
714.0439, 42.31201
714.5260, 43.39551
715.0081, 42.06470
715.4902, 37.73340
715.9724, 32.58179
716.4545, 24.38647
716.9366, 19.31543
717.4187, 27.02075
717.9008, 46.39160
718.3829, 61.44849
718.8651, 69.78613
719.3472, 73.16431
719.8293, 70.03320
720.3114, 63.83911
720.7935, 61.42798
721.2756, 66.58838
721.7578, 74.59644
722.2399, 87.19141
722.7220, 100.3589
723.2041, 105.0525
723.6862, 95.00464
724.1683, 82.33594
724.6505, 64.39819
725.1326, 45.81079
725.6147, 49.18140
726.0968, 79.53223
726.5789, 102.1462
727.0610, 96.96167
727.5432, 75.20337
728.0253, 63.00171
728.5074, 59.97607
728.9895, 64.50684
729.4716, 85.04224
729.9537, 106.9866
730.4359, 116.3074
730.9180, 111.8501
731.4001, 103.9336
731.8822, 94.82153
732.3643, 84.17505
732.8464, 70.28711
733.3285, 50.17798
733.8106, 45.94604
734.2927, 61.62256
734.7748, 79.48340
735.2570, 82.12622
735.7391, 71.93921
736.2212, 67.73975
736.7033, 72.12085
737.1854, 76.90845
737.6675, 74.55566
738.1497, 68.06787
738.6318, 60.66919
739.1139, 50.02930
739.5960, 44.15088
740.0781, 52.26685
740.5602, 65.29272
741.0424, 70.03149
741.5245, 58.00000
742.0066, 52.14355
742.4887, 56.93677
742.9708, 67.14380
743.4529, 72.23242
743.9351, 72.07544
744.4172, 73.14404
744.8993, 77.31055
745.3814, 83.72827
745.8635, 93.36353
746.3456, 104.3455
746.8278, 111.3252
747.3099, 106.0801
747.7920, 80.88037
748.2741, 107.1108
748.7562, 121.2480
749.2383, 123.9421
749.7205, 80.89722
750.2026, 96.93286
750.6847, 89.30078
751.1668, 80.70752
751.6489, 105.0786
752.1310, 68.72656
752.6132, 92.59912
753.0953, 92.45117
753.5774, 103.3147
754.0595, 90.36548
754.5416, 84.78198
755.0237, 103.0334
755.5059, 108.1018
755.9880, 65.62695
756.4701, 62.65723
756.9522, 74.16528
757.4343, 85.07837
757.9164, 96.33154
758.3986, 102.8704
758.8807, 100.8826
759.3628, 88.34155
759.8449, 76.74536
760.3270, 65.42407
760.8091, 58.03003
761.2913, 60.66089
761.7734, 70.29395
762.2555, 78.61353
762.7376, 85.43750
763.2197, 85.78271
763.7018, 66.30200
764.1840, 42.56250
764.6661, 32.46216
765.1482, 50.19629
765.6303, 64.00757
766.1124, 63.33496
766.5945, 59.29468
767.0767, 64.64062
767.5588, 83.14111
768.0409, 96.93994
768.5230, 104.0452
769.0051, 104.9844
769.4872, 96.06250
769.9694, 80.65991
770.4515, 73.84937
770.9336, 84.75049
771.4157, 97.47681
771.8978, 97.71777
772.3799, 89.91724
772.8621, 82.30469
773.3442, 70.19946
773.8263, 67.35498
774.3084, 87.41455
774.7905, 116.3384
775.2726, 118.6199
775.7548, 84.33081
776.2369, 59.89087
776.7190, 60.25562
777.2011, 76.35645
777.6832, 89.90503
778.1653, 100.7927
778.6475, 108.0596
779.1296, 109.1782
779.6117, 108.0884
780.0938, 109.6750
780.5759, 112.1799
781.0580, 109.1978
781.5402, 84.06128
782.0223, 69.24243
782.5044, 79.06177
782.9865, 109.0896
783.4686, 130.9209
783.9507, 145.4465
784.4329, 147.8330
784.9150, 129.9351
785.3971, 99.79150
785.8792, 80.63623
786.3613, 72.35693
786.8434, 75.01074
787.3256, 102.1885
787.8077, 130.1833
788.2898, 137.4126
788.7719, 123.5981
789.2540, 111.8472
789.7361, 108.1216
790.2183, 107.3826
790.7004, 107.5854
791.1825, 108.6152
791.6646, 114.1218
792.1467, 125.4688
792.6288, 134.4783
793.1110, 134.2061
793.5930, 127.3899
794.0751, 119.6213
794.5573, 111.3767
795.0394, 106.9736
795.5215, 113.5596
796.0036, 122.5266
796.4857, 126.3945
796.9678, 122.9580
797.4500, 123.4226
797.9321, 133.8279
798.4142, 143.2361
798.8963, 146.8123
799.3784, 145.1248
799.8605, 126.7681
800.3427, 87.75806
800.8248, 56.85986
801.3069, 66.04785
801.7890, 99.95532
802.2711, 131.7434
802.7532, 159.2546
803.2354, 173.4321
803.7175, 157.4014
804.1996, 133.6748
804.6817, 121.5981
805.1638, 132.1716
805.6459, 131.4954
806.1281, 111.4878
806.6102, 90.95483
807.0923, 88.26465
807.5744, 103.0439
808.0565, 111.8438
808.5386, 113.0845
809.0208, 109.1648
809.5029, 95.03809
809.9850, 81.49426
810.4671, 86.55017
810.9492, 121.0471
811.4313, 140.6722
811.9135, 103.1915
812.3956, 58.04529
812.8777, 51.68030
813.3598, 111.2579
813.8419, 147.2173
814.3240, 154.6616
814.8062, 146.2847
815.2883, 129.8610
815.7704, 108.1071
816.2525, 96.64868
816.7346, 98.66663
817.2167, 104.6342
817.6989, 104.9717
818.1810, 104.4109
818.6631, 109.6735
819.1452, 127.4982
819.6273, 139.4771
820.1094, 134.9550
820.5916, 127.5527
821.0737, 130.5153
821.5558, 147.7924
822.0379, 153.3110
822.5200, 143.3770
823.0021, 129.5836
823.4843, 127.5793
823.9664, 132.3322
824.4485, 129.3348
824.9306, 112.9099
825.4127, 99.71497
825.8948, 106.7472
826.3770, 119.7745
826.8591, 123.8472
827.3412, 104.9374
827.8233, 96.57117
828.3054, 104.6388
828.7875, 116.0509
829.2697, 116.7538
829.7518, 107.1406
830.2339, 100.7113
830.7160, 99.37695
831.1981, 99.27039
831.6802, 91.84973
832.1624, 84.27271
832.6445, 90.14673
833.1266, 121.2932
833.6087, 142.8330
834.0908, 134.9242
834.5729, 115.6906
835.0551, 103.1152
835.5372, 99.99658
836.0193, 96.04382
836.5014, 90.69592
836.9835, 84.86243
837.4656, 77.55981
837.9478, 70.66382
838.4299, 72.36072
838.9120, 85.77515
839.3941, 97.89062
839.8762, 97.25391
840.3583, 90.45154
840.8405, 84.22632
841.3226, 79.69995
841.8047, 76.43811
842.2868, 75.35547
842.7689, 74.50000
843.2510, 72.97961
843.7332, 71.01587
844.2153, 61.03113
844.6974, 39.32715
845.1795, 23.90344
845.6616, 51.53381
846.1437, 93.26196
846.6259, 98.14868
847.1080, 47.13562
847.5901, 6.331909
848.0722, 13.53577
848.5543, 35.65747
849.0364, 44.64966
849.5186, 34.06848
850.0007, 31.59839
850.4828, 39.65808
850.9649, 47.41736
851.4470, 45.46814
851.9291, 36.76685
852.4113, 30.99548
852.8934, 29.37024
853.3755, 31.39111
853.8576, 39.21838
854.3397, 45.27173
854.8218, 42.53052
855.3040, 27.38232
855.7860, 19.28943
856.2681, 21.72217
856.7502, 28.21985
857.2324, 37.74036
857.7145, 50.45947
858.1966, 47.93884
858.6787, 28.66931
859.1608, 8.526245
859.6429, 0.6698000
860.1251, 1.822510
860.6072, 3.670288
861.0893, 15.89319
861.5714, 23.40454
862.0535, 16.99194
862.5356, 8.938110
863.0178, 5.421875
863.4999, 6.614746
863.9820, 11.86426
864.4641, 22.37048
864.9462, 31.77405
865.4283, 38.54187
865.9105, 39.73889
866.3926, 22.95056
866.8747, 9.198364
867.3568, 32.91443
867.8389, 27.19019
868.3210, 13.96509
868.8032, 3.536499
869.2853, 3.021240
869.7674, 1.518555
870.2495, 14.18958
870.7316, 25.22253
871.2137, 22.76123
871.6959, 9.135620
872.1780, 10.46179
872.6601, 34.17712
873.1422, 47.26538
873.6243, 31.93433
874.1064, 9.897949
874.5886, 1.235840
875.0707, 2.807495
875.5528, 3.210205
876.0349, 3.288696
876.5170, 3.897949
876.9991, 5.769165
877.4813, 8.202881
877.9634, 10.17126
878.4455, 11.72168
878.9276, 5.602661
879.4097, 16.94910
879.8918, 41.50684
880.3740, 47.19556
880.8561, 40.25525
881.3382, 35.31702
881.8203, 43.49426
882.3024, 48.00244
882.7845, 41.61182
883.2667, 29.38306
883.7488, 20.56970
884.2309, 15.93469
884.7130, 9.663696
885.1951, 1.541748
885.6772, 10.48755
886.1594, 2.115112
886.6415, 16.55542
887.1236, 29.43518
887.6057, 28.04175
888.0878, 26.21204
888.5699, 31.29871
889.0521, 39.03613
889.5342, 44.08215
890.0163, 46.42981
890.4984, 45.60754
890.9805, 41.09216
891.4626, 34.49268
891.9448, 25.80554
892.4269, 16.64746
892.9090, 11.79590
893.3911, 12.23303
893.8732, 16.04565
894.3553, 25.71826
894.8375, 35.44788
895.3196, 39.29993
895.8017, 32.84656
896.2838, 31.32397
896.7659, 38.09253
897.2480, 43.73267
897.7302, 38.93457
898.2123, 25.95239
898.6944, 18.24158
899.1765, 16.31189
899.6586, 14.90784
900.1407, 9.409180
900.6229, 3.354004
901.1050, 1.515381
901.5871, 5.224487
902.0692, 1.367676
902.5513, 18.68286
903.0334, 33.94189
903.5156, 33.68445
903.9977, 20.47424
904.4798, 11.54639
904.9619, 7.032227
905.4440, 7.001099
905.9261, 16.19617
906.4083, 24.70508
906.8904, 17.72937
907.3725, 0.3021240
907.8546, 7.284790
908.3367, 13.99011
908.8188, 29.77759
909.3010, 32.07959
909.7831, 23.68494
910.2652, 7.695557
910.7473, 15.79529
911.2294, 25.97461
911.7115, 10.91016
912.1937, 11.35583
912.6758, 19.14294
913.1579, 17.86243
913.6400, 17.22192
914.1221, 23.71057
914.6042, 26.35315
915.0864, 20.18274
915.5685, 11.82263
916.0506, 10.33521
916.5327, 16.53711
917.0148, 19.60315
917.4969, 17.82300
917.9790, 14.65002
918.4611, 12.62170
918.9432, 12.34827
919.4254, 14.85730
919.9075, 20.81860
920.3896, 27.63831
920.8717, 39.95679
921.3538, 48.01941
921.8359, 42.05066
922.3181, 18.24902
922.8002, 16.68665
923.2823, 40.31946
923.7644, 62.83411
924.2465, 58.14294
924.7286, 40.93250
925.2108, 31.32166
925.6929, 31.60413
926.1750, 34.18677
926.6571, 39.81104
927.1392, 41.61890
927.6213, 35.20959
928.1035, 21.74841
928.5856, 10.90100
929.0677, 4.101074
929.5498, 1.512939
930.0319, 2.776489
930.5140, 7.575684
930.9962, 18.59656
931.4783, 32.86072
931.9604, 41.91528
932.4425, 38.75513
932.9246, 34.49280
933.4067, 31.12207
933.8889, 29.26050
934.3710, 29.84827
934.8531, 32.98389
935.3352, 37.72107
935.8173, 44.24744
936.2994, 51.05481
936.7816, 57.88892
937.2637, 63.78735
937.7458, 66.92834
938.2279, 68.07532
938.7100, 63.20789
939.1921, 42.02979
939.6743, 21.22839
940.1564, 13.52063
940.6385, 21.61633
941.1206, 27.36682
941.6027, 30.51367
942.0848, 33.52551
942.5670, 39.92798
943.0491, 46.37646
943.5312, 47.42554
944.0133, 44.22095
944.4954, 42.73071
944.9775, 47.61523
945.4597, 51.36157
945.9418, 50.31738
946.4239, 45.48523
946.9060, 43.18457
947.3881, 42.72949
947.8702, 45.36707
948.3524, 56.25330
948.8345, 66.88013
949.3166, 64.40051
949.7987, 52.69336
950.2808, 40.65808
950.7629, 21.74219
951.2451, 15.47461
951.7272, 34.62561
952.2093, 62.49048
952.6914, 74.39893
953.1735, 69.81311
953.6556, 61.35083
954.1378, 50.28711
954.6199, 39.16064
955.1020, 28.44189
955.5841, 20.14087
956.0662, 17.05176
956.5483, 19.83020
957.0305, 28.67554
957.5126, 53.01074
957.9947, 72.34119
958.4768, 71.52783
958.9589, 51.43689
959.4410, 39.58862
959.9232, 36.42957
960.4053, 36.50647
960.8874, 39.12402
961.3695, 39.20801
961.8516, 27.29712
962.3337, 6.584839
962.8159, 3.174316
963.2980, 7.592773
963.7801, 21.62585
964.2622, 37.23132
964.7443, 51.56946
965.2264, 55.69910
965.7086, 50.93567
966.1907, 46.08313
966.6728, 42.15967
967.1549, 38.83423
967.6370, 32.48572
968.1191, 27.70667
968.6013, 30.76013
969.0834, 59.40320
969.5655, 68.27454
970.0476, 50.32910
970.5297, 26.56750
971.0118, 17.31262
971.4940, 20.46143
971.9761, 31.21863
972.4582, 49.20386
972.9403, 61.28711
973.4224, 51.42285
973.9045, 39.31934
974.3867, 42.31897
974.8688, 60.22827
975.3509, 59.98853
975.8330, 34.68054
976.3151, 15.02393
976.7972, 17.30664
977.2794, 31.03552
977.7615, 31.85986
978.2436, 24.72266
978.7257, 24.84717
979.2078, 52.78235
979.6899, 72.88501
980.1720, 64.92224
980.6541, 44.68188
981.1362, 35.45630
981.6183, 39.48413
982.1005, 40.13354
982.5826, 35.26562
983.0647, 27.99475
983.5468, 19.04993
984.0289, 11.27747
984.5110, 11.40820
984.9932, 22.17834
985.4753, 26.02515
985.9574, 5.436401
986.4395, 11.00134
986.9216, 7.193115
987.4037, 14.80469
987.8859, 24.25659
988.3680, 21.52307
988.8501, 20.77222
989.3322, 36.69678
989.8143, 52.77148
990.2964, 49.28394
990.7786, 32.98035
991.2607, 23.13257
991.7428, 32.04382
992.2249, 33.81519
992.7070, 21.22424
993.1891, 5.450928
993.6713, 8.376221
994.1534, 25.17346
994.6355, 33.47571
995.1176, 27.76428
995.5997, 19.32861
996.0818, 12.36255
996.5640, 9.214233
997.0461, 12.74670
997.5282, 24.79675
998.0103, 34.23840
998.4924, 41.66956
998.9745, 45.20325
999.4567, 40.70117
999.9388, 32.43591
1000.421, 31.96069
1000.903, 37.20984
1001.385, 39.70679
1001.867, 33.55652
1002.349, 25.89014
1002.831, 19.11902
1003.314, 12.71460
1003.796, 3.350098
1004.278, 10.18665
1004.760, 9.960083
1005.242, 10.84937
1005.724, 33.56372
1006.206, 38.63879
1006.688, 31.98669
1007.171, 18.95825
1007.653, 5.102539
1008.135, 13.79016
1008.617, 4.794312
1009.099, 25.14233
1009.581, 30.00476
1010.063, 22.54651
1010.545, 32.59973
1011.027, 57.14783
1011.510, 69.28577
1011.992, 31.96240
1012.474, 4.069824
1012.956, 0.8134770
1013.438, 31.24829
1013.920, 57.63623
1014.402, 80.22192
1014.884, 83.11926
1015.367, 57.88342
1015.849, 25.69373
1016.331, 19.86462
1016.813, 30.08069
1017.295, 33.76880
1017.777, 24.24951
1018.259, 18.34583
1018.741, 30.08081
1019.223, 40.81738
1019.706, 36.82764
1020.188, 17.91956
1020.670, 12.63733
1021.152, 22.25720
1021.634, 34.09131
1022.116, 42.56042
1022.598, 47.54871
1023.080, 48.38684
1023.563, 45.48767
1024.045, 39.92712
1024.527, 24.66333
1025.009, 18.86365
1025.491, 27.11975
1025.973, 41.98779
1026.455, 54.42834
1026.937, 64.25415
1027.419, 70.72717
1027.901, 73.79517
1028.384, 72.38062
1028.866, 59.37866
1029.348, 47.09143
1029.830, 46.02722
1030.312, 56.28137
1030.794, 63.00610
1031.276, 66.49011
1031.758, 64.66577
1032.241, 51.30981
1032.723, 37.68152
1033.205, 41.89893
1033.687, 57.01721
1034.169, 64.58350
1034.651, 45.84351
1035.133, 37.15491
1035.615, 47.36084
1036.098, 63.85852
1036.580, 71.22888
1037.062, 70.47827
1037.544, 66.90808
1038.026, 60.76721
1038.508, 57.76807
1038.990, 67.95374
1039.472, 78.17017
1039.954, 78.40942
1040.437, 68.20789
1040.919, 52.09326
1041.401, 26.10974
1041.883, 10.29419
1042.365, 14.82422
1042.847, 30.04846
1043.329, 44.04663
1043.811, 54.88855
1044.293, 57.63904
1044.776, 43.65784
1045.258, 36.65808
1045.740, 47.45483
1046.222, 58.77844
1046.704, 51.41028
1047.186, 26.87134
1047.668, 18.74976
1048.150, 27.90430
1048.633, 42.35962
1049.115, 62.43359
1049.597, 76.65112
1050.079, 72.80725
1050.561, 53.48853
1051.043, 40.06677
1051.525, 35.50012
1052.007, 28.59033
1052.490, 15.38000
1052.972, 1.238281
1053.454, 8.497681
1053.936, 12.26440
1054.418, 4.197998
1054.900, 22.64050
1055.382, 43.66235
1055.864, 48.62805
1056.346, 49.79224
1056.828, 56.12000
1057.311, 66.79419
1057.793, 57.71741
1058.275, 31.56030
1058.757, 13.57581
1059.239, 27.50452
1059.721, 45.75305
1060.203, 49.83057
1060.685, 43.80969
1061.168, 40.41882
1061.650, 40.22485
1062.132, 43.27771
1062.614, 51.65186
1063.096, 59.25281
1063.578, 55.86523
1064.060, 46.77405
1064.542, 40.59973
1065.025, 38.53503
1065.507, 35.09790
1065.989, 23.78784
1066.471, 18.41052
1066.953, 24.99500
1067.435, 39.24219
1067.917, 43.56189
1068.399, 40.11511
1068.881, 41.82996
1069.364, 62.34021
1069.846, 73.87109
1070.328, 43.44556
1070.810, 3.219604
1071.292, 7.887451
1071.774, 18.68335
1072.256, 44.01172
1072.738, 68.94226
1073.220, 83.84558
1073.703, 71.87219
1074.185, 50.98999
1074.667, 46.42126
1075.149, 54.33691
1075.631, 55.59509
1076.113, 35.43677
1076.595, 24.69226
1077.077, 30.87183
1077.559, 45.86853
1078.042, 61.39551
1078.524, 74.20251
1079.006, 71.04480
1079.488, 46.34277
1079.970, 25.59302
1080.452, 23.07410
1080.934, 28.61694
1081.416, 37.06970
1081.899, 47.80176
1082.381, 52.89124
1082.863, 52.23230
1083.345, 47.79102
1083.827, 37.68298
1084.309, 27.79785
1084.791, 23.08704
1085.273, 22.24463
1085.755, 23.52600
1086.238, 30.52844
1086.720, 28.92749
1087.202, 14.66248
1087.684, 3.706665
1088.166, 20.40698
1088.648, 46.53809
1089.130, 39.66309
1089.612, 4.296265
1090.094, 15.59851
1090.577, 14.96619
1091.059, 39.14941
1091.541, 39.27844
1092.023, 27.36353
1092.505, 29.04785
1092.987, 41.27991
1093.469, 47.34351
1093.951, 42.96143
1094.434, 36.73389
1094.916, 33.68396
1095.398, 31.56104
1095.880, 27.83228
1096.362, 22.52942
1096.844, 23.47888
1097.326, 31.23499
1097.808, 36.51672
1098.291, 33.25574
1098.773, 27.49170
1099.255, 23.21948
1099.737, 22.19055
1100.219, 28.07739
1100.701, 52.30225
1101.183, 62.92419
1101.665, 56.93323
1102.147, 45.01013
1102.630, 32.30737
1103.112, 22.32617
1103.594, 26.29553
1104.076, 41.79077
1104.558, 52.15186
1105.040, 46.31055
1105.522, 39.13708
1106.004, 33.95776
1106.486, 30.25354
1106.969, 26.41406
1107.451, 23.02588
1107.933, 24.65308
1108.415, 32.96704
1108.897, 38.96387
1109.379, 37.18640
1109.861, 30.12402
1110.343, 14.55505
1110.826, 6.718384
1111.308, 3.932861
1111.790, 24.36328
1112.272, 47.60889
1112.754, 54.76904
1113.236, 49.89343
1113.718, 26.16187
1114.200, 2.273560
1114.682, 14.91870
1115.165, 1.297119
1115.647, 7.346802
1116.129, 10.61804
1116.611, 9.921387
1117.093, 0.5566410
1117.575, 9.107178
1118.057, 1.603149
1118.539, 19.16614
1119.021, 38.68518
1119.504, 56.98413
1119.986, 66.25623
1120.468, 64.96826
1120.950, 56.32312
1121.432, 35.22729
1121.914, 9.036133
1122.396, 3.332886
1122.878, 20.61670
1123.361, 38.30701
1123.843, 47.64575
1124.325, 50.76184
1124.807, 47.75122
1125.289, 40.27185
1125.771, 30.96277
1126.253, 20.55981
1126.735, 19.36890
1127.218, 33.01721
1127.700, 46.18091
1128.182, 46.31299
1128.664, 41.11841
1129.146, 36.26294
1129.628, 33.42358
1130.110, 30.15210
1130.592, 26.55591
1131.074, 20.58057
1131.557, 5.369507
1132.039, 6.091919
1132.521, 8.768921
1133.003, 35.91089
1133.485, 50.43140
1133.967, 39.24426
1134.449, 36.01917
1134.931, 44.26917
1135.413, 50.29602
1135.896, 36.58289
1136.378, 15.84619
1136.860, 10.18909
1137.342, 17.83887
1137.824, 26.71130
1138.306, 39.02405
1138.788, 42.36218
1139.270, 29.85754
1139.752, 15.64917
1140.235, 26.49414
1140.717, 51.41321
1141.199, 57.12329
1141.681, 39.14209
1142.163, 24.79626
1142.645, 30.87134
1143.127, 38.81592
1143.609, 41.41394
1144.092, 40.36121
1144.574, 42.12634
1145.056, 45.31750
1145.538, 40.52332
1146.020, 22.97803
1146.502, 6.219238
1146.984, 7.018311
1147.466, 9.992065
1147.948, 6.072510
1148.431, 41.30591
1148.913, 49.55591
1149.395, 31.49683
1149.877, 13.61377
1150.359, 7.824707
1150.841, 8.464600
1151.323, 13.43079
1151.805, 20.75342
1152.287, 27.96960
1152.770, 36.02820
1153.252, 38.81958
1153.734, 35.85852
1154.216, 31.64905
1154.698, 27.21021
1155.180, 25.21899
1155.662, 32.16553
1156.144, 44.09546
1156.627, 47.23499
1157.109, 35.75977
1157.591, 29.66467
1158.073, 31.90381
1158.555, 36.60803
1159.037, 37.24341
1159.519, 36.47180
1160.001, 40.54492
1160.484, 48.81079
1160.966, 47.20654
1161.448, 25.19092
1161.930, 9.606567
1162.412, 7.520142
1162.894, 12.25647
1163.376, 12.62903
1163.858, 11.60742
1164.340, 16.93994
1164.823, 31.51746
1165.305, 39.84827
1165.787, 34.27869
1166.269, 27.34827
1166.751, 24.23584
1167.233, 23.83972
1167.715, 21.89880
1168.197, 18.13953
1168.679, 13.03589
1169.162, 7.324341
1169.644, 2.406250
1170.126, 5.094482
1170.608, 7.780151
1171.090, 1.367920
1171.572, 19.70459
1172.054, 31.24329
1172.536, 35.94165
1173.019, 38.67517
1173.501, 39.62305
1173.983, 39.17700
1174.465, 34.36365
1174.947, 30.55969
1175.429, 33.92676
1175.911, 44.96985
1176.393, 53.91992
1176.875, 59.82300
1177.358, 55.90820
1177.840, 19.25037
1178.322, 8.654541
1178.804, 8.345581
1179.286, 44.17334
1179.768, 52.27771
1180.250, 31.87146
1180.732, 26.91089
1181.214, 42.52405
1181.697, 58.31494
1182.179, 58.40454
1182.661, 52.90955
1183.143, 49.03918
1183.625, 45.66443
1184.107, 37.09033
1184.589, 22.81592
1185.071, 9.150269
1185.554, 3.794800
1186.036, 9.402588
1186.518, 6.787842
1187.000, 27.27490
1187.482, 34.17395
1187.964, 28.03430
1188.446, 29.17749
1188.928, 39.17078
1189.411, 42.02502
1189.893, 29.51892
1190.375, 15.91431
1190.857, 14.60437
1191.339, 20.87317
1191.821, 31.54504
1192.303, 47.53833
1192.785, 54.54382
1193.267, 51.58276
1193.750, 45.85950
1194.232, 40.35571
1194.714, 34.25146
1195.196, 23.93201
1195.678, 13.38074
1196.160, 9.040527
1196.642, 13.29382
1197.124, 20.18420
1197.606, 31.16638
1198.089, 37.56274
1198.571, 28.68652
1199.053, 15.47107
1199.535, 12.29358
1200.017, 15.63281
1200.499, 17.63843
1200.981, 16.07153
1201.463, 14.52832
1201.945, 11.95129
1202.428, 14.47534
1202.910, 36.37341
1203.392, 60.27478
1203.874, 58.11267
1204.356, 36.99548
1204.838, 26.34363
1205.320, 36.90063
1205.802, 44.74792
1206.285, 47.73242
1206.767, 45.09033
1207.249, 26.79492
1207.731, 5.877686
1208.213, 2.671387
1208.695, 15.86682
1209.177, 22.80457
1209.659, 15.75110
1210.141, 15.58582
1210.624, 27.82520
1211.106, 42.77173
1211.588, 48.67212
1212.070, 49.11389
1212.552, 49.85168
1213.034, 51.42468
1213.516, 46.97754
1213.998, 32.49255
1214.480, 21.91785
1214.963, 19.67078
1215.445, 21.00598
1215.927, 19.73108
1216.409, 16.92932
1216.891, 12.84326
1217.373, 6.756348
1217.855, 8.624878
1218.337, 20.33154
1218.820, 36.66895
1219.302, 58.71472
1219.784, 79.04297
1220.266, 85.39075
1220.748, 81.90137
1221.230, 73.46765
1221.712, 58.88806
1222.194, 49.55347
1222.677, 49.09607
1223.159, 43.98779
1223.641, 23.13989
1224.123, 1.224731
1224.605, 12.08826
1225.087, 11.77686
1225.569, 2.725220
1226.051, 22.54480
1226.533, 33.99268
1227.016, 26.93250
1227.498, 20.32288
1227.980, 27.60767
1228.462, 39.85364
1228.944, 43.78027
1229.426, 42.07739
1229.908, 40.62415
1230.390, 37.87585
1230.872, 42.88123
1231.355, 58.15918
1231.837, 71.17236
1232.319, 73.31409
1232.801, 67.45618
1233.283, 52.80371
1233.765, 34.15369
1234.247, 23.21338
1234.729, 28.50842
1235.212, 29.01599
1235.694, 22.78162
1236.176, 17.25940
1236.658, 19.48181
1237.140, 25.45020
1237.622, 31.14233
1238.104, 36.06091
1238.586, 40.53101
1239.068, 44.03015
1239.551, 42.83008
1240.033, 34.91150
1240.515, 31.99109
1240.997, 55.89209
1241.479, 81.82690
1241.961, 79.40759
1242.443, 55.39087
1242.925, 41.08911
1243.407, 38.80981
1243.890, 44.61292
1244.372, 59.68152
1244.854, 69.67151
1245.336, 52.37573
1245.818, 30.17932
1246.300, 25.21851
1246.782, 35.11353
1247.264, 40.47119
1247.747, 40.94177
1248.229, 37.30164
1248.711, 28.05444
1249.193, 24.86060
1249.675, 48.46912
1250.157, 74.43420
1250.639, 82.11304
1251.121, 73.87585
1251.604, 59.06104
1252.086, 37.02881
1252.568, 29.40918
1253.050, 42.80713
1253.532, 57.61169
1254.014, 61.16870
1254.496, 57.08875
1254.978, 41.82971
1255.460, 21.33105
1255.943, 22.60889
1256.425, 43.85522
1256.907, 52.12976
1257.389, 34.82507
1257.871, 21.02515
1258.353, 27.62708
1258.835, 37.52600
1259.317, 39.11255
1259.799, 35.59204
1260.281, 44.88428
1260.764, 63.53735
1261.246, 70.25061
1261.728, 57.21033
1262.210, 40.40674
1262.692, 24.84595
1263.174, 11.14392
1263.656, 2.585205
1264.138, 12.75269
1264.621, 1.137695
1265.103, 31.03430
1265.585, 46.97021
1266.067, 35.92114
1266.549, 24.33936
1267.031, 18.33704
1267.513, 18.05371
1267.995, 24.42859
1268.478, 36.11682
1268.960, 54.09912
1269.442, 73.85791
1269.924, 83.29150
1270.406, 76.84338
1270.888, 64.35254
1271.370, 41.88770
1271.852, 26.41907
1272.334, 30.88049
1272.817, 44.35291
1273.299, 43.15527
1273.781, 34.00183
1274.263, 30.33191
1274.745, 36.90002
1275.227, 47.80103
1275.709, 66.04993
1276.191, 78.10303
1276.673, 72.76660
1277.156, 54.86841
1277.638, 38.27942
1278.120, 22.23608
1278.602, 16.18823
1279.084, 27.72705
1279.566, 26.22119
1280.048, 8.800903
1280.530, 1.556641
1281.013, 17.34009
1281.495, 38.74377
1281.977, 28.99963
1282.459, 6.916260
1282.941, 2.116699
1283.423, 20.03015
1283.905, 26.80127
1284.387, 22.11365
1284.870, 16.40356
1285.352, 13.14539
1285.834, 14.45667
1286.316, 13.75818
1286.798, 13.19482
1287.280, 8.386108
1287.762, 0.1850590
1288.244, 0.6142580
1288.726, 5.328491
1289.208, 0.0000000E+00
##END=



