##NAMES=Cleusonite
##RRUFFID=R061019
##IDEAL CHEMISTRY=Pb^2+^(U^4+^,U^6+^)Fe^2+^_2_(Ti^4+^,Fe^2+^,Fe^3+^)_18_(O,OH)_38_
##LOCALITY=Bella Tola, Alpe Roua, St-Luc, Val d'Annivers, Wallis
##OWNER=RRUFF
##SOURCE=Michael Scott
##DESCRIPTION=Metamict black semimetallic prismatic, associated with quartz
##STATUS=The identification of this mineral is not yet confirmed.
##URL=rruff.info/R061019
146.1157, 0.0000000E+00
146.5979, 54.12549
147.0800, 118.5146
147.5621, 172.2441
148.0442, 212.8503
148.5263, 236.5813
149.0084, 237.9678
149.4906, 229.8079
149.9727, 219.9768
150.4548, 211.8728
150.9369, 203.1575
151.4190, 196.7368
151.9011, 184.1746
152.3833, 165.2119
152.8654, 129.8689
153.3475, 95.25293
153.8296, 74.77466
154.3117, 72.78052
154.7938, 79.29810
155.2760, 70.82153
155.7581, 27.98267
156.2402, 2.318848
156.7223, 12.28076
157.2044, 11.35303
157.6865, 8.844482
158.1687, 8.707764
158.6508, 8.473145
159.1329, 1.449463
159.6150, 15.85840
160.0971, 36.65405
160.5792, 60.90649
161.0614, 88.15820
161.5435, 119.3870
162.0256, 155.0413
162.5077, 192.1348
162.9898, 221.0886
163.4719, 236.3289
163.9541, 248.7229
164.4362, 255.8374
164.9183, 261.2659
165.4004, 269.6501
165.8825, 283.3687
166.3646, 300.9316
166.8468, 317.2507
167.3289, 341.3372
167.8110, 353.7341
168.2931, 343.3513
168.7752, 321.3076
169.2573, 303.8215
169.7395, 299.0735
170.2216, 303.7461
170.7037, 304.6638
171.1858, 307.3909
171.6679, 300.6174
172.1500, 271.5942
172.6322, 233.0574
173.1143, 207.3657
173.5964, 207.1233
174.0785, 224.8943
174.5606, 229.9875
175.0427, 213.7263
175.5249, 196.8074
176.0070, 185.4761
176.4891, 176.4709
176.9712, 162.2849
177.4533, 138.1714
177.9354, 107.9556
178.4176, 89.34717
178.8997, 88.28271
179.3818, 89.38745
179.8639, 88.14307
180.3460, 86.34717
180.8281, 87.47021
181.3103, 93.30518
181.7924, 103.3054
182.2745, 115.9485
182.7566, 132.0417
183.2387, 149.1384
183.7208, 176.2822
184.2030, 204.2583
184.6851, 210.9922
185.1672, 182.1523
185.6493, 129.5574
186.1314, 96.24243
186.6135, 90.43359
187.0957, 89.30640
187.5778, 86.51221
188.0599, 83.63184
188.5420, 85.34351
189.0241, 96.05688
189.5062, 110.0874
189.9884, 108.1255
190.4705, 79.11060
190.9526, 53.05640
191.4347, 37.84912
191.9168, 32.27075
192.3989, 35.09302
192.8811, 47.51147
193.3632, 65.43945
193.8453, 76.59790
194.3274, 79.13428
194.8095, 79.84741
195.2916, 81.99341
195.7738, 83.82812
196.2559, 79.69507
196.7380, 65.01318
197.2201, 47.61328
197.7022, 48.24951
198.1843, 76.43237
198.6665, 101.0286
199.1486, 113.3108
199.6307, 115.4492
200.1128, 110.0952
200.5949, 96.82617
201.0770, 79.52661
201.5592, 70.67603
202.0413, 74.32471
202.5234, 75.31641
203.0055, 63.16772
203.4876, 46.25684
203.9697, 41.59058
204.4519, 58.49097
204.9340, 84.42993
205.4161, 92.71704
205.8982, 79.67480
206.3803, 63.84253
206.8624, 45.68115
207.3446, 28.32104
207.8267, 17.09937
208.3088, 13.86938
208.7909, 16.69507
209.2730, 24.08667
209.7551, 39.33008
210.2373, 48.67334
210.7194, 46.42896
211.2015, 37.49268
211.6836, 28.09814
212.1657, 19.73633
212.6479, 12.53345
213.1300, 6.416748
213.6121, 0.4953610
214.0942, 1.537354
214.5763, 2.738770
215.0584, 10.64917
215.5406, 20.14795
216.0227, 31.38696
216.5048, 39.95825
216.9869, 38.73779
217.4690, 25.65283
217.9511, 13.98315
218.4333, 2.260254
218.9154, 6.120361
219.3975, 5.937256
219.8796, 3.411865
220.3617, 16.73071
220.8438, 29.74097
221.3260, 44.41479
221.8081, 49.20142
222.2902, 33.15869
222.7723, 13.52563
223.2544, 5.675781
223.7365, 11.18652
224.2187, 21.12720
224.7008, 27.58716
225.1829, 29.98242
225.6650, 29.74536
226.1471, 22.90698
226.6292, 16.38574
227.1114, 17.26782
227.5935, 24.75586
228.0756, 29.81348
228.5577, 23.00342
229.0398, 3.280518
229.5219, 3.457031
230.0041, 17.91382
230.4862, 37.97266
230.9683, 34.75415
231.4504, 12.89575
231.9325, 4.308350
232.4146, 1.790283
232.8968, 30.07397
233.3789, 43.96240
233.8610, 33.91675
234.3431, 22.14551
234.8252, 14.96631
235.3073, 13.43994
235.7895, 18.08960
236.2716, 30.15552
236.7537, 47.58423
237.2358, 56.94238
237.7179, 54.37988
238.2000, 49.46753
238.6822, 41.99365
239.1643, 34.14136
239.6464, 30.53394
240.1285, 33.36548
240.6106, 39.64282
241.0927, 41.17407
241.5749, 33.99390
242.0570, 27.16699
242.5391, 19.92651
243.0212, 14.17603
243.5033, 12.96509
243.9854, 17.56104
244.4676, 25.55859
244.9497, 31.55127
245.4318, 36.39233
245.9139, 37.66479
246.3960, 34.43677
246.8781, 28.21216
247.3603, 17.04224
247.8424, 1.396973
248.3245, 11.17358
248.8066, 7.151367
249.2887, 28.31738
249.7708, 51.80640
250.2530, 61.61743
250.7351, 62.31299
251.2172, 53.23364
251.6993, 36.20532
252.1814, 18.12231
252.6635, 7.798096
253.1457, 7.936768
253.6278, 6.380859
254.1099, 2.705322
254.5920, 8.327393
255.0741, 1.400391
255.5562, 15.36401
256.0384, 30.53589
256.5205, 32.63330
257.0026, 20.34668
257.4847, 13.28784
257.9668, 16.52979
258.4489, 21.22778
258.9311, 24.58105
259.4132, 25.93750
259.8953, 27.19751
260.3774, 31.66162
260.8595, 38.48242
261.3416, 40.57495
261.8238, 29.75806
262.3059, 24.94873
262.7880, 40.51855
263.2701, 63.81763
263.7522, 75.81494
264.2343, 64.99585
264.7165, 40.65015
265.1986, 30.86890
265.6807, 44.23511
266.1628, 54.95850
266.6449, 57.36963
267.1270, 53.85083
267.6092, 45.26050
268.0913, 31.25757
268.5734, 16.75562
269.0555, 10.10474
269.5376, 11.93848
270.0197, 14.59717
270.5019, 18.19043
270.9840, 20.87964
271.4661, 21.37451
271.9482, 19.43823
272.4303, 15.54443
272.9124, 6.991211
273.3946, 6.072998
273.8767, 8.943115
274.3588, 10.96704
274.8409, 31.34668
275.3230, 33.96313
275.8051, 19.63525
276.2873, 3.301025
276.7694, 9.202148
277.2515, 16.88477
277.7336, 15.71680
278.2157, 2.930176
278.6978, 13.90845
279.1800, 32.59326
279.6621, 51.29175
280.1442, 62.47705
280.6263, 60.74268
281.1084, 51.02515
281.5905, 38.30542
282.0727, 21.74341
282.5548, 9.755615
283.0369, 11.45874
283.5190, 22.30518
284.0011, 28.40308
284.4832, 23.39990
284.9654, 16.93848
285.4475, 18.81299
285.9296, 27.50000
286.4117, 31.59399
286.8938, 23.40942
287.3759, 7.679932
287.8581, 1.159912
288.3402, 1.123779
288.8223, 1.836182
289.3044, 6.863770
289.7865, 12.98486
290.2686, 19.36890
290.7508, 26.21143
291.2329, 30.87061
291.7150, 26.88916
292.1971, 8.308838
292.6792, 4.118896
293.1613, 6.902344
293.6435, 2.642822
294.1256, 10.00684
294.6077, 30.38208
295.0898, 47.65088
295.5719, 47.63916
296.0540, 23.38940
296.5362, 6.615234
297.0183, 3.526611
297.5004, 6.292236
297.9825, 2.413818
298.4646, 20.01636
298.9467, 37.83789
299.4289, 49.03296
299.9110, 53.46729
300.3931, 56.53760
300.8752, 57.74268
301.3573, 58.15942
301.8394, 58.06421
302.3216, 57.36768
302.8037, 56.51245
303.2858, 54.94507
303.7679, 52.34375
304.2500, 46.30762
304.7321, 30.39990
305.2143, 21.38428
305.6964, 25.11011
306.1785, 34.03223
306.6606, 41.64648
307.1427, 45.47388
307.6248, 47.85693
308.1070, 52.34570
308.5891, 60.16455
309.0712, 65.41187
309.5533, 69.03906
310.0354, 68.56885
310.5175, 58.98950
310.9997, 41.89868
311.4818, 27.40234
311.9639, 24.80200
312.4460, 32.94189
312.9281, 42.68604
313.4102, 59.07861
313.8924, 67.88501
314.3745, 58.05493
314.8566, 35.53882
315.3387, 13.58398
315.8208, 6.913818
316.3029, 20.62769
316.7851, 12.09399
317.2672, 24.06030
317.7493, 50.71240
318.2314, 37.36816
318.7135, 5.257324
319.1956, 8.525879
319.6778, 10.08276
320.1599, 31.46338
320.6420, 28.78784
321.1241, 8.082764
321.6062, 0.6499020
322.0883, 23.19019
322.5705, 55.77661
323.0526, 59.83081
323.5347, 28.30859
324.0168, 4.643066
324.4989, 9.675537
324.9810, 26.43408
325.4632, 29.26758
325.9453, 13.07837
326.4274, 2.821045
326.9095, 4.391113
327.3916, 41.17896
327.8737, 64.77930
328.3559, 69.11475
328.8380, 65.80615
329.3201, 57.11304
329.8022, 45.96313
330.2843, 39.61255
330.7664, 43.90894
331.2486, 56.56470
331.7307, 62.61816
332.2128, 58.72534
332.6949, 53.14624
333.1770, 46.35962
333.6591, 39.04614
334.1413, 31.01294
334.6234, 21.62769
335.1055, 13.29419
335.5876, 11.45020
336.0698, 20.89185
336.5519, 28.09790
337.0340, 32.99243
337.5161, 34.82080
337.9982, 30.80469
338.4803, 22.01221
338.9625, 14.42920
339.4446, 13.27979
339.9267, 18.55811
340.4088, 29.37817
340.8909, 56.52661
341.3730, 74.62061
341.8552, 66.03345
342.3373, 41.30737
342.8194, 21.96216
343.3015, 19.76416
343.7836, 27.34033
344.2657, 31.39307
344.7479, 30.91821
345.2300, 32.72681
345.7121, 42.50806
346.1942, 54.78906
346.6763, 61.11133
347.1584, 58.03003
347.6406, 55.85522
348.1227, 66.55396
348.6048, 84.43457
349.0869, 89.30640
349.5690, 73.21216
350.0511, 49.63232
350.5333, 34.84961
351.0154, 28.94702
351.4975, 27.90771
351.9796, 34.57349
352.4617, 43.35498
352.9438, 51.00317
353.4260, 56.73022
353.9081, 57.86792
354.3902, 50.96167
354.8723, 36.16724
355.3544, 29.65576
355.8365, 39.93213
356.3187, 48.22998
356.8008, 45.78174
357.2829, 38.21240
357.7650, 36.58252
358.2471, 45.92993
358.7292, 58.19897
359.2114, 54.27246
359.6935, 16.39014
360.1756, 5.558838
360.6577, 0.2658690
361.1398, 11.57129
361.6219, 16.94629
362.1041, 14.06934
362.5862, 7.660889
363.0683, 0.3244630
363.5504, 8.046631
364.0325, 7.970215
364.5146, 7.186279
364.9968, 22.48511
365.4789, 32.81543
365.9610, 39.01270
366.4431, 42.52393
366.9252, 43.81006
367.4073, 43.01270
367.8895, 38.86768
368.3716, 30.67139
368.8537, 26.12207
369.3358, 29.73364
369.8179, 37.41553
370.3000, 43.89062
370.7822, 48.70532
371.2643, 53.65381
371.7464, 62.33691
372.2285, 71.43726
372.7106, 72.24634
373.1927, 62.06885
373.6749, 49.95020
374.1570, 46.26660
374.6391, 53.00195
375.1212, 56.20728
375.6033, 49.35840
376.0854, 42.13550
376.5676, 40.04883
377.0497, 42.04663
377.5318, 47.75513
378.0139, 55.96460
378.4960, 64.95557
378.9781, 69.83716
379.4603, 70.43164
379.9424, 66.74512
380.4245, 54.92969
380.9066, 40.56714
381.3887, 25.63184
381.8708, 11.83862
382.3530, 5.707764
382.8351, 19.70215
383.3172, 60.96802
383.7993, 77.41138
384.2814, 38.68188
384.7635, 4.290283
385.2457, 2.760010
385.7278, 9.834717
386.2099, 25.11963
386.6920, 36.23804
387.1741, 42.13794
387.6563, 38.22461
388.1384, 21.58276
388.6205, 8.835449
389.1026, 7.602539
389.5847, 12.35889
390.0668, 18.26636
390.5490, 25.35059
391.0311, 30.62720
391.5132, 29.86816
391.9953, 26.13696
392.4774, 27.62158
392.9595, 36.56152
393.4417, 46.30615
393.9238, 51.03296
394.4059, 50.51221
394.8880, 47.39038
395.3701, 35.57251
395.8522, 26.77881
396.3344, 30.46631
396.8165, 43.12305
397.2986, 55.42847
397.7807, 62.96533
398.2628, 66.09033
398.7449, 65.86328
399.2271, 61.97217
399.7092, 54.63550
400.1913, 35.83545
400.6734, 19.12964
401.1555, 19.77417
401.6376, 36.54175
402.1198, 51.29956
402.6019, 44.01099
403.0840, 14.46826
403.5661, 3.439941
404.0482, 4.403076
404.5303, 8.9844003E-02
405.0125, 10.14917
405.4946, 21.35791
405.9767, 25.14502
406.4588, 16.45703
406.9409, 4.780273
407.4230, 4.289795
407.9052, 14.90894
408.3873, 19.88232
408.8694, 8.866211
409.3515, 2.486816
409.8336, 8.109375
410.3157, 40.81543
410.7979, 62.97998
411.2800, 55.52344
411.7621, 35.90601
412.2442, 22.97949
412.7263, 18.25537
413.2084, 18.80811
413.6906, 23.74585
414.1727, 32.15454
414.6548, 37.68506
415.1369, 37.65356
415.6190, 38.53540
416.1011, 43.78296
416.5833, 49.75635
417.0654, 50.49976
417.5475, 44.80420
418.0296, 38.99658
418.5117, 43.56104
418.9938, 62.87305
419.4760, 70.08374
419.9581, 50.66992
420.4402, 32.32251
420.9223, 26.00073
421.4044, 28.64526
421.8865, 33.92676
422.3687, 39.12524
422.8508, 44.20703
423.3329, 52.53247
423.8150, 66.43164
424.2971, 69.92432
424.7792, 48.12500
425.2614, 20.30078
425.7435, 6.395020
426.2256, 7.876709
426.7077, 14.15112
427.1898, 23.49829
427.6719, 33.16748
428.1541, 38.50098
428.6362, 38.94946
429.1183, 37.08936
429.6004, 33.95239
430.0825, 30.24390
430.5646, 29.26440
431.0468, 34.60718
431.5289, 38.40088
432.0110, 36.52930
432.4931, 32.20996
432.9752, 31.12012
433.4573, 34.77954
433.9395, 37.87646
434.4216, 30.38306
434.9037, 4.234863
435.3858, 2.866699
435.8679, 33.67041
436.3500, 65.43555
436.8322, 67.73926
437.3143, 51.15356
437.7964, 40.54077
438.2785, 51.41675
438.7606, 70.96606
439.2427, 72.23438
439.7249, 51.93579
440.2070, 35.39551
440.6891, 29.95264
441.1712, 31.71289
441.6533, 37.69458
442.1354, 48.13257
442.6176, 55.66431
443.0997, 54.54858
443.5818, 49.89600
444.0639, 48.83130
444.5460, 52.44238
445.0281, 55.65112
445.5103, 55.06250
445.9924, 51.83301
446.4745, 49.29663
446.9566, 48.07422
447.4387, 46.96167
447.9208, 47.58569
448.4030, 46.83032
448.8851, 38.34619
449.3672, 22.14429
449.8493, 8.312256
450.3314, 10.41797
450.8135, 30.88574
451.2957, 42.56055
451.7778, 38.51929
452.2599, 33.55493
452.7420, 32.53540
453.2241, 33.83203
453.7062, 34.55542
454.1884, 33.44434
454.6705, 32.15210
455.1526, 33.18359
455.6347, 36.32568
456.1168, 38.99121
456.5989, 41.33325
457.0811, 41.75415
457.5632, 36.51416
458.0453, 26.33276
458.5274, 19.61963
459.0095, 22.01270
459.4916, 25.19556
459.9738, 21.12305
460.4559, 11.87720
460.9380, 4.802002
461.4201, 3.347656
461.9022, 6.864990
462.3843, 14.14453
462.8665, 31.28955
463.3486, 41.98584
463.8307, 41.26147
464.3128, 38.64380
464.7949, 41.65674
465.2770, 49.11743
465.7592, 53.84106
466.2413, 49.47949
466.7234, 38.91943
467.2055, 33.88159
467.6876, 37.63721
468.1697, 37.78149
468.6519, 21.94751
469.1340, 5.083008
469.6161, 3.966309
470.0982, 21.84424
470.5803, 38.70190
471.0624, 43.65356
471.5446, 40.03467
472.0267, 30.59741
472.5088, 15.65137
472.9909, 6.284668
473.4730, 13.45923
473.9551, 33.67944
474.4373, 38.14331
474.9194, 13.55591
475.4015, 7.608154
475.8836, 18.54541
476.3657, 21.47607
476.8478, 17.53320
477.3300, 7.941162
477.8121, 4.945068
478.2942, 22.79102
478.7763, 46.67163
479.2584, 57.20435
479.7405, 47.08276
480.2227, 33.34863
480.7048, 18.12891
481.1869, 4.721191
481.6690, 1.668213
482.1511, 1.221680
482.6332, 7.642334
483.1154, 12.30273
483.5975, 15.95557
484.0796, 22.59912
484.5617, 34.13623
485.0438, 44.31152
485.5259, 47.81250
486.0081, 44.23535
486.4902, 36.64478
486.9723, 14.84497
487.4544, 0.1965330
487.9365, 4.581055
488.4186, 21.41504
488.9008, 39.17090
489.3829, 53.59277
489.8650, 63.46191
490.3471, 66.69629
490.8292, 62.42920
491.3113, 55.25854
491.7935, 42.21313
492.2756, 29.10083
492.7577, 13.12402
493.2398, 0.7133790
493.7219, 1.528076
494.2040, 18.44556
494.6862, 42.13477
495.1683, 46.17041
495.6504, 32.83789
496.1325, 23.68774
496.6146, 24.17236
497.0967, 28.63525
497.5789, 32.11768
498.0610, 34.62280
498.5431, 35.30273
499.0252, 32.77026
499.5073, 29.65527
499.9895, 28.98511
500.4716, 28.68262
500.9537, 22.12329
501.4358, 6.630371
501.9179, 8.698486
502.4001, 6.161377
502.8822, 25.01733
503.3643, 40.26123
503.8464, 23.25122
504.3285, 5.858887
504.8106, 0.5085450
505.2928, 1.858398
505.7749, 6.924805
506.2570, 12.55615
506.7391, 18.68262
507.2212, 26.86963
507.7033, 36.53198
508.1855, 39.69800
508.6676, 31.99048
509.1497, 22.60864
509.6318, 23.77759
510.1139, 35.31055
510.5960, 39.11499
511.0782, 21.72534
511.5603, 8.130615
512.0424, 17.58618
512.5245, 39.62207
513.0066, 51.40332
513.4887, 43.93970
513.9708, 30.35864
514.4529, 35.00269
514.9351, 68.69336
515.4172, 79.96484
515.8993, 39.56714
516.3814, 6.050781
516.8635, 7.494629
517.3456, 30.73096
517.8278, 50.40039
518.3099, 56.72168
518.7920, 56.71802
519.2741, 59.79834
519.7562, 64.12622
520.2383, 56.86841
520.7205, 31.48267
521.2026, 7.194580
521.6847, 5.969238
522.1668, 29.19287
522.6489, 40.91333
523.1310, 27.89697
523.6132, 17.76733
524.0953, 27.43115
524.5774, 45.34448
525.0595, 52.77246
525.5416, 44.14307
526.0237, 30.58521
526.5059, 27.29810
526.9880, 35.70679
527.4701, 38.60010
527.9522, 31.09033
528.4343, 25.21680
528.9164, 28.06836
529.3986, 34.93213
529.8807, 39.63916
530.3628, 41.59644
530.8449, 38.24194
531.3270, 21.53076
531.8091, 0.8432620
532.2913, 8.973389
532.7734, 0.7771000
533.2555, 10.90234
533.7376, 6.195068
534.2197, 11.13574
534.7018, 17.73120
535.1840, 4.022949
535.6661, 8.132324
536.1482, 12.28467
536.6303, 13.73022
537.1124, 18.61914
537.5945, 27.40991
538.0767, 35.10229
538.5588, 35.65625
539.0409, 30.93628
539.5230, 32.97119
540.0051, 45.03491
540.4872, 54.88599
540.9694, 57.50684
541.4515, 54.86230
541.9336, 48.51074
542.4157, 37.16089
542.8978, 29.72656
543.3799, 32.55835
543.8621, 39.08325
544.3442, 40.90967
544.8263, 38.91382
545.3084, 40.39844
545.7905, 50.81982
546.2726, 66.41870
546.7548, 76.37573
547.2369, 81.12085
547.7190, 78.99561
548.2011, 61.39209
548.6832, 45.03345
549.1653, 42.02417
549.6475, 48.91626
550.1296, 53.41577
550.6117, 48.16064
551.0938, 38.32178
551.5759, 31.53857
552.0580, 27.96729
552.5402, 25.49341
553.0223, 24.00342
553.5044, 22.33374
553.9865, 17.94629
554.4686, 9.949951
554.9507, 9.010498
555.4329, 22.80664
555.9150, 35.51685
556.3971, 38.96826
556.8792, 37.34595
557.3613, 37.52417
557.8434, 41.72241
558.3256, 47.07690
558.8077, 50.10303
559.2898, 50.70337
559.7719, 49.79956
560.2540, 48.34082
560.7361, 46.60229
561.2183, 43.15137
561.7004, 38.92847
562.1825, 35.53247
562.6646, 33.75415
563.1467, 30.52148
563.6288, 20.27124
564.1110, 9.312988
564.5931, 8.001221
565.0752, 16.21997
565.5573, 24.61182
566.0394, 26.69214
566.5215, 23.74707
567.0037, 21.22534
567.4858, 21.17847
567.9679, 17.86914
568.4500, 4.536377
568.9321, 6.573486
569.4142, 4.349854
569.8964, 8.241211
570.3785, 17.69800
570.8606, 14.34619
571.3427, 6.674561
571.8248, 8.633301
572.3069, 18.51514
572.7891, 22.38745
573.2712, 14.48706
573.7533, 4.720459
574.2354, 6.178955
574.7175, 21.55371
575.1996, 28.82373
575.6818, 18.63721
576.1639, 11.30688
576.6460, 17.02856
577.1281, 28.93677
577.6102, 37.63477
578.0923, 40.39038
578.5745, 40.64404
579.0566, 42.06372
579.5387, 44.40527
580.0208, 45.29150
580.5029, 44.23389
580.9850, 43.02661
581.4672, 42.25415
581.9493, 42.02637
582.4315, 42.42188
582.9136, 43.39526
583.3957, 45.12866
583.8778, 51.18726
584.3599, 55.42261
584.8420, 49.72437
585.3242, 36.61255
585.8063, 25.15796
586.2884, 20.20239
586.7705, 21.44873
587.2526, 30.94141
587.7347, 54.13330
588.2169, 63.83276
588.6990, 47.63989
589.1811, 28.59302
589.6632, 18.46509
590.1453, 15.33057
590.6274, 15.79468
591.1096, 17.73560
591.5917, 23.15039
592.0738, 39.64160
592.5559, 58.49023
593.0380, 59.93750
593.5201, 40.95166
594.0023, 22.39917
594.4844, 21.76660
594.9665, 34.90112
595.4486, 39.94824
595.9307, 27.70972
596.4128, 21.96924
596.8950, 35.27979
597.3771, 48.66138
597.8592, 43.93286
598.3413, 23.14136
598.8234, 6.176270
599.3055, 8.548584
599.7877, 17.84009
600.2698, 15.05200
600.7519, 3.062500
601.2340, 1.611572
601.7161, 7.280762
602.1982, 20.62573
602.6804, 26.44604
603.1625, 22.82544
603.6446, 24.87305
604.1267, 38.53296
604.6088, 50.30859
605.0909, 57.47656
605.5731, 60.83911
606.0552, 58.63574
606.5373, 50.14819
607.0194, 43.20190
607.5015, 44.93921
607.9836, 52.83765
608.4658, 61.98584
608.9479, 72.54663
609.4300, 75.62354
609.9121, 64.28601
610.3942, 47.19983
610.8763, 41.16028
611.3585, 51.35132
611.8406, 57.56445
612.3227, 59.19653
612.8048, 58.16321
613.2869, 51.90637
613.7690, 43.32666
614.2512, 39.02417
614.7333, 41.96704
615.2154, 46.09216
615.6975, 41.58276
616.1796, 30.68933
616.6617, 29.91882
617.1439, 40.61475
617.6260, 52.46021
618.1081, 61.31506
618.5902, 65.96216
619.0723, 61.67163
619.5544, 40.25745
620.0366, 29.58789
620.5187, 45.68298
621.0008, 64.50513
621.4829, 67.45789
621.9650, 57.75684
622.4471, 47.90930
622.9293, 44.48926
623.4114, 42.78455
623.8935, 32.97729
624.3756, 15.07361
624.8577, 4.683350
625.3398, 4.370361
625.8220, 9.795044
626.3041, 21.50000
626.7862, 36.23547
627.2683, 44.55872
627.7504, 44.40430
628.2325, 41.39941
628.7147, 35.16614
629.1968, 28.16418
629.6789, 21.23303
630.1610, 15.52734
630.6431, 14.15051
631.1252, 19.00989
631.6074, 27.93896
632.0895, 37.25281
632.5716, 47.20959
633.0537, 53.76990
633.5358, 55.85461
634.0179, 55.18127
634.5001, 50.93628
634.9822, 44.78418
635.4643, 42.84167
635.9464, 51.76465
636.4285, 56.06140
636.9106, 45.75696
637.3928, 31.49829
637.8749, 23.65234
638.3570, 23.07715
638.8391, 26.13159
639.3212, 31.04773
639.8033, 36.04871
640.2855, 35.27429
640.7676, 27.50366
641.2497, 25.42969
641.7318, 34.63647
642.2139, 44.53821
642.6960, 45.91052
643.1782, 40.57361
643.6603, 35.50146
644.1424, 30.10718
644.6245, 26.55859
645.1066, 28.31592
645.5887, 31.01855
646.0709, 27.54639
646.5530, 18.88928
647.0351, 10.83667
647.5172, 6.841919
647.9993, 7.587158
648.4814, 18.69092
648.9636, 42.37341
649.4457, 52.24683
649.9278, 39.03625
650.4099, 18.14221
650.8920, 4.140747
651.3741, 24.55310
651.8563, 26.49036
652.3384, 13.19861
652.8205, 43.60535
653.3026, 42.94897
653.7847, 29.73254
654.2668, 20.28467
654.7490, 17.50867
655.2311, 19.69250
655.7132, 26.81726
656.1953, 35.63257
656.6774, 38.16406
657.1595, 34.17029
657.6417, 31.39429
658.1238, 30.85706
658.6059, 32.93689
659.0880, 40.59241
659.5701, 52.04675
660.0522, 54.45825
660.5344, 40.14380
661.0165, 27.17017
661.4986, 21.65125
661.9807, 17.72754
662.4628, 6.494385
662.9449, 8.873535
663.4271, 14.26489
663.9092, 1.597534
664.3913, 25.19043
664.8734, 31.05615
665.3555, 21.00671
665.8376, 18.04541
666.3198, 27.96619
666.8019, 38.24792
667.2840, 39.37866
667.7661, 32.52136
668.2482, 24.43726
668.7303, 14.28406
669.2125, 4.182007
669.6946, 10.64709
670.1767, 21.11768
670.6588, 19.54248
671.1409, 7.848022
671.6230, 9.245483
672.1052, 32.82886
672.5873, 49.64941
673.0694, 33.91309
673.5515, 3.541138
674.0336, 17.57153
674.5157, 0.7792970
674.9979, 20.29480
675.4800, 28.30615
675.9621, 25.91370
676.4442, 22.25037
676.9263, 12.38721
677.4084, 9.672363
677.8906, 22.87756
678.3727, 34.18909
678.8548, 30.69788
679.3369, 18.90881
679.8190, 13.24219
680.3011, 19.60364
680.7833, 28.30054
681.2654, 33.80176
681.7475, 35.28015
682.2296, 27.87280
682.7117, 12.89087
683.1938, 3.083374
683.6760, 5.897705
684.1581, 17.09363
684.6402, 28.61145
685.1223, 43.18103
685.6044, 49.23596
686.0865, 42.51343
686.5687, 32.19226
687.0508, 17.40491
687.5329, 3.424683
688.0150, 1.757935
688.4971, 3.951904
688.9792, 13.31006
689.4614, 27.36389
689.9435, 40.08923
690.4256, 42.23621
690.9077, 37.65369
691.3898, 40.37659
691.8719, 56.04541
692.3541, 71.42053
692.8362, 65.31531
693.3183, 37.41370
693.8004, 20.20569
694.2825, 15.59460
694.7646, 16.67383
695.2468, 25.45288
695.7289, 35.01257
696.2110, 34.12598
696.6931, 21.63306
697.1752, 13.43384
697.6573, 13.99841
698.1395, 17.35352
698.6216, 22.68237
699.1037, 27.90112
699.5858, 29.50659
700.0679, 27.26282
700.5500, 25.64783
701.0322, 31.50757
701.5143, 39.38696
701.9964, 30.09143
702.4785, 4.048584
702.9606, 9.295288
703.4427, 0.6411130
703.9249, 18.87756
704.4070, 30.87158
704.8891, 36.62170
705.3712, 39.01660
705.8533, 34.76245
706.3354, 31.62207
706.8176, 31.50964
707.2997, 32.21106
707.7818, 32.08643
708.2639, 31.09167
708.7460, 29.41223
709.2281, 25.72778
709.7103, 23.03625
710.1924, 27.32239
710.6745, 33.69360
711.1566, 33.71399
711.6387, 26.54358
712.1208, 18.41528
712.6030, 13.19604
713.0851, 11.50598
713.5672, 16.59717
714.0493, 32.88867
714.5314, 40.93921
715.0135, 31.60901
715.4957, 23.91504
715.9778, 35.75842
716.4599, 54.44910
716.9420, 52.87231
717.4241, 16.60791
717.9063, 4.811279
718.3884, 24.30542
718.8705, 60.22119
719.3526, 61.83533
719.8347, 39.39673
720.3168, 22.40845
720.7990, 22.10022
721.2811, 30.79700
721.7632, 41.66296
722.2453, 53.56934
722.7274, 65.39832
723.2095, 77.61768
723.6917, 84.52551
724.1738, 83.74097
724.6559, 76.33984
725.1380, 61.35632
725.6201, 35.12524
726.1022, 24.86597
726.5844, 47.70911
727.0665, 63.62280
727.5486, 56.73303
728.0307, 41.18250
728.5128, 29.16858
728.9949, 23.55457
729.4771, 24.42566
729.9592, 36.14343
730.4413, 48.90503
730.9234, 51.98547
731.4055, 48.02698
731.8876, 42.95190
732.3698, 39.72058
732.8519, 35.90540
733.3340, 29.10999
733.8161, 22.28931
734.2982, 27.34485
734.7803, 48.29309
735.2625, 64.27539
735.7446, 72.82898
736.2267, 75.97083
736.7088, 72.20923
737.1909, 64.35413
737.6730, 58.72546
738.1552, 54.57654
738.6373, 55.10925
739.1194, 68.86096
739.6015, 80.42456
740.0836, 74.84204
740.5657, 59.47632
741.0479, 50.66443
741.5300, 54.31030
742.0121, 61.00647
742.4942, 62.40137
742.9763, 59.46411
743.4584, 53.35449
743.9406, 44.39185
744.4227, 34.77795
744.9048, 24.54602
745.3869, 19.05176
745.8690, 26.79919
746.3511, 48.89868
746.8333, 61.27576
747.3154, 57.88953
747.7975, 54.80530
748.2796, 56.75171
748.7617, 59.19421
749.2438, 57.48950
749.7260, 52.64368
750.2081, 50.90393
750.6902, 57.07227
751.1723, 62.69421
751.6544, 62.81152
752.1365, 60.47058
752.6187, 58.96448
753.1008, 58.57605
753.5829, 57.97437
754.0650, 56.18433
754.5471, 55.06836
755.0292, 59.44104
755.5114, 67.90051
755.9935, 69.22375
756.4756, 61.53882
756.9577, 56.53979
757.4398, 61.77136
757.9219, 71.10132
758.4041, 72.36133
758.8862, 62.97949
759.3683, 54.74707
759.8504, 48.39075
760.3325, 42.41528
760.8146, 35.64075
761.2968, 29.59583
761.7789, 23.16370
762.2610, 16.76611
762.7431, 16.46729
763.2252, 31.44922
763.7073, 46.61169
764.1895, 49.02722
764.6716, 45.03711
765.1537, 47.09985
765.6358, 55.46716
766.1179, 57.32520
766.6000, 41.30225
767.0822, 17.73022
767.5643, 8.250732
768.0464, 12.41553
768.5285, 26.55969
769.0106, 53.23120
769.4927, 72.00366
769.9749, 66.93201
770.4570, 47.48828
770.9391, 38.71753
771.4212, 45.54846
771.9033, 51.81104
772.3854, 57.10815
772.8676, 62.36108
773.3497, 69.95947
773.8318, 76.67712
774.3139, 77.60645
774.7960, 72.02905
775.2781, 66.39478
775.7603, 63.65417
776.2424, 61.88110
776.7245, 58.19934
777.2066, 54.79004
777.6887, 55.97339
778.1708, 61.96729
778.6530, 68.31348
779.1351, 71.93994
779.6172, 72.91699
780.0993, 70.38403
780.5814, 64.72144
781.0635, 61.04395
781.5457, 60.51355
782.0278, 59.22217
782.5099, 53.43518
782.9920, 46.24146
783.4741, 47.55310
783.9562, 64.88171
784.4384, 72.68408
784.9205, 59.90002
785.4026, 50.48669
785.8847, 58.87451
786.3668, 72.76746
786.8489, 74.01611
787.3311, 59.82727
787.8132, 50.86230
788.2953, 59.17468
788.7774, 69.47766
789.2595, 73.29724
789.7416, 72.44580
790.2238, 68.26160
790.7059, 62.22168
791.1880, 58.66638
791.6701, 61.58496
792.1522, 67.00903
792.6343, 69.12927
793.1165, 68.21521
793.5986, 63.51001
794.0807, 54.51135
794.5628, 49.65430
795.0449, 55.45618
795.5270, 65.59631
796.0092, 64.71655
796.4913, 50.08093
796.9734, 35.26587
797.4555, 18.82202
797.9376, 4.828125
798.4197, 6.069092
798.9019, 12.77026
799.3840, 12.49072
799.8661, 5.219849
800.3482, 1.462280
800.8303, 7.629761
801.3124, 11.06750
801.7946, 5.852783
802.2767, 1.668945
802.7588, 12.67322
803.2409, 35.08093
803.7230, 49.09546
804.2051, 42.78345
804.6873, 30.16174
805.1694, 21.14539
805.6515, 16.65747
806.1336, 20.65198
806.6157, 31.56836
807.0978, 40.97266
807.5800, 44.70325
808.0621, 45.50171
808.5442, 47.11230
809.0263, 49.75623
809.5084, 54.72705
809.9905, 63.56335
810.4727, 63.85120
810.9548, 46.38708
811.4369, 29.39136
811.9190, 35.84924
812.4011, 64.88770
812.8832, 80.73645
813.3654, 75.11755
813.8475, 68.25366
814.3296, 59.50574
814.8117, 52.51306
815.2938, 52.43555
815.7759, 55.79968
816.2581, 51.66614
816.7402, 33.57812
817.2223, 20.98230
817.7044, 26.53076
818.1865, 36.96680
818.6686, 42.96472
819.1508, 45.05847
819.6329, 45.70667
820.1150, 45.61377
820.5971, 43.93982
821.0792, 38.23853
821.5613, 31.81628
822.0435, 31.54590
822.5256, 35.80725
823.0077, 38.22424
823.4898, 37.49133
823.9719, 36.24060
824.4540, 36.78113
824.9362, 37.33960
825.4183, 31.18445
825.9004, 16.26526
826.3825, 9.752930
826.8646, 15.99500
827.3467, 21.67566
827.8289, 20.32471
828.3110, 14.99683
828.7931, 9.516479
829.2752, 3.145874
829.7573, 2.566162
830.2394, 14.45874
830.7216, 24.09277
831.2037, 28.64868
831.6858, 28.07983
832.1679, 19.00830
832.6500, 4.447510
833.1321, 4.623291
833.6143, 4.100830
834.0964, 1.603760
834.5785, 17.35132
835.0606, 31.60107
835.5427, 28.93396
836.0248, 15.08643
836.5070, 6.106079
836.9891, 7.838867
837.4712, 12.08459
837.9533, 9.433350
838.4354, 4.131348
838.9175, 6.997559
839.3997, 15.58691
839.8818, 17.25562
840.3639, 9.567749
840.8460, 1.917603
841.3281, 5.438232
841.8102, 15.79858
842.2924, 16.08728
842.7745, 4.330200
843.2566, 1.530273
843.7387, 12.45068
844.2208, 24.21191
844.7029, 30.63599
845.1851, 32.54089
845.6672, 31.54065
846.1493, 27.32581
846.6314, 21.97607
847.1135, 12.57581
847.5956, 5.769165
848.0778, 4.229858
848.5599, 4.867676
849.0420, 5.946411
849.5241, 6.902832
850.0062, 5.765747
850.4883, 0.9460450
850.9705, 4.865356
851.4526, 0.7010500
851.9347, 5.571899
852.4168, 10.35071
852.8989, 12.98999
853.3810, 12.29480
853.8632, 8.001465
854.3453, 5.137451
854.8274, 11.42810
855.3095, 18.52502
855.7916, 13.60486
856.2737, 1.162842
856.7559, 8.453125
857.2380, 12.51624
857.7201, 11.35498
858.2022, 4.707764
858.6843, 4.290894
859.1664, 9.281006
859.6486, 10.64368
860.1307, 11.99573
860.6128, 13.68884
861.0949, 16.14294
861.5770, 19.96912
862.0591, 23.13428
862.5413, 22.58899
863.0234, 17.34155
863.5055, 12.83936
863.9876, 9.827271
864.4697, 7.530029
864.9518, 6.170654
865.4340, 4.843140
865.9161, 0.4029540
866.3982, 4.966309
866.8803, 5.9810001E-03
867.3624, 28.38965
867.8445, 42.83777
868.3267, 30.22925
868.8088, 16.80945
869.2909, 14.99158
869.7730, 18.75403
870.2551, 20.05286
870.7372, 17.98047
871.2194, 15.70276
871.7015, 15.40015
872.1836, 13.48181
872.6657, 4.598267
873.1478, 4.175659
873.6299, 4.256104
874.1121, 2.749268
874.5942, 9.504761
875.0763, 12.94116
875.5584, 14.80164
876.0405, 15.82800
876.5226, 16.74036
877.0048, 19.39453
877.4869, 22.60461
877.9690, 22.69531
878.4511, 19.01294
878.9332, 15.47876
879.4153, 15.57275
879.8975, 17.96008
880.3796, 21.14160
880.8617, 24.41931
881.3438, 21.73755
881.8259, 12.37402
882.3080, 4.539307
882.7902, 2.792969
883.2723, 4.579224
883.7544, 6.116821
884.2365, 7.406250
884.7186, 5.501709
885.2007, 1.267944
885.6829, 3.753540
886.1650, 2.893433
886.6471, 9.136719
887.1292, 4.908691
887.6113, 6.458984
888.0934, 9.217468
888.5756, 0.1010130
889.0577, 11.42236
889.5398, 34.65088
890.0219, 48.60730
890.5040, 38.40509
890.9861, 18.33337
891.4683, 4.954285
891.9504, 0.9769900
892.4325, 2.637329
892.9146, 2.076965
893.3967, 7.803406
893.8788, 15.26422
894.3610, 21.24005
894.8431, 21.99658
895.3252, 19.38403
895.8073, 18.84259
896.2894, 22.97217
896.7715, 22.62317
897.2537, 2.706665
897.7358, 12.92548
898.2179, 1.825134
898.7000, 29.33087
899.1821, 43.04333
899.6642, 39.47668
900.1464, 29.91473
900.6285, 18.63312
901.1106, 9.738586
901.5927, 6.347900
902.0748, 8.706360
902.5569, 22.72443
903.0391, 43.11823
903.5212, 49.79199
904.0033, 36.00800
904.4854, 20.69049
904.9675, 24.77466
905.4496, 40.10858
905.9318, 48.02832
906.4139, 49.23096
906.8960, 45.72321
907.3781, 38.25409
907.8602, 34.41901
908.3423, 39.32452
908.8245, 46.90875
909.3066, 45.70544
909.7887, 35.82214
910.2708, 30.77289
910.7529, 30.91986
911.2351, 32.70978
911.7172, 35.23944
912.1993, 38.86975
912.6815, 44.98651
913.1636, 51.89166
913.6457, 50.24957
914.1278, 35.54968
914.6099, 28.76801
915.0920, 36.72424
915.5742, 41.43964
916.0563, 31.53766
916.5384, 18.37280
917.0205, 19.06604
917.5026, 34.58295
917.9847, 41.10895
918.4669, 35.02429
918.9490, 25.49951
919.4311, 5.616882
919.9132, 9.296509
920.3953, 7.774658
920.8774, 4.005798
921.3596, 14.35217
921.8417, 22.91278
922.3238, 28.42096
922.8059, 25.18958
923.2880, 25.69659
923.7701, 41.72040
924.2523, 57.36517
924.7344, 57.25421
925.2165, 44.09027
925.6986, 31.11346
926.1807, 20.58789
926.6628, 14.02936
927.1450, 15.43414
927.6271, 17.55554
928.1092, 12.00623
928.5913, 5.469910
929.0734, 10.66595
929.5555, 27.26337
930.0377, 38.65833
930.5198, 33.29193
931.0019, 25.26190
931.4840, 25.86780
931.9661, 31.27979
932.4482, 39.35162
932.9304, 46.77155
933.4125, 44.81458
933.8946, 32.09271
934.3767, 24.00861
934.8588, 40.87366
935.3409, 61.87305
935.8231, 56.59662
936.3052, 37.46521
936.7873, 27.99377
937.2694, 30.76318
937.7515, 41.31934
938.2336, 57.81482
938.7158, 70.75848
939.1979, 66.69861
939.6800, 51.85718
940.1621, 37.48047
940.6442, 25.01001
941.1263, 19.47583
941.6085, 21.55341
942.0906, 27.96558
942.5727, 37.06061
943.0548, 45.24103
943.5369, 45.66492
944.0190, 40.38745
944.5012, 36.84253
944.9833, 35.03082
945.4654, 33.25177
945.9475, 31.60620
946.4296, 29.63757
946.9117, 25.79510
947.3939, 20.75159
947.8760, 15.88818
948.3581, 11.22736
948.8402, 14.62933
949.3223, 27.51208
949.8044, 39.11609
950.2866, 45.63721
950.7687, 46.86200
951.2508, 40.79724
951.7329, 12.45725
952.2150, 33.94451
952.6971, 46.11705
953.1793, 49.47551
953.6614, 17.62033
954.1435, 31.23617
954.6256, 26.62930
955.1077, 21.27520
955.5898, 41.29087
956.0720, 14.55750
956.5541, 41.12708
957.0362, 43.57935
957.5183, 41.32861
958.0004, 30.20874
958.4825, 24.54260
958.9647, 39.05634
959.4468, 61.19403
959.9289, 60.16248
960.4110, 28.06500
960.8931, 12.77393
961.3752, 23.60101
961.8574, 33.73157
962.3395, 35.53223
962.8216, 36.57294
963.3037, 45.69012
963.7858, 58.23901
964.2679, 57.85651
964.7501, 35.69354
965.2322, 23.43164
965.7143, 30.12354
966.1964, 35.75696
966.6785, 30.38177
967.1606, 21.98138
967.6428, 20.05573
968.1249, 23.43103
968.6070, 25.81079
969.0891, 29.00360
969.5712, 27.41876
970.0533, 12.09576
970.5355, 2.448120
971.0176, 10.41656
971.4997, 24.78345
971.9818, 32.95392
972.4639, 35.38971
972.9460, 41.02228
973.4282, 59.08124
973.9103, 67.53345
974.3924, 53.02155
974.8745, 39.82001
975.3566, 45.62958
975.8387, 56.37115
976.3209, 51.11609
976.8030, 29.80951
977.2851, 19.06720
977.7672, 36.01630
978.2493, 46.20288
978.7314, 34.54980
979.2136, 21.20990
979.6957, 17.66211
980.1778, 21.44958
980.6599, 30.60724
981.1420, 44.45770
981.6241, 49.92621
982.1063, 34.90527
982.5884, 22.49689
983.0705, 20.18066
983.5526, 23.34766
984.0347, 33.00281
984.5168, 43.93774
984.9990, 47.13818
985.4811, 40.89685
985.9632, 33.78632
986.4453, 30.14996
986.9274, 24.37769
987.4095, 7.383911
987.8917, 6.792908
988.3738, 2.145264
988.8559, 13.35413
989.3380, 22.04004
989.8201, 19.90442
990.3022, 14.29669
990.7844, 4.096375
991.2665, 4.079163
991.7486, 6.394348
992.2307, 5.792603
992.7128, 6.141602
993.1949, 5.668274
993.6771, 2.378357
994.1592, 20.82996
994.6413, 33.49072
995.1234, 27.97705
995.6055, 21.55811
996.0876, 22.38098
996.5698, 28.02869
997.0519, 39.46405
997.5340, 52.73328
998.0161, 57.61224
998.4982, 49.99420
998.9803, 44.85980
999.4625, 53.78564
999.9446, 61.63733
1000.427, 56.79596
1000.909, 48.27557
1001.391, 46.47321
1001.873, 49.75757
1002.355, 50.04230
1002.837, 44.48474
1003.319, 39.45874
1003.802, 39.72760
1004.284, 39.20032
1004.766, 29.96704
1005.248, 21.07843
1005.730, 26.86957
1006.212, 41.75751
1006.694, 44.60956
1007.176, 26.04388
1007.658, 14.43097
1008.141, 32.66815
1008.623, 50.08130
1009.105, 40.45123
1009.587, 25.16272
1010.069, 32.94489
1010.551, 56.85980
1011.033, 66.60370
1011.515, 49.76324
1011.997, 37.26929
1012.480, 49.45477
1012.962, 61.50964
1013.444, 58.29596
1013.926, 48.00250
1014.408, 36.88904
1014.890, 27.28223
1015.372, 22.40271
1015.854, 23.11707
1016.337, 28.12976
1016.819, 46.67126
1017.301, 57.93036
1017.783, 42.46307
1018.265, 20.47729
1018.747, 13.25781
1019.229, 18.34265
1019.711, 21.06372
1020.193, 16.74915
1020.676, 15.64777
1021.158, 28.22845
1021.640, 36.27338
1022.122, 28.29053
1022.604, 13.79291
1023.086, 3.265869
1023.568, 17.97809
1024.050, 18.01025
1024.532, 3.559998
1025.015, 18.09760
1025.497, 10.66040
1025.979, 3.793701
1026.461, 5.908264
1026.943, 13.37738
1027.425, 27.29022
1027.907, 42.88116
1028.389, 48.12433
1028.872, 39.08789
1029.354, 31.33734
1029.836, 25.85321
1030.318, 24.74774
1030.800, 37.78491
1031.282, 47.20654
1031.764, 30.47070
1032.246, 0.9138180
1032.729, 5.790222
1033.211, 20.09979
1033.693, 35.24963
1034.175, 26.10248
1034.657, 17.51099
1035.139, 14.96570
1035.621, 15.67670
1036.103, 17.84540
1036.585, 21.74103
1037.068, 28.14703
1037.550, 37.71722
1038.032, 46.22308
1038.514, 61.93359
1038.996, 64.50067
1039.478, 35.80566
1039.960, 9.846985
1040.442, 10.14673
1040.924, 24.28217
1041.407, 30.03687
1041.889, 26.20520
1042.371, 25.59772
1042.853, 28.72418
1043.335, 34.29712
1043.817, 44.59064
1044.299, 53.67651
1044.781, 59.81329
1045.264, 61.12750
1045.746, 52.60803
1046.228, 35.05554
1046.710, 25.17487
1047.192, 23.43805
1047.674, 28.59302
1048.156, 46.24316
1048.638, 56.09625
1049.120, 45.27734
1049.603, 27.18640
1050.085, 19.58850
1050.567, 21.12579
1051.049, 18.74670
1051.531, 10.29700
1052.013, 13.32593
1052.495, 33.19226
1052.977, 45.71857
1053.459, 38.88245
1053.942, 27.33490
1054.424, 27.38666
1054.906, 35.60870
1055.388, 38.42987
1055.870, 35.76855
1056.352, 29.03485
1056.834, 17.86310
1057.316, 12.29889
1057.799, 16.05383
1058.281, 23.83044
1058.763, 32.00702
1059.245, 37.86646
1059.727, 31.52460
1060.209, 15.77704
1060.691, 12.31256
1061.173, 20.74481
1061.656, 28.17255
1062.138, 31.12274
1062.620, 32.24969
1063.102, 33.29572
1063.584, 34.51764
1064.066, 39.34509
1064.548, 43.68256
1065.030, 30.64087
1065.512, 6.441528
1065.995, 3.509766
1066.477, 3.664246
1066.959, 11.55566
1067.441, 11.19104
1067.923, 8.118896
1068.405, 8.367981
1068.887, 10.32385
1069.369, 10.56451
1069.851, 10.92560
1070.334, 17.92645
1070.816, 28.99841
1071.298, 31.40692
1071.780, 19.88647
1072.262, 9.720520
1072.744, 16.45819
1073.226, 26.33014
1073.708, 25.22974
1074.191, 20.54547
1074.673, 23.63885
1075.155, 30.67206
1075.637, 28.86310
1076.119, 15.77417
1076.601, 6.394165
1077.083, 9.231812
1077.565, 16.65869
1078.047, 30.17017
1078.530, 41.12213
1079.012, 39.57629
1079.494, 32.28369
1079.976, 29.67084
1080.458, 32.79510
1080.940, 37.18597
1081.422, 46.28558
1081.904, 47.79779
1082.387, 27.62524
1082.869, 11.99457
1083.351, 21.13306
1083.833, 36.11481
1084.315, 35.57874
1084.797, 22.06366
1085.279, 11.72913
1085.761, 5.188232
1086.244, 2.462646
1086.726, 4.318054
1087.208, 8.735291
1087.690, 15.11676
1088.172, 24.56354
1088.654, 42.94690
1089.136, 61.41876
1089.618, 56.19580
1090.100, 22.30792
1090.583, 8.658630
1091.065, 23.69434
1091.547, 31.79016
1092.029, 25.79602
1092.511, 15.52197
1092.993, 5.257263
1093.475, 3.102478
1093.957, 6.695740
1094.439, 6.045532
1094.922, 4.352112
1095.404, 1.627991
1095.886, 1.6541000E-02
1096.368, 0.3048100
1096.850, 6.357361
1097.332, 21.06067
1097.814, 34.74878
1098.296, 38.19043
1098.779, 35.26587
1099.261, 30.27594
1099.743, 23.71826
1100.225, 18.99805
1100.707, 16.50586
1101.189, 14.29584
1101.671, 12.35492
1102.153, 14.85181
1102.635, 25.49353
1103.118, 34.27490
1103.600, 26.79993
1104.082, 13.90094
1104.564, 8.529480
1105.046, 8.753235
1105.528, 11.75781
1106.010, 16.12311
1106.492, 19.66058
1106.974, 21.58838
1107.457, 23.24060
1107.939, 28.14008
1108.421, 29.59235
1108.903, 19.86053
1109.385, 8.134766
1109.867, 0.3005370
1110.349, 3.203674
1110.831, 5.880432
1111.314, 26.61438
1111.796, 36.45807
1112.278, 17.48376
1112.760, 6.989197
1113.242, 21.47931
1113.724, 33.88159
1114.206, 29.07312
1114.688, 18.52808
1115.171, 12.96558
1115.653, 12.32019
1116.135, 15.92145
1116.617, 27.86505
1117.099, 29.42438
1117.581, 13.02881
1118.063, 7.492249
1118.545, 25.19873
1119.027, 39.42621
1119.510, 29.65759
1119.992, 10.64758
1120.474, 10.78369
1120.956, 27.74524
1121.438, 32.12457
1121.920, 24.08179
1122.402, 20.31824
1122.884, 22.87347
1123.366, 22.07245
1123.849, 13.60602
1124.331, 5.033447
1124.813, 2.398987
1125.295, 6.870178
1125.777, 28.40735
1126.259, 55.69507
1126.741, 59.41876
1127.223, 43.86670
1127.706, 23.46490
1128.188, 4.436951
1128.670, 2.937988
1129.152, 9.006958
1129.634, 22.34625
1130.116, 20.26843
1130.598, 14.46387
1131.080, 15.41779
1131.563, 19.28931
1132.045, 20.00745
1132.527, 19.11456
1133.009, 23.73700
1133.491, 35.87250
1133.973, 41.88824
1134.455, 30.12347
1134.937, 22.01117
1135.419, 29.95514
1135.901, 36.67114
1136.384, 28.25220
1136.866, 14.99768
1137.348, 12.71600
1137.830, 19.13269
1138.312, 16.97491
1138.794, 1.783325
1139.276, 7.930481
1139.758, 3.901062
1140.241, 13.95020
1140.723, 15.88934
1141.205, 18.12030
1141.687, 27.99609
1142.169, 38.71289
1142.651, 35.26581
1143.133, 20.08710
1143.615, 19.30914
1144.098, 31.23944
1144.580, 29.96527
1145.062, 13.56348
1145.544, 3.291626
1146.026, 7.557861
1146.508, 14.00317
1146.990, 10.42175
1147.472, 4.438416
1147.954, 9.964539
1148.437, 20.70685
1148.919, 26.14825
1149.401, 28.13452
1149.883, 31.47943
1150.365, 36.65961
1150.847, 41.44916
1151.329, 44.94537
1151.811, 46.52997
1152.293, 46.82684
1152.776, 44.27734
1153.258, 33.50665
1153.740, 23.58893
1154.222, 27.39362
1154.704, 35.83838
1155.186, 28.61792
1155.668, 3.749756
1156.150, 11.41675
1156.633, 14.38037
1157.115, 7.586182
1157.597, 16.78345
1158.079, 36.95996
1158.561, 45.03778
1159.043, 46.98163
1159.525, 47.14618
1160.007, 46.15051
1160.490, 46.68530
1160.972, 48.79211
1161.454, 39.04645
1161.936, 17.45532
1162.418, 6.865295
1162.900, 10.58466
1163.382, 15.17212
1163.864, 14.37640
1164.346, 12.76752
1164.828, 15.11029
1165.311, 19.43811
1165.793, 23.93640
1166.275, 27.24542
1166.757, 23.82117
1167.239, 18.18292
1167.721, 22.93018
1168.203, 37.19678
1168.685, 46.31128
1169.168, 43.26068
1169.650, 37.95056
1170.132, 37.96332
1170.614, 34.33063
1171.096, 15.04541
1171.578, 3.106445
1172.060, 4.558533
1172.542, 4.718628
1173.025, 14.72150
1173.507, 24.70795
1173.989, 28.64075
1174.471, 21.82513
1174.953, 19.27136
1175.435, 22.45062
1175.917, 28.15247
1176.399, 37.34631
1176.881, 42.32233
1177.364, 35.34161
1177.846, 24.76562
1178.328, 29.87494
1178.810, 47.10101
1179.292, 48.80524
1179.774, 38.66003
1180.256, 32.86560
1180.738, 32.71552
1181.220, 29.94849
1181.703, 21.62292
1182.185, 13.24670
1182.667, 8.094421
1183.149, 7.893921
1183.631, 19.91187
1184.113, 32.75537
1184.595, 30.17365
1185.077, 21.77881
1185.560, 22.89374
1186.042, 32.00677
1186.524, 38.35773
1187.006, 39.58728
1187.488, 40.10840
1187.970, 44.53448
1188.452, 43.16113
1188.934, 24.90509
1189.417, 11.66913
1189.899, 17.24426
1190.381, 27.74658
1190.863, 27.62506
1191.345, 20.30048
1191.827, 19.25293
1192.309, 25.13855
1192.791, 31.07953
1193.273, 37.09821
1193.755, 42.98810
1194.238, 48.68872
1194.720, 52.76031
1195.202, 54.46112
1195.684, 54.80865
1196.166, 55.07343
1196.648, 54.35925
1197.130, 52.24615
1197.612, 48.15057
1198.095, 36.07898
1198.577, 21.18250
1199.059, 14.42780
1199.541, 15.91681
1200.023, 17.33221
1200.505, 15.62866
1200.987, 15.13037
1201.469, 18.59546
1201.952, 22.08344
1202.434, 27.95032
1202.916, 29.45502
1203.398, 16.88647
1203.880, 1.625244
1204.362, 1.808777
1204.844, 4.471741
1205.326, 9.070923
1205.808, 12.36310
1206.291, 10.01245
1206.773, 0.5258790
1207.255, 2.530090
1207.737, 20.58337
1208.219, 30.06860
1208.701, 21.15387
1209.183, 9.961060
1209.665, 16.50977
1210.147, 31.48108
1210.630, 41.78693
1211.112, 46.59009
1211.594, 40.90033
1212.076, 29.95007
1212.558, 23.27307
1213.040, 22.79413
1213.522, 27.79163
1214.004, 39.13074
1214.487, 49.28534
1214.969, 54.42731
1215.451, 59.14502
1215.933, 69.37677
1216.415, 74.53741
1216.897, 59.58917
1217.379, 41.11169
1217.861, 41.19586
1218.344, 53.94769
1218.826, 49.66730
1219.308, 24.65228
1219.790, 13.79309
1220.272, 17.87067
1220.754, 23.00507
1221.236, 26.36145
1221.718, 27.29260
1222.200, 25.50854
1222.682, 27.55377
1223.165, 43.96619
1223.647, 60.37158
1224.129, 50.63019
1224.611, 33.14978
1225.093, 35.16364
1225.575, 46.95715
1226.057, 50.29565
1226.539, 44.90588
1227.022, 40.25525
1227.504, 38.93280
1227.986, 36.19073
1228.468, 25.18011
1228.950, 21.64392
1229.432, 34.18738
1229.914, 46.18872
1230.396, 51.58905
1230.879, 53.07349
1231.361, 53.40826
1231.843, 51.09326
1232.325, 40.36633
1232.807, 23.70703
1233.289, 21.01898
1233.771, 29.89325
1234.253, 25.57123
1234.735, 8.143738
1235.218, 3.128418
1235.700, 17.51416
1236.182, 25.22870
1236.664, 4.095337
1237.146, 16.00140
1237.628, 5.738647
1238.110, 11.16962
1238.592, 19.59454
1239.074, 20.88275
1239.557, 11.64539
1240.039, 0.8153080
1240.521, 1.123169
1241.003, 12.32684
1241.485, 26.76514
1241.967, 44.71155
1242.449, 57.59998
1242.931, 66.58453
1243.414, 62.59009
1243.896, 40.78656
1244.378, 22.48798
1244.860, 21.42670
1245.342, 30.75897
1245.824, 44.08105
1246.306, 57.69073
1246.788, 63.13458
1247.271, 63.19940
1247.753, 64.56775
1248.235, 65.74640
1248.717, 48.55389
1249.199, 34.49280
1249.681, 29.78802
1250.163, 37.60229
1250.645, 42.57239
1251.127, 26.10327
1251.609, 11.51312
1252.092, 4.047791
1252.574, 1.711365
1253.056, 5.602173
1253.538, 11.38550
1254.020, 15.67419
1254.502, 18.63708
1254.984, 16.94812
1255.466, 11.23926
1255.949, 9.095215
1256.431, 9.808167
1256.913, 9.418030
1257.395, 7.113525
1257.877, 4.905762
1258.359, 3.721436
1258.841, 2.344177
1259.323, 0.0000000E+00
##END=



