##NAMES=Clinoatacamite
##RRUFFID=R100198
##IDEAL CHEMISTRY=Cu^2+^_2_Cl(OH)_3_
##LOCALITY=La Vendida mine, Caracoles, Sierra Gorda District, Tocopilla Province, Antofagasta Region, Chile
##OWNER=RRUFF
##SOURCE=Bob Jenkins
##DESCRIPTION=Lighter green thin tabular crystals forming v-twins perched on darker green blocky atacamite, associated with black paratacamite. Twinned by 120 deg rotation around [2 0 1]
##STATUS=The identification of this mineral is confirmed by single-crystal X-ray diffraction and chemical analysis.
##URL=rruff.info/R100198
##MEASURED CHEMISTRY=(Cu_1.95_Ni_0.02_Co_0.01_)Cl_1.04_(OH)_3_
185.1003, 0.0000000E+00
185.5824, 7.1066998E-02
186.0645, 2.5130000E-03
186.5466, 0.2224780
187.0287, 0.3697800
187.5108, 0.2724130
187.9930, 8.8716000E-02
188.4751, 1.0756000E-02
188.9572, 0.1528320
189.4393, 0.4876450
189.9214, 0.7246560
190.4035, 0.9257410
190.8857, 1.030515
191.3678, 0.9066930
191.8499, 0.6571250
192.3320, 0.4080490
192.8141, 0.1987160
193.2962, 2.3980999E-02
193.7784, 5.1729999E-02
194.2605, 0.5679600
194.7426, 0.9723590
195.2247, 0.8573090
195.7068, 0.4038580
196.1889, 4.1170001E-02
196.6711, 7.7229001E-02
197.1532, 0.3932830
197.6353, 0.5395260
198.1174, 0.4405360
198.5995, 0.2914620
199.0816, 0.1641700
199.5638, 6.4859003E-02
200.0459, 3.8750999E-02
200.5280, 0.1382860
201.0101, 0.3307380
201.4922, 0.5057910
201.9743, 0.7289970
202.4565, 0.9459130
202.9386, 0.8198800
203.4207, 0.3315940
203.9028, 9.3699998E-04
204.3849, 0.2454360
204.8670, 0.7548300
205.3492, 1.079283
205.8313, 1.122211
206.3134, 0.9820750
206.7955, 0.7467310
207.2776, 0.3838640
207.7597, 0.1091180
208.2419, 3.3677001E-02
208.7240, 8.7040000E-02
209.2061, 0.2831420
209.6882, 0.6759460
210.1703, 1.104807
210.6524, 1.253469
211.1346, 0.9809990
211.6167, 0.7862390
212.0988, 0.9480300
212.5809, 1.218678
213.0630, 1.410921
213.5451, 1.186369
214.0273, 0.7976020
214.5094, 0.5929260
214.9915, 0.6647620
215.4736, 0.7682480
215.9557, 0.8600090
216.4378, 0.9492990
216.9200, 1.083806
217.4021, 1.291560
217.8842, 1.480083
218.3663, 1.365767
218.8484, 0.5655030
219.3305, 2.1717001E-02
219.8127, 0.1780580
220.2948, 8.7314002E-02
220.7769, 0.3287670
221.2590, 1.086835
221.7411, 2.005885
222.2232, 2.486438
222.7054, 2.106888
223.1875, 1.778083
223.6696, 1.607833
224.1517, 1.496379
224.6338, 1.305527
225.1159, 0.9719010
225.5980, 0.5692240
226.0802, 0.3130930
226.5623, 0.1203300
227.0444, 0.1891680
227.5265, 0.8291000
228.0086, 1.657310
228.4907, 2.179059
228.9729, 2.182239
229.4550, 1.803206
229.9371, 1.357007
230.4192, 0.6048180
230.9013, 0.1518240
231.3834, 0.2923490
231.8656, 0.7460160
232.3477, 1.113936
232.8298, 1.246455
233.3119, 1.217945
233.7940, 1.173588
234.2761, 1.121114
234.7583, 1.041656
235.2404, 0.7581800
235.7225, 0.4699600
236.2046, 0.6431410
236.6867, 1.517478
237.1688, 2.571867
237.6510, 2.970005
238.1331, 2.706017
238.6152, 2.224330
239.0973, 1.476544
239.5794, 0.6242890
240.0615, 2.7490000E-03
240.5437, 0.3354620
241.0258, 0.3409180
241.5079, 0.1028400
241.9900, 1.012642
242.4721, 1.716028
242.9542, 1.760225
243.4364, 1.375266
243.9185, 1.182150
244.4006, 1.354256
244.8827, 1.650056
245.3648, 1.856030
245.8469, 1.978938
246.3290, 2.027211
246.8112, 2.021266
247.2933, 1.946233
247.7754, 1.727290
248.2575, 1.263027
248.7396, 0.8111660
249.2217, 0.5488040
249.7039, 0.4508890
250.1860, 0.4543470
250.6681, 0.6186640
251.1502, 0.8820900
251.6323, 0.9389320
252.1144, 0.6472000
252.5966, 0.3823500
253.0787, 0.3610380
253.5608, 0.5270860
254.0429, 0.7605800
254.5250, 1.031897
255.0071, 1.322078
255.4893, 1.584455
255.9714, 1.948284
256.4535, 2.043989
256.9356, 1.500806
257.4177, 0.6564180
257.8998, 6.4490996E-02
258.3820, 7.1788996E-02
258.8641, 0.5335840
259.3462, 0.9640360
259.8283, 1.439897
260.3104, 1.736656
260.7925, 1.691405
261.2747, 1.484910
261.7568, 1.356631
262.2389, 1.448874
262.7210, 1.675589
263.2031, 1.800515
263.6852, 1.819433
264.1674, 1.726114
264.6495, 1.401580
265.1316, 1.031328
265.6137, 0.8404640
266.0958, 0.9355370
266.5779, 1.180620
267.0601, 1.225574
267.5422, 0.8646790
268.0243, 0.6756290
268.5064, 0.8705920
268.9885, 1.177464
269.4706, 1.366614
269.9528, 1.355954
270.4349, 1.203824
270.9170, 0.9919340
271.3991, 0.5942430
271.8812, 0.4049290
272.3633, 0.5906660
272.8455, 0.8651470
273.3276, 1.037021
273.8097, 1.056385
274.2918, 0.9817550
274.7739, 0.8845790
275.2560, 0.7006200
275.7382, 0.6405020
276.2202, 0.8223800
276.7024, 1.013142
277.1845, 1.030543
277.6666, 0.8621430
278.1487, 0.6724920
278.6308, 0.6604450
279.1129, 0.9056570
279.5951, 0.9997670
280.0772, 0.7622120
280.5593, 0.5555330
281.0414, 0.6342050
281.5235, 0.9554130
282.0056, 1.266207
282.4878, 1.313536
282.9699, 1.050865
283.4520, 0.8570880
283.9341, 0.7348720
284.4162, 0.6626560
284.8983, 0.7078050
285.3805, 0.8099020
285.8626, 0.8060170
286.3447, 0.5481560
286.8268, 4.4922002E-02
287.3089, 0.2310310
287.7910, 0.2207580
288.2732, 7.0488997E-02
288.7553, 0.3395140
289.2374, 0.8542300
289.7195, 1.167173
290.2016, 1.074517
290.6837, 0.6690160
291.1659, 0.4669730
291.6480, 0.6590590
292.1301, 0.8312940
292.6122, 0.9359620
293.0943, 0.9762540
293.5764, 0.9621050
294.0586, 0.8985860
294.5407, 0.7836170
295.0228, 0.6116340
295.5049, 0.2512070
295.9870, 4.2460002E-03
296.4691, 0.1435070
296.9513, 0.1731470
297.4334, 4.5395002E-02
297.9155, 0.2391240
298.3976, 0.5249860
298.8797, 0.5790220
299.3618, 0.1586000
299.8440, 2.6737001E-02
300.3261, 0.4724650
300.8082, 1.014839
301.2903, 1.236488
301.7724, 1.072762
302.2545, 0.7838200
302.7367, 0.6754400
303.2188, 0.8147340
303.7009, 0.8881330
304.1830, 0.9149700
304.6651, 0.8689390
305.1472, 0.6469470
305.6294, 0.2995500
306.1115, 6.6606998E-02
306.5936, 0.1936550
307.0757, 0.7141170
307.5578, 0.8937590
308.0399, 0.3048940
308.5221, 0.1391280
309.0042, 0.1368930
309.4863, 0.9053170
309.9684, 1.523838
310.4505, 1.563941
310.9326, 1.117837
311.4148, 0.8161490
311.8969, 0.7566310
312.3790, 0.7012750
312.8611, 0.5906300
313.3432, 0.4482910
313.8253, 0.2916550
314.3075, 0.1221640
314.7896, 1.0129000E-02
315.2717, 3.3385001E-02
315.7538, 0.4879120
316.2359, 0.7723870
316.7180, 0.7565200
317.2001, 0.5881820
317.6823, 0.3797520
318.1644, 0.1642460
318.6465, 3.2065999E-02
319.1286, 0.1322050
319.6107, 0.6393340
320.0928, 0.9568100
320.5750, 0.9226400
321.0571, 0.8175970
321.5392, 0.8703860
322.0213, 1.097226
322.5034, 1.355439
322.9855, 1.506677
323.4677, 1.540632
323.9498, 1.517566
324.4319, 1.354506
324.9140, 1.219625
325.3961, 1.233297
325.8782, 1.355372
326.3604, 1.459775
326.8425, 1.465155
327.3246, 1.371897
327.8067, 1.175797
328.2888, 0.7474130
328.7709, 0.3780390
329.2531, 6.1864998E-02
329.7352, 0.1320300
330.2173, 3.3893000E-02
330.6994, 0.4525270
331.1815, 1.136394
331.6636, 1.502269
332.1458, 1.067453
332.6279, 0.9051000
333.1100, 1.333547
333.5921, 1.907251
334.0742, 2.179387
334.5563, 2.016859
335.0385, 1.635336
335.5206, 1.339133
336.0027, 1.176518
336.4848, 0.9759720
336.9669, 0.5220190
337.4490, 0.1974820
337.9312, 0.3807620
338.4133, 1.002470
338.8954, 1.222879
339.3775, 1.642863
339.8596, 1.895848
340.3417, 1.991388
340.8239, 1.455268
341.3060, 1.734109
341.7881, 1.686261
342.2702, 1.625023
342.7523, 2.018600
343.2344, 1.574080
343.7166, 1.962271
344.1987, 2.040947
344.6808, 2.245049
345.1629, 2.126531
345.6450, 1.619808
346.1271, 0.9408390
346.6093, 0.5964060
347.0914, 0.7635300
347.5735, 1.237602
348.0556, 1.658468
348.5377, 2.145745
349.0198, 2.336646
349.5020, 2.082305
349.9841, 1.696675
350.4662, 1.311125
350.9483, 0.9774410
351.4304, 0.7624050
351.9125, 0.7609050
352.3947, 1.010852
352.8768, 1.255304
353.3589, 1.668087
353.8410, 1.901320
354.3231, 1.647839
354.8052, 1.120275
355.2874, 0.7720550
355.7695, 0.9306050
356.2516, 1.479390
356.7337, 1.776804
357.2158, 1.659446
357.6979, 1.493568
358.1800, 1.215988
358.6621, 0.9741100
359.1443, 1.004083
359.6264, 1.393552
360.1085, 1.845345
360.5906, 1.734261
361.0727, 0.6778020
361.5548, 6.5600999E-02
362.0370, 0.3479370
362.5191, 0.8495890
363.0012, 1.234719
363.4833, 1.438586
363.9654, 1.497900
364.4475, 1.412880
364.9297, 1.171434
365.4118, 0.9896280
365.8939, 0.9222020
366.3760, 0.8484160
366.8581, 0.7211680
367.3402, 0.5650510
367.8224, 0.4530620
368.3045, 0.4465890
368.7866, 0.4996060
369.2687, 0.4599290
369.7508, 0.2611450
370.2329, 0.1187070
370.7151, 0.1282320
371.1972, 0.2134030
371.6793, 0.3228700
372.1614, 0.4484390
372.6435, 0.5373090
373.1256, 0.5013770
373.6078, 0.3305600
374.0899, 0.1816860
374.5720, 3.0934000E-02
375.0541, 8.9330003E-02
375.5362, 0.3278400
376.0183, 1.153997
376.5005, 1.762926
376.9826, 1.502549
377.4647, 0.6475950
377.9468, 0.2157740
378.4289, 0.3988720
378.9110, 0.7165430
379.3932, 0.8466050
379.8753, 0.8932700
380.3574, 1.008379
380.8395, 1.369463
381.3216, 1.719792
381.8037, 1.636972
382.2859, 1.109249
382.7680, 0.7261750
383.2501, 0.8287440
383.7322, 1.176629
384.2143, 1.391420
384.6964, 1.467738
385.1786, 1.401611
385.6607, 1.061009
386.1428, 0.6160510
386.6249, 0.3465340
387.1070, 0.4005640
387.5891, 0.5702660
388.0713, 0.6260160
388.5534, 0.5769260
389.0355, 0.5610990
389.5176, 0.7099420
389.9997, 0.8405900
390.4818, 0.6785290
390.9640, 0.2372270
391.4461, 8.3012000E-02
391.9282, 1.8491000E-02
392.4103, 0.4740080
392.8924, 0.8531110
393.3745, 1.256467
393.8567, 1.483711
394.3388, 1.323165
394.8209, 0.9447900
395.3030, 0.7031260
395.7851, 0.7413250
396.2672, 0.8847210
396.7494, 0.8036410
397.2315, 0.3158860
397.7136, 4.6696998E-02
398.1957, 0.1353320
398.6778, 0.3752250
399.1599, 0.7058310
399.6420, 1.061948
400.1241, 1.203675
400.6063, 0.8551330
401.0884, 1.3376000E-02
401.5705, 0.3740060
402.0526, 0.2568060
402.5347, 0.7838790
403.0168, 0.7439060
403.4990, 0.4051180
403.9811, 0.2603830
404.4632, 0.5503530
404.9453, 1.053018
405.4274, 1.219874
405.9095, 0.8096980
406.3917, 0.4529760
406.8738, 0.1309040
407.3559, 0.1084000
407.8380, 0.2162930
408.3201, 0.1974630
408.8022, 0.1111190
409.2844, 1.4037000E-02
409.7665, 9.1660000E-02
410.2486, 0.2438160
410.7307, 0.6065110
411.2128, 0.8292500
411.6949, 0.6822700
412.1771, 0.3540810
412.6592, 0.1684730
413.1413, 0.3082690
413.6234, 0.5966580
414.1055, 0.5994720
414.5876, 0.1497810
415.0698, 7.3701002E-02
415.5519, 0.4224940
416.0340, 0.9777250
416.5161, 1.087667
416.9982, 0.7121110
417.4803, 0.2675560
417.9625, 0.1148120
418.4446, 0.2116550
418.9267, 0.2545190
419.4088, 0.1812230
419.8909, 0.1299290
420.3730, 0.2050250
420.8552, 0.3627230
421.3373, 0.5160030
421.8194, 0.6274720
422.3015, 0.7302280
422.7836, 0.9482620
423.2657, 1.278350
423.7479, 1.498384
424.2300, 1.478385
424.7121, 1.333699
425.1942, 1.271948
425.6763, 1.324767
426.1584, 1.301008
426.6406, 0.9674050
427.1227, 0.5466430
427.6048, 0.4763110
428.0869, 0.8493490
428.5690, 1.292686
429.0511, 1.474195
429.5333, 1.383266
430.0154, 1.291968
430.4975, 1.209516
430.9796, 1.118809
431.4617, 1.036869
431.9438, 0.9408030
432.4260, 0.7389310
432.9081, 0.3681100
433.3902, 4.6765000E-02
433.8723, 0.2240550
434.3544, 3.8945999E-02
434.8365, 0.1940570
435.3187, 0.6714020
435.8008, 1.056257
436.2829, 0.9062600
436.7650, 0.2773990
437.2471, 0.2551370
437.7292, 0.1141540
438.2114, 0.7250910
438.6935, 1.278089
439.1756, 1.437137
439.6577, 1.422293
440.1398, 1.051046
440.6219, 0.6068160
441.1040, 0.5681910
441.5862, 1.133085
442.0683, 1.834460
442.5504, 1.679167
443.0325, 0.1789150
443.5146, 0.6741340
443.9967, 0.1067390
444.4789, 0.6455560
444.9610, 1.002589
445.4431, 0.9667520
445.9252, 0.8011670
446.4073, 0.6657750
446.8894, 0.5519910
447.3716, 0.4021550
447.8537, 0.1517860
448.3358, 2.8534999E-02
448.8179, 0.3045950
449.3000, 0.6803180
449.7821, 0.7872900
450.2643, 0.4718880
450.7464, 0.2241160
451.2285, 0.6600690
451.7106, 1.598220
452.1927, 2.068838
452.6748, 1.757324
453.1570, 1.189577
453.6391, 0.8688810
454.1212, 0.7444040
454.6033, 0.6089670
455.0854, 0.3331260
455.5675, 8.7357998E-02
456.0497, 7.6081000E-02
456.5318, 0.2626660
457.0139, 0.4023590
457.4960, 0.3522520
457.9781, 0.1988270
458.4602, 0.1903240
458.9424, 0.4199140
459.4245, 0.5487220
459.9066, 0.4402790
460.3887, 0.2977350
460.8708, 0.4121510
461.3529, 0.7957620
461.8351, 1.179262
462.3172, 1.314181
462.7993, 1.194108
463.2814, 0.9898310
463.7635, 0.4990980
464.2456, 0.1611210
464.7278, 0.1343930
465.2099, 0.3020760
465.6920, 0.5589250
466.1741, 0.8649860
466.6562, 1.123367
467.1383, 1.121934
467.6205, 0.7123590
468.1026, 0.4876850
468.5847, 0.6130370
469.0668, 0.7971980
469.5489, 0.9495670
470.0310, 1.055212
470.5132, 1.096583
470.9953, 1.020094
471.4774, 0.9112920
471.9595, 1.054175
472.4416, 1.543653
472.9237, 1.942170
473.4059, 2.161968
473.8880, 2.181540
474.3701, 1.900259
474.8522, 1.296079
475.3343, 0.7255400
475.8164, 0.3618100
476.2986, 0.2108070
476.7807, 0.3967650
477.2628, 1.022882
477.7449, 1.482005
478.2270, 1.099027
478.7091, 0.1480140
479.1913, 0.2007400
479.6734, 0.6803160
480.1555, 1.540917
480.6376, 1.619270
481.1197, 1.223205
481.6018, 1.023042
482.0839, 1.245346
482.5660, 1.605283
483.0482, 1.703066
483.5303, 1.445138
484.0124, 1.242164
484.4945, 1.011714
484.9766, 0.9089320
485.4587, 1.156235
485.9409, 1.624039
486.4230, 1.916951
486.9051, 1.878006
487.3872, 1.625679
487.8693, 1.488480
488.3514, 1.527679
488.8336, 1.569653
489.3157, 1.625983
489.7978, 1.661680
490.2799, 1.611035
490.7620, 1.502228
491.2441, 1.463917
491.7263, 1.668514
492.2084, 2.035676
492.6905, 2.107048
493.1726, 1.758299
493.6547, 1.456121
494.1368, 1.349449
494.6190, 1.409634
495.1011, 1.715681
495.5832, 2.338670
496.0653, 2.811677
496.5474, 2.696118
497.0295, 2.179706
497.5117, 1.754769
497.9938, 1.493728
498.4759, 1.317369
498.9580, 1.128630
499.4401, 0.9658640
499.9222, 1.004379
500.4044, 1.462193
500.8865, 1.909421
501.3686, 2.127409
501.8507, 2.206118
502.3328, 2.116317
502.8149, 1.844655
503.2971, 1.487066
503.7792, 1.165176
504.2613, 0.8500000
504.7434, 0.6888360
505.2255, 0.7644020
505.7076, 0.8938500
506.1898, 1.019800
506.6719, 1.130328
507.1540, 1.221501
507.6361, 1.292869
508.1182, 1.332290
508.6003, 1.306610
509.0825, 1.195081
509.5646, 1.073669
510.0467, 0.7821650
510.5288, 0.6260420
511.0109, 0.9033140
511.4930, 1.498071
511.9752, 1.981002
512.4573, 2.070079
512.9394, 1.877799
513.4215, 1.588400
513.9036, 1.153121
514.3857, 0.9387780
514.8679, 1.221496
515.3500, 1.702550
515.8321, 2.001942
516.3142, 2.101237
516.7963, 2.120582
517.2784, 2.119029
517.7606, 2.064499
518.2427, 1.856472
518.7248, 1.500387
519.2069, 1.225106
519.6890, 1.206863
520.1711, 1.383959
520.6533, 1.448972
521.1354, 1.359208
521.6175, 1.235013
522.0996, 0.9990870
522.5817, 0.7931510
523.0638, 0.8395000
523.5460, 1.125644
524.0281, 1.360409
524.5102, 1.234605
524.9923, 0.7629110
525.4744, 0.4923150
525.9565, 0.6464450
526.4387, 0.7172540
526.9208, 0.5210830
527.4029, 0.2372680
527.8850, 4.5203999E-02
528.3671, 3.8784001E-02
528.8492, 2.5930000E-03
529.3314, 0.2741500
529.8135, 0.7429900
530.2956, 1.097868
530.7777, 1.333431
531.2598, 1.426967
531.7419, 1.234221
532.2241, 0.9177170
532.7062, 0.7485780
533.1883, 0.8360930
533.6704, 0.9555860
534.1525, 0.9075290
534.6346, 0.7810210
535.1168, 0.8199960
535.5989, 1.093013
536.0810, 1.385705
536.5631, 1.463378
537.0452, 1.301563
537.5273, 1.275660
538.0095, 1.610391
538.4916, 1.794175
538.9737, 1.489136
539.4558, 0.9638470
539.9379, 0.6297470
540.4200, 0.6168210
540.9022, 0.7432380
541.3843, 0.7781830
541.8664, 0.7283610
542.3485, 0.5412020
542.8306, 0.2343020
543.3127, 0.6411830
543.7948, 1.2832000E-02
544.2769, 1.069958
544.7590, 1.689771
545.2411, 1.478878
545.7233, 0.9734360
546.2054, 0.8719820
546.6875, 1.136165
547.1696, 1.181038
547.6517, 0.8396230
548.1339, 0.4147830
548.6160, 3.5321001E-02
549.0981, 0.2414910
549.5802, 0.1847910
550.0623, 0.6772660
550.5444, 1.428127
551.0266, 1.365800
551.5087, 0.7570920
551.9908, 0.1256490
552.4729, 0.3839500
552.9550, 0.6084480
553.4371, 0.2676290
553.9193, 0.8106320
554.4014, 1.401634
554.8835, 1.168979
555.3656, 0.8968250
555.8477, 0.8666910
556.3298, 0.9787650
556.8120, 1.039126
557.2941, 0.9814920
557.7762, 0.9378750
558.2583, 1.165509
558.7404, 1.728909
559.2225, 2.009158
559.7047, 1.857339
560.1868, 1.572764
560.6689, 1.168354
561.1510, 0.7712350
561.6331, 0.6256470
562.1152, 0.8803160
562.5974, 1.190698
563.0795, 1.218273
563.5616, 1.033401
564.0437, 0.8795710
564.5258, 0.7974650
565.0079, 0.7889290
565.4901, 0.8959550
565.9722, 1.104617
566.4543, 1.176337
566.9364, 0.9830520
567.4185, 0.8006620
567.9006, 0.7061540
568.3828, 0.6986810
568.8649, 0.8375090
569.3470, 1.073291
569.8291, 1.273397
570.3112, 1.238492
570.7933, 0.9483820
571.2755, 0.7850200
571.7576, 0.7914620
572.2397, 0.8805420
572.7218, 1.148872
573.2039, 1.427533
573.6860, 1.495327
574.1682, 1.303281
574.6503, 1.072126
575.1324, 1.059439
575.6145, 1.194813
576.0966, 1.131181
576.5787, 0.7535060
577.0609, 0.4405400
577.5430, 0.4497500
578.0251, 0.6783270
578.5072, 0.8751450
578.9893, 1.070902
579.4714, 1.154533
579.9536, 1.021554
580.4357, 0.7856510
580.9178, 0.5346690
581.3999, 0.3048580
581.8820, 0.1970780
582.3641, 0.3014680
582.8463, 0.5826840
583.3284, 0.8453830
583.8105, 1.322541
584.2926, 1.421586
584.7747, 0.5659180
585.2568, 0.2622750
585.7390, 0.1165750
586.2211, 0.8683090
586.7032, 1.711137
587.1853, 1.623924
587.6674, 0.9503930
588.1495, 0.6355330
588.6317, 0.7309900
589.1138, 0.8701790
589.5959, 0.9711420
590.0780, 1.031287
590.5601, 1.028440
591.0422, 0.9640070
591.5244, 0.9480120
592.0065, 1.035815
592.4886, 1.169082
592.9707, 1.356249
593.4528, 1.550605
593.9349, 1.562699
594.4171, 1.287870
594.8992, 0.9563910
595.3813, 1.008949
595.8634, 1.722928
596.3455, 2.010041
596.8276, 1.521071
597.3098, 1.053565
597.7919, 0.9508470
598.2740, 1.096538
598.7561, 1.269786
599.2382, 1.384767
599.7203, 1.465151
600.2025, 1.547654
600.6846, 1.613469
601.1667, 1.663197
601.6488, 1.842730
602.1309, 1.907077
602.6130, 1.599230
603.0952, 1.097194
603.5773, 0.7346420
604.0594, 0.5828370
604.5415, 0.5171160
605.0236, 0.4898000
605.5057, 0.5046760
605.9879, 0.5818550
606.4700, 0.7158290
606.9521, 0.7972520
607.4342, 0.7604150
607.9163, 0.6365180
608.3984, 0.5519170
608.8806, 0.5485330
609.3627, 0.5281520
609.8448, 0.4604390
610.3269, 0.3615200
610.8090, 0.2502220
611.2911, 0.1819900
611.7733, 0.2209870
612.2554, 0.4384670
612.7375, 0.7289090
613.2196, 0.8227130
613.7017, 0.6997780
614.1838, 0.6106660
614.6660, 0.6794100
615.1481, 0.7537540
615.6302, 0.5812320
616.1123, 0.1846490
616.5944, 8.6629996E-03
617.0765, 0.2283990
617.5587, 0.5622590
618.0408, 0.8680210
618.5229, 1.085455
619.0050, 1.053746
619.4871, 0.7230760
619.9692, 0.3249630
620.4514, 0.1741060
620.9335, 0.3003700
621.4156, 0.4452910
621.8977, 0.7189140
622.3798, 0.8754780
622.8619, 0.6992750
623.3441, 0.4497210
623.8262, 0.5184830
624.3083, 0.9827910
624.7904, 1.321643
625.2725, 0.8701540
625.7546, 2.3185000E-02
626.2367, 0.3288040
626.7188, 4.7759999E-02
627.2009, 0.4917410
627.6830, 0.6976580
628.1652, 0.7602950
628.6473, 0.9369420
629.1294, 1.358023
629.6115, 1.473371
630.0936, 0.8023970
630.5757, 0.1576690
631.0579, 0.3574730
631.5400, 1.122946
632.0221, 1.515967
632.5042, 1.049674
632.9863, 0.1985650
633.4684, 0.1680250
633.9506, 1.1451000E-02
634.4327, 0.3956180
634.9148, 1.297289
635.3969, 1.972986
635.8790, 1.982166
636.3611, 1.562407
636.8433, 1.087896
637.3254, 0.6040520
637.8075, 0.2371150
638.2896, 0.1248120
638.7717, 0.1826250
639.2538, 0.2591980
639.7360, 0.3321440
640.2181, 0.4194520
640.7002, 0.5411560
641.1823, 0.6791440
641.6644, 0.7614460
642.1465, 0.7078730
642.6287, 0.7086610
643.1108, 0.8718690
643.5929, 0.9902510
644.0750, 0.8132160
644.5571, 0.4398890
645.0392, 0.2191260
645.5214, 0.3745210
646.0035, 0.6792420
646.4856, 0.6993090
646.9677, 0.4365840
647.4498, 0.3744280
647.9319, 0.6720930
648.4141, 1.032178
648.8962, 1.270913
649.3783, 1.375552
649.8604, 1.277839
650.3425, 0.7094510
650.8246, 0.2958300
651.3068, 0.4933030
651.7889, 0.8714360
652.2710, 0.7901530
652.7531, 0.2480840
653.2352, 0.1468090
653.7173, 0.1137530
654.1995, 0.8329080
654.6816, 1.192202
655.1637, 1.083897
655.6458, 0.8698600
656.1279, 0.3736150
656.6100, 1.6586000E-02
657.0922, 6.2826000E-02
657.5743, 0.4627100
658.0564, 0.6400270
658.5385, 0.1997680
659.0206, 0.2809370
659.5027, 0.2071160
659.9849, 0.2678990
660.4670, 0.8029320
660.9491, 1.304811
661.4312, 1.533227
661.9133, 1.152180
662.3954, 0.2421370
662.8776, 4.2511001E-02
663.3597, 1.020949
663.8418, 1.768054
664.3239, 1.934676
664.8060, 1.808118
665.2881, 1.525188
665.7703, 1.164769
666.2524, 0.8633570
666.7345, 0.7169430
667.2166, 0.6617130
667.6987, 0.5129120
668.1808, 0.2802690
668.6630, 0.4167000
669.1451, 1.224220
669.6272, 1.951878
670.1093, 1.731462
670.5914, 0.6553780
671.0735, 1.7006001E-02
671.5557, 7.0224002E-02
672.0378, 0.2762270
672.5199, 0.5850760
673.0020, 0.8884200
673.4841, 1.072689
673.9662, 1.125413
674.4484, 1.080000
674.9305, 0.9295930
675.4126, 0.7594060
675.8947, 0.9373370
676.3768, 1.611281
676.8589, 1.967319
677.3411, 1.687585
677.8232, 1.210285
678.3053, 0.8342010
678.7874, 0.5543990
679.2695, 0.3581890
679.7516, 0.2258010
680.2338, 0.2579380
680.7159, 0.6559690
681.1980, 1.170308
681.6801, 1.301585
682.1622, 0.9967840
682.6443, 0.6186980
683.1265, 0.4484880
683.6086, 0.4685850
684.0907, 0.6034760
684.5728, 1.005080
685.0549, 1.293548
685.5370, 1.537896
686.0192, 1.546375
686.5013, 0.9630380
686.9834, 3.9367002E-02
687.4655, 0.5151170
687.9476, 0.3542060
688.4297, 0.1121020
688.9119, 0.6842340
689.3940, 1.258697
689.8761, 1.576938
690.3582, 1.597083
690.8403, 1.447274
691.3224, 1.179466
691.8046, 0.8639350
692.2867, 0.7185940
692.7688, 0.9641290
693.2509, 1.019143
693.7330, 0.5398650
694.2151, 0.1714760
694.6973, 0.5245900
695.1794, 1.285810
695.6615, 1.609271
696.1436, 1.026343
696.6257, 0.2587030
697.1078, 0.1382230
697.5900, 0.4970030
698.0721, 0.7628820
698.5542, 0.8546500
699.0363, 0.8437550
699.5184, 0.7223450
700.0005, 0.5740580
700.4827, 0.7037650
700.9648, 1.471694
701.4469, 1.925217
701.9290, 1.965072
702.4111, 1.769779
702.8932, 1.215263
703.3754, 0.5520440
703.8575, 0.2882060
704.3396, 0.6570390
704.8217, 1.166359
705.3038, 1.175195
705.7859, 0.7966360
706.2681, 0.5693690
706.7502, 0.5438500
707.2323, 0.6358660
707.7144, 0.8739360
708.1965, 1.137957
708.6786, 1.127086
709.1607, 0.7287290
709.6428, 0.4129750
710.1249, 0.1731930
710.6071, 2.9622000E-02
711.0892, 2.9671000E-02
711.5713, 0.1469520
712.0534, 0.3195200
712.5355, 0.5243470
713.0176, 0.6915050
713.4998, 0.7007760
713.9819, 0.5943960
714.4640, 0.6269880
714.9461, 0.8341290
715.4282, 0.9992310
715.9103, 1.056795
716.3925, 0.9960830
716.8746, 0.6982230
717.3567, 0.1287770
717.8388, 0.1276660
718.3209, 0.2553240
718.8030, 0.6292660
719.2852, 0.6616950
719.7673, 0.5106330
720.2494, 0.3752090
720.7315, 0.3149350
721.2136, 0.3476400
721.6957, 0.5178380
722.1779, 0.7670790
722.6600, 0.8423780
723.1421, 0.7090960
723.6242, 0.7360860
724.1063, 1.139651
724.5884, 1.564487
725.0706, 1.609527
725.5527, 1.299730
726.0348, 0.9792360
726.5169, 0.5112940
726.9990, 0.2342130
727.4811, 0.3777270
727.9633, 0.6861740
728.4454, 0.9372740
728.9275, 1.070008
729.4096, 1.035985
729.8917, 0.7590480
730.3738, 0.4048430
730.8560, 0.3705160
731.3381, 0.6677890
731.8202, 0.8683630
732.3023, 0.8850150
732.7844, 0.8380940
733.2665, 0.7639020
733.7487, 0.7010240
734.2308, 0.7977600
734.7129, 1.246709
735.1950, 1.489742
735.6771, 1.386201
736.1592, 1.059855
736.6414, 0.3212530
737.1235, 0.5300910
737.6056, 0.7724730
738.0877, 6.8815999E-02
738.5698, 0.9623010
739.0519, 1.551816
739.5341, 1.714277
740.0162, 1.459153
740.4983, 0.6410900
740.9804, 0.1319900
741.4625, 0.5568630
741.9446, 1.369764
742.4268, 1.491698
742.9089, 0.7467360
743.3910, 0.2944260
743.8731, 0.4946200
744.3552, 0.7185400
744.8373, 0.5984690
745.3195, 0.3071860
745.8016, 0.2065740
746.2837, 0.3768280
746.7658, 0.6087360
747.2479, 0.7420130
747.7300, 0.8144870
748.2122, 0.9112030
748.6943, 1.031799
749.1764, 1.288399
749.6585, 1.826482
750.1406, 2.199302
750.6227, 1.839713
751.1049, 0.7786170
751.5870, 0.1213330
752.0691, 1.2512000E-02
752.5512, 7.5581998E-02
753.0333, 0.4033570
753.5154, 0.7524880
753.9976, 0.9126970
754.4797, 0.9076790
754.9618, 0.8904210
755.4439, 0.9489960
755.9260, 1.027432
756.4081, 1.022521
756.8903, 0.9805370
757.3724, 1.065058
757.8545, 1.307027
758.3366, 1.466169
758.8187, 1.379429
759.3008, 1.129875
759.7830, 0.9180380
760.2651, 0.7254170
760.7472, 0.6249920
761.2293, 0.6321510
761.7114, 0.6839490
762.1935, 0.8410170
762.6757, 0.9844320
763.1578, 0.8619280
763.6399, 0.4396090
764.1220, 0.2202720
764.6041, 0.9157320
765.0862, 1.829659
765.5684, 1.761919
766.0505, 0.8939020
766.5326, 0.1575600
767.0147, 0.1553900
767.4968, 0.1741620
767.9789, 1.1362000E-02
768.4611, 0.3231380
768.9432, 0.6127630
769.4253, 0.8160300
769.9074, 1.050031
770.3895, 1.528573
770.8716, 1.872252
771.3538, 1.689885
771.8359, 1.144908
772.3180, 0.7950860
772.8001, 0.9217900
773.2822, 1.068469
773.7643, 0.8458840
774.2465, 0.4906690
774.7286, 0.3391480
775.2107, 0.4127140
775.6928, 0.6008670
776.1749, 0.8802720
776.6570, 1.158764
777.1392, 1.269389
777.6213, 1.191721
778.1034, 1.081050
778.5855, 0.8665210
779.0676, 0.7640070
779.5497, 1.017671
780.0319, 1.346015
780.5140, 1.330622
780.9961, 0.9326080
781.4782, 0.6826240
781.9603, 0.9407310
782.4424, 1.133927
782.9246, 0.8000580
783.4067, 0.2481030
783.8888, 0.1036700
784.3709, 0.1533800
784.8530, 5.6781001E-02
785.3351, 0.5758150
785.8173, 1.200608
786.2994, 1.380554
786.7815, 1.114182
787.2636, 0.8035130
787.7457, 0.4446410
788.2278, 0.3262110
788.7100, 0.8256320
789.1921, 1.707060
789.6742, 2.008552
790.1563, 1.338777
790.6384, 0.8393250
791.1205, 0.6404920
791.6026, 0.5556020
792.0847, 0.5018000
792.5668, 0.4807970
793.0490, 0.5349540
793.5311, 0.6739140
794.0132, 0.7802610
794.4953, 0.7220190
794.9774, 0.5492600
795.4595, 0.4459830
795.9417, 0.4565440
796.4238, 0.3946280
796.9059, 0.1923680
797.3880, 0.1012900
797.8701, 0.4536950
798.3522, 1.202436
798.8344, 1.535138
799.3165, 1.234262
799.7986, 0.9378470
800.2807, 0.5799150
800.7628, 0.4072820
801.2449, 0.7709570
801.7271, 1.434448
802.2092, 1.734603
802.6913, 1.376920
803.1734, 0.9969170
803.6555, 0.9226680
804.1376, 0.9884790
804.6198, 0.9983430
805.1019, 0.9847230
805.5840, 1.154511
806.0661, 1.589397
806.5482, 1.977160
807.0303, 1.803484
807.5125, 1.153854
807.9946, 0.8809380
808.4767, 1.050293
808.9588, 1.227709
809.4409, 1.280490
809.9230, 1.268561
810.4052, 1.296729
810.8873, 1.360036
811.3694, 1.175321
811.8515, 0.4401120
812.3336, 0.1273160
812.8157, 0.4454590
813.2979, 0.4931930
813.7800, 0.1100290
814.2621, 0.5513070
814.7442, 1.137414
815.2263, 1.515361
815.7084, 1.699386
816.1906, 1.698086
816.6727, 1.511330
817.1548, 0.9449320
817.6369, 9.9303000E-02
818.1190, 0.1997520
818.6011, 0.4588490
819.0833, 1.364642
819.5654, 1.437090
820.0475, 0.6322350
820.5296, 0.2635260
821.0117, 0.4927600
821.4938, 0.8281040
821.9760, 1.325646
822.4581, 1.720417
822.9402, 1.781590
823.4223, 1.547088
823.9044, 1.186947
824.3865, 0.4712860
824.8687, 2.1383001E-02
825.3508, 0.3883840
825.8329, 0.9249860
826.3150, 0.9151820
826.7971, 0.4909190
827.2792, 0.2009180
827.7614, 0.2878700
828.2435, 0.5240790
828.7256, 0.6762260
829.2077, 0.7443200
829.6898, 0.6809220
830.1719, 0.4864820
830.6541, 0.4199300
831.1362, 0.6115990
831.6183, 0.8334500
832.1004, 0.7856150
832.5825, 0.4746210
833.0646, 0.3844820
833.5468, 0.7686410
834.0289, 0.9787010
834.5110, 0.7404970
834.9931, 0.5001590
835.4752, 0.5853990
835.9573, 0.8861620
836.4395, 1.092090
836.9216, 1.095691
837.4037, 1.096347
837.8858, 1.244732
838.3679, 1.407761
838.8500, 1.497142
839.3322, 1.475444
839.8143, 1.190312
840.2964, 0.6233470
840.7785, 0.1695350
841.2606, 0.3587270
841.7427, 0.9725110
842.2249, 1.113478
842.7070, 0.7673650
843.1891, 0.5560200
843.6712, 0.6456000
844.1533, 0.8759120
844.6354, 1.191377
845.1176, 1.519599
845.5997, 1.493229
846.0818, 0.6680110
846.5639, 0.1958070
847.0460, 0.2318590
847.5281, 0.4383960
848.0103, 0.7916370
848.4924, 1.155421
848.9745, 1.360187
849.4566, 1.346910
849.9387, 1.229555
850.4208, 0.9558350
850.9030, 0.6966620
851.3851, 0.5845080
851.8672, 0.6084940
852.3493, 0.8284440
852.8314, 1.196915
853.3135, 1.404021
853.7957, 1.182261
854.2778, 0.7492910
854.7599, 0.6273060
855.2420, 0.7879230
855.7241, 0.7236100
856.2062, 0.3118870
856.6884, 4.6758000E-02
857.1705, 0.2654500
857.6526, 0.7014010
858.1347, 0.8130190
858.6168, 0.4746720
859.0989, 0.4117830
859.5811, 0.9160980
860.0632, 1.311007
860.5453, 1.436449
861.0274, 1.394593
861.5095, 1.244322
861.9916, 1.010435
862.4738, 0.7331490
862.9559, 0.3165660
863.4380, 8.6829998E-02
863.9201, 0.3438820
864.4022, 0.7870380
864.8843, 1.068474
865.3665, 1.172803
865.8486, 1.164465
866.3307, 1.074890
866.8128, 0.9663170
867.2949, 0.8604570
867.7770, 0.8116220
868.2592, 1.158363
868.7413, 1.903377
869.2234, 2.091611
869.7055, 1.341896
870.1876, 0.4480530
870.6697, 0.1542540
871.1519, 0.3565720
871.6340, 0.4041760
872.1161, 3.0285001E-02
872.5981, 3.8945999E-02
873.0803, 0.5409030
873.5624, 1.093584
874.0445, 1.342464
874.5266, 1.390923
875.0087, 1.389733
875.4908, 1.357176
875.9730, 1.260504
876.4551, 0.9746450
876.9372, 0.7730550
877.4193, 0.9472620
877.9014, 1.246059
878.3835, 1.337451
878.8657, 1.193257
879.3478, 0.9418940
879.8299, 0.6223250
880.3120, 0.3790780
880.7941, 0.4955360
881.2762, 0.8456200
881.7584, 1.041500
882.2405, 1.053906
882.7226, 0.8746990
883.2047, 0.4644110
883.6868, 0.1570260
884.1689, 0.4917340
884.6511, 1.433212
885.1332, 1.752971
885.6153, 1.173815
886.0974, 0.7430110
886.5795, 0.7615140
887.0616, 0.8574970
887.5438, 0.6916380
888.0259, 0.3844950
888.5080, 0.3087010
888.9901, 0.5717640
889.4722, 0.8279440
889.9543, 1.176112
890.4365, 1.346407
890.9186, 1.064428
891.4007, 0.5864420
891.8828, 0.2016050
892.3649, 1.9706000E-02
892.8470, 3.9616000E-02
893.3292, 0.2684210
893.8113, 0.6535980
894.2934, 0.8952050
894.7755, 1.037155
895.2576, 1.173169
895.7397, 1.292310
896.2219, 1.284692
896.7040, 1.091232
897.1861, 0.7902870
897.6682, 0.3950560
898.1503, 3.9754000E-02
898.6324, 3.1507000E-02
899.1146, 0.4468560
899.5967, 1.053008
900.0788, 1.787734
900.5609, 2.219837
901.0430, 1.812948
901.5251, 0.7558990
902.0073, 0.2536070
902.4894, 0.6912150
902.9715, 0.8867100
903.4536, 0.5582580
903.9357, 0.2756860
904.4178, 0.4005240
904.9000, 0.6488720
905.3821, 0.5472230
905.8642, 2.7703000E-02
906.3463, 0.2124570
906.8284, 0.2975660
907.3105, 0.7635440
907.7927, 0.7468290
908.2748, 0.5547400
908.7569, 0.4946060
909.2390, 0.5735110
909.7211, 0.6905680
910.2032, 0.8257100
910.6854, 0.8356550
911.1675, 0.4279800
911.6496, 0.1006690
912.1317, 0.2293170
912.6138, 3.0909000E-02
913.0959, 0.1790010
913.5781, 0.2964020
914.0602, 0.3026170
914.5423, 0.1060870
915.0244, 9.0075001E-02
915.5065, 0.5952990
915.9886, 2.176857
916.4708, 2.611011
916.9529, 1.431345
917.4350, 0.2895260
917.9171, 9.2092000E-02
918.3992, 0.4514780
918.8813, 0.7353360
919.3635, 0.9727560
919.8456, 0.9011130
920.3277, 0.1591310
920.8098, 0.2975900
921.2919, 9.6650003E-03
921.7740, 0.4187410
922.2562, 0.3758710
922.7383, 8.5395001E-02
923.2204, 0.2488060
923.7025, 1.335364
924.1846, 1.868044
924.6667, 0.8608310
925.1489, 0.1474240
925.6310, 0.1339730
926.1131, 0.4064090
926.5952, 0.7592580
927.0773, 0.8188790
927.5594, 0.9067770
928.0416, 1.284516
928.5237, 1.617962
929.0058, 1.579795
929.4879, 1.311068
929.9700, 0.9295120
930.4521, 0.5274850
930.9343, 0.3447410
931.4164, 0.4765670
931.8985, 0.7461110
932.3806, 1.019804
932.8627, 1.237828
933.3448, 1.100612
933.8270, 0.6577090
934.3091, 0.5062980
934.7912, 0.7891780
935.2733, 1.126560
935.7554, 1.264277
936.2375, 1.236584
936.7197, 1.074716
937.2018, 0.7081340
937.6839, 0.7274550
938.1660, 1.262997
938.6481, 1.726943
939.1302, 2.020583
939.6124, 2.098525
940.0945, 1.809793
940.5766, 1.215170
941.0587, 0.8876200
941.5408, 0.8652150
942.0229, 1.037930
942.5051, 1.859839
942.9872, 2.371730
943.4693, 1.744842
943.9514, 0.7142100
944.4335, 0.3476390
944.9156, 0.7530700
945.3978, 1.101816
945.8799, 1.093975
946.3620, 0.9814500
946.8441, 0.7174910
947.3262, 0.5454050
947.8083, 0.8736020
948.2905, 1.491763
948.7726, 1.822887
949.2547, 1.653351
949.7368, 1.290191
950.2189, 0.7907670
950.7010, 0.3918410
951.1832, 0.5737970
951.6653, 1.080727
952.1474, 1.248556
952.6295, 0.9996260
953.1116, 0.7519970
953.5938, 0.7753670
954.0759, 0.9305890
954.5580, 0.9888190
955.0400, 0.9717940
955.5222, 1.018992
956.0043, 1.130711
956.4864, 1.127092
956.9685, 0.9342390
957.4506, 0.7590190
957.9327, 0.8138440
958.4149, 1.041145
958.8970, 1.242846
959.3791, 1.487100
959.8612, 1.300623
960.3433, 0.4315810
960.8254, 0.2778080
961.3076, 0.3917840
961.7897, 0.2035560
962.2718, 9.2952996E-02
962.7539, 6.2385000E-02
963.2360, 1.2778000E-02
963.7181, 0.1054350
964.2003, 0.2743020
964.6824, 0.6410880
965.1645, 0.9972640
965.6466, 1.314431
966.1287, 1.522955
966.6108, 1.443261
967.0930, 1.016697
967.5751, 0.7712050
968.0572, 0.9343040
968.5393, 1.151194
969.0214, 1.406353
969.5035, 1.546502
969.9857, 1.333613
970.4678, 0.9307740
970.9499, 0.6944290
971.4320, 0.7643520
971.9141, 0.8691380
972.3962, 0.7751910
972.8784, 0.7149790
973.3605, 1.100073
973.8426, 1.573123
974.3247, 1.419792
974.8068, 0.7200980
975.2889, 0.3122460
975.7711, 0.7065120
976.2532, 1.277990
976.7353, 1.379964
977.2174, 1.152806
977.6995, 0.6958710
978.1816, 0.1440090
978.6638, 7.7178001E-02
979.1459, 0.1663870
979.6280, 0.5631100
980.1101, 0.9000950
980.5922, 1.154222
981.0743, 1.274907
981.5565, 1.264503
982.0386, 1.099065
982.5207, 0.7832170
983.0028, 0.4744870
983.4849, 0.2428040
983.9670, 0.1320800
984.4492, 0.1979460
984.9313, 0.3838110
985.4134, 0.4004240
985.8955, 0.2150590
986.3776, 9.8162003E-02
986.8597, 6.6609003E-02
987.3419, 0.1597680
987.8240, 0.4589320
988.3061, 0.7753800
988.7882, 0.8208970
989.2703, 0.5995700
989.7524, 0.4750470
990.2346, 0.5062600
990.7167, 0.5092520
991.1988, 0.4297730
991.6809, 0.3633410
992.1630, 0.3706300
992.6451, 0.4216070
993.1273, 0.5008640
993.6094, 0.6423470
994.0915, 0.5626770
994.5736, 9.9848002E-02
995.0557, 0.4857340
995.5378, 0.2739780
996.0200, 0.1083040
996.5021, 0.4486580
996.9842, 0.7297350
997.4663, 0.9345530
997.9484, 1.050116
998.4305, 1.165214
998.9127, 1.389166
999.3948, 1.507142
999.8769, 1.260054
1000.359, 1.001015
1000.841, 1.223048
1001.323, 1.694368
1001.805, 1.682629
1002.287, 0.8956050
1002.770, 0.2631860
1003.252, 0.3396360
1003.734, 0.6594650
1004.216, 1.067695
1004.698, 1.398796
1005.180, 1.390163
1005.662, 1.099038
1006.144, 0.9253160
1006.627, 1.061634
1007.109, 1.200875
1007.591, 1.012381
1008.073, 0.7537660
1008.555, 0.7274830
1009.037, 0.8648460
1009.519, 1.092588
1010.001, 1.331682
1010.483, 1.323409
1010.966, 0.8813020
1011.448, 0.4108220
1011.930, 0.4844150
1012.412, 0.8254740
1012.894, 0.8757250
1013.376, 0.7021080
1013.858, 0.5949060
1014.340, 0.6183120
1014.823, 0.6640170
1015.305, 0.6532770
1015.787, 0.6397100
1016.269, 0.7608840
1016.751, 0.9523290
1017.233, 0.9165060
1017.715, 0.6822970
1018.197, 0.5822210
1018.679, 0.6835150
1019.162, 0.7508290
1019.644, 0.5786960
1020.126, 0.3211390
1020.608, 0.4153180
1021.090, 0.2553820
1021.572, 0.1287390
1022.054, 0.2809600
1022.536, 2.0730000E-02
1023.018, 0.2651080
1023.501, 0.5929400
1023.983, 0.5920130
1024.465, 0.7790680
1024.947, 0.9049990
1025.429, 0.8412020
1025.911, 0.9783700
1026.393, 0.8254120
1026.875, 0.5474450
1027.358, 8.6374000E-02
1027.840, 8.5335001E-02
1028.322, 0.6359040
1028.804, 1.903305
1029.286, 2.181495
1029.768, 1.129486
1030.250, 0.5323960
1030.732, 0.5818380
1031.214, 0.6567730
1031.697, 0.4854590
1032.179, 0.3638350
1032.661, 0.6683060
1033.143, 1.265127
1033.625, 1.458375
1034.107, 1.057424
1034.589, 0.7224470
1035.071, 0.4084210
1035.553, 0.2524100
1036.036, 0.3305120
1036.518, 0.5558650
1037.000, 1.003553
1037.482, 1.561740
1037.964, 1.601826
1038.446, 0.5771950
1038.928, 0.1168580
1039.410, 0.7036240
1039.893, 1.203667
1040.375, 1.121276
1040.857, 0.8770170
1041.339, 0.9295390
1041.821, 1.196269
1042.303, 1.209930
1042.785, 0.6512390
1043.267, 0.4640620
1043.750, 1.025367
1044.232, 1.488918
1044.714, 1.612378
1045.196, 1.476215
1045.678, 0.9573360
1046.160, 0.2162030
1046.642, 2.7465999E-02
1047.124, 0.6211770
1047.606, 1.023402
1048.089, 0.7929270
1048.571, 0.5841900
1049.053, 0.6878200
1049.535, 0.9122760
1050.017, 1.162368
1050.499, 1.390819
1050.981, 1.310270
1051.463, 0.7120830
1051.945, 0.2812960
1052.428, 0.1469450
1052.910, 0.1871560
1053.392, 0.5994370
1053.874, 1.044340
1054.356, 1.161685
1054.838, 0.9877860
1055.320, 0.7070780
1055.802, 0.2777510
1056.285, 2.0122999E-02
1056.767, 0.1632830
1057.249, 0.3317910
1057.731, 0.3669100
1058.213, 0.3202510
1058.695, 0.1805080
1059.177, 1.8464999E-02
1059.659, 2.6759000E-02
1060.141, 0.2850120
1060.624, 0.5452280
1061.106, 0.8950670
1061.588, 1.016655
1062.070, 0.3996160
1062.552, 0.2438530
1063.034, 6.9099002E-02
1063.516, 0.6723100
1063.998, 1.158247
1064.480, 1.170723
1064.963, 1.106213
1065.445, 1.055806
1065.927, 1.048760
1066.409, 1.249216
1066.891, 1.377033
1067.373, 0.9407790
1067.855, 0.2977800
1068.337, 0.2335070
1068.820, 0.9731140
1069.302, 1.618638
1069.784, 1.782417
1070.266, 1.748960
1070.748, 1.570946
1071.230, 1.349597
1071.712, 1.116319
1072.194, 0.9283940
1072.677, 0.8751450
1073.159, 0.9756700
1073.641, 1.179523
1074.123, 1.739753
1074.605, 2.046703
1075.087, 1.559432
1075.569, 0.8969500
1076.051, 0.5334020
1076.533, 0.4284760
1077.016, 0.4412830
1077.498, 0.5354780
1077.980, 0.6771530
1078.462, 0.9730730
1078.944, 1.138103
1079.426, 0.9784080
1079.908, 0.6885670
1080.390, 0.2545970
1080.872, 0.1136710
1081.354, 4.3464001E-02
1081.837, 0.4551570
1082.319, 0.8993150
1082.801, 1.202994
1083.283, 1.233930
1083.765, 0.5792750
1084.247, 7.0540002E-03
1084.729, 0.1064240
1085.211, 0.5856250
1085.694, 1.066302
1086.176, 1.439976
1086.658, 1.477456
1087.140, 0.9360720
1087.622, 0.5414900
1088.104, 0.8008310
1088.586, 1.066302
1089.068, 0.7106590
1089.551, 0.2843330
1090.033, 0.6626140
1090.515, 1.583927
1090.997, 1.881211
1091.479, 1.082399
1091.961, 0.3968640
1092.443, 0.2979780
1092.925, 0.4046980
1093.407, 0.6868000
1093.890, 0.9446760
1094.372, 0.9833450
1094.854, 0.8465800
1095.336, 0.6623720
1095.818, 0.4475900
1096.300, 0.2677020
1096.782, 4.7885999E-02
1097.264, 6.5560001E-03
1097.746, 0.3692280
1098.229, 0.7661860
1098.711, 0.8930050
1099.193, 0.7898950
1099.675, 0.4990990
1100.157, 2.9127000E-02
1100.639, 0.2318360
1101.121, 0.1140050
1101.603, 0.1202860
1102.086, 0.5826440
1102.568, 0.9461660
1103.050, 0.9616790
1103.532, 0.7795370
1104.014, 0.5886290
1104.496, 0.4074510
1104.978, 0.2530830
1105.460, 7.3870003E-02
1105.943, 6.9940002E-03
1106.425, 0.2653850
1106.907, 0.4091100
1107.389, 1.0926000E-02
1107.871, 0.4532970
1108.353, 0.2176530
1108.835, 0.5359370
1109.317, 0.9705280
1109.799, 0.9150070
1110.281, 0.8372820
1110.764, 0.6302220
1111.246, 0.4992020
1111.728, 0.5125930
1112.210, 0.6206840
1112.692, 0.8650540
1113.174, 1.158756
1113.656, 1.273192
1114.138, 1.169573
1114.621, 1.057782
1115.103, 0.8926960
1115.585, 0.7932890
1116.067, 0.7905750
1116.549, 0.8454610
1117.031, 0.9961200
1117.513, 1.143060
1117.995, 1.103268
1118.478, 0.8738110
1118.960, 0.7174770
1119.442, 0.6056800
1119.924, 0.6614710
1120.406, 1.045553
1120.888, 1.252559
1121.370, 0.9434660
1121.852, 0.5010090
1122.334, 0.3431140
1122.817, 0.4483180
1123.299, 0.7847290
1123.781, 1.584455
1124.263, 1.528623
1124.745, 0.2317940
1125.227, 0.5993910
1125.709, 0.3554160
1126.191, 0.2153790
1126.673, 0.5378270
1127.156, 0.6719390
1127.638, 0.7319640
1128.120, 0.7125710
1128.602, 0.8621020
1129.084, 1.222704
1129.566, 1.230558
1130.048, 0.7187440
1130.530, 0.3892060
1131.013, 0.6890860
1131.495, 1.157338
1131.977, 1.067910
1132.459, 0.5771620
1132.941, 0.4765210
1133.423, 0.7374160
1133.905, 1.011254
1134.387, 1.250981
1134.870, 1.345563
1135.352, 1.251230
1135.834, 1.075250
1136.316, 0.8933990
1136.798, 0.7725820
1137.280, 0.9502710
1137.762, 1.297894
1138.244, 1.315165
1138.726, 1.039976
1139.208, 0.8418910
1139.691, 0.7949200
1140.173, 0.6783320
1140.655, 0.3305150
1141.137, 8.5158996E-02
1141.619, 0.5556680
1142.101, 1.285141
1142.583, 1.504227
1143.065, 1.323297
1143.548, 0.8886230
1144.030, 0.3409250
1144.512, 1.0601000E-02
1144.994, 4.5410998E-02
1145.476, 0.1662170
1145.958, 0.7238070
1146.440, 1.299677
1146.922, 1.603788
1147.405, 1.700065
1147.887, 1.619306
1148.369, 1.415050
1148.851, 1.107913
1149.333, 0.7655330
1149.815, 0.5861520
1150.297, 0.7599160
1150.779, 0.9600910
1151.261, 1.096477
1151.744, 1.078061
1152.226, 0.5989300
1152.708, 9.9990003E-02
1153.190, 0.2041170
1153.672, 0.7525080
1154.154, 1.130682
1154.636, 1.204342
1155.118, 1.095790
1155.600, 0.5867950
1156.083, 0.2552930
1156.565, 0.4637380
1157.047, 0.7512480
1157.529, 0.8251390
1158.011, 0.7454430
1158.493, 0.5774550
1158.975, 0.3526700
1159.457, 0.2448080
1159.940, 0.2953870
1160.422, 0.3926770
1160.904, 0.5844580
1161.386, 0.7486970
1161.868, 0.8526680
1162.350, 0.8998500
1162.832, 0.8711130
1163.314, 0.7978240
1163.796, 0.7882290
1164.279, 0.8700700
1164.761, 0.8471180
1165.243, 0.6387550
1165.725, 0.6321880
1166.207, 1.091761
1166.689, 1.240087
1167.171, 0.4670120
1167.653, 0.4052830
1168.135, 0.1048770
1168.618, 1.081245
1169.100, 1.452166
1169.582, 1.021395
1170.064, 0.9739290
1170.546, 1.395997
1171.028, 1.443259
1171.510, 0.8349450
1171.992, 0.2849020
1172.474, 0.3827190
1172.957, 0.8088120
1173.439, 1.057137
1173.921, 1.109575
1174.403, 0.9944390
1174.885, 0.7760180
1175.367, 0.5971130
1175.849, 0.4894410
1176.331, 0.4708050
1176.814, 0.5461260
1177.296, 0.6554170
1177.778, 0.7480170
1178.260, 0.8440740
1178.742, 1.060269
1179.224, 1.224677
1179.706, 0.9648030
1180.188, 0.5192030
1180.671, 0.4881580
1181.153, 0.8704460
1181.635, 0.9908230
1182.117, 0.4485100
1182.599, 2.6479999E-03
1183.081, 0.1661990
1183.563, 0.3980870
1184.045, 0.2099890
1184.527, 7.3299999E-04
1185.010, 0.3239000
1185.492, 0.9365220
1185.974, 1.210763
1186.456, 1.046104
1186.938, 0.8409720
1187.420, 0.5461550
1187.902, 0.3880380
1188.384, 0.4122340
1188.866, 0.5747580
1189.349, 1.031707
1189.831, 1.443092
1190.313, 1.372322
1190.795, 0.9739820
1191.277, 0.8783450
1191.759, 1.178621
1192.241, 1.389474
1192.723, 1.546081
1193.206, 1.422448
1193.688, 0.8484430
1194.170, 0.5085770
1194.652, 0.8552640
1195.134, 1.456220
1195.616, 1.726043
1196.098, 1.704395
1196.580, 1.508530
1197.063, 1.158452
1197.545, 0.8137660
1198.027, 0.5018200
1198.509, 0.2932130
1198.991, 0.2210810
1199.473, 0.4860670
1199.955, 1.275776
1200.437, 2.045937
1200.919, 1.941690
1201.401, 1.403899
1201.884, 1.225790
1202.366, 1.285244
1202.848, 1.410867
1203.330, 1.512280
1203.812, 1.375144
1204.294, 0.9681060
1204.776, 0.6473860
1205.258, 0.7118160
1205.741, 0.7392000
1206.223, 0.1303850
1206.705, 0.2642870
1207.187, 0.6532560
1207.669, 1.842633
1208.151, 1.858625
1208.633, 0.9875950
1209.115, 0.5421030
1209.598, 0.8020800
1210.080, 1.123331
1210.562, 1.610652
1211.044, 1.848540
1211.526, 1.439843
1212.008, 1.163065
1212.490, 1.556317
1212.972, 2.073091
1213.454, 2.036259
1213.937, 1.564427
1214.419, 1.186717
1214.901, 0.8743090
1215.383, 0.8704470
1215.865, 1.256216
1216.347, 1.426970
1216.829, 1.218967
1217.311, 1.052173
1217.793, 1.187668
1218.276, 1.343977
1218.758, 1.083950
1219.240, 1.243287
1219.722, 1.281367
1220.204, 1.213654
1220.686, 1.382528
1221.168, 1.263192
1221.650, 1.118568
1222.133, 1.031566
1222.615, 0.9208360
1223.097, 0.7386660
1223.579, 0.7387790
1224.061, 1.405137
1224.543, 2.092804
1225.025, 2.156792
1225.507, 1.857791
1225.990, 1.449969
1226.472, 1.051947
1226.954, 0.8117260
1227.436, 0.7559290
1227.918, 0.8482570
1228.400, 1.267169
1228.882, 1.407578
1229.364, 0.9376570
1229.846, 0.4139170
1230.328, 0.1881010
1230.811, 0.5131790
1231.293, 0.1675660
1231.775, 0.5373890
1232.257, 1.045587
1232.739, 1.357564
1233.221, 1.562444
1233.703, 1.671089
1234.185, 1.577077
1234.668, 1.211540
1235.150, 1.051198
1235.632, 1.277635
1236.114, 1.575138
1236.596, 1.713888
1237.078, 1.698525
1237.560, 1.430045
1238.042, 1.561770
1238.525, 1.151781
1239.007, 1.547096
1239.489, 1.747854
1239.971, 1.702856
1240.453, 1.396513
1240.935, 0.8890620
1241.417, 0.6171620
1241.899, 0.9236880
1242.381, 1.285389
1242.864, 1.300050
1243.346, 1.182288
1243.828, 1.051891
1244.310, 0.9382440
1244.792, 0.8089910
1245.274, 0.7340310
1245.756, 0.9326750
1246.238, 1.406763
1246.720, 1.649822
1247.203, 1.308638
1247.685, 1.100072
1248.167, 1.142289
1248.649, 1.222477
1249.131, 1.281456
1249.613, 1.361762
1250.095, 1.411654
1250.577, 1.694331
1251.059, 1.466419
1251.542, 1.526278
1252.024, 1.459305
1252.506, 1.244398
1252.988, 1.320730
1253.470, 1.031125
1253.952, 0.9251930
1254.434, 1.163551
1254.916, 1.454387
1255.399, 1.606079
1255.881, 1.610165
1256.363, 1.433334
1256.845, 1.119915
1257.327, 0.5260760
1257.809, 4.4360001E-02
1258.291, 0.2789120
1258.773, 0.1163920
1259.255, 0.7955290
1259.738, 1.175530
1260.220, 1.388568
1260.702, 1.443574
1261.184, 0.8672590
1261.666, 1.106082
1262.148, 1.018175
1262.630, 0.9168210
1263.112, 1.270227
1263.594, 0.7854770
1264.077, 1.032624
1264.559, 1.303075
1265.041, 1.693017
1265.523, 1.689414
1266.005, 1.220054
1266.487, 0.7159830
1266.969, 0.1431240
1267.451, 8.8967003E-02
1267.934, 0.7096050
1268.416, 1.266266
1268.898, 1.349873
1269.380, 1.105031
1269.862, 0.5651380
1270.344, 4.4978000E-02
1270.826, 0.2496040
1271.308, 0.1774650
1271.791, 0.8502890
1272.273, 0.8210100
1272.755, 1.353033
1273.237, 2.306116
1273.719, 2.689061
1274.201, 2.133557
1274.683, 1.588917
1275.165, 1.465547
1275.647, 1.451863
1276.130, 1.523101
1276.612, 1.542287
1277.094, 1.463734
1277.576, 1.281305
1278.058, 0.9264770
1278.540, 0.5236330
1279.022, 0.1944130
1279.504, 0.1065820
1279.986, 0.1422040
1280.469, 1.103637
1280.951, 1.359723
1281.433, 0.6898130
1281.915, 0.2131590
1282.397, 5.8481000E-02
1282.879, 0.3568980
1283.361, 0.7393070
1283.843, 0.8534510
1284.326, 0.6171820
1284.808, 0.0000000E+00
##END=



