##NAMES=Coffinite
##RRUFFID=R070402
##IDEAL CHEMISTRY=U^4+^(SiO_4_)&#183;nH_2_O
##LOCALITY=Happy Jack mine (Blue Dike mine), Copper Point, White Canyon, White Canyon District, San Juan County, Utah, USA
##OWNER=RRUFF
##SOURCE=Michael Scott
##DESCRIPTION=Black grains in sandstone associated with uranopilite
##STATUS=The identification of this mineral is not yet confirmed.
##URL=rruff.info/R070402
194.3011, 0.0000000E+00
194.7832, 11.11035
195.2654, 31.87744
195.7475, 41.23193
196.2296, 30.60742
196.7117, 21.25342
197.1938, 16.12646
197.6759, 12.90381
198.1581, 9.432129
198.6402, 4.998535
199.1223, 0.9594730
199.6044, 0.7382810
200.0865, 4.176270
200.5686, 8.276855
201.0508, 12.54883
201.5329, 17.30518
202.0150, 24.56006
202.4971, 34.34717
202.9792, 41.95117
203.4613, 37.37891
203.9435, 8.479492
204.4256, 4.412109
204.9077, 11.47559
205.3898, 33.09131
205.8719, 45.49805
206.3540, 45.86768
206.8362, 42.28271
207.3183, 46.93555
207.8004, 66.06396
208.2825, 77.10254
208.7646, 75.51758
209.2467, 70.36328
209.7289, 67.38574
210.2110, 66.83838
210.6931, 64.34375
211.1752, 52.29199
211.6573, 23.85156
212.1395, 11.75000
212.6216, 36.76514
213.1037, 59.32715
213.5858, 54.20459
214.0679, 25.32080
214.5500, 3.138672
215.0322, 5.915039
215.5143, 21.66699
215.9964, 44.15771
216.4785, 68.23535
216.9606, 81.31348
217.4427, 70.02930
217.9249, 41.79590
218.4070, 16.60547
218.8891, 11.72754
219.3712, 27.74561
219.8533, 42.98291
220.3354, 64.32324
220.8176, 77.85693
221.2997, 74.34375
221.7818, 59.96875
222.2639, 47.01465
222.7460, 44.32861
223.2281, 50.84424
223.7103, 55.08154
224.1924, 52.74756
224.6745, 52.86670
225.1566, 63.21973
225.6387, 76.09180
226.1208, 78.44336
226.6030, 61.38770
227.0851, 31.31982
227.5672, 15.64697
228.0493, 28.28809
228.5314, 37.25488
229.0135, 31.69678
229.4957, 21.72656
229.9778, 20.51074
230.4599, 34.29297
230.9420, 55.69092
231.4241, 66.41943
231.9062, 61.07812
232.3884, 53.33057
232.8705, 39.98535
233.3526, 28.04980
233.8347, 25.21680
234.3168, 33.73193
234.7989, 46.74707
235.2811, 51.44482
235.7632, 41.69922
236.2453, 38.36719
236.7274, 48.27881
237.2095, 60.81250
237.6916, 69.08154
238.1738, 71.74707
238.6559, 72.00195
239.1380, 74.13330
239.6201, 79.36572
240.1022, 81.86621
240.5843, 78.74463
241.0665, 75.04492
241.5486, 73.35400
242.0307, 73.59961
242.5128, 73.91699
242.9949, 71.84473
243.4770, 66.92432
243.9592, 65.27539
244.4413, 72.70801
244.9234, 77.93555
245.4055, 76.03125
245.8876, 68.42627
246.3697, 59.82471
246.8519, 51.30371
247.3340, 43.43896
247.8161, 39.10742
248.2982, 41.14209
248.7803, 43.08594
249.2624, 43.45703
249.7446, 42.06104
250.2267, 39.65039
250.7088, 36.93066
251.1909, 34.37988
251.6730, 33.20703
252.1551, 32.35254
252.6373, 33.92480
253.1194, 40.99609
253.6015, 49.31445
254.0836, 53.94873
254.5657, 52.72705
255.0478, 48.71338
255.5300, 47.57861
256.0121, 51.03223
256.4942, 50.77441
256.9763, 38.85547
257.4584, 25.48242
257.9406, 17.86670
258.4227, 17.57275
258.9048, 21.66602
259.3869, 28.64941
259.8690, 38.43848
260.3511, 46.72852
260.8333, 55.08203
261.3154, 59.73242
261.7975, 54.96045
262.2796, 41.54150
262.7617, 31.85840
263.2438, 39.69482
263.7260, 60.86768
264.2081, 69.47021
264.6902, 55.92773
265.1723, 40.00537
265.6544, 36.60449
266.1365, 42.87891
266.6187, 49.81445
267.1008, 54.67236
267.5829, 57.05029
268.0650, 53.42773
268.5471, 40.07129
269.0292, 32.64697
269.5114, 53.89648
269.9935, 87.63525
270.4756, 105.0425
270.9577, 89.09912
271.4398, 61.66553
271.9219, 47.13574
272.4041, 45.80566
272.8862, 45.81641
273.3683, 42.30811
273.8504, 36.06787
274.3325, 28.49512
274.8146, 17.04492
275.2968, 9.022461
275.7789, 12.85156
276.2610, 25.29248
276.7431, 32.33057
277.2252, 27.15283
277.7073, 16.87646
278.1895, 12.56934
278.6716, 13.78027
279.1537, 20.29150
279.6358, 37.86816
280.1179, 59.42139
280.6000, 72.01904
281.0822, 72.31494
281.5643, 66.88037
282.0464, 62.04639
282.5285, 57.62988
283.0106, 56.35449
283.4927, 65.77344
283.9749, 73.88037
284.4570, 65.44922
284.9391, 40.85840
285.4212, 18.67676
285.9033, 14.39844
286.3854, 28.19629
286.8676, 41.06885
287.3497, 58.18750
287.8318, 69.57568
288.3139, 67.40332
288.7960, 55.28516
289.2781, 42.06641
289.7603, 31.98047
290.2424, 25.57422
290.7245, 25.68652
291.2066, 44.05371
291.6887, 54.07031
292.1708, 46.51025
292.6530, 30.28271
293.1351, 15.32275
293.6172, 5.230469
294.0993, 0.5146480
294.5814, 2.593750
295.0635, 1.292969
295.5457, 4.770996
296.0278, 10.20459
296.5099, 13.57422
296.9920, 9.880859
297.4741, 9.7655997E-02
297.9562, 9.713379
298.4384, 11.86133
298.9205, 5.370117
299.4026, 0.6152340
299.8847, 8.709473
300.3668, 13.72998
300.8489, 9.078613
301.3311, 1.1719000E-02
301.8131, 0.9882810
302.2953, 16.84375
302.7774, 46.82275
303.2595, 52.70898
303.7416, 7.829590
304.2237, 21.80176
304.7058, 16.60547
305.1880, 6.365723
305.6701, 30.66602
306.1522, 50.40869
306.6343, 65.76562
307.1164, 77.04541
307.5985, 84.28760
308.0807, 87.09082
308.5628, 84.95508
309.0449, 78.36719
309.5270, 62.90771
310.0091, 39.84521
310.4912, 22.18799
310.9734, 23.80322
311.4555, 42.91357
311.9376, 61.80615
312.4197, 87.19580
312.9018, 99.66602
313.3839, 78.55469
313.8661, 35.88477
314.3482, 3.462402
314.8303, 2.869141
315.3124, 18.05518
315.7945, 19.24268
316.2766, 3.689941
316.7588, 9.742188
317.2409, 9.020996
317.7230, 0.1665040
318.2051, 6.927246
318.6872, 10.68164
319.1693, 13.22510
319.6515, 14.59033
320.1336, 15.65186
320.6157, 21.57422
321.0978, 36.93115
321.5799, 52.59131
322.0620, 49.86426
322.5442, 24.91504
323.0263, 9.022949
323.5084, 20.45459
323.9905, 41.82178
324.4726, 49.52734
324.9547, 39.67773
325.4369, 25.34668
325.9190, 17.36230
326.4011, 16.93457
326.8832, 16.43994
327.3653, 14.89111
327.8474, 14.17236
328.3296, 15.51855
328.8117, 18.62451
329.2938, 21.91504
329.7759, 24.06836
330.2580, 26.40771
330.7401, 34.87598
331.2223, 62.70947
331.7044, 80.27490
332.1865, 79.54346
332.6686, 69.36523
333.1507, 56.89502
333.6328, 45.63379
334.1150, 37.68506
334.5971, 39.03809
335.0792, 58.42578
335.5613, 64.67090
336.0434, 42.64014
336.5255, 22.40381
337.0077, 22.37646
337.4898, 38.93213
337.9719, 56.15479
338.4540, 61.68555
338.9361, 56.60889
339.4182, 49.76123
339.9004, 34.73389
340.3825, 28.10156
340.8646, 41.96289
341.3467, 64.23535
341.8288, 76.29150
342.3109, 72.10059
342.7931, 61.08984
343.2752, 58.06592
343.7573, 64.62305
344.2394, 67.56836
344.7215, 59.37305
345.2036, 49.96826
345.6858, 45.85303
346.1679, 47.74365
346.6500, 55.60498
347.1321, 78.65283
347.6142, 107.9966
348.0963, 115.3467
348.5785, 91.65234
349.0606, 65.48389
349.5427, 59.67725
350.0248, 69.48486
350.5069, 82.45508
350.9890, 105.6606
351.4712, 124.6816
351.9533, 125.3008
352.4354, 111.3887
352.9175, 99.89795
353.3996, 99.69922
353.8817, 105.3877
354.3639, 101.2417
354.8460, 78.80322
355.3281, 66.08691
355.8102, 76.65625
356.2923, 96.75342
356.7744, 114.0112
357.2566, 124.7646
357.7387, 123.0835
358.2208, 98.34814
358.7029, 40.47266
359.1850, 12.07666
359.6671, 32.93994
360.1493, 59.49170
360.6314, 76.69141
361.1135, 83.94336
361.5956, 82.80615
362.0777, 72.70898
362.5598, 57.97119
363.0420, 51.94482
363.5241, 60.86377
364.0062, 67.55127
364.4883, 69.86035
364.9704, 69.44824
365.4525, 67.57080
365.9347, 64.54980
366.4168, 60.12354
366.8989, 53.65723
367.3810, 44.97119
367.8631, 35.65625
368.3452, 17.63770
368.8274, 9.561523
369.3095, 29.60986
369.7916, 65.91357
370.2737, 90.55908
370.7558, 85.02832
371.2379, 65.07861
371.7201, 59.22754
372.2022, 69.51904
372.6843, 73.77539
373.1664, 57.10059
373.6485, 32.40674
374.1306, 19.97070
374.6128, 23.17188
375.0949, 29.28076
375.5770, 32.18848
376.0591, 30.43311
376.5412, 23.55664
377.0233, 11.21143
377.5055, 8.0565996E-02
377.9876, 3.161133
378.4697, 3.028320
378.9518, 8.424316
379.4339, 10.71143
379.9160, 14.29541
380.3982, 26.14014
380.8803, 41.48096
381.3624, 46.38330
381.8445, 32.15381
382.3266, 6.714355
382.8087, 6.024414
383.2909, 5.548340
383.7730, 15.52686
384.2551, 24.80615
384.7372, 31.34277
385.2193, 32.27197
385.7014, 27.88477
386.1836, 22.23682
386.6657, 19.73438
387.1478, 20.61572
387.6299, 20.09912
388.1120, 16.19629
388.5941, 13.20117
389.0763, 14.68848
389.5584, 17.46484
390.0405, 15.02832
390.5226, 2.579590
391.0047, 10.26611
391.4868, 5.739746
391.9690, 18.32178
392.4511, 39.38232
392.9332, 52.71338
393.4153, 58.63770
393.8974, 57.52588
394.3795, 49.51904
394.8617, 40.13477
395.3438, 28.05762
395.8259, 17.68066
396.3080, 20.65625
396.7901, 39.04248
397.2722, 50.75293
397.7544, 34.82910
398.2365, 0.9672850
398.7186, 15.22168
399.2007, 10.86182
399.6828, 37.06055
400.1649, 46.67676
400.6471, 46.83545
401.1292, 50.72607
401.6113, 62.86035
402.0934, 73.04053
402.5755, 63.43604
403.0576, 19.83496
403.5398, 0.9702150
404.0219, 27.35986
404.5040, 55.67139
404.9861, 61.97363
405.4682, 51.30615
405.9503, 42.13574
406.4325, 47.39502
406.9146, 59.99512
407.3967, 51.67676
407.8788, 4.197754
408.3609, 26.32178
408.8430, 19.53320
409.3252, 0.4936520
409.8073, 16.83252
410.2894, 26.46436
410.7715, 33.81445
411.2536, 42.46777
411.7357, 52.05957
412.2179, 61.88525
412.7000, 74.91113
413.1821, 80.82764
413.6642, 66.72021
414.1463, 40.75439
414.6284, 18.09180
415.1106, 1.421875
415.5927, 13.54395
416.0748, 13.16553
416.5569, 2.711914
417.0390, 11.70410
417.5211, 29.06689
418.0033, 45.85156
418.4854, 56.51465
418.9675, 59.75977
419.4496, 59.78662
419.9317, 51.68701
420.4138, 44.57568
420.8960, 45.18604
421.3781, 52.46045
421.8602, 62.66992
422.3423, 74.52344
422.8244, 85.16650
423.3065, 81.22119
423.7887, 45.43750
424.2708, 22.08691
424.7529, 25.18994
425.2350, 34.98047
425.7171, 33.13428
426.1992, 18.33496
426.6814, 5.574219
427.1635, 12.36182
427.6456, 36.59277
428.1277, 52.53076
428.6098, 59.00391
429.0919, 59.18213
429.5741, 50.45996
430.0562, 37.84033
430.5383, 29.52881
431.0204, 29.93896
431.5025, 29.16846
431.9846, 13.08252
432.4668, 11.81396
432.9489, 19.64307
433.4310, 0.6215820
433.9131, 26.32764
434.3952, 39.13965
434.8773, 36.19385
435.3595, 33.78027
435.8416, 35.32178
436.3237, 35.52734
436.8058, 26.95264
437.2879, 13.88281
437.7701, 8.329590
438.2522, 16.97998
438.7343, 33.31641
439.2164, 40.07617
439.6985, 26.27197
440.1806, 22.63867
440.6628, 37.49316
441.1449, 55.11914
441.6270, 65.02002
442.1091, 67.12158
442.5912, 66.37012
443.0733, 65.33057
443.5555, 64.74805
444.0376, 69.36963
444.5197, 83.68604
445.0018, 90.54248
445.4839, 73.89111
445.9660, 51.34912
446.4482, 39.83496
446.9303, 42.04492
447.4124, 50.58936
447.8945, 70.70312
448.3766, 92.01953
448.8587, 86.27783
449.3409, 48.68701
449.8230, 13.49121
450.3051, 7.667969
450.7872, 28.78076
451.2693, 45.71582
451.7514, 60.92383
452.2336, 69.53418
452.7157, 66.18848
453.1978, 56.58887
453.6799, 46.37500
454.1620, 37.83984
454.6441, 35.22461
455.1263, 47.21582
455.6084, 80.26514
456.0905, 91.00342
456.5726, 54.19336
457.0547, 20.78760
457.5368, 0.6269530
458.0190, 6.500488
458.5011, 0.4291990
458.9832, 20.68652
459.4653, 46.52197
459.9474, 64.07568
460.4295, 73.26904
460.9117, 73.19385
461.3938, 55.85156
461.8759, 39.78955
462.3580, 46.42529
462.8401, 70.51562
463.3222, 83.73584
463.8044, 66.16699
464.2865, 44.18018
464.7686, 45.04297
465.2507, 63.09424
465.7328, 73.33789
466.2149, 62.42334
466.6971, 42.20312
467.1792, 32.48877
467.6613, 36.80811
468.1434, 42.07178
468.6255, 50.78076
469.1076, 58.25488
469.5898, 62.79199
470.0719, 63.54736
470.5540, 57.70312
471.0361, 41.81641
471.5182, 22.15967
472.0003, 21.54736
472.4825, 49.89941
472.9646, 69.71924
473.4467, 69.65283
473.9288, 61.01855
474.4109, 46.85693
474.8930, 28.85107
475.3752, 15.30078
475.8573, 12.82910
476.3394, 17.30518
476.8215, 23.22412
477.3036, 30.46045
477.7857, 34.63916
478.2679, 31.79004
478.7500, 25.95605
479.2321, 28.00342
479.7142, 42.52490
480.1963, 52.22021
480.6784, 50.06299
481.1606, 44.19141
481.6427, 40.68750
482.1248, 40.72852
482.6069, 44.90088
483.0890, 54.77295
483.5711, 68.17236
484.0533, 71.93945
484.5354, 55.52002
485.0175, 46.50000
485.4996, 57.60449
485.9817, 70.46240
486.4638, 68.38721
486.9460, 50.37061
487.4281, 31.53857
487.9102, 20.59424
488.3923, 18.88037
488.8744, 34.48047
489.3565, 71.14697
489.8387, 100.7344
490.3208, 107.4268
490.8029, 97.95068
491.2850, 86.65918
491.7671, 69.37842
492.2492, 56.52930
492.7314, 54.56396
493.2135, 58.30713
493.6956, 62.46924
494.1777, 65.42139
494.6598, 67.20215
495.1419, 67.19971
495.6241, 65.84766
496.1062, 66.13281
496.5883, 67.75098
497.0704, 71.32080
497.5525, 83.91895
498.0346, 93.62646
498.5168, 85.50439
498.9989, 61.16016
499.4810, 41.07227
499.9631, 45.13379
500.4452, 66.82129
500.9273, 82.10840
501.4095, 90.67432
501.8916, 93.98535
502.3737, 89.20850
502.8558, 81.34326
503.3379, 79.96045
503.8200, 88.04736
504.3022, 91.56250
504.7843, 76.76221
505.2664, 59.34912
505.7485, 61.88037
506.2306, 82.61670
506.7127, 98.51465
507.1949, 92.83643
507.6770, 71.38867
508.1591, 60.56250
508.6412, 69.99512
509.1233, 77.08496
509.6054, 77.57861
510.0876, 78.53809
510.5697, 85.88867
511.0518, 97.83203
511.5339, 106.6187
512.0161, 105.3218
512.4982, 98.31787
512.9803, 93.38721
513.4624, 89.66406
513.9445, 89.47803
514.4266, 96.50977
514.9088, 104.9990
515.3909, 106.6738
515.8730, 102.3037
516.3551, 97.64551
516.8372, 88.62744
517.3193, 82.20312
517.8015, 87.48242
518.2836, 102.5127
518.7657, 117.6670
519.2478, 128.6616
519.7299, 134.7002
520.2120, 130.7432
520.6942, 106.9971
521.1763, 90.57373
521.6584, 88.36670
522.1405, 86.89893
522.6226, 73.77344
523.1047, 54.37158
523.5869, 46.42627
524.0690, 62.54297
524.5511, 86.20459
525.0332, 87.27734
525.5153, 68.36475
525.9974, 58.69580
526.4796, 69.55225
526.9617, 83.43164
527.4438, 72.46729
527.9259, 40.73633
528.4080, 27.95215
528.8901, 57.99268
529.3723, 91.55908
529.8544, 106.2935
530.3365, 105.9629
530.8186, 96.58398
531.3007, 80.41650
531.7828, 63.95459
532.2650, 56.59229
532.7471, 59.95166
533.2292, 61.97510
533.7113, 62.54346
534.1934, 62.12695
534.6755, 59.08545
535.1577, 55.79590
535.6398, 55.76367
536.1219, 60.21631
536.6040, 65.77148
537.0861, 71.91064
537.5682, 76.89551
538.0504, 72.49951
538.5325, 56.68604
539.0146, 41.57422
539.4967, 36.16309
539.9788, 38.60645
540.4609, 39.47021
540.9431, 35.00537
541.4252, 34.26953
541.9073, 46.90869
542.3894, 59.06494
542.8715, 52.79443
543.3536, 30.04004
543.8358, 11.15918
544.3179, 13.91895
544.8000, 32.58496
545.2821, 38.76318
545.7642, 26.95215
546.2463, 19.42090
546.7285, 29.04102
547.2106, 39.65625
547.6927, 35.67139
548.1748, 18.34180
548.6569, 7.111328
549.1390, 18.24658
549.6211, 34.23486
550.1032, 31.77881
550.5853, 15.75732
551.0674, 10.76172
551.5496, 28.15088
552.0317, 52.79395
552.5138, 59.47363
552.9959, 40.54150
553.4780, 29.45166
553.9601, 29.27002
554.4423, 32.38281
554.9244, 39.63916
555.4065, 46.96143
555.8886, 46.98535
556.3707, 36.76660
556.8528, 25.79639
557.3350, 28.90479
557.8171, 43.45215
558.2992, 46.29395
558.7813, 32.06201
559.2634, 16.44385
559.7455, 9.809570
560.2277, 9.738281
560.7098, 7.754395
561.1919, 2.256348
561.6740, 2.475586
562.1561, 7.516602
562.6382, 9.665039
563.1204, 3.161133
563.6025, 10.72998
564.0846, 23.84668
564.5667, 30.45654
565.0488, 31.47070
565.5309, 30.69141
566.0131, 28.64697
566.4952, 23.44238
566.9773, 7.138184
567.4594, 6.194824
567.9415, 2.787598
568.4236, 13.17529
568.9058, 21.30713
569.3879, 6.142578
569.8700, 14.39160
570.3521, 23.70557
570.8342, 23.28076
571.3163, 15.34131
571.7985, 0.4003910
572.2806, 13.43896
572.7627, 9.411133
573.2448, 14.61914
573.7269, 27.91748
574.2090, 25.92285
574.6912, 19.38867
575.1733, 3.159180
575.6554, 12.14600
576.1375, 12.00146
576.6196, 5.487305
577.1017, 23.90820
577.5839, 26.32324
578.0660, 17.79443
578.5481, 17.26855
579.0302, 26.51465
579.5123, 30.09131
579.9944, 19.27881
580.4766, 0.1601560
580.9587, 19.26123
581.4408, 45.08350
581.9229, 48.51270
582.4050, 6.926758
582.8871, 56.69043
583.3693, 48.11963
583.8514, 0.8442380
584.3335, 39.44092
584.8156, 51.72852
585.2977, 44.17432
585.7798, 23.21240
586.2620, 13.90820
586.7441, 30.77246
587.2262, 17.40674
587.7083, 1.724609
588.1904, 16.72656
588.6725, 27.26270
589.1547, 31.68945
589.6368, 28.00537
590.1189, 23.04102
590.6010, 16.88330
591.0831, 13.02246
591.5652, 19.26758
592.0474, 33.84473
592.5295, 44.38721
593.0116, 42.47412
593.4937, 31.26270
593.9758, 18.50293
594.4579, 3.732910
594.9401, 8.505371
595.4222, 30.90186
595.9043, 66.00879
596.3864, 69.06055
596.8685, 48.37109
597.3506, 26.56641
597.8328, 9.459473
598.3149, 0.8281250
598.7970, 6.8359002E-02
599.2791, 8.785645
599.7612, 21.17285
600.2433, 36.17480
600.7255, 42.12012
601.2076, 25.64258
601.6897, 9.004395
602.1718, 23.38281
602.6539, 0.9545900
603.1360, 21.53076
603.6182, 32.73633
604.1003, 40.62842
604.5824, 50.98877
605.0645, 62.94336
605.5466, 71.31494
606.0287, 72.73193
606.5109, 68.93896
606.9930, 61.12695
607.4751, 50.18164
607.9572, 43.54932
608.4393, 42.63184
608.9214, 47.58057
609.4036, 61.96094
609.8857, 85.38135
610.3678, 94.73730
610.8499, 77.18750
611.3320, 63.21924
611.8141, 64.36230
612.2963, 69.64111
612.7784, 64.64551
613.2605, 50.25928
613.7426, 42.64844
614.2247, 57.85986
614.7068, 85.30469
615.1890, 98.74805
615.6711, 97.71680
616.1532, 91.13623
616.6353, 76.16309
617.1174, 66.35645
617.5995, 84.02637
618.0817, 130.0991
618.5638, 152.1104
619.0459, 123.6665
619.5280, 98.64307
620.0101, 102.1772
620.4922, 118.7949
620.9744, 130.5498
621.4565, 133.2944
621.9386, 129.6865
622.4207, 118.4355
622.9028, 104.6934
623.3849, 112.3555
623.8671, 145.9712
624.3492, 174.3354
624.8313, 186.5640
625.3134, 190.4595
625.7955, 197.7402
626.2776, 208.5542
626.7598, 210.9585
627.2419, 191.7432
627.7240, 175.1230
628.2061, 175.1338
628.6882, 186.6792
629.1703, 204.1997
629.6525, 225.2422
630.1346, 243.6943
630.6167, 251.6880
631.0988, 251.4121
631.5809, 266.2197
632.0630, 306.1880
632.5452, 324.9521
633.0273, 291.6460
633.5094, 247.7559
633.9915, 242.0552
634.4736, 271.9575
634.9557, 298.8301
635.4379, 319.2544
635.9200, 332.8301
636.4021, 332.3232
636.8842, 325.8501
637.3663, 328.1650
637.8484, 342.7856
638.3306, 359.9961
638.8127, 367.5801
639.2948, 368.2930
639.7769, 381.6489
640.2590, 413.3853
640.7411, 433.3872
641.2233, 431.9946
641.7054, 425.3716
642.1875, 424.8325
642.6696, 430.0332
643.1517, 438.0825
643.6339, 447.5908
644.1160, 460.1650
644.5981, 477.7617
645.0802, 499.9331
645.5623, 527.5894
646.0444, 558.0977
646.5266, 578.7778
647.0087, 574.4482
647.4908, 552.3604
647.9729, 546.7354
648.4550, 559.5850
648.9371, 582.2808
649.4193, 622.0703
649.9014, 660.6982
650.3835, 678.7300
650.8656, 678.9209
651.3477, 680.5024
651.8298, 685.8726
652.3120, 694.1895
652.7941, 704.9565
653.2762, 718.7417
653.7583, 739.2480
654.2404, 764.7534
654.7225, 783.5962
655.2047, 784.4482
655.6868, 774.0620
656.1689, 774.0527
656.6510, 784.9331
657.1331, 804.2437
657.6152, 836.2593
658.0974, 869.5474
658.5795, 894.1592
659.0616, 911.2563
659.5437, 924.6675
660.0258, 936.2866
660.5079, 942.7539
660.9901, 929.7822
661.4722, 918.3184
661.9543, 934.9604
662.4364, 977.1743
662.9185, 1022.314
663.4006, 1057.036
663.8828, 1080.604
664.3649, 1085.672
664.8470, 1071.227
665.3291, 1074.442
665.8112, 1108.185
666.2933, 1143.216
666.7755, 1155.392
667.2576, 1150.776
667.7397, 1157.115
668.2218, 1183.609
668.7039, 1205.943
669.1860, 1212.436
669.6682, 1218.788
670.1503, 1246.094
670.6324, 1284.155
671.1145, 1299.251
671.5966, 1271.859
672.0787, 1236.606
672.5609, 1248.184
673.0430, 1299.075
673.5251, 1336.001
674.0072, 1353.804
674.4893, 1358.273
674.9714, 1350.069
675.4536, 1332.958
675.9357, 1315.988
676.4178, 1294.361
676.8999, 1283.536
677.3820, 1289.708
677.8641, 1300.874
678.3463, 1314.733
678.8284, 1327.930
679.3105, 1335.356
679.7926, 1335.392
680.2747, 1333.379
680.7568, 1338.268
681.2390, 1343.873
681.7211, 1330.246
682.2032, 1298.146
682.6853, 1275.529
683.1674, 1275.985
683.6495, 1286.736
684.1317, 1288.746
684.6138, 1281.731
685.0959, 1267.347
685.5780, 1232.812
686.0601, 1206.048
686.5422, 1207.146
687.0244, 1211.114
687.5065, 1183.098
687.9886, 1123.104
688.4707, 1079.264
688.9528, 1097.452
689.4349, 1130.878
689.9171, 1123.324
690.3992, 1086.337
690.8813, 1055.882
691.3634, 1041.609
691.8455, 1026.345
692.3276, 990.4263
692.8098, 938.2192
693.2919, 911.2725
693.7740, 924.8188
694.2561, 929.8745
694.7382, 914.9082
695.2203, 890.7036
695.7025, 860.1860
696.1846, 826.0322
696.6667, 797.5117
697.1488, 778.2002
697.6309, 763.0405
698.1130, 752.8179
698.5952, 744.3975
699.0773, 732.1396
699.5594, 716.0723
700.0415, 702.7192
700.5236, 697.6875
701.0057, 693.6704
701.4879, 673.7583
701.9700, 637.2803
702.4521, 603.8999
702.9342, 569.8003
703.4163, 543.9082
703.8984, 537.0015
704.3806, 541.1943
704.8627, 534.3892
705.3448, 512.9023
705.8269, 494.9443
706.3090, 485.0708
706.7911, 472.5093
707.2733, 446.2329
707.7554, 415.6792
708.2375, 397.6499
708.7196, 396.5913
709.2017, 398.8555
709.6838, 393.1011
710.1660, 381.4014
710.6481, 362.9092
711.1302, 338.8037
711.6123, 323.9019
712.0944, 325.4814
712.5765, 330.7349
713.0587, 315.8052
713.5408, 278.3916
714.0229, 256.5742
714.5050, 263.5571
714.9871, 268.5591
715.4692, 261.0693
715.9514, 254.2793
716.4335, 264.9390
716.9156, 287.9258
717.3977, 297.1143
717.8798, 274.8203
718.3619, 245.5366
718.8441, 226.3008
719.3262, 214.2603
719.8083, 204.3804
720.2904, 196.2480
720.7725, 194.5044
721.2546, 203.9189
721.7368, 215.7461
722.2189, 206.0620
722.7010, 170.4004
723.1831, 142.7607
723.6652, 121.5532
724.1473, 114.1255
724.6295, 136.4697
725.1116, 171.4028
725.5937, 181.5063
726.0758, 158.2710
726.5579, 142.9717
727.0400, 149.6782
727.5222, 161.6611
728.0043, 175.4912
728.4864, 183.4067
728.9685, 167.0820
729.4506, 124.8389
729.9327, 86.32764
730.4149, 83.54736
730.8970, 104.1616
731.3791, 128.2217
731.8612, 153.7734
732.3433, 151.7515
732.8254, 110.1768
733.3076, 61.85742
733.7897, 39.83789
734.2718, 42.53320
734.7539, 45.55176
735.2360, 49.92627
735.7181, 52.24023
736.2003, 50.66797
736.6824, 48.56299
737.1645, 49.84619
737.6466, 52.16455
738.1287, 48.46436
738.6108, 33.95312
739.0930, 21.63086
739.5751, 21.92090
740.0572, 27.48340
740.5393, 27.61426
741.0214, 22.69043
741.5035, 16.69824
741.9857, 11.91309
742.4678, 8.761230
742.9499, 8.838379
743.4320, 11.84863
743.9141, 12.06641
744.3962, 9.124023
744.8784, 4.127930
745.3605, 6.553223
745.8426, 13.93164
746.3247, 1.073730
746.8068, 36.36963
747.2889, 55.58545
747.7711, 40.39307
748.2532, 29.10156
748.7353, 38.57275
749.2174, 50.16504
749.6995, 43.73145
750.1816, 22.63623
750.6638, 7.161621
751.1459, 9.008789
751.6280, 17.61816
752.1101, 24.80615
752.5922, 31.14551
753.0743, 40.93457
753.5565, 52.51611
754.0386, 52.54639
754.5207, 32.41309
755.0028, 2.522461
755.4849, 18.74121
755.9670, 31.68945
756.4492, 33.66455
756.9313, 22.78809
757.4134, 3.739258
757.8955, 35.31885
758.3776, 71.27344
758.8597, 59.43701
759.3419, 6.441406
759.8240, 46.10547
760.3061, 40.01367
760.7882, 22.48486
761.2703, 10.06934
761.7524, 36.83398
762.2346, 28.32812
762.7167, 10.41699
763.1988, 40.57617
763.6809, 38.20557
764.1630, 20.63477
764.6451, 2.546387
765.1273, 12.84082
765.6094, 20.31201
766.0915, 19.63477
766.5736, 11.55908
767.0557, 5.148926
767.5378, 20.42041
768.0200, 5.340332
768.5021, 51.04932
768.9842, 64.57764
769.4663, 8.789551
769.9484, 34.92139
770.4305, 21.47949
770.9127, 16.58252
771.3948, 31.55615
771.8769, 21.48389
772.3590, 15.63184
772.8411, 20.22754
773.3232, 26.85254
773.8054, 30.69141
774.2875, 34.07324
774.7696, 44.50537
775.2517, 60.30469
775.7338, 71.42432
776.2159, 72.82422
776.6981, 66.37695
777.1802, 49.45068
777.6623, 27.36914
778.1444, 13.96533
778.6265, 9.696289
779.1086, 2.548340
779.5908, 14.77734
780.0729, 33.41797
780.5550, 35.28809
781.0371, 18.32275
781.5192, 8.287598
782.0013, 8.716797
782.4835, 5.761719
782.9656, 11.88379
783.4477, 29.73242
783.9298, 23.86816
784.4119, 6.591797
784.8940, 19.08838
785.3762, 7.204102
785.8583, 26.92480
786.3404, 15.46826
786.8225, 2.360352
787.3046, 23.35645
787.7867, 66.67383
788.2689, 84.87207
788.7510, 50.22900
789.2331, 11.67334
789.7152, 16.41797
790.1973, 40.79932
790.6794, 46.83154
791.1616, 35.22461
791.6437, 23.42188
792.1258, 18.86182
792.6079, 20.17334
793.0900, 27.78027
793.5721, 40.28418
794.0543, 40.50391
794.5364, 24.72559
795.0185, 22.93994
795.5006, 52.04688
795.9827, 79.44336
796.4648, 68.43701
796.9470, 24.07031
797.4291, 0.4985350
797.9112, 10.09424
798.3933, 23.34326
798.8754, 48.74316
799.3575, 68.48242
799.8397, 67.83203
800.3218, 54.18311
800.8039, 41.67285
801.2860, 33.39844
801.7681, 27.44482
802.2502, 19.04395
802.7324, 15.89502
803.2145, 32.64014
803.6966, 57.20068
804.1787, 63.87598
804.6608, 48.36182
805.1429, 34.24072
805.6251, 45.01416
806.1072, 65.43604
806.5893, 56.36768
807.0714, 23.42822
807.5535, 10.45801
808.0356, 25.28418
808.5178, 46.49170
808.9999, 60.91748
809.4820, 69.52100
809.9641, 74.62500
810.4462, 76.72266
810.9283, 73.07227
811.4105, 58.54541
811.8926, 46.50684
812.3747, 39.83350
812.8568, 39.76465
813.3389, 49.90234
813.8210, 70.48633
814.3032, 85.29492
814.7853, 93.11523
815.2674, 95.33984
815.7495, 83.30957
816.2316, 71.59570
816.7137, 79.37646
817.1959, 99.35693
817.6780, 102.9844
818.1601, 77.99365
818.6422, 55.02441
819.1243, 68.26514
819.6064, 93.92383
820.0886, 96.24023
820.5707, 77.45752
821.0528, 50.03467
821.5349, 21.51855
822.0170, 7.502441
822.4991, 30.64844
822.9813, 77.42090
823.4634, 88.63135
823.9455, 62.37793
824.4276, 39.45752
824.9097, 26.05859
825.3918, 24.55859
825.8740, 41.93506
826.3561, 71.90918
826.8382, 94.93604
827.3203, 115.9844
827.8024, 116.0688
828.2845, 79.01367
828.7667, 48.24219
829.2488, 43.96533
829.7309, 48.93359
830.2130, 37.97363
830.6951, 10.02295
831.1772, 0.9716800
831.6594, 39.63672
832.1415, 75.92041
832.6236, 90.23096
833.1057, 90.15332
833.5878, 78.23779
834.0699, 59.71631
834.5521, 45.65234
835.0342, 42.20312
835.5163, 43.85889
835.9984, 50.81104
836.4805, 57.85156
836.9626, 51.04150
837.4448, 33.82959
837.9269, 22.96289
838.4090, 25.21973
838.8911, 36.39404
839.3732, 52.77246
839.8553, 70.66162
840.3375, 78.94238
840.8196, 78.28369
841.3017, 72.49805
841.7838, 60.69092
842.2659, 49.93066
842.7480, 47.14502
843.2302, 51.17627
843.7123, 51.72705
844.1944, 45.71094
844.6765, 42.96924
845.1586, 48.95312
845.6407, 52.86768
846.1229, 49.17041
846.6050, 43.22852
847.0871, 38.77051
847.5692, 36.68506
848.0513, 38.37061
848.5334, 46.59033
849.0156, 54.25732
849.4977, 59.66211
849.9798, 63.32080
850.4619, 67.12305
850.9440, 69.52344
851.4261, 65.52930
851.9083, 52.96729
852.3904, 41.97754
852.8725, 37.52734
853.3546, 40.33740
853.8367, 57.63428
854.3188, 79.92578
854.8010, 88.26025
855.2831, 78.58887
855.7652, 58.16064
856.2473, 27.00342
856.7294, 0.4169920
857.2115, 10.14258
857.6937, 47.56543
858.1758, 61.22217
858.6579, 46.79980
859.1400, 28.69189
859.6221, 17.54004
860.1042, 12.45264
860.5864, 13.19873
861.0685, 20.18164
861.5506, 26.24170
862.0327, 29.40186
862.5148, 39.99365
862.9969, 68.90625
863.4791, 88.27832
863.9612, 67.20312
864.4433, 21.06787
864.9254, 6.867676
865.4075, 46.18262
865.8896, 73.63379
866.3718, 89.56836
866.8539, 93.38281
867.3360, 76.84863
867.8181, 53.12598
868.3002, 33.92822
868.7823, 20.82178
869.2645, 18.24658
869.7466, 44.25342
870.2287, 58.97363
870.7108, 29.82129
871.1929, 2.346191
871.6750, 5.673828
872.1572, 39.59180
872.6393, 60.26855
873.1214, 54.45947
873.6035, 41.07666
874.0856, 23.70703
874.5677, 14.23145
875.0499, 37.30029
875.5320, 75.24609
876.0141, 88.52100
876.4962, 72.59570
876.9783, 53.23730
877.4604, 47.10693
877.9426, 49.05859
878.4247, 55.63867
878.9068, 63.16406
879.3889, 52.82324
879.8710, 25.65967
880.3531, 11.10205
880.8353, 20.93213
881.3174, 36.91113
881.7995, 36.77295
882.2816, 24.08203
882.7637, 25.34814
883.2458, 44.47852
883.7280, 47.73486
884.2101, 22.76758
884.6922, 2.352051
885.1743, 10.83228
885.6564, 34.05835
886.1385, 40.73389
886.6207, 26.76465
887.1028, 14.06982
887.5849, 4.611816
888.0670, 11.46313
888.5491, 4.696533
889.0313, 28.05005
889.5134, 51.26196
889.9955, 71.29688
890.4776, 78.00000
890.9597, 67.50635
891.4418, 49.43237
891.9240, 8.852295
892.4061, 21.58716
892.8882, 18.47021
893.3703, 1.978760
893.8524, 21.02319
894.3345, 34.55322
894.8167, 37.69189
895.2988, 16.66016
895.7809, 1.032715
896.2630, 1.571533
896.7451, 13.48584
897.2272, 29.04785
897.7094, 42.67603
898.1915, 42.32397
898.6736, 23.57690
899.1557, 5.982422
899.6378, 6.682617
900.1199, 15.97485
900.6021, 25.61401
901.0842, 33.46851
901.5663, 31.56982
902.0484, 21.85400
902.5305, 22.84961
903.0126, 48.07007
903.4948, 77.18530
903.9769, 76.57666
904.4590, 56.03198
904.9411, 45.95361
905.4232, 46.93579
905.9053, 49.03662
906.3875, 48.92651
906.8696, 49.57373
907.3517, 54.79736
907.8338, 60.62427
908.3159, 50.49438
908.7980, 24.22241
909.2802, 11.82324
909.7623, 17.76953
910.2444, 27.49072
910.7265, 34.56445
911.2086, 40.27026
911.6907, 46.99390
912.1729, 54.57227
912.6550, 56.67920
913.1371, 53.36523
913.6192, 42.70703
914.1013, 15.03369
914.5834, 2.277344
915.0656, 18.37061
915.5477, 57.34717
916.0298, 66.96753
916.5119, 34.71924
916.9940, 21.22070
917.4761, 47.52759
917.9583, 63.74731
918.4404, 46.70850
918.9225, 25.60107
919.4046, 26.62817
919.8867, 43.05688
920.3688, 48.52344
920.8510, 34.10693
921.3331, 24.19507
921.8152, 25.99072
922.2973, 28.55762
922.7794, 27.10596
923.2615, 24.02124
923.7437, 18.62207
924.2258, 12.69727
924.7079, 16.67041
925.1900, 46.02539
925.6721, 65.33057
926.1542, 50.61743
926.6364, 29.01685
927.1185, 20.60718
927.6006, 21.91650
928.0827, 24.98340
928.5648, 27.51636
929.0469, 27.24121
929.5291, 18.72070
930.0112, 13.63232
930.4933, 23.14355
930.9754, 39.11914
931.4575, 56.25781
931.9396, 69.92188
932.4218, 69.43823
932.9039, 51.45801
933.3860, 32.70776
933.8681, 28.94995
934.3502, 31.51733
934.8323, 28.49268
935.3145, 23.50366
935.7966, 26.76367
936.2787, 37.03760
936.7608, 41.13965
937.2429, 31.76392
937.7250, 19.05542
938.2072, 13.65405
938.6893, 14.96582
939.1714, 27.47827
939.6535, 45.50488
940.1356, 42.37915
940.6177, 14.88477
941.0999, 6.419189
941.5820, 0.7729490
942.0641, 21.75293
942.5462, 33.08496
943.0283, 35.16064
943.5104, 23.27979
943.9926, 0.8007810
944.4747, 9.479736
944.9568, 5.988770
945.4389, 29.46802
945.9210, 48.57153
946.4031, 61.67505
946.8853, 56.75391
947.3674, 33.80664
947.8495, 20.41846
948.3316, 18.97681
948.8137, 20.47729
949.2958, 22.27368
949.7780, 21.16992
950.2601, 11.17139
950.7422, 3.558594
951.2243, 8.166748
951.7064, 3.042480
952.1885, 8.707031
952.6707, 29.47339
953.1528, 46.23267
953.6349, 52.15332
954.1170, 52.86572
954.5991, 56.71143
955.0812, 63.06836
955.5634, 57.50952
956.0455, 33.68335
956.5276, 17.53613
957.0097, 12.73462
957.4918, 14.90796
957.9739, 24.51880
958.4561, 37.53882
958.9382, 44.81689
959.4203, 44.29614
959.9024, 47.17773
960.3845, 60.07104
960.8666, 62.86792
961.3488, 47.70337
961.8309, 28.28076
962.3130, 7.341309
962.7951, 9.335693
963.2772, 8.173828
963.7593, 15.81909
964.2415, 31.01782
964.7236, 25.86182
965.2057, 28.09277
965.6878, 53.81079
966.1699, 77.14185
966.6520, 77.13745
967.1342, 63.61865
967.6163, 61.43018
968.0984, 78.18677
968.5805, 77.71802
969.0626, 38.58252
969.5447, 8.423828
970.0269, 1.912109
970.5090, 6.128662
970.9911, 14.24658
971.4732, 24.70532
971.9553, 36.35522
972.4374, 53.61035
972.9196, 55.56323
973.4017, 15.05273
973.8838, 10.49390
974.3659, 13.82935
974.8480, 49.31177
975.3301, 60.86450
975.8123, 55.57007
976.2944, 57.13965
976.7765, 72.04712
977.2586, 77.52734
977.7407, 56.64429
978.2228, 39.21875
978.7050, 41.72778
979.1871, 51.22827
979.6692, 57.45825
980.1513, 58.72534
980.6334, 52.78711
981.1155, 35.53467
981.5977, 22.53052
982.0798, 18.78809
982.5619, 19.95288
983.0440, 27.42847
983.5261, 35.97632
984.0082, 42.01196
984.4904, 44.07080
984.9725, 37.44434
985.4546, 14.43652
985.9367, 2.065674
986.4188, 21.77026
986.9009, 41.58081
987.3831, 41.37891
987.8652, 31.85376
988.3473, 21.49023
988.8294, 14.36938
989.3115, 20.58398
989.7936, 49.77759
990.2758, 72.82129
990.7579, 77.30396
991.2400, 72.21777
991.7221, 59.16577
992.2042, 42.66699
992.6863, 21.53271
993.1685, 0.8833010
993.6506, 0.1413570
994.1327, 33.95215
994.6148, 64.01465
995.0969, 75.85547
995.5790, 75.45679
996.0612, 59.14502
996.5433, 37.96191
997.0254, 23.30347
997.5075, 16.76489
997.9896, 16.92212
998.4717, 24.77319
998.9539, 34.48193
999.4360, 49.10815
999.9181, 59.39160
1000.400, 54.84521
1000.882, 44.75342
1001.364, 41.29102
1001.847, 44.29419
1002.329, 45.22266
1002.811, 40.36597
1003.293, 38.47510
1003.775, 48.83789
1004.257, 58.21265
1004.739, 58.30347
1005.221, 51.44800
1005.703, 35.00928
1006.186, 14.58081
1006.668, 9.728516
1007.150, 31.64160
1007.632, 54.03003
1008.114, 67.24756
1008.596, 75.06641
1009.078, 77.19336
1009.560, 75.77100
1010.043, 73.47119
1010.525, 69.38477
1011.007, 58.56104
1011.489, 35.97363
1011.971, 19.39722
1012.453, 18.57153
1012.935, 23.52271
1013.417, 34.74365
1013.899, 43.65894
1014.382, 39.31201
1014.864, 24.13232
1015.346, 6.531494
1015.828, 15.76855
1016.310, 20.16113
1016.792, 24.00317
1017.274, 62.41724
1017.756, 57.78345
1018.239, 38.69385
1018.721, 34.52734
1019.203, 43.00073
1019.685, 48.93359
1020.167, 49.70142
1020.649, 43.03711
1021.131, 15.06201
1021.613, 2.978516
1022.095, 10.65112
1022.578, 33.81104
1023.060, 48.18140
1023.542, 54.37671
1024.024, 59.05396
1024.506, 64.00220
1024.988, 63.42480
1025.470, 49.86255
1025.952, 38.32886
1026.435, 34.26514
1026.917, 34.56372
1027.399, 40.84277
1027.881, 49.67578
1028.363, 55.04028
1028.845, 56.36157
1029.327, 52.28638
1029.809, 30.08179
1030.292, 19.77930
1030.774, 46.10181
1031.256, 70.11670
1031.738, 61.89844
1032.220, 34.67969
1032.702, 6.443604
1033.184, 23.08179
1033.666, 29.25439
1034.148, 20.55811
1034.630, 49.78198
1035.113, 26.23901
1035.595, 0.6440430
1036.077, 2.430908
1036.559, 18.65796
1037.041, 31.30103
1037.523, 40.06445
1038.005, 45.13647
1038.487, 44.06909
1038.970, 43.28247
1039.452, 41.59668
1039.934, 42.41528
1040.416, 51.98047
1040.898, 60.67700
1041.380, 53.93945
1041.862, 33.94946
1042.344, 25.42700
1042.826, 35.93140
1043.309, 41.36450
1043.791, 39.29810
1044.273, 34.92212
1044.755, 28.09082
1045.237, 22.69141
1045.719, 23.83838
1046.201, 29.45605
1046.683, 29.11914
1047.166, 18.82104
1047.648, 17.39233
1048.130, 29.83276
1048.612, 36.18701
1049.094, 28.68359
1049.576, 17.65015
1050.058, 10.81079
1050.540, 8.222900
1051.022, 10.73657
1051.505, 19.01611
1051.987, 26.19409
1052.469, 32.68262
1052.951, 34.40894
1053.433, 29.52075
1053.915, 24.49829
1054.397, 23.46436
1054.879, 25.68896
1055.361, 31.47437
1055.844, 39.79810
1056.326, 33.71167
1056.808, 13.31982
1057.290, 19.03638
1057.772, 58.16675
1058.254, 82.29028
1058.736, 64.84424
1059.218, 34.54712
1059.701, 29.99634
1060.183, 42.52075
1060.665, 41.81860
1061.147, 30.85791
1061.629, 26.98584
1062.111, 31.06396
1062.593, 31.75073
1063.075, 24.86353
1063.557, 19.80591
1064.040, 28.30640
1064.522, 38.81567
1065.004, 24.57520
1065.486, 2.292969
1065.968, 11.17773
1066.450, 4.342773
1066.932, 0.3466800
1067.414, 1.030029
1067.896, 9.890625
1068.379, 34.66846
1068.861, 61.84180
1069.343, 81.53662
1069.825, 91.34497
1070.307, 84.69287
1070.789, 66.85718
1071.271, 41.65601
1071.753, 15.55737
1072.236, 9.065186
1072.718, 34.59570
1073.200, 57.61328
1073.682, 45.18140
1074.164, 27.03467
1074.646, 28.21777
1075.128, 38.77661
1075.610, 53.69067
1076.093, 66.27710
1076.575, 59.88770
1077.057, 29.23560
1077.539, 9.694824
1078.021, 24.45898
1078.503, 43.37402
1078.985, 59.70264
1079.467, 67.96167
1079.949, 56.08887
1080.432, 37.76611
1080.914, 37.88208
1081.396, 58.06030
1081.878, 72.16187
1082.360, 81.42993
1082.842, 75.28198
1083.324, 28.67090
1083.806, 5.587646
1084.288, 7.734375
1084.771, 36.84229
1085.253, 48.36157
1085.735, 45.18652
1086.217, 41.98633
1086.699, 37.88965
1087.181, 36.47217
1087.663, 41.17700
1088.145, 41.32495
1088.628, 32.35962
1089.110, 21.18140
1089.592, 11.31006
1090.074, 4.442383
1090.556, 4.795654
1091.038, 11.25610
1091.520, 16.82275
1092.002, 23.93896
1092.484, 26.90503
1092.967, 23.47925
1093.449, 28.59644
1093.931, 51.87378
1094.413, 76.66357
1094.895, 81.51172
1095.377, 71.00928
1095.859, 60.47168
1096.341, 50.19800
1096.823, 39.79810
1097.306, 29.90894
1097.788, 24.20410
1098.270, 23.72534
1098.752, 24.98901
1099.234, 24.75391
1099.716, 26.88110
1100.198, 41.07690
1100.680, 59.91187
1101.163, 67.52417
1101.645, 66.91528
1102.127, 67.61426
1102.609, 70.31201
1103.091, 67.73999
1103.573, 56.01050
1104.055, 47.89868
1104.537, 65.12622
1105.020, 78.85156
1105.502, 50.90161
1105.984, 12.84058
1106.466, 5.468994
1106.948, 19.88403
1107.430, 29.36475
1107.912, 27.94995
1108.394, 23.82520
1108.876, 13.44434
1109.359, 11.40967
1109.841, 35.77832
1110.323, 55.98511
1110.805, 45.55713
1111.287, 25.70850
1111.769, 26.27368
1112.251, 43.22461
1112.733, 45.88428
1113.215, 19.58545
1113.698, 9.176514
1114.180, 28.36768
1114.662, 43.56250
1115.144, 44.92285
1115.626, 44.01978
1116.108, 49.93921
1116.590, 57.11523
1117.072, 53.34912
1117.555, 38.53516
1118.037, 40.24243
1118.519, 64.65039
1119.001, 67.93286
1119.483, 41.38208
1119.965, 17.19678
1120.447, 7.411621
1120.929, 7.781250
1121.411, 14.90527
1121.894, 26.23462
1122.376, 37.40454
1122.858, 46.89697
1123.340, 47.60303
1123.822, 38.72607
1124.304, 12.25342
1124.786, 28.72192
1125.268, 46.61523
1125.750, 18.89868
1126.233, 22.89551
1126.715, 50.84204
1127.197, 65.22339
1127.679, 60.60229
1128.161, 46.27686
1128.643, 31.73999
1129.125, 22.03198
1129.607, 30.04639
1130.090, 56.06396
1130.572, 68.33691
1131.054, 37.00024
1131.536, 13.12793
1132.018, 32.52173
1132.500, 58.09814
1132.982, 67.58911
1133.464, 66.48584
1133.947, 56.84253
1134.429, 44.02319
1134.911, 46.69775
1135.393, 74.57446
1135.875, 92.13037
1136.357, 91.31421
1136.839, 87.53857
1137.321, 83.68188
1137.803, 77.32153
1138.286, 63.98926
1138.768, 51.12280
1139.250, 50.43726
1139.732, 59.99829
1140.214, 60.68701
1140.696, 51.05640
1141.178, 43.92969
1141.660, 39.99390
1142.142, 34.15967
1142.625, 23.74780
1143.107, 15.22314
1143.589, 13.26709
1144.071, 18.01440
1144.553, 35.01685
1145.035, 57.12988
1145.517, 60.70508
1145.999, 50.63916
1146.482, 39.21118
1146.964, 30.47705
1147.446, 33.88745
1147.928, 51.53320
1148.410, 60.56055
1148.892, 34.06201
1149.374, 9.255859
1149.856, 28.00317
1150.339, 56.29346
1150.821, 60.51855
1151.303, 51.00854
1151.785, 47.04907
1152.267, 48.39453
1152.749, 38.96289
1153.231, 6.831543
1153.713, 3.604492
1154.195, 46.87695
1154.677, 79.79468
1155.160, 52.76172
1155.642, 22.05933
1156.124, 26.07544
1156.606, 44.19067
1157.088, 45.73438
1157.570, 32.65161
1158.052, 28.30029
1158.534, 34.59375
1159.017, 41.10083
1159.499, 47.44360
1159.981, 54.49902
1160.463, 62.61060
1160.945, 66.08374
1161.427, 59.74585
1161.909, 48.52100
1162.391, 37.49072
1162.874, 29.56812
1163.356, 42.95410
1163.838, 66.42700
1164.320, 55.11084
1164.802, 16.12622
1165.284, 0.9167480
1165.766, 22.93799
1166.248, 40.79980
1166.730, 21.01611
1167.213, 3.421143
1167.695, 33.71289
1168.177, 67.44922
1168.659, 58.25903
1169.141, 33.50220
1169.623, 31.15381
1170.105, 45.73999
1170.587, 48.29688
1171.069, 31.19824
1171.552, 21.65845
1172.034, 29.86230
1172.516, 44.40112
1172.998, 65.83838
1173.480, 74.95190
1173.962, 55.88110
1174.444, 31.68042
1174.926, 27.56079
1175.409, 36.81104
1175.891, 36.23047
1176.373, 25.14990
1176.855, 9.724365
1177.337, 10.64160
1177.819, 3.950439
1178.301, 34.76636
1178.783, 61.72144
1179.266, 55.59570
1179.748, 37.63477
1180.230, 27.82959
1180.712, 24.30176
1181.194, 26.86328
1181.676, 31.81763
1182.158, 31.98291
1182.640, 29.72852
1183.122, 29.55469
1183.604, 32.96582
1184.087, 42.80566
1184.569, 61.54370
1185.051, 75.35474
1185.533, 79.57422
1186.015, 74.89478
1186.497, 51.91504
1186.979, 31.90747
1187.461, 36.43896
1187.944, 48.70923
1188.426, 40.88306
1188.908, 17.81738
1189.390, 11.36914
1189.872, 28.34473
1190.354, 37.70923
1190.836, 38.30566
1191.318, 34.95947
1191.801, 27.22485
1192.283, 28.57031
1192.765, 48.57983
1193.247, 64.90674
1193.729, 45.55688
1194.211, 8.096436
1194.693, 10.89258
1195.175, 10.80078
1195.657, 26.10303
1196.140, 79.49951
1196.622, 83.95239
1197.104, 39.60742
1197.586, 12.70728
1198.068, 32.04785
1198.550, 59.27051
1199.032, 74.08618
1199.514, 77.89526
1199.996, 63.15210
1200.479, 46.41675
1200.961, 39.37451
1201.443, 39.39185
1201.925, 44.41260
1202.407, 52.61572
1202.889, 52.60791
1203.371, 40.33447
1203.853, 31.81543
1204.336, 24.15015
1204.818, 32.96899
1205.300, 67.27588
1205.782, 90.22705
1206.264, 80.67310
1206.746, 54.89185
1207.228, 46.81396
1207.710, 47.76855
1208.193, 51.09058
1208.675, 54.32422
1209.157, 46.70801
1209.639, 33.31299
1210.121, 33.50049
1210.603, 45.42627
1211.085, 44.50488
1211.567, 20.58887
1212.049, 2.780029
1212.531, 17.27954
1213.014, 31.87939
1213.496, 25.19531
1213.978, 17.02710
1214.460, 21.54468
1214.942, 32.38745
1215.424, 47.03882
1215.906, 59.90112
1216.388, 48.44287
1216.871, 2.868164
1217.353, 0.2541500
1217.835, 0.0000000E+00
##END=



