##NAMES=Coffinite
##RRUFFID=R070402
##IDEAL CHEMISTRY=U^4+^(SiO_4_)&#183;nH_2_O
##LOCALITY=Happy Jack mine (Blue Dike mine), Copper Point, White Canyon, White Canyon District, San Juan County, Utah, USA
##OWNER=RRUFF
##SOURCE=Michael Scott
##DESCRIPTION=Black grains in sandstone associated with uranopilite
##STATUS=The identification of this mineral is not yet confirmed.
##URL=rruff.info/R070402
171.8392, 0.0000000E+00
172.3213, 0.2365720
172.8034, 6.384521
173.2856, 20.32910
173.7677, 35.81396
174.2498, 51.60571
174.7319, 63.82812
175.2140, 69.05762
175.6961, 69.44922
176.1783, 68.60425
176.6604, 68.03931
177.1425, 64.67822
177.6246, 49.90137
178.1067, 25.93774
178.5888, 8.047119
179.0710, 11.51123
179.5531, 28.70093
180.0352, 42.44922
180.5173, 49.54614
180.9994, 50.19531
181.4815, 40.84399
181.9637, 21.80054
182.4458, 4.164307
182.9279, 0.8920900
183.4100, 3.801270
183.8921, 7.106201
184.3742, 2.762207
184.8564, 3.650146
185.3385, 3.743408
185.8206, 26.10181
186.3027, 49.32812
186.7848, 60.28003
187.2669, 59.62524
187.7491, 52.97437
188.2312, 37.94556
188.7133, 18.26660
189.1954, 7.782715
189.6775, 7.779297
190.1596, 13.91626
190.6418, 28.26221
191.1239, 50.33667
191.6060, 64.70654
192.0881, 58.21704
192.5702, 34.60596
193.0524, 28.85669
193.5345, 44.35278
194.0166, 68.89111
194.4987, 84.68750
194.9808, 91.44263
195.4629, 94.02808
195.9451, 91.93481
196.4272, 85.37305
196.9093, 86.44263
197.3914, 98.12549
197.8735, 113.3359
198.3556, 117.1267
198.8378, 107.6299
199.3199, 98.48730
199.8020, 99.69556
200.2841, 112.4958
200.7662, 115.2671
201.2483, 103.4026
201.7305, 83.89648
202.2126, 75.15137
202.6947, 79.84985
203.1768, 85.31055
203.6589, 83.13794
204.1410, 71.66553
204.6232, 63.87427
205.1053, 64.77563
205.5874, 69.64819
206.0695, 59.30518
206.5516, 26.76270
207.0337, 2.650879
207.5159, 8.261719
207.9980, 16.35474
208.4801, 33.26318
208.9622, 33.31519
209.4443, 22.21216
209.9264, 30.90234
210.4086, 68.02417
210.8907, 107.7234
211.3728, 129.7566
211.8549, 131.1045
212.3370, 125.0354
212.8191, 109.9336
213.3013, 87.84717
213.7834, 76.29370
214.2655, 79.38257
214.7476, 86.42554
215.2297, 88.60962
215.7118, 82.09058
216.1940, 76.79956
216.6761, 75.14771
217.1582, 77.11914
217.6403, 83.87378
218.1224, 100.0715
218.6045, 114.6091
219.0867, 115.4131
219.5688, 96.24341
220.0509, 77.66797
220.5330, 62.45483
221.0151, 50.31104
221.4972, 49.43384
221.9794, 70.62646
222.4615, 91.81177
222.9436, 91.93237
223.4257, 57.44336
223.9078, 31.55493
224.3899, 26.67456
224.8721, 44.81372
225.3542, 57.38892
225.8363, 64.15674
226.3184, 65.74658
226.8005, 61.99023
227.2827, 48.68970
227.7648, 38.10034
228.2469, 33.77832
228.7290, 36.54199
229.2111, 38.82422
229.6932, 38.28345
230.1754, 38.74951
230.6575, 46.34619
231.1396, 67.84448
231.6217, 84.09375
232.1038, 88.56738
232.5859, 78.59448
233.0681, 71.84229
233.5502, 72.76855
234.0323, 73.74731
234.5144, 61.36328
234.9965, 21.95532
235.4786, 7.409424
235.9608, 12.84546
236.4429, 12.20435
236.9250, 30.27393
237.4071, 37.75073
237.8892, 40.32251
238.3713, 47.79810
238.8535, 65.96045
239.3356, 79.25928
239.8177, 81.31104
240.2998, 67.98389
240.7819, 59.50317
241.2640, 58.10840
241.7462, 60.18042
242.2283, 59.36694
242.7104, 53.82104
243.1925, 48.37549
243.6746, 44.26123
244.1567, 41.16943
244.6389, 40.93066
245.1210, 45.83887
245.6031, 52.22852
246.0852, 52.48877
246.5673, 40.53467
247.0494, 32.92920
247.5316, 37.82520
248.0137, 62.43701
248.4958, 74.35400
248.9779, 66.54932
249.4600, 49.52588
249.9421, 43.82715
250.4243, 56.19287
250.9064, 67.79346
251.3885, 71.99170
251.8706, 67.70020
252.3527, 58.85449
252.8348, 42.49609
253.3170, 23.44092
253.7991, 10.09766
254.2812, 1.037598
254.7633, 0.7143550
255.2454, 14.30371
255.7275, 49.24756
256.2097, 69.79980
256.6918, 73.49414
257.1739, 64.25830
257.6560, 45.84521
258.1381, 8.363770
258.6202, 17.21826
259.1024, 15.70166
259.5845, 23.32275
260.0666, 44.95020
260.5487, 41.96289
261.0308, 26.99023
261.5129, 24.36572
261.9951, 39.67383
262.4772, 55.65137
262.9593, 63.08252
263.4414, 57.98926
263.9235, 52.60254
264.4056, 46.73096
264.8878, 41.26367
265.3699, 37.32812
265.8520, 34.83643
266.3341, 35.23340
266.8162, 40.97021
267.2983, 53.85791
267.7805, 59.12305
268.2626, 53.86279
268.7447, 44.11133
269.2268, 42.44775
269.7089, 53.03906
270.1910, 56.63721
270.6732, 41.11719
271.1553, 2.999512
271.6374, 17.70264
272.1195, 19.28418
272.6016, 9.008301
273.0837, 2.688477
273.5659, 15.84619
274.0480, 30.60645
274.5301, 49.56006
275.0122, 73.04688
275.4943, 87.50537
275.9764, 92.75439
276.4586, 89.31006
276.9407, 72.36572
277.4228, 39.31006
277.9049, 16.73975
278.3870, 20.53516
278.8691, 49.10352
279.3513, 63.88135
279.8334, 61.50391
280.3155, 53.96777
280.7976, 61.41064
281.2798, 84.81299
281.7619, 98.08008
282.2440, 84.45605
282.7261, 49.09229
283.2082, 33.77246
283.6903, 41.95654
284.1725, 57.45752
284.6546, 58.10449
285.1367, 44.61572
285.6188, 36.88721
286.1009, 46.26123
286.5830, 67.50537
287.0652, 77.20850
287.5473, 74.11426
288.0294, 66.31152
288.5115, 61.24756
288.9936, 58.86279
289.4757, 58.87354
289.9579, 63.47900
290.4400, 69.85010
290.9221, 69.08008
291.4042, 60.67773
291.8863, 51.24902
292.3684, 46.86768
292.8506, 47.01025
293.3327, 49.55713
293.8148, 57.61328
294.2969, 66.28857
294.7790, 61.98828
295.2611, 44.66455
295.7433, 26.35840
296.2254, 17.64990
296.7075, 16.17480
297.1896, 15.24854
297.6717, 11.66455
298.1538, 8.731445
298.6360, 13.54346
299.1181, 25.43115
299.6002, 35.70508
300.0823, 34.49365
300.5644, 27.40137
301.0465, 25.33301
301.5287, 33.00488
302.0108, 44.49121
302.4929, 56.42969
302.9750, 67.84473
303.4571, 72.33350
303.9392, 60.98682
304.4214, 41.59424
304.9035, 23.73291
305.3856, 8.073242
305.8677, 2.309570
306.3498, 0.5600590
306.8319, 10.10547
307.3141, 18.44434
307.7962, 11.83008
308.2783, 2.316895
308.7604, 3.580078
309.2425, 24.08008
309.7246, 42.90527
310.2068, 43.72803
310.6889, 32.08447
311.1710, 22.45996
311.6531, 22.81396
312.1352, 27.26416
312.6173, 31.91602
313.0995, 36.41602
313.5816, 40.04053
314.0637, 45.66309
314.5458, 50.00342
315.0279, 47.01123
315.5100, 15.53516
315.9922, 9.691406
316.4743, 4.811523
316.9564, 43.77051
317.4385, 82.19629
317.9206, 90.48145
318.4027, 77.54688
318.8849, 55.86035
319.3670, 6.028320
319.8491, 32.00293
320.3312, 38.42969
320.8133, 5.964355
321.2954, 22.24805
321.7776, 38.63428
322.2597, 46.57910
322.7418, 49.69385
323.2239, 41.58105
323.7060, 35.57959
324.1881, 37.72803
324.6703, 49.48535
325.1524, 52.47461
325.6345, 30.37061
326.1166, 6.953125
326.5987, 1.463867
327.0808, 45.12744
327.5630, 69.85840
328.0451, 57.05322
328.5272, 9.294434
329.0093, 16.71973
329.4914, 9.271484
329.9735, 8.802734
330.4557, 23.56543
330.9378, 35.56396
331.4199, 42.29883
331.9020, 40.12500
332.3841, 32.02051
332.8662, 34.21777
333.3484, 55.64648
333.8305, 73.76172
334.3126, 73.07666
334.7947, 42.56348
335.2768, 28.44775
335.7589, 39.01758
336.2411, 63.93652
336.7232, 76.39404
337.2053, 72.06885
337.6874, 67.58301
338.1695, 73.96680
338.6516, 93.92676
339.1338, 97.74316
339.6159, 79.06396
340.0980, 53.33203
340.5801, 49.06836
341.0622, 68.59375
341.5443, 88.39551
342.0265, 102.4824
342.5086, 110.0190
342.9907, 98.98438
343.4728, 64.68604
343.9549, 30.51123
344.4370, 31.85449
344.9192, 64.72021
345.4013, 91.18555
345.8834, 94.28418
346.3655, 82.19287
346.8476, 75.00586
347.3297, 72.78906
347.8119, 73.54883
348.2940, 77.15039
348.7761, 82.49170
349.2582, 86.34814
349.7403, 88.79883
350.2225, 88.49951
350.7046, 77.57959
351.1867, 58.36328
351.6688, 49.41064
352.1509, 80.03516
352.6331, 125.3599
353.1152, 145.6611
353.5973, 122.9297
354.0794, 90.48926
354.5615, 76.02881
355.0436, 75.89453
355.5258, 78.96094
356.0079, 76.95459
356.4900, 76.67627
356.9721, 86.52832
357.4542, 112.1069
357.9363, 133.2114
358.4185, 136.5737
358.9006, 128.0024
359.3827, 117.5527
359.8648, 113.0601
360.3469, 104.5913
360.8290, 82.17578
361.3112, 41.53076
361.7933, 13.06348
362.2754, 11.25635
362.7575, 25.32520
363.2396, 43.59424
363.7217, 78.25049
364.2039, 102.7241
364.6860, 105.5439
365.1681, 83.26807
365.6502, 64.30225
366.1323, 55.38574
366.6144, 51.63623
367.0966, 49.74658
367.5787, 48.33398
368.0608, 50.28809
368.5429, 60.85400
369.0250, 76.72266
369.5071, 79.48584
369.9893, 57.29834
370.4714, 34.79785
370.9535, 24.34082
371.4356, 31.33691
371.9177, 38.58398
372.3998, 47.19287
372.8820, 55.30127
373.3641, 57.60498
373.8462, 50.64941
374.3283, 45.87061
374.8104, 49.74170
375.2925, 63.56738
375.7747, 65.89111
376.2568, 52.71094
376.7389, 36.03906
377.2210, 31.92969
377.7031, 39.29639
378.1852, 53.47412
378.6674, 78.09619
379.1495, 105.7100
379.6316, 112.6641
380.1137, 97.01074
380.5958, 77.76709
381.0779, 73.80908
381.5601, 82.03662
382.0422, 88.21777
382.5243, 89.09717
383.0064, 86.71973
383.4885, 83.42480
383.9706, 79.22705
384.4528, 76.02051
384.9349, 76.97607
385.4170, 79.37061
385.8991, 76.96777
386.3812, 66.28174
386.8633, 58.30664
387.3455, 67.46191
387.8276, 89.05469
388.3097, 112.1504
388.7918, 142.2236
389.2739, 164.4932
389.7560, 162.8765
390.2382, 134.3901
390.7203, 105.0571
391.2024, 78.97559
391.6845, 62.38818
392.1666, 62.69629
392.6487, 111.3833
393.1309, 150.6201
393.6130, 147.2168
394.0951, 104.5757
394.5772, 76.64746
395.0593, 93.84082
395.5414, 120.0220
396.0236, 131.8315
396.5057, 106.5073
396.9878, 87.77637
397.4699, 82.58008
397.9520, 88.04980
398.4341, 93.25977
398.9163, 97.30811
399.3984, 98.27686
399.8805, 93.89062
400.3626, 79.70068
400.8447, 73.76562
401.3268, 79.38965
401.8090, 90.74609
402.2911, 101.6787
402.7732, 115.8945
403.2553, 119.0957
403.7374, 102.7612
404.2195, 68.64697
404.7017, 48.75146
405.1838, 44.52295
405.6659, 50.69824
406.1480, 67.56445
406.6301, 95.53760
407.1122, 112.1436
407.5944, 111.3096
408.0765, 98.88525
408.5586, 87.16602
409.0407, 76.15186
409.5228, 66.54883
410.0049, 57.18262
410.4871, 49.46973
410.9692, 49.08008
411.4513, 58.20605
411.9334, 68.27393
412.4155, 68.88623
412.8976, 62.46533
413.3798, 55.87061
413.8619, 52.29785
414.3440, 50.14062
414.8261, 46.16260
415.3082, 40.37354
415.7903, 39.11572
416.2725, 58.11475
416.7546, 79.60645
417.2367, 83.15625
417.7188, 40.99268
418.2009, 2.957520
418.6830, 4.191406
419.1652, 13.06396
419.6473, 29.82568
420.1294, 46.80957
420.6115, 53.72705
421.0937, 40.82227
421.5758, 12.08398
422.0579, 43.20020
422.5400, 27.06152
423.0221, 11.83643
423.5042, 33.41602
423.9864, 20.74609
424.4685, 8.012207
424.9506, 3.185547
425.4327, 7.102051
425.9148, 8.016113
426.3969, 1.928711
426.8791, 2.625488
427.3612, 3.770020
427.8433, 27.20801
428.3254, 42.20117
428.8075, 41.92285
429.2896, 31.84863
429.7718, 30.95264
430.2539, 41.16943
430.7360, 50.30078
431.2181, 47.11963
431.7002, 33.19043
432.1823, 34.56543
432.6645, 56.19678
433.1466, 80.95264
433.6287, 85.56299
434.1108, 72.39941
434.5929, 52.20752
435.0750, 17.35938
435.5572, 16.41699
436.0393, 12.75391
436.5214, 26.49805
437.0035, 62.25830
437.4856, 55.02686
437.9677, 27.67676
438.4499, 13.15869
438.9320, 27.40332
439.4141, 43.46875
439.8962, 38.43701
440.3783, 19.91895
440.8604, 7.419922
441.3426, 14.71387
441.8247, 26.69141
442.3068, 35.07812
442.7889, 38.34766
443.2710, 40.99268
443.7531, 45.96240
444.2353, 50.21533
444.7174, 50.50879
445.1995, 40.85791
445.6816, 33.22461
446.1637, 31.75684
446.6458, 35.48096
447.1280, 33.05859
447.6101, 14.83594
448.0922, 1.128906
448.5743, 6.431641
449.0564, 46.10498
449.5385, 61.52441
450.0207, 40.64795
450.5028, 4.501465
450.9849, 2.989258
451.4670, 25.31348
451.9491, 45.71826
452.4312, 34.48096
452.9134, 2.033691
453.3955, 8.793945
453.8776, 18.12012
454.3597, 46.72803
454.8418, 35.73145
455.3239, 3.216309
455.8061, 18.54004
456.2882, 11.17529
456.7703, 54.13281
457.2524, 63.08398
457.7345, 44.67529
458.2166, 26.14062
458.6988, 25.16992
459.1809, 31.86377
459.6630, 35.37061
460.1451, 34.09863
460.6272, 33.66406
461.1093, 38.25049
461.5915, 45.61719
462.0736, 52.67236
462.5557, 59.33594
463.0378, 64.93896
463.5199, 70.45020
464.0020, 75.27344
464.4842, 75.32812
464.9663, 66.66504
465.4484, 55.23584
465.9305, 43.71387
466.4126, 28.51221
466.8947, 19.71387
467.3769, 20.40137
467.8590, 26.12646
468.3411, 29.78516
468.8232, 30.56348
469.3053, 30.57959
469.7874, 28.80566
470.2696, 25.72998
470.7517, 32.29688
471.2338, 51.42627
471.7159, 71.12451
472.1980, 79.55908
472.6801, 77.06348
473.1623, 77.29053
473.6444, 83.71338
474.1265, 90.95947
474.6086, 92.76611
475.0907, 88.85742
475.5728, 77.29541
476.0550, 44.41260
476.5371, 7.112793
477.0192, 0.7104490
477.5013, 26.43213
477.9834, 52.01367
478.4655, 43.28809
478.9477, 22.37842
479.4298, 18.48096
479.9119, 57.16357
480.3940, 94.75049
480.8761, 105.8076
481.3582, 95.27686
481.8404, 83.04443
482.3225, 71.91699
482.8046, 62.22656
483.2867, 54.79834
483.7688, 51.31592
484.2509, 45.04980
484.7331, 27.26514
485.2152, 11.14844
485.6973, 9.141602
486.1794, 31.68018
486.6615, 50.19873
487.1436, 61.27441
487.6258, 65.41943
488.1079, 63.36523
488.5900, 52.00586
489.0721, 43.05664
489.5542, 44.06689
490.0363, 55.12598
490.5185, 66.30127
491.0006, 78.23779
491.4827, 86.95117
491.9648, 84.75391
492.4470, 73.41113
492.9291, 63.28027
493.4112, 56.18506
493.8933, 53.55615
494.3754, 58.88770
494.8575, 69.82861
495.3397, 80.03125
495.8218, 82.47754
496.3039, 77.32373
496.7860, 66.34814
497.2681, 47.73096
497.7502, 34.96387
498.2324, 37.97314
498.7145, 49.82275
499.1966, 63.23877
499.6787, 81.45264
500.1608, 95.20801
500.6429, 101.7852
501.1251, 101.2446
501.6072, 95.52441
502.0893, 75.92871
502.5714, 58.99854
503.0535, 53.50635
503.5356, 67.26074
504.0178, 73.39697
504.4999, 68.80713
504.9820, 59.52051
505.4641, 54.53223
505.9462, 53.05762
506.4283, 53.07324
506.9105, 54.94434
507.3926, 58.68408
507.8747, 63.22217
508.3568, 67.85840
508.8389, 72.03662
509.3210, 76.67432
509.8032, 82.15576
510.2853, 90.71387
510.7674, 102.0063
511.2495, 110.8989
511.7316, 112.6440
512.2137, 108.7490
512.6959, 103.8774
513.1780, 98.34375
513.6601, 92.34619
514.1422, 88.03076
514.6243, 85.09180
515.1064, 84.95557
515.5886, 93.24658
516.0707, 99.79004
516.5528, 97.77002
517.0349, 82.53369
517.5170, 66.75732
517.9991, 45.01172
518.4813, 25.99316
518.9634, 21.60010
519.4455, 39.89600
519.9276, 61.49756
520.4097, 85.47119
520.8918, 108.2593
521.3740, 112.8394
521.8561, 93.16846
522.3382, 76.27930
522.8203, 84.80176
523.3024, 116.4863
523.7845, 130.1201
524.2667, 121.3623
524.7488, 102.2832
525.2309, 82.77832
525.7130, 64.49561
526.1951, 53.61963
526.6772, 56.35010
527.1594, 63.44775
527.6415, 60.91455
528.1236, 51.92725
528.6057, 50.74414
529.0878, 84.45215
529.5699, 116.5063
530.0521, 112.4526
530.5342, 55.94629
531.0163, 14.66992
531.4984, 26.70312
531.9805, 57.46289
532.4626, 70.20898
532.9448, 33.56055
533.4269, 10.80859
533.9090, 16.62988
534.3911, 41.96338
534.8732, 51.06787
535.3553, 34.43604
535.8375, 21.53174
536.3196, 29.19043
536.8017, 59.18359
537.2838, 72.10498
537.7659, 66.26318
538.2480, 50.00488
538.7302, 26.32812
539.2123, 2.462402
539.6944, 18.52441
540.1765, 15.92334
540.6586, 2.802246
541.1407, 15.02930
541.6229, 35.07666
542.1050, 48.75977
542.5871, 43.84131
543.0692, 35.27832
543.5513, 39.72705
544.0334, 58.12598
544.5156, 70.95898
544.9977, 65.38477
545.4798, 52.70215
545.9619, 41.59863
546.4440, 32.98535
546.9261, 27.08936
547.4083, 27.07568
547.8904, 29.19092
548.3725, 26.19678
548.8546, 12.56201
549.3367, 2.988770
549.8188, 1.978027
550.3010, 8.766602
550.7831, 16.34131
551.2652, 27.11279
551.7473, 30.64600
552.2294, 9.989746
552.7115, 30.45068
553.1937, 40.17139
553.6758, 9.751953
554.1579, 28.85254
554.6400, 32.12354
555.1221, 11.03320
555.6042, 2.874023
556.0864, 6.819824
556.5685, 23.24756
557.0506, 31.01514
557.5327, 31.87256
558.0148, 32.09717
558.4969, 34.30859
558.9791, 37.18408
559.4612, 40.65918
559.9433, 45.46777
560.4254, 46.84766
560.9075, 44.49854
561.3896, 37.89453
561.8718, 26.08057
562.3539, 2.1973001E-02
562.8360, 15.27832
563.3181, 13.31982
563.8002, 1.486816
564.2823, 1.790527
564.7645, 5.747559
565.2466, 11.79248
565.7287, 9.937988
566.2108, 2.493652
566.6929, 3.459473
567.1750, 13.38232
567.6572, 19.71826
568.1393, 7.063965
568.6214, 15.95752
569.1035, 32.29297
569.5856, 39.60107
570.0677, 39.44336
570.5499, 28.60693
571.0320, 12.17676
571.5141, 1.829590
571.9962, 17.65625
572.4783, 23.40869
572.9604, 5.572754
573.4426, 29.76807
573.9247, 51.84912
574.4068, 46.73682
574.8889, 35.21826
575.3710, 24.67236
575.8531, 15.71631
576.3353, 3.765625
576.8174, 15.60400
577.2995, 31.07422
577.7816, 28.39893
578.2637, 5.062500
578.7458, 7.559082
579.2280, 1.371094
579.7101, 10.92139
580.1922, 4.410156
580.6743, 17.72266
581.1564, 37.48779
581.6385, 49.06836
582.1207, 52.27295
582.6028, 40.89355
583.0849, 17.35938
583.5670, 7.4219003E-02
584.0491, 0.9067380
584.5313, 11.71240
585.0134, 30.27783
585.4955, 63.88770
585.9776, 79.88281
586.4597, 47.78369
586.9418, 2.959473
587.4240, 13.24121
587.9061, 27.10107
588.3882, 53.45068
588.8703, 52.00732
589.3524, 33.62109
589.8345, 30.38574
590.3167, 46.91260
590.7988, 60.41699
591.2809, 55.05518
591.7630, 37.73438
592.2451, 50.46436
592.7272, 94.72559
593.2094, 128.9316
593.6915, 102.5796
594.1736, 44.81494
594.6557, 12.56738
595.1378, 19.33789
595.6199, 35.71777
596.1021, 43.02197
596.5842, 45.29248
597.0663, 47.47656
597.5485, 50.78271
598.0306, 55.90967
598.5127, 66.40723
598.9948, 80.03076
599.4769, 86.84326
599.9590, 86.56348
600.4412, 78.97754
600.9233, 59.43652
601.4054, 25.84375
601.8875, 15.10498
602.3696, 34.89648
602.8517, 58.87109
603.3339, 61.09277
603.8160, 43.81885
604.2981, 37.33740
604.7802, 46.93311
605.2623, 61.20361
605.7444, 66.29248
606.2266, 64.25488
606.7087, 60.05322
607.1908, 52.32422
607.6729, 46.30420
608.1550, 44.67822
608.6371, 47.87305
609.1193, 57.70117
609.6014, 89.71777
610.0835, 115.7412
610.5656, 115.4204
611.0477, 84.84619
611.5298, 67.70020
612.0120, 74.64502
612.4941, 83.53418
612.9762, 77.03662
613.4583, 44.30957
613.9404, 36.03027
614.4225, 59.62305
614.9047, 97.53711
615.3868, 129.0684
615.8689, 154.2026
616.3510, 167.8926
616.8331, 164.0132
617.3152, 154.0889
617.7974, 159.8569
618.2795, 176.2549
618.7616, 184.0942
619.2437, 159.6704
619.7258, 132.4434
620.2079, 126.2334
620.6901, 141.5801
621.1722, 157.1475
621.6543, 164.2437
622.1364, 170.2046
622.6185, 180.4038
623.1006, 202.3818
623.5828, 212.2949
624.0649, 200.8564
624.5470, 185.9839
625.0291, 192.0410
625.5112, 224.5493
625.9933, 250.8521
626.4755, 264.4995
626.9576, 267.7964
627.4397, 264.7607
627.9218, 255.6885
628.4039, 242.8267
628.8860, 221.2007
629.3682, 199.4629
629.8503, 188.2114
630.3324, 187.5552
630.8145, 196.1162
631.2966, 224.3931
631.7787, 251.4409
632.2609, 259.0391
632.7430, 237.4292
633.2251, 226.0127
633.7072, 245.7515
634.1893, 270.5400
634.6714, 277.4834
635.1536, 256.3101
635.6357, 239.8208
636.1178, 230.2837
636.5999, 227.5693
637.0820, 236.2607
637.5641, 256.5591
638.0463, 274.1128
638.5284, 285.9028
639.0105, 290.1895
639.4926, 280.3003
639.9747, 258.3247
640.4568, 236.7607
640.9390, 216.6362
641.4211, 204.4697
641.9032, 210.5078
642.3853, 235.3408
642.8674, 257.0112
643.3495, 266.1162
643.8317, 269.3687
644.3138, 271.4995
644.7959, 273.6216
645.2780, 272.9229
645.7601, 270.4590
646.2422, 265.1821
646.7244, 253.2905
647.2065, 231.1987
647.6886, 223.1401
648.1707, 237.8545
648.6528, 262.4209
649.1349, 268.6694
649.6171, 259.3599
650.0992, 254.3140
650.5813, 265.7358
651.0634, 284.6245
651.5455, 304.4551
652.0276, 323.7505
652.5098, 333.4937
652.9919, 318.3389
653.4740, 300.3599
653.9561, 294.8057
654.4382, 305.9199
654.9203, 312.4448
655.4025, 308.8247
655.8846, 302.2480
656.3667, 296.0825
656.8488, 286.9028
657.3309, 290.6372
657.8130, 312.9692
658.2952, 339.0161
658.7773, 345.5439
659.2594, 334.3301
659.7415, 326.6924
660.2236, 331.0322
660.7057, 336.7446
661.1879, 323.7241
661.6700, 299.0571
662.1521, 282.6724
662.6342, 291.8896
663.1163, 305.8589
663.5984, 311.8643
664.0806, 310.5405
664.5627, 310.0112
665.0448, 311.9331
665.5269, 315.4644
666.0090, 321.7627
666.4911, 332.2256
666.9733, 333.2627
667.4554, 320.3770
667.9375, 306.9775
668.4196, 304.8115
668.9017, 313.5532
669.3839, 324.3257
669.8660, 337.8823
670.3481, 345.9683
670.8302, 331.9668
671.3123, 305.7529
671.7944, 288.8120
672.2766, 290.3735
672.7587, 298.9712
673.2408, 317.5781
673.7229, 336.6353
674.2050, 337.8760
674.6871, 286.8447
675.1693, 249.2930
675.6514, 251.6416
676.1335, 284.5874
676.6156, 298.9971
677.0977, 287.0347
677.5798, 274.1509
678.0620, 269.9546
678.5441, 274.3906
679.0262, 289.8286
679.5083, 317.5601
679.9904, 344.0391
680.4725, 360.3701
680.9547, 367.8911
681.4368, 365.2490
681.9189, 351.4160
682.4010, 338.8994
682.8831, 347.9341
683.3652, 356.7959
683.8474, 341.2080
684.3295, 260.7886
684.8116, 211.4873
685.2937, 237.0317
685.7758, 287.7119
686.2579, 295.9839
686.7401, 240.8633
687.2222, 200.7949
687.7043, 190.4038
688.1864, 202.8525
688.6685, 228.3584
689.1506, 265.4512
689.6328, 294.1021
690.1149, 305.0938
690.5970, 302.4194
691.0791, 287.2319
691.5612, 262.3838
692.0433, 242.8247
692.5255, 238.7612
693.0076, 240.3755
693.4897, 245.9102
693.9718, 256.5601
694.4539, 251.4067
694.9360, 208.2295
695.4182, 167.1235
695.9003, 150.5454
696.3824, 163.1821
696.8645, 178.9653
697.3466, 200.2153
697.8287, 218.0420
698.3109, 221.5103
698.7930, 212.1782
699.2751, 196.5049
699.7572, 173.7554
700.2393, 152.3018
700.7214, 139.8921
701.2036, 135.0454
701.6857, 135.4810
702.1678, 149.0454
702.6499, 157.6460
703.1320, 145.7744
703.6141, 124.1602
704.0963, 120.8833
704.5784, 156.4380
705.0605, 180.7090
705.5426, 181.8711
706.0247, 163.8940
706.5068, 145.3115
706.9890, 126.6592
707.4711, 114.2329
707.9532, 115.8535
708.4353, 125.1582
708.9174, 127.4126
709.3995, 122.6162
709.8817, 110.1729
710.3638, 72.95605
710.8459, 38.85107
711.3280, 41.85059
711.8101, 89.98486
712.2922, 121.2739
712.7744, 107.0435
713.2565, 81.18848
713.7386, 66.05078
714.2207, 65.28027
714.7028, 66.50439
715.1849, 71.27441
715.6671, 76.63867
716.1492, 76.87891
716.6313, 71.01367
717.1134, 64.17480
717.5955, 57.85156
718.0776, 55.07373
718.5598, 63.94580
719.0419, 78.55811
719.5240, 87.41748
720.0061, 84.50293
720.4882, 77.38477
720.9703, 67.78760
721.4525, 56.60791
721.9346, 45.70020
722.4167, 27.59326
722.8988, 20.15625
723.3809, 30.62256
723.8630, 53.86133
724.3452, 71.73535
724.8273, 85.20801
725.3094, 85.90088
725.7915, 61.71289
726.2736, 24.74805
726.7557, 6.693848
727.2379, 5.992676
727.7200, 10.39355
728.2021, 10.62012
728.6842, 13.49463
729.1663, 27.86426
729.6484, 54.81592
730.1306, 75.82031
730.6127, 85.62109
731.0948, 87.66260
731.5769, 83.52100
732.0590, 71.57764
732.5411, 59.92432
733.0233, 48.61914
733.5054, 37.46582
733.9875, 25.76123
734.4696, 13.75635
734.9517, 2.254395
735.4338, 9.750977
735.9160, 15.12842
736.3981, 3.847656
736.8802, 30.84180
737.3623, 39.64502
737.8444, 9.747559
738.3266, 12.95215
738.8087, 3.499023
739.2908, 20.98193
739.7729, 35.46631
740.2551, 34.98535
740.7372, 31.62061
741.2193, 25.49854
741.7014, 18.24902
742.1835, 11.96680
742.6656, 6.659180
743.1478, 8.255371
743.6299, 24.02783
744.1120, 41.72168
744.5941, 37.33057
745.0762, 14.75684
745.5583, 4.911621
746.0405, 10.34570
746.5226, 10.04248
747.0047, 10.17676
747.4868, 9.347656
747.9689, 2.174316
748.4510, 44.56543
748.9332, 72.63379
749.4153, 66.76855
749.8974, 30.84180
750.3795, 11.72314
750.8616, 11.18457
751.3438, 13.96631
751.8259, 13.50781
752.3080, 8.721191
752.7901, 9.123535
753.2722, 38.99805
753.7543, 57.36816
754.2365, 37.66211
754.7186, 7.526367
755.2007, 10.34424
755.6828, 11.15283
756.1649, 13.78857
756.6470, 24.24268
757.1292, 36.94922
757.6113, 46.12646
758.0934, 49.99658
758.5755, 50.08154
759.0576, 45.57373
759.5397, 39.95996
760.0219, 37.36523
760.5040, 36.50586
760.9861, 35.81104
761.4682, 36.03174
761.9503, 32.18604
762.4324, 8.164551
762.9146, 16.98486
763.3967, 19.63818
763.8788, 26.89355
764.3609, 61.92822
764.8430, 69.66846
765.3251, 64.16309
765.8073, 60.72217
766.2894, 60.93066
766.7715, 58.23828
767.2536, 51.35547
767.7357, 39.77100
768.2178, 13.70410
768.7000, 20.33350
769.1821, 33.24170
769.6642, 6.118164
770.1463, 29.53711
770.6284, 54.07178
771.1105, 66.76807
771.5927, 66.05566
772.0748, 36.34473
772.5569, 9.293945
773.0390, 13.60156
773.5211, 27.50781
774.0032, 15.10986
774.4854, 33.22168
774.9675, 71.50342
775.4496, 84.16943
775.9317, 79.49951
776.4138, 75.48193
776.8959, 72.55127
777.3781, 70.92578
777.8602, 67.82080
778.3423, 66.25439
778.8244, 72.07959
779.3065, 82.75391
779.7886, 86.82129
780.2708, 70.98096
780.7529, 57.18457
781.2350, 55.11816
781.7171, 63.09277
782.1992, 59.18262
782.6813, 39.07520
783.1635, 25.19531
783.6456, 34.67139
784.1277, 57.46777
784.6098, 56.83252
785.0919, 35.44922
785.5740, 19.15039
786.0562, 33.76123
786.5383, 53.86865
787.0204, 54.76953
787.5025, 35.19922
787.9846, 24.12695
788.4667, 41.02148
788.9489, 55.52441
789.4310, 50.69189
789.9131, 24.48486
790.3952, 27.59619
790.8773, 67.04150
791.3594, 102.1265
791.8416, 93.56201
792.3237, 57.93066
792.8058, 40.34277
793.2879, 42.50049
793.7700, 46.62451
794.2521, 35.66797
794.7343, 24.72510
795.2164, 29.55127
795.6985, 57.72559
796.1806, 74.39941
796.6627, 70.41064
797.1448, 61.74023
797.6270, 57.64258
798.1091, 58.28271
798.5912, 64.50684
799.0733, 78.12939
799.5554, 87.99316
800.0375, 82.32666
800.5197, 65.46631
801.0018, 40.42285
801.4839, 5.290039
801.9660, 15.22119
802.4481, 8.990234
802.9302, 45.36133
803.4124, 64.64893
803.8945, 50.47754
804.3766, 47.75977
804.8587, 63.04346
805.3408, 81.28564
805.8229, 88.64893
806.3051, 84.84814
806.7872, 80.68701
807.2693, 77.10303
807.7514, 72.92090
808.2335, 67.14697
808.7156, 60.16602
809.1978, 51.00537
809.6799, 36.55176
810.1620, 27.93457
810.6441, 36.31885
811.1262, 47.84473
811.6083, 50.06494
812.0905, 40.39551
812.5726, 35.29248
813.0547, 36.32422
813.5368, 35.70654
814.0189, 15.30322
814.5010, 17.90381
814.9832, 15.39453
815.4653, 38.59473
815.9474, 89.79492
816.4295, 77.69678
816.9116, 37.98389
817.3937, 15.17529
817.8759, 22.67725
818.3580, 40.95605
818.8401, 86.23779
819.3222, 129.4463
819.8043, 139.3345
820.2864, 106.7173
820.7686, 82.08740
821.2507, 72.19775
821.7328, 70.43018
822.2149, 68.86279
822.6970, 65.84473
823.1791, 54.24902
823.6613, 27.41455
824.1434, 9.552734
824.6255, 28.41943
825.1076, 59.29541
825.5897, 74.63770
826.0718, 51.57764
826.5540, 38.32715
827.0361, 42.56006
827.5182, 51.76953
828.0003, 44.70752
828.4824, 21.03223
828.9645, 5.640625
829.4467, 2.231934
829.9288, 7.971680
830.4109, 28.47510
830.8930, 52.04053
831.3751, 61.21826
831.8572, 45.86914
832.3394, 34.03467
832.8215, 40.79736
833.3036, 50.53125
833.7857, 43.86572
834.2678, 8.743652
834.7499, 4.580078
835.2321, 13.58691
835.7142, 38.71191
836.1963, 36.46240
836.6784, 14.65381
837.1605, 0.6503910
837.6426, 0.5092770
838.1248, 8.332520
838.6069, 40.88623
839.0890, 74.66748
839.5711, 82.69580
840.0532, 34.90283
840.5353, 6.902344
841.0175, 11.42529
841.4996, 28.38379
841.9817, 36.93262
842.4638, 36.54688
842.9459, 44.20117
843.4280, 63.38379
843.9102, 81.03027
844.3923, 81.49219
844.8744, 70.00098
845.3565, 59.95068
845.8386, 56.99023
846.3207, 51.52246
846.8029, 26.71338
847.2850, 6.304199
847.7671, 13.08252
848.2492, 64.38818
848.7313, 96.42188
849.2134, 107.4673
849.6956, 102.9614
850.1777, 77.73291
850.6598, 40.71729
851.1419, 26.83691
851.6240, 42.19189
852.1061, 63.83740
852.5883, 83.21973
853.0704, 95.17188
853.5525, 92.74658
854.0346, 66.96973
854.5167, 52.50391
854.9988, 58.00342
855.4810, 66.28564
855.9631, 64.20117
856.4452, 51.52783
856.9273, 42.20557
857.4094, 36.27734
857.8915, 37.62061
858.3737, 62.97266
858.8558, 90.95361
859.3379, 86.52979
859.8200, 42.30566
860.3021, 12.02832
860.7842, 21.86133
861.2664, 44.01025
861.7485, 65.83594
862.2306, 88.90674
862.7127, 94.21191
863.1948, 77.73047
863.6769, 61.39795
864.1591, 68.22998
864.6412, 85.08350
865.1233, 75.90137
865.6054, 41.59033
866.0875, 11.07129
866.5696, 1.381836
867.0518, 2.260742
867.5339, 9.153320
868.0160, 33.54639
868.4981, 45.44385
868.9802, 39.63281
869.4623, 31.43701
869.9445, 26.77344
870.4266, 25.79150
870.9087, 31.04736
871.3908, 41.92383
871.8729, 50.65088
872.3550, 51.64209
872.8372, 48.66309
873.3193, 45.47803
873.8014, 39.75635
874.2835, 28.81787
874.7656, 7.125000
875.2477, 24.32080
875.7299, 3.104980
876.2120, 44.06348
876.6941, 68.76709
877.1762, 71.00684
877.6583, 66.22021
878.1404, 57.32031
878.6226, 48.45996
879.1047, 48.96582
879.5869, 54.11865
880.0690, 51.79932
880.5511, 25.00244
881.0332, 5.592285
881.5153, 1.524902
881.9974, 3.339355
882.4796, 26.51904
882.9617, 74.76807
883.4438, 96.97363
883.9259, 71.24902
884.4080, 34.04248
884.8901, 50.71533
885.3723, 100.9004
885.8544, 137.4419
886.3365, 143.3105
886.8186, 132.4521
887.3007, 94.85303
887.7828, 51.50635
888.2650, 31.25879
888.7471, 39.87207
889.2292, 58.67236
889.7113, 91.44189
890.1934, 121.9780
890.6755, 124.2173
891.1577, 107.0532
891.6398, 101.3848
892.1219, 116.0728
892.6040, 123.7461
893.0861, 95.16846
893.5682, 58.06689
894.0504, 40.13672
894.5325, 55.92822
895.0146, 62.09912
895.4967, 54.04297
895.9788, 46.30273
896.4609, 53.10938
896.9431, 71.31152
897.4252, 82.35547
897.9073, 85.00391
898.3894, 86.87646
898.8715, 101.2373
899.3536, 113.3906
899.8358, 110.6021
900.3179, 91.00781
900.8000, 61.45850
901.2821, 2.369141
901.7642, 35.47852
902.2463, 20.14697
902.7285, 38.79541
903.2106, 70.15527
903.6927, 74.58740
904.1748, 71.91699
904.6569, 68.36475
905.1390, 67.37207
905.6212, 82.60400
906.1033, 106.8394
906.5854, 108.4995
907.0675, 44.08008
907.5496, 1.559082
908.0317, 1.958008
908.5139, 27.31006
908.9960, 37.35986
909.4781, 28.27246
909.9602, 26.78027
910.4423, 48.01611
910.9244, 71.68701
911.4066, 69.11133
911.8887, 51.86768
912.3708, 41.21973
912.8529, 49.22070
913.3350, 58.73047
913.8171, 70.33105
914.2993, 79.16211
914.7814, 77.20557
915.2635, 63.59033
915.7456, 49.23730
916.2277, 33.89795
916.7098, 26.35107
917.1920, 46.93701
917.6741, 78.04883
918.1562, 92.40381
918.6383, 80.52393
919.1204, 67.66748
919.6025, 59.16602
920.0847, 53.85498
920.5668, 52.13477
921.0489, 55.63135
921.5310, 54.03076
922.0131, 45.35303
922.4952, 39.26465
922.9774, 50.35059
923.4595, 66.92969
923.9416, 67.39746
924.4237, 51.36035
924.9058, 35.06934
925.3879, 17.40723
925.8701, 9.834961
926.3522, 20.43408
926.8343, 45.93164
927.3164, 59.54395
927.7985, 60.47168
928.2806, 57.59229
928.7628, 49.67090
929.2449, 45.40137
929.7270, 67.20361
930.2091, 104.1255
930.6912, 127.1836
931.1733, 114.1182
931.6555, 97.09277
932.1376, 81.90332
932.6197, 69.53076
933.1018, 65.43555
933.5839, 74.67285
934.0660, 72.52832
934.5482, 50.39111
935.0303, 26.48730
935.5124, 27.89600
935.9945, 43.04639
936.4766, 52.15771
936.9587, 51.02490
937.4409, 43.04541
937.9230, 8.461426
938.4051, 16.43018
938.8872, 4.362793
939.3693, 86.78516
939.8514, 116.2993
940.3336, 86.77637
940.8157, 47.11035
941.2978, 30.20215
941.7799, 32.31543
942.2620, 58.85059
942.7441, 107.1167
943.2263, 134.0898
943.7084, 101.4424
944.1905, 65.57324
944.6726, 49.44580
945.1547, 49.80225
945.6368, 44.97607
946.1190, 34.22754
946.6011, 29.73828
947.0832, 38.56299
947.5653, 54.71973
948.0474, 81.29980
948.5295, 108.4136
949.0117, 113.2559
949.4938, 56.01465
949.9759, 16.89404
950.4580, 16.08740
950.9401, 36.33008
951.4222, 54.57520
951.9044, 70.91650
952.3865, 82.73535
952.8686, 90.34570
953.3507, 89.32666
953.8328, 62.42969
954.3149, 30.08887
954.7971, 20.33594
955.2792, 45.60156
955.7613, 67.04736
956.2434, 82.52686
956.7255, 88.20264
957.2076, 75.90430
957.6898, 46.66260
958.1719, 43.07373
958.6540, 64.72021
959.1361, 83.85791
959.6182, 80.89746
960.1003, 67.46191
960.5825, 45.43262
961.0646, 17.01807
961.5467, 1.042969
962.0288, 7.028320
962.5109, 18.06445
962.9930, 33.21289
963.4752, 48.28223
963.9573, 49.11816
964.4394, 38.39111
964.9215, 32.75439
965.4036, 38.16943
965.8857, 48.91797
966.3679, 67.30322
966.8500, 85.22607
967.3321, 92.06055
967.8142, 78.57373
968.2963, 67.96387
968.7784, 60.15283
969.2606, 55.47900
969.7427, 56.41553
970.2248, 60.87646
970.7069, 61.57861
971.1890, 57.95898
971.6711, 52.01758
972.1533, 38.48438
972.6354, 28.59229
973.1175, 32.89697
973.5996, 51.13525
974.0817, 63.60498
974.5638, 70.37646
975.0460, 70.96387
975.5281, 62.95410
976.0102, 50.30566
976.4923, 51.43945
976.9744, 60.24463
977.4565, 58.16211
977.9387, 24.44531
978.4208, 6.733398
978.9029, 29.51318
979.3850, 39.65723
979.8671, 28.26270
980.3492, 9.012207
980.8314, 44.89160
981.3135, 78.64600
981.7956, 100.7026
982.2777, 94.04785
982.7598, 72.35840
983.2419, 51.66895
983.7241, 32.81738
984.2062, 29.08984
984.6883, 65.30713
985.1704, 96.07666
985.6525, 98.07812
986.1346, 74.85742
986.6168, 65.11621
987.0989, 67.70801
987.5810, 71.49854
988.0631, 74.01123
988.5452, 71.10156
989.0273, 49.20557
989.5095, 19.06885
989.9916, 9.143066
990.4737, 48.57520
990.9558, 70.07227
991.4379, 59.49609
991.9200, 36.66895
992.4022, 33.41162
992.8843, 45.04688
993.3664, 51.58838
993.8485, 49.00928
994.3306, 44.96338
994.8127, 41.08057
995.2949, 40.50098
995.7770, 47.40674
996.2591, 62.40234
996.7412, 74.83838
997.2233, 83.89648
997.7054, 90.19141
998.1876, 94.04346
998.6697, 92.57910
999.1518, 77.77148
999.6339, 54.85010
1000.116, 42.68262
1000.598, 65.89062
1001.080, 81.77490
1001.562, 65.69873
1002.044, 37.70410
1002.527, 37.37305
1003.009, 67.38379
1003.491, 86.04053
1003.973, 84.90234
1004.455, 73.13379
1004.937, 46.27539
1005.419, 21.82812
1005.901, 28.96387
1006.384, 87.00146
1006.866, 113.0273
1007.348, 79.60840
1007.830, 41.14160
1008.312, 28.87451
1008.794, 38.27539
1009.276, 40.32568
1009.758, 36.59033
1010.240, 40.33447
1010.723, 79.45215
1011.205, 108.6162
1011.687, 82.50684
1012.169, 25.77783
1012.651, 7.921875
1013.133, 47.38232
1013.615, 75.06445
1014.097, 79.00879
1014.580, 72.66797
1015.062, 75.37305
1015.544, 81.10205
1016.026, 77.75049
1016.508, 62.08398
1016.990, 43.18994
1017.472, 16.33789
1017.954, 4.547363
1018.436, 10.93213
1018.919, 3.454102
1019.401, 6.537598
1019.883, 19.20752
1020.365, 32.03760
1020.847, 44.42041
1021.329, 55.55371
1021.811, 68.69678
1022.293, 79.64502
1022.776, 77.65625
1023.258, 41.94824
1023.740, 26.19287
1024.222, 42.35400
1024.704, 68.88867
1025.186, 74.97607
1025.668, 66.39551
1026.150, 63.95166
1026.632, 71.26514
1027.115, 74.79443
1027.597, 59.94043
1028.079, 43.94678
1028.561, 39.45459
1029.043, 45.94092
1029.525, 49.99365
1030.007, 51.25293
1030.489, 52.68457
1030.972, 59.93555
1031.454, 63.34814
1031.936, 39.72803
1032.418, 3.110840
1032.900, 16.17334
1033.382, 4.4434000E-02
1033.864, 24.07520
1034.346, 61.19873
1034.828, 94.03320
1035.311, 99.51123
1035.793, 81.50635
1036.275, 60.15234
1036.757, 36.02295
1037.239, 26.18213
1037.721, 67.93506
1038.203, 109.5254
1038.685, 101.5181
1039.167, 49.90332
1039.650, 29.54736
1040.132, 47.47510
1040.614, 67.37158
1041.096, 78.38330
1041.578, 82.21826
1042.060, 82.05957
1042.542, 76.30859
1043.024, 59.91895
1043.507, 16.30615
1043.989, 6.462891
1044.471, 14.22754
1044.953, 41.39258
1045.435, 44.61963
1045.917, 26.18506
1046.399, 16.46973
1046.881, 15.75830
1047.364, 17.10059
1047.846, 18.49414
1048.328, 18.07422
1048.810, 11.87793
1049.292, 2.257813
1049.774, 2.185547
1050.256, 3.211426
1050.738, 10.99854
1051.220, 49.55518
1051.703, 85.88623
1052.185, 66.75146
1052.667, 23.20215
1053.149, 14.53906
1053.631, 65.20117
1054.113, 88.58447
1054.595, 34.40918
1055.077, 21.37598
1055.559, 40.55420
1056.042, 27.73438
1056.524, 10.28564
1057.006, 10.74219
1057.488, 25.29834
1057.970, 17.36035
1058.452, 12.11865
1058.934, 32.88477
1059.416, 65.01514
1059.899, 79.47168
1060.381, 69.40039
1060.863, 64.91162
1061.345, 69.19580
1061.827, 76.03174
1062.309, 82.51074
1062.791, 85.74658
1063.273, 76.22266
1063.755, 53.99414
1064.238, 45.89014
1064.720, 79.61963
1065.202, 101.1685
1065.684, 89.63916
1066.166, 58.81494
1066.648, 47.99365
1067.130, 53.36279
1067.612, 56.49512
1068.094, 50.50488
1068.577, 43.49414
1069.059, 41.08350
1069.541, 39.44775
1070.023, 33.84863
1070.505, 22.21533
1070.987, 19.63916
1071.469, 26.91650
1071.951, 34.31836
1072.434, 33.63525
1072.916, 30.52100
1073.398, 33.92969
1073.880, 40.98193
1074.362, 41.00439
1074.844, 19.13916
1075.326, 13.36914
1075.808, 35.33740
1076.291, 61.53662
1076.773, 50.79834
1077.255, 18.94873
1077.737, 16.29785
1078.219, 51.59180
1078.701, 81.21924
1079.183, 81.00244
1079.665, 69.47949
1080.147, 52.77686
1080.630, 34.47559
1081.112, 40.70850
1081.594, 70.32666
1082.076, 87.04443
1082.558, 71.07471
1083.040, 48.87988
1083.522, 37.77051
1084.004, 37.64648
1084.486, 51.32080
1084.969, 92.72754
1085.451, 105.7285
1085.933, 83.60010
1086.415, 57.96387
1086.897, 52.70850
1087.379, 60.21045
1087.861, 71.92725
1088.343, 85.30078
1088.826, 91.15283
1089.308, 79.88281
1089.790, 68.36133
1090.272, 57.65137
1090.754, 49.31299
1091.236, 49.85938
1091.718, 57.75928
1092.200, 73.45166
1092.682, 98.24463
1093.165, 111.4419
1093.647, 88.16357
1094.129, 59.62695
1094.611, 43.62939
1095.093, 39.98633
1095.575, 51.18994
1096.057, 78.07910
1096.539, 99.43066
1097.022, 108.8262
1097.504, 105.9409
1097.986, 77.21826
1098.468, 41.14697
1098.950, 25.39795
1099.432, 47.71240
1099.914, 49.60693
1100.396, 22.55029
1100.879, 2.496094
1101.361, 27.99805
1101.843, 72.23047
1102.325, 84.55566
1102.807, 70.12256
1103.289, 51.45898
1103.771, 23.10889
1104.253, 11.48584
1104.735, 26.82666
1105.218, 51.85742
1105.700, 61.75830
1106.182, 59.84521
1106.664, 63.25391
1107.146, 74.05127
1107.628, 78.42529
1108.110, 61.56885
1108.592, 42.63623
1109.074, 29.70068
1109.557, 23.36963
1110.039, 30.40234
1110.521, 51.07666
1111.003, 63.80957
1111.485, 61.89062
1111.967, 51.05664
1112.449, 23.31982
1112.931, 3.833496
1113.414, 6.249023
1113.896, 26.28076
1114.378, 45.86572
1114.860, 56.17041
1115.342, 57.16309
1115.824, 20.27051
1116.306, 34.02246
1116.788, 27.93604
1117.271, 20.40186
1117.753, 40.54932
1118.235, 10.33984
1118.717, 30.58154
1119.199, 30.96729
1119.681, 40.72070
1120.163, 30.85498
1120.645, 27.34570
1121.127, 43.91016
1121.609, 49.72363
1122.092, 38.49756
1122.574, 50.18994
1123.056, 21.53076
1123.538, 28.70312
1124.020, 51.46387
1124.502, 42.35059
1124.984, 55.53857
1125.466, 18.37695
1125.949, 21.19971
1126.431, 28.60352
1126.913, 48.07080
1127.395, 65.99951
1127.877, 72.08496
1128.359, 67.46045
1128.841, 56.62646
1129.323, 38.79590
1129.806, 29.62695
1130.288, 36.31982
1130.770, 50.56299
1131.252, 71.14355
1131.734, 90.81055
1132.216, 98.54736
1132.698, 89.51611
1133.180, 85.70752
1133.662, 90.33008
1134.145, 89.49023
1134.627, 70.72461
1135.109, 43.31201
1135.591, 16.21484
1136.073, 7.265625
1136.555, 18.11475
1137.037, 4.320313
1137.519, 8.933594
1138.001, 20.37988
1138.484, 30.67334
1138.966, 42.16650
1139.448, 52.59521
1139.930, 50.58350
1140.412, 39.30859
1140.894, 40.54150
1141.376, 84.14062
1141.858, 113.8481
1142.341, 113.5640
1142.823, 93.85107
1143.305, 63.68701
1143.787, 29.75342
1144.269, 28.94385
1144.751, 71.63818
1145.233, 100.4150
1145.715, 63.91943
1146.198, 23.05664
1146.680, 11.57471
1147.162, 23.64404
1147.644, 32.84033
1148.126, 39.66553
1148.608, 50.99756
1149.090, 75.73193
1149.572, 88.12598
1150.054, 49.85107
1150.536, 4.036133
1151.019, 5.512695
1151.501, 26.14893
1151.983, 50.80029
1152.465, 68.86328
1152.947, 73.01465
1153.429, 50.16162
1153.911, 21.95801
1154.393, 4.950195
1154.876, 1.653320
1155.358, 2.716797
1155.840, 22.64258
1156.322, 37.10693
1156.804, 45.59424
1157.286, 49.19385
1157.768, 40.63086
1158.250, 33.43604
1158.733, 52.38379
1159.215, 88.64844
1159.697, 107.5718
1160.179, 99.43701
1160.661, 82.12598
1161.143, 52.65967
1161.625, 28.70166
1162.107, 39.59863
1162.589, 65.76758
1163.072, 73.34766
1163.554, 60.95850
1164.036, 46.41846
1164.518, 23.47314
1165.000, 19.35400
1165.482, 50.17969
1165.964, 87.79834
1166.446, 67.30127
1166.928, 16.87354
1167.411, 5.546875
1167.893, 53.23486
1168.375, 87.20557
1168.857, 65.13379
1169.339, 46.34766
1169.821, 58.82520
1170.303, 88.77246
1170.785, 96.95654
1171.268, 87.91309
1171.750, 77.48242
1172.232, 72.93018
1172.714, 60.43506
1173.196, 16.32861
1173.678, 18.79639
1174.160, 13.28662
1174.642, 24.02246
1175.125, 31.03613
1175.607, 13.25342
1176.089, 0.5175780
1176.571, 11.61133
1177.053, 24.60400
1177.535, 33.30420
1178.017, 36.68799
1178.499, 30.44824
1178.981, 14.86279
1179.464, 15.76074
1179.946, 31.36035
1180.428, 44.73340
1180.910, 39.32080
1181.392, 35.43604
1181.874, 49.35889
1182.356, 68.18408
1182.838, 77.26172
1183.320, 76.52490
1183.803, 73.85156
1184.285, 69.84375
1184.767, 61.57324
1185.249, 35.59619
1185.731, 15.34326
1186.213, 25.69385
1186.695, 53.70459
1187.177, 61.61572
1187.660, 47.96484
1188.142, 37.12744
1188.624, 33.55420
1189.106, 29.52197
1189.588, 8.383301
1190.070, 7.921387
1190.552, 5.766602
1191.034, 44.06592
1191.516, 65.10596
1191.999, 67.96631
1192.481, 60.81689
1192.963, 43.05615
1193.445, 26.31689
1193.927, 26.22607
1194.409, 29.77295
1194.891, 21.86670
1195.373, 0.5820310
1195.855, 0.9526370
1196.338, 26.89404
1196.820, 38.96338
1197.302, 14.26270
1197.784, 14.82324
1198.266, 13.74268
1198.748, 4.041504
1199.230, 27.28809
1199.712, 58.95703
1200.195, 62.31152
1200.677, 32.10693
1201.159, 10.61621
1201.641, 29.49902
1202.123, 57.12207
1202.605, 53.08838
1203.087, 34.34082
1203.569, 30.74316
1204.052, 57.42480
1204.534, 59.16846
1205.016, 31.47998
1205.498, 5.873047
1205.980, 11.56543
1206.462, 25.12793
1206.944, 12.19141
1207.426, 12.84570
1207.908, 13.66797
1208.391, 27.03516
1208.873, 46.71191
1209.355, 39.84961
1209.837, 31.85498
1210.319, 52.46191
1210.801, 77.68896
1211.283, 78.35986
1211.765, 59.44141
1212.247, 40.51807
1212.730, 20.55469
1213.212, 10.08789
1213.694, 10.98242
1214.176, 17.65820
1214.658, 25.47363
1215.140, 35.67236
1215.622, 51.96045
1216.104, 72.79053
1216.587, 89.06934
1217.069, 102.9907
1217.551, 102.8198
1218.033, 85.09082
1218.515, 59.68213
1218.997, 27.29443
1219.479, 0.3120120
1219.961, 2.293457
1220.443, 18.74219
1220.926, 29.29199
1221.408, 24.66406
1221.890, 22.62012
1222.372, 27.28809
1222.854, 35.64795
1223.336, 49.93604
1223.818, 62.15430
1224.300, 62.52148
1224.782, 49.10010
1225.265, 27.98828
1225.747, 7.827148
1226.229, 12.21729
1226.711, 40.44922
1227.193, 98.44189
1227.675, 96.75635
1228.157, 65.91357
1228.639, 37.91406
1229.122, 15.86865
1229.604, 9.651855
1230.086, 21.12158
1230.568, 36.86426
1231.050, 55.14844
1231.532, 67.10205
1232.014, 59.36230
1232.496, 45.57666
1232.979, 42.57373
1233.461, 53.43994
1233.943, 58.40186
1234.425, 57.35010
1234.907, 50.32861
1235.389, 35.04492
1235.871, 18.96045
1236.353, 3.328125
1236.835, 5.918945
1237.318, 4.549805
1237.800, 40.62695
1238.282, 41.86182
1238.764, 6.634766
1239.246, 16.92871
1239.728, 11.56982
1240.210, 46.05859
1240.692, 41.87744
1241.175, 23.15918
1241.657, 24.90674
1242.139, 53.29346
1242.621, 63.20068
1243.103, 53.75977
1243.585, 46.14502
1244.067, 53.39844
1244.549, 64.16162
1245.031, 74.53955
1245.514, 81.57861
1245.996, 80.97217
1246.478, 72.64502
1246.960, 62.55957
1247.442, 52.44092
1247.924, 49.22461
1248.406, 66.78076
1248.888, 77.87695
1249.370, 56.74121
1249.853, 26.76562
1250.335, 18.81348
1250.817, 32.13672
1251.299, 50.59229
1251.781, 71.28857
1252.263, 85.78271
1252.745, 88.90820
1253.227, 85.09668
1253.710, 76.44580
1254.192, 62.70166
1254.674, 37.98242
1255.156, 5.744629
1255.638, 7.787598
1256.120, 2.491699
1256.602, 5.267090
1257.084, 1.784180
1257.567, 6.264160
1258.049, 27.39844
1258.531, 54.89697
1259.013, 69.50049
1259.495, 75.06396
1259.977, 91.65381
1260.459, 117.8486
1260.941, 120.9810
1261.423, 58.86523
1261.906, 13.89404
1262.388, 2.345703
1262.870, 12.50391
1263.352, 38.33545
1263.834, 70.58057
1264.316, 86.37500
1264.798, 84.62402
1265.280, 81.16113
1265.762, 73.48145
1266.245, 79.43555
1266.727, 110.2158
1267.209, 137.8711
1267.691, 99.63574
1268.173, 38.46777
1268.655, 14.68652
1269.137, 31.76465
1269.619, 49.86133
1270.102, 67.78906
1270.584, 73.99512
1271.066, 63.67969
1271.548, 48.86328
1272.030, 43.98145
1272.512, 43.81152
1272.994, 40.99902
1273.476, 35.81445
1273.958, 40.60449
1274.441, 59.19043
1274.923, 67.52148
1275.405, 58.51758
1275.887, 43.51367
1276.369, 32.61523
1276.851, 31.69238
1277.333, 59.75586
1277.815, 106.2246
1278.297, 105.8584
1278.780, 55.70703
1279.262, 23.37109
1279.744, 27.88867
1280.226, 42.17871
1280.708, 45.31055
1281.190, 49.16602
1281.672, 66.69336
1282.154, 91.44043
1282.637, 96.42090
1283.119, 84.35352
1283.601, 75.29492
1284.083, 73.83105
1284.565, 73.40820
1285.047, 69.49609
1285.529, 66.64062
1286.011, 69.42871
1286.494, 73.26270
1286.976, 55.82520
1287.458, 27.74414
1287.940, 30.67969
1288.422, 78.37012
1288.904, 115.3975
1289.386, 123.9746
1289.868, 111.4414
1290.350, 71.73926
1290.833, 23.48340
1291.315, 0.3974610
1291.797, 3.499023
1292.279, 11.08301
1292.761, 44.88184
1293.243, 77.81348
1293.725, 102.9600
1294.207, 92.27344
1294.689, 65.26367
1295.172, 23.32031
1295.654, 0.0000000E+00
##END=



