##NAMES=Cohenite
##RRUFFID=R100076
##IDEAL CHEMISTRY=Fe_3_C
##LOCALITY=Asuk, Disko, West Greenland, Greenland
##OWNER=RRUFF
##SOURCE=Michael Scott
##DESCRIPTION=Polished thick section associated with native iron
##STATUS=The identification of this mineral is confirmed by single-crystal X-ray diffraction and chemical analysis.
##URL=rruff.info/R100076
##MEASURED CHEMISTRY=Fe_2.96_Ni_.02_C, normalized to 1 carbon
118.5317, 1.184708
119.0139, 2.686127
119.4960, 7.691132
119.9781, 11.87086
120.4602, 13.61641
120.9423, 14.00520
121.4244, 15.00381
121.9066, 18.22739
122.3887, 23.92062
122.8708, 28.66665
123.3529, 32.65498
123.8350, 35.81361
124.3171, 38.38247
124.7993, 40.09846
125.2814, 40.76526
125.7635, 40.08616
126.2456, 37.73836
126.7277, 34.76928
127.2098, 29.96320
127.6920, 25.02717
128.1741, 22.25853
128.6562, 22.45950
129.1383, 23.49482
129.6204, 22.41762
130.1025, 19.54477
130.5847, 16.97259
131.0668, 15.94518
131.5489, 16.03237
132.0310, 15.45016
132.5131, 12.83601
132.9952, 10.06738
133.4774, 9.239067
133.9595, 10.42944
134.4416, 11.86189
134.9237, 12.00118
135.4058, 10.99791
135.8879, 10.83435
136.3701, 13.17075
136.8522, 15.88746
137.3343, 17.52025
137.8164, 17.78359
138.2985, 17.36961
138.7806, 17.44157
139.2628, 18.73544
139.7449, 19.26395
140.2270, 18.41038
140.7091, 17.27827
141.1912, 16.40614
141.6733, 16.67456
142.1555, 17.74075
142.6376, 17.85289
143.1197, 16.72860
143.6018, 15.29770
144.0839, 13.02235
144.5660, 10.52665
145.0482, 8.869606
145.5303, 8.731567
146.0124, 9.819061
146.4945, 10.13402
146.9766, 9.191498
147.4587, 8.039112
147.9409, 7.126026
148.4230, 6.424274
148.9051, 5.652756
149.3872, 4.585999
149.8693, 3.334351
150.3514, 2.335953
150.8336, 1.460461
151.3157, 0.8791430
151.7978, 0.9752620
152.2799, 1.871670
152.7620, 2.617764
153.2441, 2.144226
153.7263, 0.9593200
154.2084, 4.4326998E-02
154.6905, 0.5815850
155.1726, 0.7444150
155.6547, 0.6594120
156.1368, 0.1369780
156.6190, 0.2530060
157.1011, 4.3999001E-02
157.5832, 0.5236780
158.0653, 0.9282000
158.5474, 0.7479900
159.0295, 5.8456000E-02
159.5117, 0.3233830
159.9938, 0.1723440
160.4759, 4.2004000E-02
160.9580, 0.1766360
161.4401, 0.2478900
161.9222, 0.3380130
162.4044, 0.5230640
162.8865, 0.8343050
163.3686, 0.9471660
163.8507, 0.7932050
164.3328, 0.5686990
164.8149, 0.2632790
165.2971, 5.8410998E-02
165.7792, 0.3001100
166.2613, 0.2961080
166.7434, 5.1723000E-02
167.2255, 0.4144330
167.7076, 1.116100
168.1898, 1.628815
168.6719, 1.354935
169.1540, 0.2540590
169.6361, 0.9468230
170.1182, 1.143597
170.6003, 1.4107000E-02
171.0825, 0.3904110
171.5646, 0.9231410
172.0467, 2.783062
172.5288, 3.756672
173.0109, 3.370693
173.4930, 2.459724
173.9752, 2.421642
174.4573, 3.303616
174.9394, 4.231575
175.4215, 5.157810
175.9036, 5.941067
176.3857, 6.185078
176.8679, 5.557877
177.3500, 4.688568
177.8321, 4.482407
178.3142, 4.982151
178.7963, 5.476139
179.2784, 5.292809
179.7606, 4.569794
180.2427, 4.521103
180.7248, 6.047165
181.2069, 7.881073
181.6890, 8.934719
182.1711, 9.119354
182.6533, 8.872257
183.1354, 8.404877
183.6175, 7.629482
184.0996, 7.331944
184.5817, 8.401043
185.0638, 9.583296
185.5460, 10.15230
186.0281, 9.952888
186.5102, 9.314121
186.9923, 8.591988
187.4744, 7.606771
187.9565, 7.050753
188.4387, 7.177132
188.9208, 7.591679
189.4029, 8.078850
189.8850, 8.559586
190.3671, 9.011869
190.8492, 9.427624
191.3314, 10.08459
191.8135, 10.18666
192.2956, 9.030035
192.7777, 7.690973
193.2598, 7.245632
193.7419, 8.106882
194.2241, 9.704876
194.7062, 10.64359
195.1883, 10.10092
195.6704, 9.779827
196.1525, 9.909557
196.6346, 10.21827
197.1168, 10.35148
197.5989, 10.15010
198.0810, 9.773527
198.5631, 9.696220
199.0452, 10.23439
199.5273, 10.63973
200.0095, 10.59836
200.4916, 10.37414
200.9737, 10.48335
201.4558, 11.24340
201.9379, 12.30116
202.4200, 12.59314
202.9022, 11.79743
203.3843, 11.00497
203.8664, 10.49398
204.3485, 10.26198
204.8306, 10.40545
205.3127, 11.17112
205.7949, 12.10905
206.2770, 12.21538
206.7591, 11.16169
207.2412, 10.06806
207.7233, 9.553740
208.2054, 9.557365
208.6876, 9.718639
209.1697, 9.904821
209.6518, 10.21076
210.1339, 10.80999
210.6160, 11.84326
211.0981, 12.73079
211.5803, 12.95731
212.0624, 12.50480
212.5445, 11.82592
213.0266, 10.64004
213.5087, 9.650761
213.9908, 9.712364
214.4730, 11.08407
214.9551, 12.64044
215.4372, 13.00089
215.9193, 11.94839
216.4014, 11.17678
216.8836, 11.74063
217.3657, 12.45166
217.8478, 12.33201
218.3299, 11.13303
218.8120, 9.743856
219.2941, 9.560427
219.7763, 11.11955
220.2584, 12.08085
220.7405, 11.59436
221.2226, 10.67345
221.7047, 9.971363
222.1868, 9.668447
222.6690, 9.570072
223.1511, 9.337042
223.6332, 8.789108
224.1153, 8.482632
224.5974, 8.583778
225.0795, 8.799786
225.5617, 8.930540
226.0438, 8.930498
226.5259, 8.876650
227.0080, 8.861111
227.4901, 8.815079
227.9722, 8.810072
228.4544, 8.908762
228.9365, 8.964825
229.4186, 8.944534
229.9007, 8.794579
230.3828, 8.521072
230.8649, 8.125450
231.3471, 7.409441
231.8292, 6.876347
232.3113, 6.476486
232.7934, 6.284695
233.2755, 6.503342
233.7576, 7.140362
234.2398, 7.829735
234.7219, 7.934795
235.2040, 6.822517
235.6861, 6.257971
236.1682, 6.693895
236.6503, 7.426979
237.1325, 7.753210
237.6146, 7.492315
238.0967, 7.084415
238.5788, 7.223024
239.0609, 8.304367
239.5430, 9.013588
240.0252, 9.122749
240.5073, 8.921320
240.9894, 8.578550
241.4715, 8.137819
241.9536, 7.856739
242.4357, 8.147438
242.9179, 9.186537
243.4000, 9.868616
243.8821, 9.887808
244.3642, 9.593472
244.8463, 9.336102
245.3284, 9.180086
245.8106, 9.066513
246.2927, 8.962431
246.7748, 8.878057
247.2569, 8.666269
247.7390, 8.119146
248.2211, 7.516878
248.7033, 7.270796
249.1854, 7.484209
249.6675, 7.690720
250.1496, 7.244642
250.6317, 6.268692
251.1138, 5.689209
251.5960, 5.964741
252.0781, 6.634829
252.5602, 7.204611
253.0423, 7.661890
253.5244, 7.787832
254.0065, 7.097355
254.4887, 5.875437
254.9708, 4.895870
255.4529, 4.433947
255.9350, 4.289957
256.4171, 4.226828
256.8992, 4.251896
257.3813, 4.298786
257.8635, 4.426279
258.3456, 4.537127
258.8277, 4.429424
259.3098, 3.911501
259.7919, 3.229729
260.2740, 2.691223
260.7562, 2.295855
261.2383, 2.126856
261.7204, 2.355930
262.2025, 2.752457
262.6846, 3.087492
263.1667, 3.292715
263.6489, 3.430532
264.1310, 3.584023
264.6131, 3.761358
265.0952, 3.919279
265.5773, 4.007490
266.0594, 4.084702
266.5416, 4.240292
267.0237, 4.544653
267.5058, 4.810167
267.9879, 4.726374
268.4700, 4.204834
268.9521, 3.758204
269.4343, 3.590382
269.9164, 3.546803
270.3985, 3.513618
270.8806, 3.457890
271.3627, 3.462898
271.8448, 3.761444
272.3270, 4.497349
272.8091, 4.812437
273.2912, 3.956182
273.7733, 2.968971
274.2554, 2.513031
274.7375, 2.664579
275.2197, 2.926191
275.7018, 2.696821
276.1839, 1.871374
276.6660, 1.264915
277.1481, 1.170736
277.6302, 1.223063
278.1124, 1.240376
278.5945, 1.212290
279.0766, 1.244736
279.5587, 1.461338
280.0408, 1.882938
280.5229, 2.321783
281.0051, 2.955776
281.4872, 3.433088
281.9693, 3.510157
282.4514, 3.269526
282.9335, 3.002081
283.4156, 2.942059
283.8978, 3.091902
284.3799, 3.325748
284.8620, 3.952545
285.3441, 4.334724
285.8262, 4.202785
286.3083, 3.679552
286.7905, 2.923973
287.2726, 1.947443
287.7547, 0.8418980
288.2368, 0.4264200
288.7189, 1.446102
289.2010, 2.301506
289.6832, 2.458263
290.1653, 2.197144
290.6474, 1.985832
291.1295, 2.140621
291.6116, 2.520418
292.0938, 2.545177
292.5759, 1.960995
293.0580, 1.351580
293.5401, 0.6503580
294.0222, 6.9571003E-02
294.5043, 8.4670998E-02
294.9865, 0.3335800
295.4686, 1.060322
295.9507, 1.444756
296.4328, 1.250761
296.9149, 1.132067
297.3970, 1.405287
297.8792, 1.651104
298.3613, 1.338959
298.8434, 1.297770
299.3255, 0.6956620
299.8076, 0.8092440
300.2897, 0.7724920
300.7719, 0.7591169
301.2540, 1.263919
301.7361, 0.6226190
302.2182, 0.3962430
302.7003, 0.6989770
303.1824, 1.257788
303.6646, 1.845074
304.1467, 2.631754
304.6288, 2.792202
305.1109, 1.499645
305.5930, 0.3382180
306.0751, 0.1895920
306.5573, 0.9223640
307.0394, 1.792193
307.5215, 2.112839
308.0036, 1.838826
308.4857, 1.698109
308.9678, 1.741473
309.4500, 1.875005
309.9321, 2.219605
310.4142, 2.633937
310.8963, 2.851252
311.3784, 2.676147
311.8605, 2.155224
312.3427, 1.655723
312.8248, 0.9833010
313.3069, 0.5727360
313.7890, 0.5573380
314.2711, 0.8263520
314.7532, 1.316394
315.2354, 2.012991
315.7175, 2.745640
316.1996, 3.013885
316.6817, 2.668073
317.1638, 2.029531
317.6459, 2.017340
318.1281, 1.551809
318.6102, 1.283134
319.0923, 0.9942910
319.5744, 0.6700339
320.0565, 8.3676003E-02
320.5386, 0.2306070
321.0208, 0.2578830
321.5029, 0.2923150
321.9850, 0.9029940
322.4671, 1.260926
322.9492, 1.330004
323.4313, 1.268668
323.9135, 1.316262
324.3956, 1.435823
324.8777, 1.457253
325.3598, 1.264360
325.8419, 1.064762
326.3240, 0.8834620
326.8062, 0.7785230
327.2883, 0.8981280
327.7704, 1.384778
328.2525, 2.178621
328.7346, 2.679883
329.2167, 2.974918
329.6989, 2.823132
330.1810, 1.743324
330.6631, 1.863024
331.1452, 0.7909670
331.6273, 1.065190
332.1094, 0.6856880
332.5916, 2.3652000E-02
333.0737, 1.343698
333.5558, 2.238265
334.0379, 2.121832
334.5200, 1.690725
335.0021, 1.631791
335.4843, 2.164054
335.9664, 2.927223
336.4485, 3.358116
336.9306, 3.411431
337.4127, 3.250342
337.8948, 2.639257
338.3770, 2.022819
338.8591, 1.570915
339.3412, 1.335165
339.8233, 1.402764
340.3055, 2.014083
340.7876, 3.260941
341.2697, 4.111122
341.7518, 4.714268
342.2339, 4.694165
342.7160, 3.310590
343.1982, 1.156217
343.6803, 0.3849590
344.1624, 0.1816840
344.6445, 1.354658
345.1266, 2.129864
345.6087, 1.705749
346.0909, 1.233442
346.5730, 1.169024
347.0551, 1.225563
347.5372, 1.019344
348.0193, 1.033791
348.5014, 0.4946070
348.9836, 0.8142390
349.4657, 0.4986440
349.9478, 0.1008180
350.4299, 0.1754420
350.9120, 0.5155690
351.3941, 1.245056
351.8763, 2.400201
352.3584, 3.305526
352.8405, 2.921939
353.3226, 1.189569
353.8047, 0.3911090
354.2868, 1.804715
354.7690, 3.206347
355.2511, 2.942710
355.7332, 1.338903
356.2153, 8.6241998E-02
356.6974, 0.2351040
357.1795, 0.5902560
357.6617, 1.315003
358.1438, 1.976661
358.6259, 2.477832
359.1080, 2.850677
359.5901, 3.028661
360.0722, 2.839728
360.5544, 2.027671
361.0365, 1.053909
361.5186, 0.5899870
362.0007, 0.6914280
362.4828, 0.8715570
362.9649, 0.9200560
363.4471, 0.9559770
363.9292, 1.188066
364.4113, 1.722251
364.8934, 2.162743
365.3755, 1.897832
365.8576, 1.104934
366.3398, 0.7591610
366.8219, 1.298557
367.3040, 2.037950
367.7861, 2.084274
368.2682, 1.520758
368.7503, 1.279894
369.2325, 2.150177
369.7146, 3.455563
370.1967, 3.957083
370.6788, 3.456059
371.1609, 2.718047
371.6430, 2.256737
372.1252, 2.028551
372.6073, 1.890866
373.0894, 1.717195
373.5715, 1.712923
374.0536, 2.264431
374.5357, 3.241919
375.0179, 3.820423
375.5000, 3.451348
375.9821, 2.561060
376.4642, 2.172138
376.9463, 2.528704
377.4284, 2.932185
377.9106, 3.095800
378.3927, 3.106087
378.8748, 3.250813
379.3569, 3.651673
379.8390, 3.804332
380.3211, 2.868089
380.8033, 2.657731
381.2854, 1.006409
381.7675, 1.208742
382.2496, 0.8231400
382.7317, 0.2036200
383.2138, 0.5266230
383.6960, 0.9810350
384.1781, 0.7597270
384.6602, 4.5038000E-02
385.1423, 6.9022998E-02
385.6244, 1.521498
386.1065, 2.810477
386.5887, 2.958033
387.0708, 2.416924
387.5529, 1.991304
388.0350, 2.036884
388.5171, 2.306209
388.9992, 2.221684
389.4814, 1.281270
389.9635, 0.9223340
390.4456, 1.706219
390.9277, 2.581428
391.4098, 2.664604
391.8919, 1.915744
392.3741, 0.9505810
392.8562, 0.3877700
393.3383, 0.2509170
393.8204, 0.3403620
394.3025, 1.055920
394.7846, 1.569566
395.2668, 1.329236
395.7489, 0.7084350
396.2310, 0.4526120
396.7131, 1.027775
397.1952, 2.158493
397.6773, 2.899722
398.1595, 3.167011
398.6416, 3.142210
399.1237, 2.701756
399.6058, 2.111602
400.0879, 1.556977
400.5700, 1.095140
401.0522, 0.7332900
401.5343, 0.4853460
402.0164, 0.4394860
402.4985, 0.3203370
402.9806, 0.1038320
403.4627, 0.3543380
403.9449, 0.1070430
404.4270, 0.4913570
404.9091, 1.053631
405.3912, 1.346318
405.8733, 1.428067
406.3554, 1.457762
406.8376, 1.452556
407.3197, 1.449929
407.8018, 1.350568
408.2839, 1.295883
408.7660, 1.515711
409.2481, 2.130756
409.7303, 2.682912
410.2124, 2.629169
410.6945, 2.011342
411.1766, 1.461707
411.6587, 1.015141
412.1408, 0.8159770
412.6230, 1.154246
413.1051, 1.932509
413.5872, 2.398491
414.0693, 1.903807
414.5514, 1.013735
415.0335, 0.6655590
415.5157, 0.9223630
415.9978, 1.354488
416.4799, 1.703494
416.9620, 2.027258
417.4441, 2.523931
417.9262, 3.620934
418.4084, 4.332265
418.8905, 3.720631
419.3726, 2.273602
419.8547, 1.341976
420.3368, 1.474195
420.8189, 1.992395
421.3011, 1.704577
421.7832, 0.2886980
422.2653, 0.5145610
422.7474, 3.3289999E-02
423.2295, 0.8951700
423.7116, 1.083447
424.1938, 0.5989000
424.6759, 0.1794220
425.1580, 0.4144950
425.6401, 1.263431
426.1222, 1.978420
426.6043, 2.641622
427.0865, 3.099697
427.5686, 3.303996
428.0507, 3.284208
428.5328, 3.033229
429.0149, 2.553979
429.4970, 1.977384
429.9792, 1.520562
430.4613, 1.170690
430.9434, 0.9815090
431.4255, 1.164854
431.9076, 1.295874
432.3897, 0.9503180
432.8719, 0.2942470
433.3540, 5.6575000E-02
433.8361, 0.4916020
434.3182, 1.743338
434.8003, 2.229356
435.2824, 1.334034
435.7646, 0.5939790
436.2467, 0.3020460
436.7288, 0.3787210
437.2109, 0.8805990
437.6930, 1.833153
438.1751, 2.756516
438.6573, 2.918151
439.1394, 2.174534
439.6215, 1.724413
440.1036, 1.981841
440.5857, 2.366153
441.0678, 2.410564
441.5500, 2.194942
442.0321, 2.131792
442.5142, 2.598450
442.9963, 3.276015
443.4784, 3.522766
443.9605, 3.258753
444.4427, 3.010278
444.9248, 3.253760
445.4069, 3.548054
445.8890, 3.061818
446.3711, 1.427963
446.8532, 5.6637000E-02
447.3354, 0.7669350
447.8175, 0.8011420
448.2996, 0.1769670
448.7817, 1.201077
449.2638, 2.588829
449.7459, 3.168060
450.2281, 2.876175
450.7102, 2.463422
451.1923, 1.554936
451.6744, 0.8962450
452.1565, 1.236197
452.6386, 2.254925
453.1208, 2.923473
453.6029, 2.658418
454.0850, 1.859784
454.5671, 1.649387
455.0492, 2.908452
455.5313, 3.546476
456.0135, 2.980040
456.4956, 2.160791
456.9777, 1.997294
457.4598, 2.501417
457.9419, 2.859031
458.4240, 2.148359
458.9062, 0.3394040
459.3883, 0.2945550
459.8704, 1.750214
460.3525, 3.314677
460.8346, 3.585799
461.3167, 3.026925
461.7989, 2.108259
462.2810, 0.9957490
462.7631, 5.2925002E-02
463.2452, 2.0029999E-03
463.7273, 1.033887
464.2094, 1.815736
464.6916, 1.995562
465.1737, 2.051500
465.6558, 2.368119
466.1379, 2.829643
466.6200, 2.980026
467.1021, 2.228984
467.5843, 1.157922
468.0664, 1.127860
468.5485, 2.319207
469.0306, 3.227674
469.5127, 2.991420
469.9948, 2.171948
470.4770, 1.664947
470.9591, 1.570021
471.4412, 1.674287
471.9233, 1.762544
472.4054, 1.861217
472.8875, 1.934528
473.3697, 1.968480
473.8518, 2.098245
474.3339, 2.545177
474.8160, 3.285055
475.2981, 3.523609
475.7802, 2.760449
476.2624, 2.036278
476.7445, 1.891406
477.2266, 2.103602
477.7087, 2.228386
478.1908, 2.088723
478.6729, 1.822800
479.1551, 1.678121
479.6372, 1.692148
480.1193, 1.687104
480.6014, 1.644963
481.0835, 1.721111
481.5656, 2.130045
482.0478, 2.729390
482.5299, 3.118686
483.0120, 3.019129
483.4941, 2.661691
483.9762, 2.654167
484.4583, 3.213873
484.9405, 3.581421
485.4226, 3.612964
485.9047, 3.405519
486.3868, 2.856112
486.8689, 2.020516
487.3510, 1.399078
487.8332, 1.620770
488.3153, 2.471043
488.7974, 2.840745
489.2795, 2.500754
489.7616, 2.147917
490.2437, 2.263626
490.7259, 2.621355
491.2080, 2.927268
491.6901, 3.255225
492.1722, 3.361590
492.6543, 2.894185
493.1364, 2.059621
493.6186, 1.442223
494.1007, 1.181486
494.5828, 1.193593
495.0649, 1.483384
495.5470, 2.091500
496.0291, 2.325941
496.5113, 1.706774
496.9934, 1.135425
497.4755, 1.263238
497.9576, 1.861646
498.4397, 2.327082
498.9218, 2.365623
499.4040, 2.138210
499.8861, 2.004366
500.3682, 2.088831
500.8503, 2.034552
501.3324, 1.660243
501.8145, 1.317354
502.2967, 1.259382
502.7788, 1.438211
503.2609, 1.610146
503.7430, 1.585737
504.2251, 1.456810
504.7072, 1.612993
505.1894, 2.257946
505.6715, 2.670285
506.1536, 2.644534
506.6357, 2.374998
507.1178, 1.867558
507.5999, 1.158825
508.0821, 0.5962460
508.5642, 0.4746770
509.0463, 0.6957820
509.5284, 1.042229
510.0105, 1.567286
510.4926, 1.910284
510.9748, 1.648017
511.4569, 1.096624
511.9390, 1.042764
512.4211, 1.892673
512.9032, 2.570381
513.3853, 2.284936
513.8674, 1.545458
514.3495, 1.277502
514.8317, 1.685051
515.3138, 2.298109
515.7959, 2.698307
516.2780, 2.893543
516.7601, 2.657273
517.2422, 1.508914
517.7244, 0.5410960
518.2065, 6.3749999E-02
518.6886, 3.8100999E-02
519.1707, 0.1224350
519.6528, 0.4856270
520.1349, 0.8834860
520.6171, 0.9945550
521.0992, 0.6688400
521.5813, 0.7014200
522.0634, 1.742235
522.5455, 2.480074
523.0276, 2.107687
523.5098, 1.141049
523.9919, 0.5943670
524.4740, 0.9844380
524.9561, 1.771722
525.4382, 2.199920
525.9203, 2.260953
526.4025, 2.312989
526.8846, 2.626853
527.3667, 2.691979
527.8488, 1.596507
528.3309, 0.3930850
528.8130, 1.463004
529.2952, 0.3901660
529.7773, 1.294438
530.2594, 2.377731
530.7415, 2.857575
531.2236, 2.836642
531.7057, 2.269629
532.1879, 1.470978
532.6700, 1.042035
533.1521, 1.130594
533.6342, 1.283138
534.1163, 1.725327
534.5984, 2.029407
535.0806, 1.775621
535.5627, 1.164495
536.0448, 0.7997830
536.5269, 1.073537
537.0090, 1.771629
537.4911, 2.247203
537.9733, 2.431475
538.4554, 2.547344
538.9375, 2.940071
539.4196, 3.017572
539.9017, 2.042042
540.3839, 0.2883930
540.8660, 0.9687850
541.3481, 0.8554320
541.8302, 8.6511001E-02
542.3123, 0.8936680
542.7944, 1.565741
543.2766, 2.102107
543.7587, 2.517518
544.2408, 2.768332
544.7229, 2.681551
545.2050, 2.170114
545.6871, 2.077013
546.1693, 3.131066
546.6514, 4.474601
547.1335, 5.146439
547.6156, 5.146850
548.0977, 4.973395
548.5798, 4.871608
549.0620, 4.904211
549.5441, 5.281352
550.0262, 6.653886
550.5083, 7.493414
550.9904, 7.570695
551.4725, 7.282695
551.9547, 6.843400
552.4368, 6.289814
552.9189, 5.712971
553.4010, 5.157920
553.8831, 4.635081
554.3652, 4.190516
554.8474, 3.817889
555.3295, 3.545423
555.8116, 3.581466
556.2937, 3.580716
556.7758, 3.192354
557.2579, 2.439149
557.7401, 1.807063
558.2222, 1.772894
558.7043, 1.969160
559.1864, 1.619571
559.6685, 0.7036470
560.1506, 6.1942000E-02
560.6328, 0.1969420
561.1149, 0.7677850
561.5970, 1.018849
562.0791, 0.8425850
562.5612, 0.7578540
563.0433, 0.8446420
563.5255, 1.070169
564.0076, 1.579915
564.4897, 2.221850
564.9718, 2.603740
565.4539, 2.455900
565.9360, 1.939641
566.4182, 1.591970
566.9003, 1.434910
567.3824, 1.411742
567.8645, 1.648546
568.3466, 1.897461
568.8287, 1.919908
569.3109, 1.767437
569.7930, 1.787968
570.2751, 2.289412
570.7572, 2.985948
571.2393, 3.276656
571.7214, 3.144062
572.2036, 2.778215
572.6857, 1.975158
573.1678, 1.257084
573.6499, 1.434536
574.1320, 2.478631
574.6141, 3.067701
575.0963, 2.359313
575.5784, 1.433033
576.0605, 1.283427
576.5426, 1.743318
577.0247, 2.171182
577.5068, 2.285748
577.9890, 2.113103
578.4711, 1.657377
578.9532, 0.6328260
579.4353, 7.0237003E-02
579.9174, 0.2091520
580.3995, 0.5070670
580.8817, 0.8121300
581.3638, 1.063059
581.8459, 1.163687
582.3280, 1.052681
582.8101, 0.9051090
583.2922, 1.077412
583.7744, 1.624547
584.2565, 1.977785
584.7386, 1.813570
585.2207, 1.542170
585.7029, 1.449462
586.1850, 1.445372
586.6671, 1.317842
587.1492, 1.153497
587.6313, 0.9539310
588.1135, 0.5369630
588.5956, 0.1042270
589.0777, 0.3207140
589.5598, 1.378690
590.0419, 2.339388
590.5240, 2.088218
591.0062, 0.5463340
591.4883, 0.2496660
591.9704, 0.1776870
592.4525, 0.6736870
592.9346, 1.060812
593.4167, 1.312626
593.8989, 1.404727
594.3810, 1.340419
594.8631, 1.171972
595.3452, 0.8901750
595.8273, 0.5226570
596.3094, 0.4478560
596.7916, 0.8972660
597.2737, 1.109119
597.7558, 0.2125330
598.2379, 0.8155140
598.7200, 0.8038050
599.2021, 0.5777520
599.6843, 1.804783
600.1664, 1.697017
600.6485, 1.066892
601.1306, 1.241448
601.6127, 2.204938
602.0948, 2.792576
602.5770, 2.227259
603.0591, 1.019600
603.5412, 0.5966030
604.0233, 1.876078
604.5054, 2.436208
604.9875, 1.630211
605.4697, 0.6856380
605.9518, 0.3689530
606.4339, 0.5830820
606.9160, 0.9284250
607.3981, 1.215739
607.8802, 1.357047
608.3624, 1.023126
608.8445, 9.0202004E-02
609.3266, 0.3073620
609.8087, 0.2082210
610.2908, 1.050027
610.7729, 2.084892
611.2551, 3.110089
611.7372, 3.467299
612.2193, 2.516506
612.7014, 1.441848
613.1835, 1.169503
613.6656, 1.387893
614.1478, 1.402315
614.6299, 1.042343
615.1120, 0.5855880
615.5941, 0.2844040
616.0762, 0.1386340
616.5583, 0.2141150
617.0405, 0.8927880
617.5226, 1.313420
618.0047, 1.003543
618.4868, 0.5757940
618.9689, 0.8178740
619.4510, 1.717899
619.9332, 2.362341
620.4153, 1.755201
620.8974, 0.3289940
621.3795, 0.3177370
621.8616, 7.5663000E-02
622.3438, 0.3781660
622.8259, 0.9039470
623.3080, 1.429973
623.7901, 1.987984
624.2722, 2.615071
624.7543, 2.683484
625.2365, 1.331561
625.7186, 6.1770000E-02
626.2007, 0.2301990
626.6828, 0.5256640
627.1649, 1.309622
627.6470, 1.753327
628.1292, 1.878957
628.6113, 1.651014
629.0934, 0.8725140
629.5755, 0.5657230
630.0576, 1.328769
630.5397, 1.936647
631.0219, 1.778323
631.5040, 1.349174
631.9861, 1.461829
632.4682, 2.371990
632.9503, 3.213219
633.4324, 3.030472
633.9146, 2.142297
634.3967, 1.502967
634.8788, 1.178151
635.3609, 1.250750
635.8430, 1.988598
636.3251, 3.037995
636.8073, 3.302519
637.2894, 2.416598
637.7715, 1.751440
638.2536, 1.421605
638.7357, 1.455487
639.2178, 2.395918
639.7000, 3.736260
640.1821, 3.995271
640.6642, 2.289572
641.1463, 0.2359610
641.6284, 1.175234
642.1105, 0.2004820
642.5927, 0.6303690
643.0748, 1.082176
643.5569, 1.504168
644.0390, 2.192666
644.5211, 2.809114
645.0032, 2.900792
645.4854, 2.178176
645.9675, 1.318811
646.4496, 0.6043250
646.9317, 0.1149400
647.4138, 5.2104000E-02
647.8959, 0.4382240
648.3781, 1.029896
648.8602, 1.655888
649.3423, 2.231223
649.8244, 2.505816
650.3065, 2.261735
650.7886, 1.983160
651.2708, 1.545355
651.7529, 1.231414
652.2350, 1.273025
652.7171, 1.517647
653.1992, 1.691247
653.6813, 1.608205
654.1635, 1.423656
654.6456, 1.363016
655.1277, 1.420245
655.6098, 1.524058
656.0919, 1.615551
656.5740, 1.728755
657.0562, 1.871878
657.5383, 2.011425
658.0204, 2.263468
658.5025, 3.019911
658.9846, 3.396642
659.4667, 2.820456
659.9489, 1.930531
660.4310, 1.359928
660.9131, 1.189166
661.3952, 1.201799
661.8773, 1.253119
662.3594, 1.336495
662.8416, 1.439185
663.3237, 1.578461
663.8058, 1.676867
664.2879, 1.744010
664.7700, 1.738229
665.2521, 1.513695
665.7343, 1.181077
666.2164, 1.137819
666.6985, 1.821864
667.1806, 2.369181
667.6627, 1.998493
668.1448, 1.147124
668.6270, 0.6523610
669.1091, 0.6888390
669.5912, 1.117664
670.0733, 1.906849
670.5554, 2.926882
671.0375, 3.170407
671.5197, 1.898485
672.0018, 1.059050
672.4839, 1.051793
672.9660, 1.335351
673.4481, 1.672845
673.9302, 1.979825
674.4124, 2.131894
674.8945, 2.016494
675.3766, 1.793391
675.8587, 1.662016
676.3408, 1.600235
676.8229, 1.470341
677.3051, 1.217719
677.7872, 1.071871
678.2693, 1.307270
678.7514, 1.865596
679.2335, 2.041340
679.7156, 1.604208
680.1978, 1.214832
680.6799, 0.7965900
681.1620, 0.5756710
681.6441, 0.8927520
682.1262, 1.615277
682.6083, 2.214222
683.0905, 2.329708
683.5726, 2.203588
684.0547, 2.399869
684.5368, 2.944322
685.0189, 3.040143
685.5010, 2.369761
685.9832, 1.607849
686.4653, 1.305634
686.9474, 1.401645
687.4295, 1.532889
687.9116, 1.759398
688.3937, 1.925613
688.8759, 1.946557
689.3580, 1.912520
689.8401, 1.911141
690.3222, 1.947185
690.8043, 1.974034
691.2864, 1.955542
691.7686, 1.930007
692.2507, 1.969122
692.7328, 2.057514
693.2149, 2.344317
693.6970, 3.077396
694.1791, 3.680916
694.6613, 3.609591
695.1434, 3.132968
695.6255, 2.852160
696.1076, 2.950310
696.5897, 3.060225
697.0718, 2.933052
697.5540, 2.773631
698.0361, 3.011865
698.5182, 3.529076
699.0003, 3.602497
699.4824, 2.731531
699.9645, 1.376577
700.4467, 0.2091490
700.9288, 0.9579650
701.4109, 1.252725
701.8930, 0.1492570
702.3751, 1.488625
702.8572, 1.894166
703.3394, 1.668252
703.8215, 1.273466
704.3036, 0.7562570
704.7857, 0.2741790
705.2678, 0.2094170
705.7499, 0.5222680
706.2321, 0.2911220
706.7142, 0.3904350
707.1963, 0.9752190
707.6784, 1.189554
708.1605, 1.084106
708.6426, 0.6478990
709.1248, 0.4668610
709.6069, 0.6487450
710.0890, 1.190068
710.5711, 2.688400
711.0532, 2.859149
711.5353, 2.318441
712.0175, 1.767329
712.4996, 1.329920
712.9817, 1.191788
713.4638, 1.876801
713.9459, 2.690585
714.4280, 2.407705
714.9102, 1.244940
715.3923, 0.5189780
715.8744, 0.8117070
716.3565, 1.566967
716.8386, 2.009114
717.3207, 2.131633
717.8029, 1.973060
718.2850, 1.115525
718.7671, 0.4994610
719.2492, 0.4013880
719.7313, 0.5980480
720.2134, 0.9849960
720.6956, 1.495196
721.1777, 1.818066
721.6598, 1.562797
722.1419, 1.162280
722.6240, 1.301985
723.1061, 1.812349
723.5883, 1.909148
724.0704, 1.331204
724.5525, 0.8066540
725.0346, 1.228135
725.5167, 0.8078800
725.9988, 0.4481244
726.4810, 0.9829040
726.9631, 8.2636997E-02
727.4452, 0.6400610
727.9273, 1.707766
728.4094, 1.984119
728.8915, 1.581071
729.3737, 1.303379
729.8558, 1.570928
730.3379, 2.032742
730.8200, 2.392248
731.3021, 2.641996
731.7842, 2.748533
732.2664, 2.707455
732.7485, 2.549478
733.2306, 2.260678
733.7127, 1.928963
734.1948, 1.973125
734.6769, 2.930541
735.1591, 3.308205
735.6412, 2.563971
736.1233, 1.782626
736.6054, 1.571146
737.0875, 1.722207
737.5696, 1.717314
738.0518, 1.353164
738.5339, 1.029987
739.0160, 1.178467
739.4981, 1.552684
739.9802, 1.705445
740.4623, 1.618530
740.9445, 1.441952
741.4266, 1.236415
741.9087, 1.048207
742.3908, 0.9674950
742.8729, 1.024299
743.3550, 1.056365
743.8372, 0.9502080
744.3193, 0.9596230
744.8014, 1.331465
745.2835, 1.745543
745.7656, 1.772579
746.2477, 1.388792
746.7299, 1.195460
747.2120, 1.849504
747.6941, 2.620456
748.1762, 2.501915
748.6583, 1.775893
749.1404, 1.379503
749.6226, 1.576906
750.1047, 1.914387
750.5868, 1.901937
751.0689, 2.127320
751.5510, 2.431116
752.0331, 2.391337
752.5153, 2.900737
752.9974, 3.080367
753.4795, 2.959490
753.9616, 2.277276
754.4437, 1.288836
754.9258, 0.7672100
755.4080, 1.068689
755.8901, 1.648619
756.3722, 2.546073
756.8543, 3.292815
757.3364, 2.839616
757.8185, 1.356341
758.3007, 0.3344770
758.7828, 0.6588750
759.2649, 1.671847
759.7470, 1.855561
760.2291, 0.8121110
760.7112, 0.4549300
761.1934, 1.368860
761.6755, 2.125226
762.1576, 1.733677
762.6397, 0.9569030
763.1218, 0.8022950
763.6039, 1.425666
764.0861, 1.965324
764.5682, 2.086078
765.0503, 1.996027
765.5324, 1.809557
766.0145, 1.613742
766.4966, 1.514589
766.9788, 1.521260
767.4609, 1.713495
767.9430, 2.350074
768.4251, 3.178816
768.9072, 2.868175
769.3893, 1.032485
769.8715, 0.1649600
770.3536, 1.453885
770.8357, 3.070559
771.3178, 3.235363
771.7999, 2.210766
772.2820, 1.343783
772.7642, 0.5067460
773.2463, 0.1108670
773.7284, 0.6762660
774.2105, 1.411537
774.6926, 1.530513
775.1747, 1.173026
775.6569, 0.9593650
776.1390, 1.249510
776.6211, 1.816815
777.1032, 2.315058
777.5853, 2.768240
778.0674, 2.556249
778.5496, 1.542739
779.0317, 0.6853030
779.5138, 0.4875780
779.9959, 0.6547780
780.4780, 0.6921530
780.9601, 0.5852580
781.4423, 0.3927150
781.9244, 0.1198860
782.4065, 0.4312320
782.8886, 0.3289820
783.3707, 3.0184001E-02
783.8528, 0.6075820
784.3350, 1.311030
784.8171, 1.768029
785.2992, 1.642962
785.7813, 1.304497
786.2634, 1.181315
786.7455, 1.255320
787.2277, 1.575845
787.7098, 2.141273
788.1919, 2.498308
788.6740, 2.265867
789.1561, 1.585679
789.6382, 0.9391100
790.1204, 0.1947680
790.6025, 0.1927390
791.0846, 0.1941800
791.5667, 0.1784730
792.0488, 1.512327
792.5309, 2.988453
793.0131, 3.170633
793.4952, 1.639395
793.9773, 0.2088450
794.4594, 0.2761230
794.9415, 0.2869680
795.4236, 0.1424570
795.9058, 9.9981003E-02
796.3879, 0.4000700
796.8700, 0.7375160
797.3521, 1.060830
797.8342, 1.320784
798.3163, 1.520736
798.7985, 1.616719
799.2806, 1.537942
799.7627, 1.862810
800.2448, 3.174396
800.7269, 4.161319
801.2090, 3.303133
801.6912, 1.045655
802.1733, 0.1180190
802.6554, 0.5336500
803.1375, 1.140554
803.6196, 1.235526
804.1017, 1.287993
804.5839, 1.808125
805.0660, 2.519157
805.5481, 2.740856
806.0302, 2.220016
806.5123, 1.541766
806.9944, 1.179893
807.4766, 1.128998
807.9587, 1.600041
808.4408, 2.513741
808.9229, 2.871391
809.4050, 2.254878
809.8871, 1.286051
810.3693, 0.6614490
810.8514, 0.3813670
811.3335, 0.3623590
811.8156, 0.8108150
812.2977, 1.176316
812.7798, 1.424052
813.2620, 1.526717
813.7441, 1.426045
814.2262, 1.165146
814.7083, 0.8185320
815.1904, 0.2630880
815.6725, 1.3916000E-02
816.1547, 0.5534670
816.6368, 1.341082
817.1189, 1.574800
817.6010, 1.361117
818.0831, 1.198349
818.5652, 1.303080
819.0474, 1.624067
819.5295, 2.318553
820.0116, 3.253037
820.4937, 2.972881
820.9758, 1.204760
821.4579, 0.1343950
821.9401, 0.3914540
822.4222, 7.1456000E-02
822.9043, 0.4653780
823.3864, 1.188445
823.8685, 1.447656
824.3506, 0.6746630
824.8328, 0.2546860
825.3149, 0.5119570
825.7970, 1.085868
826.2791, 2.093495
826.7612, 3.142841
827.2433, 3.336795
827.7255, 2.253945
828.2076, 1.056380
828.6897, 0.8251260
829.1718, 1.069075
829.6539, 0.9122660
830.1360, 0.4315920
830.6182, 0.2903480
831.1003, 0.6736930
831.5824, 1.199850
832.0645, 1.748192
832.5466, 2.259707
833.0287, 1.723045
833.5109, 0.6162360
833.9930, 1.653700
834.4751, 0.1067090
834.9572, 2.316842
835.4393, 2.988221
835.9214, 2.585838
836.4036, 2.456463
836.8857, 2.969808
837.3678, 3.205989
837.8499, 2.704252
838.3320, 2.069312
838.8141, 1.627811
839.2963, 1.414996
839.7784, 1.473853
840.2605, 1.781100
840.7426, 2.105896
841.2247, 2.222500
841.7068, 2.195664
842.1890, 2.232849
842.6711, 2.294876
843.1532, 2.060434
843.6353, 1.430371
844.1174, 0.9824400
844.5995, 1.284931
845.0817, 2.131406
845.5638, 2.577722
846.0459, 2.508084
846.5280, 2.348393
847.0101, 1.970337
847.4922, 1.713311
847.9744, 1.926921
848.4565, 2.283164
848.9386, 2.278942
849.4207, 1.834342
849.9028, 1.415652
850.3849, 1.018772
850.8671, 0.8265810
851.3492, 1.109233
851.8313, 1.578115
852.3134, 1.829087
852.7955, 1.828452
853.2776, 1.778221
853.7598, 1.780311
854.2419, 1.849816
854.7240, 2.130416
855.2061, 2.520090
855.6882, 2.498269
856.1703, 2.013791
856.6525, 1.751849
857.1346, 2.160762
857.6167, 2.765241
858.0988, 2.565729
858.5809, 1.326855
859.0630, 0.9124230
859.5452, 1.986939
860.0273, 2.692293
860.5094, 2.076498
860.9915, 1.260355
861.4736, 1.238181
861.9557, 1.855821
862.4379, 2.101762
862.9200, 1.420731
863.4021, 0.8671280
863.8842, 0.7828880
864.3663, 0.9969340
864.8484, 1.551707
865.3306, 2.247316
865.8127, 2.714938
866.2948, 2.811852
866.7769, 2.646588
867.2590, 2.197715
867.7411, 1.612281
868.2233, 1.179893
868.7054, 0.8995540
869.1875, 0.7236010
869.6696, 0.6375000
870.1517, 0.6843610
870.6339, 0.9298580
871.1160, 1.350966
871.5981, 1.650286
872.0802, 1.811771
872.5623, 1.720932
873.0444, 1.003796
873.5266, 0.6421490
874.0087, 1.658544
874.4908, 3.176566
874.9729, 3.456307
875.4550, 2.204177
875.9371, 1.402716
876.4193, 1.679882
876.9014, 2.020863
877.3835, 2.006752
877.8656, 1.840793
878.3477, 1.645841
878.8298, 1.519692
879.3120, 1.737555
879.7941, 2.640866
880.2762, 3.410425
880.7583, 2.779593
881.2404, 1.615566
881.7225, 1.702650
882.2047, 2.865017
882.6868, 3.535312
883.1689, 3.037234
883.6510, 2.154456
884.1331, 1.866016
884.6152, 2.096024
885.0974, 2.317503
885.5795, 2.550088
886.0616, 2.660531
886.5437, 2.703551
887.0258, 2.347994
887.5079, 0.9672640
887.9901, 0.9430000
888.4722, 1.352409
888.9543, 1.114739
889.4364, 2.460351
889.9185, 1.565423
890.4006, 0.8662780
890.8828, 1.842127
891.3649, 3.197460
891.8470, 3.176088
892.3291, 1.860591
892.8112, 0.8417840
893.2933, 1.014598
893.7755, 1.439557
894.2576, 1.654799
894.7397, 1.708270
895.2218, 1.656244
895.7039, 1.504088
896.1860, 1.129764
896.6682, 0.4503080
897.1503, 6.3129999E-03
897.6324, 0.7749580
898.1145, 2.242875
898.5966, 2.820535
899.0787, 2.549970
899.5609, 2.294751
900.0430, 2.329514
900.5251, 2.347701
901.0072, 2.028794
901.4893, 1.466299
901.9714, 1.110641
902.4536, 0.9763090
902.9357, 0.9930310
903.4178, 1.132461
903.8999, 1.484667
904.3820, 2.504807
904.8641, 3.537743
905.3463, 3.228512
905.8284, 1.337623
906.3105, 0.1718120
906.7926, 0.3524360
907.2747, 0.6906510
907.7568, 0.7791850
908.2390, 0.9090220
908.7211, 1.548995
909.2032, 2.463794
909.6853, 2.895188
910.1674, 2.495173
910.6495, 1.900716
911.1317, 1.382124
911.6138, 1.044890
912.0959, 1.019309
912.5780, 1.137942
913.0601, 1.138061
913.5422, 0.9548440
914.0244, 0.8014770
914.5065, 0.8259100
914.9886, 1.060972
915.4707, 1.844539
915.9528, 2.990758
916.4349, 3.216038
916.9171, 2.337677
917.3992, 1.110990
917.8813, 0.1907220
918.3634, 1.062898
918.8455, 0.4656470
919.3276, 1.749840
919.8098, 2.704653
920.2919, 1.786426
920.7740, 1.182371
921.2561, 1.506515
921.7382, 2.173193
922.2203, 2.909852
922.7025, 3.601243
923.1846, 3.811399
923.6667, 3.323400
924.1488, 2.833933
924.6309, 2.423324
925.1130, 2.005394
925.5952, 1.215815
926.0773, 0.5900660
926.5594, 1.195257
927.0415, 2.849700
927.5236, 3.513900
928.0057, 1.465294
928.4879, 0.5270770
928.9700, 0.5287240
929.4521, 0.4238590
929.9342, 1.440257
930.4163, 2.262159
930.8984, 2.555928
931.3806, 2.220740
931.8627, 1.805113
932.3448, 1.870011
932.8269, 2.230009
933.3090, 2.635067
933.7911, 3.008635
934.2733, 2.871050
934.7554, 2.170673
935.2375, 1.716028
935.7196, 2.092720
936.2017, 2.873106
936.6838, 3.045395
937.1660, 2.522296
937.6481, 2.259320
938.1302, 2.355840
938.6123, 2.356451
939.0944, 2.016295
939.5765, 1.730540
940.0587, 1.964034
940.5408, 2.619764
941.0229, 2.973206
941.5050, 2.777927
941.9871, 2.732284
942.4692, 3.128310
942.9514, 3.364257
943.4335, 3.144685
943.9156, 2.663199
944.3977, 2.096860
944.8798, 1.465730
945.3619, 0.9896840
945.8441, 0.4738580
946.3262, 0.3242570
946.8083, 1.082404
947.2904, 2.030549
947.7725, 2.733022
948.2546, 3.176455
948.7368, 3.452566
949.2189, 3.590078
949.7010, 3.604591
950.1831, 3.397083
950.6652, 3.170387
951.1473, 3.340026
951.6295, 3.565147
952.1116, 3.012540
952.5937, 1.723575
953.0758, 0.7024790
953.5579, 0.5033150
954.0400, 0.8024600
954.5222, 1.338615
955.0043, 1.978302
955.4864, 2.270946
955.9685, 2.259194
956.4506, 2.484542
956.9327, 3.106593
957.4149, 3.544192
957.8970, 3.245049
958.3791, 2.453236
958.8612, 1.872268
959.3433, 1.497478
959.8254, 1.471294
960.3076, 1.871156
960.7897, 2.319231
961.2718, 2.653870
961.7539, 2.975230
962.2360, 3.471055
962.7181, 4.115776
963.2003, 4.274920
963.6824, 3.817224
964.1645, 3.113997
964.6466, 1.572692
965.1287, 0.5715350
965.6108, 1.347512
966.0930, 2.891284
966.5751, 3.841599
967.0572, 4.181424
967.5393, 3.780958
968.0214, 1.765392
968.5035, 0.1568500
968.9857, 0.5965560
969.4678, 0.6585470
969.9499, 0.1517120
970.4320, 1.463943
970.9141, 2.600059
971.3962, 3.414179
971.8784, 3.893170
972.3605, 3.913642
972.8426, 3.711607
973.3247, 3.220870
973.8068, 2.748089
974.2889, 2.820502
974.7711, 3.301408
975.2532, 3.446082
975.7353, 2.833842
976.2174, 2.175910
976.6995, 2.516361
977.1816, 3.119445
977.6638, 2.782295
978.1459, 1.826593
978.6280, 1.157667
979.1101, 0.9536420
979.5922, 0.8091590
980.0743, 0.4028810
980.5565, 7.6669998E-02
981.0386, 0.6191370
981.5207, 1.698572
982.0028, 2.061941
982.4849, 1.708201
982.9670, 1.260940
983.4492, 0.9291820
983.9313, 0.7196190
984.4134, 0.6339680
984.8955, 0.6826630
985.3776, 0.9397150
985.8597, 1.421036
986.3419, 1.777553
986.8240, 2.028960
987.3061, 2.276659
987.7882, 2.575057
988.2703, 2.717573
988.7524, 2.543105
989.2346, 2.102579
989.7167, 1.980165
990.1988, 2.387119
990.6809, 2.447781
991.1630, 1.913647
991.6451, 1.344357
992.1273, 1.055792
992.6094, 0.8523280
993.0915, 0.3675360
993.5736, 0.4356010
994.0557, 0.1845854
994.5378, 0.4708900
995.0200, 0.1163950
995.5021, 0.1421150
995.9842, 0.4472510
996.4663, 0.9876230
996.9484, 1.578906
997.4305, 1.908362
997.9127, 1.936888
998.3948, 1.907401
998.8769, 1.724816
999.3590, 1.669394
999.8411, 2.094216
1000.323, 2.432799
1000.805, 2.030015
1001.287, 1.264438
1001.770, 1.023211
1002.252, 1.530196
1002.734, 1.898767
1003.216, 1.616813
1003.698, 1.259218
1004.180, 0.9347430
1004.662, 0.8796310
1005.144, 1.801442
1005.627, 3.158918
1006.109, 3.298182
1006.591, 1.578187
1007.073, 6.4859003E-02
1007.555, 0.7200520
1008.037, 1.741721
1008.519, 1.083416
1009.001, 0.2379270
1009.483, 0.4923560
1009.966, 0.3145360
1010.448, 1.234788
1010.930, 1.837040
1011.412, 2.069818
1011.894, 1.585357
1012.376, 0.8767360
1012.858, 1.168295
1013.340, 1.986235
1013.823, 1.951612
1014.305, 0.9860200
1014.787, 0.1245750
1015.269, 4.0612001E-02
1015.751, 0.1912350
1016.233, 0.4760190
1016.715, 0.8232130
1017.197, 1.343654
1017.679, 1.965978
1018.162, 2.385188
1018.644, 2.527162
1019.126, 2.338806
1019.608, 1.744765
1020.090, 1.094532
1020.572, 1.045373
1021.054, 1.514566
1021.536, 1.956579
1022.018, 2.362359
1022.501, 2.613327
1022.983, 2.680388
1023.465, 2.597518
1023.947, 2.360929
1024.429, 2.097978
1024.911, 2.158922
1025.393, 2.558502
1025.875, 2.436632
1026.358, 1.682317
1026.840, 1.368387
1027.322, 1.938450
1027.804, 2.516634
1028.286, 2.277765
1028.768, 1.620643
1029.250, 1.611112
1029.732, 2.385742
1030.214, 2.720165
1030.697, 2.482138
1031.179, 2.263261
1031.661, 2.257680
1032.143, 2.286816
1032.625, 2.133684
1033.107, 1.788011
1033.589, 1.250988
1034.071, 0.3613120
1034.553, 2.5291000E-02
1035.036, 0.4115170
1035.518, 1.013928
1036.000, 1.953930
1036.482, 2.704102
1036.964, 2.800810
1037.446, 2.406196
1037.928, 1.962111
1038.410, 1.369689
1038.893, 1.075789
1039.375, 1.280793
1039.857, 1.588126
1040.339, 1.774586
1040.821, 1.960236
1041.303, 2.533003
1041.785, 3.177536
1042.267, 2.830605
1042.750, 0.8839060
1043.232, 2.1352001E-02
1043.714, 1.349313
1044.196, 2.129567
1044.678, 0.7803750
1045.160, 0.5462800
1045.642, 0.2117610
1046.124, 2.103993
1046.606, 2.580734
1047.089, 0.9064600
1047.571, 0.3459290
1048.053, 2.569173
1048.535, 4.146279
1049.017, 3.784225
1049.499, 2.783983
1049.981, 1.813345
1050.463, 1.059971
1050.945, 0.9039170
1051.428, 1.487948
1051.910, 1.811943
1052.392, 1.500499
1052.874, 1.260106
1053.356, 1.387965
1053.838, 1.564532
1054.320, 1.374478
1054.802, 1.101661
1055.285, 1.532574
1055.767, 2.890877
1056.249, 3.485584
1056.731, 2.123113
1057.213, 0.9204100
1057.695, 0.5742740
1058.177, 0.7523830
1058.659, 1.548929
1059.141, 2.532979
1059.624, 2.959076
1060.106, 2.715592
1060.588, 2.332877
1061.070, 1.667115
1061.552, 1.379423
1062.034, 2.206780
1062.516, 3.056293
1062.998, 2.965008
1063.480, 2.332610
1063.963, 1.909174
1064.445, 1.817994
1064.927, 1.752608
1065.409, 1.456738
1065.891, 1.360765
1066.373, 1.890796
1066.855, 2.429174
1067.337, 2.673455
1067.820, 2.564251
1068.302, 1.661839
1068.784, 9.8774001E-02
1069.266, 0.7051690
1069.748, 0.1934800
1070.230, 1.231287
1070.712, 1.805861
1071.194, 2.177859
1071.677, 2.460538
1072.159, 2.720352
1072.641, 3.061387
1073.123, 3.463943
1073.605, 3.777406
1074.087, 4.031518
1074.569, 3.975856
1075.051, 3.390273
1075.533, 2.560614
1076.016, 1.232465
1076.498, 7.7427998E-02
1076.980, 6.6941999E-02
1077.462, 1.078527
1077.944, 2.260978
1078.426, 3.567229
1078.908, 4.160568
1079.390, 2.926764
1079.873, 1.668652
1080.355, 1.758433
1080.837, 2.357561
1081.319, 2.466592
1081.801, 2.126822
1082.283, 1.859404
1082.765, 1.818455
1083.247, 1.835947
1083.729, 1.911884
1084.212, 1.933299
1084.694, 1.803483
1085.176, 1.611232
1085.658, 1.337929
1086.140, 1.106574
1086.622, 1.281661
1087.104, 1.978623
1087.586, 2.320212
1088.068, 1.752281
1088.551, 0.9772810
1089.033, 4.7938000E-02
1089.515, 0.7732930
1089.997, 0.4764210
1090.479, 0.3802210
1090.961, 0.8628620
1091.443, 0.8241420
1091.925, 0.9097610
1092.408, 1.422492
1092.890, 2.022057
1093.372, 2.812615
1093.854, 3.393371
1094.336, 3.463002
1094.818, 3.142073
1095.300, 2.600811
1095.782, 1.875505
1096.265, 0.9620760
1096.747, 0.5986520
1097.229, 0.3941345
1097.711, 0.6028090
1098.193, 0.4387220
1098.675, 0.8179040
1099.157, 0.8539940
1099.639, 0.8117320
1100.121, 0.8162390
1100.604, 1.217510
1101.086, 2.295476
1101.568, 3.142078
1102.050, 3.445728
1102.532, 3.430564
1103.014, 3.109039
1103.496, 2.701979
1103.978, 2.095382
1104.460, 1.498919
1104.943, 1.544491
1105.425, 2.531617
1105.907, 2.887335
1106.389, 1.510789
1106.871, 0.5937310
1107.353, 1.179593
1107.835, 2.019722
1108.317, 2.304582
1108.800, 2.228043
1109.282, 2.151712
1109.764, 2.101147
1110.246, 2.052188
1110.728, 2.020685
1111.210, 1.977269
1111.692, 1.713382
1112.174, 1.644735
1112.656, 2.259079
1113.139, 2.980960
1113.621, 3.056628
1114.103, 2.537088
1114.585, 2.070095
1115.067, 1.668537
1115.549, 1.309026
1116.031, 1.025162
1116.513, 0.7265870
1116.995, 9.4517998E-02
1117.478, 0.2419290
1117.960, 0.5908850
1118.442, 2.086472
1118.924, 2.530188
1119.406, 1.526119
1119.888, 1.072021
1120.370, 1.373815
1120.852, 1.822311
1121.335, 2.454652
1121.817, 2.916611
1122.299, 2.952388
1122.781, 2.684219
1123.263, 2.242649
1123.745, 1.614393
1124.227, 1.692710
1124.709, 2.900979
1125.192, 3.180964
1125.674, 1.854961
1126.156, 0.9639720
1126.638, 1.650751
1127.120, 2.616572
1127.602, 2.395127
1128.084, 1.270566
1128.566, 0.9187380
1129.048, 1.438946
1129.531, 1.883085
1130.013, 2.234428
1130.495, 2.282656
1130.977, 1.922875
1131.459, 1.484925
1131.941, 1.216448
1132.423, 1.126802
1132.905, 1.240387
1133.387, 1.549435
1133.870, 1.884239
1134.352, 2.240566
1134.834, 2.489820
1135.316, 2.609819
1135.798, 2.810447
1136.280, 3.226003
1136.762, 3.461849
1137.244, 2.919130
1137.727, 1.882205
1138.209, 1.072257
1138.691, 0.5379190
1139.173, 0.6265700
1139.655, 1.264358
1140.137, 1.896112
1140.619, 2.311749
1141.101, 2.473761
1141.583, 2.323387
1142.066, 2.004661
1142.548, 1.593941
1143.030, 1.264151
1143.512, 1.474395
1143.994, 1.999819
1144.476, 2.349887
1144.958, 2.451339
1145.440, 2.484880
1145.922, 2.549870
1146.405, 2.443686
1146.887, 1.728458
1147.369, 0.9248720
1147.851, 0.7934200
1148.333, 1.033267
1148.815, 1.194752
1149.297, 1.240074
1149.779, 1.249525
1150.262, 1.241735
1150.744, 1.147177
1151.226, 0.8576750
1151.708, 0.5854290
1152.190, 0.4191540
1152.672, 0.3767010
1153.154, 0.6094200
1153.636, 0.8932620
1154.119, 0.8071450
1154.601, 0.3961840
1155.083, 0.2618140
1155.565, 0.8031990
1156.047, 1.284797
1156.529, 1.350223
1157.011, 1.360244
1157.493, 1.710536
1157.975, 1.850797
1158.458, 0.8617290
1158.940, 0.5290660
1159.422, 0.7082750
1159.904, 0.5462920
1160.386, 1.660507
1160.868, 2.680338
1161.350, 3.278408
1161.832, 3.325895
1162.314, 3.063656
1162.797, 2.378057
1163.279, 1.630925
1163.761, 1.206845
1164.243, 1.051778
1164.725, 0.9004330
1165.207, 0.6511560
1165.689, 0.8401090
1166.171, 1.798789
1166.654, 2.147700
1167.136, 1.373252
1167.618, 0.4383260
1168.100, 0.1127260
1168.582, 0.2187670
1169.064, 0.3357630
1169.546, 1.431592
1170.028, 1.888599
1170.510, 1.688038
1170.993, 1.689573
1171.475, 1.986107
1171.957, 2.333421
1172.439, 2.653109
1172.921, 2.777038
1173.403, 2.540756
1173.885, 2.062943
1174.367, 1.504391
1174.849, 0.9159720
1175.332, 0.3102870
1175.814, 0.1125210
1176.296, 0.4595760
1176.778, 1.912113
1177.260, 2.648918
1177.742, 1.904394
1178.224, 0.7999390
1178.706, 9.7460002E-02
1179.189, 1.0154000E-02
1179.671, 1.399831
1180.153, 3.101445
1180.635, 2.991719
1181.117, 1.722664
1181.599, 1.041921
1182.081, 1.254364
1182.563, 1.511895
1183.046, 1.359218
1183.528, 1.387275
1184.010, 2.325929
1184.492, 3.118688
1184.974, 2.912035
1185.456, 2.304082
1185.938, 1.847696
1186.420, 1.560205
1186.902, 1.236802
1187.385, 0.8221840
1187.867, 0.9203020
1188.349, 2.658718
1188.831, 3.393925
1189.313, 1.511402
1189.795, 0.1287960
1190.277, 2.7197000E-02
1190.759, 0.9453790
1191.241, 1.867825
1191.724, 2.653040
1192.206, 2.688611
1192.688, 1.707198
1193.170, 1.098490
1193.652, 0.8749880
1194.134, 1.047197
1194.616, 1.753567
1195.098, 2.387056
1195.581, 2.580001
1196.063, 2.622713
1196.545, 2.945402
1197.027, 2.952683
1197.509, 3.498084
1197.991, 3.187707
1198.473, 3.238931
1198.955, 3.618055
1199.438, 3.068916
1199.920, 1.335652
1200.402, 0.1900010
1200.884, 0.5817370
1201.366, 0.2437370
1201.848, 0.6013100
1202.330, 1.594490
1202.812, 2.130030
1203.294, 2.248448
1203.776, 1.814819
1204.259, 1.084091
1204.741, 0.6953400
1205.223, 0.8251700
1205.705, 1.293491
1206.187, 2.272749
1206.669, 2.831894
1207.151, 1.836454
1207.633, 0.7143570
1208.116, 0.6316560
1208.598, 1.008678
1209.080, 1.106298
1209.562, 1.008591
1210.044, 1.200976
1210.526, 1.800689
1211.008, 2.163191
1211.490, 1.875400
1211.973, 1.782681
1212.455, 2.467759
1212.937, 2.828540
1213.419, 1.887321
1213.901, 0.9473870
1214.383, 1.576727
1214.865, 3.161815
1215.347, 3.551347
1215.829, 2.475418
1216.312, 1.492847
1216.794, 0.4418920
1217.276, 0.3367380
1217.758, 1.580331
1218.240, 2.608239
1218.722, 2.651850
1219.204, 3.260298
1219.686, 2.704157
1220.168, 3.223868
1220.651, 3.041416
1221.133, 2.409129
1221.615, 2.593952
1222.097, 2.125989
1222.579, 1.485458
1223.061, 1.577774
1223.543, 0.4171750
1224.025, 0.1583540
1224.508, 0.4337220
1224.990, 1.251679
1225.472, 2.026917
1225.954, 2.153456
1226.436, 1.908805
1226.918, 1.504391
1227.400, 1.037083
1227.882, 0.5098680
1228.365, 2.7400000E-02
1228.847, 1.3980000E-02
1229.329, 0.5840730
1229.811, 1.184237
1230.293, 1.802612
1230.775, 2.132004
1231.257, 2.029537
1231.739, 1.653108
1232.221, 0.7811570
1232.703, 0.1011340
1233.186, 0.3540940
1233.668, 4.3685000E-02
1234.150, 0.4655890
1234.632, 1.343256
1235.114, 1.679518
1235.596, 1.317837
1236.078, 1.129539
1236.560, 1.321819
1237.043, 1.689108
1237.525, 2.145755
1238.007, 2.494077
1238.489, 2.486773
1238.971, 2.477673
1239.453, 2.025735
1239.935, 1.821600
1240.417, 1.188173
1240.900, 1.253469
1241.382, 0.4211250
1241.864, 1.371333
1242.346, 2.225663
1242.828, 2.508019
1243.310, 2.423738
1243.792, 1.733525
1244.274, 1.282506
1244.756, 1.848527
1245.239, 2.603848
1245.721, 2.674621
1246.203, 2.426138
1246.685, 2.522287
1247.167, 2.954212
1247.649, 3.281169
1248.131, 3.497247
1248.613, 3.379491
1249.095, 2.138870
1249.578, 1.778899
1250.060, 3.495954
1250.542, 4.757836
1251.024, 4.027320
1251.506, 2.637248
1251.988, 2.168625
1252.470, 2.382790
1252.952, 2.385437
1253.435, 2.174069
1253.917, 1.755579
1254.399, 1.144026
1254.881, 0.7723150
1255.363, 0.7138330
1255.845, 0.7653630
1256.327, 0.8358270
1256.809, 1.352500
1257.292, 3.001492
1257.774, 4.618119
1258.256, 4.397829
1258.738, 3.293181
1259.220, 2.190747
1259.702, 1.421461
1260.184, 2.067262
1260.666, 3.568253
1261.148, 4.062483
1261.630, 3.039556
1262.113, 2.266418
1262.595, 2.887408
1263.077, 3.098254
1263.559, 1.940581
1264.041, 0.8088290
1264.523, 8.1510004E-03
1265.005, 8.4743001E-02
1265.487, 1.580100
1265.970, 0.8381287
1266.452, 3.727190
1266.934, 1.239239
1267.416, 0.4148480
1267.898, 1.527649
1268.380, 2.223465
1268.862, 2.266594
1269.344, 2.003053
1269.827, 1.539273
1270.309, 1.553042
1270.791, 2.630536
1271.273, 3.594055
1271.755, 2.247097
1272.237, 3.7618000E-02
1272.719, 0.4245620
1273.201, 0.2506160
1273.683, 1.428885
1274.166, 2.622481
1274.648, 2.884408
1275.130, 2.230409
1275.612, 1.650025
1276.094, 1.800633
1276.576, 1.996900
1277.058, 2.043100
1277.540, 2.040041
1278.022, 2.144052
1278.505, 1.815673
1278.987, 2.171285
1279.469, 2.146310
1279.951, 2.028007
1280.433, 1.577405
1280.915, 0.9830540
1281.397, 0.1566670
1281.879, 6.4799999E-04
1282.362, -0.2236288
1282.844, -0.3613773
1283.326, 0.1254520
1283.808, 1.1289000E-02
1284.290, 0.8247590
1284.772, 1.603662
1285.254, 1.263812
1285.736, 0.0000000E+00
##END=



