##NAMES=Coloradoite
##RRUFFID=R070326
##IDEAL CHEMISTRY=Hg^2+^Te^2-^
##LOCALITY=Herald Mine, Sugarloaf, Boulder County, Colorado, USA
##OWNER=RRUFF
##SOURCE=Michael Scott
##DESCRIPTION=Grey metallic massive on quartz
##STATUS=The identification of this mineral is not yet confirmed.
##URL=rruff.info/R070326
136.1626, 0.0000000E+00
136.6447, 0.3399960
137.1268, 1.0590000E-02
137.6089, 2.859955
138.0910, 9.767670
138.5731, 23.22635
139.0553, 46.01047
139.5374, 61.33850
140.0195, 65.75854
140.5016, 62.16882
140.9837, 62.11838
141.4658, 67.90646
141.9480, 73.50763
142.4301, 74.25574
142.9122, 66.84982
143.3943, 61.58902
143.8764, 60.38577
144.3585, 63.11880
144.8407, 64.49045
145.3228, 63.90567
145.8049, 62.36734
146.2870, 60.87903
146.7691, 60.83676
147.2512, 58.98621
147.7334, 53.77670
148.2155, 43.66217
148.6976, 36.95224
149.1797, 35.26947
149.6618, 36.52869
150.1439, 37.96286
150.6261, 39.82910
151.1082, 41.61023
151.5903, 42.68524
152.0724, 41.25021
152.5545, 43.14594
153.0366, 51.76569
153.5188, 63.88818
154.0009, 73.14871
154.4830, 79.27405
154.9651, 81.97476
155.4472, 80.84927
155.9293, 72.33832
156.4115, 65.22849
156.8936, 62.82843
157.3757, 63.57169
157.8578, 62.00040
158.3399, 52.57053
158.8221, 42.61545
159.3042, 36.82578
159.7863, 39.15952
160.2684, 43.04355
160.7505, 47.26443
161.2326, 51.67654
161.7148, 54.83121
162.1969, 56.78424
162.6790, 56.89246
163.1611, 54.54578
163.6432, 46.42725
164.1253, 38.27637
164.6075, 32.81363
165.0896, 30.13495
165.5717, 29.52628
166.0538, 32.89215
166.5359, 37.68719
167.0180, 40.30255
167.5002, 36.44666
167.9823, 31.59357
168.4644, 30.62927
168.9465, 34.51978
169.4286, 38.06638
169.9107, 36.69312
170.3929, 32.13901
170.8750, 28.02872
171.3571, 27.14285
171.8392, 27.44324
172.3213, 25.93076
172.8034, 20.99149
173.2856, 17.47266
173.7677, 21.44269
174.2498, 31.05109
174.7319, 39.86472
175.2140, 44.92828
175.6961, 46.67377
176.1783, 44.48605
176.6604, 36.65997
177.1425, 28.20126
177.6246, 26.34125
178.1067, 30.14679
178.5888, 33.73947
179.0710, 32.11151
179.5531, 27.11328
180.0352, 22.81839
180.5173, 20.41269
180.9994, 18.98618
181.4815, 16.59912
181.9637, 12.95111
182.4458, 11.00290
182.9279, 14.95605
183.4100, 23.08514
183.8921, 28.78177
184.3742, 28.79590
184.8564, 25.77570
185.3385, 26.86633
185.8206, 32.47012
186.3027, 37.77643
186.7848, 35.96585
187.2669, 26.74869
187.7491, 20.08847
188.2312, 19.51904
188.7133, 23.68683
189.1954, 28.17508
189.6775, 33.25882
190.1596, 37.28519
190.6418, 37.85071
191.1239, 35.01132
191.6060, 31.44302
192.0881, 27.24316
192.5702, 22.75204
193.0524, 21.79355
193.5345, 25.84113
194.0166, 30.54230
194.4987, 29.19711
194.9808, 21.73398
195.4629, 14.79584
195.9451, 12.42013
196.4272, 14.44125
196.9093, 13.69208
197.3914, 9.232056
197.8735, 3.336853
198.3556, 0.5429080
198.8378, 1.447662
199.3199, 3.753723
199.8020, 6.436310
200.2841, 9.504852
200.7662, 12.56793
201.2483, 15.82452
201.7305, 18.85947
202.2126, 20.73318
202.6947, 21.37729
203.1768, 21.22806
203.6589, 20.62399
204.1410, 19.52026
204.6232, 16.50296
205.1053, 10.79315
205.5874, 3.571594
206.0695, 1.139313
206.5516, 2.874786
207.0337, 3.321381
207.5159, 3.700867
207.9980, 4.245392
208.4801, 3.540070
208.9622, 1.144287
209.4443, 2.566040
209.9264, 7.126648
210.4086, 13.87726
210.8907, 18.83459
211.3728, 17.71759
211.8549, 7.783844
212.3370, 1.365967
212.8191, 1.561523
213.3013, 7.286163
213.7834, 8.879517
214.2655, 4.326935
214.7476, 1.129791
215.2297, 2.662445
215.7118, 1.236206
216.1940, 4.922058
216.6761, 7.774719
217.1582, 9.762451
217.6403, 9.440063
218.1224, 5.345795
218.6045, 0.6354060
219.0867, 0.7927860
219.5688, 2.917389
220.0509, 5.679810
220.5330, 5.642670
221.0151, 2.697235
221.4972, 2.295502
221.9794, 6.154602
222.4615, 10.63382
222.9436, 11.33237
223.4257, 5.441986
223.9078, 1.992401
224.3899, 4.200226
224.8721, 12.66910
225.3542, 15.36880
225.8363, 8.967651
226.3184, 3.4789999E-03
226.8005, 3.478851
227.2827, 1.693970
227.7648, 6.348755
228.2469, 7.990631
228.7290, 6.140778
229.2111, 5.033356
229.6932, 5.162537
230.1754, 5.652161
230.6575, 5.336395
231.1396, 3.179688
231.6217, 2.227844
232.1038, 3.755005
232.5859, 8.503448
233.0681, 11.79123
233.5502, 13.64145
234.0323, 14.03134
234.5144, 12.83032
234.9965, 9.505981
235.4786, 5.498291
235.9608, 0.5962830
236.4429, 6.051941
236.9250, 9.246124
237.4071, 7.236115
237.8892, 2.768280
238.3713, 0.3540950
238.8535, 2.084473
239.3356, 3.140320
239.8177, 1.896606
240.2998, 2.231506
240.7819, 6.606140
241.2640, 12.12271
241.7462, 17.43210
242.2283, 20.14191
242.7104, 19.05878
243.1925, 17.20996
243.6746, 15.45135
244.1567, 13.68289
244.6389, 12.31302
245.1210, 11.34912
245.6031, 10.78323
246.0852, 10.66617
246.5673, 11.22787
247.0494, 11.84940
247.5316, 12.31659
248.0137, 12.58337
248.4958, 13.05170
248.9779, 14.77386
249.4600, 16.16196
249.9421, 13.47699
250.4243, 2.799622
250.9064, 5.716675
251.3885, 7.642822
251.8706, 0.3548580
252.3527, 4.963470
252.8348, 8.548767
253.3170, 10.03577
253.7991, 7.870270
254.2812, 0.9120480
254.7633, 7.633270
255.2454, 8.346008
255.7275, 0.9307560
256.2097, 4.743500
256.6918, 8.568970
257.1739, 10.67395
257.6560, 11.15204
258.1381, 9.510803
258.6202, 7.235352
259.1024, 4.588898
259.5845, 1.212585
260.0666, 1.061096
260.5487, 2.610687
261.0308, 2.697815
261.5129, 0.5581670
261.9951, 8.837585
262.4772, 16.03873
262.9593, 19.47156
263.4414, 18.41647
263.9235, 17.10757
264.4056, 15.57056
264.8878, 13.71344
265.3699, 10.67453
265.8520, 5.193939
266.3341, 2.096680
266.8162, 4.241699
267.2983, 12.81433
267.7805, 18.40070
268.2626, 20.11896
268.7447, 19.77148
269.2268, 20.64835
269.7089, 23.33591
270.1910, 25.12753
270.6732, 24.44604
271.1553, 20.87137
271.6374, 19.28848
272.1195, 20.45706
272.6016, 22.48282
273.0837, 22.38980
273.5659, 20.12546
274.0480, 16.55847
274.5301, 10.61740
275.0122, 2.083221
275.4943, 0.6698300
275.9764, 3.652344
276.4586, 11.32028
276.9407, 17.47650
277.4228, 22.14874
277.9049, 24.82675
278.3870, 25.01309
278.8691, 22.77310
279.3513, 19.26059
279.8334, 14.06927
280.3155, 8.652924
280.7976, 4.117706
281.2798, 0.3948360
281.7619, 0.1208800
282.2440, 6.310577
282.7261, 17.68857
283.2082, 24.20389
283.6903, 25.27640
284.1725, 23.79431
284.6546, 22.71393
285.1367, 22.30246
285.6188, 20.40250
286.1009, 14.80295
286.5830, 6.978607
287.0652, 3.670959
287.5473, 5.307831
288.0294, 9.075745
288.5115, 13.17249
288.9936, 17.30716
289.4757, 18.89041
289.9579, 15.59991
290.4400, 9.762146
290.9221, 7.163666
291.4042, 7.582550
291.8863, 8.817810
292.3684, 8.785645
292.8506, 7.881866
293.3327, 7.843628
293.8148, 10.24323
294.2969, 12.92188
294.7790, 11.02621
295.2611, 4.844452
295.7433, 0.5132750
296.2254, 5.753357
296.7075, 17.13364
297.1896, 24.62375
297.6717, 24.90234
298.1538, 21.09369
298.6360, 16.04010
299.1181, 9.952637
299.6002, 5.877960
300.0823, 7.550262
300.5644, 12.69867
301.0465, 17.12234
301.5287, 19.91193
302.0108, 21.29294
302.4929, 20.93707
302.9750, 19.08392
303.4571, 17.13342
303.9392, 15.90460
304.4214, 15.17398
304.9035, 14.80008
305.3856, 15.42841
305.8677, 15.32001
306.3498, 11.09039
306.8319, 4.290070
307.3141, 0.3166200
307.7962, 4.264709
308.2783, 11.74872
308.7604, 18.85596
309.2425, 26.67847
309.7246, 31.31934
310.2068, 26.36325
310.6889, 15.14252
311.1710, 6.618134
311.6531, 5.626282
312.1352, 8.474060
312.6173, 13.62589
313.0995, 23.28378
313.5816, 29.88754
314.0637, 26.13257
314.5458, 16.44452
315.0279, 9.509277
315.5100, 11.46503
315.9922, 14.93347
316.4743, 15.99152
316.9564, 13.75247
317.4385, 10.81519
317.9206, 6.116180
318.4027, 1.684723
318.8849, 0.4069210
319.3670, 6.629822
319.8491, 13.30203
320.3312, 17.71805
320.8133, 19.43491
321.2954, 20.47720
321.7776, 21.59921
322.2597, 22.12076
322.7418, 21.31641
323.2239, 15.94067
323.7060, 12.36655
324.1881, 13.22369
324.6703, 19.28021
325.1524, 22.64618
325.6345, 20.89694
326.1166, 17.32312
326.5987, 14.56003
327.0808, 13.41519
327.5630, 12.78113
328.0451, 12.64136
328.5272, 12.98026
329.0093, 13.51862
329.4914, 15.00543
329.9735, 16.00699
330.4557, 15.41318
330.9378, 11.48096
331.4199, 9.037231
331.9020, 8.980652
332.3841, 10.77786
332.8662, 11.55585
333.3484, 10.29596
333.8305, 9.812958
334.3126, 11.73639
334.7947, 17.38092
335.2768, 20.93250
335.7589, 21.38797
336.2411, 19.98203
336.7232, 20.33920
337.2053, 23.85614
337.6874, 25.57321
338.1695, 22.09427
338.6516, 12.35144
339.1338, 7.702667
339.6159, 10.26016
340.0980, 15.58389
340.5801, 14.17288
341.0622, 4.986725
341.5443, 1.509613
342.0265, 0.4547730
342.5086, 9.753906
342.9907, 15.82672
343.4728, 18.25473
343.9549, 18.99243
344.4370, 20.58221
344.9192, 22.79721
345.4013, 24.30466
345.8834, 25.39993
346.3655, 25.13184
346.8476, 19.29373
347.3297, 7.677765
347.8119, 3.010529
348.2940, 6.044006
348.7761, 2.981079
349.2582, 1.982666
349.7403, 9.596008
350.2225, 16.67371
350.7046, 17.56668
351.1867, 12.99081
351.6688, 8.338745
352.1509, 8.603821
352.6331, 10.95627
353.1152, 10.41525
353.5973, 3.551941
354.0794, 1.999023
354.5615, 3.018646
355.0436, 15.14237
355.5258, 23.93073
356.0079, 18.91669
356.4900, 10.67822
356.9721, 9.388306
357.4542, 18.82346
357.9363, 27.61856
358.4185, 28.31125
358.9006, 24.11938
359.3827, 20.61563
359.8648, 20.41876
360.3469, 21.11722
360.8290, 21.59286
361.3112, 21.73914
361.7933, 21.71103
362.2754, 22.78238
362.7575, 23.25479
363.2396, 21.27328
363.7217, 10.62497
364.2039, 3.298187
364.6860, 4.398346
365.1681, 14.00601
365.6502, 20.55740
366.1323, 20.70813
366.6144, 18.45300
367.0966, 16.54553
367.5787, 13.01105
368.0608, 12.44910
368.5429, 17.12723
369.0250, 25.64505
369.5071, 30.77213
369.9893, 31.36404
370.4714, 29.96619
370.9535, 27.74188
371.4356, 24.84653
371.9177, 20.48645
372.3998, 12.91614
372.8820, 4.744873
373.3641, 2.734100
373.8462, 9.654419
374.3283, 15.51508
374.8104, 15.51663
375.2925, 8.938019
375.7747, 5.332031
376.2568, 4.669983
376.7389, 6.249420
377.2210, 9.933136
377.7031, 15.85345
378.1852, 20.47525
378.6674, 22.78232
379.1495, 22.93762
379.6316, 21.20624
380.1137, 17.42148
380.5958, 13.53592
381.0779, 12.02408
381.5601, 11.56885
382.0422, 9.059387
382.5243, 2.044922
383.0064, 5.302032
383.4885, 4.876312
383.9706, 2.427032
384.4528, 9.966736
384.9349, 13.56122
385.4170, 14.39377
385.8991, 14.27771
386.3812, 13.21579
386.8633, 12.10153
387.3455, 12.11191
387.8276, 12.72198
388.3097, 12.72641
388.7918, 9.488251
389.2739, 6.704407
389.7560, 8.492554
390.2382, 15.66699
390.7203, 21.32568
391.2024, 19.58804
391.6845, 15.01547
392.1666, 12.84583
392.6487, 20.49533
393.1309, 25.54248
393.6130, 20.10571
394.0951, 5.365265
394.5772, 4.371460
395.0593, 1.422821
395.5414, 5.103455
396.0236, 9.495575
396.5057, 7.415009
396.9878, 7.404114
397.4699, 13.06113
397.9520, 21.72232
398.4341, 24.95288
398.9163, 18.52908
399.3984, 10.85065
399.8805, 4.944305
400.3626, 0.5865780
400.8447, 1.447937
401.3268, 2.6611000E-02
401.8090, 2.950897
402.2911, 4.397552
402.7732, 3.830322
403.2553, 3.113129
403.7374, 2.508636
404.2195, 2.064423
404.7017, 2.696320
405.1838, 4.529785
405.6659, 6.885315
406.1480, 9.843658
406.6301, 13.82922
407.1122, 17.22260
407.5944, 19.78461
408.0765, 21.08133
408.5586, 18.83597
409.0407, 13.13068
409.5228, 8.913300
410.0049, 11.38538
410.4871, 17.93878
410.9692, 20.96228
411.4513, 19.21368
411.9334, 15.67218
412.4155, 13.24304
412.8976, 11.93280
413.3798, 12.21277
413.8619, 17.59036
414.3440, 22.76755
414.8261, 20.46545
415.3082, 10.60266
415.7903, 2.250458
416.2725, 1.706879
416.7546, 5.755219
417.2367, 10.90530
417.7188, 18.40533
418.2009, 24.09277
418.6830, 25.47437
419.1652, 23.28506
419.6473, 20.16086
420.1294, 14.29047
420.6115, 9.687347
421.0937, 9.092163
421.5758, 16.05209
422.0579, 20.13992
422.5400, 17.31320
423.0221, 11.38550
423.5042, 8.610107
423.9864, 13.69409
424.4685, 16.87006
424.9506, 14.85178
425.4327, 6.985962
425.9148, 2.896301
426.3969, 4.355347
426.8791, 7.565918
427.3612, 9.179718
427.8433, 8.492065
428.3254, 8.595642
428.8075, 10.64740
429.2896, 13.48853
429.7718, 12.46979
430.2539, 6.807251
430.7360, 1.451324
431.2181, 2.0599000E-02
431.7002, 2.069641
432.1823, 2.217499
432.6645, 0.4630430
433.1466, 2.996246
433.6287, 0.3544920
434.1108, 8.171814
434.5929, 13.26923
435.0750, 9.954742
435.5572, 3.205261
436.0393, 3.155334
436.5214, 9.436493
437.0035, 14.24048
437.4856, 7.606598
437.9677, 3.197571
438.4499, 7.456604
438.9320, 0.7974550
439.4141, 10.68134
439.8962, 15.02509
440.3783, 14.98578
440.8604, 13.38040
441.3426, 9.694183
441.8247, 7.132416
442.3068, 7.722351
442.7889, 12.61154
443.2710, 16.27164
443.7531, 15.80765
444.2353, 14.58612
444.7174, 14.39810
445.1995, 18.82150
445.6816, 22.07480
446.1637, 22.27563
446.6458, 19.84488
447.1280, 19.46201
447.6101, 22.80484
448.0922, 26.35629
448.5743, 28.04666
449.0564, 26.98410
449.5385, 26.55209
450.0207, 27.18033
450.5028, 28.16660
450.9849, 27.80597
451.4670, 25.63013
451.9491, 24.55157
452.4312, 26.15073
452.9134, 30.27896
453.3955, 32.26266
453.8776, 31.88602
454.3597, 30.39035
454.8418, 28.61942
455.3239, 26.65842
455.8061, 24.88815
456.2882, 23.25253
456.7703, 22.03320
457.2524, 22.41055
457.7345, 23.82480
458.2166, 23.96893
458.6988, 19.46136
459.1809, 14.00882
459.6630, 11.53381
460.1451, 12.56378
460.6272, 15.38095
461.1093, 22.04892
461.5915, 28.91843
462.0736, 31.52621
462.5557, 23.92685
463.0378, 16.01849
463.5199, 9.933533
464.0020, 5.593536
464.4842, 5.100677
464.9663, 15.49466
465.4484, 25.49091
465.9305, 28.74805
466.4126, 18.43039
466.8947, 13.16470
467.3769, 15.64316
467.8590, 21.98654
468.3411, 26.22650
468.8232, 28.69812
469.3053, 28.13501
469.7874, 23.11496
470.2696, 14.01138
470.7517, 7.535431
471.2338, 3.688934
471.7159, 2.599335
472.1980, 5.484131
472.6801, 12.16544
473.1623, 17.82181
473.6444, 22.20819
474.1265, 24.60257
474.6086, 22.23206
475.0907, 15.88519
475.5728, 10.66589
476.0550, 10.58362
476.5371, 12.89148
477.0192, 12.84180
477.5013, 10.24554
477.9834, 7.816284
478.4655, 6.626587
478.9477, 7.185699
479.4298, 10.46344
479.9119, 20.76221
480.3940, 28.81036
480.8761, 27.80606
481.3582, 20.44189
481.8404, 14.44720
482.3225, 11.79721
482.8046, 11.51816
483.2867, 13.80872
483.7688, 19.93506
484.2509, 24.28528
484.7331, 26.44049
485.2152, 26.54465
485.6973, 24.47845
486.1794, 18.06616
486.6615, 13.26614
487.1436, 11.47083
487.6258, 11.92798
488.1079, 10.56418
488.5900, 6.164734
489.0721, 3.345154
489.5542, 5.685974
490.0363, 13.16879
490.5185, 18.40118
491.0006, 20.99081
491.4827, 21.83148
491.9648, 21.10925
492.4470, 19.03729
492.9291, 16.63229
493.4112, 13.06964
493.8933, 10.42654
494.3754, 13.64273
494.8575, 21.73294
495.3397, 28.31149
495.8218, 27.47256
496.3039, 23.48004
496.7860, 21.94492
497.2681, 23.70117
497.7502, 25.46207
498.2324, 24.92880
498.7145, 23.50922
499.1966, 23.10681
499.6787, 29.61816
500.1608, 31.84106
500.6429, 21.86441
501.1251, 0.9821780
501.6072, 9.654205
502.0893, 0.3815920
502.5714, 12.74203
503.0535, 19.06436
503.5356, 16.86594
504.0178, 14.37262
504.4999, 10.96887
504.9820, 7.862793
505.4641, 7.156342
505.9462, 9.329010
506.4283, 11.38510
506.9105, 12.35971
507.3926, 12.57855
507.8747, 12.68936
508.3568, 12.58929
508.8389, 14.48352
509.3210, 24.01300
509.8032, 36.82446
510.2853, 39.41879
510.7674, 28.25497
511.2495, 14.83411
511.7316, 11.18393
512.2137, 13.97372
512.6959, 16.45474
513.1780, 14.18002
513.6601, 12.00537
514.1422, 14.53784
514.6243, 20.83316
515.1064, 24.31125
515.5886, 19.87759
516.0707, 13.58569
516.5528, 9.131470
517.0349, 7.673370
517.5170, 6.528931
517.9991, 6.412140
518.4813, 6.097809
518.9634, 3.836884
519.4455, 2.643341
519.9276, 7.317444
520.4097, 9.825348
520.8918, 9.707916
521.3740, 2.496124
521.8561, 14.27130
522.3382, 29.99286
522.8203, 38.22226
523.3024, 39.08850
523.7845, 34.52020
524.2667, 23.19904
524.7488, 11.74417
525.2309, 9.191071
525.7130, 13.37021
526.1951, 16.80716
526.6772, 16.93634
527.1594, 15.05496
527.6415, 11.88159
528.1236, 7.764923
528.6057, 4.161652
529.0878, 1.304169
529.5699, 0.3043820
530.0521, 0.3690800
530.5342, 1.001953
531.0163, 4.484375
531.4984, 13.29587
531.9805, 23.07947
532.4626, 29.24670
532.9448, 29.06448
533.4269, 27.69055
533.9090, 25.12131
534.3911, 21.99771
534.8732, 19.22351
535.3553, 14.94885
535.8375, 13.71866
536.3196, 19.56830
536.8017, 33.34250
537.2838, 36.70950
537.7659, 27.60074
538.2480, 14.99130
538.7302, 7.982269
539.2123, 6.276093
539.6944, 6.323120
540.1765, 7.511505
540.6586, 9.066437
541.1407, 8.889832
541.6229, 7.589081
542.1050, 7.336548
542.5871, 8.825378
543.0692, 12.19186
543.5513, 19.90628
544.0334, 31.90402
544.5156, 38.65262
544.9977, 31.38882
545.4798, 19.50180
545.9619, 10.31076
546.4440, 5.112366
546.9261, 2.741882
547.4083, 4.025330
547.8904, 7.939484
548.3725, 12.84638
548.8546, 20.81683
549.3367, 26.41971
549.8188, 28.03735
550.3010, 25.92953
550.7831, 22.72192
551.2652, 18.12665
551.7473, 14.11511
552.2294, 11.90347
552.7115, 11.66458
553.1937, 12.67722
553.6758, 15.14337
554.1579, 17.78812
554.6400, 19.16174
555.1221, 19.44534
555.6042, 19.11871
556.0864, 18.05951
556.5685, 16.76468
557.0506, 16.14490
557.5327, 15.82367
558.0148, 14.39194
558.4969, 8.624115
558.9791, 3.378357
559.4612, 1.349487
559.9433, 4.899017
560.4254, 9.296783
560.9075, 15.03128
561.3896, 20.35919
561.8718, 23.97192
562.3539, 26.45740
562.8360, 25.72058
563.3181, 19.42352
563.8002, 11.06070
564.2823, 9.797821
564.7645, 17.36346
565.2466, 24.36450
565.7287, 27.43155
566.2108, 27.00772
566.6929, 22.31030
567.1750, 13.14795
567.6572, 7.302490
568.1393, 16.44351
568.6214, 32.82239
569.1035, 39.53748
569.5856, 32.18015
570.0677, 22.57870
570.5499, 20.84286
571.0320, 23.23984
571.5141, 23.84174
571.9962, 16.80322
572.4783, 11.21375
572.9604, 12.99155
573.4426, 20.25879
573.9247, 23.19354
574.4068, 14.62726
574.8889, 6.528198
575.3710, 3.643433
575.8531, 6.996368
576.3353, 10.41190
576.8174, 14.04126
577.2995, 17.15390
577.7816, 19.43027
578.2637, 21.02136
578.7458, 21.60245
579.2280, 21.31046
579.7101, 20.70728
580.1922, 20.56824
580.6743, 20.89334
581.1564, 21.68222
581.6385, 24.01254
582.1207, 26.23312
582.6028, 25.67273
583.0849, 22.64911
583.5670, 19.66705
584.0491, 17.93253
584.5313, 16.88153
585.0134, 16.18347
585.4955, 15.79538
585.9776, 15.71405
586.4597, 15.84268
586.9418, 16.25900
587.4240, 17.21649
587.9061, 21.53052
588.3882, 22.06595
588.8703, 15.78760
589.3524, 5.794800
589.8345, 2.340332
590.3167, 7.527496
590.7988, 11.09940
591.2809, 6.565247
591.7630, 3.534302
592.2451, 4.666840
592.7272, 3.473145
593.2094, 13.11200
593.6915, 19.27286
594.1736, 22.02869
594.6557, 20.85541
595.1378, 14.96805
595.6199, 8.249969
596.1021, 1.355713
596.5842, 3.927063
597.0663, 5.059845
597.5485, 2.291718
598.0306, 10.28372
598.5127, 18.07251
598.9948, 24.86960
599.4769, 27.42416
599.9590, 21.33530
600.4412, 16.29129
600.9233, 16.47733
601.4054, 22.53696
601.8875, 23.01956
602.3696, 16.13898
602.8517, 8.039581
603.3339, 3.632019
603.8160, 2.736481
604.2981, 4.407806
604.7802, 9.144501
605.2623, 14.18546
605.7444, 16.02341
606.2266, 15.17068
606.7087, 13.09750
607.1908, 9.441132
607.6729, 5.296783
608.1550, 0.6394350
608.6371, 3.583496
609.1193, 4.450287
609.6014, 4.339386
610.0835, 12.38815
610.5656, 13.50522
611.0477, 6.041534
611.5298, 1.913940
612.0120, 3.275024
612.4941, 6.324524
612.9762, 8.538666
613.4583, 9.423767
613.9404, 11.68250
614.4225, 16.47797
614.9047, 20.76807
615.3868, 19.43427
615.8689, 12.88318
616.3510, 6.449341
616.8331, 1.074432
617.3152, 2.685822
617.7974, 2.772247
618.2795, 0.1395260
618.7616, 1.812988
619.2437, 1.041901
619.7258, 3.604736
620.2079, 0.8687130
620.6901, 7.227417
621.1722, 13.52444
621.6543, 15.80597
622.1364, 15.27487
622.6185, 11.93777
623.1006, 1.676544
623.5828, 1.801056
624.0649, 5.084778
624.5470, 15.52161
625.0291, 21.95999
625.5112, 24.28238
625.9933, 23.02167
626.4755, 16.82394
626.9576, 9.074341
627.4397, 7.694366
627.9218, 11.90042
628.4039, 15.71280
628.8860, 15.17624
629.3682, 13.08344
629.8503, 13.73941
630.3324, 16.71930
630.8145, 18.69955
631.2966, 15.73215
631.7787, 12.45203
632.2609, 12.75842
632.7430, 18.54178
633.2251, 22.35400
633.7072, 21.11099
634.1893, 18.33133
634.6714, 16.89127
635.1536, 17.23172
635.6357, 18.25769
636.1178, 20.93143
636.5999, 23.15765
637.0820, 19.00864
637.5641, 8.048859
638.0463, 2.703033
638.5284, 10.46051
639.0105, 23.23514
639.4926, 23.57562
639.9747, 13.35300
640.4568, 3.480621
640.9390, 0.9778750
641.4211, 1.105804
641.9032, 4.095673
642.3853, 14.63776
642.8674, 22.16266
643.3495, 21.72318
643.8317, 18.15210
644.3138, 14.52478
644.7959, 9.769287
645.2780, 8.045471
645.7601, 12.02893
646.2422, 16.70096
646.7244, 14.94598
647.2065, 4.714386
647.6886, 0.9559330
648.1707, 1.190002
648.6528, 7.695129
649.1349, 12.67307
649.6171, 15.79114
650.0992, 17.11774
650.5813, 14.94327
651.0634, 12.29102
651.5455, 14.43826
652.0276, 20.39890
652.5098, 24.76270
652.9919, 23.85367
653.4740, 21.07138
653.9561, 17.77521
654.4382, 13.32034
654.9203, 11.49255
655.4025, 15.57214
655.8846, 20.50281
656.3667, 23.33777
656.8488, 24.01556
657.3309, 22.48425
657.8130, 18.10782
658.2952, 12.67596
658.7773, 8.299988
659.2594, 4.973022
659.7415, 3.060028
660.2236, 2.743896
660.7057, 3.733643
661.1879, 6.850433
661.6700, 11.06607
662.1521, 13.46085
662.6342, 12.00146
663.1163, 8.804108
663.5984, 3.163696
664.0806, 4.076935
664.5627, 6.745026
665.0448, 2.028351
665.5269, 10.84259
666.0090, 14.32587
666.4911, 11.20517
666.9733, 10.67288
667.4554, 14.18259
667.9375, 18.12363
668.4196, 19.53894
668.9017, 18.52499
669.3839, 18.07507
669.8660, 18.52502
670.3481, 19.23294
670.8302, 19.06107
671.3123, 18.61600
671.7944, 19.49396
672.2766, 23.88901
672.7587, 26.93933
673.2408, 24.63104
673.7229, 18.81143
674.2050, 13.06683
674.6871, 6.649445
675.1693, 2.171753
675.6514, 1.707581
676.1335, 4.395569
676.6156, 4.439392
677.0977, 0.6909180
677.5798, 2.969452
678.0620, 3.470520
678.5441, 17.13385
679.0262, 23.33810
679.5083, 21.89587
679.9904, 16.85913
680.4725, 8.593536
680.9547, 0.1741330
681.4368, 4.517242
681.9189, 3.368225
682.4010, 0.1016240
682.8831, 5.812958
683.3652, 11.40530
683.8474, 13.41394
684.3295, 7.855896
684.8116, 3.862762
685.2937, 3.181152
685.7758, 4.581573
686.2579, 6.871552
686.7401, 10.82831
687.2222, 13.47556
687.7043, 14.04578
688.1864, 13.19839
688.6685, 11.94135
689.1506, 10.37289
689.6328, 10.16116
690.1149, 14.14523
690.5970, 18.55511
691.0791, 16.24756
691.5612, 8.599060
692.0433, 2.694580
692.5255, 3.005920
693.0076, 5.628052
693.4897, 8.669281
693.9718, 12.06912
694.4539, 14.42313
694.9360, 15.16165
695.4182, 15.16235
695.9003, 14.83847
696.3824, 14.19495
696.8645, 12.77393
697.3466, 9.803497
697.8287, 8.073761
698.3109, 12.32455
698.7930, 21.02469
699.2751, 26.06729
699.7572, 25.63635
700.2393, 22.81018
700.7214, 18.81461
701.2036, 15.06097
701.6857, 13.95316
702.1678, 19.11273
702.6499, 23.83347
703.1320, 24.40509
703.6141, 22.72800
704.0963, 23.82324
704.5784, 32.05191
705.0605, 36.74796
705.5426, 34.74280
706.0247, 27.54648
706.5068, 20.82333
706.9890, 14.23346
707.4711, 10.64709
707.9532, 14.23572
708.4353, 21.34818
708.9174, 21.44882
709.3995, 15.20740
709.8817, 9.102173
710.3638, 6.907013
710.8459, 7.301025
711.3280, 9.810211
711.8101, 14.69336
712.2922, 18.79102
712.7744, 21.77698
713.2565, 23.23834
713.7386, 22.64404
714.2207, 17.95859
714.7028, 16.77783
715.1849, 20.20483
715.6671, 25.20514
716.1492, 29.07333
716.6313, 31.72299
717.1134, 32.13028
717.5955, 29.63031
718.0776, 26.40295
718.5598, 25.19754
719.0419, 25.21738
719.5240, 24.89105
720.0061, 23.02139
720.4882, 21.53909
720.9703, 22.51559
721.4525, 24.91296
721.9346, 26.19440
722.4167, 25.33636
722.8988, 24.61414
723.3809, 24.10370
723.8630, 23.76111
724.3452, 23.39313
724.8273, 22.98215
725.3094, 22.70038
725.7915, 22.95486
726.2736, 23.28418
726.7557, 22.34210
727.2379, 20.24561
727.7200, 17.91949
728.2021, 14.64514
728.6842, 12.32901
729.1663, 13.12878
729.6484, 17.31085
730.1306, 21.13431
730.6127, 23.68210
731.0948, 25.43112
731.5769, 26.70547
732.0590, 27.55899
732.5411, 27.68671
733.0233, 26.93787
733.5054, 25.80365
733.9875, 25.28586
734.4696, 25.46158
734.9517, 22.60547
735.4338, 15.08765
735.9160, 8.507385
736.3981, 8.710938
736.8802, 12.87521
737.3623, 16.99393
737.8444, 20.45862
738.3266, 23.12350
738.8087, 25.24423
739.2908, 25.44000
739.7729, 23.87640
740.2551, 19.34958
740.7372, 15.65903
741.2193, 13.12842
741.7014, 11.75763
742.1835, 11.82556
742.6656, 13.34851
743.1478, 14.91843
743.6299, 15.66751
744.1120, 16.75095
744.5941, 21.44858
745.0762, 28.22501
745.5583, 32.45734
746.0405, 30.82993
746.5226, 26.92874
747.0047, 20.94971
747.4868, 13.64270
747.9689, 10.35757
748.4510, 14.66800
748.9332, 19.57449
749.4153, 23.10065
749.8974, 25.32925
750.3795, 28.20572
750.8616, 32.21527
751.3438, 33.15411
751.8259, 23.77362
752.3080, 10.31021
752.7901, 10.08804
753.2722, 23.08133
753.7543, 34.76187
754.2365, 31.84116
754.7186, 24.40219
755.2007, 21.67844
755.6828, 25.62369
756.1649, 28.32687
756.6470, 28.16232
757.1292, 26.67670
757.6113, 24.66806
758.0934, 22.09393
758.5755, 18.26077
759.0576, 11.93982
759.5397, 8.506989
760.0219, 18.77945
760.5040, 36.69385
760.9861, 40.69461
761.4682, 25.04132
761.9503, 8.564453
762.4324, 7.531799
762.9146, 13.45609
763.3967, 16.13333
763.8788, 9.196472
764.3609, 5.309509
764.8430, 9.124237
765.3251, 15.55936
765.8073, 18.80817
766.2894, 17.86533
766.7715, 17.77518
767.2536, 19.51639
767.7357, 21.83878
768.2178, 23.55762
768.7000, 24.57092
769.1821, 22.55786
769.6642, 13.55295
770.1463, 4.958191
770.6284, 4.453583
771.1105, 9.160950
771.5927, 13.51544
772.0748, 14.40594
772.5569, 16.49500
773.0390, 23.12292
773.5211, 31.27078
774.0032, 32.06827
774.4854, 22.86057
774.9675, 16.73566
775.4496, 19.66733
775.9317, 26.37735
776.4138, 20.95642
776.8959, 5.983490
777.3781, 4.804626
777.8602, 0.3352970
778.3423, 8.274811
778.8244, 12.45569
779.3065, 12.81015
779.7886, 12.44977
780.2708, 11.48837
780.7529, 10.80020
781.2350, 10.27673
781.7171, 10.08493
782.1992, 12.36584
782.6813, 17.96936
783.1635, 22.62387
783.6456, 24.68542
784.1277, 24.03079
784.6098, 17.95273
785.0919, 7.310577
785.5740, 0.2754210
786.0562, 4.333679
786.5383, 12.57932
787.0204, 20.80023
787.5025, 28.65329
787.9846, 32.43356
788.4667, 26.37848
788.9489, 20.82236
789.4310, 21.48993
789.9131, 29.12671
790.3952, 27.41608
790.8773, 14.45352
791.3594, 1.096710
791.8416, 6.014832
792.3237, 7.015930
792.8058, 0.8002620
793.2879, 17.39307
793.7700, 30.41290
794.2521, 30.62683
794.7343, 24.13309
795.2164, 13.66199
795.6985, 3.227814
796.1806, 10.64725
796.6627, 0.9804690
797.1448, 11.44254
797.6270, 17.33539
798.1091, 15.74237
798.5912, 15.53174
799.0733, 17.07660
799.5554, 18.29688
800.0375, 16.35318
800.5197, 12.86551
801.0018, 10.63031
801.4839, 9.958984
801.9660, 11.31961
802.4481, 19.89648
802.9302, 27.59799
803.4124, 26.66376
803.8945, 8.658936
804.3766, 1.234467
804.8587, 0.4024350
805.3408, 5.125488
805.8229, 11.20007
806.3051, 17.81293
806.7872, 20.48563
807.2693, 18.44684
807.7514, 14.85001
808.2335, 12.50143
808.7156, 10.86835
809.1978, 9.353485
809.6799, 8.197235
810.1620, 5.912018
810.6441, 3.575531
811.1262, 11.32230
811.6083, 7.610931
812.0905, 16.71375
812.5726, 31.34244
813.0547, 33.96606
813.5368, 29.94397
814.0189, 23.59943
814.5010, 15.54727
814.9832, 9.456146
815.4653, 6.079468
815.9474, 4.102448
816.4295, 2.354797
816.9116, 1.239227
817.3937, 1.337494
817.8759, 3.374176
818.3580, 5.483093
818.8401, 6.456818
819.3222, 7.882416
819.8043, 12.10953
820.2864, 20.70212
820.7686, 24.23489
821.2507, 20.80353
821.7328, 15.33832
822.2149, 14.22437
822.6970, 16.64404
823.1791, 18.89252
823.6613, 21.62558
824.1434, 22.62714
824.6255, 19.95612
825.1076, 14.93912
825.5897, 9.087158
826.0718, 2.717773
826.5540, 7.246246
827.0361, 2.468048
827.5182, 7.160736
828.0003, 18.03323
828.4824, 30.00519
828.9645, 37.69888
829.4467, 40.07822
829.9288, 38.79965
830.4109, 33.29984
830.8930, 26.18854
831.3751, 21.41080
831.8572, 20.29843
832.3394, 20.99603
832.8215, 24.70868
833.3036, 28.92822
833.7857, 30.87799
834.2678, 29.78995
834.7499, 28.53763
835.2321, 26.90103
835.7142, 25.64185
836.1963, 25.61407
836.6784, 26.03812
837.1605, 23.20044
837.6426, 15.30414
838.1248, 9.227509
838.6069, 12.19080
839.0890, 19.00674
839.5711, 23.94141
840.0532, 24.31915
840.5353, 25.64963
841.0175, 29.42010
841.4996, 33.08731
841.9817, 34.10867
842.4638, 32.54428
842.9459, 28.63043
843.4280, 21.79977
843.9102, 16.15350
844.3923, 16.59427
844.8744, 21.05121
845.3565, 27.44415
845.8386, 37.39789
846.3207, 41.62488
846.8029, 27.98135
847.2850, 12.38983
847.7671, 9.882660
848.2492, 29.59100
848.7313, 36.93707
849.2134, 28.70627
849.6956, 15.71884
850.1777, 8.397888
850.6598, 6.466431
851.1419, 7.441406
851.6240, 11.39420
852.1061, 14.83511
852.5883, 13.82477
853.0704, 11.88055
853.5525, 12.57413
854.0346, 18.48517
854.5167, 20.58209
854.9988, 15.25769
855.4810, 8.871490
855.9631, 5.973175
856.4452, 6.608765
856.9273, 7.923645
857.4094, 9.930176
857.8915, 11.46869
858.3737, 9.846069
858.8558, 7.978363
859.3379, 11.02011
859.8200, 20.07556
860.3021, 25.57336
860.7842, 21.21713
861.2664, 14.36780
861.7485, 8.489105
862.2306, 3.056244
862.7127, 2.357269
863.1948, 7.214020
863.6769, 13.44339
864.1591, 19.90891
864.6412, 25.22556
865.1233, 25.06433
865.6054, 19.74945
866.0875, 15.09799
866.5696, 15.31638
867.0518, 16.57983
867.5339, 16.53427
868.0160, 14.93665
868.4981, 13.76892
868.9802, 13.17688
869.4623, 12.98685
869.9445, 13.21661
870.4266, 13.26999
870.9087, 12.67291
871.3908, 11.58630
871.8729, 11.73019
872.3550, 15.32379
872.8372, 19.63437
873.3193, 23.75668
873.8014, 27.03674
874.2835, 26.10031
874.7656, 13.97897
875.2477, 5.040039
875.7299, 3.503357
876.2120, 7.749817
876.6941, 12.34573
877.1762, 17.27423
877.6583, 21.11984
878.1404, 24.63538
878.6226, 25.44269
879.1047, 14.95453
879.5869, 1.421387
880.0690, 9.356689
880.5511, 5.983215
881.0332, 19.61810
881.5153, 23.70486
881.9974, 21.57019
882.4796, 19.33133
882.9617, 16.86835
883.4438, 15.12689
883.9259, 14.36539
884.4080, 13.42590
884.8901, 10.11212
885.3723, 5.786621
885.8544, 3.347717
886.3365, 4.881073
886.8186, 6.945068
887.3007, 8.623688
887.7828, 9.679932
888.2650, 9.616211
888.7471, 7.421753
889.2292, 7.270233
889.7113, 10.47708
890.1934, 13.97733
890.6755, 10.61453
891.1577, 3.336273
891.6398, 3.140411
892.1219, 13.68173
892.6040, 23.94708
893.0861, 27.03198
893.5682, 25.60022
894.0504, 21.65482
894.5325, 13.75436
895.0146, 7.550629
895.4967, 2.755127
895.9788, 0.1904300
896.4609, 1.303558
896.9431, 5.528839
897.4252, 10.40646
897.9073, 15.83658
898.3894, 18.23758
898.8715, 11.23285
899.3536, 2.722229
899.8358, 1.123016
900.3179, 0.4405820
900.8000, 6.314362
901.2821, 21.15991
901.7642, 32.86029
902.2463, 35.11938
902.7285, 29.20010
903.2106, 24.36411
903.6927, 20.63031
904.1748, 17.86218
904.6569, 16.21686
905.1390, 15.55469
905.6212, 15.02756
906.1033, 14.75250
906.5854, 14.98523
907.0675, 16.33078
907.5496, 17.55930
908.0317, 18.53201
908.5139, 19.12701
908.9960, 18.65527
909.4781, 17.11179
909.9602, 16.30319
910.4423, 17.30930
910.9244, 18.63300
911.4066, 18.24524
911.8887, 16.90573
912.3708, 16.00125
912.8529, 17.68393
913.3350, 17.57019
913.8171, 13.25186
914.2993, 7.998535
914.7814, 6.260620
915.2635, 8.260986
915.7456, 10.91391
916.2277, 13.78186
916.7098, 17.24844
917.1920, 23.79153
917.6741, 30.40012
918.1562, 31.89481
918.6383, 25.53061
919.1204, 20.19098
919.6025, 19.30646
920.0847, 19.75504
920.5668, 19.79477
921.0489, 19.59482
921.5310, 17.70505
922.0131, 13.99606
922.4952, 9.706512
922.9774, 4.419373
923.4595, 0.1149900
923.9416, 0.8158870
924.4237, 2.305878
924.9058, 6.159943
925.3879, 10.98056
925.8701, 14.72827
926.3522, 16.11890
926.8343, 15.59583
927.3164, 17.35605
927.7985, 21.88779
928.2806, 24.13025
928.7628, 19.96725
929.2449, 13.86243
929.7270, 12.93985
930.2091, 15.85834
930.6912, 18.96066
931.1733, 22.41406
931.6555, 24.16321
932.1376, 22.64639
932.6197, 19.17993
933.1018, 15.61383
933.5839, 11.82251
934.0660, 8.772095
934.5482, 6.776459
935.0303, 5.047577
935.5124, 1.141632
935.9945, 2.849304
936.4766, 2.751129
936.9587, 4.302368
937.4409, 9.988068
937.9230, 10.58142
938.4051, 10.10788
938.8872, 10.04779
939.3693, 10.47351
939.8514, 11.01025
940.3336, 11.71786
940.8157, 12.04639
941.2978, 10.73593
941.7799, 9.161621
942.2620, 9.296692
942.7441, 11.22467
943.2263, 14.09808
943.7084, 18.12787
944.1905, 22.59607
944.6726, 28.80099
945.1547, 35.47217
945.6368, 33.35535
946.1190, 21.92532
946.6011, 10.08707
947.0832, 0.5606990
947.5653, 5.867889
948.0474, 7.762695
948.5295, 5.885620
949.0117, 2.006531
949.4938, 6.222595
949.9759, 12.58191
950.4580, 15.51440
950.9401, 16.40329
951.4222, 17.07224
951.9044, 17.52087
952.3865, 17.94302
952.8686, 18.36520
953.3507, 18.78738
953.8328, 19.11487
954.3149, 19.49225
954.7971, 20.47528
955.2792, 23.00711
955.7613, 22.54364
956.2434, 14.80609
956.7255, 8.329895
957.2076, 9.344116
957.6898, 17.46014
958.1719, 22.05753
958.6540, 23.12161
959.1361, 21.79395
959.6182, 16.62320
960.1003, 11.19894
960.5825, 9.872009
961.0646, 11.73969
961.5467, 10.68463
962.0288, 1.261566
962.5109, 4.241119
962.9930, 1.416962
963.4752, 5.865906
963.9573, 6.954102
964.4394, 3.018127
964.9215, 2.923645
965.4036, 12.03433
965.8857, 20.89069
966.3679, 20.75327
966.8500, 16.27167
967.3321, 13.54336
967.8142, 14.95813
968.2963, 15.30740
968.7784, 14.09674
969.2606, 12.77072
969.7427, 13.82260
970.2248, 16.02194
970.7069, 13.48752
971.1890, 5.875061
971.6711, 0.7563780
972.1533, 6.636108
972.6354, 13.79343
973.1175, 15.35391
973.5996, 11.17026
974.0817, 7.290619
974.5638, 3.219727
975.0460, 1.322540
975.5281, 3.319702
976.0102, 7.413300
976.4923, 10.94867
976.9744, 13.41836
977.4565, 13.33368
977.9387, 6.818665
978.4208, 1.415131
978.9029, 0.6169430
979.3850, 2.056641
979.8671, 2.371765
980.3492, 1.060547
980.8314, 1.940918
981.3135, 5.831299
981.7956, 10.01987
982.2777, 10.65564
982.7598, 10.23795
983.2419, 13.31723
983.7241, 21.27454
984.2062, 26.51834
984.6883, 24.41251
985.1704, 21.44821
985.6525, 20.84149
986.1346, 22.14407
986.6168, 20.30756
987.0989, 15.40552
987.5810, 9.748779
988.0631, 2.606812
988.5452, 2.969513
989.0273, 4.198273
989.5095, 1.549652
989.9916, 4.022308
990.4737, 17.55240
990.9558, 25.43918
991.4379, 24.52505
991.9200, 19.48059
992.4022, 16.76517
992.8843, 16.51355
993.3664, 17.90131
993.8485, 20.55688
994.3306, 22.65558
994.8127, 24.05963
995.2949, 23.98608
995.7770, 20.25720
996.2591, 11.49078
996.7412, 10.43546
997.2233, 19.39923
997.7054, 27.77676
998.1876, 26.99005
998.6697, 21.69037
999.1518, 23.59552
999.6339, 30.47226
1000.116, 33.43896
1000.598, 22.97409
1001.080, 14.39609
1001.562, 15.30869
1002.044, 20.31293
1002.527, 18.70935
1003.009, 9.771576
1003.491, 5.108307
1003.973, 7.259033
1004.455, 12.54987
1004.937, 19.04846
1005.419, 24.87030
1005.901, 28.57828
1006.384, 30.49579
1006.866, 28.50827
1007.348, 19.32883
1007.830, 10.76822
1008.312, 7.457520
1008.794, 8.645752
1009.276, 10.46729
1009.758, 12.80423
1010.240, 14.74161
1010.723, 15.83398
1011.205, 16.27087
1011.687, 15.88031
1012.169, 14.93607
1012.651, 13.90305
1013.133, 11.79147
1013.615, 13.38348
1014.097, 21.02603
1014.580, 28.22995
1015.062, 23.43680
1015.544, 12.37860
1016.026, 6.302002
1016.508, 8.066437
1016.990, 10.34805
1017.472, 9.999481
1017.954, 9.709534
1018.436, 10.44806
1018.919, 12.36722
1019.401, 16.43384
1019.883, 22.66196
1020.365, 24.45673
1020.847, 11.84753
1021.329, 0.9441830
1021.811, 3.878174
1022.293, 19.39334
1022.776, 28.48761
1023.258, 22.78772
1023.740, 19.07144
1024.222, 19.69388
1024.704, 21.58304
1025.186, 20.23788
1025.668, 16.59372
1026.150, 13.44495
1026.632, 11.05179
1027.115, 10.76855
1027.597, 17.31329
1028.079, 22.89267
1028.561, 20.43301
1029.043, 10.50803
1029.525, 7.956207
1030.007, 13.71402
1030.489, 19.51950
1030.972, 21.65900
1031.454, 21.67175
1031.936, 21.05447
1032.418, 20.09000
1032.900, 19.39053
1033.382, 17.01355
1033.864, 18.50989
1034.346, 27.16684
1034.828, 36.01602
1035.311, 36.04410
1035.793, 28.68414
1036.275, 23.06824
1036.757, 19.94836
1037.239, 18.46521
1037.721, 18.59570
1038.203, 19.80557
1038.685, 21.67990
1039.167, 24.26535
1039.650, 29.13736
1040.132, 37.80429
1040.614, 41.95847
1041.096, 38.03195
1041.578, 30.70114
1042.060, 26.55219
1042.542, 24.71973
1043.024, 23.68869
1043.507, 24.04532
1043.989, 23.03311
1044.471, 18.41016
1044.953, 14.28348
1045.435, 14.85046
1045.917, 19.52652
1046.399, 19.18118
1046.881, 14.07330
1047.364, 10.71692
1047.846, 17.14377
1048.328, 23.04797
1048.810, 20.57120
1049.292, 11.22449
1049.774, 2.845154
1050.256, 5.328186
1050.738, 9.581787
1051.220, 9.064850
1051.703, 4.660278
1052.185, 5.966003
1052.667, 18.49225
1053.149, 24.95819
1053.631, 22.51630
1054.113, 17.52783
1054.595, 5.356323
1055.077, 1.013519
1055.559, 9.281677
1056.042, 31.95160
1056.524, 35.13046
1057.006, 21.06891
1057.488, 8.180542
1057.970, 6.263092
1058.452, 8.919891
1058.934, 13.92310
1059.416, 20.27664
1059.899, 26.87607
1060.381, 36.18640
1060.863, 35.45746
1061.345, 21.54437
1061.827, 6.483459
1062.309, 1.936768
1062.791, 4.482819
1063.273, 11.18542
1063.755, 21.52026
1064.238, 27.81363
1064.720, 25.01657
1065.202, 21.64282
1065.684, 20.01819
1066.166, 19.57639
1066.648, 18.29669
1067.130, 16.67200
1067.612, 17.22086
1068.094, 22.00647
1068.577, 26.10428
1069.059, 26.01218
1069.541, 24.16245
1070.023, 23.27472
1070.505, 24.03610
1070.987, 20.60342
1071.469, 12.17499
1071.951, 6.910919
1072.434, 15.07935
1072.916, 26.09543
1073.398, 27.21814
1073.880, 20.35623
1074.362, 12.77991
1074.844, 1.127441
1075.326, 2.249268
1075.808, 7.118042
1076.291, 20.04141
1076.773, 23.69995
1077.255, 20.42975
1077.737, 15.24252
1078.219, 8.602386
1078.701, 6.272522
1079.183, 17.46509
1079.665, 27.32040
1080.147, 27.16922
1080.630, 19.15063
1081.112, 16.98517
1081.594, 20.39972
1082.076, 20.50674
1082.558, 11.46194
1083.040, 2.669220
1083.522, 4.113373
1084.004, 10.21597
1084.486, 13.36163
1084.969, 11.23740
1085.451, 10.94653
1085.933, 13.24243
1086.415, 14.63882
1086.897, 10.31647
1087.379, 4.499573
1087.861, 5.686462
1088.343, 12.41919
1088.826, 17.90189
1089.308, 19.34692
1089.790, 19.61893
1090.272, 19.29364
1090.754, 18.04736
1091.236, 13.88361
1091.718, 8.077393
1092.200, 8.052338
1092.682, 15.49802
1093.165, 20.10681
1093.647, 9.655762
1094.129, 0.3384700
1094.611, 2.016266
1095.093, 14.25406
1095.575, 18.11743
1096.057, 13.31113
1096.539, 6.823517
1097.022, 0.8081970
1097.504, 4.770355
1097.986, 4.344879
1098.468, 18.41907
1098.950, 26.09164
1099.432, 23.96759
1099.914, 18.81393
1100.396, 8.725250
1100.879, 2.040863
1101.361, 9.253143
1101.843, 22.01697
1102.325, 22.90350
1102.807, 14.15317
1103.289, 8.035645
1103.771, 12.10956
1104.253, 14.77301
1104.735, 12.71988
1105.218, 10.05392
1105.700, 14.54596
1106.182, 23.87396
1106.664, 25.66748
1107.146, 18.47897
1107.628, 11.18723
1108.110, 9.364502
1108.592, 8.169739
1109.074, 4.918152
1109.557, 0.5362550
1110.039, 3.075043
1110.521, 6.315308
1111.003, 2.659729
1111.485, 12.14237
1111.967, 25.96524
1112.449, 24.17270
1112.931, 16.55185
1113.414, 14.78500
1113.896, 21.84756
1114.378, 22.25916
1114.860, 14.11011
1115.342, 7.697845
1115.824, 10.13947
1116.306, 16.70547
1116.788, 22.52084
1117.271, 26.22415
1117.753, 24.80780
1118.235, 7.744019
1118.717, 0.6436770
1119.199, 8.583740
1119.681, 19.84918
1120.163, 21.70291
1120.645, 17.72852
1121.127, 20.00937
1121.609, 28.09851
1122.092, 32.40411
1122.574, 23.28525
1123.056, 15.39920
1123.538, 13.69186
1124.020, 15.93250
1124.502, 18.75388
1124.984, 21.85367
1125.466, 22.18591
1125.949, 18.88959
1126.431, 15.52710
1126.913, 14.71381
1127.395, 14.64386
1127.877, 13.19171
1128.359, 10.88892
1128.841, 14.56656
1129.323, 24.85202
1129.806, 29.29758
1130.288, 21.05365
1130.770, 10.22617
1131.252, 4.635315
1131.734, 3.815948
1132.216, 8.599823
1132.698, 22.74445
1133.180, 27.28131
1133.662, 20.63785
1134.145, 12.52637
1134.627, 7.484375
1135.109, 5.981384
1135.591, 12.57587
1136.073, 23.16565
1136.555, 27.18869
1137.037, 14.43512
1137.519, 5.631348
1138.001, 2.493469
1138.484, 2.480652
1138.966, 3.703247
1139.448, 5.859070
1139.930, 8.854279
1140.412, 12.70734
1140.894, 14.68164
1141.376, 12.93323
1141.858, 9.918182
1142.341, 5.361511
1142.823, 0.8746950
1143.305, 0.4120180
1143.787, 1.101013
1144.269, 2.707336
1144.751, 4.012634
1145.233, 6.830811
1145.715, 15.64890
1146.198, 22.69568
1146.680, 23.29788
1147.162, 18.85526
1147.644, 14.99203
1148.126, 11.84390
1148.608, 12.01303
1149.090, 18.39447
1149.572, 22.68542
1150.054, 14.33539
1150.536, 3.978729
1151.019, 2.878784
1151.501, 12.19940
1151.983, 15.50421
1152.465, 12.70184
1152.947, 9.599426
1153.429, 9.305664
1153.911, 10.19153
1154.393, 10.69989
1154.876, 11.23865
1155.358, 12.75211
1155.840, 17.14188
1156.322, 19.40985
1156.804, 18.82852
1157.286, 18.12668
1157.768, 22.48224
1158.250, 26.01218
1158.733, 17.15082
1159.215, 0.4171750
1159.697, 6.007599
1160.179, 8.048004
1160.661, 15.04321
1161.143, 10.03598
1161.625, 2.384705
1162.107, 3.428650
1162.589, 8.958649
1163.072, 12.58615
1163.554, 13.74313
1164.036, 12.57343
1164.518, 5.207733
1165.000, 2.662476
1165.482, 9.609039
1165.964, 19.39453
1166.446, 19.48465
1166.928, 13.11615
1167.411, 6.576508
1167.893, 0.3186950
1168.375, 2.251129
1168.857, 5.506470
1169.339, 10.85876
1169.821, 7.219910
1170.303, 1.226349
1170.785, 2.077698
1171.268, 2.805298
1171.750, 7.348022
1172.232, 9.515717
1172.714, 11.38217
1173.196, 14.90765
1173.678, 17.12329
1174.160, 15.79636
1174.642, 11.47940
1175.125, 7.056580
1175.607, 2.830688
1176.089, 0.7103880
1176.571, 3.300903
1177.053, 5.884827
1177.535, 5.035309
1178.017, 4.292389
1178.499, 7.926910
1178.981, 15.86472
1179.464, 18.43982
1179.946, 15.87338
1180.428, 13.25208
1180.910, 14.97012
1181.392, 16.19431
1181.874, 12.03162
1182.356, 6.922363
1182.838, 8.522583
1183.320, 17.16537
1183.803, 23.40308
1184.285, 26.53195
1184.767, 26.03461
1185.249, 16.75378
1185.731, 8.300171
1186.213, 9.757568
1186.695, 17.06192
1187.177, 17.72739
1187.660, 11.09073
1188.142, 8.406799
1188.624, 11.85095
1189.106, 16.70032
1189.588, 18.53162
1190.070, 20.24582
1190.552, 26.20068
1191.034, 34.95996
1191.516, 35.06091
1191.999, 25.29752
1192.481, 18.60840
1192.963, 18.93903
1193.445, 20.50363
1193.927, 16.58441
1194.409, 11.61249
1194.891, 10.90472
1195.373, 14.88925
1195.855, 15.77695
1196.338, 12.69852
1196.820, 7.957092
1197.302, 1.051392
1197.784, 4.460663
1198.266, 3.481750
1198.748, 0.6011050
1199.230, 3.938232
1199.712, 6.322357
1200.195, 5.311798
1200.677, 4.7118999E-02
1201.159, 1.923920
1201.641, 6.552094
1202.123, 17.37918
1202.605, 22.12329
1203.087, 22.64618
1203.569, 21.76767
1204.052, 18.49451
1204.534, 19.00769
1205.016, 24.34573
1205.498, 27.26886
1205.980, 19.47067
1206.462, 9.257874
1206.944, 6.749207
1207.426, 9.147614
1207.908, 9.876038
1208.391, 6.908234
1208.873, 6.291534
1209.355, 8.527435
1209.837, 11.75076
1210.319, 15.07739
1210.801, 17.96277
1211.283, 21.22845
1211.765, 23.53091
1212.247, 19.25513
1212.730, 4.384399
1213.212, 4.477966
1213.694, 5.144501
1214.176, 1.783142
1214.658, 3.278931
1215.140, 8.894348
1215.622, 14.06342
1216.104, 18.64697
1216.587, 22.41632
1217.069, 26.24612
1217.551, 25.54645
1218.033, 19.65054
1218.515, 12.82785
1218.997, 8.802917
1219.479, 7.715271
1219.961, 12.10699
1220.443, 21.12308
1220.926, 22.09103
1221.408, 11.85901
1221.890, 4.845978
1222.372, 4.845520
1222.854, 7.574341
1223.336, 8.506744
1223.818, 8.880554
1224.300, 10.90466
1224.782, 14.84915
1225.265, 15.21674
1225.747, 10.90634
1226.229, 8.225983
1226.711, 9.708771
1227.193, 12.96915
1227.675, 16.85330
1228.157, 19.97510
1228.639, 20.43402
1229.122, 17.96292
1229.604, 15.51657
1230.086, 12.89935
1230.568, 11.74176
1231.050, 13.38681
1231.532, 15.19574
1232.014, 13.08859
1232.496, 9.941711
1232.979, 9.808777
1233.461, 13.55249
1233.943, 14.36298
1234.425, 11.73816
1234.907, 11.36560
1235.389, 18.74316
1235.871, 25.13757
1236.353, 18.68515
1236.835, 7.905487
1237.318, 4.018890
1237.800, 7.681580
1238.282, 17.56943
1238.764, 34.27972
1239.246, 43.09741
1239.728, 28.77667
1240.210, 11.98843
1240.692, 11.05377
1241.175, 17.89511
1241.657, 21.72836
1242.139, 22.13562
1242.621, 19.64926
1243.103, 14.20877
1243.585, 9.835754
1244.067, 9.435181
1244.549, 10.36273
1245.031, 11.29907
1245.514, 11.59692
1245.996, 11.93167
1246.478, 11.31873
1246.960, 17.38712
1247.442, 30.02734
1247.924, 36.12778
1248.406, 17.60300
1248.888, 0.9342960
1249.370, 5.686218
1249.853, 18.15533
1250.335, 19.27759
1250.817, 9.587006
1251.299, 7.716797
1251.781, 13.77573
1252.263, 17.13327
1252.745, 3.949097
1253.227, 5.555725
1253.710, 4.312134
1254.192, 20.28696
1254.674, 26.60989
1255.156, 24.41635
1255.638, 20.55780
1256.120, 15.77917
1256.602, 13.10095
1257.084, 16.89172
1257.567, 19.57697
1258.049, 18.37140
1258.531, 15.44211
1259.013, 12.51834
1259.495, 10.45853
1259.977, 13.52307
1260.459, 21.50009
1260.941, 28.59039
1261.423, 34.06195
1261.906, 35.21616
1262.388, 30.88638
1262.870, 23.26672
1263.352, 11.32959
1263.834, 0.1525270
1264.316, 4.281067
1264.798, 24.05136
1265.280, 35.04767
1265.762, 22.94705
1266.245, 12.44025
1266.727, 7.078735
1267.209, 6.607178
1267.691, 13.97754
1268.173, 24.41733
1268.655, 29.93051
1269.137, 30.06616
1269.619, 29.66092
1270.102, 30.35959
1270.584, 27.44766
1271.066, 18.66116
1271.548, 10.39691
1272.030, 13.35620
1272.512, 19.79764
1272.994, 18.39655
1273.476, 10.95874
1273.958, 9.868439
1274.441, 17.63660
1274.923, 20.02103
1275.405, 12.49448
1275.887, 5.260864
1276.369, 12.73322
1276.851, 22.68497
1277.333, 21.48428
1277.815, 11.09982
1278.297, 8.447693
1278.780, 14.16241
1279.262, 15.29016
1279.744, 8.131409
1280.226, 0.7947390
1280.708, 1.421631
1281.190, 8.7615997E-02
1281.672, 4.801422
1282.154, 11.94064
1282.637, 17.96387
1283.119, 22.64059
1283.601, 22.15204
1284.083, 14.85248
1284.565, 8.873993
1285.047, 9.186951
1285.529, 12.53189
1286.011, 19.19803
1286.494, 25.91028
1286.976, 19.04892
1287.458, 5.035339
1287.940, 1.476624
1288.422, 13.57831
1288.904, 23.59766
1289.386, 25.94769
1289.868, 22.82040
1290.350, 11.90921
1290.833, 0.1434330
1291.315, 1.265533
1291.797, 5.931915
1292.279, 0.0000000E+00
##END=



