##NAMES=Coloradoite
##RRUFFID=R070326
##IDEAL CHEMISTRY=Hg^2+^Te^2-^
##LOCALITY=Herald Mine, Sugarloaf, Boulder County, Colorado, USA
##OWNER=RRUFF
##SOURCE=Michael Scott
##DESCRIPTION=Grey metallic massive on quartz
##STATUS=The identification of this mineral is not yet confirmed.
##URL=rruff.info/R070326
133.7520, 0.0000000E+00
134.2341, 0.9424440
134.7162, 5.664307
135.1983, 18.69379
135.6804, 31.99109
136.1626, 44.08954
136.6447, 54.83289
137.1268, 62.70813
137.6089, 65.05823
138.0910, 72.05963
138.5731, 91.24384
139.0553, 127.0494
139.5374, 154.5221
140.0195, 170.6332
140.5016, 177.4159
140.9837, 181.9370
141.4658, 184.1365
141.9480, 184.1551
142.4301, 181.2964
142.9122, 172.4645
143.3943, 167.5283
143.8764, 170.1340
144.3585, 179.9443
144.8407, 182.1679
145.3228, 174.3311
145.8049, 160.7028
146.2870, 144.5355
146.7691, 118.2605
147.2512, 99.63885
147.7334, 95.16455
148.2155, 109.9478
148.6976, 115.5737
149.1797, 102.8065
149.6618, 83.51459
150.1439, 73.44458
150.6261, 84.10162
151.1082, 93.71619
151.5903, 95.88495
152.0724, 85.34625
152.5545, 78.82935
153.0366, 78.37769
153.5188, 82.74481
154.0009, 89.45221
154.4830, 102.5399
154.9651, 114.7029
155.4472, 122.9965
155.9293, 127.5433
156.4115, 127.4550
156.8936, 119.5486
157.3757, 106.0499
157.8578, 94.76459
158.3399, 87.74677
158.8221, 83.78705
159.3042, 82.03033
159.7863, 84.64337
160.2684, 87.17474
160.7505, 87.43030
161.2326, 85.78992
161.7148, 85.39374
162.1969, 91.37115
162.6790, 97.76831
163.1611, 98.78827
163.6432, 87.15393
164.1253, 73.99353
164.6075, 64.80347
165.0896, 59.79999
165.5717, 57.60150
166.0538, 56.80536
166.5359, 56.87543
167.0180, 56.43683
167.5002, 53.80414
167.9823, 51.07782
168.4644, 49.75806
168.9465, 49.98529
169.4286, 51.42804
169.9107, 54.54022
170.3929, 58.71362
170.8750, 62.74231
171.3571, 66.46735
171.8392, 69.49152
172.3213, 71.22321
172.8034, 71.37158
173.2856, 71.40491
173.7677, 72.66449
174.2498, 73.81512
174.7319, 72.95062
175.2140, 67.90448
175.6961, 58.33527
176.1783, 49.02429
176.6604, 39.52869
177.1425, 32.67175
177.6246, 34.21570
178.1067, 42.95917
178.5888, 51.42804
179.0710, 54.05310
179.5531, 51.75012
180.0352, 47.89868
180.5173, 44.04486
180.9994, 41.06372
181.4815, 41.26044
181.9637, 44.64368
182.4458, 46.76807
182.9279, 41.41284
183.4100, 31.26965
183.8921, 26.61340
184.3742, 32.84222
184.8564, 45.34241
185.3385, 54.59082
185.8206, 61.15155
186.3027, 64.50934
186.7848, 59.11255
187.2669, 44.78522
187.7491, 34.15631
188.2312, 32.89917
188.7133, 38.66040
189.1954, 43.49567
189.6775, 47.75134
190.1596, 49.34351
190.6418, 43.91559
191.1239, 31.68506
191.6060, 19.78973
192.0881, 12.31531
192.5702, 9.062805
193.0524, 7.939026
193.5345, 9.279602
194.0166, 11.99768
194.4987, 16.01776
194.9808, 21.76019
195.4629, 23.45239
195.9451, 15.41455
196.4272, 1.994751
196.9093, 11.24463
197.3914, 11.10974
197.8735, 5.192200
198.3556, 2.084595
198.8378, 12.73254
199.3199, 20.99744
199.8020, 22.88995
200.2841, 17.99890
200.7662, 12.70605
201.2483, 6.519348
201.7305, 0.9670410
202.2126, 0.4487920
202.6947, 6.020142
203.1768, 12.93109
203.6589, 19.42548
204.1410, 26.00049
204.6232, 27.13171
205.1053, 20.44659
205.5874, 8.932617
206.0695, 2.757019
206.5516, 3.160461
207.0337, 5.644470
207.5159, 7.679749
207.9980, 8.999451
208.4801, 9.390991
208.9622, 8.493774
209.4443, 6.806641
209.9264, 7.424194
210.4086, 11.95728
210.8907, 15.55640
211.3728, 13.54388
211.8549, 3.522034
212.3370, 4.018127
212.8191, 7.576843
213.3013, 7.350891
213.7834, 4.311157
214.2655, 4.090759
214.7476, 11.21130
215.2297, 9.628479
215.7118, 5.883972
216.1940, 15.35980
216.6761, 13.45422
217.1582, 0.8271480
217.6403, 8.111084
218.1224, 12.97430
218.6045, 14.44800
219.0867, 12.79883
219.5688, 6.179932
220.0509, 1.426941
220.5330, 0.6622920
221.0151, 3.982178
221.4972, 5.792664
221.9794, 6.164673
222.4615, 4.972290
222.9436, 1.891907
223.4257, 5.344788
223.9078, 11.10248
224.3899, 13.80817
224.8721, 13.35730
225.3542, 10.27124
225.8363, 3.276733
226.3184, 5.222900
226.8005, 13.08386
227.2827, 21.81793
227.7648, 25.94708
228.2469, 22.57489
228.7290, 10.19141
229.2111, 2.232849
229.6932, 3.0029001E-02
230.1754, 1.208984
230.6575, 3.242798
231.1396, 6.398743
231.6217, 9.828552
232.1038, 13.97546
232.5859, 19.69885
233.0681, 21.02148
233.5502, 14.99689
234.0323, 6.734863
234.5144, 4.185730
234.9965, 11.02081
235.4786, 16.69958
235.9608, 18.18097
236.4429, 14.76575
236.9250, 10.37897
237.4071, 4.178650
237.8892, 2.428772
238.3713, 7.437317
238.8535, 11.47791
239.3356, 12.75378
239.8177, 9.889282
240.2998, 1.147949
240.7819, 4.367676
241.2640, 4.842712
241.7462, 3.323669
242.2283, 5.468750
242.7104, 14.57837
243.1925, 21.82208
243.6746, 23.53125
244.1567, 17.14392
244.6389, 14.10266
245.1210, 15.82538
245.6031, 20.04987
246.0852, 22.68176
246.5673, 22.54596
247.0494, 22.86810
247.5316, 25.66382
248.0137, 33.38910
248.4958, 34.69037
248.9779, 26.03253
249.4600, 13.38257
249.9421, 7.819763
250.4243, 12.38556
250.9064, 16.62781
251.3885, 16.31519
251.8706, 9.219055
252.3527, 5.372803
252.8348, 7.045532
253.3170, 10.56964
253.7991, 7.549683
254.2812, 8.083862
254.7633, 18.74780
255.2454, 15.18024
255.7275, 9.247498
256.2097, 23.21637
256.6918, 22.31628
257.1739, 13.71228
257.6560, 11.16718
258.1381, 18.15137
258.6202, 24.01385
259.1024, 24.08160
259.5845, 16.37372
260.0666, 11.06244
260.5487, 8.360962
261.0308, 7.916138
261.5129, 9.417603
261.9951, 13.48889
262.4772, 17.56213
262.9593, 21.07233
263.4414, 24.59601
263.9235, 24.02502
264.4056, 16.27582
264.8878, 7.255432
265.3699, 8.969238
265.8520, 26.04364
266.3341, 40.67755
266.8162, 44.90424
267.2983, 36.60284
267.7805, 31.45447
268.2626, 30.44177
268.7447, 31.55450
269.2268, 30.80939
269.7089, 27.11041
270.1910, 25.42267
270.6732, 29.26044
271.1553, 39.96869
271.6374, 44.60742
272.1195, 41.05237
272.6016, 33.84900
273.0837, 31.15265
273.5659, 34.07953
274.0480, 34.23297
274.5301, 26.55096
275.0122, 10.94128
275.4943, 4.528442
275.9764, 9.242126
276.4586, 19.41168
276.9407, 27.64337
277.4228, 33.93018
277.9049, 37.68304
278.3870, 38.78326
278.8691, 37.22235
279.3513, 30.78650
279.8334, 17.52771
280.3155, 4.405823
280.7976, 2.474609
281.2798, 11.98901
281.7619, 20.62878
282.2440, 24.13153
282.7261, 23.07391
283.2082, 19.29260
283.6903, 11.74835
284.1725, 6.141602
284.6546, 12.96991
285.1367, 31.08282
285.6188, 43.26770
286.1009, 40.53485
286.5830, 26.77100
287.0652, 18.39313
287.5473, 15.75446
288.0294, 16.54913
288.5115, 19.52502
288.9936, 24.28339
289.4757, 27.84155
289.9579, 29.71008
290.4400, 29.57007
290.9221, 24.91028
291.4042, 15.27216
291.8863, 6.840759
292.3684, 7.711426
292.8506, 15.84772
293.3327, 22.08209
293.8148, 22.59576
294.2969, 19.76740
294.7790, 18.88049
295.2611, 20.00446
295.7433, 20.59497
296.2254, 17.53363
296.7075, 12.26501
297.1896, 9.080322
297.6717, 10.49432
298.1538, 14.14886
298.6360, 14.72461
299.1181, 12.40942
299.6002, 11.96802
300.0823, 20.70721
300.5644, 33.66156
301.0465, 41.21851
301.5287, 38.96906
302.0108, 32.71344
302.4929, 28.09363
302.9750, 24.94739
303.4571, 22.61560
303.9392, 21.35980
304.4214, 20.41058
304.9035, 18.71301
305.3856, 16.08026
305.8677, 12.59869
306.3498, 5.659363
306.8319, 2.837097
307.3141, 6.250305
307.7962, 4.051025
308.2783, 19.22803
308.7604, 30.96515
309.2425, 37.64050
309.7246, 39.99939
310.2068, 35.45221
310.6889, 26.68512
311.1710, 20.20410
311.6531, 20.38208
312.1352, 22.26904
312.6173, 23.29834
313.0995, 24.28937
313.5816, 25.21844
314.0637, 21.95428
314.5458, 17.11926
315.0279, 15.71625
315.5100, 23.73773
315.9922, 32.63257
316.4743, 38.34283
316.9564, 40.59735
317.4385, 38.84039
317.9206, 27.84894
318.4027, 13.79346
318.8849, 5.413757
319.3670, 11.43616
319.8491, 17.98657
320.3312, 19.16156
320.8133, 13.39545
321.2954, 9.416931
321.7776, 8.891724
322.2597, 10.95197
322.7418, 14.47681
323.2239, 24.93561
323.7060, 31.86304
324.1881, 30.22021
324.6703, 18.83875
325.1524, 12.70251
325.6345, 18.27930
326.1166, 26.73206
326.5987, 30.95111
327.0808, 29.04108
327.5630, 24.95337
328.0451, 16.43066
328.5272, 4.003357
329.0093, 0.3411250
329.4914, 10.55249
329.9735, 23.11292
330.4557, 28.19049
330.9378, 19.87170
331.4199, 14.55341
331.9020, 15.00677
332.3841, 20.00586
332.8662, 23.24811
333.3484, 23.94824
333.8305, 24.12366
334.3126, 24.81628
334.7947, 26.52667
335.2768, 26.45947
335.7589, 23.42499
336.2411, 19.35608
336.7232, 19.86157
337.2053, 26.78149
337.6874, 32.88519
338.1695, 33.64246
338.6516, 28.46033
339.1338, 26.71539
339.6159, 29.96185
340.0980, 33.70667
340.5801, 28.55359
341.0622, 13.15546
341.5443, 0.6719970
342.0265, 3.880920
342.5086, 0.5856320
342.9907, 8.623413
343.4728, 25.33313
343.9549, 41.20959
344.4370, 44.12933
344.9192, 35.31146
345.4013, 26.17419
345.8834, 20.09021
346.3655, 16.82831
346.8476, 17.13483
347.3297, 21.12958
347.8119, 25.14496
348.2940, 26.23724
348.7761, 24.62506
349.2582, 20.67340
349.7403, 12.61438
350.2225, 3.991943
350.7046, 1.045044
351.1867, 2.608154
351.6688, 0.3100590
352.1509, 10.61945
352.6331, 24.44806
353.1152, 32.05804
353.5973, 29.41949
354.0794, 23.87653
354.5615, 20.97333
355.0436, 20.30603
355.5258, 20.74475
356.0079, 22.90131
356.4900, 25.11578
356.9721, 25.96973
357.4542, 25.17194
357.9363, 23.38629
358.4185, 18.46857
358.9006, 13.03137
359.3827, 11.59448
359.8648, 20.50647
360.3469, 30.26538
360.8290, 36.37659
361.3112, 38.36255
361.7933, 37.29462
362.2754, 30.52429
362.7575, 22.01294
363.2396, 16.03973
363.7217, 12.68121
364.2039, 12.75470
364.6860, 19.28162
365.1681, 32.55139
365.6502, 39.76251
366.1323, 31.26257
366.6144, 20.40430
367.0966, 16.57843
367.5787, 29.76074
368.0608, 38.83167
368.5429, 40.04376
369.0250, 33.97504
369.5071, 29.40784
369.9893, 26.87170
370.4714, 25.44934
370.9535, 25.00317
371.4356, 26.85846
371.9177, 26.36249
372.3998, 21.71753
372.8820, 15.56860
373.3641, 14.76178
373.8462, 22.14954
374.3283, 27.44916
374.8104, 25.60419
375.2925, 15.77582
375.7747, 8.118835
376.2568, 2.245789
376.7389, 0.9074100
377.2210, 1.321228
377.7031, 9.254700
378.1852, 16.94891
378.6674, 23.84564
379.1495, 28.98779
379.6316, 26.81720
380.1137, 16.60425
380.5958, 6.117371
381.0779, 4.041626
381.5601, 8.562134
382.0422, 10.58942
382.5243, 7.046265
383.0064, 1.413147
383.4885, 1.108032
383.9706, 0.6788940
384.4528, 2.004822
384.9349, 8.969482
385.4170, 17.24811
385.8991, 22.23529
386.3812, 23.18951
386.8633, 20.70972
387.3455, 11.78009
387.8276, 0.1835940
388.3097, 6.966125
388.7918, 0.1712650
389.2739, 11.31683
389.7560, 19.64532
390.2382, 24.75092
390.7203, 25.54987
391.2024, 15.72040
391.6845, 3.216736
392.1666, 2.892761
392.6487, 8.507568
393.1309, 19.34302
393.6130, 20.88123
394.0951, 13.97229
394.5772, 9.571777
395.0593, 11.17841
395.5414, 15.71375
396.0236, 21.26520
396.5057, 31.21436
396.9878, 37.86224
397.4699, 40.29370
397.9520, 38.83313
398.4341, 34.41376
398.9163, 22.30377
399.3984, 12.04138
399.8805, 7.417114
400.3626, 11.29932
400.8447, 14.08881
401.3268, 15.50360
401.8090, 15.78424
402.2911, 14.84760
402.7732, 11.55267
403.2553, 10.16925
403.7374, 12.72272
404.2195, 18.85876
404.7017, 22.22540
405.1838, 22.73096
405.6659, 20.67963
406.1480, 14.56488
406.6301, 4.229492
407.1122, 1.395142
407.5944, 0.5319210
408.0765, 6.778198
408.5586, 9.450684
409.0407, 8.637878
409.5228, 8.264465
410.0049, 11.34137
410.4871, 16.64600
410.9692, 21.77228
411.4513, 26.77692
411.9334, 30.67230
412.4155, 31.58160
412.8976, 30.14136
413.3798, 28.20459
413.8619, 27.52264
414.3440, 26.23883
414.8261, 21.03198
415.3082, 11.87500
415.7903, 4.737305
416.2725, 3.955872
416.7546, 7.122864
417.2367, 11.69067
417.7188, 20.30347
418.2009, 26.26038
418.6830, 23.62244
419.1652, 14.97412
419.6473, 9.901001
420.1294, 14.84302
420.6115, 21.77289
421.0937, 26.53418
421.5758, 28.11548
422.0579, 28.31445
422.5400, 27.22607
423.0221, 24.93475
423.5042, 21.53546
423.9864, 17.08942
424.4685, 11.42249
424.9506, 2.128357
425.4327, 11.71191
425.9148, 14.88486
426.3969, 1.753540
426.8791, 15.61011
427.3612, 27.17706
427.8433, 32.39697
428.3254, 33.04852
428.8075, 27.58899
429.2896, 18.35950
429.7718, 13.27771
430.2539, 12.59235
430.7360, 14.50757
431.2181, 19.87305
431.7002, 28.17566
432.1823, 31.21423
432.6645, 27.74139
433.1466, 21.79797
433.6287, 17.98322
434.1108, 16.23724
434.5929, 16.58289
435.0750, 20.42316
435.5572, 25.90375
436.0393, 30.33209
436.5214, 33.68469
437.0035, 35.09875
437.4856, 32.31750
437.9677, 27.66254
438.4499, 24.66003
438.9320, 25.75867
439.4141, 26.09076
439.8962, 19.46045
440.3783, 9.088867
440.8604, 3.060059
441.3426, 8.212708
441.8247, 16.37836
442.3068, 24.22192
442.7889, 32.32666
443.2710, 35.37885
443.7531, 24.52850
444.2353, 11.64429
444.7174, 7.425049
445.1995, 28.81360
445.6816, 43.20142
446.1637, 40.48267
446.6458, 23.48779
447.1280, 14.68774
447.6101, 18.79852
448.0922, 25.83942
448.5743, 30.79456
449.0564, 34.15015
449.5385, 33.68860
450.0207, 27.42603
450.5028, 19.16486
450.9849, 15.37634
451.4670, 16.49420
451.9491, 20.20355
452.4312, 27.55927
452.9134, 37.43701
453.3955, 39.99316
453.8776, 34.34149
454.3597, 27.69037
454.8418, 28.86389
455.3239, 35.58807
455.8061, 37.83704
456.2882, 31.66266
456.7703, 22.69104
457.2524, 19.10236
457.7345, 19.84003
458.2166, 20.52032
458.6988, 17.02930
459.1809, 12.88385
459.6630, 12.12140
460.1451, 15.42084
460.6272, 20.06281
461.1093, 26.98138
461.5915, 33.41260
462.0736, 35.75153
462.5557, 28.71503
463.0378, 21.41309
463.5199, 16.62396
464.0020, 14.35529
464.4842, 14.03528
464.9663, 20.26135
465.4484, 24.95551
465.9305, 23.41980
466.4126, 9.568604
466.8947, 0.2728270
467.3769, 6.637512
467.8590, 8.775513
468.3411, 4.362549
468.8232, 11.65503
469.3053, 24.03345
469.7874, 27.93298
470.2696, 23.86145
470.7517, 21.02008
471.2338, 19.48120
471.7159, 18.95062
472.1980, 19.55817
472.6801, 21.27887
473.1623, 22.72253
473.6444, 23.74054
474.1265, 24.09363
474.6086, 23.39484
475.0907, 11.67004
475.5728, 24.38715
476.0550, 31.49695
476.5371, 33.30670
477.0192, 13.91449
477.5013, 21.89111
477.9834, 18.89886
478.4655, 15.45605
478.9477, 27.28314
479.4298, 10.98029
479.9119, 22.59558
480.3940, 23.06915
480.8761, 28.63135
481.3582, 23.20050
481.8404, 21.47156
482.3225, 30.86377
482.8046, 33.75964
483.2867, 26.28711
483.7688, 31.24835
484.2509, 14.64374
484.7331, 18.29047
485.2152, 30.33771
485.6973, 24.17749
486.1794, 30.23877
486.6615, 31.62354
487.1436, 11.75726
487.6258, 28.84644
488.1079, 29.95251
488.5900, 14.64740
489.0721, 30.46814
489.5542, 17.42395
490.0363, 18.61938
490.5185, 20.55396
491.0006, 26.00757
491.4827, 31.61536
491.9648, 33.24982
492.4470, 31.20435
492.9291, 26.44952
493.4112, 16.17523
493.8933, 6.187195
494.3754, 8.641479
494.8575, 21.51849
495.3397, 31.95764
495.8218, 27.56195
496.3039, 18.30188
496.7860, 15.85291
497.2681, 23.90662
497.7502, 32.01184
498.2324, 32.88733
498.7145, 29.90393
499.1966, 28.68390
499.6787, 38.23254
500.1608, 42.15082
500.6429, 29.92596
501.1251, 3.167725
501.6072, 11.53589
502.0893, 2.248718
502.5714, 10.30658
503.0535, 16.12170
503.5356, 10.26190
504.0178, 9.866699
504.4999, 17.86383
504.9820, 28.66644
505.4641, 33.71796
505.9462, 32.15924
506.4283, 29.13196
506.9105, 25.29382
507.3926, 21.29510
507.8747, 20.05731
508.3568, 21.68561
508.8389, 24.10571
509.3210, 25.92401
509.8032, 27.36646
510.2853, 29.85394
510.7674, 34.31598
511.2495, 36.58539
511.7316, 29.35187
512.2137, 16.89117
512.6959, 8.006592
513.1780, 8.870850
513.6601, 12.35315
514.1422, 14.21271
514.6243, 14.36615
515.1064, 15.07904
515.5886, 18.91974
516.0707, 22.35443
516.5528, 22.88696
517.0349, 18.02960
517.5170, 15.01703
517.9991, 15.98315
518.4813, 18.25970
518.9634, 19.23175
519.4455, 18.49213
519.9276, 17.78882
520.4097, 17.82935
520.8918, 18.28033
521.3740, 16.24231
521.8561, 10.60815
522.3382, 6.153015
522.8203, 7.036743
523.3024, 12.83698
523.7845, 16.19226
524.2667, 16.39337
524.7488, 15.28229
525.2309, 15.02490
525.7130, 15.42560
526.1951, 15.30225
526.6772, 13.71478
527.1594, 11.47601
527.6415, 9.734009
528.1236, 8.466003
528.6057, 7.538696
529.0878, 7.192261
529.5699, 6.963196
530.0521, 5.740173
530.5342, 2.387207
531.0163, 2.551636
531.4984, 13.87775
531.9805, 27.14362
532.4626, 32.60516
532.9448, 19.38666
533.4269, 9.782410
533.9090, 7.535095
534.3911, 10.84631
534.8732, 12.95447
535.3553, 13.96210
535.8375, 13.57660
536.3196, 11.08582
536.8017, 6.269165
537.2838, 3.762817
537.7659, 4.124084
538.2480, 4.968079
538.7302, 2.248169
539.2123, 3.108398
539.6944, 4.422485
540.1765, 1.591919
540.6586, 8.888611
541.1407, 7.325867
541.6229, 0.6402590
542.1050, 6.206604
542.5871, 3.936584
543.0692, 2.374634
543.5513, 11.42316
544.0334, 22.95685
544.5156, 30.42072
544.9977, 28.06897
545.4798, 21.91443
545.9619, 16.59003
546.4440, 12.53534
546.9261, 9.981750
547.4083, 10.02850
547.8904, 11.39972
548.3725, 11.62079
548.8546, 8.795837
549.3367, 8.109680
549.8188, 12.20105
550.3010, 20.29462
550.7831, 22.57111
551.2652, 17.59491
551.7473, 11.55927
552.2294, 9.349304
552.7115, 10.47742
553.1937, 10.12848
553.6758, 7.776489
554.1579, 4.550476
554.6400, 1.271790
555.1221, 7.161560
555.6042, 5.315186
556.0864, 14.74615
556.5685, 35.95923
557.0506, 40.26654
557.5327, 31.56549
558.0148, 22.64636
558.4969, 20.51050
558.9791, 20.11053
559.4612, 17.42407
559.9433, 13.08881
560.4254, 9.765015
560.9075, 8.032227
561.3896, 7.098938
561.8718, 6.117432
562.3539, 3.684082
562.8360, 3.935120
563.3181, 9.194702
563.8002, 16.34644
564.2823, 16.96985
564.7645, 9.299744
565.2466, 3.096008
565.7287, 3.082642
566.2108, 7.774780
566.6929, 9.194153
567.1750, 7.141663
567.6572, 6.053589
568.1393, 11.82965
568.6214, 20.88330
569.1035, 25.87286
569.5856, 25.45587
570.0677, 21.91553
570.5499, 13.26575
571.0320, 3.617859
571.5141, 0.8880620
571.9962, 6.723145
572.4783, 15.30591
572.9604, 22.57544
573.4426, 27.71930
573.9247, 27.12830
574.4068, 12.23352
574.8889, 1.224243
575.3710, 6.885376
575.8531, 3.242920
576.3353, 0.7721560
576.8174, 5.903809
577.2995, 10.24976
577.7816, 11.42993
578.2637, 9.030212
578.7458, 7.870239
579.2280, 8.798950
579.7101, 10.97906
580.1922, 12.75464
580.6743, 14.36566
581.1564, 16.99744
581.6385, 23.61090
582.1207, 30.23865
582.6028, 30.70929
583.0849, 25.67206
583.5670, 20.26355
584.0491, 14.46021
584.5313, 11.44562
585.0134, 15.16284
585.4955, 29.50293
585.9776, 39.62292
586.4597, 38.03864
586.9418, 31.79895
587.4240, 29.08044
587.9061, 35.47559
588.3882, 36.82788
588.8703, 29.32867
589.3524, 16.56134
589.8345, 9.196777
590.3167, 8.449158
590.7988, 8.377075
591.2809, 5.688904
591.7630, 1.435181
592.2451, 2.158508
592.7272, 8.044922
593.2094, 14.21808
593.6915, 17.50500
594.1736, 18.01385
594.6557, 14.64136
595.1378, 5.849670
595.6199, 0.7224730
596.1021, 2.806213
596.5842, 11.56476
597.0663, 18.45825
597.5485, 21.72620
598.0306, 22.98096
598.5127, 21.53247
598.9948, 17.78357
599.4769, 13.55933
599.9590, 7.520325
600.4412, 2.909607
600.9233, 1.116272
601.4054, 2.002686
601.8875, 2.249023
602.3696, 0.8869020
602.8517, 1.280212
603.3339, 8.755554
603.8160, 22.40759
604.2981, 28.31378
604.7802, 23.66962
605.2623, 15.28235
605.7444, 11.38202
606.2266, 10.74847
606.7087, 10.27295
607.1908, 8.607239
607.6729, 6.825439
608.1550, 5.586426
608.6371, 4.899536
609.1193, 4.758362
609.6014, 5.210510
610.0835, 6.176880
610.5656, 7.580383
611.0477, 9.392334
611.5298, 11.99622
612.0120, 17.60522
612.4941, 21.57208
612.9762, 20.43152
613.4583, 13.33282
613.9404, 5.968384
614.4225, 3.725098
614.9047, 10.85089
615.3868, 5.659668
615.8689, 10.75952
616.3510, 23.36224
616.8331, 27.33551
617.3152, 25.82086
617.7974, 21.96307
618.2795, 16.38770
618.7616, 11.34509
619.2437, 8.130249
619.7258, 5.984924
620.2079, 3.173706
620.6901, 0.5430910
621.1722, 3.0029001E-02
621.6543, 12.79694
622.1364, 26.00085
622.6185, 31.21051
623.1006, 23.31677
623.5828, 18.06946
624.0649, 16.96552
624.5470, 17.13593
625.0291, 14.58649
625.5112, 8.347595
625.9933, 5.004028
626.4755, 6.875732
626.9576, 10.77625
627.4397, 9.035095
627.9218, 2.496460
628.4039, 2.395020
628.8860, 1.011353
629.3682, 2.922607
629.8503, 4.529968
630.3324, 4.072327
630.8145, 4.898438
631.2966, 11.45605
631.7787, 18.18481
632.2609, 20.47900
632.7430, 16.16443
633.2251, 12.38373
633.7072, 10.78668
634.1893, 11.11090
634.6714, 13.28168
635.1536, 19.01489
635.6357, 22.07697
636.1178, 20.78577
636.5999, 17.88080
637.0820, 18.80261
637.5641, 23.72150
638.0463, 28.45276
638.5284, 32.71686
639.0105, 35.06470
639.4926, 31.25421
639.9747, 22.21655
640.4568, 13.50104
640.9390, 6.336609
641.4211, 2.343140
641.9032, 4.587830
642.3853, 13.24280
642.8674, 20.48718
643.3495, 24.38544
643.8317, 24.96594
644.3138, 21.66150
644.7959, 9.019470
645.2780, 3.393066
645.7601, 9.451477
646.2422, 18.43024
646.7244, 18.69849
647.2065, 7.612488
647.6886, 2.127380
648.1707, 7.040283
648.6528, 16.46674
649.1349, 17.76648
649.6171, 12.09528
650.0992, 7.734497
650.5813, 9.261353
651.0634, 13.75311
651.5455, 18.81104
652.0276, 24.10181
652.5098, 27.57581
652.9919, 28.04773
653.4740, 26.36371
653.9561, 22.53546
654.4382, 15.82721
654.9203, 10.87799
655.4025, 8.186157
655.8846, 7.461975
656.3667, 8.640564
656.8488, 11.94305
657.3309, 17.17651
657.8130, 25.81378
658.2952, 33.75665
658.7773, 33.95599
659.2594, 27.10596
659.7415, 21.40656
660.2236, 18.89636
660.7057, 18.68445
661.1879, 19.93524
661.6700, 22.48871
662.1521, 25.90161
662.6342, 32.35742
663.1163, 37.53632
663.5984, 37.94000
664.0806, 34.09113
664.5627, 30.68640
665.0448, 28.91986
665.5269, 27.86810
666.0090, 27.54059
666.4911, 28.30249
666.9733, 26.65027
667.4554, 21.19202
667.9375, 16.07886
668.4196, 15.74426
668.9017, 19.95343
669.3839, 20.59503
669.8660, 16.18774
670.3481, 11.76166
670.8302, 15.45270
671.3123, 23.33429
671.7944, 26.35065
672.2766, 17.81769
672.7587, 9.349426
673.2408, 12.37958
673.7229, 21.30035
674.2050, 25.02368
674.6871, 14.36072
675.1693, 4.841675
675.6514, 1.448669
676.1335, 2.891052
676.6156, 2.012390
677.0977, 3.510498
677.5798, 5.987793
678.0620, 0.6687620
678.5441, 11.39612
679.0262, 19.35419
679.5083, 23.05219
679.9904, 26.04767
680.4725, 33.05762
680.9547, 40.76837
681.4368, 42.46179
681.9189, 36.78394
682.4010, 30.53510
682.8831, 29.05249
683.3652, 28.96643
683.8474, 26.67889
684.3295, 17.59772
684.8116, 12.34204
685.2937, 16.87408
685.7758, 24.06360
686.2579, 24.07532
686.7401, 14.00623
687.2222, 5.138123
687.7043, 0.6871340
688.1864, 3.997070
688.6685, 6.562134
689.1506, 8.230652
689.6328, 6.386414
690.1149, 4.517578
690.5970, 16.78796
691.0791, 15.99451
691.5612, 4.879150
692.0433, 2.573486
692.5255, 5.172974
693.0076, 15.64557
693.4897, 20.98486
693.9718, 20.16779
694.4539, 19.08508
694.9360, 17.23083
695.4182, 16.54346
695.9003, 18.60315
696.3824, 24.62842
696.8645, 27.73547
697.3466, 27.10944
697.8287, 25.70447
698.3109, 26.37982
698.7930, 28.99719
699.2751, 33.98505
699.7572, 42.77020
700.2393, 48.77020
700.7214, 40.29474
701.2036, 25.28864
701.6857, 17.10028
702.1678, 27.28754
702.6499, 37.14899
703.1320, 40.10382
703.6141, 37.60040
704.0963, 33.08826
704.5784, 24.63208
705.0605, 17.55682
705.5426, 12.61267
706.0247, 9.936768
706.5068, 11.04767
706.9890, 16.46918
707.4711, 21.30853
707.9532, 22.25299
708.4353, 20.91833
708.9174, 22.00220
709.3995, 25.18671
709.8817, 27.29114
710.3638, 25.01068
710.8459, 21.39227
711.3280, 18.36694
711.8101, 15.83655
712.2922, 16.67505
712.7744, 25.03125
713.2565, 34.59680
713.7386, 41.66345
714.2207, 47.52246
714.7028, 46.79883
715.1849, 37.25000
715.6671, 24.99005
716.1492, 15.21667
716.6313, 8.183960
717.1134, 6.761780
717.5955, 12.51776
718.0776, 20.60284
718.5598, 25.90973
719.0419, 29.06903
719.5240, 31.50745
720.0061, 34.66650
720.4882, 36.25928
720.9703, 35.20831
721.4525, 33.05463
721.9346, 31.68274
722.4167, 31.50134
722.8988, 31.99689
723.3809, 34.02344
723.8630, 36.27454
724.3452, 35.96472
724.8273, 32.81372
725.3094, 29.51093
725.7915, 28.35510
726.2736, 27.59888
726.7557, 20.45929
727.2379, 8.084106
727.7200, 0.4925540
728.2021, 2.122437
728.6842, 9.904785
729.1663, 19.27863
729.6484, 29.97498
730.1306, 38.60107
730.6127, 47.00806
731.0948, 50.47198
731.5769, 45.12006
732.0590, 26.81696
732.5411, 17.28754
733.0233, 18.36127
733.5054, 24.10431
733.9875, 30.88977
734.4696, 38.16913
734.9517, 40.85516
735.4338, 37.81586
735.9160, 34.02045
736.3981, 34.29779
736.8802, 36.67126
737.3623, 38.33069
737.8444, 38.74738
738.3266, 37.96533
738.8087, 34.55328
739.2908, 30.33173
739.7729, 28.06299
740.2551, 29.43701
740.7372, 29.63965
741.2193, 27.23767
741.7014, 24.11920
742.1835, 25.03033
742.6656, 30.02423
743.1478, 33.72424
743.6299, 34.17456
744.1120, 32.72327
744.5941, 30.97290
745.0762, 29.04523
745.5583, 27.24774
746.0405, 25.10968
746.5226, 23.60144
747.0047, 24.70862
747.4868, 27.16577
747.9689, 27.60669
748.4510, 24.64020
748.9332, 20.81067
749.4153, 15.87909
749.8974, 11.24231
750.3795, 13.31744
750.8616, 21.34875
751.3438, 28.12793
751.8259, 29.31104
752.3080, 27.41852
752.7901, 29.11035
753.2722, 34.31451
753.7543, 38.77979
754.2365, 41.05695
754.7186, 40.47235
755.2007, 34.87891
755.6828, 22.12244
756.1649, 14.75531
756.6470, 20.17584
757.1292, 26.89716
757.6113, 27.18512
758.0934, 18.20288
758.5755, 16.53137
759.0576, 23.86072
759.5397, 32.82471
760.0219, 35.39441
760.5040, 33.28900
760.9861, 32.14893
761.4682, 33.22198
761.9503, 33.30945
762.4324, 28.43365
762.9146, 21.74341
763.3967, 16.79761
763.8788, 13.45361
764.3609, 13.58759
764.8430, 21.80273
765.3251, 31.22357
765.8073, 33.44055
766.2894, 26.13593
766.7715, 20.80481
767.2536, 19.31909
767.7357, 19.94049
768.2178, 20.94055
768.7000, 21.77838
769.1821, 19.83069
769.6642, 12.06519
770.1463, 4.760681
770.6284, 4.196716
771.1105, 7.881104
771.5927, 10.99554
772.0748, 10.22766
772.5569, 10.95117
773.0390, 16.38879
773.5211, 23.79932
774.0032, 25.17883
774.4854, 18.13025
774.9675, 14.79681
775.4496, 21.97162
775.9317, 32.41382
776.4138, 22.89850
776.8959, 2.212830
777.3781, 19.70764
777.8602, 10.02924
778.3423, 6.503052
778.8244, 14.55933
779.3065, 15.01447
779.7886, 12.61646
780.2708, 1.835266
780.7529, 4.017212
781.2350, 1.183899
781.7171, 15.90558
782.1992, 25.43896
782.6813, 28.65118
783.1635, 30.91302
783.6456, 36.52820
784.1277, 43.03613
784.6098, 40.44690
785.0919, 29.72797
785.5740, 20.40790
786.0562, 17.63629
786.5383, 19.57831
787.0204, 27.48859
787.5025, 41.25928
787.9846, 49.11676
788.4667, 43.98279
788.9489, 36.27692
789.4310, 29.75372
789.9131, 24.47467
790.3952, 20.43036
790.8773, 17.89404
791.3594, 15.47394
791.8416, 11.05505
792.3237, 6.123352
792.8058, 5.570557
793.2879, 9.544495
793.7700, 13.00726
794.2521, 11.97656
794.7343, 9.284241
795.2164, 6.197815
795.6985, 1.591736
796.1806, 3.140015
796.6627, 17.20959
797.1448, 31.21838
797.6270, 36.17169
798.1091, 30.53400
798.5912, 28.93610
799.0733, 32.27698
799.5554, 35.24274
800.0375, 31.65320
800.5197, 24.29321
801.0018, 17.78833
801.4839, 12.57208
801.9660, 10.28973
802.4481, 17.21747
802.9302, 24.24969
803.4124, 22.71313
803.8945, 3.541382
804.3766, 5.897095
804.8587, 1.020447
805.3408, 7.548950
805.8229, 11.01355
806.3051, 9.381104
806.7872, 1.252197
807.2693, 15.34155
807.7514, 27.14526
808.2335, 15.42133
808.7156, 8.126404
809.1978, 26.23260
809.6799, 35.09686
810.1620, 39.09119
810.6441, 39.37195
811.1262, 35.89209
811.6083, 27.92749
812.0905, 9.896912
812.5726, 0.6505130
813.0547, 2.171082
813.5368, 9.514771
814.0189, 19.07056
814.5010, 30.01825
814.9832, 37.74261
815.4653, 41.54907
815.9474, 41.56689
816.4295, 35.44476
816.9116, 26.66901
817.3937, 19.35742
817.8759, 13.89490
818.3580, 11.31854
818.8401, 14.18481
819.3222, 18.54895
819.8043, 20.71051
820.2864, 20.12817
820.7686, 19.53351
821.2507, 18.78687
821.7328, 19.23108
822.2149, 24.93774
822.6970, 33.05426
823.1791, 35.66895
823.6613, 29.37170
824.1434, 22.75128
824.6255, 22.21277
825.1076, 24.16382
825.5897, 24.61487
826.0718, 16.58575
826.5540, 16.89801
827.0361, 30.06158
827.5182, 46.40918
828.0003, 54.90833
828.4824, 55.55212
828.9645, 51.80573
829.4467, 42.85107
829.9288, 35.16357
830.4109, 37.14520
830.8930, 44.93317
831.3751, 53.34991
831.8572, 63.39478
832.3394, 68.39874
832.8215, 62.22357
833.3036, 51.82068
833.7857, 44.44263
834.2678, 39.23065
834.7499, 40.87415
835.2321, 51.58313
835.7142, 63.53278
836.1963, 63.44159
836.6784, 53.65973
837.1605, 44.26111
837.6426, 36.25775
838.1248, 33.32574
838.6069, 43.99615
839.0890, 58.80908
839.5711, 66.10565
840.0532, 59.84241
840.5353, 52.12665
841.0175, 40.70129
841.4996, 31.35425
841.9817, 31.89337
842.4638, 42.88690
842.9459, 49.31134
843.4280, 49.66083
843.9102, 45.83588
844.3923, 35.60669
844.8744, 23.98663
845.3565, 20.48499
845.8386, 29.76617
846.3207, 36.47852
846.8029, 30.47998
847.2850, 21.73248
847.7671, 19.33197
848.2492, 27.05170
848.7313, 30.88464
849.2134, 29.80829
849.6956, 27.37732
850.1777, 28.50488
850.6598, 31.32843
851.1419, 27.50916
851.6240, 15.16534
852.1061, 5.419800
852.5883, 9.162231
853.0704, 17.86340
853.5525, 23.84576
854.0346, 25.32269
854.5167, 26.27814
854.9988, 26.84222
855.4810, 26.30554
855.9631, 23.95398
856.4452, 19.69537
856.9273, 23.94275
857.4094, 37.13214
857.8915, 46.97009
858.3737, 39.15186
858.8558, 24.70013
859.3379, 17.97040
859.8200, 21.28143
860.3021, 23.08929
860.7842, 16.50342
861.2664, 9.446533
861.7485, 6.471985
862.2306, 7.474487
862.7127, 8.629578
863.1948, 9.585266
863.6769, 11.55969
864.1591, 17.26471
864.6412, 24.28387
865.1233, 26.07220
865.6054, 22.94952
866.0875, 18.97797
866.5696, 14.06360
867.0518, 9.736145
867.5339, 7.328369
868.0160, 7.036865
868.4981, 9.946045
868.9802, 18.75354
869.4623, 24.86157
869.9445, 21.56799
870.4266, 12.27393
870.9087, 16.82355
871.3908, 33.63007
871.8729, 45.42664
872.3550, 35.04498
872.8372, 20.77350
873.3193, 20.19708
873.8014, 30.67090
874.2835, 35.12598
874.7656, 22.69019
875.2477, 12.09778
875.7299, 8.075745
876.2120, 9.405762
876.6941, 12.56018
877.1762, 17.52521
877.6583, 19.31964
878.1404, 13.00946
878.6226, 5.250977
879.1047, 5.769836
879.5869, 11.97839
880.0690, 17.21826
880.5511, 18.99170
881.0332, 19.39502
881.5153, 18.16876
881.9974, 16.25568
882.4796, 15.86700
882.9617, 17.54272
883.4438, 17.32581
883.9259, 13.44934
884.4080, 9.669006
884.8901, 9.962585
885.3723, 13.12683
885.8544, 17.57556
886.3365, 25.88129
886.8186, 30.30096
887.3007, 20.93707
887.7828, 7.326355
888.2650, 3.627136
888.7471, 15.55206
889.2292, 22.08923
889.7113, 20.26398
890.1934, 15.53082
890.6755, 15.71454
891.1577, 18.87555
891.6398, 18.02136
892.1219, 10.81250
892.6040, 5.022400
893.0861, 8.842529
893.5682, 15.07349
894.0504, 16.63611
894.5325, 9.039551
895.0146, 5.130859
895.4967, 6.392578
895.9788, 8.813416
896.4609, 8.342834
896.9431, 5.789124
897.4252, 6.694031
897.9073, 11.38776
898.3894, 16.55737
898.8715, 21.30072
899.3536, 24.36646
899.8358, 24.05817
900.3179, 19.91309
900.8000, 16.68433
901.2821, 14.36694
901.7642, 13.76672
902.2463, 15.71735
902.7285, 19.81116
903.2106, 23.67859
903.6927, 27.25391
904.1748, 29.36542
904.6569, 27.52325
905.1390, 25.21509
905.6212, 27.62476
906.1033, 33.13171
906.5854, 34.61810
907.0675, 24.77399
907.5496, 17.05969
908.0317, 15.17102
908.5139, 17.37329
908.9960, 18.94031
909.4781, 19.86328
909.9602, 19.36670
910.4423, 17.19244
910.9244, 13.46869
911.4066, 5.417725
911.8887, 3.507751
912.3708, 7.026428
912.8529, 6.453003
913.3350, 13.16107
913.8171, 3.332397
914.2993, 11.15869
914.7814, 14.23022
915.2635, 5.119446
915.7456, 6.741760
916.2277, 21.42596
916.7098, 32.52887
917.1920, 27.76672
917.6741, 16.40717
918.1562, 13.23138
918.6383, 24.49841
919.1204, 32.22827
919.6025, 28.39813
920.0847, 21.22974
920.5668, 15.82953
921.0489, 12.34802
921.5310, 9.291382
922.0131, 6.553406
922.4952, 5.183533
922.9774, 7.391968
923.4595, 10.75525
923.9416, 12.49597
924.4237, 12.75928
924.9058, 13.67212
925.3879, 18.83917
925.8701, 21.82660
926.3522, 18.20978
926.8343, 9.484802
927.3164, 9.571899
927.7985, 19.78595
928.2806, 26.46814
928.7628, 20.40851
929.2449, 9.947876
929.7270, 9.156311
930.2091, 14.80157
930.6912, 18.09943
931.1733, 12.84839
931.6555, 7.941467
932.1376, 5.281616
932.6197, 4.594849
933.1018, 5.698303
933.5839, 8.981140
934.0660, 10.76093
934.5482, 9.703308
935.0303, 9.086548
935.5124, 14.81494
935.9945, 23.53223
936.4766, 29.38483
936.9587, 30.86401
937.4409, 30.08667
937.9230, 23.86615
938.4051, 18.63123
938.8872, 20.64166
939.3693, 32.49640
939.8514, 35.87689
940.3336, 30.11700
940.8157, 20.36218
941.2978, 4.582947
941.7799, 9.417053
942.2620, 5.338196
942.7441, 16.15674
943.2263, 29.07147
943.7084, 10.70062
944.1905, 4.744934
944.6726, 1.169983
945.1547, 16.97998
945.6368, 23.10828
946.1190, 17.10522
946.6011, 11.34973
947.0832, 11.33441
947.5653, 14.55933
948.0474, 19.44696
948.5295, 24.81958
949.0117, 27.93390
949.4938, 28.63013
949.9759, 25.58691
950.4580, 15.76550
950.9401, 4.391541
951.4222, 0.6145020
951.9044, 0.7719120
952.3865, 5.463257
952.8686, 13.72675
953.3507, 21.54395
953.8328, 23.78625
954.3149, 23.43396
954.7971, 24.39941
955.2792, 28.00671
955.7613, 30.59412
956.2434, 32.03888
956.7255, 31.82294
957.2076, 28.94165
957.6898, 23.50787
958.1719, 20.46051
958.6540, 19.73700
959.1361, 18.72302
959.6182, 13.80768
960.1003, 9.171204
960.5825, 9.033569
961.0646, 12.87366
961.5467, 16.96802
962.0288, 22.73505
962.5109, 25.07349
962.9930, 20.90894
963.4752, 14.12030
963.9573, 15.82568
964.4394, 24.50519
964.9215, 30.97675
965.4036, 32.34326
965.8857, 30.25519
966.3679, 21.75684
966.8500, 12.42358
967.3321, 9.871216
967.8142, 22.07397
968.2963, 27.86920
968.7784, 24.81281
969.2606, 20.01373
969.7427, 22.09729
970.2248, 28.29321
970.7069, 27.46515
971.1890, 18.34839
971.6711, 11.22260
972.1533, 15.71130
972.6354, 21.32990
973.1175, 20.67700
973.5996, 13.45148
974.0817, 8.006287
974.5638, 3.661377
975.0460, 3.848877
975.5281, 12.22961
976.0102, 23.98663
976.4923, 29.11761
976.9744, 28.98468
977.4565, 27.58893
977.9387, 27.74530
978.4208, 25.68243
978.9029, 17.87347
979.3850, 8.145996
979.8671, 0.4165650
980.3492, 6.314697
980.8314, 2.287903
981.3135, 16.24457
981.7956, 33.56134
982.2777, 28.27771
982.7598, 12.78735
983.2419, 4.746216
983.7241, 7.383667
984.2062, 12.18573
984.6883, 20.64331
985.1704, 26.45929
985.6525, 25.39130
986.1346, 18.49866
986.6168, 19.18939
987.0989, 27.09125
987.5810, 30.54059
988.0631, 16.40985
988.5452, 0.1264650
989.0273, 2.361023
989.5095, 4.582275
989.9916, 9.805664
990.4737, 10.22821
990.9558, 10.10370
991.4379, 9.474792
991.9200, 9.114075
992.4022, 9.784180
992.8843, 11.70172
993.3664, 16.77222
993.8485, 26.06671
994.3306, 33.79767
994.8127, 35.03961
995.2949, 32.89539
995.7770, 29.61298
996.2591, 25.01532
996.7412, 22.94989
997.2233, 24.71082
997.7054, 24.31854
998.1876, 14.19629
998.6697, 0.9801030
999.1518, 2.434204
999.6339, 14.01965
1000.116, 21.14795
1000.598, 13.17999
1001.080, 3.732849
1001.562, 4.787903
1002.044, 11.04474
1002.527, 9.897278
1003.009, 0.6953130
1003.491, 5.651123
1003.973, 6.655518
1004.455, 6.284546
1004.937, 9.403320
1005.419, 13.54785
1005.901, 15.33142
1006.384, 13.08636
1006.866, 11.07050
1007.348, 9.577820
1007.830, 8.687622
1008.312, 8.273743
1008.794, 8.457275
1009.276, 11.09692
1009.758, 15.89215
1010.240, 18.49481
1010.723, 12.54102
1011.205, 7.219604
1011.687, 11.27661
1012.169, 20.14093
1012.651, 20.69299
1013.133, 8.157654
1013.615, 0.7225950
1014.097, 1.442688
1014.580, 7.149841
1015.062, 16.47058
1015.544, 26.68414
1016.026, 32.17792
1016.508, 31.24402
1016.990, 29.32373
1017.472, 27.24945
1017.954, 26.12854
1018.436, 26.95667
1018.919, 29.58185
1019.401, 31.21582
1019.883, 31.86072
1020.365, 30.48450
1020.847, 23.45404
1021.329, 16.64355
1021.811, 18.43134
1022.293, 24.88062
1022.776, 26.08948
1023.258, 13.19617
1023.740, 7.117920
1024.222, 12.17456
1024.704, 20.87695
1025.186, 23.48444
1025.668, 21.06659
1026.150, 15.88226
1026.632, 7.819458
1027.115, 2.886169
1027.597, 8.419678
1028.079, 15.19568
1028.561, 16.35095
1029.043, 12.15149
1029.525, 10.54449
1030.007, 11.84039
1030.489, 13.18463
1030.972, 11.49030
1031.454, 11.14081
1031.936, 23.65460
1032.418, 41.57935
1032.900, 48.83246
1033.382, 25.02887
1033.864, 12.72498
1034.346, 21.61017
1034.828, 35.80402
1035.311, 36.99139
1035.793, 27.05505
1036.275, 16.66357
1036.757, 6.577881
1037.239, 1.667297
1037.721, 9.339905
1038.203, 19.53198
1038.685, 26.52216
1039.167, 30.20288
1039.650, 34.35999
1040.132, 40.14569
1040.614, 40.32782
1041.096, 30.68390
1041.578, 18.77759
1042.060, 17.43445
1042.542, 22.68298
1043.024, 27.02686
1043.507, 27.12048
1043.989, 28.41803
1044.471, 34.68585
1044.953, 39.30756
1045.435, 35.91809
1045.917, 25.30627
1046.399, 17.33337
1046.881, 12.06116
1047.364, 8.910339
1047.846, 8.558777
1048.328, 8.548462
1048.810, 5.221741
1049.292, 0.6394040
1049.774, 4.571594
1050.256, 22.28528
1050.738, 28.44885
1051.220, 14.48328
1051.703, 3.919678
1052.185, 3.145020
1052.667, 8.656494
1053.149, 18.81281
1053.631, 25.50476
1054.113, 27.09656
1054.595, 18.30859
1055.077, 9.851563
1055.559, 7.547729
1056.042, 10.39807
1056.524, 11.25946
1057.006, 10.43994
1057.488, 10.30444
1057.970, 12.76306
1058.452, 15.65118
1058.934, 18.66479
1059.416, 20.52649
1059.899, 19.01556
1060.381, 12.86365
1060.863, 11.40228
1061.345, 16.04333
1061.827, 19.54059
1062.309, 10.36981
1062.791, 2.706604
1063.273, 5.461365
1063.755, 3.055054
1064.238, 10.89783
1064.720, 13.09259
1065.202, 16.84204
1065.684, 26.16150
1066.166, 37.01971
1066.648, 36.05469
1067.130, 25.72308
1067.612, 17.18365
1068.094, 13.86169
1068.577, 13.44250
1069.059, 18.09631
1069.541, 22.49847
1070.023, 20.64539
1070.505, 10.39471
1070.987, 6.639465
1071.469, 9.752319
1071.951, 15.11871
1072.434, 22.40741
1072.916, 28.12579
1073.398, 26.80188
1073.880, 19.55115
1074.362, 15.47778
1074.844, 18.68561
1075.326, 21.70483
1075.808, 24.23615
1076.291, 24.98267
1076.773, 23.35175
1077.255, 20.45660
1077.737, 19.94574
1078.219, 22.47388
1078.701, 24.48969
1079.183, 23.53766
1079.665, 22.23627
1080.147, 21.91010
1080.630, 22.40723
1081.112, 22.80353
1081.594, 23.09503
1082.076, 23.52338
1082.558, 25.22095
1083.040, 25.07611
1083.522, 16.37238
1084.004, 5.889587
1084.486, 4.108276
1084.969, 14.65472
1085.451, 21.93707
1085.933, 25.77551
1086.415, 26.82214
1086.897, 24.34979
1087.379, 20.00726
1087.861, 15.86584
1088.343, 12.30695
1088.826, 10.60345
1089.308, 13.48151
1089.790, 15.19586
1090.272, 14.15680
1090.754, 12.19818
1091.236, 11.84052
1091.718, 13.04309
1092.200, 16.85120
1092.682, 23.80841
1093.165, 27.31696
1093.647, 18.40375
1094.129, 9.159180
1094.611, 8.527649
1095.093, 14.83429
1095.575, 15.50385
1096.057, 10.32886
1096.539, 4.192932
1097.022, 2.695313
1097.504, 6.405640
1097.986, 1.869629
1098.468, 13.89423
1098.950, 17.57800
1099.432, 6.205627
1099.914, 0.1516110
1100.396, 0.6868290
1100.879, 1.484558
1101.361, 5.369507
1101.843, 9.879089
1102.325, 13.12744
1102.807, 15.24817
1103.289, 16.82507
1103.771, 15.68353
1104.253, 18.23779
1104.735, 28.09674
1105.218, 38.71326
1105.700, 40.98883
1106.182, 35.91156
1106.664, 26.27716
1107.146, 12.18762
1107.628, 1.434937
1108.110, 1.177673
1108.592, 0.8279420
1109.074, 6.899353
1109.557, 15.57886
1110.039, 22.64172
1110.521, 28.23975
1111.003, 32.86035
1111.485, 37.20203
1111.967, 38.94928
1112.449, 33.29565
1112.931, 25.30084
1113.414, 20.39459
1113.896, 19.34906
1114.378, 21.12158
1114.860, 27.18744
1115.342, 30.07141
1115.824, 22.65417
1116.306, 11.97296
1116.788, 9.608643
1117.271, 12.74396
1117.753, 15.07361
1118.235, 10.29041
1118.717, 12.51379
1119.199, 27.22455
1119.681, 40.27753
1120.163, 32.92596
1120.645, 13.26941
1121.127, 6.514404
1121.609, 12.94257
1122.092, 19.60370
1122.574, 17.67755
1123.056, 18.21246
1123.538, 26.87030
1124.020, 38.44708
1124.502, 42.21130
1124.984, 38.95233
1125.466, 35.05396
1125.949, 31.60962
1126.431, 28.49933
1126.913, 26.26508
1127.395, 23.79907
1127.877, 18.73730
1128.359, 12.03333
1128.841, 14.98938
1129.323, 28.62085
1129.806, 31.81360
1130.288, 10.77844
1130.770, 10.53461
1131.252, 0.8240360
1131.734, 19.98285
1132.216, 23.55780
1132.698, 2.137634
1133.180, 9.774231
1133.662, 5.020996
1134.145, 19.62506
1134.627, 17.61713
1135.109, 7.941650
1135.591, 3.530518
1136.073, 2.997864
1136.555, 2.950684
1137.037, 2.616516
1137.519, 2.107788
1138.001, 0.3521730
1138.484, 0.7043460
1138.966, 9.047974
1139.448, 21.58197
1139.930, 30.67596
1140.412, 35.45490
1140.894, 32.42169
1141.376, 5.224670
1141.858, 9.755798
1142.341, 2.256165
1142.823, 25.18878
1143.305, 27.67627
1143.787, 14.58356
1144.269, 8.339905
1144.751, 13.19275
1145.233, 19.32922
1145.715, 20.64099
1146.198, 23.04785
1146.680, 31.99359
1147.162, 44.51251
1147.644, 43.81958
1148.126, 31.08966
1148.608, 22.92566
1149.090, 26.65369
1149.572, 30.96490
1150.054, 23.24591
1150.536, 13.81750
1151.019, 14.81415
1151.501, 27.81830
1151.983, 28.90198
1152.465, 17.53381
1152.947, 7.701721
1153.429, 7.211121
1153.911, 11.33667
1154.393, 19.06201
1154.876, 27.07086
1155.358, 28.98199
1155.840, 21.96405
1156.322, 19.57153
1156.804, 22.80737
1157.286, 26.54352
1157.768, 28.25446
1158.250, 26.92725
1158.733, 18.73029
1159.215, 6.092163
1159.697, 1.835266
1160.179, 3.031799
1160.661, 0.5803220
1161.143, 6.458313
1161.625, 13.44727
1162.107, 13.55853
1162.589, 10.78986
1163.072, 12.51538
1163.554, 19.11871
1164.036, 24.11877
1164.518, 25.24255
1165.000, 25.73187
1165.482, 26.36206
1165.964, 26.58618
1166.446, 26.13593
1166.928, 24.63171
1167.411, 19.67358
1167.893, 9.411804
1168.375, 6.560730
1168.857, 26.98987
1169.339, 40.29401
1169.821, 31.60284
1170.303, 9.986816
1170.785, 0.4133300
1171.268, 1.047119
1171.750, 4.092163
1172.232, 17.38922
1172.714, 26.73389
1173.196, 24.13446
1173.678, 18.82153
1174.160, 15.88379
1174.642, 14.94958
1175.125, 13.13788
1175.607, 11.00079
1176.089, 11.77881
1176.571, 22.63287
1177.053, 29.25708
1177.535, 18.78448
1178.017, 6.123596
1178.499, 6.952332
1178.981, 21.02710
1179.464, 25.28168
1179.946, 19.95825
1180.428, 13.50909
1180.910, 9.325378
1181.392, 7.555725
1181.874, 8.874390
1182.356, 12.41132
1182.838, 17.00519
1183.320, 22.70764
1183.803, 29.95575
1184.285, 38.91943
1184.767, 45.16852
1185.249, 45.35974
1185.731, 41.84985
1186.213, 34.16425
1186.695, 23.72223
1187.177, 18.13489
1187.660, 17.56921
1188.142, 20.05756
1188.624, 25.02209
1189.106, 30.06946
1189.588, 29.53314
1190.070, 28.64893
1190.552, 34.31586
1191.034, 44.19598
1191.516, 42.79230
1191.999, 27.70984
1192.481, 17.65247
1192.963, 17.91394
1193.445, 22.02386
1193.927, 27.09552
1194.409, 30.32233
1194.891, 27.44397
1195.373, 18.11957
1195.855, 12.85339
1196.338, 12.05200
1196.820, 11.61243
1197.302, 9.352478
1197.784, 8.027832
1198.266, 12.72839
1198.748, 19.06635
1199.230, 21.29645
1199.712, 17.71301
1200.195, 13.74573
1200.677, 8.510742
1201.159, 3.843750
1201.641, 0.8616940
1202.123, 2.464966
1202.605, 6.793396
1203.087, 20.15710
1203.569, 26.10187
1204.052, 19.90112
1204.534, 18.45923
1205.016, 23.02838
1205.498, 24.78503
1205.980, 13.51904
1206.462, 9.2770001E-03
1206.944, 5.410339
1207.426, 4.167480
1207.908, 0.4473880
1208.391, 9.418030
1208.873, 17.55768
1209.355, 25.09143
1209.837, 29.80304
1210.319, 26.50885
1210.801, 21.89215
1211.283, 25.48138
1211.765, 34.50232
1212.247, 38.09705
1212.730, 33.77704
1213.212, 29.62537
1213.694, 26.28809
1214.176, 24.09302
1214.658, 24.38086
1215.140, 25.17297
1215.622, 24.22742
1216.104, 21.60370
1216.587, 18.45380
1217.069, 14.48828
1217.551, 11.45398
1218.033, 10.03577
1218.515, 8.625122
1218.997, 3.321106
1219.479, 2.060120
1219.961, 2.466858
1220.443, 2.165588
1220.926, 5.872070
1221.408, 8.185486
1221.890, 9.886658
1222.372, 10.51361
1222.854, 12.84161
1223.336, 23.27856
1223.818, 35.31830
1224.300, 40.97089
1224.782, 38.97748
1225.265, 38.18408
1225.747, 39.14673
1226.229, 38.87122
1226.711, 36.14984
1227.193, 32.62140
1227.675, 30.21515
1228.157, 28.12408
1228.639, 24.55969
1229.122, 18.97327
1229.604, 19.24646
1230.086, 26.45605
1230.568, 31.38135
1231.050, 29.37927
1231.532, 25.89514
1232.014, 28.11365
1232.496, 31.99249
1232.979, 31.68689
1233.461, 25.95087
1233.943, 25.71283
1234.425, 31.84839
1234.907, 34.75098
1235.389, 28.06989
1235.871, 19.16895
1236.353, 13.20355
1236.835, 10.46942
1237.318, 12.01050
1237.800, 18.14825
1238.282, 25.44434
1238.764, 34.15576
1239.246, 37.38989
1239.728, 26.52698
1240.210, 14.60089
1240.692, 12.94049
1241.175, 16.87665
1241.657, 21.01630
1242.139, 26.48718
1242.621, 19.97882
1243.103, 1.272095
1243.585, 9.726868
1244.067, 8.487061
1244.549, 28.29608
1245.031, 29.25482
1245.514, 21.50470
1245.996, 19.12207
1246.478, 22.74658
1246.960, 27.83118
1247.442, 34.04224
1247.924, 35.93213
1248.406, 22.67236
1248.888, 12.15399
1249.370, 19.65082
1249.853, 32.63251
1250.335, 34.13379
1250.817, 24.58197
1251.299, 16.41553
1251.781, 10.26477
1252.263, 6.602234
1252.745, 6.739624
1253.227, 7.830811
1253.710, 6.058228
1254.192, 6.628235
1254.674, 21.50995
1255.156, 46.73828
1255.638, 49.88788
1256.120, 30.96539
1256.602, 14.31769
1257.084, 15.52838
1257.567, 17.85651
1258.049, 15.12897
1258.531, 10.76117
1259.013, 13.34308
1259.495, 19.86890
1259.977, 20.08246
1260.459, 14.12885
1260.941, 12.42517
1261.423, 29.13861
1261.906, 37.02295
1262.388, 27.62128
1262.870, 11.20477
1263.352, 1.182251
1263.834, 7.949829
1264.316, 1.406860
1264.798, 17.11426
1265.280, 29.63025
1265.762, 24.23523
1266.245, 21.60254
1266.727, 25.92432
1267.209, 33.04340
1267.691, 38.61230
1268.173, 42.43750
1268.655, 44.13245
1269.137, 43.72321
1269.619, 41.55396
1270.102, 36.70856
1270.584, 33.18066
1271.066, 32.01300
1271.548, 31.75250
1272.030, 31.36115
1272.512, 30.36078
1272.994, 27.06152
1273.476, 21.89050
1273.958, 21.77356
1274.441, 28.95026
1274.923, 29.49329
1275.405, 18.47949
1275.887, 8.702698
1276.369, 17.26843
1276.851, 29.43756
1277.333, 34.17218
1277.815, 31.04218
1278.297, 29.29498
1278.780, 29.10339
1279.262, 26.21460
1279.744, 19.04987
1280.226, 13.11829
1280.708, 15.01025
1281.190, 17.80109
1281.672, 16.21362
1282.154, 11.44611
1282.637, 6.707703
1283.119, 2.397766
1283.601, 3.420227
1284.083, 11.69995
1284.565, 18.71838
1285.047, 18.41913
1285.529, 16.38434
1286.011, 15.42188
1286.494, 14.59711
1286.976, 9.736206
1287.458, 5.524658
1287.940, 6.226196
1288.422, 13.77222
1288.904, 20.19196
1289.386, 24.23010
1289.868, 23.39923
1290.350, 13.99249
1290.833, 3.233459
1291.315, 8.092773
1291.797, 21.69379
1292.279, 31.13184
1292.761, 34.05151
1293.243, 32.03418
1293.725, 22.65833
1294.207, 16.79163
1294.689, 19.07831
1295.172, 23.85895
1295.654, 21.51550
1296.136, 17.30420
1296.618, 19.31769
1297.100, 30.00342
1297.582, 34.02435
1298.064, 30.32294
1298.546, 27.07996
1299.029, 27.12128
1299.511, 27.48340
1299.993, 25.14014
1300.475, 21.33044
1300.957, 17.62195
1301.439, 13.90729
1301.921, 7.892700
1302.403, 0.1894530
1302.885, 2.920227
1303.368, 2.375610
1303.850, 10.60461
1304.332, 23.97021
1304.814, 32.66650
1305.296, 29.21100
1305.778, 17.82361
1306.260, 5.315491
1306.742, 4.042786
1307.224, 7.091003
1307.707, 13.37225
1308.189, 15.79297
1308.671, 7.959412
1309.153, 0.0000000E+00
##END=



