##NAMES=Columbite-(Mn)
##RRUFFID=R040083
##IDEAL CHEMISTRY=Mn^2+^Nb^5+^_2_O_6_
##LOCALITY=Mina Miramica, Santa Cruz, Bolivia
##OWNER=RRUFF
##SOURCE=University of Arizona Mineral Museum
##DESCRIPTION=Fragment consisting of multiple phases as shown by both X-ray diffraction and microprobe.
##STATUS=The identification of this mineral has been confirmed by X-ray diffraction and chemical analysis
##URL=rruff.info/R040083
##MEASURED CHEMISTRY=Light bands: (Mn^2+^_0.78_Fe^2+^_0.21_Ti_0.01_)(Nb_0.74_Ta_0.25_Ti_0.01_)_2_O_6_; Dark bands:(Mn^2+^_0.73_Fe^2+^_0.26_Ti_0.01_)(Nb_0.86_Ta_0.13_Ti_0.01_)_2_O_6_
129.7605, 0.0000000E+00
130.2426, 19.17383
130.7247, 50.95215
131.2068, 83.73633
131.6889, 116.6465
132.1711, 139.9736
132.6532, 152.2090
133.1353, 165.9492
133.6174, 148.6367
134.0995, 121.0117
134.5816, 86.53125
135.0638, 52.62109
135.5459, 19.91797
136.0280, 13.27539
136.5101, 9.859375
136.9922, 39.41992
137.4743, 106.2832
137.9565, 128.2295
138.4386, 88.86035
138.9207, 59.34180
139.4028, 71.53320
139.8849, 138.0244
140.3670, 180.8604
140.8492, 188.6152
141.3313, 168.6211
141.8134, 150.8223
142.2955, 136.0879
142.7776, 128.2510
143.2597, 129.5029
143.7419, 149.6143
144.2240, 159.8779
144.7061, 149.9199
145.1882, 117.8779
145.6703, 110.5098
146.1524, 150.7471
146.6346, 195.8447
147.1167, 202.2832
147.5988, 123.2344
148.0809, 65.94531
148.5630, 62.80566
149.0451, 141.4258
149.5273, 183.4521
150.0094, 162.9482
150.4915, 111.1768
150.9736, 78.71289
151.4557, 74.81641
151.9378, 80.96094
152.4200, 92.43457
152.9021, 115.7676
153.3842, 139.6152
153.8663, 165.5742
154.3484, 190.3926
154.8305, 207.3682
155.3127, 210.7520
155.7948, 211.5469
156.2769, 212.4932
156.7590, 219.1826
157.2411, 236.6035
157.7232, 256.6797
158.2053, 269.5078
158.6875, 269.6797
159.1696, 261.8232
159.6517, 254.6260
160.1338, 249.6641
160.6159, 246.2383
161.0980, 243.9434
161.5802, 239.5908
162.0623, 231.2832
162.5444, 231.0791
163.0265, 262.7412
163.5086, 304.1914
163.9907, 323.9697
164.4729, 285.4268
164.9550, 237.0850
165.4371, 210.4326
165.9192, 214.9033
166.4013, 221.8408
166.8834, 209.8516
167.3656, 187.5635
167.8477, 175.2412
168.3298, 191.9258
168.8119, 219.5684
169.2940, 242.5547
169.7761, 259.7598
170.2583, 268.9883
170.7404, 266.0117
171.2225, 251.7695
171.7046, 232.5000
172.1867, 203.4863
172.6688, 174.7764
173.1510, 160.8389
173.6331, 175.7256
174.1152, 196.8672
174.5973, 200.5967
175.0794, 187.3115
175.5615, 164.3965
176.0437, 132.6523
176.5258, 96.62500
177.0079, 66.28516
177.4900, 47.55273
177.9721, 35.11914
178.4542, 22.52832
178.9364, 10.08105
179.4185, 3.161133
179.9006, 18.09766
180.3827, 33.94824
180.8648, 46.18555
181.3469, 52.24512
181.8291, 53.53516
182.3112, 49.36816
182.7933, 37.77832
183.2754, 28.77441
183.7575, 39.29785
184.2396, 66.43750
184.7218, 90.25098
185.2039, 99.15332
185.6860, 95.17090
186.1681, 84.54883
186.6502, 67.90332
187.1323, 46.83105
187.6144, 5.361328
188.0966, 43.62402
188.5787, 80.75684
189.0608, 81.71680
189.5429, 52.67188
190.0250, 41.39258
190.5071, 63.75781
190.9893, 103.1016
191.4714, 116.1768
191.9535, 101.4307
192.4356, 76.95410
192.9177, 53.50293
193.3998, 31.03125
193.8820, 20.49805
194.3641, 29.06738
194.8462, 52.83203
195.3283, 72.16992
195.8104, 86.80957
196.2925, 98.14746
196.7747, 105.6230
197.2568, 108.9951
197.7389, 115.5137
198.2210, 128.8164
198.7031, 148.1436
199.1852, 162.7471
199.6674, 171.3506
200.1495, 177.3921
200.6316, 185.2773
201.1137, 195.0410
201.5958, 205.6455
202.0779, 217.7163
202.5601, 231.5557
203.0422, 240.7891
203.5243, 243.5439
204.0064, 244.6216
204.4885, 255.1104
204.9706, 279.2681
205.4528, 296.3340
205.9349, 292.5664
206.4170, 262.0220
206.8991, 246.8237
207.3812, 251.4800
207.8633, 268.9473
208.3455, 284.8564
208.8276, 301.2793
209.3097, 311.4072
209.7918, 308.6704
210.2739, 287.7383
210.7560, 274.7729
211.2382, 271.9097
211.7203, 278.1460
212.2024, 291.8999
212.6845, 316.8789
213.1666, 341.2407
213.6487, 358.9395
214.1309, 372.3672
214.6130, 369.6665
215.0951, 341.0806
215.5772, 293.6001
216.0593, 272.5337
216.5414, 289.4126
217.0236, 314.8560
217.5057, 325.2388
217.9878, 314.5659
218.4699, 303.8745
218.9520, 293.7549
219.4341, 284.6714
219.9162, 291.7124
220.3984, 325.1968
220.8805, 362.2104
221.3626, 380.1377
221.8447, 370.0601
222.3268, 359.4180
222.8089, 350.5811
223.2911, 343.4458
223.7732, 349.3936
224.2553, 372.4155
224.7374, 404.3662
225.2195, 438.3774
225.7016, 483.3208
226.1838, 512.6279
226.6659, 513.6621
227.1480, 480.3140
227.6301, 465.7793
228.1122, 479.7495
228.5943, 504.4243
229.0765, 514.6138
229.5586, 500.0142
230.0407, 488.9326
230.5228, 491.4873
231.0049, 513.6294
231.4870, 524.5571
231.9692, 517.7124
232.4513, 503.9746
232.9334, 502.3721
233.4155, 523.2314
233.8976, 539.4023
234.3797, 538.4395
234.8619, 508.5054
235.3440, 500.7754
235.8261, 527.3052
236.3082, 570.4194
236.7903, 594.2798
237.2724, 588.9521
237.7546, 579.0884
238.2367, 573.8027
238.7188, 577.4023
239.2009, 576.5864
239.6830, 571.6680
240.1651, 562.5220
240.6473, 547.3662
241.1294, 517.8096
241.6115, 493.0894
242.0936, 482.1152
242.5757, 494.1914
243.0578, 501.2622
243.5400, 504.8311
244.0221, 504.6021
244.5042, 498.1094
244.9863, 483.2134
245.4684, 466.3608
245.9505, 447.6357
246.4327, 420.5479
246.9148, 404.3452
247.3969, 401.1631
247.8790, 409.4214
248.3611, 424.5630
248.8432, 453.5205
249.3253, 479.3936
249.8075, 491.6548
250.2896, 482.4805
250.7717, 477.5254
251.2538, 478.3140
251.7359, 484.1191
252.2180, 492.8696
252.7002, 506.5913
253.1823, 520.4644
253.6644, 531.3486
254.1465, 537.5859
254.6286, 544.2388
255.1107, 552.2827
255.5929, 560.9336
256.0750, 566.4990
256.5571, 568.4844
257.0392, 568.1904
257.5213, 564.3052
258.0034, 550.0029
258.4856, 549.9336
258.9677, 574.6128
259.4498, 617.2520
259.9319, 637.9771
260.4140, 628.9541
260.8961, 611.6465
261.3783, 600.9536
261.8604, 598.9727
262.3425, 595.4082
262.8246, 588.2793
263.3067, 578.8335
263.7888, 573.0942
264.2710, 571.5869
264.7531, 573.4487
265.2352, 579.1084
265.7173, 590.6279
266.1994, 598.2710
266.6815, 597.8667
267.1637, 591.9189
267.6458, 599.5239
268.1279, 628.6567
268.6100, 654.3101
269.0921, 651.0845
269.5742, 607.7256
270.0564, 583.0420
270.5385, 589.2114
271.0206, 620.8931
271.5027, 650.7539
271.9848, 680.6758
272.4669, 703.9858
272.9491, 712.8584
273.4312, 704.8760
273.9133, 699.9658
274.3954, 703.5288
274.8775, 712.3140
275.3596, 709.7773
275.8418, 693.1733
276.3239, 674.9316
276.8060, 665.7485
277.2881, 666.9321
277.7702, 671.5732
278.2523, 679.0713
278.7345, 687.6729
279.2166, 690.4722
279.6987, 685.7007
280.1808, 685.1919
280.6629, 702.4609
281.1451, 737.8770
281.6272, 765.3823
282.1093, 779.9624
282.5914, 782.9731
283.0735, 775.7905
283.5556, 756.3618
284.0378, 739.7461
284.5199, 742.6011
285.0020, 763.4370
285.4841, 774.1929
285.9662, 765.0391
286.4483, 745.8193
286.9305, 746.8306
287.4126, 769.7124
287.8947, 792.7837
288.3768, 798.0317
288.8589, 788.0171
289.3410, 778.5298
289.8232, 774.4775
290.3053, 770.2104
290.7874, 749.2422
291.2695, 711.9526
291.7516, 678.3276
292.2337, 667.4521
292.7159, 674.7808
293.1980, 681.6177
293.6801, 684.2280
294.1622, 684.3267
294.6443, 686.8013
295.1264, 691.1143
295.6085, 690.6040
296.0906, 669.5059
296.5728, 638.0806
297.0549, 627.3081
297.5370, 652.0811
298.0191, 687.9907
298.5012, 697.7173
298.9833, 683.9229
299.4655, 668.1504
299.9476, 670.6396
300.4297, 680.1782
300.9118, 674.5005
301.3939, 644.0591
301.8760, 610.0283
302.3582, 593.9800
302.8403, 593.8516
303.3224, 602.8628
303.8045, 630.2798
304.2866, 660.8032
304.7687, 671.1519
305.2509, 650.0884
305.7330, 623.8291
306.2151, 620.1191
306.6972, 632.0293
307.1793, 637.9370
307.6614, 614.1953
308.1436, 582.2778
308.6257, 564.2808
309.1078, 568.0684
309.5899, 575.0449
310.0720, 574.8247
310.5541, 568.6597
311.0363, 559.0977
311.5184, 544.7437
312.0005, 529.7319
312.4826, 516.4819
312.9647, 505.4790
313.4468, 497.0234
313.9290, 489.8652
314.4111, 487.0610
314.8932, 492.9409
315.3753, 524.5962
315.8574, 552.9102
316.3395, 560.4629
316.8217, 542.6299
317.3038, 519.6997
317.7859, 487.2705
318.2680, 456.6475
318.7501, 444.3589
319.2322, 471.2808
319.7144, 503.5034
320.1965, 528.9214
320.6786, 547.1367
321.1607, 555.5469
321.6428, 545.8467
322.1249, 528.0977
322.6071, 514.4517
323.0892, 508.7480
323.5713, 505.4102
324.0534, 503.5049
324.5355, 503.7500
325.0176, 500.5415
325.4998, 491.6255
325.9819, 479.9946
326.4640, 468.5332
326.9461, 453.5859
327.4282, 442.0005
327.9103, 436.9873
328.3925, 440.0898
328.8746, 440.8374
329.3567, 441.6553
329.8388, 438.4839
330.3209, 426.7925
330.8030, 395.0093
331.2852, 373.3506
331.7673, 369.3779
332.2494, 381.8086
332.7315, 392.7407
333.2136, 404.2241
333.6957, 410.0068
334.1779, 403.1138
334.6600, 372.2432
335.1421, 356.1860
335.6242, 366.5337
336.1063, 396.2559
336.5884, 408.4292
337.0706, 395.8711
337.5527, 379.5542
338.0348, 372.0874
338.5169, 374.7095
338.9990, 380.5142
339.4811, 390.8286
339.9633, 402.4800
340.4454, 407.1943
340.9275, 403.8931
341.4096, 397.8965
341.8917, 392.8530
342.3738, 389.1040
342.8560, 385.4824
343.3381, 381.2656
343.8202, 376.7871
344.3023, 374.1016
344.7844, 373.1118
345.2665, 370.1289
345.7487, 358.8745
346.2308, 342.6997
346.7129, 338.9824
347.1950, 350.4600
347.6771, 364.9150
348.1592, 367.2773
348.6414, 358.4888
349.1235, 342.3447
349.6056, 315.3975
350.0877, 283.5674
350.5698, 258.9346
351.0519, 242.0996
351.5341, 227.8135
352.0162, 206.3398
352.4983, 183.6152
352.9804, 172.0244
353.4625, 189.3203
353.9446, 211.6230
354.4268, 209.9053
354.9089, 185.4102
355.3910, 159.1387
355.8731, 139.4170
356.3552, 127.6904
356.8373, 126.7676
357.3195, 150.7588
357.8015, 171.1191
358.2837, 162.6387
358.7658, 131.3750
359.2479, 106.0967
359.7300, 109.6748
360.2121, 120.3281
360.6942, 121.9121
361.1764, 106.0039
361.6585, 88.69727
362.1406, 77.22852
362.6227, 69.32715
363.1048, 58.43945
363.5869, 37.74902
364.0691, 17.90234
364.5512, 3.232422
365.0333, 8.898438
365.5154, 8.976563
365.9975, 13.39062
366.4796, 47.12891
366.9618, 73.74707
367.4439, 91.86621
367.9260, 100.4980
368.4081, 94.77637
368.8902, 68.16699
369.3723, 52.53027
369.8545, 61.66699
370.3366, 73.18164
370.8187, 58.92383
371.3008, 15.13965
371.7829, 60.99707
372.2650, 49.68262
372.7472, 19.27344
373.2293, 55.78906
373.7114, 52.33496
374.1935, 26.73242
374.6756, 12.10059
375.1577, 72.97070
375.6399, 112.8682
376.1220, 118.4004
376.6041, 99.13477
377.0862, 94.48242
377.5683, 107.8613
378.0504, 122.9453
378.5326, 127.9189
379.0147, 122.7725
379.4968, 122.7061
379.9789, 132.4775
380.4610, 144.4482
380.9431, 141.7793
381.4253, 124.5596
381.9074, 108.4893
382.3895, 105.1992
382.8716, 110.3213
383.3537, 111.0195
383.8358, 105.7529
384.3180, 98.10449
384.8001, 81.39746
385.2822, 62.42090
385.7643, 62.31250
386.2464, 110.2988
386.7285, 173.0918
387.2107, 200.9805
387.6928, 192.5283
388.1749, 184.1836
388.6570, 205.0693
389.1391, 242.5859
389.6212, 279.8125
390.1034, 320.5352
390.5855, 349.5010
391.0676, 352.1260
391.5497, 331.3623
392.0318, 306.2373
392.5139, 271.0371
392.9961, 243.5742
393.4782, 237.9150
393.9603, 275.6104
394.4424, 306.4033
394.9245, 312.8223
395.4066, 301.0000
395.8888, 286.5576
396.3709, 272.4922
396.8530, 255.6992
397.3351, 235.8945
397.8172, 216.3408
398.2993, 185.6855
398.7815, 130.7266
399.2636, 68.96582
399.7457, 24.81836
400.2278, 33.73633
400.7099, 16.01270
401.1920, 54.29297
401.6742, 179.9141
402.1563, 287.4385
402.6384, 360.2715
403.1205, 434.9414
403.6026, 549.8008
404.0847, 720.5410
404.5669, 874.1338
405.0490, 993.3184
405.5311, 1088.942
406.0132, 1203.672
406.4953, 1335.859
406.9774, 1485.514
407.4596, 1656.918
407.9417, 1850.388
408.4238, 2041.983
408.9059, 2227.680
409.3880, 2413.521
409.8701, 2603.502
410.3523, 2799.295
410.8344, 3008.253
411.3165, 3242.120
411.7986, 3496.742
412.2807, 3752.350
412.7628, 4010.704
413.2450, 4265.508
413.7271, 4509.510
414.2092, 4743.684
414.6913, 4968.013
415.1734, 5173.093
415.6555, 5374.651
416.1377, 5595.445
416.6198, 5831.547
417.1019, 6042.488
417.5840, 6200.894
418.0661, 6331.061
418.5482, 6452.073
419.0303, 6569.311
419.5125, 6678.780
419.9946, 6789.687
420.4767, 6893.011
420.9588, 6965.334
421.4409, 7012.882
421.9230, 7017.581
422.4052, 6962.479
422.8873, 6822.252
423.3694, 6698.055
423.8515, 6632.844
424.3336, 6581.177
424.8157, 6486.754
425.2979, 6308.385
425.7800, 6138.926
426.2621, 5999.107
426.7442, 5888.380
427.2263, 5757.982
427.7084, 5594.471
428.1906, 5430.311
428.6727, 5282.988
429.1548, 5146.422
429.6369, 5042.451
430.1190, 4987.270
430.6011, 4964.467
431.0833, 4912.553
431.5654, 4821.213
432.0475, 4752.297
432.5296, 4745.811
433.0117, 4794.141
433.4938, 4842.334
433.9760, 4890.514
434.4581, 4937.520
434.9402, 4969.369
435.4223, 4992.123
435.9044, 5038.029
436.3865, 5126.752
436.8687, 5242.008
437.3508, 5357.213
437.8329, 5472.822
438.3150, 5599.430
438.7971, 5733.400
439.2792, 5889.352
439.7614, 6086.158
440.2435, 6345.158
440.7256, 6617.361
441.2077, 6857.020
441.6898, 7085.100
442.1719, 7353.836
442.6541, 7701.059
443.1362, 8084.936
443.6183, 8475.314
444.1004, 8865.412
444.5825, 9286.170
445.0646, 9763.305
445.5468, 10274.22
446.0289, 10792.11
446.5110, 11264.99
446.9931, 11797.81
447.4752, 12439.25
447.9573, 13174.32
448.4395, 13868.74
448.9216, 14474.84
449.4037, 15089.25
449.8858, 15776.13
450.3679, 16554.67
450.8500, 17327.14
451.3322, 18095.49
451.8143, 18844.16
452.2964, 19582.44
452.7785, 20317.15
453.2606, 21022.14
453.7427, 21694.88
454.2249, 22331.05
454.7070, 22947.95
455.1891, 23552.54
455.6712, 24118.59
456.1533, 24624.41
456.6354, 25071.09
457.1176, 25470.53
457.5997, 25826.97
458.0818, 26130.04
458.5639, 26377.59
459.0460, 26563.98
459.5281, 26640.62
460.0103, 26533.96
460.4924, 26324.39
460.9745, 26106.31
461.4566, 25908.32
461.9387, 25631.23
462.4208, 25186.35
462.9030, 24625.91
463.3851, 24046.89
463.8672, 23471.14
464.3493, 22877.57
464.8314, 22250.36
465.3135, 21592.08
465.7957, 20935.97
466.2778, 20280.50
466.7599, 19641.13
467.2420, 19027.93
467.7241, 18452.16
468.2062, 17888.46
468.6884, 17325.46
469.1705, 16780.50
469.6526, 16288.27
470.1347, 15862.69
470.6168, 15469.35
471.0989, 15088.83
471.5811, 14722.34
472.0632, 14418.64
472.5453, 14184.89
473.0274, 13993.16
473.5095, 13818.54
473.9916, 13659.11
474.4738, 13509.89
474.9559, 13364.93
475.4380, 13233.07
475.9201, 13144.47
476.4022, 13094.05
476.8843, 13043.05
477.3665, 12950.98
477.8486, 12846.37
478.3307, 12782.13
478.8128, 12772.38
479.2949, 12760.12
479.7770, 12698.01
480.2592, 12603.94
480.7413, 12505.95
481.2234, 12393.18
481.7055, 12298.24
482.1876, 12253.55
482.6697, 12252.46
483.1518, 12226.33
483.6339, 12113.89
484.1161, 11997.85
484.5982, 11929.59
485.0803, 11959.11
485.5624, 11965.05
486.0445, 11920.33
486.5266, 11856.34
487.0088, 11828.67
487.4909, 11854.06
487.9730, 11888.31
488.4551, 11921.65
488.9372, 11954.02
489.4193, 11986.77
489.9015, 12020.66
490.3836, 12054.65
490.8657, 12088.28
491.3478, 12121.12
491.8299, 12152.58
492.3120, 12176.71
492.7942, 12210.05
493.2763, 12304.44
493.7584, 12446.61
494.2405, 12554.60
494.7226, 12563.61
495.2047, 12519.02
495.6869, 12492.66
496.1690, 12487.66
496.6511, 12479.44
497.1332, 12443.11
497.6153, 12393.58
498.0974, 12352.46
498.5796, 12361.64
499.0617, 12344.45
499.5438, 12231.54
500.0259, 12053.62
500.5080, 11906.77
500.9901, 11872.28
501.4723, 11846.16
501.9544, 11768.97
502.4365, 11600.27
502.9186, 11476.20
503.4007, 11433.38
503.8828, 11420.96
504.3650, 11383.15
504.8471, 11293.44
505.3292, 11224.86
505.8113, 11194.89
506.2934, 11194.91
506.7755, 11181.27
507.2577, 11145.55
507.7398, 11121.37
508.2219, 11145.23
508.7040, 11213.29
509.1861, 11250.18
509.6682, 11247.74
510.1504, 11238.27
510.6325, 11256.36
511.1146, 11301.44
511.5967, 11368.85
512.0788, 11473.54
512.5609, 11580.37
513.0430, 11643.85
513.5251, 11674.94
514.0073, 11711.72
514.4894, 11774.11
514.9715, 11846.19
515.4536, 11921.62
515.9357, 12003.88
516.4178, 12068.60
516.9000, 12116.15
517.3821, 12136.44
517.8642, 12119.99
518.3463, 12060.96
518.8284, 11969.22
519.3105, 11834.93
519.7927, 11664.63
520.2748, 11496.82
520.7569, 11342.93
521.2390, 11175.38
521.7211, 10976.73
522.2032, 10741.91
522.6854, 10517.98
523.1675, 10319.21
523.6496, 10105.64
524.1317, 9809.234
524.6138, 9433.445
525.0959, 9079.422
525.5781, 8778.166
526.0602, 8504.727
526.5423, 8212.889
527.0244, 7909.041
527.5065, 7600.422
527.9886, 7285.012
528.4708, 6972.709
528.9529, 6669.020
529.4350, 6377.312
529.9171, 6094.797
530.3992, 5816.127
530.8813, 5551.572
531.3635, 5309.342
531.8456, 5127.811
532.3277, 4933.652
532.8098, 4693.896
533.2919, 4421.395
533.7740, 4178.586
534.2562, 3988.344
534.7383, 3808.293
535.2204, 3621.154
535.7025, 3425.615
536.1846, 3231.240
536.6667, 3027.229
537.1489, 2837.066
537.6310, 2690.475
538.1131, 2594.898
538.5952, 2481.146
539.0773, 2329.188
539.5594, 2159.986
540.0416, 2018.914
540.5237, 1903.078
541.0058, 1792.232
541.4879, 1679.697
541.9700, 1563.451
542.4521, 1434.223
542.9343, 1291.850
543.4164, 1159.787
543.8985, 1062.316
544.3806, 982.0000
544.8627, 899.0742
545.3448, 798.7930
545.8270, 710.5176
546.3091, 659.4238
546.7912, 628.9258
547.2733, 584.8047
547.7554, 505.3867
548.2375, 426.0488
548.7197, 358.0039
549.2018, 301.7402
549.6839, 238.8809
550.1660, 149.9121
550.6481, 80.13086
551.1302, 73.36328
551.6124, 150.5723
552.0945, 178.2266
552.5766, 136.7324
553.0587, 60.13086
553.5408, 2.179688
554.0229, 50.63086
554.5051, 84.33203
554.9872, 91.35352
555.4693, 91.18164
555.9514, 132.8555
556.4335, 210.2402
556.9156, 269.2656
557.3978, 236.5703
557.8799, 185.5410
558.3620, 207.0117
558.8441, 335.0664
559.3262, 439.3945
559.8083, 425.2266
560.2905, 362.0938
560.7726, 331.0547
561.2547, 389.9453
561.7368, 437.8633
562.2189, 445.5312
562.7010, 424.2578
563.1832, 420.0430
563.6653, 453.0176
564.1474, 472.3848
564.6295, 449.6309
565.1116, 378.8867
565.5938, 345.8809
566.0759, 361.9082
566.5580, 385.0898
567.0401, 367.7129
567.5222, 315.2461
568.0043, 273.4941
568.4865, 254.1934
568.9686, 243.7578
569.4507, 222.0625
569.9328, 193.0918
570.4149, 167.2305
570.8970, 161.8398
571.3792, 153.9102
571.8613, 120.6289
572.3434, 62.79688
572.8255, 4.896484
573.3076, 41.59961
573.7897, 83.94141
574.2719, 127.4258
574.7540, 179.0918
575.2361, 219.7910
575.7182, 232.0352
576.2003, 239.9336
576.6824, 274.7422
577.1646, 349.9551
577.6467, 423.4375
578.1288, 486.3477
578.6109, 542.0371
579.0930, 607.0547
579.5751, 683.0957
580.0573, 755.5645
580.5394, 809.0098
581.0215, 851.6230
581.5036, 913.2012
581.9857, 994.2266
582.4678, 1087.004
582.9500, 1193.455
583.4321, 1304.527
583.9142, 1402.305
584.3963, 1475.898
584.8784, 1547.229
585.3605, 1621.945
585.8427, 1704.113
586.3248, 1801.061
586.8069, 1917.066
587.2890, 2046.707
587.7711, 2198.326
588.2532, 2372.248
588.7354, 2521.252
589.2175, 2626.053
589.6996, 2730.826
590.1817, 2859.682
590.6638, 3015.678
591.1459, 3184.875
591.6281, 3370.561
592.1102, 3561.336
592.5923, 3739.564
593.0744, 3907.510
593.5565, 4084.330
594.0386, 4278.270
594.5208, 4479.115
595.0029, 4677.162
595.4850, 4868.840
595.9671, 5050.178
596.4492, 5189.744
596.9313, 5338.271
597.4135, 5556.301
597.8956, 5842.705
598.3777, 6105.652
598.8598, 6295.982
599.3419, 6461.998
599.8240, 6633.100
600.3062, 6810.467
600.7883, 7003.768
601.2704, 7212.324
601.7525, 7433.355
602.2346, 7665.814
602.7167, 7915.977
603.1989, 8145.611
603.6810, 8338.496
604.1631, 8508.477
604.6452, 8706.482
605.1273, 8927.762
605.6094, 9158.041
606.0916, 9411.682
606.5737, 9660.092
607.0558, 9843.805
607.5379, 9959.678
608.0200, 10058.87
608.5021, 10169.33
608.9843, 10287.23
609.4664, 10412.22
609.9485, 10559.98
610.4306, 10683.91
610.9127, 10753.12
611.3948, 10794.57
611.8770, 10843.96
612.3591, 10936.92
612.8412, 11004.73
613.3233, 11032.55
613.8054, 11027.12
614.2875, 11026.27
614.7697, 11039.65
615.2518, 11036.49
615.7339, 10994.26
616.2160, 10911.97
616.6981, 10819.57
617.1802, 10716.93
617.6624, 10618.49
618.1445, 10546.49
618.6266, 10481.14
619.1087, 10381.55
619.5908, 10239.24
620.0729, 10073.38
620.5551, 9895.062
621.0372, 9704.947
621.5193, 9504.012
622.0014, 9282.316
622.4835, 9066.600
622.9656, 8874.670
623.4478, 8698.543
623.9299, 8506.473
624.4120, 8294.676
624.8941, 8080.479
625.3762, 7871.117
625.8583, 7664.990
626.3405, 7445.908
626.8226, 7204.824
627.3047, 6970.938
627.7868, 6772.977
628.2689, 6606.428
628.7510, 6447.514
629.2332, 6297.020
629.7153, 6139.586
630.1974, 5948.691
630.6795, 5736.785
631.1616, 5531.713
631.6437, 5354.604
632.1259, 5170.475
632.6080, 4949.305
633.0901, 4708.223
633.5722, 4485.068
634.0543, 4282.746
634.5364, 4103.680
635.0186, 3966.270
635.5006, 3873.582
635.9827, 3739.133
636.4648, 3525.020
636.9470, 3324.930
637.4291, 3207.209
637.9112, 3179.223
638.3933, 3133.445
638.8754, 3063.305
639.3575, 2976.004
639.8397, 2864.281
640.3218, 2744.010
640.8039, 2660.555
641.2860, 2629.453
641.7681, 2621.697
642.2502, 2615.787
642.7324, 2615.189
643.2145, 2624.529
643.6966, 2664.176
644.1787, 2692.930
644.6608, 2689.086
645.1429, 2657.270
645.6251, 2636.824
646.1072, 2639.973
646.5893, 2643.201
647.0714, 2631.926
647.5535, 2603.406
648.0356, 2615.389
648.5178, 2679.059
648.9999, 2747.457
649.4820, 2770.166
649.9641, 2757.701
650.4462, 2772.660
650.9283, 2828.877
651.4105, 2883.867
651.8926, 2885.270
652.3747, 2853.934
652.8568, 2826.129
653.3389, 2806.115
653.8210, 2802.619
654.3032, 2832.031
654.7853, 2881.539
655.2674, 2919.479
655.7495, 2946.516
656.2316, 2950.740
656.7137, 2925.018
657.1959, 2871.539
657.6780, 2813.469
658.1601, 2746.336
658.6422, 2685.656
659.1243, 2643.877
659.6064, 2619.527
660.0886, 2590.982
660.5707, 2558.812
661.0528, 2516.350
661.5349, 2452.918
662.0170, 2375.410
662.4991, 2294.848
662.9813, 2211.383
663.4634, 2133.008
663.9455, 2075.178
664.4276, 2022.512
664.9097, 1954.287
665.3918, 1844.748
665.8740, 1741.299
666.3561, 1654.654
666.8382, 1580.789
667.3203, 1515.064
667.8024, 1466.869
668.2845, 1404.682
668.7667, 1312.318
669.2488, 1198.066
669.7309, 1106.545
670.2130, 1039.021
670.6951, 986.2344
671.1772, 956.1152
671.6594, 933.6680
672.1415, 883.5254
672.6236, 803.6738
673.1057, 726.5078
673.5878, 680.6562
674.0699, 645.2109
674.5521, 598.9570
675.0342, 531.3223
675.5163, 466.7852
675.9984, 401.1406
676.4805, 345.3594
676.9626, 314.5703
677.4448, 328.5020
677.9269, 321.0000
678.4090, 274.3145
678.8911, 210.1562
679.3732, 181.9434
679.8553, 190.0273
680.3375, 183.6309
680.8196, 140.3203
681.3017, 73.87891
681.7838, 0.4667970
682.2659, 76.13867
682.7480, 139.7617
683.2302, 184.4590
683.7123, 209.6445
684.1944, 206.0254
684.6765, 172.4941
685.1586, 150.6035
685.6407, 154.1895
686.1229, 169.8281
686.6050, 192.7500
687.0871, 232.1816
687.5692, 247.9023
688.0513, 235.1133
688.5334, 207.7734
689.0156, 171.0156
689.4977, 127.0703
689.9798, 117.1055
690.4619, 157.8066
690.9440, 202.9883
691.4261, 175.4863
691.9083, 109.4102
692.3904, 81.98242
692.8725, 162.8691
693.3546, 240.2148
693.8367, 237.9570
694.3188, 182.8867
694.8010, 142.0332
695.2831, 157.0781
695.7652, 157.7520
696.2473, 114.1836
696.7294, 36.64453
697.2115, 4.199219
697.6937, 31.05078
698.1758, 60.09766
698.6579, 57.06445
699.1400, 29.70312
699.6221, 31.46875
700.1042, 63.13086
700.5864, 90.23438
701.0685, 82.99023
701.5506, 55.36719
702.0327, 25.64844
702.5148, 4.119141
702.9969, 33.85742
703.4791, 59.89844
703.9612, 88.23242
704.4433, 124.7168
704.9254, 191.3438
705.4075, 233.8398
705.8896, 241.9258
706.3718, 233.5977
706.8539, 228.8145
707.3360, 226.0371
707.8181, 243.4688
708.3002, 293.4824
708.7823, 351.5137
709.2645, 353.9570
709.7466, 319.0723
710.2287, 318.7363
710.7108, 417.5488
711.1929, 535.9570
711.6750, 604.6270
712.1572, 635.5352
712.6393, 669.5566
713.1214, 728.5352
713.6035, 787.3164
714.0856, 834.7871
714.5677, 871.9941
715.0499, 907.4824
715.5320, 937.1973
716.0141, 975.3672
716.4962, 1033.021
716.9783, 1110.664
717.4604, 1180.869
717.9426, 1244.766
718.4247, 1307.209
718.9068, 1361.887
719.3889, 1422.215
719.8710, 1519.258
720.3531, 1662.271
720.8353, 1802.449
721.3174, 1893.498
721.7995, 1971.301
722.2816, 2071.531
722.7637, 2239.297
723.2458, 2363.701
723.7280, 2401.072
724.2101, 2417.275
724.6922, 2514.047
725.1743, 2715.232
725.6564, 2853.236
726.1385, 2880.107
726.6207, 2864.363
727.1028, 2946.613
727.5849, 3100.951
728.0670, 3224.322
728.5491, 3254.783
729.0313, 3255.420
729.5134, 3265.127
729.9955, 3288.426
730.4776, 3337.371
730.9597, 3446.578
731.4418, 3552.625
731.9240, 3631.369
732.4061, 3686.346
732.8882, 3736.285
733.3703, 3776.721
733.8524, 3822.090
734.3345, 3881.189
734.8167, 3951.305
735.2988, 4017.693
735.7809, 4079.971
736.2630, 4135.803
736.7451, 4181.480
737.2272, 4219.996
737.7094, 4251.799
738.1915, 4276.738
738.6736, 4309.852
739.1557, 4382.918
739.6378, 4449.436
740.1199, 4472.395
740.6021, 4420.035
741.0842, 4395.055
741.5663, 4407.604
742.0484, 4440.330
742.5305, 4479.578
743.0126, 4525.574
743.4948, 4571.400
743.9769, 4616.758
744.4590, 4658.270
744.9411, 4686.943
745.4232, 4709.145
745.9053, 4740.092
746.3875, 4790.781
746.8696, 4836.295
747.3517, 4854.865
747.8338, 4855.865
748.3159, 4854.680
748.7980, 4857.275
749.2802, 4854.418
749.7623, 4837.500
750.2444, 4817.008
750.7265, 4822.855
751.2086, 4864.295
751.6907, 4885.896
752.1729, 4867.688
752.6550, 4827.105
753.1371, 4803.625
753.6192, 4792.188
754.1013, 4766.307
754.5834, 4682.811
755.0656, 4603.973
755.5477, 4582.725
756.0298, 4611.604
756.5119, 4645.721
756.9940, 4692.605
757.4761, 4721.992
757.9583, 4709.432
758.4403, 4658.496
758.9224, 4664.238
759.4045, 4741.016
759.8867, 4825.084
760.3688, 4873.039
760.8509, 4896.168
761.3330, 4942.252
761.8151, 5011.148
762.2972, 5098.723
762.7794, 5229.836
763.2615, 5360.686
763.7436, 5440.709
764.2257, 5458.123
764.7078, 5485.371
765.1899, 5548.768
765.6721, 5625.090
766.1542, 5696.645
766.6363, 5754.555
767.1184, 5848.389
767.6005, 5990.018
768.0826, 6135.199
768.5648, 6230.096
769.0469, 6286.750
769.5290, 6366.338
770.0111, 6479.176
770.4932, 6598.057
770.9753, 6689.299
771.4575, 6774.996
771.9396, 6883.070
772.4217, 7030.473
772.9038, 7179.258
773.3859, 7304.727
773.8680, 7434.932
774.3502, 7603.346
774.8323, 7824.176
775.3144, 8039.152
775.7965, 8247.064
776.2786, 8437.605
776.7607, 8587.195
777.2429, 8701.869
777.7250, 8811.945
778.2071, 8914.418
778.6892, 9036.684
779.1713, 9220.664
779.6534, 9439.912
780.1356, 9649.846
780.6177, 9866.707
781.0998, 10037.86
781.5819, 10114.51
782.0640, 10148.72
782.5461, 10240.70
783.0283, 10414.39
783.5104, 10569.02
783.9925, 10672.93
784.4746, 10757.25
784.9567, 10902.62
785.4388, 11098.48
785.9210, 11279.89
786.4031, 11397.74
786.8852, 11509.38
787.3673, 11674.70
787.8494, 11875.00
788.3315, 12054.44
788.8137, 12173.78
789.2958, 12292.48
789.7779, 12425.77
790.2600, 12569.64
790.7421, 12710.58
791.2242, 12846.53
791.7064, 12984.15
792.1885, 13136.12
792.6706, 13289.10
793.1527, 13393.05
793.6348, 13451.00
794.1169, 13504.93
794.5991, 13593.94
795.0812, 13679.04
795.5633, 13726.31
796.0454, 13738.99
796.5275, 13747.62
797.0096, 13771.09
797.4918, 13781.55
797.9739, 13757.68
798.4560, 13705.38
798.9381, 13717.85
799.4202, 13810.36
799.9023, 13883.80
800.3845, 13870.00
800.8666, 13795.93
801.3487, 13716.87
801.8308, 13634.57
802.3129, 13570.61
802.7950, 13559.33
803.2772, 13555.29
803.7593, 13536.43
804.2414, 13500.88
804.7235, 13419.40
805.2056, 13262.30
805.6877, 13097.57
806.1699, 12953.02
806.6520, 12828.23
807.1341, 12730.30
807.6162, 12662.96
808.0983, 12573.39
808.5804, 12407.98
809.0626, 12202.24
809.5447, 12005.14
810.0268, 11818.64
810.5089, 11633.13
810.9910, 11459.11
811.4731, 11271.52
811.9553, 11043.31
812.4374, 10757.76
812.9195, 10521.57
813.4016, 10348.98
813.8837, 10189.97
814.3658, 10015.44
814.8480, 9827.727
815.3301, 9649.920
815.8122, 9483.307
816.2943, 9296.719
816.7764, 9048.984
817.2585, 8780.781
817.7407, 8531.084
818.2228, 8307.459
818.7049, 8115.600
819.1870, 7983.246
819.6691, 7863.627
820.1512, 7731.475
820.6334, 7586.594
821.1155, 7433.604
821.5976, 7271.992
822.0797, 7105.705
822.5618, 6929.973
823.0439, 6751.730
823.5261, 6591.859
824.0082, 6451.303
824.4903, 6307.344
824.9724, 6142.705
825.4545, 5965.232
825.9366, 5770.029
826.4188, 5550.391
826.9009, 5362.350
827.3830, 5236.131
827.8651, 5113.814
828.3472, 4966.164
828.8293, 4788.992
829.3115, 4609.766
829.7936, 4428.213
830.2757, 4250.041
830.7578, 4092.096
831.2399, 3941.848
831.7220, 3776.600
832.2042, 3594.400
832.6863, 3424.270
833.1684, 3307.045
833.6505, 3194.295
834.1326, 3044.311
834.6147, 2845.275
835.0969, 2682.014
835.5790, 2561.238
836.0611, 2457.467
836.5432, 2354.951
837.0253, 2251.166
837.5074, 2134.947
837.9896, 2005.627
838.4717, 1880.166
838.9538, 1770.090
839.4359, 1670.201
839.9180, 1575.568
840.4001, 1486.633
840.8823, 1393.766
841.3644, 1286.799
841.8465, 1183.596
842.3286, 1093.723
842.8107, 1017.197
843.2928, 931.6484
843.7750, 836.2910
844.2571, 746.5762
844.7392, 678.4805
845.2213, 622.3203
845.7034, 566.9844
846.1855, 511.0898
846.6677, 440.3125
847.1498, 324.3945
847.6319, 214.0527
848.1140, 152.5703
848.5961, 145.2754
849.0782, 86.73438
849.5604, 50.20703
850.0425, 166.5098
850.5246, 194.1348
851.0067, 155.1582
851.4888, 157.4531
851.9709, 197.8516
852.4531, 230.7793
852.9352, 216.8770
853.4173, 193.8711
853.8994, 200.7207
854.3815, 236.2324
854.8636, 250.6699
855.3458, 212.7129
855.8279, 176.1660
856.3100, 159.1289
856.7921, 165.2695
857.2742, 183.7891
857.7563, 212.9004
858.2385, 228.7246
858.7206, 203.8105
859.2027, 165.3301
859.6848, 153.8516
860.1669, 163.4355
860.6490, 174.1445
861.1312, 183.3281
861.6133, 184.9805
862.0954, 170.6523
862.5775, 142.8418
863.0596, 122.3203
863.5417, 116.9062
864.0239, 105.3301
864.5060, 70.86914
864.9881, 27.67676
865.4702, 18.86816
865.9523, 35.08301
866.4344, 44.55469
866.9166, 25.00977
867.3987, 1.420898
867.8808, 22.08691
868.3629, 39.57812
868.8450, 62.09961
869.3271, 93.37305
869.8093, 125.4521
870.2914, 156.8203
870.7735, 185.7129
871.2556, 215.1367
871.7377, 244.2334
872.2198, 261.5352
872.7020, 254.9580
873.1841, 248.6660
873.6662, 273.0029
874.1483, 313.5264
874.6304, 347.1514
875.1125, 373.0566
875.5947, 382.5537
876.0768, 367.4922
876.5589, 342.2227
877.0410, 326.8740
877.5231, 323.0459
878.0052, 321.4951
878.4874, 321.4111
878.9695, 319.1230
879.4516, 312.2900
879.9337, 299.9844
880.4158, 279.5439
880.8979, 246.0361
881.3801, 213.6162
881.8622, 182.8086
882.3442, 157.0615
882.8264, 140.6191
883.3085, 137.6904
883.7906, 128.2227
884.2727, 111.4541
884.7548, 88.60645
885.2369, 56.41895
885.7191, 20.84668
886.2012, 5.009766
886.6833, 18.76270
887.1654, 21.33398
887.6475, 4.051758
888.1296, 28.32129
888.6118, 22.61816
889.0939, 23.30371
889.5760, 32.76758
890.0581, 8.495117
890.5402, 52.00488
891.0223, 59.98926
891.5045, 42.99121
891.9866, 48.71289
892.4687, 77.14062
892.9508, 105.8643
893.4329, 105.8135
893.9150, 112.6807
894.3972, 158.7969
894.8793, 243.6660
895.3614, 314.4297
895.8435, 361.6367
896.3256, 404.3105
896.8077, 451.0908
897.2899, 497.9756
897.7720, 522.5977
898.2541, 528.0312
898.7362, 541.7822
899.2183, 591.9375
899.7004, 645.5439
900.1826, 673.3193
900.6647, 681.6846
901.1468, 688.5674
901.6289, 703.2334
902.1110, 711.0156
902.5931, 713.8857
903.0753, 706.1992
903.5574, 667.0576
904.0395, 600.0059
904.5216, 555.3467
905.0037, 555.5586
905.4858, 564.3584
905.9680, 543.9561
906.4501, 504.0889
906.9322, 458.8164
907.4143, 400.9688
907.8964, 350.9902
908.3785, 321.8965
908.8607, 300.1094
909.3428, 263.6348
909.8249, 209.2910
910.3070, 169.5225
910.7891, 150.1631
911.2712, 143.4619
911.7534, 154.2305
912.2355, 161.8232
912.7176, 129.8887
913.1997, 44.82910
913.6818, 3.556641
914.1639, 52.04980
914.6461, 114.8496
915.1282, 129.7686
915.6103, 93.82617
916.0924, 68.05957
916.5745, 55.70020
917.0566, 46.88770
917.5388, 32.85352
918.0209, 16.46484
918.5030, 5.656250
918.9851, 0.2294920
919.4672, 11.08984
919.9493, 54.56055
920.4315, 75.24023
920.9136, 39.21973
921.3957, 35.00879
921.8778, 68.75488
922.3599, 57.20605
922.8420, 49.74902
923.3242, 61.97266
923.8063, 82.99707
924.2884, 100.3022
924.7705, 115.8882
925.2526, 131.0977
925.7347, 160.9116
926.2169, 171.3931
926.6990, 128.7217
927.1811, 72.93164
927.6632, 60.82959
928.1453, 102.8862
928.6274, 132.7617
929.1096, 140.9790
929.5917, 141.4966
930.0738, 151.6074
930.5559, 166.0171
931.0380, 174.6899
931.5201, 175.3545
932.0023, 174.3306
932.4844, 170.0923
932.9665, 168.4531
933.4486, 174.4990
933.9307, 190.8232
934.4128, 192.8252
934.8950, 177.8071
935.3771, 165.7539
935.8592, 176.2793
936.3413, 197.8433
936.8234, 210.3130
937.3055, 214.5337
937.7877, 221.9580
938.2698, 240.8398
938.7519, 260.6006
939.2340, 277.1484
939.7161, 290.8149
940.1982, 303.1138
940.6804, 313.9751
941.1625, 322.7715
941.6446, 328.6929
942.1267, 333.2124
942.6088, 338.8525
943.0909, 344.7852
943.5731, 349.8281
944.0552, 352.1045
944.5373, 356.8350
945.0194, 373.2168
945.5015, 390.2373
945.9836, 390.7930
946.4658, 370.8311
946.9479, 354.5020
947.4300, 346.5498
947.9121, 344.8687
948.3942, 345.3848
948.8763, 346.1821
949.3585, 345.1519
949.8406, 343.0005
950.3227, 343.0278
950.8048, 350.5439
951.2869, 354.6328
951.7690, 349.1587
952.2512, 335.7896
952.7333, 331.4658
953.2154, 335.9097
953.6975, 338.2622
954.1796, 324.8579
954.6617, 310.6821
955.1439, 312.4131
955.6260, 328.6943
956.1081, 352.6841
956.5902, 397.1284
957.0723, 430.5459
957.5544, 445.4453
958.0366, 446.4536
958.5187, 441.4614
959.0008, 430.9497
959.4829, 423.4565
959.9650, 421.4868
960.4471, 421.8687
960.9293, 419.6899
961.4114, 417.8501
961.8935, 419.8481
962.3756, 426.9590
962.8577, 438.7715
963.3398, 458.7080
963.8220, 477.3604
964.3041, 485.5234
964.7862, 484.3477
965.2683, 485.1255
965.7504, 488.0283
966.2325, 494.1899
966.7147, 507.1978
967.1968, 520.1938
967.6789, 527.1304
968.1610, 528.5186
968.6431, 533.3716
969.1252, 551.4106
969.6074, 552.2368
970.0895, 516.2534
970.5716, 466.0068
971.0537, 467.5942
971.5358, 507.6675
972.0179, 539.6948
972.5001, 540.9023
972.9822, 530.6870
973.4643, 508.6279
973.9464, 485.9727
974.4285, 481.1489
974.9106, 507.8149
975.3928, 510.4668
975.8749, 480.4595
976.3570, 446.0996
976.8391, 435.1343
977.3212, 441.3999
977.8033, 456.1455
978.2855, 479.8042
978.7676, 492.4678
979.2497, 467.3398
979.7318, 442.2480
980.2139, 440.8828
980.6960, 459.6958
981.1782, 460.9019
981.6603, 442.1475
982.1424, 428.1255
982.6245, 433.3945
983.1066, 445.3945
983.5887, 447.6948
984.0709, 442.3345
984.5530, 433.6284
985.0351, 417.8281
985.5172, 406.8379
985.9993, 406.8794
986.4814, 410.0293
986.9636, 404.4795
987.4457, 390.5581
987.9278, 382.3345
988.4099, 381.2544
988.8920, 387.9395
989.3741, 408.8750
989.8563, 433.4619
990.3384, 454.7568
990.8205, 473.1162
991.3026, 468.8911
991.7847, 424.9375
992.2668, 390.1172
992.7490, 389.1392
993.2311, 412.6602
993.7132, 434.6353
994.1953, 452.6782
994.6774, 455.6523
995.1595, 422.6675
995.6417, 389.4346
996.1238, 377.6289
996.6059, 378.5400
997.0880, 376.0037
997.5701, 368.4043
998.0522, 362.9077
998.5344, 361.0684
999.0165, 357.8186
999.4986, 343.2942
999.9807, 324.1255
1000.463, 316.1221
1000.945, 322.3513
1001.427, 321.0520
1001.909, 286.8743
1002.391, 259.9624
1002.873, 266.5405
1003.356, 301.0332
1003.838, 303.5884
1004.320, 273.4038
1004.802, 249.1355
1005.284, 256.6028
1005.766, 271.2539
1006.248, 261.6533
1006.730, 239.7017
1007.212, 229.8220
1007.695, 251.4041
1008.177, 266.4312
1008.659, 271.8408
1009.141, 270.2456
1009.623, 259.5713
1010.105, 243.5571
1010.587, 242.3447
1011.069, 258.6638
1011.551, 275.5530
1012.034, 284.0630
1012.516, 286.4722
1012.998, 285.3655
1013.480, 280.8137
1013.962, 264.6960
1014.444, 232.8062
1014.926, 207.9739
1015.408, 202.9348
1015.891, 205.8962
1016.373, 194.5420
1016.855, 175.0439
1017.337, 160.7522
1017.819, 155.7295
1018.301, 158.6614
1018.783, 178.1409
1019.265, 197.7205
1019.747, 196.4885
1020.230, 174.3789
1020.712, 173.4431
1021.194, 196.8940
1021.676, 218.8987
1022.158, 217.1804
1022.640, 205.2219
1023.122, 190.2969
1023.604, 174.1086
1024.087, 174.4761
1024.569, 205.8281
1025.051, 221.6516
1025.533, 203.7207
1026.015, 168.0808
1026.497, 144.4392
1026.979, 132.0911
1027.461, 130.7629
1027.943, 147.8911
1028.426, 158.4307
1028.908, 143.3025
1029.390, 122.5439
1029.872, 115.2217
1030.354, 124.8049
1030.836, 123.3794
1031.318, 109.8821
1031.800, 98.45264
1032.282, 104.6211
1032.765, 116.2815
1033.247, 118.3528
1033.729, 111.4929
1034.211, 103.6187
1034.693, 95.19116
1035.175, 90.66357
1035.657, 92.47314
1036.139, 97.32495
1036.622, 98.47144
1037.104, 96.07007
1037.586, 90.66943
1038.068, 81.41089
1038.550, 74.44312
1039.032, 76.88281
1039.514, 80.68750
1039.996, 78.27051
1040.479, 68.69263
1040.961, 68.22461
1041.443, 77.80542
1041.925, 88.23071
1042.407, 95.74365
1042.889, 100.4119
1043.371, 100.9495
1043.853, 99.20435
1044.335, 98.80054
1044.818, 106.2400
1045.300, 104.9177
1045.782, 86.45996
1046.264, 68.44629
1046.746, 78.38062
1047.228, 108.7808
1047.710, 119.4661
1048.192, 105.6399
1048.674, 89.25000
1049.157, 87.33838
1049.639, 86.22705
1050.121, 73.14014
1050.603, 51.08374
1051.085, 43.47388
1051.567, 52.67944
1052.049, 61.25977
1052.531, 62.82104
1053.014, 62.09277
1053.496, 70.10693
1053.978, 79.19287
1054.460, 75.49438
1054.942, 43.68823
1055.424, 25.18091
1055.906, 28.52661
1056.388, 37.39111
1056.870, 38.73511
1057.353, 34.60229
1057.835, 38.29419
1058.317, 48.48950
1058.799, 54.86450
1059.281, 47.82031
1059.763, 38.88867
1060.245, 32.73926
1060.727, 29.49390
1061.209, 30.39526
1061.692, 36.32910
1062.174, 37.02319
1062.656, 29.43628
1063.138, 23.71729
1063.620, 36.91650
1064.102, 54.97021
1064.584, 59.70630
1065.066, 47.75366
1065.549, 36.61353
1066.031, 27.72534
1066.513, 20.74072
1066.995, 15.23096
1067.477, 11.76562
1067.959, 13.18652
1068.441, 18.21606
1068.923, 22.81592
1069.405, 26.12231
1069.888, 27.48193
1070.370, 24.22241
1070.852, 20.05688
1071.334, 18.68896
1071.816, 20.05420
1072.298, 26.29468
1072.780, 37.57373
1073.262, 45.16553
1073.745, 37.57397
1074.227, 28.01758
1074.709, 30.29175
1075.191, 41.12939
1075.673, 44.73340
1076.155, 38.90112
1076.637, 29.27759
1077.119, 15.42114
1077.601, 1.800293
1078.083, 9.158936
1078.566, 14.32275
1079.048, 3.198975
1079.530, 28.74512
1080.012, 48.08154
1080.494, 30.44995
1080.976, 11.76929
1081.458, 6.213867
1081.940, 10.76953
1082.423, 12.41602
1082.905, 11.57520
1083.387, 11.76074
1083.869, 17.07666
1084.351, 19.01953
1084.833, 7.419678
1085.315, 7.310791
1085.797, 12.97583
1086.280, 8.713379
1086.762, 1.711914
1087.244, 8.457520
1087.726, 18.48755
1088.208, 31.97998
1088.690, 39.55591
1089.172, 23.74146
1089.654, 8.584961
1090.136, 30.72437
1090.619, 38.56323
1091.101, 31.96021
1091.583, 3.969238
1092.065, 24.18970
1092.547, 19.17944
1093.029, 7.319580
1093.511, 29.22168
1093.993, 42.93701
1094.475, 49.91113
1094.958, 48.35303
1095.440, 42.24976
1095.922, 31.01758
1096.404, 17.45508
1096.886, 14.15894
1097.368, 19.71729
1097.850, 21.94116
1098.332, 16.43457
1098.815, 8.180664
1099.297, 4.677979
1099.779, 14.75073
1100.261, 12.92407
1100.743, 3.289063
1101.225, 15.90894
1101.707, 25.34595
1102.189, 27.91602
1102.672, 13.34546
1103.154, 3.646973
1103.636, 3.334717
1104.118, 8.521973
1104.600, 18.48218
1105.082, 26.40039
1105.564, 25.44482
1106.046, 11.40649
1106.528, 4.802490
1107.010, 6.370605
1107.493, 0.7895510
1107.975, 1.239746
1108.457, 5.641846
1108.939, 14.48999
1109.421, 27.66724
1109.903, 36.72192
1110.385, 38.71191
1110.867, 35.65967
1111.350, 29.60962
1111.832, 21.68262
1112.314, 20.08081
1112.796, 26.99048
1113.278, 35.49463
1113.760, 44.84985
1114.242, 50.79297
1114.724, 46.76270
1115.207, 34.50854
1115.689, 40.42358
1116.171, 65.35620
1116.653, 75.37524
1117.135, 47.55444
1117.617, 15.57446
1118.099, 14.91138
1118.581, 29.56348
1119.063, 37.37549
1119.546, 31.50684
1120.028, 34.01074
1120.510, 48.56860
1120.992, 57.92700
1121.474, 41.90405
1121.956, 16.91260
1122.438, 7.639893
1122.920, 11.32983
1123.402, 19.32764
1123.885, 35.36768
1124.367, 46.70728
1124.849, 52.55054
1125.331, 53.33862
1125.813, 48.15088
1126.295, 38.81812
1126.777, 26.93018
1127.259, 13.42358
1127.742, 8.043213
1128.224, 27.47754
1128.706, 42.13696
1129.188, 39.35815
1129.670, 28.38330
1130.152, 31.10303
1130.634, 44.93188
1131.116, 53.55347
1131.599, 53.56592
1132.081, 51.10400
1132.563, 46.16479
1133.045, 44.34937
1133.527, 52.58569
1134.009, 68.10718
1134.491, 68.62305
1134.973, 54.22900
1135.455, 40.54443
1135.938, 32.75317
1136.420, 28.74438
1136.902, 24.78296
1137.384, 25.02710
1137.866, 37.70728
1138.348, 68.05664
1138.830, 77.33594
1139.312, 62.16821
1139.794, 49.46484
1140.277, 59.11304
1140.759, 76.16333
1141.241, 87.83203
1141.723, 91.38623
1142.205, 79.85376
1142.687, 29.81885
1143.169, 10.83960
1143.651, 32.13574
1144.134, 62.80884
1144.616, 79.79492
1145.098, 84.74805
1145.580, 75.65088
1146.062, 56.00122
1146.544, 40.91431
1147.026, 36.90845
1147.508, 36.27588
1147.990, 38.42871
1148.473, 42.42065
1148.955, 49.81543
1149.437, 58.81738
1149.919, 58.68213
1150.401, 48.60278
1150.883, 45.38184
1151.365, 70.09058
1151.847, 85.24780
1152.329, 74.88232
1152.812, 50.66650
1153.294, 40.36743
1153.776, 41.32642
1154.258, 40.93628
1154.740, 36.10132
1155.222, 31.44971
1155.704, 30.08276
1156.186, 30.74756
1156.669, 33.26538
1157.151, 36.65918
1157.633, 35.89404
1158.115, 31.66919
1158.597, 30.47388
1159.079, 36.59644
1159.561, 40.93750
1160.043, 32.54858
1160.526, 22.99341
1161.008, 24.21240
1161.490, 36.49512
1161.972, 42.93677
1162.454, 43.49121
1162.936, 34.75220
1163.418, 2.393311
1163.900, 23.67236
1164.382, 12.10767
1164.865, 18.21606
1165.347, 39.82422
1165.829, 50.44312
1166.311, 56.98291
1166.793, 59.38721
1167.275, 58.49487
1167.757, 51.92285
1168.239, 44.96338
1168.721, 44.55347
1169.204, 47.91895
1169.686, 47.55713
1170.168, 42.17188
1170.650, 34.76562
1171.132, 24.02246
1171.614, 18.06543
1172.096, 29.80981
1172.578, 46.97192
1173.061, 52.47510
1173.543, 47.76562
1174.025, 47.12573
1174.507, 56.32739
1174.989, 59.01099
1175.471, 51.00854
1175.953, 40.25439
1176.435, 38.54077
1176.917, 39.20068
1177.400, 29.44165
1177.882, 8.627441
1178.364, 3.085693
1178.846, 1.139893
1179.328, 7.166504
1179.810, 11.58301
1180.292, 14.65186
1180.774, 18.65356
1181.256, 22.22266
1181.739, 22.70142
1182.221, 19.55884
1182.703, 13.82861
1183.185, 2.823975
1183.667, 5.893066
1184.149, 10.84668
1184.631, 10.38464
1185.113, 5.166382
1185.596, 28.63831
1186.078, 42.56641
1186.560, 37.71094
1187.042, 34.17468
1187.524, 40.06909
1188.006, 43.07776
1188.488, 34.00964
1188.970, 19.36670
1189.453, 21.85657
1189.935, 36.03699
1190.417, 46.66797
1190.899, 48.54688
1191.381, 46.19385
1191.863, 37.15283
1192.345, 29.19739
1192.827, 28.84351
1193.309, 33.56458
1193.792, 30.78577
1194.274, 23.31482
1194.756, 21.55884
1195.238, 38.97888
1195.720, 50.16602
1196.202, 46.79053
1196.684, 38.07507
1197.166, 30.68567
1197.648, 24.62366
1198.130, 19.95837
1198.613, 16.61597
1199.095, 14.32275
1199.577, 15.05933
1200.059, 13.60596
1200.541, 5.968506
1201.023, 1.805542
1201.505, 1.665283
1201.987, 4.521362
1202.470, 9.512695
1202.952, 13.22058
1203.434, 18.05872
1203.916, 32.45227
1204.398, 38.37927
1204.880, 23.82947
1205.362, 4.919678
1205.844, 6.266235
1206.327, 23.79028
1206.809, 36.59827
1207.291, 42.90613
1207.773, 46.78552
1208.255, 50.02820
1208.737, 51.43506
1209.219, 49.38538
1209.701, 46.62976
1210.183, 51.60718
1210.666, 61.05212
1211.148, 55.29395
1211.630, 31.70740
1212.112, 13.00098
1212.594, 17.17249
1213.076, 21.78503
1213.558, 16.03259
1214.040, 6.258667
1214.522, 8.213501
1215.005, 19.11523
1215.487, 26.66553
1215.969, 28.64868
1216.451, 28.48767
1216.933, 21.86096
1217.415, 21.37720
1217.897, 36.13928
1218.379, 57.54956
1218.862, 60.42017
1219.344, 49.07727
1219.826, 38.95239
1220.308, 32.74744
1220.790, 32.31250
1221.272, 47.42883
1221.754, 56.09741
1222.236, 47.68323
1222.719, 30.39612
1223.201, 27.57275
1223.683, 35.49487
1224.165, 38.85242
1224.647, 32.82605
1225.129, 27.50610
1225.611, 23.76562
1226.093, 26.38379
1226.575, 41.59583
1227.057, 62.43420
1227.540, 64.06519
1228.022, 51.67053
1228.504, 41.79309
1228.986, 40.25452
1229.468, 38.68237
1229.950, 32.85303
1230.432, 29.08020
1230.914, 31.65015
1231.397, 37.96155
1231.879, 40.48340
1232.361, 39.73218
1232.843, 36.62366
1233.325, 29.02625
1233.807, 25.53845
1234.289, 30.43005
1234.771, 35.66565
1235.254, 37.06287
1235.736, 34.73804
1236.218, 25.16052
1236.700, 14.14758
1237.182, 15.44995
1237.664, 44.94666
1238.146, 62.23474
1238.628, 57.80762
1239.110, 51.74524
1239.593, 60.74414
1240.075, 75.15906
1240.557, 66.59180
1241.039, 42.79102
1241.521, 27.83936
1242.003, 40.88879
1242.485, 40.23987
1242.967, 16.59546
1243.449, 2.177368
1243.932, 10.27649
1244.414, 37.46594
1244.896, 48.69055
1245.378, 48.88928
1245.860, 50.03003
1246.342, 60.09399
1246.824, 60.81519
1247.306, 48.40796
1247.789, 37.17700
1248.271, 39.15588
1248.753, 48.07007
1249.235, 59.73389
1249.717, 69.07092
1250.199, 67.58240
1250.681, 45.69714
1251.163, 33.06250
1251.646, 29.33826
1252.128, 28.57300
1252.610, 24.36487
1253.092, 22.18433
1253.574, 34.22925
1254.056, 52.43640
1254.538, 58.85022
1255.020, 48.98376
1255.502, 36.99597
1255.984, 22.06213
1256.467, 13.15027
1256.949, 25.86255
1257.431, 38.33276
1257.913, 25.76624
1258.395, 3.769409
1258.877, 3.692017
1259.359, 30.60327
1259.841, 39.88330
1260.324, 29.35559
1260.806, 16.34229
1261.288, 9.852295
1261.770, 8.294312
1262.252, 16.32336
1262.734, 26.90173
1263.216, 28.76050
1263.698, 21.91040
1264.181, 16.63196
1264.663, 13.55774
1265.145, 11.73389
1265.627, 9.925903
1266.109, 9.544189
1266.591, 12.84106
1267.073, 16.90686
1267.555, 17.37854
1268.037, 17.20129
1268.520, 22.45715
1269.002, 32.51965
1269.484, 39.94824
1269.966, 40.55334
1270.448, 37.45264
1270.930, 27.46558
1271.412, 20.50598
1271.894, 19.76135
1272.376, 24.41492
1272.859, 35.55286
1273.341, 50.75073
1273.823, 57.91626
1274.305, 45.09338
1274.787, 34.40479
1275.269, 28.96033
1275.751, 25.37927
1276.233, 18.89661
1276.716, 12.64478
1277.198, 13.06799
1277.680, 19.45374
1278.162, 26.02771
1278.644, 36.78101
1279.126, 38.50562
1279.608, 27.51050
1280.090, 13.27173
1280.573, 0.4803470
1281.055, 7.464355
1281.537, 2.167847
1282.019, 11.36841
1282.501, 17.00342
1282.983, 10.19971
1283.465, 12.08679
1283.947, 25.19775
1284.429, 35.44336
1284.911, 27.11560
1285.394, 15.59631
1285.876, 13.79138
1286.358, 17.67920
1286.840, 18.22290
1287.322, 15.15479
1287.804, 12.71777
1288.286, 11.26013
1288.768, 12.39148
1289.251, 20.05823
1289.733, 24.00122
1290.215, 27.90869
1290.697, 28.64746
1291.179, 24.35339
1291.661, 16.21191
1292.143, 12.19031
1292.625, 12.30859
1293.108, 14.02954
1293.590, 19.35925
1294.072, 21.55969
1294.554, 17.72485
1295.036, 12.81104
1295.518, 14.06702
1296.000, 18.05835
1296.482, 12.37036
1296.964, 0.2005620
1297.447, 0.0000000E+00
##END=



