##NAMES=Congolite
##RRUFFID=R070149
##IDEAL CHEMISTRY=Fe^2+^_3_B_7_O_13_Cl
##LOCALITY=Lower Saxony, Germany
##OWNER=RRUFF
##SOURCE=James Shigley
##DESCRIPTION=Light brown pseudocubic crystal
##STATUS=The identification of this mineral is confirmed by single-crystal X-ray diffraction and chemical analysis.
##URL=rruff.info/R070149
##MEASURED CHEMISTRY=light core: (Fe^2+^_2.32_Mg_0.52_Mn_0.16_)_Σ=3_B_7_O_13_Cl_1.00_ ; gray rim: (Fe^2+^_2.16_Mg_0.77_Mn_0.17_)_Σ=3_B_7_O_13_Cl_1.00_ ; B estimated by difference and stoichiometry
174.3426, 0.0000000E+00
174.8247, 53.33984
175.3068, 93.08398
175.7889, 107.0391
176.2710, 87.57617
176.7531, 34.86914
177.2353, 3.613281
177.7174, 9.619141
178.1995, 8.605469
178.6816, 6.822266
179.1637, 20.07617
179.6458, 16.64648
180.1280, 0.8027340
180.6101, 5.888672
181.0922, 0.9335940
181.5743, 16.48242
182.0564, 52.35742
182.5385, 103.7871
183.0207, 146.2852
183.5028, 163.6855
183.9849, 158.4590
184.4670, 140.2832
184.9491, 89.53516
185.4312, 54.28516
185.9134, 73.37695
186.3955, 138.4199
186.8776, 207.6367
187.3597, 255.7949
187.8418, 285.1309
188.3239, 310.3496
188.8061, 329.6230
189.2882, 348.3223
189.7703, 364.0859
190.2524, 380.3535
190.7345, 408.8398
191.2166, 464.5020
191.6988, 542.2363
192.1809, 609.8574
192.6630, 672.1055
193.1451, 714.6602
193.6272, 722.8789
194.1093, 707.5078
194.5915, 695.0918
195.0736, 701.4531
195.5557, 724.6152
196.0378, 755.0566
196.5199, 799.8027
197.0020, 841.4824
197.4842, 867.1602
197.9663, 884.2383
198.4484, 908.6191
198.9305, 958.6074
199.4126, 1022.332
199.8947, 1049.078
200.3769, 1009.922
200.8590, 978.4727
201.3411, 997.7891
201.8232, 1041.621
202.3053, 1067.508
202.7874, 1049.006
203.2696, 999.0938
203.7517, 957.7070
204.2338, 924.4746
204.7159, 901.8086
205.1980, 898.1094
205.6801, 901.4863
206.1623, 894.4531
206.6444, 865.3555
207.1265, 826.3281
207.6086, 810.0098
208.0907, 831.0762
208.5728, 844.7012
209.0549, 840.1855
209.5371, 821.2168
210.0192, 787.9395
210.5013, 737.9609
210.9834, 682.0547
211.4655, 640.6641
211.9476, 615.6895
212.4298, 601.9883
212.9119, 604.7012
213.3940, 613.6738
213.8761, 616.6035
214.3582, 608.4219
214.8403, 605.1191
215.3225, 637.4043
215.8046, 719.7344
216.2867, 790.8496
216.7688, 838.4980
217.2509, 870.7285
217.7330, 888.2715
218.2152, 891.7188
218.6973, 891.3633
219.1794, 901.6543
219.6615, 925.9902
220.1436, 945.7598
220.6257, 946.2383
221.1079, 949.5273
221.5900, 971.4062
222.0721, 1012.764
222.5542, 1058.510
223.0363, 1098.402
223.5184, 1134.916
224.0006, 1145.090
224.4827, 1097.160
224.9648, 1045.021
225.4469, 1014.449
225.9290, 1005.486
226.4111, 1003.535
226.8933, 999.4160
227.3754, 993.2500
227.8575, 978.8887
228.3396, 957.8379
228.8217, 925.2070
229.3038, 863.2891
229.7860, 785.4551
230.2681, 728.6133
230.7502, 727.8770
231.2323, 775.3223
231.7144, 808.5430
232.1965, 821.3965
232.6787, 821.0547
233.1608, 806.4141
233.6429, 781.6855
234.1250, 752.7910
234.6071, 714.9160
235.0892, 677.8672
235.5714, 681.7012
236.0535, 755.3535
236.5356, 817.2754
237.0177, 836.4004
237.4998, 826.0918
237.9819, 796.6250
238.4641, 741.6367
238.9462, 687.3145
239.4283, 695.0762
239.9104, 793.7676
240.3925, 868.5488
240.8746, 854.6641
241.3568, 809.0156
241.8389, 780.0586
242.3210, 781.2949
242.8031, 804.1523
243.2852, 852.0703
243.7673, 935.4121
244.2495, 977.9297
244.7316, 916.5957
245.2137, 830.2461
245.6958, 778.1836
246.1779, 770.5312
246.6600, 775.6973
247.1422, 766.4980
247.6243, 742.9961
248.1064, 716.0859
248.5885, 687.9277
249.0706, 655.8750
249.5527, 609.6484
250.0349, 551.5410
250.5170, 510.1895
250.9991, 520.0684
251.4812, 568.3359
251.9633, 586.9883
252.4454, 556.2383
252.9276, 513.5020
253.4097, 480.6543
253.8918, 457.9629
254.3739, 448.9258
254.8560, 457.3613
255.3382, 480.2891
255.8203, 517.7344
256.3024, 579.5312
256.7845, 626.8262
257.2666, 616.8496
257.7487, 574.2305
258.2308, 542.6191
258.7130, 538.8242
259.1951, 549.4160
259.6772, 561.0469
260.1593, 574.0020
260.6414, 579.0898
261.1235, 549.7520
261.6057, 517.8691
262.0878, 546.5488
262.5699, 690.3594
263.0520, 822.3301
263.5341, 820.3711
264.0162, 701.3301
264.4984, 597.8809
264.9805, 563.7676
265.4626, 572.6562
265.9447, 579.5312
266.4268, 588.7520
266.9089, 582.6543
267.3911, 535.1211
267.8732, 465.4004
268.3553, 423.2617
268.8374, 425.0098
269.3195, 450.8379
269.8016, 484.9316
270.2838, 530.4785
270.7659, 547.9141
271.2480, 496.2559
271.7301, 423.3594
272.2122, 398.9512
272.6943, 436.1836
273.1765, 481.6406
273.6586, 480.7852
274.1407, 431.6406
274.6228, 397.7129
275.1049, 397.1172
275.5870, 401.3730
276.0692, 389.0176
276.5513, 360.1055
277.0334, 322.5332
277.5155, 275.0312
277.9976, 223.1660
278.4797, 210.4082
278.9619, 276.0312
279.4440, 335.3066
279.9261, 339.2578
280.4082, 310.2207
280.8903, 306.2539
281.3724, 360.0039
281.8546, 445.3086
282.3367, 479.9609
282.8188, 418.7266
283.3009, 371.1035
283.7830, 344.5645
284.2651, 339.8906
284.7473, 366.3711
285.2294, 426.7891
285.7115, 498.0898
286.1936, 542.3418
286.6757, 546.1895
287.1578, 542.7324
287.6400, 536.2520
288.1221, 522.5996
288.6042, 497.4531
289.0863, 461.3555
289.5684, 418.8398
290.0505, 373.3633
290.5327, 324.1914
291.0148, 279.5195
291.4969, 218.5801
291.9790, 182.1914
292.4611, 208.3574
292.9432, 268.8262
293.4254, 306.3691
293.9075, 282.5938
294.3896, 211.4922
294.8717, 166.8809
295.3538, 178.5332
295.8359, 176.8086
296.3181, 128.8770
296.8002, 72.45703
297.2823, 54.40430
297.7644, 91.79883
298.2465, 151.7852
298.7286, 171.1113
299.2108, 124.6523
299.6929, 108.9277
300.1750, 183.3320
300.6571, 254.1562
301.1392, 248.8750
301.6213, 168.4727
302.1035, 84.95117
302.5856, 77.19531
303.0677, 147.1230
303.5498, 193.1504
304.0319, 200.4766
304.5140, 196.6191
304.9962, 184.4707
305.4783, 171.0723
305.9604, 173.1055
306.4425, 210.8809
306.9246, 268.9062
307.4067, 302.6953
307.8889, 307.4141
308.3710, 295.1523
308.8531, 248.2012
309.3352, 197.0020
309.8173, 183.5547
310.2994, 233.5723
310.7816, 295.7539
311.2637, 313.7324
311.7458, 288.5547
312.2279, 259.2402
312.7100, 233.7012
313.1921, 213.6523
313.6743, 204.0996
314.1564, 207.6973
314.6385, 201.4199
315.1206, 167.7129
315.6027, 117.3164
316.0848, 66.40625
316.5670, 13.64258
317.0491, 20.12891
317.5312, 0.7910160
318.0133, 71.90234
318.4954, 115.8945
318.9775, 106.6680
319.4597, 78.08008
319.9418, 52.61523
320.4239, 32.52734
320.9060, 18.94922
321.3881, 13.22266
321.8702, 14.95312
322.3524, 21.21289
322.8345, 40.80078
323.3166, 54.15625
323.7987, 43.12109
324.2808, 24.58594
324.7629, 30.11523
325.2451, 72.47656
325.7272, 131.0996
326.2093, 168.5723
326.6914, 176.8125
327.1735, 174.8770
327.6556, 159.6582
328.1378, 137.0156
328.6199, 105.4922
329.1020, 68.16016
329.5841, 36.57812
330.0662, 21.28906
330.5483, 22.62305
331.0305, 36.59570
331.5126, 83.12695
331.9947, 122.4512
332.4768, 144.1113
332.9589, 150.4375
333.4410, 144.7930
333.9232, 133.2266
334.4053, 116.1055
334.8874, 89.03320
335.3695, 43.57031
335.8516, 5.564453
336.3337, 25.85156
336.8159, 46.02148
337.2980, 45.20898
337.7801, 22.67578
338.2622, 2.083984
338.7443, 1.556641
339.2264, 35.45312
339.7086, 31.09180
340.1907, 61.50586
340.6728, 141.9609
341.1549, 143.7148
341.6370, 82.35938
342.1191, 12.40039
342.6013, 54.92578
343.0834, 108.1504
343.5655, 111.6875
344.0476, 55.81445
344.5297, 2.003906
345.0118, 11.09961
345.4940, 2.111328
345.9761, 3.511719
346.4582, 20.70703
346.9403, 44.72070
347.4224, 75.50195
347.9045, 109.1172
348.3867, 131.9062
348.8688, 138.5137
349.3509, 135.0645
349.8330, 130.4297
350.3151, 123.9531
350.7972, 115.1172
351.2794, 104.5938
351.7615, 95.17773
352.2436, 86.42188
352.7257, 79.76562
353.2078, 83.35742
353.6899, 107.3457
354.1721, 149.8984
354.6542, 165.3223
355.1363, 137.8145
355.6184, 108.8672
356.1005, 86.11523
356.5826, 71.03320
357.0648, 70.21680
357.5469, 86.94336
358.0290, 108.2637
358.5111, 105.1973
358.9932, 51.44336
359.4753, 21.04688
359.9575, 34.55859
360.4396, 53.32617
360.9217, 47.20117
361.4038, 18.02148
361.8859, 6.814453
362.3680, 4.578125
362.8502, 50.20703
363.3322, 56.41406
363.8144, 19.73828
364.2965, 78.75781
364.7786, 77.50977
365.2607, 42.28516
365.7428, 7.304688
366.2249, 17.06445
366.7071, 25.79883
367.1892, 2.439453
367.6713, 74.58398
368.1534, 109.7832
368.6355, 63.70117
369.1176, 9.873047
369.5998, 54.09570
370.0819, 66.99219
370.5640, 93.68750
371.0461, 195.1582
371.5282, 319.4316
372.0103, 340.8008
372.4925, 230.0918
372.9746, 118.8750
373.4567, 116.0801
373.9388, 204.0332
374.4209, 264.1504
374.9030, 267.6348
375.3852, 265.3496
375.8673, 295.7539
376.3494, 342.5352
376.8315, 359.9531
377.3136, 325.9707
377.7957, 266.8320
378.2779, 233.0117
378.7600, 239.6992
379.2421, 245.2656
379.7242, 249.2148
380.2063, 251.8711
380.6884, 255.5430
381.1706, 258.9590
381.6527, 255.9395
382.1348, 238.8945
382.6169, 208.7676
383.0990, 196.4629
383.5811, 243.7461
384.0633, 260.3242
384.5454, 199.9980
385.0275, 110.5840
385.5096, 51.82422
385.9917, 46.44727
386.4738, 68.12109
386.9560, 79.22852
387.4381, 78.78516
387.9202, 73.72852
388.4023, 66.26758
388.8844, 52.53125
389.3665, 15.06836
389.8487, 35.94141
390.3308, 56.68555
390.8129, 8.585938
391.2950, 113.1855
391.7771, 151.3633
392.2592, 111.8008
392.7414, 71.95898
393.2235, 72.67969
393.7056, 102.3105
394.1877, 134.2539
394.6698, 174.8555
395.1519, 201.4043
395.6341, 186.9609
396.1162, 153.5488
396.5983, 149.8047
397.0804, 189.2676
397.5625, 237.3418
398.0446, 254.9004
398.5268, 236.3242
399.0089, 202.1758
399.4910, 109.8105
399.9731, 42.49023
400.4552, 71.17773
400.9373, 160.2891
401.4195, 222.1094
401.9016, 207.4453
402.3837, 142.2227
402.8658, 104.6465
403.3479, 117.7930
403.8300, 122.1758
404.3122, 104.0020
404.7943, 84.12109
405.2764, 83.91406
405.7585, 101.5391
406.2406, 111.3281
406.7227, 78.33984
407.2049, 8.771484
407.6870, 13.04492
408.1691, 44.65625
408.6512, 95.71289
409.1333, 97.87891
409.6154, 72.55273
410.0976, 45.48242
410.5797, 20.99023
411.0618, 4.794922
411.5439, 10.65430
412.0260, 33.66992
412.5081, 39.46875
412.9903, 11.77930
413.4724, 21.67383
413.9545, 26.62695
414.4366, 5.669922
414.9187, 24.15430
415.4008, 76.11328
415.8830, 123.3906
416.3651, 139.0059
416.8472, 127.1621
417.3293, 111.7227
417.8114, 106.1035
418.2935, 107.2266
418.7757, 104.5918
419.2578, 92.73438
419.7399, 83.44922
420.2220, 64.35547
420.7041, 59.35938
421.1862, 99.84570
421.6684, 180.1699
422.1505, 256.3359
422.6326, 289.0488
423.1147, 280.3262
423.5968, 264.6230
424.0789, 232.1582
424.5611, 201.6777
425.0432, 174.5547
425.5253, 147.2500
426.0074, 122.4902
426.4895, 104.6699
426.9716, 94.67188
427.4538, 93.48438
427.9359, 100.4141
428.4180, 94.19336
428.9001, 56.21289
429.3822, 26.37109
429.8643, 58.62695
430.3465, 136.9785
430.8286, 182.0273
431.3107, 143.5840
431.7928, 85.67969
432.2749, 66.73242
432.7570, 82.04297
433.2392, 100.6133
433.7213, 108.4199
434.2034, 109.3320
434.6855, 111.0762
435.1676, 105.9492
435.6497, 117.2051
436.1319, 176.9863
436.6140, 231.4414
437.0961, 226.3516
437.5782, 169.6309
438.0603, 113.9707
438.5424, 102.5410
439.0246, 128.5059
439.5067, 141.3730
439.9888, 131.3125
440.4709, 123.5762
440.9530, 120.9375
441.4352, 123.3750
441.9173, 129.1582
442.3994, 138.4668
442.8815, 156.4453
443.3636, 200.0977
443.8457, 261.6797
444.3279, 287.6094
444.8100, 264.0156
445.2921, 227.9863
445.7742, 197.4453
446.2563, 172.7969
446.7384, 156.7324
447.2206, 159.5137
447.7027, 155.1660
448.1848, 118.9980
448.6669, 69.76953
449.1490, 44.58984
449.6311, 54.86523
450.1133, 76.38281
450.5954, 75.71289
451.0775, 43.40820
451.5596, 33.09375
452.0417, 54.49609
452.5238, 86.75000
453.0060, 129.6016
453.4881, 174.4336
453.9702, 208.6426
454.4523, 226.2363
454.9344, 227.1992
455.4165, 207.3965
455.8987, 155.1641
456.3808, 116.1562
456.8629, 106.5820
457.3450, 101.8340
457.8271, 88.88867
458.3092, 70.16992
458.7914, 53.80273
459.2735, 39.70312
459.7556, 33.97656
460.2377, 51.11523
460.7198, 92.31250
461.2019, 136.0234
461.6841, 181.5098
462.1662, 217.2109
462.6483, 218.0977
463.1304, 174.1758
463.6125, 150.2871
464.0946, 189.2070
464.5768, 240.9199
465.0589, 248.3633
465.5410, 212.9082
466.0231, 177.7402
466.5052, 169.1934
466.9873, 180.2598
467.4695, 178.0293
467.9516, 139.8809
468.4337, 116.6562
468.9158, 124.8770
469.3979, 141.1055
469.8800, 142.5664
470.3622, 127.9922
470.8443, 116.6348
471.3264, 131.4902
471.8085, 166.3555
472.2906, 173.4668
472.7727, 137.9297
473.2549, 111.2070
473.7370, 132.8594
474.2191, 166.5781
474.7012, 168.9473
475.1833, 127.5059
475.6654, 87.29297
476.1476, 86.75781
476.6297, 104.8574
477.1118, 92.83789
477.5939, 42.92969
478.0760, 1.710938
478.5581, 11.69141
479.0403, 66.79102
479.5224, 89.59180
480.0045, 66.10156
480.4866, 33.33594
480.9687, 23.02344
481.4508, 73.25586
481.9330, 78.16602
482.4151, 31.94727
482.8972, 36.44141
483.3793, 104.2695
483.8614, 172.4180
484.3435, 189.5684
484.8257, 111.5234
485.3078, 44.83789
485.7899, 31.09180
486.2720, 44.28906
486.7541, 50.55273
487.2362, 39.24023
487.7183, 33.19336
488.2004, 63.60938
488.6826, 115.2520
489.1647, 128.3047
489.6468, 86.88086
490.1289, 45.40430
490.6110, 45.42969
491.0931, 79.76953
491.5753, 110.6367
492.0574, 155.8418
492.5395, 178.4824
493.0216, 138.5488
493.5037, 78.51562
493.9858, 63.93750
494.4680, 108.3359
494.9501, 166.8809
495.4322, 188.6348
495.9143, 170.9902
496.3964, 147.8848
496.8785, 110.1465
497.3607, 79.45703
497.8428, 58.91211
498.3249, 49.01562
498.8070, 53.92188
499.2891, 75.41602
499.7712, 97.51562
500.2534, 104.2617
500.7355, 98.19922
501.2176, 91.43359
501.6997, 85.75391
502.1818, 76.33203
502.6639, 52.24609
503.1461, 21.47656
503.6282, 14.28516
504.1103, 42.20312
504.5924, 79.72656
505.0745, 136.4180
505.5566, 188.9238
506.0388, 197.9395
506.5209, 158.5820
507.0030, 105.2559
507.4851, 70.86523
507.9672, 55.66211
508.4493, 59.42969
508.9315, 99.49609
509.4136, 135.9766
509.8957, 164.9512
510.3778, 184.1191
510.8599, 183.5000
511.3420, 162.7930
511.8242, 151.2949
512.3063, 193.1055
512.7884, 268.2070
513.2705, 289.9141
513.7526, 243.3262
514.2347, 197.5898
514.7169, 196.7344
515.1990, 224.3574
515.6811, 233.0742
516.1632, 216.7285
516.6453, 194.0957
517.1274, 156.4688
517.6096, 126.0586
518.0917, 136.2891
518.5738, 182.3477
519.0559, 217.7051
519.5380, 202.5566
520.0201, 146.8047
520.5023, 109.0449
520.9844, 89.71875
521.4665, 89.46484
521.9486, 125.4629
522.4307, 169.3359
522.9128, 196.3750
523.3950, 203.0371
523.8771, 192.0020
524.3592, 147.2930
524.8413, 90.45703
525.3234, 68.51758
525.8055, 82.27734
526.2877, 105.5762
526.7698, 136.0059
527.2519, 160.2891
527.7340, 143.9941
528.2161, 71.09766
528.6982, 32.47656
529.1804, 66.78711
529.6625, 117.3594
530.1446, 152.8203
530.6267, 168.9746
531.1088, 161.4082
531.5909, 126.1758
532.0731, 81.10156
532.5552, 68.75000
533.0373, 104.6973
533.5194, 122.8535
534.0015, 102.1230
534.4836, 77.90625
534.9658, 63.06641
535.4479, 58.58398
535.9300, 64.67773
536.4121, 86.29883
536.8942, 115.2969
537.3763, 150.6348
537.8585, 185.8613
538.3406, 192.9785
538.8227, 160.3984
539.3048, 112.4648
539.7869, 76.93945
540.2690, 57.43359
540.7512, 46.61914
541.2333, 39.14258
541.7154, 40.31445
542.1975, 62.24414
542.6796, 89.50391
543.1617, 99.77539
543.6439, 89.03906
544.1260, 73.82227
544.6081, 72.16602
545.0902, 82.67188
545.5723, 91.63672
546.0544, 106.7480
546.5366, 104.5117
547.0187, 45.25781
547.5008, 24.40625
547.9829, 41.77734
548.4650, 8.781250
548.9471, 64.60547
549.4293, 101.7832
549.9114, 125.2891
550.3935, 144.0234
550.8756, 156.6973
551.3577, 147.8457
551.8398, 104.3477
552.3220, 43.07227
552.8041, 13.61328
553.2862, 43.02539
553.7683, 56.36914
554.2504, 38.71094
554.7325, 18.73438
555.2147, 9.019531
555.6968, 10.62891
556.1789, 21.42773
556.6610, 40.41016
557.1431, 68.54102
557.6252, 119.3262
558.1074, 187.8828
558.5895, 216.8848
559.0716, 183.3008
559.5537, 132.2871
560.0358, 104.6113
560.5179, 100.8125
561.0001, 105.6602
561.4822, 136.1660
561.9643, 156.4609
562.4464, 143.8926
562.9285, 117.0000
563.4106, 101.6094
563.8928, 103.0547
564.3749, 106.1855
564.8570, 94.81055
565.3391, 69.98633
565.8212, 44.44727
566.3033, 11.77734
566.7855, 6.363281
567.2676, 10.43555
567.7497, 37.82227
568.2318, 55.67578
568.7139, 62.33984
569.1960, 57.20117
569.6782, 20.44922
570.1603, 15.26953
570.6424, 2.134766
571.1245, 50.10742
571.6066, 88.32617
572.0887, 86.55469
572.5709, 60.56445
573.0530, 41.18750
573.5351, 32.84570
574.0172, 18.27734
574.4993, 22.70508
574.9814, 48.72070
575.4636, 30.99414
575.9457, 9.767578
576.4278, 37.80273
576.9099, 38.92188
577.3920, 33.24219
577.8741, 51.23047
578.3563, 81.17969
578.8384, 66.18164
579.3205, 9.287109
579.8026, 64.34961
580.2847, 31.81836
580.7668, 64.20312
581.2490, 113.2559
581.7311, 81.18945
582.2132, 60.52539
582.6953, 72.03711
583.1774, 93.11133
583.6595, 107.2266
584.1417, 113.6973
584.6238, 119.4141
585.1059, 128.9961
585.5880, 140.0723
586.0701, 147.2188
586.5522, 149.9746
587.0344, 150.8828
587.5165, 149.2852
587.9986, 146.4863
588.4807, 148.7988
588.9628, 152.4414
589.4449, 139.8145
589.9271, 85.21680
590.4092, 38.83203
590.8913, 36.39453
591.3734, 53.51172
591.8555, 49.90430
592.3376, 19.75977
592.8198, 9.414063
593.3019, 11.44922
593.7840, 10.78711
594.2661, 35.29688
594.7482, 73.23242
595.2303, 89.90430
595.7125, 46.46289
596.1946, 0.4355470
596.6767, 1.306641
597.1588, 39.57422
597.6409, 83.57227
598.1230, 131.8145
598.6052, 160.8535
599.0873, 127.9004
599.5694, 54.89453
600.0515, 14.68555
600.5336, 31.79297
601.0157, 65.13086
601.4979, 61.23047
601.9800, 13.97852
602.4621, 2.755859
602.9442, 34.05859
603.4263, 74.58789
603.9084, 119.4141
604.3906, 156.8203
604.8727, 170.0410
605.3548, 156.4961
605.8369, 141.8711
606.3190, 149.5840
606.8011, 167.6543
607.2833, 178.9043
607.7654, 183.1484
608.2475, 185.3145
608.7296, 189.4824
609.2117, 185.0820
609.6938, 149.6074
610.1760, 62.96094
610.6581, 27.31641
611.1402, 89.33203
611.6223, 146.2305
612.1044, 159.9531
612.5865, 145.8008
613.0687, 123.7676
613.5508, 100.3535
614.0329, 79.16602
614.5150, 58.93164
614.9971, 44.01367
615.4792, 56.61914
615.9614, 100.1895
616.4435, 128.1113
616.9256, 115.3301
617.4077, 79.08203
617.8898, 47.22070
618.3719, 11.84375
618.8541, 7.914063
619.3362, 72.30078
619.8183, 132.3398
620.3004, 140.7090
620.7825, 121.0488
621.2646, 120.9023
621.7468, 155.8047
622.2289, 189.4883
622.7110, 167.5723
623.1931, 102.4980
623.6752, 78.28906
624.1573, 105.3516
624.6395, 135.8184
625.1216, 153.3555
625.6037, 156.1523
626.0858, 133.0547
626.5679, 69.07812
627.0500, 38.38281
627.5322, 74.52930
628.0143, 124.1445
628.4964, 166.1914
628.9785, 195.5723
629.4606, 204.2676
629.9427, 189.8418
630.4249, 167.8477
630.9070, 157.5195
631.3891, 159.1270
631.8712, 164.5156
632.3533, 172.4258
632.8354, 184.3965
633.3176, 217.4355
633.7997, 254.0605
634.2818, 254.5527
634.7639, 207.4258
635.2460, 174.5898
635.7281, 172.5449
636.2103, 184.6738
636.6924, 208.3438
637.1745, 234.8340
637.6566, 250.3262
638.1387, 255.5469
638.6208, 248.3145
639.1030, 211.5449
639.5851, 147.3555
640.0672, 128.8945
640.5493, 171.4180
641.0314, 216.4160
641.5135, 240.5469
641.9957, 248.7207
642.4778, 246.1289
642.9599, 228.3105
643.4420, 223.7578
643.9241, 254.4121
644.4063, 287.0098
644.8884, 300.3027
645.3705, 297.9902
645.8526, 289.2559
646.3347, 277.6543
646.8168, 263.6328
647.2990, 247.6055
647.7811, 229.5000
648.2632, 206.9883
648.7453, 176.4395
649.2274, 157.1348
649.7095, 167.3184
650.1917, 185.1953
650.6738, 175.6641
651.1559, 136.3984
651.6380, 96.99023
652.1201, 48.66406
652.6022, 14.01758
653.0844, 6.607422
653.5665, 21.66602
654.0486, 59.25391
654.5307, 116.3535
655.0128, 165.8359
655.4949, 171.9297
655.9771, 142.3184
656.4592, 123.1465
656.9413, 113.4551
657.4234, 123.5078
657.9055, 175.0391
658.3876, 228.4863
658.8698, 214.5488
659.3519, 127.7324
659.8340, 85.32031
660.3161, 131.6895
660.7982, 187.8105
661.2803, 225.7930
661.7625, 247.8711
662.2446, 258.6133
662.7267, 259.6992
663.2088, 251.4863
663.6909, 228.6855
664.1730, 199.7832
664.6552, 191.0352
665.1373, 203.2910
665.6194, 226.6230
666.1015, 266.7520
666.5836, 299.1504
667.0657, 296.1035
667.5479, 256.3398
668.0300, 224.8711
668.5121, 191.5195
668.9942, 179.0898
669.4763, 221.4219
669.9584, 268.7129
670.4406, 261.6133
670.9227, 204.8340
671.4048, 157.4746
671.8868, 161.8984
672.3690, 192.0410
672.8511, 203.2090
673.3332, 197.4355
673.8153, 192.0840
674.2974, 190.9570
674.7795, 189.5898
675.2617, 186.7930
675.7438, 180.7051
676.2259, 157.9258
676.7080, 86.56445
677.1901, 43.23047
677.6722, 46.45703
678.1544, 67.09766
678.6365, 95.49023
679.1186, 123.6270
679.6007, 137.5762
680.0828, 129.4883
680.5649, 111.0625
681.0471, 88.67578
681.5292, 66.53516
682.0113, 56.78711
682.4934, 59.89062
682.9755, 71.54102
683.4576, 91.84766
683.9398, 113.2910
684.4219, 113.7969
684.9040, 76.51562
685.3861, 55.75781
685.8682, 57.66992
686.3503, 69.20703
686.8325, 105.2949
687.3146, 140.7773
687.7967, 128.9746
688.2788, 53.04688
688.7609, 12.92188
689.2430, 3.759766
689.7252, 27.12305
690.2073, 3.177734
690.6894, 77.25781
691.1715, 107.6270
691.6536, 57.67969
692.1357, 21.00781
692.6179, 52.43750
693.1000, 33.68359
693.5821, 22.74219
694.0642, 19.18164
694.5463, 24.17578
695.0284, 46.31836
695.5106, 71.78906
695.9927, 84.56250
696.4748, 84.58398
696.9569, 90.03125
697.4390, 121.3496
697.9211, 143.1094
698.4033, 128.4941
698.8854, 92.75977
699.3675, 47.08398
699.8496, 1.060547
700.3317, 13.73242
700.8138, 40.26562
701.2960, 132.1055
701.7781, 161.2520
702.2602, 121.1660
702.7423, 90.07617
703.2244, 86.75977
703.7065, 90.51953
704.1887, 81.26562
704.6708, 63.05859
705.1529, 63.01562
705.6350, 113.4824
706.1171, 136.6484
706.5992, 91.95508
707.0814, 44.01367
707.5635, 47.92383
708.0456, 89.03516
708.5277, 112.1562
709.0098, 91.12109
709.4919, 58.26953
709.9741, 48.13086
710.4562, 55.27539
710.9383, 67.09961
711.4204, 81.78125
711.9025, 82.59766
712.3846, 56.33398
712.8668, 22.52930
713.3489, 21.99609
713.8310, 69.43262
714.3131, 97.26465
714.7952, 82.80859
715.2773, 69.69141
715.7595, 73.85352
716.2416, 84.76367
716.7237, 87.50391
717.2058, 81.04492
717.6879, 75.16504
718.1700, 68.99512
718.6522, 70.43359
719.1343, 92.88965
719.6164, 126.5020
720.0985, 152.6504
720.5806, 166.3721
721.0627, 171.6191
721.5449, 173.7783
722.0270, 168.6387
722.5091, 126.9219
722.9912, 33.65723
723.4733, 5.117188
723.9554, 53.44824
724.4376, 132.6582
724.9197, 176.9414
725.4018, 190.1309
725.8839, 192.2305
726.3660, 183.5762
726.8481, 164.8760
727.3303, 116.1553
727.8124, 76.71777
728.2945, 82.01758
728.7766, 116.5605
729.2587, 138.1348
729.7408, 129.0166
730.2230, 110.0137
730.7051, 97.62891
731.1872, 93.12793
731.6693, 105.9111
732.1514, 134.3613
732.6335, 148.8174
733.1157, 133.6924
733.5978, 111.7529
734.0799, 120.9805
734.5620, 168.2705
735.0441, 184.0645
735.5262, 142.4463
736.0084, 108.8447
736.4905, 108.6523
736.9726, 115.9414
737.4547, 108.7246
737.9368, 87.02148
738.4189, 63.04199
738.9011, 25.65625
739.3832, 3.588867
739.8653, 29.55273
740.3474, 71.99219
740.8295, 86.19336
741.3116, 70.39453
741.7938, 49.83984
742.2759, 39.66699
742.7580, 39.54883
743.2401, 53.43262
743.7222, 80.26758
744.2043, 96.89062
744.6865, 100.2188
745.1686, 95.58496
745.6507, 80.96973
746.1328, 65.05957
746.6149, 68.37598
747.0970, 105.0293
747.5792, 127.3926
748.0613, 132.3340
748.5434, 122.2725
749.0255, 92.97754
749.5076, 62.43262
749.9897, 45.52637
750.4719, 41.28711
750.9540, 43.73340
751.4361, 48.91699
751.9182, 59.80957
752.4003, 89.21582
752.8824, 124.9902
753.3646, 136.8506
753.8467, 120.4326
754.3288, 97.50391
754.8109, 84.85156
755.2930, 81.22461
755.7751, 83.20605
756.2573, 91.05176
756.7394, 105.4277
757.2215, 137.0146
757.7036, 149.0820
758.1857, 100.3535
758.6678, 21.36230
759.1500, 4.571289
759.6321, 44.86035
760.1142, 83.95605
760.5963, 97.94434
761.0784, 108.4580
761.5605, 140.8145
762.0427, 169.8506
762.5248, 150.8350
763.0069, 77.61523
763.4890, 6.433594
763.9711, 37.48730
764.4532, 49.32227
764.9354, 3.959961
765.4175, 93.31836
765.8996, 128.8379
766.3817, 91.24805
766.8638, 33.70898
767.3459, 0.6220700
767.8281, 12.71582
768.3102, 4.142578
768.7923, 29.40527
769.2744, 63.15332
769.7565, 105.9971
770.2386, 125.0527
770.7208, 79.45215
771.2029, 1.615234
771.6850, 26.41309
772.1671, 35.29883
772.6492, 69.47266
773.1313, 29.46973
773.6135, 5.735352
774.0956, 8.129883
774.5777, 51.91309
775.0598, 105.1768
775.5419, 157.4551
776.0240, 188.5225
776.5062, 176.9600
776.9883, 142.3008
777.4704, 95.40723
777.9525, 46.59570
778.4346, 30.01562
778.9167, 50.42480
779.3989, 73.42773
779.8810, 70.15039
780.3631, 52.13379
780.8452, 60.22168
781.3273, 101.8262
781.8094, 106.2471
782.2916, 45.05176
782.7737, 4.153320
783.2558, 15.42285
783.7379, 68.59180
784.2200, 73.99512
784.7021, 7.506836
785.1843, 18.86133
785.6664, 22.87598
786.1485, 78.23926
786.6306, 148.0332
787.1127, 207.0801
787.5948, 221.8945
788.0770, 193.6670
788.5591, 163.6230
789.0412, 156.6201
789.5233, 152.7793
790.0054, 127.7295
790.4875, 94.66309
790.9697, 80.19434
791.4518, 84.83496
791.9339, 85.76953
792.4160, 67.75293
792.8981, 46.45312
793.3802, 56.52930
793.8624, 96.30176
794.3445, 118.5693
794.8266, 120.4941
795.3087, 104.1025
795.7908, 61.50098
796.2729, 15.42871
796.7551, 0.3837890
797.2372, 19.08008
797.7193, 43.02539
798.2014, 85.26172
798.6835, 114.7480
799.1656, 122.7607
799.6478, 118.9199
800.1299, 109.9473
800.6120, 96.12598
801.0941, 73.68848
801.5762, 31.67090
802.0583, 1.683594
802.5405, 1.035156
803.0226, 19.67188
803.5047, 64.20312
803.9868, 116.8057
804.4689, 132.6514
804.9510, 95.64648
805.4332, 47.53613
805.9153, 36.11719
806.3974, 48.42773
806.8795, 46.69727
807.3616, 32.36914
807.8438, 19.13770
808.3259, 9.861328
808.8080, 17.98047
809.2901, 62.58398
809.7722, 131.2451
810.2543, 151.8770
810.7365, 102.7715
811.2186, 70.87500
811.7007, 73.77148
812.1828, 81.90527
812.6649, 76.42676
813.1470, 65.57520
813.6292, 65.15430
814.1113, 78.04004
814.5934, 91.06836
815.0755, 106.2578
815.5576, 116.7227
816.0397, 120.7842
816.5219, 118.2822
817.0040, 103.3496
817.4861, 80.97949
817.9682, 62.41211
818.4503, 51.15723
818.9324, 50.03906
819.4146, 65.31738
819.8967, 90.73828
820.3788, 121.2607
820.8609, 152.0781
821.3430, 168.9346
821.8251, 162.0557
822.3073, 139.9766
822.7894, 108.7119
823.2715, 69.52930
823.7536, 60.55371
824.2357, 84.88184
824.7178, 97.51074
825.2000, 79.71777
825.6821, 56.42188
826.1642, 59.91602
826.6463, 86.44824
827.1284, 80.89453
827.6105, 9.456055
828.0927, 27.01367
828.5748, 17.39062
829.0569, 60.21875
829.5390, 42.07617
830.0211, 1.880859
830.5032, 6.698242
830.9854, 48.79785
831.4675, 77.56055
831.9496, 27.62207
832.4317, 17.50586
832.9138, 0.3857420
833.3959, 43.95801
833.8781, 58.00488
834.3602, 39.11523
834.8423, 30.06250
835.3244, 68.41406
835.8065, 105.4248
836.2886, 68.20508
836.7708, 3.825195
837.2529, 11.18066
837.7350, 85.64062
838.2171, 147.8291
838.6992, 157.7168
839.1813, 136.8262
839.6635, 106.9912
840.1456, 71.43359
840.6277, 54.44531
841.1098, 58.26270
841.5919, 70.25684
842.0740, 89.21387
842.5562, 103.3086
843.0383, 98.94043
843.5204, 82.01465
844.0025, 68.21191
844.4846, 54.88281
844.9667, 51.53125
845.4489, 70.06934
845.9310, 84.06055
846.4131, 71.35449
846.8952, 48.43066
847.3773, 44.42090
847.8594, 63.67578
848.3416, 78.99023
848.8237, 88.27148
849.3058, 90.79590
849.7879, 81.34766
850.2700, 68.51074
850.7521, 55.22168
851.2343, 46.32910
851.7164, 57.69434
852.1985, 107.3613
852.6806, 146.0801
853.1627, 124.2910
853.6448, 82.49805
854.1270, 67.69434
854.6091, 76.06250
855.0912, 90.46387
855.5733, 101.2588
856.0554, 109.2988
856.5375, 117.9209
857.0197, 122.5195
857.5018, 109.6016
857.9839, 82.32324
858.4660, 56.96484
858.9481, 36.65918
859.4302, 21.73535
859.9124, 11.80371
860.3945, 9.017578
860.8766, 21.34082
861.3587, 51.25000
861.8408, 67.74902
862.3229, 65.08203
862.8051, 67.06738
863.2872, 86.47656
863.7693, 107.5020
864.2514, 110.7305
864.7335, 96.69238
865.2156, 87.19238
865.6978, 83.73730
866.1799, 82.57617
866.6620, 86.28027
867.1441, 89.48145
867.6262, 85.25977
868.1083, 79.78418
868.5905, 88.98047
869.0726, 119.5000
869.5547, 131.0195
870.0368, 93.48145
870.5189, 56.60840
871.0010, 49.35059
871.4832, 53.38867
871.9653, 48.45898
872.4474, 33.16992
872.9295, 13.84277
873.4116, 12.64844
873.8937, 25.00293
874.3759, 6.517578
874.8580, 52.75098
875.3401, 77.42090
875.8222, 83.35742
876.3043, 85.96289
876.7864, 89.91602
877.2686, 88.67480
877.7507, 71.21387
878.2328, 50.25684
878.7149, 61.15723
879.1970, 92.97949
879.6791, 92.40625
880.1613, 53.00684
880.6434, 16.98730
881.1255, 9.213867
881.6076, 19.79590
882.0897, 29.41211
882.5718, 36.83496
883.0540, 59.41699
883.5361, 103.3389
884.0182, 121.5420
884.5003, 94.30762
884.9824, 53.29785
885.4645, 25.15430
885.9467, 7.666992
886.4288, 1.704102
886.9109, 10.97266
887.3930, 16.38965
887.8751, 7.255859
888.3572, 7.791016
888.8394, 41.16504
889.3215, 83.70605
889.8036, 103.9336
890.2857, 100.1240
890.7678, 90.99316
891.2499, 72.08398
891.7321, 53.68945
892.2142, 38.28809
892.6963, 23.47168
893.1784, 2.460938
893.6605, 17.83398
894.1426, 21.81445
894.6248, 4.148438
895.1069, 16.82422
895.5890, 38.28613
896.0711, 55.34180
896.5532, 68.00977
897.0353, 72.59180
897.5175, 58.71289
897.9996, 30.88086
898.4817, 10.50098
898.9638, 9.669922
899.4459, 15.61816
899.9280, 14.28516
900.4102, 14.24609
900.8923, 35.78516
901.3744, 68.18945
901.8565, 79.26367
902.3386, 60.92188
902.8207, 32.78320
903.3029, 6.609375
903.7850, 10.35938
904.2671, 5.778320
904.7492, 43.15137
905.2313, 55.01074
905.7134, 38.80664
906.1956, 28.29883
906.6777, 40.67969
907.1598, 60.37305
907.6419, 66.97852
908.1240, 61.23047
908.6061, 42.44727
909.0883, 9.541016
909.5704, 0.1230470
910.0525, 26.25098
910.5346, 51.54102
911.0167, 49.41895
911.4988, 28.99512
911.9810, 7.673828
912.4631, 21.03027
912.9452, 5.135742
913.4273, 80.62793
913.9094, 139.2900
914.3915, 130.9746
914.8737, 101.1318
915.3558, 87.65137
915.8379, 89.34375
916.3200, 91.30273
916.8021, 99.13965
917.2842, 96.41895
917.7664, 71.21973
918.2484, 49.99902
918.7305, 42.03711
919.2126, 44.87891
919.6948, 62.54590
920.1769, 94.41406
920.6590, 104.0693
921.1411, 62.93555
921.6232, 35.44434
922.1053, 41.74512
922.5875, 57.66992
923.0696, 74.13574
923.5517, 86.70801
924.0338, 87.89648
924.5159, 75.76953
924.9980, 65.21289
925.4802, 67.81152
925.9623, 64.61523
926.4444, 33.46582
926.9265, 1.929688
927.4086, 3.891602
927.8907, 29.87012
928.3729, 45.41992
928.8550, 37.69727
929.3371, 30.24805
929.8192, 41.64453
930.3013, 55.24707
930.7834, 55.24902
931.2656, 47.12012
931.7477, 42.70801
932.2298, 44.24609
932.7119, 38.52539
933.1940, 15.37109
933.6761, 1.426758
934.1583, 19.03027
934.6404, 55.78613
935.1225, 85.85352
935.6046, 104.3154
936.0867, 98.80762
936.5688, 70.21289
937.0510, 43.05469
937.5331, 37.91309
938.0152, 39.51660
938.4973, 17.78906
938.9794, 13.77344
939.4615, 17.37012
939.9437, 5.251953
940.4258, 30.75000
940.9079, 50.21973
941.3900, 64.07910
941.8721, 73.09277
942.3542, 75.40820
942.8364, 63.95605
943.3185, 41.22852
943.8006, 19.22852
944.2827, 0.2949220
944.7648, 2.259766
945.2469, 19.41016
945.7291, 46.10840
946.2112, 50.82227
946.6933, 38.51367
947.1754, 40.12695
947.6575, 56.45508
948.1396, 56.57812
948.6218, 32.57129
949.1039, 19.12109
949.5860, 39.30176
950.0681, 73.43262
950.5502, 87.54590
951.0323, 81.38770
951.5145, 61.11816
951.9966, 21.70801
952.4787, 3.165039
952.9608, 16.85840
953.4429, 42.03320
953.9250, 66.08984
954.4072, 87.69824
954.8893, 105.5938
955.3714, 122.5078
955.8535, 115.4951
956.3356, 72.62207
956.8177, 38.66797
957.2999, 23.39160
957.7820, 24.72363
958.2641, 47.50098
958.7462, 82.59766
959.2283, 97.67969
959.7104, 80.85352
960.1926, 80.91602
960.6747, 116.0352
961.1568, 134.6270
961.6389, 106.8223
962.1210, 71.98340
962.6031, 67.80078
963.0853, 87.60840
963.5674, 97.07617
964.0495, 83.58301
964.5316, 84.16797
965.0137, 122.0820
965.4958, 143.6348
965.9780, 118.1484
966.4601, 78.12012
966.9422, 46.23730
967.4243, 23.73730
967.9064, 26.46387
968.3885, 94.74609
968.8707, 123.7891
969.3528, 63.54688
969.8349, 15.48145
970.3170, 44.83594
970.7991, 93.91992
971.2813, 82.73730
971.7634, 15.47559
972.2455, 20.26367
972.7276, 16.18555
973.2097, 39.15039
973.6918, 21.86230
974.1740, 4.148438
974.6561, 12.31250
975.1382, 29.21582
975.6203, 27.34473
976.1024, 6.786133
976.5845, 1.689453
977.0667, 31.32227
977.5488, 58.92578
978.0309, 79.25098
978.5130, 91.39746
978.9951, 83.21191
979.4772, 72.53223
979.9594, 94.34766
980.4415, 149.4580
980.9236, 177.4072
981.4057, 145.9531
981.8878, 106.6406
982.3699, 57.13281
982.8521, 23.85840
983.3342, 37.97266
983.8163, 75.24219
984.2984, 97.78711
984.7805, 99.85547
985.2626, 93.70117
985.7448, 73.64551
986.2269, 59.27441
986.7090, 65.05273
987.1911, 72.43457
987.6732, 62.21289
988.1553, 45.22656
988.6375, 44.18164
989.1196, 62.31543
989.6017, 75.92871
990.0838, 66.96777
990.5659, 63.57227
991.0480, 96.08105
991.5302, 122.6826
992.0123, 93.77637
992.4944, 38.82910
992.9765, 15.97363
993.4586, 35.71484
993.9407, 60.50293
994.4229, 77.91699
994.9050, 92.62500
995.3871, 117.2334
995.8692, 130.8672
996.3513, 103.3604
996.8334, 54.81738
997.3156, 26.49219
997.7977, 27.48926
998.2798, 29.75293
998.7619, 8.034180
999.2440, 1.842773
999.7261, 56.44531
1000.208, 112.5605
1000.690, 107.6904
1001.172, 67.25098
1001.655, 48.45508
1002.137, 62.12402
1002.619, 65.95898
1003.101, 26.23438
1003.583, 8.061523
1004.065, 13.45312
1004.547, 2.616211
1005.029, 20.45215
1005.512, 48.62402
1005.994, 75.35449
1006.476, 98.08496
1006.958, 101.4385
1007.440, 56.31934
1007.922, 19.85742
1008.404, 32.94238
1008.886, 53.22168
1009.368, 41.06445
1009.851, 11.07031
1010.333, 8.817383
1010.815, 12.66602
1011.297, 4.712891
1011.779, 23.47070
1012.261, 49.93066
1012.743, 67.37402
1013.225, 76.91211
1013.708, 70.60059
1014.190, 61.07422
1014.672, 73.79590
1015.154, 109.8740
1015.636, 131.3379
1016.118, 116.6689
1016.600, 95.96973
1017.082, 77.21973
1017.564, 60.24805
1018.047, 37.65430
1018.529, 20.49023
1019.011, 36.76172
1019.493, 83.51074
1019.975, 100.4316
1020.457, 44.22559
1020.939, 3.938477
1021.421, 14.02344
1021.904, 10.28711
1022.386, 0.1982420
1022.868, 9.106445
1023.350, 3.416016
1023.832, 14.09473
1024.314, 11.71289
1024.796, 31.99316
1025.278, 71.38867
1025.760, 105.2969
1026.243, 120.4023
1026.725, 92.82910
1027.207, 52.47168
1027.689, 36.84766
1028.171, 44.96484
1028.653, 47.89062
1029.135, 36.07812
1029.617, 27.18359
1030.099, 15.88281
1030.582, 18.88867
1031.064, 54.92285
1031.546, 97.61816
1032.028, 124.6201
1032.510, 131.9941
1032.992, 114.6221
1033.474, 56.09668
1033.956, 18.18945
1034.439, 11.55859
1034.921, 22.54102
1035.403, 63.28613
1035.885, 102.4424
1036.367, 117.4307
1036.849, 111.9141
1037.331, 96.75879
1037.813, 60.78906
1038.296, 48.38281
1038.778, 75.19531
1039.260, 103.7744
1039.742, 140.0127
1040.224, 160.2949
1040.706, 138.3350
1041.188, 91.72168
1041.670, 61.42969
1042.152, 48.64453
1042.635, 43.03320
1043.117, 45.47363
1043.599, 54.93359
1044.081, 78.82910
1044.563, 96.64160
1045.045, 92.69434
1045.527, 77.44824
1046.009, 69.94727
1046.491, 70.78613
1046.974, 64.94238
1047.456, 40.71582
1047.938, 51.70605
1048.420, 127.3389
1048.902, 175.9062
1049.384, 139.5234
1049.866, 70.98926
1050.348, 43.10840
1050.830, 52.60254
1051.313, 69.74414
1051.795, 96.68164
1052.277, 122.5254
1052.759, 150.3682
1053.241, 148.4756
1053.723, 95.91406
1054.205, 41.94336
1054.687, 41.97754
1055.170, 80.60742
1055.652, 105.5020
1056.134, 116.6973
1056.616, 115.5840
1057.098, 102.1250
1057.580, 83.61230
1058.062, 61.75879
1058.544, 43.86426
1059.026, 35.87500
1059.509, 34.51562
1059.991, 32.75488
1060.473, 31.34766
1060.955, 31.65234
1061.437, 34.53125
1061.919, 54.21777
1062.401, 93.05664
1062.883, 127.0410
1063.365, 141.6777
1063.848, 138.6367
1064.330, 112.9287
1064.812, 74.44434
1065.294, 39.14062
1065.776, 13.26074
1066.258, 27.40723
1066.740, 75.03223
1067.222, 100.1670
1067.705, 76.97363
1068.187, 49.40625
1068.669, 72.17285
1069.151, 108.9150
1069.633, 103.2266
1070.115, 78.97070
1070.597, 79.75293
1071.079, 100.0117
1071.562, 109.2217
1072.044, 98.71484
1072.526, 86.23242
1073.008, 82.95020
1073.490, 82.61523
1073.972, 78.98047
1074.454, 76.57812
1074.936, 89.10449
1075.418, 102.0869
1075.901, 79.14648
1076.383, 24.40723
1076.865, 0.8808590
1077.347, 50.16895
1077.829, 93.26855
1078.311, 85.97168
1078.793, 69.25977
1079.275, 68.22363
1079.757, 73.68359
1080.240, 73.85742
1080.722, 70.15723
1081.204, 65.29590
1081.686, 56.28223
1082.168, 53.58105
1082.650, 74.67773
1083.132, 82.28613
1083.614, 39.22754
1084.097, 2.914063
1084.579, 36.09375
1085.061, 100.5752
1085.543, 107.0518
1086.025, 45.38965
1086.507, 11.58398
1086.989, 22.48340
1087.471, 29.16113
1087.953, 28.01172
1088.436, 17.14160
1088.918, 13.50684
1089.400, 40.94141
1089.882, 32.99902
1090.364, 5.256836
1090.846, 39.64160
1091.328, 75.45801
1091.810, 66.54395
1092.292, 7.073242
1092.775, 20.67676
1093.257, 81.14160
1093.739, 181.9570
1094.221, 176.6436
1094.703, 109.0996
1095.185, 82.30273
1095.667, 91.78711
1096.149, 91.71387
1096.632, 82.85352
1097.114, 83.09766
1097.596, 94.63770
1098.078, 88.84668
1098.560, 48.25391
1099.042, 9.548828
1099.524, 31.57031
1100.006, 79.84375
1100.489, 71.65137
1100.971, 32.27930
1101.453, 27.37598
1101.935, 53.48926
1102.417, 67.62793
1102.899, 56.57910
1103.381, 44.98828
1103.863, 55.44727
1104.345, 63.59766
1104.828, 33.53809
1105.310, 1.219727
1105.792, 6.416016
1106.274, 34.14551
1106.756, 36.18262
1107.238, 12.76758
1107.720, 2.492188
1108.202, 24.07617
1108.684, 43.42773
1109.167, 43.49707
1109.649, 39.45312
1110.131, 41.89062
1110.613, 41.66504
1111.095, 20.64258
1111.577, 7.445313
1112.059, 6.646484
1112.541, 31.33105
1113.024, 58.99121
1113.506, 71.74609
1113.988, 72.87500
1114.470, 56.52734
1114.952, 37.04199
1115.434, 14.99219
1115.916, 0.4140630
1116.398, 4.974609
1116.880, 27.03809
1117.363, 38.33789
1117.845, 33.10156
1118.327, 44.52930
1118.809, 80.32227
1119.291, 99.96582
1119.773, 90.07715
1120.255, 69.38184
1120.737, 48.86914
1121.219, 36.51465
1121.702, 55.24316
1122.184, 96.44629
1122.666, 99.21191
1123.148, 69.86523
1123.630, 52.91699
1124.112, 53.73730
1124.594, 54.05078
1125.076, 45.94727
1125.559, 39.09180
1126.041, 43.58594
1126.523, 52.55273
1127.005, 56.60547
1127.487, 57.14062
1127.969, 56.99512
1128.451, 55.20703
1128.933, 44.44629
1129.416, 27.80762
1129.898, 27.60059
1130.380, 58.73145
1130.862, 85.24219
1131.344, 77.44727
1131.826, 66.56152
1132.308, 79.58301
1132.790, 95.58691
1133.272, 87.53613
1133.755, 63.66406
1134.237, 43.62891
1134.719, 29.44043
1135.201, 35.57617
1135.683, 88.20020
1136.165, 120.0732
1136.647, 121.9004
1137.129, 101.8145
1137.611, 37.21094
1138.094, 22.27246
1138.576, 17.07910
1139.058, 35.52246
1139.540, 65.97852
1140.022, 69.59863
1140.504, 77.00000
1140.986, 89.38477
1141.468, 98.15430
1141.951, 101.8594
1142.433, 97.39160
1142.915, 81.38184
1143.397, 62.56152
1143.879, 51.60352
1144.361, 48.81641
1144.843, 60.63574
1145.325, 81.19922
1145.807, 87.34668
1146.290, 79.78711
1146.772, 70.46094
1147.254, 62.39648
1147.736, 51.62305
1148.218, 33.25488
1148.700, 21.20801
1149.182, 38.53906
1149.664, 62.72266
1150.146, 71.57227
1150.629, 69.34863
1151.111, 62.44141
1151.593, 52.50098
1152.075, 44.08789
1152.557, 38.20508
1153.039, 40.13281
1153.521, 60.11719
1154.003, 75.74512
1154.486, 84.35449
1154.968, 82.88477
1155.450, 53.46680
1155.932, 25.65039
1156.414, 37.63477
1156.896, 79.84766
1157.378, 110.8633
1157.860, 132.1807
1158.343, 135.0459
1158.825, 115.2432
1159.307, 89.95215
1159.789, 60.20801
1160.271, 39.72266
1160.753, 37.55664
1161.235, 42.62402
1161.717, 39.88281
1162.199, 32.34180
1162.682, 29.02539
1163.164, 29.46680
1163.646, 36.00000
1164.128, 46.20996
1164.610, 48.49609
1165.092, 41.19434
1165.574, 35.62793
1166.056, 39.41504
1166.538, 43.38965
1167.021, 34.63965
1167.503, 26.38281
1167.985, 36.82910
1168.467, 51.32227
1168.949, 49.01270
1169.431, 35.70312
1169.913, 30.07129
1170.395, 35.71191
1170.878, 41.24805
1171.360, 39.34863
1171.842, 43.83496
1172.324, 67.02539
1172.806, 83.96094
1173.288, 84.04199
1173.770, 74.32422
1174.252, 52.51465
1174.734, 31.99902
1175.217, 50.37598
1175.699, 110.5908
1176.181, 126.4580
1176.663, 92.41797
1177.145, 60.76562
1177.627, 37.22852
1178.109, 38.74121
1178.591, 73.17578
1179.073, 98.62988
1179.556, 73.78613
1180.038, 29.62695
1180.520, 14.95898
1181.002, 24.99805
1181.484, 67.90527
1181.966, 120.4072
1182.448, 124.3760
1182.930, 86.28613
1183.413, 55.09180
1183.895, 48.56641
1184.377, 45.35254
1184.859, 31.13965
1185.341, 19.71582
1185.823, 16.05469
1186.305, 19.50781
1186.787, 34.94727
1187.270, 53.49609
1187.752, 69.48828
1188.234, 79.14355
1188.716, 68.51660
1189.198, 30.30762
1189.680, 2.793945
1190.162, 17.42480
1190.644, 11.28027
1191.126, 34.60449
1191.609, 58.39648
1192.091, 26.14355
1192.573, 16.31836
1193.055, 14.88770
1193.537, 10.71680
1194.019, 6.287109
1194.501, 16.98535
1194.983, 14.23535
1195.465, 9.428711
1195.948, 34.75488
1196.430, 54.47266
1196.912, 56.33301
1197.394, 35.49121
1197.876, 16.13574
1198.358, 19.76758
1198.840, 26.56543
1199.322, 12.45117
1199.805, 6.093750
1200.287, 51.99902
1200.769, 106.1201
1201.251, 100.6396
1201.733, 46.98047
1202.215, 13.73047
1202.697, 9.950195
1203.179, 17.99609
1203.661, 47.60059
1204.144, 66.79883
1204.626, 67.94238
1205.108, 66.36328
1205.590, 68.98730
1206.072, 71.87402
1206.554, 70.33789
1207.036, 67.66699
1207.518, 74.10645
1208.000, 87.15137
1208.483, 97.25391
1208.965, 102.8008
1209.447, 91.77051
1209.929, 69.58594
1210.411, 72.34766
1210.893, 111.5684
1211.375, 139.4854
1211.857, 115.9160
1212.340, 82.76172
1212.822, 58.88477
1213.304, 49.35840
1213.786, 66.76172
1214.268, 93.95605
1214.750, 116.9209
1215.232, 131.4102
1215.714, 126.8115
1216.197, 97.92188
1216.679, 84.25977
1217.161, 92.81250
1217.643, 91.06250
1218.125, 69.09570
1218.607, 59.06641
1219.089, 85.93262
1219.571, 111.3320
1220.053, 116.9941
1220.536, 108.2031
1221.018, 98.78223
1221.500, 89.57422
1221.982, 81.89844
1222.464, 76.76562
1222.946, 78.87109
1223.428, 83.90820
1223.910, 72.09863
1224.392, 43.40723
1224.875, 40.52539
1225.357, 100.8105
1225.839, 142.2744
1226.321, 99.34766
1226.803, 55.84473
1227.285, 62.97461
1227.767, 80.10645
1228.249, 62.43164
1228.732, 38.01465
1229.214, 63.03516
1229.696, 128.8691
1230.178, 141.7695
1230.660, 86.64746
1231.142, 66.43359
1231.624, 88.24121
1232.106, 97.20410
1232.589, 80.29492
1233.071, 59.21680
1233.553, 45.88574
1234.035, 36.79297
1234.517, 26.34180
1234.999, 20.49316
1235.481, 28.70215
1235.963, 46.64062
1236.445, 77.41211
1236.927, 108.2344
1237.410, 114.9121
1237.892, 101.4043
1238.374, 94.96973
1238.856, 105.1152
1239.338, 96.39941
1239.820, 29.97559
1240.302, 5.633789
1240.784, 16.58496
1241.267, 47.71094
1241.749, 76.74756
1242.231, 68.75977
1242.713, 43.94141
1243.195, 5.731445
1243.677, 0.0000000E+00
##END=



