##NAMES=Cookeite
##RRUFFID=R061103
##IDEAL CHEMISTRY=LiAl_4_(Si_3_Al)O_10_(OH)_8_
##LOCALITY=Green mine, Saline County, Arkansas, USA
##OWNER=RRUFF
##SOURCE=Michael Scott
##DESCRIPTION=Mass of cream colored micaceous crystals
##STATUS=The identification of this mineral has been made only by X-ray diffraction.
##URL=rruff.info/R061103
176.6981, 0.0000000E+00
177.1802, 66.46484
177.6623, 92.79102
178.1444, 141.3535
178.6266, 69.17578
179.1087, 5.250000
179.5908, 15.20703
180.0729, 23.11719
180.5550, 78.97070
181.0371, 89.54297
181.5193, 60.97852
182.0014, 35.66602
182.4835, 49.94531
182.9656, 91.08203
183.4477, 122.0117
183.9298, 130.8574
184.4120, 131.2168
184.8941, 154.2266
185.3762, 199.9180
185.8583, 236.4199
186.3404, 220.9453
186.8225, 166.8340
187.3047, 149.1934
187.7868, 202.8438
188.2689, 295.3477
188.7510, 340.2383
189.2331, 334.6152
189.7152, 309.7500
190.1974, 287.7129
190.6795, 269.0820
191.1616, 264.0117
191.6437, 283.5312
192.1258, 319.4395
192.6080, 328.6523
193.0901, 306.8906
193.5722, 280.1816
194.0543, 285.4922
194.5364, 323.3398
195.0185, 348.7109
195.5007, 334.2363
195.9828, 285.7578
196.4649, 276.4941
196.9470, 317.8281
197.4291, 370.9258
197.9112, 374.5195
198.3934, 322.3008
198.8755, 274.5781
199.3576, 256.2090
199.8397, 268.0410
200.3218, 285.0527
200.8039, 308.1230
201.2861, 335.0664
201.7682, 365.1094
202.2503, 400.8086
202.7324, 427.7109
203.2145, 437.8672
203.6966, 429.7070
204.1788, 415.0664
204.6609, 389.2891
205.1430, 361.5352
205.6251, 356.2852
206.1072, 381.3789
206.5893, 404.1973
207.0715, 402.1953
207.5536, 366.6152
208.0357, 352.4844
208.5178, 371.6914
208.9999, 410.2090
209.4820, 425.9883
209.9642, 412.1973
210.4463, 391.7715
210.9284, 377.7598
211.4105, 370.5781
211.8926, 368.4238
212.3747, 375.2012
212.8569, 386.4238
213.3390, 382.4492
213.8211, 356.2109
214.3032, 327.5273
214.7853, 306.5918
215.2674, 288.0645
215.7496, 295.5586
216.2317, 345.4121
216.7138, 427.4453
217.1959, 470.1895
217.6780, 459.5879
218.1601, 432.4238
218.6423, 419.3066
219.1244, 432.5039
219.6065, 426.9766
220.0886, 382.5840
220.5707, 304.1484
221.0528, 280.6387
221.5350, 336.4980
222.0171, 415.3086
222.4992, 474.8906
222.9813, 523.1504
223.4634, 530.2012
223.9455, 473.2852
224.4277, 351.7344
224.9098, 277.1582
225.3919, 258.9609
225.8740, 275.9863
226.3561, 315.2500
226.8382, 400.6699
227.3204, 458.0840
227.8025, 461.3145
228.2846, 405.6641
228.7667, 377.7930
229.2488, 386.3496
229.7310, 414.1660
230.2131, 448.5098
230.6952, 508.6699
231.1773, 537.1367
231.6594, 509.6855
232.1415, 416.1582
232.6237, 357.5762
233.1058, 345.6270
233.5879, 358.8906
234.0700, 375.3301
234.5521, 405.7617
235.0342, 416.0625
235.5164, 390.0352
235.9985, 318.6191
236.4806, 266.7969
236.9627, 231.4297
237.4448, 216.8945
237.9269, 238.8438
238.4091, 331.2812
238.8912, 395.8809
239.3733, 394.9961
239.8554, 307.1152
240.3375, 264.2188
240.8196, 288.8672
241.3018, 343.2461
241.7839, 373.1680
242.2660, 363.7031
242.7481, 354.1484
243.2302, 358.9844
243.7123, 384.8066
244.1945, 395.2402
244.6766, 386.9961
245.1587, 365.3848
245.6408, 335.3262
246.1229, 281.1113
246.6050, 246.0527
247.0872, 251.9980
247.5693, 317.7637
248.0514, 345.5938
248.5335, 313.8633
249.0156, 257.3320
249.4977, 237.6914
249.9799, 276.5332
250.4620, 313.5449
250.9441, 324.2812
251.4262, 293.1875
251.9083, 290.4160
252.3904, 336.9336
252.8726, 398.6582
253.3547, 409.2988
253.8368, 336.0820
254.3189, 273.8340
254.8010, 260.5645
255.2831, 314.1035
255.7653, 346.7695
256.2474, 353.2266
256.7295, 341.9551
257.2116, 321.8086
257.6937, 276.9414
258.1758, 256.2637
258.6580, 288.1309
259.1401, 396.1172
259.6222, 456.2402
260.1043, 455.9473
260.5864, 417.0977
261.0685, 372.3574
261.5507, 310.5996
262.0328, 263.3086
262.5149, 243.9297
262.9970, 257.2383
263.4791, 278.5664
263.9612, 314.5664
264.4434, 353.2578
264.9255, 374.3242
265.4076, 376.1328
265.8897, 364.5625
266.3718, 337.8125
266.8539, 291.6211
267.3361, 254.5430
267.8182, 223.5273
268.3003, 204.9492
268.7824, 219.0078
269.2645, 282.2617
269.7466, 325.1914
270.2288, 313.0078
270.7109, 236.6211
271.1930, 183.9883
271.6751, 155.4102
272.1572, 150.4648
272.6393, 178.9688
273.1215, 254.1211
273.6036, 304.5586
274.0857, 286.8984
274.5678, 195.1250
275.0499, 156.7891
275.5320, 189.1992
276.0142, 245.5586
276.4963, 248.6328
276.9784, 189.1445
277.4605, 134.3086
277.9426, 111.0117
278.4247, 118.4844
278.9069, 125.4766
279.3890, 128.3789
279.8711, 138.4219
280.3532, 181.4453
280.8354, 261.4141
281.3175, 325.0352
281.7996, 348.8984
282.2817, 336.0234
282.7638, 312.0273
283.2459, 274.6289
283.7281, 233.2539
284.2102, 199.2969
284.6923, 172.7500
285.1744, 149.8203
285.6565, 123.4648
286.1386, 98.03516
286.6208, 103.7773
287.1029, 146.6211
287.5850, 194.6992
288.0671, 210.6250
288.5492, 196.5898
289.0313, 176.6602
289.5135, 156.9180
289.9956, 138.0195
290.4777, 122.5469
290.9598, 110.7656
291.4419, 100.5664
291.9240, 88.84375
292.4062, 76.39844
292.8883, 67.40625
293.3704, 69.35547
293.8525, 73.79297
294.3346, 54.10156
294.8167, 8.843750
295.2989, 29.44141
295.7810, 24.78516
296.2631, 13.09766
296.7452, 56.43750
297.2273, 112.2344
297.7094, 157.2578
298.1916, 135.6875
298.6737, 50.14453
299.1558, 27.33203
299.6379, 23.93359
300.1200, 31.74219
300.6021, 78.84766
301.0843, 94.69922
301.5664, 96.60938
302.0485, 106.8281
302.5306, 124.3281
303.0127, 138.6016
303.4948, 130.8203
303.9770, 113.3633
304.4591, 109.2148
304.9412, 137.2305
305.4233, 165.4648
305.9054, 163.9570
306.3875, 135.5781
306.8697, 94.73438
307.3518, 23.44141
307.8339, 46.05078
308.3160, 72.09375
308.7981, 21.30469
309.2802, 38.32422
309.7624, 45.17969
310.2445, 15.70312
310.7266, 1.054688
311.2087, 56.98828
311.6908, 126.7930
312.1729, 155.1211
312.6551, 120.2500
313.1372, 78.15234
313.6193, 59.55469
314.1014, 57.97656
314.5835, 55.19531
315.0656, 33.89453
315.5478, 13.03906
316.0299, 9.492188
316.5120, 36.75781
316.9941, 52.12500
317.4762, 20.55078
317.9583, 32.05469
318.4405, 60.19531
318.9226, 26.10938
319.4047, 16.97656
319.8868, 43.55859
320.3689, 44.58203
320.8510, 50.67969
321.3332, 76.51172
321.8153, 109.7500
322.2974, 133.6758
322.7795, 148.4180
323.2616, 150.5352
323.7437, 134.0859
324.2259, 93.07812
324.7080, 61.76953
325.1901, 52.25781
325.6722, 51.17969
326.1543, 43.67578
326.6364, 14.66016
327.1186, 5.710938
327.6007, 7.082031
328.0828, 13.47266
328.5649, 20.94922
329.0470, 0.8710940
329.5291, 21.94531
330.0113, 17.16797
330.4934, 42.52344
330.9755, 85.71094
331.4576, 99.46875
331.9397, 85.13672
332.4218, 70.31641
332.9040, 52.92578
333.3861, 38.17969
333.8682, 31.52344
334.3503, 37.34766
334.8324, 41.96875
335.3145, 42.10547
335.7967, 40.23047
336.2788, 48.96094
336.7609, 75.23438
337.2430, 98.62891
337.7251, 106.8516
338.2072, 98.29688
338.6894, 84.58203
339.1715, 63.19141
339.6536, 40.18359
340.1357, 30.91797
340.6178, 37.21875
341.0999, 48.65234
341.5821, 66.05078
342.0642, 88.49609
342.5463, 88.45312
343.0284, 57.22656
343.5105, 17.59766
343.9926, 8.726563
344.4748, 29.99609
344.9569, 58.20703
345.4390, 92.07812
345.9211, 125.8203
346.4032, 129.2500
346.8853, 98.65234
347.3675, 58.35156
347.8496, 29.65625
348.3317, 14.14453
348.8138, 16.03516
349.2959, 56.45312
349.7780, 111.9062
350.2602, 144.2188
350.7423, 153.4609
351.2244, 146.6484
351.7065, 112.3711
352.1887, 62.87500
352.6708, 26.42188
353.1529, 17.75781
353.6350, 25.85547
354.1171, 43.92188
354.5992, 70.16406
355.0814, 92.56250
355.5635, 102.3359
356.0456, 104.3945
356.5277, 103.0625
357.0098, 93.61719
357.4919, 90.08594
357.9741, 118.9141
358.4562, 163.3516
358.9383, 178.1953
359.4204, 104.0273
359.9025, 16.20312
360.3846, 32.49219
360.8668, 24.33984
361.3489, 0.5000000
361.8310, 42.24609
362.3131, 87.82422
362.7952, 108.2227
363.2773, 65.02344
363.7595, 20.68750
364.2416, 2.710938
364.7237, 20.21484
365.2058, 31.85938
365.6879, 20.41016
366.1700, 2.500000
366.6522, 2.066406
367.1343, 35.19531
367.6164, 55.47266
368.0985, 31.86328
368.5806, 39.46094
369.0627, 62.78906
369.5449, 13.08984
370.0270, 97.77734
370.5091, 123.9141
370.9912, 43.46484
371.4733, 12.43359
371.9554, 27.39453
372.4376, 6.812500
372.9197, 23.80469
373.4018, 71.09766
373.8839, 116.1172
374.3660, 149.4219
374.8481, 170.1875
375.3303, 180.8594
375.8124, 181.5547
376.2945, 170.7969
376.7766, 141.0977
377.2587, 85.77734
377.7408, 42.91016
378.2230, 34.36328
378.7051, 58.50391
379.1872, 89.32031
379.6693, 131.6094
380.1514, 163.6367
380.6335, 140.3164
381.1157, 67.16406
381.5978, 16.39453
382.0799, 25.01953
382.5620, 73.10156
383.0441, 115.1211
383.5262, 151.7891
384.0084, 175.3750
384.4905, 182.6797
384.9726, 171.5586
385.4547, 134.0781
385.9368, 45.60938
386.4189, 42.95312
386.9011, 65.68750
387.3832, 32.26172
387.8653, 11.98438
388.3474, 54.19922
388.8295, 84.58203
389.3116, 85.46875
389.7938, 38.58203
390.2759, 2.328125
390.7580, 17.00391
391.2401, 62.42969
391.7222, 112.0000
392.2043, 187.2500
392.6865, 237.0391
393.1686, 213.0156
393.6507, 90.94922
394.1328, 10.48828
394.6149, 60.39453
395.0970, 159.3359
395.5792, 216.1094
396.0613, 169.0312
396.5434, 121.5938
397.0255, 101.6445
397.5076, 110.4648
397.9897, 110.7891
398.4719, 90.18359
398.9540, 66.48828
399.4361, 49.43750
399.9182, 27.80469
400.4003, 31.13672
400.8824, 77.04688
401.3646, 149.1836
401.8467, 186.9102
402.3288, 171.9805
402.8109, 153.6016
403.2930, 161.2031
403.7751, 213.7305
404.2573, 211.0195
404.7394, 123.1133
405.2215, 11.77734
405.7036, 9.550781
406.1857, 74.12891
406.6678, 140.3242
407.1500, 141.0898
407.6321, 86.36328
408.1142, 32.62500
408.5963, 22.57812
409.0784, 59.01172
409.5605, 46.25391
410.0427, 7.441406
410.5248, 55.78125
411.0069, 87.62500
411.4890, 110.4297
411.9711, 137.8828
412.4532, 166.6836
412.9354, 181.8477
413.4175, 159.7812
413.8996, 120.5664
414.3817, 94.31641
414.8638, 87.88281
415.3459, 86.49609
415.8281, 74.48828
416.3102, 58.32031
416.7923, 51.03516
417.2744, 59.39844
417.7565, 77.98047
418.2386, 110.7891
418.7208, 162.2383
419.2029, 191.1641
419.6850, 143.7227
420.1671, 80.76562
420.6492, 60.13672
421.1313, 157.7031
421.6135, 234.2383
422.0956, 245.9492
422.5777, 203.2070
423.0598, 171.2617
423.5420, 173.1211
424.0241, 175.2188
424.5062, 160.4102
424.9883, 100.6641
425.4704, 76.77344
425.9525, 112.8398
426.4347, 172.5586
426.9168, 192.6914
427.3989, 160.3945
427.8810, 122.9102
428.3631, 89.65625
428.8452, 59.71484
429.3274, 65.12500
429.8095, 121.5938
430.2916, 182.0820
430.7737, 188.1953
431.2558, 135.1562
431.7379, 96.26953
432.2201, 86.75000
432.7022, 100.1719
433.1843, 132.1641
433.6664, 182.2461
434.1485, 211.9844
434.6306, 170.9141
435.1128, 88.88281
435.5949, 57.42969
436.0770, 96.17578
436.5591, 147.9102
437.0412, 135.8242
437.5233, 81.86328
438.0055, 39.35938
438.4876, 38.71094
438.9697, 57.76172
439.4518, 82.28906
439.9339, 112.0781
440.4160, 129.5742
440.8982, 102.9766
441.3803, 69.12891
441.8624, 64.95312
442.3445, 129.0742
442.8266, 189.1523
443.3087, 216.7852
443.7909, 220.4844
444.2730, 221.2656
444.7551, 236.2930
445.2372, 247.3477
445.7193, 247.8164
446.2014, 240.1719
446.6836, 206.2031
447.1657, 104.3164
447.6478, 2.644531
448.1299, 36.88672
448.6120, 57.34375
449.0941, 132.9414
449.5763, 155.1445
450.0584, 128.7109
450.5405, 109.1523
451.0226, 95.77734
451.5047, 90.39844
451.9868, 98.02734
452.4690, 122.5469
452.9511, 136.5039
453.4332, 136.2734
453.9153, 126.0781
454.3974, 105.1172
454.8795, 74.69922
455.3617, 62.64453
455.8438, 107.0391
456.3259, 177.5898
456.8080, 185.9492
457.2901, 127.3398
457.7722, 66.06250
458.2544, 70.79297
458.7365, 113.9258
459.2186, 144.2969
459.7007, 147.4883
460.1828, 132.0781
460.6649, 88.12109
461.1471, 27.44141
461.6292, 8.878906
462.1113, 21.55859
462.5934, 68.51172
463.0755, 97.83594
463.5576, 100.8047
464.0398, 100.8555
464.5219, 104.5664
465.0040, 108.3477
465.4861, 106.8320
465.9682, 80.07812
466.4503, 65.49219
466.9325, 86.48438
467.4146, 142.7852
467.8967, 158.4805
468.3788, 91.73438
468.8609, 26.75391
469.3430, 19.78906
469.8252, 97.40625
470.3073, 153.0820
470.7894, 178.7148
471.2715, 183.7578
471.7536, 185.6719
472.2357, 184.7695
472.7179, 179.3438
473.2000, 164.9375
473.6821, 142.0234
474.1642, 132.0312
474.6463, 136.8438
475.1284, 144.0039
475.6106, 140.8672
476.0927, 130.0117
476.5748, 123.3516
477.0569, 128.1758
477.5390, 134.2734
478.0211, 129.7188
478.5033, 117.6250
478.9854, 105.9375
479.4675, 116.2734
479.9496, 131.0312
480.4317, 136.7188
480.9138, 131.7930
481.3960, 120.1445
481.8781, 80.85938
482.3602, 45.94531
482.8423, 48.03125
483.3244, 159.7344
483.8065, 237.9609
484.2887, 226.1562
484.7708, 144.5430
485.2529, 106.0391
485.7350, 147.8594
486.2171, 198.0352
486.6992, 232.6055
487.1814, 257.5547
487.6635, 248.8398
488.1456, 184.6055
488.6277, 105.1133
489.1098, 69.25391
489.5919, 84.69141
490.0741, 102.4531
490.5562, 105.6484
491.0383, 104.8086
491.5204, 161.4180
492.0026, 278.7969
492.4847, 355.8203
492.9668, 279.4531
493.4489, 111.6406
493.9310, 46.45312
494.4131, 120.8398
494.8953, 226.9141
495.3774, 257.1016
495.8595, 230.5859
496.3416, 189.8086
496.8237, 118.9062
497.3058, 67.16016
497.7880, 86.29688
498.2701, 166.9688
498.7522, 238.6445
499.2343, 284.8906
499.7164, 298.2266
500.1985, 267.7695
500.6807, 144.7031
501.1628, 68.50391
501.6449, 92.52734
502.1270, 171.5781
502.6091, 229.0742
503.0912, 276.6016
503.5734, 283.5117
504.0555, 222.6250
504.5376, 99.85938
505.0197, 40.51562
505.5018, 62.50781
505.9839, 98.12109
506.4661, 110.5898
506.9482, 95.60547
507.4303, 80.61719
507.9124, 65.44922
508.3945, 56.06250
508.8766, 68.01172
509.3588, 98.46094
509.8409, 121.9375
510.3230, 118.7695
510.8051, 105.2500
511.2872, 121.9453
511.7693, 167.1758
512.2515, 200.4727
512.7336, 168.5117
513.2157, 118.4844
513.6978, 114.2695
514.1799, 192.9102
514.6620, 258.1719
515.1442, 236.0977
515.6263, 164.3984
516.1084, 113.8047
516.5905, 134.1406
517.0726, 152.7344
517.5547, 137.9766
518.0369, 88.04297
518.5190, 59.10547
519.0011, 73.74609
519.4832, 88.91406
519.9653, 79.13672
520.4474, 15.23047
520.9296, 1.570313
521.4117, 50.88672
521.8938, 130.6875
522.3759, 161.9844
522.8580, 138.1445
523.3401, 108.9648
523.8223, 88.21094
524.3044, 75.10938
524.7865, 68.59375
525.2686, 68.31641
525.7507, 70.75000
526.2328, 63.89062
526.7150, 58.13281
527.1971, 88.93359
527.6792, 175.9023
528.1613, 247.5234
528.6434, 229.9453
529.1255, 156.9453
529.6077, 87.86328
530.0898, 24.46484
530.5719, 8.792969
531.0540, 26.41016
531.5361, 117.8008
532.0182, 167.9492
532.5004, 86.32812
532.9825, 5.792969
533.4646, 7.718750
533.9467, 181.1719
534.4288, 249.4648
534.9109, 133.7852
535.3931, 34.18359
535.8752, 69.26172
536.3573, 91.39062
536.8394, 198.0586
537.3215, 180.4336
537.8036, 76.23047
538.2858, 43.75391
538.7679, 90.21875
539.2500, 138.6289
539.7321, 130.1367
540.2142, 82.02734
540.6964, 62.10156
541.1785, 78.04297
541.6606, 94.27734
542.1427, 64.45312
542.6248, 10.97266
543.1069, 24.04297
543.5891, 15.61719
544.0712, 1.960938
544.5533, 5.445313
545.0354, 24.39844
545.5175, 14.08984
545.9996, 81.85156
546.4818, 176.3906
546.9639, 230.9688
547.4460, 242.4375
547.9281, 215.8008
548.4102, 86.09375
548.8923, 34.71094
549.3745, 49.59766
549.8566, 119.8164
550.3387, 216.7383
550.8208, 195.5664
551.3029, 106.5273
551.7850, 66.75391
552.2672, 83.21875
552.7493, 107.7422
553.2314, 124.5039
553.7135, 133.6445
554.1956, 137.1953
554.6777, 135.2188
555.1599, 121.4766
555.6420, 71.85547
556.1241, 12.26953
556.6062, 4.550781
557.0883, 44.52734
557.5704, 93.34375
558.0526, 84.46484
558.5347, 42.58984
559.0168, 8.011719
559.4989, 9.539063
559.9810, 10.27344
560.4631, 24.42188
560.9453, 87.25391
561.4274, 109.6641
561.9095, 25.16797
562.3916, 52.51172
562.8737, 74.48047
563.3558, 23.41016
563.8380, 31.69531
564.3201, 101.8750
564.8022, 160.6523
565.2843, 174.0820
565.7664, 137.8555
566.2485, 92.91406
566.7307, 41.01953
567.2128, 6.734375
567.6949, 25.63672
568.1770, 17.53125
568.6591, 2.839844
569.1412, 41.97266
569.6234, 82.39062
570.1055, 100.5000
570.5876, 95.14453
571.0697, 74.29297
571.5518, 20.03125
572.0339, 35.53125
572.5161, 59.34375
572.9982, 29.40234
573.4803, 5.636719
573.9624, 42.12891
574.4445, 73.08594
574.9266, 83.17969
575.4088, 49.03125
575.8909, 22.29688
576.3730, 11.08594
576.8551, 15.48828
577.3372, 38.39062
577.8193, 90.98828
578.3015, 131.9961
578.7836, 130.4688
579.2657, 89.28516
579.7478, 72.66016
580.2299, 85.01172
580.7120, 105.1055
581.1942, 101.1406
581.6763, 83.59766
582.1584, 89.79297
582.6405, 151.5898
583.1226, 206.0273
583.6047, 155.0430
584.0869, 42.12109
584.5690, 17.44922
585.0511, 97.28906
585.5332, 223.1133
586.0153, 268.1797
586.4974, 225.6211
586.9796, 176.7344
587.4617, 114.5586
587.9438, 66.89062
588.4259, 52.56250
588.9080, 108.5273
589.3901, 125.2891
589.8723, 77.98828
590.3544, 15.21484
590.8365, 13.86328
591.3186, 84.01562
591.8007, 144.2773
592.2828, 174.6953
592.7650, 178.8945
593.2471, 153.0430
593.7292, 101.3242
594.2113, 57.62891
594.6934, 19.75000
595.1755, 0.9648440
595.6577, 20.67969
596.1398, 85.90625
596.6219, 147.2969
597.1040, 175.2148
597.5862, 184.4258
598.0683, 189.7500
598.5504, 199.7500
599.0325, 196.1328
599.5146, 162.1055
599.9968, 114.9102
600.4789, 80.69922
600.9610, 50.37891
601.4431, 49.45312
601.9252, 98.22656
602.4073, 179.4414
602.8895, 214.5859
603.3716, 197.1055
603.8537, 173.3906
604.3358, 168.8633
604.8179, 178.7695
605.3000, 177.6953
605.7822, 164.8320
606.2643, 144.9141
606.7464, 104.8516
607.2285, 63.51953
607.7106, 57.95312
608.1927, 104.9062
608.6749, 154.9727
609.1570, 167.4805
609.6391, 162.0625
610.1212, 171.2852
610.6033, 239.4961
611.0854, 287.9141
611.5676, 283.6445
612.0497, 232.4922
612.5318, 189.2148
613.0139, 150.1836
613.4960, 124.2500
613.9781, 115.4961
614.4603, 123.6406
614.9424, 151.6680
615.4245, 206.8750
615.9066, 252.8125
616.3887, 239.0938
616.8708, 179.1719
617.3530, 147.6523
617.8351, 163.4062
618.3172, 198.0859
618.7993, 229.2422
619.2814, 253.0156
619.7635, 261.7461
620.2457, 238.2695
620.7278, 207.2812
621.2099, 183.8906
621.6920, 166.1992
622.1741, 150.3164
622.6563, 118.4414
623.1384, 104.1641
623.6205, 130.4492
624.1026, 208.2383
624.5847, 250.9336
625.0668, 242.8867
625.5490, 221.5820
626.0311, 222.9180
626.5132, 250.1016
626.9953, 257.0703
627.4774, 235.7773
627.9595, 204.1016
628.4417, 174.4219
628.9238, 153.2656
629.4059, 168.8203
629.8880, 256.5195
630.3701, 352.5078
630.8522, 398.8633
631.3344, 401.5000
631.8165, 381.8438
632.2986, 304.7539
632.7807, 246.7812
633.2628, 266.9727
633.7449, 376.2266
634.2271, 438.3438
634.7092, 422.0430
635.1913, 372.3516
635.6734, 304.6445
636.1555, 197.9492
636.6376, 144.2031
637.1198, 155.4922
637.6019, 198.0625
638.0840, 238.9180
638.5661, 277.4180
639.0482, 305.1133
639.5303, 322.9062
640.0125, 323.8516
640.4946, 280.6680
640.9767, 209.7539
641.4588, 156.4922
641.9409, 145.6016
642.4230, 158.3438
642.9052, 194.4453
643.3873, 249.0703
643.8694, 288.9648
644.3515, 289.4219
644.8336, 285.3906
645.3157, 295.6484
645.7979, 323.8711
646.2800, 348.7578
646.7621, 368.1914
647.2442, 385.4727
647.7263, 407.5625
648.2084, 437.5977
648.6906, 435.9414
649.1727, 390.1445
649.6548, 335.0156
650.1369, 322.1992
650.6190, 342.9961
651.1011, 369.3125
651.5833, 402.2109
652.0654, 422.8008
652.5475, 396.8555
653.0296, 341.9023
653.5117, 308.1641
653.9938, 339.2109
654.4760, 375.5859
654.9581, 391.4648
655.4402, 384.9961
655.9223, 369.4375
656.4044, 323.1250
656.8865, 294.3359
657.3687, 315.5586
657.8508, 400.9570
658.3329, 458.3828
658.8150, 489.6328
659.2971, 487.5508
659.7792, 419.3164
660.2614, 302.1953
660.7435, 230.9453
661.2256, 227.5078
661.7077, 259.9648
662.1898, 309.9102
662.6719, 366.0469
663.1541, 404.7070
663.6362, 406.4492
664.1183, 398.3945
664.6004, 387.6562
665.0825, 376.1836
665.5646, 370.4297
666.0468, 391.2422
666.5289, 401.6719
667.0110, 381.7812
667.4931, 333.3477
667.9752, 300.8867
668.4573, 285.1914
668.9395, 283.3047
669.4216, 307.8633
669.9037, 349.9492
670.3858, 338.9062
670.8679, 265.4336
671.3500, 201.6094
671.8322, 252.5859
672.3143, 349.0234
672.7964, 376.0586
673.2785, 276.1953
673.7606, 180.9414
674.2427, 170.8906
674.7249, 206.0273
675.2070, 230.9023
675.6891, 220.8672
676.1712, 215.8320
676.6533, 228.8125
677.1354, 249.2148
677.6176, 245.5352
678.0997, 209.8906
678.5818, 175.3320
679.0639, 146.8242
679.5460, 129.9961
680.0281, 161.9336
680.5103, 239.5625
680.9924, 303.3594
681.4745, 302.6523
681.9566, 267.7148
682.4387, 230.5352
682.9208, 193.1914
683.4030, 175.8086
683.8851, 215.5430
684.3672, 263.3867
684.8493, 278.6758
685.3314, 232.5547
685.8135, 202.9141
686.2957, 205.6562
686.7778, 217.9102
687.2599, 208.9453
687.7420, 164.2305
688.2241, 165.7031
688.7062, 241.1562
689.1884, 339.1523
689.6705, 359.9609
690.1526, 313.2266
690.6347, 255.1172
691.1168, 187.7930
691.5989, 139.7500
692.0811, 170.2383
692.5632, 252.0820
693.0453, 297.7227
693.5274, 222.7969
694.0095, 143.2773
694.4916, 130.4219
694.9738, 190.9844
695.4559, 198.7734
695.9380, 110.1484
696.4201, 21.16016
696.9022, 27.74609
697.3843, 35.33984
697.8665, 3.222656
698.3486, 78.13672
698.8307, 159.6328
699.3128, 198.6797
699.7949, 200.1367
700.2770, 168.1133
700.7592, 95.82812
701.2413, 32.42188
701.7234, 38.55469
702.2055, 75.69141
702.6876, 86.82422
703.1697, 13.53125
703.6519, 21.16406
704.1340, 59.34375
704.6161, 189.1602
705.0982, 244.1328
705.5803, 172.2266
706.0624, 125.1328
706.5446, 141.7031
707.0267, 195.4141
707.5088, 220.3633
707.9909, 217.1523
708.4730, 192.8359
708.9551, 131.1250
709.4373, 60.79688
709.9194, 33.74609
710.4015, 47.03906
710.8836, 82.14453
711.3657, 159.7227
711.8478, 229.2422
712.3300, 252.1406
712.8121, 223.0547
713.2942, 191.0547
713.7763, 155.0000
714.2584, 127.6406
714.7405, 118.5078
715.2227, 134.4375
715.7048, 138.3750
716.1869, 127.5898
716.6690, 111.4570
717.1511, 102.7227
717.6332, 98.21094
718.1154, 70.16797
718.5975, 3.519531
719.0796, 38.96875
719.5617, 45.97266
720.0438, 185.3242
720.5259, 268.3867
721.0081, 229.5938
721.4902, 169.5000
721.9723, 114.5156
722.4544, 62.82812
722.9365, 5.804688
723.4186, 92.32422
723.9008, 130.3750
724.3829, 65.61719
724.8650, 59.44531
725.3471, 110.1719
725.8292, 81.56250
726.3113, 51.59375
726.7935, 47.70312
727.2756, 67.73828
727.7577, 125.2109
728.2398, 210.6289
728.7219, 274.0664
729.2040, 272.6562
729.6862, 249.9609
730.1683, 235.1328
730.6504, 230.3789
731.1325, 217.5234
731.6146, 178.3359
732.0967, 144.0820
732.5789, 132.3125
733.0610, 147.1680
733.5431, 154.4375
734.0252, 153.7812
734.5073, 151.0469
734.9894, 149.1289
735.4716, 145.2734
735.9537, 136.3516
736.4358, 121.6445
736.9179, 107.6523
737.4000, 102.8984
737.8821, 101.1211
738.3643, 94.08984
738.8464, 75.16406
739.3286, 59.84766
739.8107, 37.42969
740.2928, 28.21484
740.7749, 61.81641
741.2570, 174.7539
741.7391, 245.1211
742.2213, 252.3203
742.7034, 219.4453
743.1855, 176.4375
743.6676, 126.3477
744.1497, 108.6133
744.6318, 158.9180
745.1140, 216.1719
745.5961, 181.7852
746.0782, 91.12109
746.5603, 34.52344
747.0424, 95.79297
747.5245, 156.1484
748.0067, 153.0703
748.4888, 102.6289
748.9709, 87.36719
749.4530, 118.0000
749.9351, 149.0586
750.4172, 182.1172
750.8994, 210.7383
751.3815, 164.1094
751.8636, 36.48047
752.3457, 59.80078
752.8278, 22.41797
753.3099, 81.51953
753.7921, 139.8125
754.2742, 150.0820
754.7563, 136.3008
755.2384, 83.45312
755.7205, 34.92578
756.2026, 23.78125
756.6848, 63.05469
757.1669, 93.16016
757.6490, 122.1602
758.1311, 129.5703
758.6132, 85.93750
759.0953, 22.49219
759.5775, 53.50781
760.0596, 4.628906
760.5417, 95.42188
761.0238, 186.9453
761.5059, 262.5000
761.9880, 273.9492
762.4702, 202.2539
762.9523, 118.5508
763.4344, 33.47266
763.9165, 19.89844
764.3986, 3.105469
764.8807, 174.4883
765.3629, 299.6094
765.8450, 361.3828
766.3271, 366.1328
766.8092, 305.2734
767.2913, 164.3359
767.7734, 56.52734
768.2556, 1.144531
768.7377, 11.20312
769.2198, 52.58984
769.7019, 163.5781
770.1840, 243.5703
770.6661, 256.0781
771.1483, 241.6328
771.6304, 218.2930
772.1125, 189.1016
772.5946, 159.9844
773.0767, 118.0312
773.5588, 100.0547
774.0410, 120.6875
774.5231, 162.1289
775.0052, 159.0117
775.4873, 100.7891
775.9694, 63.94141
776.4515, 79.76953
776.9337, 126.5391
777.4158, 170.7969
777.8979, 210.3320
778.3800, 239.9062
778.8621, 254.0977
779.3442, 256.8398
779.8264, 256.2305
780.3085, 250.4727
780.7906, 227.8203
781.2727, 162.7383
781.7548, 98.86719
782.2369, 42.53906
782.7191, 2.250000
783.2012, 23.55859
783.6833, 132.3398
784.1654, 229.4453
784.6475, 256.5742
785.1296, 234.2344
785.6118, 201.2148
786.0939, 159.8281
786.5760, 128.2695
787.0581, 135.5547
787.5402, 143.7227
788.0223, 109.2148
788.5045, 22.58984
788.9866, 5.074219
789.4687, 148.5195
789.9508, 266.8203
790.4329, 251.0430
790.9150, 92.00391
791.3972, 4.085938
791.8793, 35.00391
792.3614, 29.52344
792.8435, 11.60547
793.3256, 66.18750
793.8077, 85.75781
794.2899, 65.75391
794.7720, 45.81641
795.2541, 51.86719
795.7362, 66.17188
796.2183, 75.41406
796.7004, 76.62109
797.1826, 75.41406
797.6647, 57.18359
798.1468, 56.16016
798.6289, 119.2852
799.1110, 248.5391
799.5931, 290.2070
800.0753, 227.6484
800.5574, 149.0781
801.0395, 151.5625
801.5216, 193.3242
802.0037, 206.2500
802.4858, 171.1016
802.9680, 139.4766
803.4501, 149.4375
803.9322, 165.6250
804.4143, 154.8242
804.8964, 107.5469
805.3785, 45.91406
805.8607, 55.52734
806.3428, 129.3047
806.8249, 74.09766
807.3070, 91.82812
807.7891, 201.5117
808.2712, 229.4336
808.7534, 215.0977
809.2355, 178.2969
809.7176, 131.4570
810.1997, 85.38281
810.6818, 33.47656
811.1639, 19.23438
811.6461, 107.0195
812.1282, 207.1328
812.6103, 217.1719
813.0924, 92.60938
813.5745, 20.44922
814.0566, 18.72656
814.5388, 64.06250
815.0209, 153.8477
815.5030, 268.5430
815.9851, 329.5781
816.4672, 309.7812
816.9493, 265.8516
817.4315, 237.1250
817.9136, 220.2773
818.3957, 202.9531
818.8778, 168.3008
819.3599, 153.6094
819.8420, 171.3203
820.3242, 201.1758
820.8063, 219.8789
821.2884, 227.4883
821.7705, 215.5547
822.2526, 179.1016
822.7347, 144.3984
823.2169, 162.0234
823.6990, 205.1289
824.1811, 214.5938
824.6632, 153.5859
825.1453, 93.78516
825.6274, 61.62500
826.1096, 54.15625
826.5917, 71.58203
827.0738, 140.5195
827.5559, 185.3320
828.0380, 199.2656
828.5201, 188.2773
829.0023, 153.8984
829.4844, 99.17969
829.9665, 42.36328
830.4486, 21.43750
830.9307, 58.11328
831.4128, 3.757813
831.8950, 106.6328
832.3771, 163.7188
832.8592, 96.23047
833.3413, 52.20312
833.8234, 100.3125
834.3055, 168.9922
834.7877, 164.5156
835.2698, 60.44922
835.7519, 5.945313
836.2340, 15.00000
836.7161, 15.71875
837.1982, 82.65234
837.6804, 169.2422
838.1625, 227.8555
838.6446, 235.4883
839.1267, 236.5156
839.6088, 269.6211
840.0909, 309.3242
840.5731, 325.3555
841.0552, 295.7344
841.5373, 244.9766
842.0194, 152.3477
842.5015, 77.16016
842.9836, 128.9141
843.4658, 299.0391
843.9479, 405.6758
844.4300, 407.7734
844.9121, 367.5977
845.3942, 339.9375
845.8763, 318.0547
846.3585, 289.2656
846.8406, 231.2539
847.3227, 202.0000
847.8048, 250.5156
848.2869, 315.1211
848.7690, 327.0312
849.2512, 265.1953
849.7333, 234.3555
850.2154, 255.2500
850.6975, 281.8359
851.1796, 237.1797
851.6617, 148.9648
852.1439, 90.17188
852.6260, 77.01172
853.1081, 87.34375
853.5902, 137.1406
854.0723, 187.8242
854.5544, 196.2930
855.0366, 115.6133
855.5187, 71.25391
856.0008, 73.64453
856.4829, 96.16797
856.9650, 113.7383
857.4471, 126.8672
857.9293, 149.7266
858.4114, 187.2578
858.8935, 207.2617
859.3756, 147.8867
859.8577, 70.25781
860.3398, 49.66797
860.8220, 116.7500
861.3041, 179.4844
861.7862, 223.3008
862.2683, 250.0664
862.7504, 258.7617
863.2325, 246.5781
863.7147, 222.0234
864.1968, 181.1094
864.6789, 157.5781
865.1610, 198.3047
865.6431, 263.1758
866.1252, 289.1562
866.6074, 267.9102
867.0895, 230.0117
867.5716, 160.0352
868.0537, 102.2422
868.5358, 99.39453
869.0179, 164.8398
869.5001, 186.7188
869.9822, 150.4883
870.4643, 108.2031
870.9464, 97.14453
871.4285, 109.9102
871.9106, 121.1719
872.3928, 130.9531
872.8749, 139.4297
873.3570, 144.6289
873.8391, 150.5898
874.3212, 167.4414
874.8033, 196.7383
875.2855, 192.3828
875.7676, 109.8438
876.2497, 60.73047
876.7318, 112.3359
877.2139, 241.8516
877.6960, 275.1094
878.1782, 215.1445
878.6603, 160.5586
879.1424, 186.0312
879.6245, 227.3438
880.1067, 218.4961
880.5888, 168.3906
881.0709, 124.2930
881.5530, 69.33203
882.0352, 48.51172
882.5173, 90.80469
882.9994, 180.9922
883.4815, 238.7969
883.9636, 261.7539
884.4457, 247.1836
884.9279, 165.6094
885.4100, 73.95312
885.8921, 73.04688
886.3742, 138.1094
886.8563, 203.6602
887.3384, 254.6289
887.8206, 287.4570
888.3027, 284.8984
888.7848, 263.9766
889.2669, 268.5859
889.7490, 304.9961
890.2311, 325.6211
890.7133, 317.9102
891.1954, 295.9336
891.6775, 272.4492
892.1596, 252.3516
892.6417, 251.2148
893.1238, 291.7031
893.6060, 317.9219
894.0881, 292.3789
894.5702, 242.0898
895.0523, 200.0664
895.5344, 170.8281
896.0165, 144.9648
896.4987, 127.2461
896.9808, 102.5312
897.4629, 19.19922
897.9450, 91.26562
898.4271, 91.06641
898.9092, 60.75781
899.3914, 204.9102
899.8735, 184.1250
900.3556, 118.5352
900.8377, 131.1172
901.3198, 295.5664
901.8019, 372.4727
902.2841, 323.3945
902.7662, 247.7852
903.2483, 218.9297
903.7304, 231.9375
904.2125, 255.1445
904.6946, 287.0938
905.1768, 307.6523
905.6589, 289.3828
906.1410, 261.7227
906.6231, 255.3672
907.1052, 273.3516
907.5873, 274.8125
908.0695, 251.3438
908.5516, 214.0117
909.0337, 159.7617
909.5158, 94.60938
909.9979, 57.13281
910.4800, 46.98438
910.9622, 45.00781
911.4443, 29.44531
911.9264, 24.82812
912.4085, 72.78906
912.8906, 154.8945
913.3727, 207.5156
913.8549, 167.7930
914.3370, 155.3125
914.8191, 218.9648
915.3012, 313.9062
915.7833, 306.1953
916.2654, 199.0195
916.7476, 114.0703
917.2297, 88.62109
917.7118, 111.5234
918.1939, 222.4961
918.6760, 358.0508
919.1581, 412.6211
919.6403, 274.9062
920.1224, 165.4258
920.6045, 109.1094
921.0866, 88.99219
921.5687, 93.56641
922.0508, 124.6016
922.5330, 147.5156
923.0151, 157.3945
923.4972, 166.4531
923.9793, 209.6250
924.4614, 250.1641
924.9435, 227.8281
925.4257, 115.0469
925.9078, 28.13281
926.3899, 16.19922
926.8720, 29.55859
927.3541, 39.07422
927.8362, 45.17578
928.3184, 55.63672
928.8005, 70.54297
929.2826, 91.43750
929.7647, 130.0078
930.2468, 169.4219
930.7289, 185.0195
931.2111, 179.1367
931.6932, 172.4258
932.1753, 189.2227
932.6574, 185.2109
933.1395, 126.4336
933.6216, 36.83203
934.1038, 41.32422
934.5859, 147.8438
935.0680, 201.5859
935.5501, 105.2539
936.0322, 26.19141
936.5143, 22.41016
936.9965, 60.99219
937.4786, 105.7812
937.9607, 10.32812
938.4428, 51.79688
938.9249, 22.82812
939.4070, 38.08594
939.8892, 31.53516
940.3713, 51.03125
940.8534, 37.51562
941.3355, 116.5469
941.8176, 277.6719
942.2997, 279.1211
942.7819, 198.2148
943.2640, 131.7344
943.7461, 94.77344
944.2282, 85.25781
944.7103, 130.2422
945.1924, 176.8203
945.6746, 191.9727
946.1567, 174.2109
946.6388, 168.4648
947.1209, 175.8789
947.6030, 171.7930
948.0851, 101.6953
948.5673, 34.62891
949.0494, 74.63672
949.5315, 207.2812
950.0136, 295.4688
950.4957, 260.9688
950.9778, 221.0117
951.4600, 209.2305
951.9421, 214.3438
952.4242, 193.9805
952.9063, 149.2109
953.3884, 102.4062
953.8705, 53.26172
954.3527, 19.10547
954.8348, 22.47266
955.3169, 53.03906
955.7990, 88.03516
956.2811, 142.9648
956.7632, 196.3828
957.2454, 252.4492
957.7275, 287.7656
958.2096, 246.6953
958.6917, 142.0703
959.1738, 112.3672
959.6559, 181.4023
960.1381, 246.2578
960.6202, 203.9688
961.1023, 124.0469
961.5844, 63.16797
962.0665, 27.57422
962.5486, 30.67578
963.0308, 94.61719
963.5129, 155.0547
963.9950, 177.4961
964.4771, 169.2695
964.9592, 164.9180
965.4413, 163.6172
965.9235, 158.5703
966.4056, 148.4180
966.8877, 130.9297
967.3698, 86.14062
967.8519, 32.06250
968.3340, 31.99609
968.8162, 119.5039
969.2983, 178.4180
969.7804, 175.3281
970.2625, 157.0469
970.7446, 238.0508
971.2267, 370.7852
971.7089, 404.0039
972.1910, 267.8711
972.6731, 121.6562
973.1552, 9.210938
973.6373, 43.47656
974.1194, 5.308594
974.6016, 206.1875
975.0837, 295.9609
975.5658, 259.2031
976.0479, 170.3164
976.5300, 46.12500
977.0121, 72.74219
977.4943, 96.26172
977.9764, 30.01953
978.4585, 44.02344
978.9406, 108.2812
979.4227, 149.2539
979.9048, 147.1875
980.3870, 118.9414
980.8691, 133.6328
981.3512, 194.2422
981.8333, 263.7969
982.3154, 352.3281
982.7975, 403.7695
983.2797, 293.5547
983.7618, 105.9531
984.2439, 11.69922
984.7260, 36.41406
985.2081, 84.94531
985.6902, 115.6875
986.1724, 127.5391
986.6545, 101.3828
987.1366, 41.67188
987.6187, 46.97656
988.1008, 126.5000
988.5829, 201.6094
989.0651, 190.5898
989.5472, 158.4531
990.0293, 169.9453
990.5114, 232.0703
990.9935, 264.8320
991.4756, 250.8203
991.9578, 232.6680
992.4399, 225.8008
992.9220, 226.5156
993.4041, 231.0000
993.8862, 232.7773
994.3683, 218.4648
994.8505, 147.2422
995.3326, 103.5352
995.8147, 171.3164
996.2968, 277.1602
996.7789, 308.5195
997.2610, 227.5898
997.7432, 196.3867
998.2253, 234.6094
998.7074, 286.5977
999.1895, 283.5625
999.6716, 250.5859
1000.154, 242.8125
1000.636, 268.3242
1001.118, 283.6758
1001.600, 270.0352
1002.082, 240.8164
1002.564, 191.6562
1003.046, 129.3789
1003.529, 129.3633
1004.011, 192.5312
1004.493, 240.1875
1004.975, 232.0820
1005.457, 194.2148
1005.939, 138.0977
1006.421, 75.26172
1006.903, 32.14844
1007.385, 8.878906
1007.868, 19.58203
1008.350, 80.78516
1008.832, 153.9414
1009.314, 191.1523
1009.796, 195.3555
1010.278, 170.5703
1010.760, 113.8789
1011.242, 85.82031
1011.725, 160.1094
1012.207, 253.2578
1012.689, 314.5547
1013.171, 340.7891
1013.653, 295.8906
1014.135, 156.0898
1014.617, 37.91797
1015.099, 13.36328
1015.581, 2.378906
1016.064, 108.2070
1016.546, 273.5898
1017.028, 377.5781
1017.510, 321.2422
1017.992, 266.3008
1018.474, 267.7969
1018.956, 281.2695
1019.438, 232.5000
1019.921, 117.7031
1020.403, 95.11328
1020.885, 187.1172
1021.367, 301.0586
1021.849, 383.1172
1022.331, 425.3086
1022.813, 398.1680
1023.295, 295.3945
1023.778, 247.9023
1024.260, 296.4453
1024.742, 329.2578
1025.224, 292.7070
1025.706, 220.4375
1026.188, 193.3555
1026.670, 204.0547
1027.152, 227.6992
1027.634, 275.8750
1028.117, 303.8125
1028.599, 274.2734
1029.081, 224.0586
1029.563, 194.1602
1030.045, 184.5469
1030.527, 213.8828
1031.009, 288.4883
1031.491, 354.3398
1031.974, 364.6602
1032.456, 342.2578
1032.938, 302.9062
1033.420, 250.7734
1033.902, 224.8594
1034.384, 255.5977
1034.866, 277.4844
1035.348, 276.7734
1035.830, 264.5156
1036.313, 256.4883
1036.795, 248.6094
1037.277, 227.1602
1037.759, 177.2227
1038.241, 135.8906
1038.723, 130.4492
1039.205, 143.9062
1039.687, 156.4609
1040.169, 170.5156
1040.652, 174.8945
1041.134, 171.1602
1041.616, 150.4062
1042.098, 54.10938
1042.580, 34.34375
1043.062, 55.70312
1043.544, 288.0273
1044.026, 432.0898
1044.509, 286.8008
1044.991, 203.4414
1045.473, 301.2344
1045.955, 477.7266
1046.437, 489.7422
1046.919, 361.6289
1047.401, 255.6250
1047.883, 212.5000
1048.365, 187.9531
1048.848, 155.4375
1049.330, 122.1016
1049.812, 93.67969
1050.294, 69.28516
1050.776, 56.57422
1051.258, 55.23438
1051.740, 67.28906
1052.222, 110.8398
1052.704, 158.7578
1053.187, 158.5078
1053.669, 123.9414
1054.151, 95.89453
1054.633, 78.84766
1055.115, 81.53125
1055.597, 116.3594
1056.079, 158.7617
1056.561, 172.3828
1057.044, 159.7266
1057.526, 126.1094
1058.008, 68.17188
1058.490, 51.46875
1058.972, 193.9453
1059.454, 338.8984
1059.936, 346.9766
1060.418, 222.4922
1060.901, 154.5391
1061.383, 154.3906
1061.865, 154.9609
1062.347, 123.1953
1062.829, 88.97656
1063.311, 108.0547
1063.793, 156.1328
1064.275, 187.0312
1064.757, 190.0625
1065.240, 165.6797
1065.722, 87.56250
1066.204, 24.34375
1066.686, 54.96094
1067.168, 157.0078
1067.650, 195.9141
1068.132, 172.5234
1068.614, 145.8516
1069.096, 153.7422
1069.579, 168.0703
1070.061, 173.6797
1070.543, 172.5312
1071.025, 168.2031
1071.507, 159.1094
1071.989, 161.0781
1072.471, 179.0234
1072.953, 200.2109
1073.436, 235.4531
1073.918, 257.4531
1074.400, 223.6172
1074.882, 111.9375
1075.364, 14.71094
1075.846, 77.82812
1076.328, 119.8750
1076.810, 62.39844
1077.292, 49.43750
1077.775, 66.25000
1078.257, 16.76562
1078.739, 3.968750
1079.221, 131.9141
1079.703, 236.4375
1080.185, 234.6641
1080.667, 192.0625
1081.149, 190.2031
1081.631, 234.2734
1082.114, 207.0781
1082.596, 98.85156
1083.078, 3.710938
1083.560, 14.71094
1084.042, 59.25000
1084.524, 80.14844
1085.006, 77.53906
1085.488, 86.79688
1085.971, 121.5469
1086.453, 123.0625
1086.935, 62.13281
1087.417, 5.828125
1087.899, 6.328125
1088.381, 69.09375
1088.863, 137.9688
1089.345, 213.9766
1089.828, 254.0547
1090.310, 236.4141
1090.792, 199.2891
1091.274, 157.7969
1091.756, 114.2031
1092.238, 73.27344
1092.720, 40.39844
1093.202, 41.17969
1093.684, 151.5938
1094.167, 227.7734
1094.649, 147.1328
1095.131, 20.86719
1095.613, 7.445313
1096.095, 126.1250
1096.577, 197.8125
1097.059, 208.6953
1097.541, 195.2969
1098.024, 186.4062
1098.506, 170.0469
1098.988, 118.0859
1099.470, 39.00000
1099.952, 17.91406
1100.434, 93.56250
1100.916, 124.3828
1101.398, 54.81250
1101.880, 38.41406
1102.363, 21.22656
1102.845, 54.96094
1103.327, 110.3359
1103.809, 127.3984
1104.291, 125.9219
1104.773, 79.22656
1105.255, 57.47656
1105.737, 116.1641
1106.219, 225.8594
1106.702, 230.9688
1107.184, 151.4453
1107.666, 87.85156
1108.148, 109.0781
1108.630, 128.6016
1109.112, 96.71094
1109.594, 46.39844
1110.076, 17.60156
1110.559, 13.25781
1111.041, 0.6015630
1111.523, 26.25000
1112.005, 41.49219
1112.487, 19.37500
1112.969, 13.15625
1113.451, 35.70312
1113.933, 47.82812
1114.416, 53.50000
1114.898, 48.89062
1115.380, 51.87500
1115.862, 68.64062
1116.344, 84.42969
1116.826, 69.78906
1117.308, 45.13281
1117.790, 46.42969
1118.272, 82.95312
1118.755, 105.1641
1119.237, 99.18750
1119.719, 85.58594
1120.201, 62.91406
1120.683, 45.64062
1121.165, 91.14844
1121.647, 175.7188
1122.129, 227.0391
1122.611, 215.9453
1123.094, 177.8203
1123.576, 76.95312
1124.058, 3.632813
1124.540, 12.67188
1125.022, 121.6172
1125.504, 155.0703
1125.986, 119.1172
1126.468, 88.82031
1126.951, 128.1406
1127.433, 168.3047
1127.915, 157.8672
1128.397, 122.8828
1128.879, 117.1953
1129.361, 149.4531
1129.843, 145.6328
1130.325, 93.81250
1130.807, 54.78125
1131.290, 95.32812
1131.772, 168.0234
1132.254, 247.3438
1132.736, 322.5391
1133.218, 318.0781
1133.700, 188.9922
1134.182, 103.1875
1134.664, 118.7578
1135.146, 170.7109
1135.629, 168.9219
1136.111, 127.7188
1136.593, 56.25000
1137.075, 57.22656
1137.557, 104.3125
1138.039, 45.12500
1138.521, 26.07031
1139.003, 63.79688
1139.486, 85.62500
1139.968, 152.0234
1140.450, 241.5234
1140.932, 293.7266
1141.414, 265.7422
1141.896, 241.3281
1142.378, 248.7891
1142.860, 258.3906
1143.343, 248.6016
1143.825, 220.6719
1144.307, 167.0625
1144.789, 95.73438
1145.271, 65.78906
1145.753, 172.7578
1146.235, 267.8125
1146.717, 282.0000
1147.199, 241.2109
1147.682, 163.2578
1148.164, 46.28906
1148.646, 17.68750
1149.128, 19.53125
1149.610, 7.726563
1150.092, 33.75781
1150.574, 82.78125
1151.056, 217.6094
1151.538, 396.0312
1152.021, 424.9219
1152.503, 281.0625
1152.985, 149.6562
1153.467, 68.69531
1153.949, 26.85156
1154.431, 25.84375
1154.913, 44.70312
1155.395, 59.02344
1155.878, 63.96094
1156.360, 102.3125
1156.842, 190.7344
1157.324, 250.0547
1157.806, 250.4766
1158.288, 206.7344
1158.770, 92.97656
1159.252, 35.64844
1159.734, 86.03125
1160.217, 21.14844
1160.699, 79.94531
1161.181, 65.14844
1161.663, 37.15625
1162.145, 30.59375
1162.627, 39.46875
1163.109, 59.57812
1163.591, 84.27344
1164.073, 94.52344
1164.556, 54.47656
1165.038, 43.70312
1165.520, 81.39844
1166.002, 128.6641
1166.484, 144.3281
1166.966, 139.4531
1167.448, 144.9453
1167.930, 163.2266
1168.413, 197.2734
1168.895, 301.7266
1169.377, 347.0078
1169.859, 276.9609
1170.341, 168.2578
1170.823, 148.4453
1171.305, 191.3906
1171.787, 168.7109
1172.270, 66.28125
1172.752, 3.906250
1173.234, 104.6094
1173.716, 200.8984
1174.198, 214.0000
1174.680, 173.0625
1175.162, 151.0156
1175.644, 147.6953
1176.126, 171.7188
1176.609, 236.0625
1177.091, 266.4922
1177.573, 151.6406
1178.055, 44.30469
1178.537, 68.46875
1179.019, 195.1719
1179.501, 219.7266
1179.983, 147.7031
1180.465, 66.89844
1180.948, 8.968750
1181.430, 44.03125
1181.912, 19.64844
1182.394, 115.7812
1182.876, 169.1953
1183.358, 174.8750
1183.840, 232.0156
1184.322, 341.3906
1184.805, 413.8750
1185.287, 390.9688
1185.769, 323.3125
1186.251, 183.6641
1186.733, 57.62500
1187.215, 92.70312
1187.697, 354.6094
1188.179, 448.7500
1188.661, 358.4766
1189.144, 250.8203
1189.626, 241.8672
1190.108, 276.4844
1190.590, 342.9766
1191.072, 409.3438
1191.554, 387.3906
1192.036, 232.8516
1192.518, 193.0000
1193.000, 305.3281
1193.483, 416.8750
1193.965, 374.5391
1194.447, 275.4141
1194.929, 195.0469
1195.411, 141.2812
1195.893, 129.3672
1196.375, 169.6172
1196.857, 199.4688
1197.340, 206.8438
1197.822, 204.8984
1198.304, 202.3984
1198.786, 201.9766
1199.268, 203.0234
1199.750, 206.7266
1200.232, 237.1797
1200.714, 313.2422
1201.197, 343.1484
1201.679, 288.9766
1202.161, 218.3125
1202.643, 239.9062
1203.125, 286.7422
1203.607, 252.6172
1204.089, 100.5859
1204.571, 76.39062
1205.053, 228.3203
1205.536, 344.7500
1206.018, 330.9219
1206.500, 260.8672
1206.982, 226.9219
1207.464, 218.2812
1207.946, 220.0469
1208.428, 237.0859
1208.910, 233.1406
1209.392, 197.0938
1209.875, 180.2188
1210.357, 225.7031
1210.839, 287.8906
1211.321, 295.0078
1211.803, 267.6953
1212.285, 246.2422
1212.767, 262.2031
1213.249, 222.2500
1213.732, 103.1328
1214.214, 6.695313
1214.696, 31.89844
1215.178, 106.1094
1215.660, 109.8750
1216.142, 73.25781
1216.624, 68.82031
1217.106, 150.6953
1217.589, 175.1328
1218.071, 124.6406
1218.553, 85.60938
1219.035, 171.3359
1219.517, 293.0234
1219.999, 323.2031
1220.481, 276.1094
1220.963, 208.8594
1221.445, 100.0469
1221.927, 48.84375
1222.410, 73.55469
1222.892, 125.0859
1223.374, 185.4219
1223.856, 223.0312
1224.338, 162.0234
1224.820, 25.92188
1225.302, 31.06250
1225.784, 22.94531
1226.267, 118.5859
1226.749, 264.2344
1227.231, 382.3594
1227.713, 376.0234
1228.195, 294.0703
1228.677, 164.0391
1229.159, 3.000000
1229.641, 58.47656
1230.124, 14.84375
1230.606, 84.64062
1231.088, 116.1953
1231.570, 155.4844
1232.052, 320.8906
1232.534, 488.1797
1233.016, 485.9062
1233.498, 296.7578
1233.980, 155.1328
1234.463, 71.02344
1234.945, 22.69531
1235.427, 0.6328130
1235.909, 22.90625
1236.391, 172.4922
1236.873, 342.0000
1237.355, 381.4531
1237.837, 262.6172
1238.320, 249.6172
1238.802, 372.7734
1239.284, 409.3203
1239.766, 239.0938
1240.248, 63.70312
1240.730, 180.7344
1241.212, 386.8438
1241.694, 427.6328
1242.177, 269.0625
1242.659, 190.7812
1243.141, 202.0938
1243.623, 199.3438
1244.105, 121.2578
1244.587, 49.38281
1245.069, 79.93750
1245.551, 153.9922
1246.033, 202.0781
1246.516, 218.3594
1246.998, 247.7500
1247.480, 291.0391
1247.962, 316.4531
1248.444, 304.9297
1248.926, 276.2031
1249.408, 228.4766
1249.890, 182.3516
1250.372, 171.8906
1250.855, 200.1719
1251.337, 251.7266
1251.819, 322.7109
1252.301, 333.9453
1252.783, 146.6719
1253.265, 9.875000
1253.747, 146.3281
1254.229, 373.5312
1254.712, 495.9531
1255.194, 512.1406
1255.676, 463.3359
1256.158, 357.9922
1256.640, 282.5234
1257.122, 329.1328
1257.604, 366.0312
1258.086, 303.3203
1258.568, 221.2891
1259.051, 201.2656
1259.533, 237.4375
1260.015, 269.2109
1260.497, 294.8984
1260.979, 311.8828
1261.461, 332.4297
1261.943, 323.5938
1262.425, 249.8828
1262.907, 171.6641
1263.390, 161.5859
1263.872, 202.0234
1264.354, 209.4609
1264.836, 189.1328
1265.318, 190.1094
1265.800, 263.0703
1266.282, 321.1641
1266.764, 347.3125
1267.247, 355.2734
1267.729, 353.0078
1268.211, 346.6250
1268.693, 364.4297
1269.175, 397.9688
1269.657, 396.8281
1270.139, 297.4297
1270.621, 227.7031
1271.104, 199.0156
1271.586, 209.4062
1272.068, 293.1250
1272.550, 400.5938
1273.032, 457.6719
1273.514, 461.5234
1273.996, 427.8047
1274.478, 328.7812
1274.960, 276.9141
1275.443, 295.2188
1275.925, 329.1641
1276.407, 314.1875
1276.889, 287.2578
1277.371, 296.1250
1277.853, 336.1172
1278.335, 369.6484
1278.817, 402.9219
1279.299, 389.1562
1279.782, 315.2812
1280.264, 238.2500
1280.746, 200.8828
1281.228, 193.9922
1281.710, 224.2109
1282.192, 278.7734
1282.674, 301.7422
1283.156, 287.9766
1283.639, 365.5156
1284.121, 563.3906
1284.603, 705.8203
1285.085, 588.4688
1285.567, 440.4219
1286.049, 426.3594
1286.531, 485.0547
1287.013, 476.3281
1287.495, 407.9453
1287.978, 353.7344
1288.460, 324.9219
1288.942, 294.8438
1289.424, 262.2891
1289.906, 202.1953
1290.388, 78.35156
1290.870, 47.78906
1291.352, 33.17188
1291.834, 81.62500
1292.317, 170.0547
1292.799, 214.1562
1293.281, 264.1484
1293.763, 382.8516
1294.245, 441.9531
1294.727, 395.3359
1295.209, 303.7344
1295.691, 260.3125
1296.174, 241.7031
1296.656, 191.5859
1297.138, 103.1953
1297.620, 94.46875
1298.102, 211.1953
1298.584, 304.8672
1299.066, 343.5000
1299.548, 338.5234
1300.031, 271.7109
1300.513, 191.4062
1300.995, 153.9297
1301.477, 164.6562
1301.959, 173.2109
1302.441, 190.7969
1302.923, 221.7578
1303.405, 266.9453
1303.887, 290.4453
1304.370, 241.0000
1304.852, 170.5312
1305.334, 119.4219
1305.816, 84.41406
1306.298, 30.06250
1306.780, 36.37500
1307.262, 22.17188
1307.744, 254.2500
1308.226, 433.3203
1308.709, 365.3750
1309.191, 261.6094
1309.673, 211.0703
1310.155, 110.6250
1310.637, 108.3125
1311.119, 103.9531
1311.601, 82.65625
1312.083, 53.42969
1312.566, 0.0000000E+00
##END=



