##NAMES=Cookeite
##RRUFFID=R061103
##IDEAL CHEMISTRY=LiAl_4_(Si_3_Al)O_10_(OH)_8_
##LOCALITY=Green mine, Saline County, Arkansas, USA
##OWNER=RRUFF
##SOURCE=Michael Scott
##DESCRIPTION=Mass of cream colored micaceous crystals
##STATUS=The identification of this mineral has been made only by X-ray diffraction.
##URL=rruff.info/R061103
202.7877, 0.0000000E+00
203.2698, 30.35156
203.7520, 69.49609
204.2341, 115.1484
204.7162, 57.34375
205.1983, 6.195313
205.6804, 7.093750
206.1625, 77.78906
206.6447, 162.9766
207.1268, 224.0664
207.6089, 248.4648
208.0910, 219.7891
208.5731, 197.1680
209.0552, 175.7930
209.5374, 153.8242
210.0195, 131.3516
210.5016, 102.2461
210.9837, 43.71484
211.4658, 47.78516
211.9479, 86.76562
212.4301, 8.011719
212.9122, 95.62891
213.3943, 158.7148
213.8764, 176.4922
214.3585, 172.4102
214.8406, 155.3984
215.3228, 126.2930
215.8049, 121.4492
216.2870, 169.6289
216.7691, 220.8945
217.2512, 233.0039
217.7333, 210.2422
218.2155, 195.4727
218.6976, 229.4219
219.1797, 305.1836
219.6618, 362.9922
220.1439, 381.6016
220.6260, 401.0625
221.1082, 452.8086
221.5903, 528.4844
222.0724, 597.1133
222.5545, 637.5352
223.0366, 654.2500
223.5187, 667.1250
224.0009, 673.6523
224.4830, 681.0352
224.9651, 704.7969
225.4472, 732.9570
225.9293, 738.3477
226.4114, 698.3164
226.8936, 627.0352
227.3757, 559.5195
227.8578, 489.0352
228.3399, 437.9180
228.8220, 424.9180
229.3041, 435.2305
229.7863, 449.2344
230.2684, 464.0977
230.7505, 474.2656
231.2326, 462.1484
231.7147, 415.3281
232.1968, 388.3945
232.6790, 419.1562
233.1611, 478.5703
233.6432, 542.5898
234.1253, 611.0117
234.6074, 668.2617
235.0895, 689.2734
235.5717, 669.8672
236.0538, 646.4336
236.5359, 631.2070
237.0180, 618.4297
237.5001, 595.6016
237.9822, 555.0469
238.4644, 533.2422
238.9465, 583.2539
239.4286, 703.8125
239.9107, 794.4648
240.3928, 807.9766
240.8749, 797.3008
241.3571, 815.6172
241.8392, 866.6016
242.3213, 914.5781
242.8034, 933.9727
243.2855, 928.0586
243.7676, 913.3633
244.2497, 883.2031
244.7319, 858.1562
245.2140, 860.8320
245.6961, 887.6172
246.1782, 909.4609
246.6603, 912.7930
247.1424, 900.2344
247.6246, 872.0273
248.1067, 814.6641
248.5888, 773.4062
249.0709, 808.4883
249.5530, 892.1133
250.0351, 944.9453
250.5173, 913.0820
250.9994, 843.4570
251.4815, 804.8555
251.9636, 800.9375
252.4457, 818.5195
252.9278, 856.2891
253.4100, 909.4727
253.8921, 969.7461
254.3742, 1056.969
254.8563, 1132.707
255.3384, 1148.836
255.8205, 1106.371
256.3027, 1062.773
256.7848, 1040.316
257.2669, 1039.883
257.7490, 1059.402
258.2311, 1110.250
258.7133, 1161.148
259.1954, 1195.488
259.6775, 1214.043
260.1596, 1216.449
260.6417, 1188.891
261.1238, 1156.289
261.6060, 1155.977
262.0880, 1195.203
262.5702, 1231.152
263.0523, 1241.504
263.5344, 1237.359
264.0165, 1237.422
264.4986, 1244.309
264.9807, 1261.059
265.4629, 1302.098
265.9450, 1371.535
266.4271, 1412.086
266.9092, 1401.117
267.3913, 1361.898
267.8734, 1314.375
268.3556, 1261.352
268.8377, 1211.301
269.3198, 1170.039
269.8019, 1139.203
270.2840, 1113.637
270.7661, 1077.023
271.2483, 1052.660
271.7304, 1069.836
272.2125, 1119.762
272.6946, 1156.047
273.1767, 1146.578
273.6588, 1097.055
274.1410, 1054.523
274.6231, 1028.617
275.1052, 998.2461
275.5873, 941.8047
276.0694, 876.6523
276.5515, 839.6250
277.0337, 849.2656
277.5158, 890.2031
277.9979, 922.3945
278.4800, 950.2383
278.9621, 962.9805
279.4442, 956.5273
279.9264, 935.7969
280.4085, 896.6445
280.8906, 840.1445
281.3727, 789.7148
281.8548, 780.1328
282.3369, 828.2383
282.8191, 879.8633
283.3012, 940.7148
283.7833, 1000.152
284.2654, 1064.086
284.7475, 1124.750
285.2296, 1155.332
285.7118, 1124.992
286.1939, 1026.070
286.6760, 956.2930
287.1581, 921.5820
287.6402, 907.1133
288.1223, 917.9648
288.6045, 945.2656
289.0866, 976.0898
289.5687, 1003.641
290.0508, 1026.074
290.5329, 1034.953
291.0150, 1038.590
291.4972, 1013.871
291.9793, 914.0820
292.4614, 805.4219
292.9435, 770.4570
293.4256, 838.4258
293.9077, 945.6797
294.3899, 973.1914
294.8720, 882.6289
295.3541, 815.4531
295.8362, 812.1484
296.3183, 815.4375
296.8004, 784.7305
297.2826, 719.3906
297.7647, 653.6250
298.2468, 622.8984
298.7289, 628.9414
299.2110, 636.6719
299.6931, 651.5586
300.1753, 660.9766
300.6574, 652.0352
301.1395, 632.9219
301.6216, 623.3555
302.1037, 635.9609
302.5858, 665.7227
303.0680, 702.2461
303.5501, 752.4805
304.0322, 791.5117
304.5143, 812.0273
304.9964, 813.9648
305.4785, 791.5703
305.9607, 736.7617
306.4428, 672.4570
306.9249, 613.0586
307.4070, 558.6328
307.8891, 545.4570
308.3712, 609.6289
308.8534, 701.4922
309.3355, 768.4219
309.8176, 811.2539
310.2997, 818.8398
310.7818, 750.0742
311.2639, 643.5586
311.7461, 606.8398
312.2282, 678.1445
312.7103, 762.5156
313.1924, 744.7852
313.6745, 642.0508
314.1566, 564.3398
314.6388, 543.9414
315.1209, 552.1211
315.6030, 574.2383
316.0851, 606.3281
316.5672, 614.2969
317.0493, 563.7383
317.5315, 470.9688
318.0136, 427.0312
318.4957, 486.0781
318.9778, 531.3672
319.4599, 500.0664
319.9420, 423.8125
320.4242, 363.9922
320.9063, 345.4180
321.3884, 356.6914
321.8705, 376.9453
322.3526, 421.7461
322.8347, 446.3711
323.3169, 440.6523
323.7990, 419.0547
324.2811, 382.0234
324.7632, 335.3359
325.2453, 305.6523
325.7274, 325.2031
326.2096, 404.6914
326.6917, 460.8477
327.1738, 491.0859
327.6559, 504.6250
328.1380, 498.1367
328.6201, 480.7266
329.1023, 459.9062
329.5844, 438.4688
330.0665, 419.4727
330.5486, 412.2617
331.0307, 421.9961
331.5128, 435.3164
331.9950, 450.4609
332.4771, 468.6836
332.9592, 496.0156
333.4413, 533.0078
333.9234, 563.5859
334.4055, 561.9180
334.8877, 521.9727
335.3698, 488.5273
335.8519, 485.0195
336.3340, 470.9023
336.8161, 410.5273
337.2982, 317.1758
337.7804, 240.8633
338.2625, 226.6562
338.7446, 255.6602
339.2267, 259.2305
339.7088, 225.5938
340.1909, 196.3047
340.6731, 204.1211
341.1552, 226.9531
341.6373, 230.9766
342.1194, 194.1914
342.6015, 161.6797
343.0836, 198.4961
343.5658, 294.4414
344.0479, 343.0156
344.5300, 288.3594
345.0121, 195.7773
345.4942, 160.3203
345.9763, 187.3711
346.4584, 216.6289
346.9406, 241.3828
347.4227, 250.3320
347.9048, 209.7578
348.3869, 113.3438
348.8690, 34.28516
349.3511, 46.85156
349.8333, 154.0469
350.3154, 236.2891
350.7975, 282.1719
351.2796, 311.5469
351.7617, 335.0469
352.2438, 352.1992
352.7260, 356.9062
353.2081, 344.6719
353.6902, 321.1289
354.1723, 303.4180
354.6544, 303.5273
355.1365, 292.3906
355.6187, 256.3828
356.1008, 219.9609
356.5829, 205.1367
357.0650, 212.6875
357.5471, 226.2695
358.0292, 234.9102
358.5114, 240.9336
358.9935, 243.6719
359.4756, 259.6836
359.9577, 255.1523
360.4398, 203.0586
360.9219, 124.5742
361.4041, 55.30469
361.8862, 13.94531
362.3683, 3.027344
362.8504, 0.7695310
363.3325, 37.46484
363.8146, 61.53906
364.2968, 53.01172
364.7789, 32.42969
365.2610, 10.02734
365.7431, 11.93359
366.2252, 24.10547
366.7073, 4.691406
367.1895, 36.50000
367.6716, 35.44141
368.1537, 41.17578
368.6358, 108.8711
369.1179, 82.11328
369.6000, 8.882813
370.0822, 82.32812
370.5643, 96.77734
371.0464, 96.81641
371.5285, 136.8789
372.0106, 210.0977
372.4927, 257.7109
372.9749, 246.3711
373.4570, 196.7266
373.9391, 158.7852
374.4212, 123.6875
374.9033, 117.2031
375.3854, 184.9062
375.8676, 267.3555
376.3497, 280.0234
376.8318, 209.9062
377.3139, 126.9414
377.7960, 106.5820
378.2781, 161.5781
378.7603, 187.2344
379.2424, 152.8477
379.7245, 119.9727
380.2066, 122.0000
380.6887, 142.9180
381.1708, 153.2188
381.6530, 132.0859
382.1351, 86.69531
382.6172, 55.87891
383.0993, 44.75000
383.5814, 44.08594
384.0635, 79.30859
384.5457, 104.0312
385.0278, 69.92188
385.5099, 18.07031
385.9920, 97.15625
386.4741, 100.5547
386.9562, 37.45312
387.4384, 5.101563
387.9205, 23.20312
388.4026, 38.90625
388.8847, 14.68359
389.3668, 26.31641
389.8489, 46.08984
390.3311, 24.35938
390.8132, 4.398438
391.2953, 4.808594
391.7774, 20.83203
392.2595, 55.51562
392.7416, 98.57422
393.2238, 142.0195
393.7059, 177.3828
394.1880, 206.3281
394.6701, 218.5039
395.1522, 198.9609
395.6343, 168.9805
396.1165, 150.8125
396.5986, 145.4102
397.0807, 142.6289
397.5628, 136.6289
398.0449, 127.2891
398.5270, 112.1484
399.0092, 79.02344
399.4913, 55.15625
399.9734, 48.87891
400.4555, 53.69922
400.9376, 60.37109
401.4197, 66.95703
401.9019, 81.21484
402.3840, 115.1836
402.8661, 180.6016
403.3482, 205.5039
403.8303, 149.1445
404.3124, 93.26172
404.7946, 74.23047
405.2767, 77.48438
405.7588, 68.19531
406.2409, 24.16016
406.7230, 37.14844
407.2051, 80.36719
407.6873, 105.9336
408.1694, 110.7344
408.6515, 71.36719
409.1336, 26.38281
409.6157, 10.83984
410.0978, 27.24219
410.5800, 47.02344
411.0621, 57.09375
411.5442, 58.29688
412.0263, 47.16406
412.5084, 20.77344
412.9905, 5.140625
413.4727, 31.51172
413.9548, 84.66406
414.4369, 92.78906
414.9190, 16.04297
415.4011, 62.18750
415.8832, 116.1719
416.3654, 146.5078
416.8475, 146.1211
417.3296, 112.5195
417.8117, 73.14062
418.2938, 67.21875
418.7759, 107.7969
419.2581, 140.1484
419.7402, 172.6367
420.2223, 190.2969
420.7044, 169.5898
421.1865, 129.3164
421.6686, 112.5586
422.1508, 147.1367
422.6329, 209.8438
423.1150, 231.4492
423.5971, 185.5234
424.0792, 163.6328
424.5613, 213.1758
425.0435, 270.0273
425.5256, 293.0391
426.0077, 278.6562
426.4898, 245.1328
426.9719, 190.8633
427.4540, 131.4062
427.9361, 119.1484
428.4182, 169.3008
428.9004, 205.7734
429.3825, 167.6484
429.8646, 90.11719
430.3467, 49.15234
430.8288, 59.18750
431.3109, 88.57031
431.7931, 138.7070
432.2752, 193.4609
432.7573, 218.6836
433.2394, 205.6250
433.7215, 182.1094
434.2036, 182.7188
434.6858, 215.5391
435.1679, 206.6094
435.6500, 93.65234
436.1321, 9.500000
436.6142, 45.02344
437.0963, 138.9492
437.5785, 173.1406
438.0606, 93.37109
438.5427, 33.15625
439.0248, 68.87891
439.5069, 23.68359
439.9890, 95.66406
440.4712, 122.1406
440.9533, 138.9297
441.4354, 161.6094
441.9175, 189.3477
442.3996, 216.2539
442.8817, 247.3008
443.3639, 268.1055
443.8460, 233.9336
444.3281, 138.4375
444.8102, 84.37109
445.2923, 134.1250
445.7744, 224.7266
446.2566, 262.5391
446.7387, 241.8945
447.2208, 208.2578
447.7029, 159.3125
448.1850, 115.7461
448.6671, 113.8125
449.1493, 153.3164
449.6314, 189.1055
450.1135, 184.7461
450.5956, 147.7461
451.0777, 133.7227
451.5598, 165.3086
452.0420, 190.5781
452.5241, 205.9414
453.0062, 208.5586
453.4883, 191.5742
453.9704, 156.4219
454.4525, 118.1367
454.9347, 91.54297
455.4168, 76.84375
455.8989, 72.60938
456.3810, 81.40234
456.8631, 97.71094
457.3452, 138.6094
457.8274, 178.1602
458.3095, 173.1328
458.7916, 101.1680
459.2737, 27.09766
459.7558, 18.55078
460.2379, 65.46875
460.7201, 116.4883
461.2022, 165.8633
461.6843, 199.5195
462.1664, 194.6992
462.6485, 158.3594
463.1306, 150.0195
463.6128, 190.9453
464.0949, 244.8086
464.5770, 303.7188
465.0591, 356.9922
465.5412, 377.5430
466.0233, 355.4844
466.5055, 322.9336
466.9876, 333.1172
467.4697, 409.3633
467.9518, 436.6094
468.4339, 393.1758
468.9160, 333.3828
469.3982, 253.1367
469.8803, 176.8750
470.3624, 157.4961
470.8445, 229.7305
471.3266, 337.8320
471.8087, 379.5078
472.2909, 349.0703
472.7730, 306.1719
473.2551, 250.2422
473.7372, 194.0078
474.2193, 140.2812
474.7014, 91.98828
475.1836, 73.99219
475.6657, 121.0078
476.1478, 185.5547
476.6299, 213.0391
477.1120, 209.1797
477.5941, 217.9141
478.0763, 266.4375
478.5584, 320.7266
479.0405, 308.0000
479.5226, 175.7969
480.0047, 85.88281
480.4868, 66.35547
480.9690, 68.44922
481.4511, 59.25000
481.9332, 42.41406
482.4153, 41.83594
482.8974, 74.77734
483.3795, 127.5781
483.8617, 157.6016
484.3438, 153.6602
484.8259, 157.0703
485.3080, 203.1758
485.7901, 237.8906
486.2722, 208.0938
486.7544, 124.6289
487.2365, 65.24219
487.7186, 95.18750
488.2007, 164.4297
488.6828, 189.5117
489.1649, 171.3555
489.6471, 168.0586
490.1292, 215.6641
490.6113, 282.6289
491.0934, 296.1406
491.5755, 234.1133
492.0576, 197.2461
492.5398, 221.5312
493.0219, 260.0195
493.5040, 274.4102
493.9861, 265.2930
494.4682, 263.6094
494.9503, 285.3203
495.4325, 314.9453
495.9146, 310.5469
496.3967, 253.5703
496.8788, 200.6992
497.3609, 146.2695
497.8430, 104.2148
498.3252, 90.71484
498.8073, 100.8242
499.2894, 108.7227
499.7715, 84.78125
500.2536, 56.50000
500.7357, 93.04297
501.2179, 196.1172
501.7000, 258.4102
502.1821, 226.4023
502.6642, 143.8008
503.1463, 76.69922
503.6284, 21.53906
504.1106, 6.132813
504.5927, 3.792969
505.0748, 36.67969
505.5569, 99.98828
506.0390, 178.1484
506.5211, 226.5078
507.0033, 217.5586
507.4854, 171.5703
507.9675, 142.0586
508.4496, 139.4844
508.9317, 130.8906
509.4138, 90.59375
509.8959, 65.08203
510.3781, 92.33203
510.8602, 158.5234
511.3423, 217.4688
511.8244, 245.5117
512.3065, 250.8555
512.7886, 235.4219
513.2708, 200.2383
513.7529, 196.3398
514.2350, 260.5508
514.7171, 329.3008
515.1992, 306.4336
515.6813, 189.2500
516.1635, 92.78516
516.6456, 36.46094
517.1277, 0.7265630
517.6098, 28.92188
518.0919, 43.89062
518.5740, 33.77734
519.0562, 6.480469
519.5383, 56.29688
520.0204, 77.96875
520.5025, 59.45703
520.9846, 52.10156
521.4667, 68.83594
521.9489, 84.42188
522.4310, 97.30469
522.9131, 100.9336
523.3952, 78.80859
523.8773, 15.03906
524.3594, 46.44531
524.8416, 47.39453
525.3237, 7.0312999E-02
525.8058, 27.51172
526.2879, 14.02734
526.7700, 9.906250
527.2521, 79.85938
527.7343, 216.7109
528.2164, 269.8438
528.6985, 153.0586
529.1806, 54.16797
529.6627, 63.04297
530.1448, 119.5312
530.6270, 134.2969
531.1091, 90.34766
531.5912, 47.78125
532.0733, 81.64453
532.5554, 190.1719
533.0375, 242.2891
533.5197, 203.7109
534.0018, 166.6914
534.4839, 166.0117
534.9660, 179.9922
535.4481, 184.5195
535.9302, 174.8125
536.4124, 169.4375
536.8945, 185.9297
537.3766, 213.2969
537.8587, 232.2500
538.3408, 241.2930
538.8229, 245.3438
539.3051, 247.0859
539.7872, 245.0664
540.2693, 235.4570
540.7514, 215.5273
541.2335, 193.5742
541.7156, 162.6875
542.1978, 134.5117
542.6799, 122.4766
543.1620, 121.3359
543.6441, 109.8359
544.1262, 70.00000
544.6083, 23.99219
545.0905, 35.48828
545.5726, 119.3008
546.0547, 173.4922
546.5368, 161.3555
547.0189, 131.1328
547.5010, 126.0312
547.9832, 141.1367
548.4653, 150.3398
548.9474, 143.9648
549.4295, 132.0156
549.9116, 127.3359
550.3937, 122.4219
550.8759, 91.13672
551.3580, 25.37891
551.8401, 34.92969
552.3222, 32.27734
552.8043, 47.20703
553.2864, 75.98438
553.7686, 40.30859
554.2507, 101.2539
554.7328, 11.79297
555.2149, 134.4336
555.6970, 233.6484
556.1791, 259.4727
556.6613, 238.0234
557.1434, 159.3984
557.6255, 52.25781
558.1076, 15.49609
558.5897, 62.44141
559.0718, 115.2891
559.5540, 127.4961
560.0361, 118.6914
560.5182, 147.4766
561.0003, 242.1406
561.4824, 300.8750
561.9645, 284.0742
562.4467, 247.0039
562.9288, 232.2773
563.4109, 236.0938
563.8930, 227.0000
564.3751, 183.7461
564.8572, 134.6328
565.3394, 157.9023
565.8215, 277.8945
566.3036, 342.3320
566.7857, 280.0000
567.2678, 219.0039
567.7499, 275.6719
568.2321, 403.8555
568.7142, 465.2852
569.1963, 383.5820
569.6784, 279.3945
570.1605, 233.8984
570.6426, 226.1055
571.1248, 212.1836
571.6069, 183.2070
572.0890, 164.0234
572.5711, 181.3281
573.0532, 232.7969
573.5353, 266.9375
574.0175, 270.9297
574.4996, 273.2891
574.9817, 279.2188
575.4638, 283.5469
575.9459, 285.7852
576.4280, 285.6250
576.9102, 277.8242
577.3923, 244.0977
577.8744, 203.3477
578.3565, 192.9688
578.8386, 212.2305
579.3207, 244.2656
579.8029, 286.4062
580.2850, 331.3008
580.7671, 373.4141
581.2492, 419.1133
581.7313, 422.2656
582.2134, 339.3828
582.6956, 259.0547
583.1777, 227.0117
583.6598, 221.9805
584.1419, 204.0586
584.6240, 162.9219
585.1061, 134.2070
585.5883, 174.0547
586.0704, 274.3555
586.5525, 329.0273
587.0346, 329.8320
587.5167, 301.3125
587.9988, 228.0586
588.4810, 145.7812
588.9631, 115.6406
589.4452, 148.8672
589.9273, 195.1250
590.4094, 266.1094
590.8915, 321.8906
591.3737, 309.0391
591.8558, 247.5117
592.3379, 204.2344
592.8200, 213.4688
593.3021, 257.5781
593.7842, 312.4805
594.2664, 394.9062
594.7485, 413.5820
595.2306, 297.9375
595.7127, 201.1406
596.1948, 219.2812
596.6769, 298.3750
597.1591, 341.6289
597.6412, 321.4297
598.1233, 279.6680
598.6054, 225.7344
599.0875, 175.5391
599.5696, 156.1602
600.0518, 169.3867
600.5339, 201.6680
601.0160, 247.0938
601.4981, 299.3398
601.9802, 336.3789
602.4623, 356.2695
602.9445, 363.0898
603.4266, 344.4883
603.9087, 330.6953
604.3908, 353.5273
604.8729, 386.1875
605.3550, 359.9961
605.8372, 217.4492
606.3193, 74.30078
606.8014, 78.87109
607.2835, 183.9180
607.7656, 239.0625
608.2477, 215.4922
608.7299, 168.7148
609.2120, 134.8398
609.6941, 117.9414
610.1762, 138.7266
610.6583, 273.9375
611.1404, 334.6367
611.6226, 231.3789
612.1047, 105.7773
612.5868, 85.16797
613.0689, 148.2930
613.5510, 192.6914
614.0331, 150.7266
614.5153, 78.50781
614.9974, 72.78125
615.4795, 124.1602
615.9616, 150.9141
616.4437, 131.5859
616.9258, 103.8320
617.4080, 100.5664
617.8901, 120.1680
618.3722, 138.3047
618.8543, 167.5078
619.3364, 179.2109
619.8185, 145.6758
620.3007, 110.8945
620.7828, 119.5078
621.2649, 165.4297
621.7470, 204.7656
622.2291, 204.8398
622.7112, 183.1133
623.1934, 176.7500
623.6755, 185.9258
624.1576, 194.5469
624.6397, 201.1445
625.1218, 201.6680
625.6039, 188.4375
626.0861, 162.9766
626.5682, 147.9805
627.0503, 148.5234
627.5324, 153.9023
628.0145, 157.1484
628.4966, 166.0352
628.9788, 205.2695
629.4609, 265.0586
629.9430, 289.7695
630.4251, 226.1016
630.9072, 116.3047
631.3893, 77.29297
631.8715, 116.4688
632.3535, 149.4141
632.8356, 153.1680
633.3177, 152.6758
633.7999, 183.6016
634.2820, 237.0938
634.7641, 247.4180
635.2462, 165.0391
635.7283, 93.07812
636.2104, 69.50000
636.6926, 74.96875
637.1747, 95.27734
637.6568, 123.1875
638.1389, 146.9336
638.6210, 157.7734
639.1031, 157.9570
639.5853, 150.3477
640.0674, 132.5312
640.5495, 127.9102
641.0316, 147.9375
641.5137, 171.8633
641.9958, 180.3086
642.4780, 176.1055
642.9601, 173.3398
643.4422, 186.1172
643.9243, 184.2227
644.4064, 138.5938
644.8885, 84.17578
645.3707, 65.64453
645.8528, 81.02734
646.3349, 89.76562
646.8170, 58.70312
647.2991, 11.36719
647.7813, 11.14453
648.2634, 62.83203
648.7455, 112.1133
649.2276, 158.3438
649.7097, 183.6484
650.1918, 158.9062
650.6740, 98.39062
651.1561, 62.67969
651.6382, 78.10547
652.1203, 87.06250
652.6024, 66.52344
653.0845, 36.18750
653.5667, 10.88672
654.0488, 5.867188
654.5309, 14.65625
655.0130, 16.38281
655.4951, 7.285156
655.9772, 29.80078
656.4594, 96.34375
656.9415, 130.7070
657.4236, 117.6094
657.9057, 87.79688
658.3878, 54.41016
658.8699, 21.95312
659.3521, 8.609375
659.8342, 36.44141
660.3163, 43.88281
660.7984, 17.43750
661.2805, 74.73438
661.7626, 49.28125
662.2448, 31.66016
662.7269, 80.43750
663.2090, 50.64062
663.6911, 6.441406
664.1732, 16.37109
664.6553, 16.84375
665.1375, 54.65234
665.6196, 100.8281
666.1017, 115.1836
666.5838, 54.57031
667.0659, 43.56641
667.5480, 76.31641
668.0302, 12.20703
668.5123, 34.94531
668.9944, 38.36328
669.4765, 40.41406
669.9586, 75.48828
670.4407, 124.6016
670.9229, 149.1094
671.4050, 135.2578
671.8871, 108.8047
672.3692, 94.54297
672.8513, 89.88281
673.3334, 82.03125
673.8156, 69.92578
674.2977, 79.96875
674.7798, 136.0508
675.2619, 198.1641
675.7440, 194.5625
676.2261, 102.3477
676.7083, 28.82422
677.1904, 38.14062
677.6725, 73.93359
678.1546, 57.67578
678.6367, 12.50391
679.1188, 45.54297
679.6010, 109.3672
680.0831, 152.1953
680.5652, 142.6797
681.0473, 105.4492
681.5294, 72.73828
682.0115, 47.74609
682.4937, 47.81641
682.9758, 79.50000
683.4579, 121.3477
683.9400, 149.0352
684.4221, 162.3477
684.9042, 182.2930
685.3864, 230.9258
685.8685, 252.5312
686.3506, 218.9375
686.8327, 171.8906
687.3148, 131.9492
687.7969, 106.3828
688.2791, 116.0469
688.7612, 198.8633
689.2433, 283.7617
689.7254, 317.3047
690.2075, 307.5352
690.6896, 256.0156
691.1718, 169.9727
691.6539, 90.94531
692.1360, 49.81641
692.6181, 45.10938
693.1002, 80.07031
693.5823, 173.4414
694.0645, 240.9102
694.5466, 268.8867
695.0287, 273.4414
695.5108, 249.5508
695.9929, 212.8516
696.4750, 197.0547
696.9572, 210.8125
697.4393, 235.9648
697.9214, 285.4023
698.4035, 328.0352
698.8856, 315.2031
699.3677, 269.2656
699.8499, 264.9609
700.3320, 337.7227
700.8141, 429.7891
701.2962, 451.5625
701.7783, 408.6953
702.2604, 376.7969
702.7426, 353.6836
703.2247, 365.4219
703.7068, 450.4336
704.1889, 551.2852
704.6710, 559.4258
705.1531, 446.0859
705.6353, 369.8906
706.1174, 357.8203
706.5995, 361.1992
707.0816, 378.4258
707.5637, 390.9336
708.0458, 367.0469
708.5280, 307.1758
709.0101, 258.8438
709.4922, 263.9102
709.9743, 298.3477
710.4564, 333.5430
710.9385, 364.3906
711.4207, 356.5508
711.9028, 298.1289
712.3849, 231.1133
712.8670, 191.3594
713.3491, 179.7188
713.8312, 205.1016
714.3134, 307.8125
714.7955, 375.3633
715.2776, 386.3086
715.7597, 373.8945
716.2418, 331.2617
716.7239, 278.1953
717.2061, 265.8516
717.6882, 328.3438
718.1703, 384.3789
718.6524, 382.2617
719.1345, 342.0312
719.6166, 284.5195
720.0988, 221.7852
720.5809, 172.6445
721.0630, 147.4453
721.5451, 150.3984
722.0272, 208.0273
722.5093, 327.1562
722.9915, 388.2461
723.4736, 371.9531
723.9557, 336.5078
724.4378, 298.2695
724.9199, 258.5664
725.4020, 223.6602
725.8842, 200.0195
726.3663, 181.9609
726.8484, 167.2695
727.3305, 158.9180
727.8126, 164.0625
728.2947, 179.3789
728.7769, 188.7461
729.2590, 195.4844
729.7411, 212.8984
730.2232, 262.3125
730.7053, 310.1484
731.1874, 292.8867
731.6696, 225.0938
732.1517, 168.6055
732.6338, 135.8320
733.1159, 127.2070
733.5980, 149.4336
734.0801, 189.2891
734.5623, 188.1914
735.0444, 111.8828
735.5265, 64.70312
736.0086, 87.41797
736.4907, 111.5820
736.9728, 87.14062
737.4550, 44.08203
737.9371, 44.89062
738.4192, 115.0469
738.9013, 160.2070
739.3834, 98.53516
739.8655, 28.89453
740.3477, 60.01172
740.8298, 152.2930
741.3119, 203.4531
741.7940, 180.6562
742.2761, 139.9883
742.7582, 150.9102
743.2404, 194.6172
743.7225, 177.0195
744.2046, 91.70703
744.6867, 35.22656
745.1688, 41.13281
745.6509, 69.63672
746.1331, 82.35938
746.6152, 80.99219
747.0973, 96.91797
747.5794, 151.6250
748.0615, 192.6523
748.5436, 217.0977
749.0258, 226.5938
749.5079, 211.5039
749.9900, 183.1328
750.4721, 170.8320
750.9542, 190.7617
751.4363, 206.9570
751.9185, 186.2188
752.4006, 149.9102
752.8827, 123.2891
753.3648, 109.6016
753.8469, 113.2031
754.3290, 136.0234
754.8112, 162.5742
755.2933, 163.6094
755.7754, 141.3906
756.2575, 170.8477
756.7396, 276.8750
757.2217, 336.9453
757.7039, 293.5586
758.1860, 209.8984
758.6681, 147.0664
759.1502, 106.4258
759.6323, 94.35938
760.1144, 163.2695
760.5966, 191.6055
761.0787, 102.1953
761.5608, 2.480469
762.0429, 12.23438
762.5250, 44.16406
763.0071, 107.1094
763.4893, 157.3516
763.9714, 177.6602
764.4535, 127.8516
764.9356, 47.14062
765.4177, 6.929688
765.8998, 9.058594
766.3820, 27.42578
766.8641, 50.34375
767.3462, 74.01562
767.8283, 95.63672
768.3104, 115.5898
768.7925, 108.9141
769.2747, 63.85938
769.7568, 28.39453
770.2389, 21.66406
770.7210, 27.64062
771.2031, 33.37500
771.6852, 38.38672
772.1674, 27.62500
772.6495, 33.73047
773.1316, 65.41797
773.6137, 17.60156
774.0958, 42.00000
774.5779, 50.07031
775.0601, 19.85156
775.5422, 4.898438
776.0243, 29.20312
776.5064, 66.28516
776.9885, 104.5547
777.4706, 133.6992
777.9528, 134.6094
778.4349, 108.4062
778.9170, 56.92188
779.3991, 19.46484
779.8812, 83.01172
780.3633, 75.91016
780.8455, 2.179688
781.3276, 69.53906
781.8097, 149.1523
782.2918, 182.4258
782.7739, 131.0977
783.2560, 62.85547
783.7382, 54.49609
784.2203, 98.42969
784.7024, 92.26953
785.1845, 49.65625
785.6666, 118.8828
786.1487, 30.07422
786.6309, 85.87500
787.1130, 145.2227
787.5951, 160.1445
788.0772, 173.9648
788.5593, 201.5742
789.0414, 218.9609
789.5236, 193.7031
790.0057, 159.4258
790.4878, 170.5781
790.9699, 209.3828
791.4520, 210.3164
791.9341, 155.5430
792.4163, 107.3164
792.8984, 140.9844
793.3805, 226.5234
793.8626, 224.4453
794.3447, 125.1016
794.8268, 86.91406
795.3090, 157.5391
795.7911, 248.0195
796.2732, 295.6758
796.7552, 304.5391
797.2374, 290.5859
797.7195, 233.8047
798.2016, 190.3555
798.6837, 170.9531
799.1658, 152.2109
799.6479, 117.6328
800.1301, 81.08984
800.6122, 66.05859
801.0943, 76.85547
801.5764, 77.09375
802.0585, 31.52734
802.5406, 9.375000
803.0228, 3.199219
803.5049, 38.26562
803.9870, 37.54688
804.4691, 1.851563
804.9512, 8.949219
805.4333, 51.04297
805.9155, 139.4883
806.3976, 196.2070
806.8797, 222.0195
807.3618, 209.2695
807.8439, 157.9609
808.3260, 121.2148
808.8082, 128.9531
809.2903, 159.3984
809.7724, 175.1914
810.2545, 175.2383
810.7366, 169.7305
811.2188, 151.8047
811.7009, 143.2969
812.1830, 161.9336
812.6651, 182.0195
813.1472, 168.8555
813.6293, 129.8555
814.1115, 117.7227
814.5936, 165.2188
815.0757, 200.8945
815.5578, 214.7539
816.0399, 206.6367
816.5220, 155.3008
817.0042, 86.73047
817.4863, 54.50781
817.9684, 77.14453
818.4505, 115.9102
818.9326, 147.6602
819.4147, 175.2148
819.8969, 207.8359
820.3790, 242.4492
820.8611, 259.5938
821.3432, 255.9688
821.8253, 250.3828
822.3074, 262.5312
822.7896, 279.5625
823.2717, 260.3906
823.7538, 207.1602
824.2359, 174.8711
824.7180, 173.7266
825.2001, 178.1562
825.6823, 171.2266
826.1644, 162.0195
826.6465, 172.5977
827.1286, 212.9375
827.6107, 231.2031
828.0928, 213.1484
828.5750, 194.5898
829.0571, 196.3633
829.5392, 194.8633
830.0213, 156.4297
830.5034, 84.88672
830.9855, 42.78906
831.4677, 62.21484
831.9498, 95.52734
832.4319, 147.0508
832.9140, 186.7578
833.3961, 174.5586
833.8782, 133.4023
834.3604, 118.3398
834.8425, 149.2344
835.3246, 188.4492
835.8067, 211.5312
836.2888, 221.2344
836.7709, 210.7852
837.2531, 189.2969
837.7352, 189.6680
838.2173, 222.0469
838.6994, 257.6016
839.1815, 266.8828
839.6636, 251.8203
840.1458, 204.7852
840.6279, 129.2617
841.1100, 113.2305
841.5921, 177.1914
842.0742, 234.9414
842.5563, 240.6641
843.0385, 220.1914
843.5206, 234.6172
844.0027, 309.0117
844.4848, 315.4648
844.9669, 201.5078
845.4490, 107.9062
845.9312, 67.65625
846.4133, 62.52734
846.8954, 95.02734
847.3775, 154.4844
847.8596, 188.8750
848.3417, 176.3320
848.8239, 166.6445
849.3060, 178.6211
849.7881, 187.0234
850.2702, 171.3984
850.7523, 142.8164
851.2344, 121.4570
851.7166, 111.6641
852.1987, 100.9805
852.6808, 73.08984
853.1629, 50.13672
853.6450, 50.32031
854.1271, 68.85156
854.6093, 103.9297
855.0914, 150.0117
855.5735, 190.8867
856.0556, 217.6992
856.5377, 230.0352
857.0198, 215.5273
857.5020, 186.9375
857.9841, 194.1562
858.4662, 235.9258
858.9483, 267.0391
859.4304, 270.0469
859.9125, 259.1719
860.3947, 248.5312
860.8768, 240.7539
861.3589, 249.7383
861.8410, 277.9102
862.3231, 269.8477
862.8052, 198.4375
863.2874, 138.4453
863.7695, 148.3828
864.2516, 192.7070
864.7337, 179.2969
865.2158, 68.36328
865.6979, 26.00391
866.1801, 127.0312
866.6622, 202.1445
867.1443, 179.6680
867.6264, 134.7070
868.1085, 138.9609
868.5906, 187.1953
869.0728, 229.7266
869.5549, 272.9805
870.0370, 284.3203
870.5191, 217.9219
871.0012, 148.9141
871.4833, 141.3125
871.9655, 171.0391
872.4476, 186.7695
872.9297, 175.7578
873.4118, 168.4883
873.8939, 184.8281
874.3760, 207.9453
874.8582, 232.1602
875.3403, 245.5391
875.8224, 219.8750
876.3045, 160.0859
876.7866, 99.49219
877.2687, 55.02734
877.7509, 37.59375
878.2330, 87.29297
878.7151, 171.0820
879.1972, 182.5195
879.6793, 125.7578
880.1614, 60.81250
880.6436, 7.414063
881.1257, 7.312500
881.6078, 53.69922
882.0899, 162.5703
882.5720, 202.2539
883.0541, 164.4375
883.5363, 165.8398
884.0184, 235.8789
884.5005, 277.2109
884.9826, 228.2578
885.4647, 135.5664
885.9468, 78.33594
886.4290, 57.98047
886.9111, 60.82422
887.3932, 97.03516
887.8753, 138.0781
888.3574, 194.1992
888.8395, 236.5938
889.3217, 238.8281
889.8038, 211.3242
890.2859, 175.0430
890.7680, 115.1875
891.2501, 84.10742
891.7322, 114.5586
892.2144, 143.3340
892.6965, 132.8164
893.1786, 111.8281
893.6607, 121.3848
894.1428, 159.2812
894.6249, 179.7344
895.1071, 166.7773
895.5892, 134.6367
896.0713, 55.90820
896.5534, 10.42969
897.0355, 17.04492
897.5176, 92.63281
897.9998, 100.0977
898.4819, 9.558594
898.9640, 58.42773
899.4461, 26.20508
899.9282, 138.9434
900.4103, 134.1699
900.8925, 63.72656
901.3746, 18.09375
901.8567, 8.244141
902.3388, 1.111328
902.8209, 31.29102
903.3030, 38.98633
903.7852, 70.33398
904.2673, 234.4961
904.7494, 274.0879
905.2315, 205.2773
905.7136, 144.2559
906.1957, 124.3516
906.6779, 117.3516
907.1600, 99.21484
907.6421, 79.76758
908.1242, 85.73828
908.6063, 116.4258
909.0884, 129.2656
909.5706, 119.0527
910.0527, 121.0605
910.5348, 155.6777
911.0169, 185.3262
911.4990, 156.5352
911.9811, 77.84766
912.4633, 45.75391
912.9454, 74.75586
913.4275, 93.56641
913.9096, 81.61328
914.3917, 84.75000
914.8738, 145.0742
915.3560, 223.0977
915.8381, 239.0801
916.3202, 178.0781
916.8023, 144.1992
917.2844, 178.7441
917.7665, 176.0684
918.2487, 49.56055
918.7308, 57.98633
919.2129, 12.56836
919.6950, 128.8203
920.1771, 200.2871
920.6592, 167.6289
921.1414, 136.2012
921.6235, 113.4160
922.1056, 99.16602
922.5877, 103.7969
923.0698, 109.0781
923.5519, 79.55859
924.0341, 28.80664
924.5162, 33.19141
924.9983, 159.3262
925.4804, 247.8965
925.9625, 217.0781
926.4446, 151.6191
926.9268, 81.70312
927.4089, 33.24219
927.8910, 59.20508
928.3731, 155.9863
928.8552, 214.0703
929.3373, 156.5508
929.8195, 75.67188
930.3016, 5.302734
930.7837, 31.51758
931.2658, 22.13477
931.7479, 126.9375
932.2300, 187.1582
932.7122, 173.1445
933.1943, 136.3223
933.6764, 111.1680
934.1585, 91.21094
934.6406, 59.49609
935.1227, 30.54492
935.6049, 52.80859
936.0870, 116.0918
936.5691, 149.4980
937.0512, 118.8145
937.5333, 73.25586
938.0154, 72.92383
938.4976, 94.08203
938.9797, 88.24805
939.4618, 64.84570
939.9439, 60.12695
940.4260, 79.55273
940.9081, 84.39062
941.3903, 53.06055
941.8724, 11.74805
942.3545, 4.394531
942.8366, 3.162109
943.3187, 65.75977
943.8008, 174.2383
944.2830, 219.3750
944.7651, 170.8184
945.2472, 101.0840
945.7293, 69.33984
946.2114, 60.27734
946.6935, 27.82031
947.1757, 25.60156
947.6578, 9.554688
948.1399, 86.68945
948.6220, 138.5703
949.1041, 94.92969
949.5862, 36.58398
950.0684, 49.81836
950.5505, 114.5254
951.0326, 144.9297
951.5147, 138.1543
951.9968, 118.7324
952.4789, 79.34375
952.9611, 48.62500
953.4432, 40.25781
953.9253, 46.13281
954.4074, 56.73438
954.8895, 71.86719
955.3716, 83.55664
955.8538, 87.24023
956.3359, 106.2832
956.8180, 151.2480
957.3001, 192.0000
957.7822, 211.6816
958.2643, 209.8711
958.7465, 180.2109
959.2286, 120.9570
959.7107, 87.27734
960.1928, 99.02344
960.6749, 92.72656
961.1570, 46.22852
961.6391, 3.095703
962.1212, 18.64648
962.6033, 20.05469
963.0854, 4.015625
963.5676, 63.23242
964.0497, 84.10938
964.5318, 23.55469
965.0139, 9.107422
965.4960, 23.54688
965.9781, 67.83008
966.4603, 98.30273
966.9424, 113.4766
967.4245, 103.0352
967.9066, 50.66016
968.3887, 45.51953
968.8708, 158.1484
969.3530, 227.4766
969.8351, 182.1777
970.3172, 113.7773
970.7993, 80.74609
971.2814, 77.70117
971.7635, 87.14648
972.2457, 111.8789
972.7278, 133.4668
973.2099, 164.6914
973.6920, 170.5293
974.1741, 119.5215
974.6563, 55.72656
975.1384, 5.921875
975.6205, 24.47656
976.1026, 21.65430
976.5847, 26.03711
977.0668, 64.67578
977.5490, 76.22852
978.0311, 78.62305
978.5132, 70.17773
978.9953, 63.47656
979.4774, 78.00977
979.9595, 104.6719
980.4417, 108.4570
980.9238, 70.91016
981.4059, 47.34180
981.8880, 64.85742
982.3701, 86.54883
982.8522, 99.63672
983.3344, 103.6699
983.8165, 100.5273
984.2986, 92.21680
984.7807, 73.22852
985.2628, 28.79102
985.7449, 0.1523440
986.2271, 10.63867
986.7092, 29.11914
987.1913, 24.86914
987.6734, 27.62891
988.1555, 99.61523
988.6376, 214.1992
989.1198, 254.0039
989.6019, 152.1875
990.0840, 60.05469
990.5661, 53.07617
991.0482, 59.23633
991.5303, 19.30078
992.0125, 24.93750
992.4946, 7.892578
992.9767, 60.09570
993.4588, 105.0996
993.9409, 100.1445
994.4230, 78.95508
994.9052, 30.29297
995.3873, 0.6230470
995.8694, 45.48242
996.3515, 107.8770
996.8336, 93.40625
997.3157, 14.65039
997.7979, 22.97852
998.2800, 37.41602
998.7621, 82.97266
999.2442, 33.94336
999.7263, 16.74805
1000.208, 8.195313
1000.691, 64.02734
1001.173, 88.43359
1001.655, 79.09180
1002.137, 66.86328
1002.619, 57.78320
1003.101, 60.78125
1003.583, 97.04688
1004.065, 128.5273
1004.547, 115.6387
1005.030, 88.73047
1005.512, 100.0469
1005.994, 142.7910
1006.476, 162.1543
1006.958, 131.1230
1007.440, 102.2637
1007.922, 116.2500
1008.404, 122.8828
1008.887, 58.04492
1009.369, 13.59570
1009.851, 6.441406
1010.333, 100.2617
1010.815, 154.8516
1011.297, 121.8379
1011.779, 92.44531
1012.261, 127.0254
1012.743, 153.5195
1013.226, 111.6406
1013.708, 47.71875
1014.190, 12.86914
1014.672, 9.273438
1015.154, 18.56641
1015.636, 38.31836
1016.118, 61.54883
1016.600, 94.69141
1017.083, 119.8848
1017.565, 124.4316
1018.047, 117.9512
1018.529, 104.4492
1019.011, 89.69922
1019.493, 92.06641
1019.975, 116.9512
1020.457, 133.8242
1020.939, 146.5469
1021.422, 150.7148
1021.904, 144.3164
1022.386, 127.8809
1022.868, 90.23438
1023.350, 45.76758
1023.832, 29.63281
1024.314, 53.94336
1024.796, 80.32031
1025.279, 100.1074
1025.761, 117.7109
1026.243, 136.2441
1026.725, 152.9355
1027.207, 170.8438
1027.689, 183.0293
1028.171, 171.6445
1028.653, 130.1660
1029.135, 89.47461
1029.618, 37.44531
1030.100, 11.43555
1030.582, 44.54102
1031.064, 86.54297
1031.546, 104.4941
1032.028, 103.4414
1032.510, 94.68359
1032.992, 77.59766
1033.474, 62.45703
1033.957, 46.38867
1034.439, 45.67578
1034.921, 69.73633
1035.403, 99.49414
1035.885, 128.8164
1036.367, 153.7422
1036.849, 166.6777
1037.331, 166.5547
1037.814, 167.6445
1038.296, 173.9980
1038.778, 175.5078
1039.260, 181.5762
1039.742, 170.0078
1040.224, 119.3281
1040.706, 52.30469
1041.188, 10.39062
1041.671, 67.57812
1042.153, 68.10156
1042.635, 33.60156
1043.117, 95.72852
1043.599, 93.23633
1044.081, 77.87695
1044.563, 62.92383
1045.045, 53.34180
1045.527, 56.74219
1046.010, 71.33398
1046.492, 81.11914
1046.974, 79.06250
1047.456, 97.14844
1047.938, 150.1504
1048.420, 182.8262
1048.902, 170.8574
1049.384, 141.8047
1049.866, 115.9531
1050.349, 99.78125
1050.831, 112.7891
1051.313, 165.4766
1051.795, 154.5762
1052.277, 59.58203
1052.759, 13.77930
1053.241, 63.05273
1053.723, 126.7246
1054.205, 142.0195
1054.688, 124.0176
1055.170, 105.5859
1055.652, 85.06641
1056.134, 43.29297
1056.616, 23.51172
1057.098, 15.25781
1057.580, 90.30078
1058.062, 187.9238
1058.545, 210.0547
1059.027, 190.9473
1059.509, 182.2910
1059.991, 178.9746
1060.473, 150.3398
1060.955, 103.6250
1061.437, 90.18555
1061.919, 113.9473
1062.401, 135.4473
1062.884, 136.4453
1063.366, 117.5918
1063.848, 68.60352
1064.330, 13.57812
1064.812, 9.958984
1065.294, 40.58594
1065.776, 62.14258
1066.258, 71.69336
1066.740, 77.27344
1067.223, 80.64453
1067.705, 89.50000
1068.187, 111.5703
1068.669, 129.4922
1069.151, 108.5918
1069.633, 78.41797
1070.115, 95.86523
1070.597, 139.3633
1071.080, 143.5625
1071.562, 105.6270
1072.044, 93.56250
1072.526, 154.5527
1073.008, 211.0391
1073.490, 196.7930
1073.972, 154.3125
1074.454, 109.3887
1074.937, 71.67188
1075.419, 63.81836
1075.901, 73.56055
1076.383, 45.50000
1076.865, 50.65039
1077.347, 97.62500
1077.829, 6.4452998E-02
1078.311, 111.1738
1078.793, 184.7969
1079.276, 221.8125
1079.758, 211.0781
1080.240, 170.7129
1080.722, 132.6758
1081.204, 101.0547
1081.686, 84.63867
1082.168, 78.34180
1082.650, 98.17773
1083.132, 181.7656
1083.615, 254.9141
1084.097, 278.7012
1084.579, 265.8789
1085.061, 218.7188
1085.543, 141.7930
1086.025, 99.71680
1086.507, 116.7051
1086.989, 119.1367
1087.472, 86.58008
1087.954, 77.36328
1088.436, 137.2949
1088.918, 189.3125
1089.400, 148.1328
1089.882, 51.68750
1090.364, 30.88477
1090.846, 103.7930
1091.328, 139.1035
1091.811, 128.3945
1092.293, 124.0234
1092.775, 139.4336
1093.257, 156.7715
1093.739, 165.1680
1094.221, 166.3652
1094.703, 161.6562
1095.185, 152.5020
1095.667, 147.0156
1096.150, 145.8008
1096.632, 154.2832
1097.114, 172.8223
1097.596, 195.2617
1098.078, 218.5078
1098.560, 222.3184
1099.042, 176.3926
1099.524, 110.9766
1100.007, 98.32812
1100.489, 119.5234
1100.971, 100.7266
1101.453, 57.78711
1101.935, 66.34180
1102.417, 134.1484
1102.899, 179.4922
1103.381, 147.7266
1103.864, 105.9082
1104.346, 127.9336
1104.828, 162.7285
1105.310, 146.7324
1105.792, 112.2109
1106.274, 109.6680
1106.756, 136.6758
1107.238, 164.3945
1107.720, 184.3789
1108.203, 198.7285
1108.685, 219.6777
1109.167, 220.7832
1109.649, 170.5254
1110.131, 113.5254
1110.613, 77.89453
1111.095, 64.59961
1111.577, 73.50000
1112.059, 103.1621
1112.542, 133.6875
1113.024, 183.0586
1113.506, 200.2930
1113.988, 144.0586
1114.470, 103.0488
1114.952, 127.4844
1115.434, 164.0117
1115.916, 157.8438
1116.399, 123.4297
1116.881, 108.1934
1117.363, 115.3125
1117.845, 123.5117
1118.327, 134.1777
1118.809, 139.6602
1119.291, 138.1836
1119.773, 133.7969
1120.255, 129.3926
1120.738, 119.6543
1121.220, 91.85938
1121.702, 56.01172
1122.184, 64.66016
1122.666, 110.5371
1123.148, 131.4199
1123.630, 125.3574
1124.112, 131.3477
1124.594, 161.8613
1125.077, 200.1484
1125.559, 237.4375
1126.041, 259.6992
1126.523, 234.2559
1127.005, 189.6680
1127.487, 175.2734
1127.969, 179.2227
1128.451, 174.5820
1128.934, 158.0020
1129.416, 135.2246
1129.898, 107.6465
1130.380, 91.18359
1130.862, 98.89258
1131.344, 116.6992
1131.826, 149.9473
1132.308, 175.9043
1132.791, 175.5137
1133.273, 152.7500
1133.755, 96.54102
1134.237, 14.45898
1134.719, 3.312500
1135.201, 118.2578
1135.683, 217.7207
1136.165, 282.0176
1136.647, 299.0762
1137.130, 229.6035
1137.612, 152.9824
1138.094, 134.7227
1138.576, 157.8320
1139.058, 182.7656
1139.540, 212.1738
1140.022, 214.7539
1140.504, 189.4590
1140.986, 132.7871
1141.469, 33.32031
1141.951, 22.74609
1142.433, 9.632813
1142.915, 84.37695
1143.397, 161.3594
1143.879, 214.7754
1144.361, 130.8242
1144.843, 35.27539
1145.326, 25.96875
1145.808, 121.5781
1146.290, 192.4668
1146.772, 147.1465
1147.254, 104.6289
1147.736, 133.1758
1148.218, 176.8086
1148.700, 185.8809
1149.182, 177.1680
1149.665, 163.6484
1150.147, 147.3555
1150.629, 122.7949
1151.111, 99.63477
1151.593, 108.9004
1152.075, 151.8789
1152.557, 157.9414
1153.039, 50.41602
1153.521, 11.31445
1154.004, 76.35547
1154.486, 150.5293
1154.968, 110.9863
1155.450, 36.15625
1155.932, 1.998047
1156.414, 8.027344
1156.896, 8.585938
1157.378, 57.88086
1157.861, 62.56250
1158.343, 6.767578
1158.825, 15.68359
1159.307, 75.45117
1159.789, 149.3633
1160.271, 147.0859
1160.753, 112.4570
1161.235, 92.84375
1161.718, 85.16211
1162.200, 82.92188
1162.682, 84.72070
1163.164, 79.72852
1163.646, 71.21094
1164.128, 84.14648
1164.610, 117.5410
1165.092, 125.1602
1165.574, 81.02344
1166.057, 41.45703
1166.539, 71.06836
1167.021, 120.4355
1167.503, 147.6465
1167.985, 158.4199
1168.467, 157.2988
1168.949, 145.1465
1169.431, 115.7227
1169.913, 74.92773
1170.396, 70.21289
1170.878, 149.9492
1171.360, 188.1074
1171.842, 118.1543
1172.324, 52.52930
1172.806, 34.50195
1173.288, 33.79297
1173.770, 32.21875
1174.253, 30.55273
1174.735, 28.04492
1175.217, 24.90625
1175.699, 45.75195
1176.181, 98.36133
1176.663, 119.8066
1177.145, 100.2266
1177.627, 96.67188
1178.109, 130.3770
1178.592, 158.0703
1179.074, 143.5352
1179.556, 106.9609
1180.038, 73.63086
1180.520, 48.83008
1181.002, 56.16406
1181.484, 78.35156
1181.966, 67.95312
1182.448, 32.08398
1182.931, 18.17969
1183.413, 39.09766
1183.895, 53.25195
1184.377, 20.55469
1184.859, 4.496094
1185.341, 65.79297
1185.823, 129.2363
1186.305, 139.6699
1186.788, 128.1387
1187.270, 135.9316
1187.752, 153.7500
1188.234, 136.1094
1188.716, 65.96875
1189.198, 50.55273
1189.680, 127.6777
1190.162, 158.3008
1190.645, 116.8555
1191.127, 75.11133
1191.609, 62.90820
1192.091, 67.25195
1192.573, 77.34961
1193.055, 88.66211
1193.537, 83.01367
1194.019, 68.66602
1194.501, 101.0664
1194.984, 162.8828
1195.466, 166.3555
1195.948, 113.1836
1196.430, 84.81250
1196.912, 110.2344
1197.394, 135.2598
1197.876, 111.2910
1198.358, 83.44141
1198.840, 93.78125
1199.323, 109.6562
1199.805, 95.23242
1200.287, 74.57617
1200.769, 94.60742
1201.251, 136.6582
1201.733, 117.7090
1202.215, 2.082031
1202.697, 37.51758
1203.180, 68.67969
1203.662, 122.3535
1204.144, 69.64844
1204.626, 39.80664
1205.108, 97.75586
1205.590, 169.5703
1206.072, 184.1328
1206.554, 154.7988
1207.036, 100.1367
1207.519, 30.07031
1208.001, 18.13477
1208.483, 52.16602
1208.965, 69.66602
1209.447, 66.45898
1209.929, 79.82031
1210.411, 120.8984
1210.893, 144.7266
1211.375, 107.8262
1211.858, 69.10352
1212.340, 80.77539
1212.822, 105.3262
1213.304, 110.8535
1213.786, 111.6387
1214.268, 139.4434
1214.750, 175.5312
1215.232, 159.8027
1215.714, 77.20508
1216.197, 24.33984
1216.679, 9.873047
1217.161, 12.60742
1217.643, 40.93945
1218.125, 56.32812
1218.607, 39.50781
1219.089, 23.78320
1219.571, 57.29883
1220.054, 109.3516
1220.536, 135.5957
1221.018, 142.0781
1221.500, 152.0352
1221.982, 162.1484
1222.464, 159.7227
1222.946, 147.2910
1223.428, 142.5762
1223.911, 146.3145
1224.393, 126.6523
1224.875, 56.44922
1225.357, 1.751953
1225.839, 15.17969
1226.321, 0.5996090
1226.803, 60.69141
1227.285, 122.9023
1227.767, 155.9102
1228.250, 163.5234
1228.732, 148.3613
1229.214, 114.9453
1229.696, 104.5117
1230.178, 122.4102
1230.660, 101.5957
1231.142, 71.89453
1231.624, 61.76758
1232.106, 83.46680
1232.589, 89.11133
1233.071, 56.87891
1233.553, 15.34570
1234.035, 0.1914060
1234.517, 0.0000000E+00
##END=



