##NAMES=Copper
##RRUFFID=R061078
##IDEAL CHEMISTRY=Cu
##LOCALITY=Afton mine, Kamloops, British Columbia, Canada
##OWNER=RRUFF
##SOURCE=Lloyd Twaites
##DESCRIPTION=Rose-brass colored massive metallic
##STATUS=The identification of this mineral has been confirmed by X-ray diffraction.
##URL=rruff.info/R061078
124.4208, 0.0000000E+00
124.9029, 10.66431
125.3851, 5.068848
125.8672, 101.2290
126.3493, 238.0735
126.8314, 385.5200
127.3135, 575.0278
127.7956, 825.1555
128.2778, 1123.949
128.7599, 1451.078
129.2420, 1794.611
129.7241, 2165.089
130.2062, 2473.363
130.6884, 2731.635
131.1705, 2925.985
131.6526, 3059.897
132.1347, 3126.075
132.6168, 3101.906
133.0989, 2950.864
133.5811, 2617.533
134.0632, 2319.283
134.5453, 2062.880
135.0274, 1829.296
135.5095, 1600.472
135.9916, 1376.448
136.4738, 1173.098
136.9559, 1011.632
137.4380, 894.8013
137.9201, 828.6416
138.4022, 828.1128
138.8843, 864.6431
139.3665, 909.0625
139.8486, 955.2812
140.3307, 1028.319
140.8128, 1167.830
141.2949, 1409.896
141.7770, 1665.038
142.2592, 1937.011
142.7413, 2218.009
143.2234, 2501.943
143.7055, 2785.686
144.1876, 3071.115
144.6697, 3365.599
145.1519, 3679.219
145.6340, 3980.154
146.1161, 4263.901
146.5982, 4420.160
147.0803, 4427.601
147.5624, 4393.756
148.0446, 4326.839
148.5267, 4234.709
149.0088, 4119.381
149.4909, 3988.786
149.9730, 3842.058
150.4551, 3679.787
150.9372, 3499.993
151.4194, 3294.807
151.9015, 3078.968
152.3836, 2881.446
152.8657, 2695.464
153.3478, 2525.663
153.8299, 2368.178
154.3121, 2225.692
154.7942, 2108.738
155.2763, 2026.155
155.7584, 1965.580
156.2405, 1899.025
156.7226, 1817.640
157.2048, 1745.398
157.6869, 1692.700
158.1690, 1657.939
158.6511, 1639.402
159.1332, 1646.578
159.6153, 1663.917
160.0975, 1658.079
160.5796, 1625.092
161.0617, 1587.043
161.5438, 1563.549
162.0259, 1542.808
162.5080, 1503.471
162.9902, 1432.663
163.4723, 1343.497
163.9544, 1267.624
164.4365, 1204.432
164.9186, 1145.867
165.4007, 1095.241
165.8829, 1052.448
166.3650, 1014.784
166.8471, 978.7559
167.3292, 942.5417
167.8113, 914.8755
168.2934, 896.0845
168.7756, 872.6790
169.2577, 836.6260
169.7398, 782.2415
170.2219, 732.6399
170.7040, 696.9753
171.1861, 667.6814
171.6683, 644.6367
172.1504, 625.7451
172.6325, 605.5452
173.1146, 579.4382
173.5967, 548.2500
174.0788, 526.8350
174.5610, 527.8999
175.0431, 535.6138
175.5252, 533.3433
176.0073, 522.4680
176.4894, 501.7246
176.9715, 460.3967
177.4537, 392.5933
177.9358, 334.5400
178.4179, 302.6309
178.9000, 284.4783
179.3821, 275.9402
179.8642, 272.6667
180.3464, 270.0730
180.8285, 263.1538
181.3106, 250.2690
181.7927, 234.1038
182.2748, 205.6750
182.7569, 177.4648
183.2391, 152.1790
183.7212, 127.6548
184.2033, 109.2866
184.6854, 109.6104
185.1675, 134.2825
185.6496, 150.1262
186.1318, 136.6379
186.6139, 111.1833
187.0960, 85.86816
187.5781, 62.46411
188.0602, 44.59888
188.5423, 40.92603
189.0245, 56.49805
189.5066, 62.12817
189.9887, 32.93433
190.4708, 3.398926
190.9529, 24.18945
191.4350, 21.68994
191.9172, 9.350342
192.3993, 3.469482
192.8814, 4.652832
193.3635, 8.605225
193.8456, 21.58936
194.3277, 33.19995
194.8099, 31.86865
195.2920, 12.50708
195.7741, 9.323975
196.2562, 13.12378
196.7383, 3.967041
197.2204, 25.77954
197.7026, 60.98804
198.1847, 91.19800
198.6668, 99.25830
199.1489, 79.73120
199.6310, 51.52637
200.1131, 38.77783
200.5953, 44.74561
201.0774, 47.46606
201.5595, 31.87769
202.0416, 15.66992
202.5237, 14.72339
203.0058, 33.50439
203.4880, 54.10181
203.9701, 51.94263
204.4522, 22.54980
204.9343, 2.609863
205.4164, 8.965332
205.8985, 23.76782
206.3807, 36.84082
206.8628, 46.54395
207.3449, 53.68506
207.8270, 60.52197
208.3091, 67.71191
208.7912, 67.35571
209.2734, 46.94971
209.7555, 26.04150
210.2376, 21.17651
210.7197, 33.98730
211.2018, 46.45752
211.6839, 35.04663
212.1661, 1.839844
212.6482, 20.86426
213.1303, 2.243408
213.6124, 32.69897
214.0945, 47.50537
214.5766, 45.42090
215.0588, 38.32886
215.5409, 37.29810
216.0230, 41.94922
216.5051, 39.05957
216.9872, 17.80298
217.4693, 2.548096
217.9515, 6.719482
218.4336, 3.767578
218.9157, 13.18970
219.3978, 7.399170
219.8799, 11.59131
220.3620, 25.23413
220.8442, 31.88721
221.3263, 32.10596
221.8084, 24.15527
222.2905, 9.708008
222.7726, 3.010254
223.2547, 8.745361
223.7369, 8.443359
224.2190, 7.156738
224.7011, 6.646729
225.1832, 2.754639
225.6653, 10.56274
226.1474, 30.02612
226.6296, 44.67236
227.1117, 45.93237
227.5938, 37.86572
228.0759, 31.63940
228.5580, 26.56738
229.0401, 26.24536
229.5223, 37.85938
230.0044, 55.62134
230.4865, 66.10669
230.9686, 55.79077
231.4507, 36.04736
231.9328, 32.77588
232.4150, 52.55225
232.8971, 69.79907
233.3792, 58.91162
233.8613, 35.41992
234.3434, 26.24243
234.8255, 51.50732
235.3077, 88.34888
235.7898, 102.4546
236.2719, 90.32202
236.7540, 76.62427
237.2361, 74.49390
237.7182, 80.04028
238.2004, 87.93091
238.6825, 101.2869
239.1646, 112.6260
239.6467, 110.9524
240.1288, 96.00659
240.6109, 85.53735
241.0931, 92.17676
241.5752, 106.7107
242.0573, 112.0024
242.5394, 101.3987
243.0215, 90.36450
243.5036, 92.70630
243.9858, 106.4575
244.4679, 117.0420
244.9500, 117.3743
245.4321, 112.8386
245.9142, 113.9722
246.3963, 123.7136
246.8785, 131.8923
247.3606, 129.9792
247.8427, 121.5759
248.3248, 118.6604
248.8069, 126.9485
249.2890, 139.1770
249.7712, 142.3708
250.2533, 134.6479
250.7354, 128.0447
251.2175, 128.7388
251.6996, 132.9949
252.1817, 133.4202
252.6639, 127.6746
253.1460, 121.8096
253.6281, 125.4648
254.1102, 140.3640
254.5923, 148.4487
255.0744, 139.1292
255.5566, 123.4106
256.0387, 114.7727
256.5208, 116.3892
257.0029, 124.4558
257.4850, 136.6860
257.9671, 153.8193
258.4492, 161.4019
258.9314, 150.7844
259.4135, 137.0337
259.8956, 131.0500
260.3777, 132.9341
260.8598, 136.6724
261.3419, 137.6189
261.8241, 136.7222
262.3062, 139.6621
262.7883, 149.0894
263.2704, 157.6265
263.7525, 160.2051
264.2346, 158.3083
264.7168, 157.8694
265.1989, 163.6565
265.6810, 174.2517
266.1631, 175.7483
266.6452, 160.9463
267.1273, 148.1577
267.6095, 143.6619
268.0916, 143.0078
268.5737, 138.1230
269.0558, 125.2007
269.5379, 109.1079
270.0201, 102.8777
270.5022, 114.0476
270.9843, 122.8450
271.4664, 126.9116
271.9485, 128.4250
272.4306, 129.9893
272.9128, 132.4775
273.3949, 134.8154
273.8770, 135.3848
274.3591, 135.4895
274.8412, 132.4341
275.3233, 120.9370
275.8055, 109.8562
276.2876, 106.5796
276.7697, 111.5398
277.2518, 118.8613
277.7339, 120.7622
278.2160, 114.4465
278.6982, 112.0933
279.1803, 118.1687
279.6624, 123.4595
280.1445, 123.1348
280.6266, 118.2073
281.1087, 113.4441
281.5909, 114.1506
282.0730, 119.7776
282.5551, 116.2566
283.0372, 91.17261
283.5193, 72.98096
284.0014, 77.63672
284.4836, 94.11670
284.9657, 102.6365
285.4478, 89.32275
285.9299, 63.66016
286.4120, 54.83569
286.8941, 71.51318
287.3763, 87.10767
287.8584, 91.75293
288.3405, 90.47949
288.8226, 88.05884
289.3047, 85.70312
289.7868, 82.88794
290.2690, 77.72778
290.7511, 69.21826
291.2332, 64.21289
291.7153, 65.43457
292.1974, 70.65747
292.6795, 81.07056
293.1617, 97.55493
293.6438, 110.1855
294.1259, 106.3635
294.6080, 89.90625
295.0901, 84.74487
295.5722, 102.6038
296.0544, 122.7000
296.5365, 121.1860
297.0186, 99.80786
297.5007, 81.46289
297.9828, 76.43018
298.4649, 79.41797
298.9471, 82.76489
299.4292, 85.84570
299.9113, 87.50024
300.3934, 83.93604
300.8755, 76.93506
301.3576, 78.98413
301.8398, 104.8882
302.3219, 130.0090
302.8040, 132.1172
303.2861, 113.4226
303.7682, 92.40820
304.2503, 78.98730
304.7325, 72.74463
305.2146, 70.27783
305.6967, 71.89648
306.1788, 76.19019
306.6609, 83.61670
307.1430, 93.56836
307.6252, 106.6086
308.1073, 123.4714
308.5894, 139.0195
309.0715, 141.8120
309.5536, 120.4382
310.0357, 102.8264
310.5179, 90.87866
311.0000, 82.00488
311.4821, 74.07983
311.9642, 66.91138
312.4463, 61.19336
312.9284, 57.08423
313.4106, 53.31714
313.8927, 56.18506
314.3748, 75.76587
314.8569, 92.27026
315.3390, 93.19873
315.8211, 81.90381
316.3033, 70.52612
316.7854, 68.80542
317.2675, 75.58276
317.7496, 77.33130
318.2317, 72.15430
318.7138, 63.99243
319.1960, 50.00000
319.6781, 34.84375
320.1602, 24.53125
320.6423, 21.86963
321.1244, 25.30884
321.6065, 33.02393
322.0887, 47.45972
322.5708, 58.39038
323.0529, 61.70630
323.5350, 61.59497
324.0171, 59.51685
324.4992, 55.76099
324.9814, 53.98340
325.4635, 60.70532
325.9456, 74.86621
326.4277, 80.69336
326.9098, 70.99902
327.3919, 58.47559
327.8741, 53.66943
328.3562, 55.95264
328.8383, 59.88501
329.3204, 65.84595
329.8025, 70.99365
330.2846, 67.98340
330.7668, 55.02393
331.2489, 45.54395
331.7310, 52.34644
332.2131, 70.70703
332.6952, 81.64795
333.1773, 79.79761
333.6595, 73.53931
334.1416, 66.52979
334.6237, 59.40771
335.1058, 53.78467
335.5879, 50.01733
336.0700, 48.30371
336.5522, 50.23145
337.0343, 59.97754
337.5164, 65.74561
337.9985, 60.28223
338.4806, 52.03345
338.9627, 52.62744
339.4449, 64.35938
339.9270, 77.40967
340.4091, 78.65259
340.8912, 62.95923
341.3733, 52.26929
341.8554, 47.50879
342.3376, 46.92188
342.8197, 52.52734
343.3018, 61.33154
343.7839, 66.38647
344.2660, 62.38135
344.7481, 51.50879
345.2303, 46.94067
345.7124, 54.47217
346.1945, 60.35791
346.6766, 61.52539
347.1587, 59.96655
347.6408, 57.31860
348.1230, 54.02246
348.6051, 51.78442
349.0872, 56.00513
349.5693, 70.34741
350.0514, 74.65649
350.5335, 54.12891
351.0157, 31.03174
351.4978, 18.92065
351.9799, 18.32349
352.4620, 22.06323
352.9441, 27.28833
353.4262, 33.71533
353.9084, 39.08691
354.3905, 43.67993
354.8726, 45.49805
355.3547, 39.00073
355.8368, 28.52197
356.3189, 24.30542
356.8011, 37.60645
357.2832, 51.15063
357.7653, 45.71826
358.2474, 24.11963
358.7295, 6.487549
359.2116, 2.592773
359.6938, 8.755859
360.1759, 14.93994
360.6580, 20.72412
361.1401, 26.82520
361.6222, 35.01807
362.1043, 42.80688
362.5865, 47.04956
363.0686, 47.05249
363.5507, 43.91260
364.0328, 38.31323
364.5149, 28.67285
364.9970, 23.94604
365.4792, 25.16089
365.9613, 29.53687
366.4434, 38.96680
366.9255, 50.51514
367.4076, 57.91138
367.8897, 57.79077
368.3719, 50.06055
368.8540, 39.33911
369.3361, 17.07886
369.8182, 7.880859
370.3003, 25.08447
370.7824, 50.76611
371.2646, 68.72656
371.7467, 74.41748
372.2288, 74.08716
372.7109, 74.43213
373.1930, 74.82739
373.6751, 68.53589
374.1573, 44.47852
374.6394, 25.47510
375.1215, 30.50928
375.6036, 54.12500
376.0857, 74.11255
376.5678, 78.99585
377.0500, 73.36230
377.5321, 62.40601
378.0142, 45.24463
378.4963, 33.09131
378.9784, 34.97852
379.4605, 46.05396
379.9427, 52.18823
380.4248, 50.73779
380.9069, 47.89648
381.3890, 45.60229
381.8711, 44.14038
382.3532, 45.21606
382.8354, 49.73071
383.3175, 55.25830
383.7996, 58.27393
384.2817, 58.98389
384.7638, 54.89404
385.2459, 38.64014
385.7281, 23.79248
386.2102, 20.60767
386.6923, 27.19238
387.1744, 34.79565
387.6565, 37.04297
388.1386, 34.78174
388.6208, 34.39478
389.1029, 36.93823
389.5850, 41.69653
390.0671, 49.41992
390.5492, 56.18384
391.0313, 59.37866
391.5135, 58.93042
391.9956, 57.42456
392.4777, 59.66895
392.9598, 66.58179
393.4419, 66.10327
393.9240, 49.51758
394.4062, 33.90186
394.8883, 32.98657
395.3704, 42.76636
395.8525, 48.48779
396.3346, 37.08276
396.8167, 20.93530
397.2989, 20.25708
397.7810, 35.08765
398.2631, 49.42480
398.7452, 57.27881
399.2273, 59.19849
399.7094, 55.36670
400.1916, 39.73828
400.6737, 28.66431
401.1558, 33.02100
401.6379, 44.74854
402.1200, 50.16040
402.6021, 45.18701
403.0843, 37.08325
403.5664, 36.01416
404.0485, 44.31836
404.5306, 47.32886
405.0127, 38.25195
405.4948, 31.21313
405.9770, 35.75195
406.4591, 47.00049
406.9412, 54.59692
407.4233, 52.83765
407.9054, 43.75684
408.3875, 32.04932
408.8697, 12.64917
409.3518, 1.399902
409.8339, 3.013672
410.3160, 11.25830
410.7981, 25.73657
411.2802, 44.71411
411.7624, 58.90088
412.2445, 58.66382
412.7266, 46.51172
413.2087, 33.30713
413.6908, 16.78296
414.1729, 5.664063
414.6551, 11.20483
415.1372, 25.52148
415.6193, 34.49609
416.1014, 33.01636
416.5835, 28.34473
417.0656, 23.66260
417.5478, 20.18872
418.0299, 22.09399
418.5120, 31.63721
418.9941, 44.17920
419.4762, 53.29126
419.9583, 59.24023
420.4405, 59.82007
420.9226, 45.73877
421.4047, 33.59375
421.8868, 39.99072
422.3689, 60.09790
422.8510, 74.95337
423.3332, 71.21313
423.8153, 51.79980
424.2974, 30.95337
424.7795, 0.2717290
425.2616, 18.46069
425.7437, 13.53003
426.2259, 0.3957520
426.7080, 12.85229
427.1901, 20.84131
427.6722, 24.01074
428.1543, 20.39014
428.6364, 10.54883
429.1186, 2.054199
429.6007, 7.524414
430.0828, 10.50732
430.5649, 4.048340
431.0470, 28.11108
431.5291, 45.17139
432.0113, 50.37891
432.4934, 47.70068
432.9755, 36.03369
433.4576, 18.37158
433.9397, 7.352295
434.4218, 8.589111
434.9040, 15.13184
435.3861, 15.34521
435.8682, 5.836670
436.3503, 0.9819340
436.8324, 7.535400
437.3145, 14.28442
437.7967, 11.23096
438.2788, 0.5087890
438.7609, 8.569336
439.2430, 9.856689
439.7251, 4.223633
440.2072, 4.578613
440.6894, 22.89722
441.1715, 33.94141
441.6536, 31.29883
442.1357, 24.10547
442.6178, 19.39575
443.0999, 18.56958
443.5821, 19.62598
444.0642, 22.14893
444.5463, 25.53027
445.0284, 25.78076
445.5105, 22.95264
445.9926, 16.39380
446.4748, 1.493408
446.9569, 22.52759
447.4390, 29.66553
447.9211, 12.00049
448.4032, 8.438232
448.8853, 17.46167
449.3675, 18.38232
449.8496, 19.29810
450.3317, 22.63354
450.8138, 25.84692
451.2959, 25.44458
451.7780, 20.32080
452.2602, 15.90552
452.7423, 14.94092
453.2244, 11.99829
453.7065, 0.7680660
454.1886, 14.17554
454.6707, 22.82080
455.1529, 19.41602
455.6350, 9.303223
456.1171, 5.900391
456.5992, 13.34961
457.0813, 15.66479
457.5634, 1.446777
458.0455, 11.49146
458.5276, 8.899414
459.0098, 6.760986
459.4919, 18.25562
459.9740, 14.04443
460.4561, 0.8527830
460.9382, 20.62061
461.4203, 46.24878
461.9025, 60.63135
462.3846, 49.15088
462.8667, 24.87329
463.3488, 19.88086
463.8309, 43.35547
464.3130, 62.34106
464.7952, 65.94629
465.2773, 61.32031
465.7594, 54.69849
466.2415, 47.64746
466.7236, 40.74341
467.2057, 33.42236
467.6879, 26.33740
468.1700, 29.39551
468.6521, 61.08447
469.1342, 80.11621
469.6163, 72.04175
470.0984, 52.43188
470.5806, 34.85864
471.0627, 23.60107
471.5448, 20.02808
472.0269, 29.39478
472.5090, 50.31104
472.9911, 64.66577
473.4733, 69.49536
473.9554, 71.55542
474.4375, 75.13672
474.9196, 79.22290
475.4017, 81.53833
475.8839, 80.48804
476.3660, 79.17627
476.8481, 81.71826
477.3302, 85.28320
477.8123, 82.70142
478.2944, 71.76367
478.7766, 57.23730
479.2587, 44.36108
479.7408, 32.17236
480.2229, 27.15991
480.7050, 36.80469
481.1871, 44.65332
481.6693, 42.90918
482.1514, 35.21680
482.6335, 27.05615
483.1156, 19.82544
483.5977, 16.15356
484.0798, 20.36670
484.5620, 33.42993
485.0441, 41.66797
485.5262, 39.75317
486.0083, 36.96216
486.4904, 41.66260
486.9725, 51.03711
487.4547, 54.76978
487.9368, 41.45142
488.4189, 28.87378
488.9010, 39.67871
489.3831, 67.60596
489.8652, 81.89819
490.3474, 68.38501
490.8295, 45.18457
491.3116, 41.11157
491.7937, 65.14551
492.2758, 84.70093
492.7579, 102.5117
493.2401, 113.3774
493.7222, 111.9382
494.2043, 101.2195
494.6864, 87.51953
495.1685, 73.70044
495.6506, 61.32520
496.1328, 53.09692
496.6149, 47.52393
497.0970, 50.35083
497.5791, 75.55029
498.0612, 98.20239
498.5433, 95.84741
499.0255, 73.65771
499.5076, 59.62549
499.9897, 74.96680
500.4718, 99.62573
500.9539, 108.8381
501.4360, 104.3569
501.9182, 99.01782
502.4003, 98.16675
502.8824, 99.35400
503.3645, 98.29688
503.8466, 94.95605
504.3287, 88.92676
504.8109, 72.57251
505.2930, 59.17578
505.7751, 60.76074
506.2572, 73.21484
506.7393, 85.14551
507.2214, 90.30713
507.7036, 90.76807
508.1857, 90.46851
508.6678, 88.09961
509.1499, 91.47070
509.6320, 111.4172
510.1141, 127.3782
510.5963, 121.1567
511.0784, 97.00073
511.5605, 79.18896
512.0426, 81.60596
512.5247, 92.39697
513.0068, 101.6816
513.4890, 108.8679
513.9711, 107.0127
514.4532, 90.48096
514.9353, 70.23291
515.4174, 67.17603
515.8995, 91.65186
516.3817, 105.7439
516.8638, 102.8955
517.3459, 94.99463
517.8280, 84.15967
518.3101, 75.40112
518.7922, 78.25977
519.2744, 99.56250
519.7565, 126.9717
520.2386, 133.9453
520.7207, 116.5273
521.2028, 102.9668
521.6849, 96.39941
522.1671, 96.78540
522.6492, 107.8167
523.1313, 126.2930
523.6134, 138.1582
524.0955, 136.2468
524.5776, 128.2849
525.0598, 118.0259
525.5419, 106.7810
526.0240, 99.12891
526.5061, 96.89526
526.9882, 96.34058
527.4703, 91.91797
527.9525, 82.14478
528.4346, 74.05469
528.9167, 68.49438
529.3988, 63.52173
529.8809, 57.72021
530.3630, 52.22876
530.8452, 48.42529
531.3273, 46.79663
531.8094, 48.32910
532.2915, 59.84277
532.7736, 80.13257
533.2557, 78.80640
533.7379, 41.11157
534.2200, 4.916016
534.7021, 2.771484
535.1842, 26.02539
535.6663, 46.88721
536.1484, 66.21851
536.6306, 78.34448
537.1127, 77.36621
537.5948, 68.62476
538.0769, 57.79858
538.5590, 47.00659
539.0411, 41.03394
539.5233, 46.27051
540.0054, 62.82690
540.4875, 71.33936
540.9696, 64.56201
541.4517, 59.39868
541.9338, 61.33716
542.4160, 65.93433
542.8981, 69.73169
543.3802, 71.90063
543.8623, 69.95142
544.3444, 58.56738
544.8265, 42.31348
545.3087, 32.14844
545.7908, 28.92065
546.2729, 27.87500
546.7550, 26.87085
547.2371, 25.65015
547.7192, 23.36621
548.2014, 19.69824
548.6835, 15.58032
549.1656, 9.865234
549.6477, 4.689697
550.1298, 0.2641600
550.6119, 2.245850
551.0941, 1.142578
551.5762, 14.78857
552.0583, 32.52515
552.5404, 35.53589
553.0225, 20.17847
553.5046, 7.352783
553.9868, 1.544434
554.4689, 0.2702640
554.9510, 1.573486
555.4331, 5.280029
555.9152, 9.927734
556.3973, 15.67749
556.8795, 21.70630
557.3616, 30.24927
557.8437, 38.53101
558.3258, 37.85962
558.8079, 24.85376
559.2900, 7.655762
559.7722, 2.372803
560.2543, 4.224609
560.7364, 3.918945
561.2185, 0.8046880
561.7006, 3.903564
562.1827, 13.47827
562.6649, 23.11548
563.1470, 24.98389
563.6291, 16.21167
564.1112, 6.249023
564.5933, 6.880859
565.0754, 13.44043
565.5576, 8.124756
566.0397, 12.51489
566.5218, 28.76074
567.0039, 26.09009
567.4860, 8.709717
567.9681, 4.737549
568.4503, 12.10083
568.9324, 19.14014
569.4145, 29.72144
569.8966, 37.87891
570.3787, 35.77808
570.8608, 25.60449
571.3430, 17.94702
571.8251, 21.46606
572.3072, 30.86523
572.7893, 30.31494
573.2714, 17.52441
573.7535, 8.757080
574.2357, 8.140625
574.7178, 13.01831
575.1999, 22.06543
575.6820, 34.76489
576.1641, 46.69897
576.6462, 60.01025
577.1284, 69.22754
577.6105, 68.00610
578.0926, 60.58276
578.5747, 53.62671
579.0568, 49.60669
579.5389, 51.83057
580.0211, 66.67139
580.5032, 95.92554
580.9853, 114.3792
581.4674, 118.2380
581.9495, 116.2407
582.4316, 106.4521
582.9138, 95.39160
583.3959, 92.85498
583.8780, 101.5986
584.3601, 106.0571
584.8422, 86.56787
585.3243, 60.92236
585.8065, 61.85229
586.2886, 88.70728
586.7707, 113.7886
587.2528, 121.4717
587.7349, 117.0767
588.2170, 113.9465
588.6992, 110.4607
589.1813, 111.5479
589.6634, 121.5698
590.1455, 131.5310
590.6276, 138.1226
591.1097, 140.7241
591.5919, 138.4099
592.0740, 129.7493
592.5561, 119.3503
593.0382, 114.3782
593.5203, 113.1714
594.0024, 104.2280
594.4846, 82.84302
594.9667, 67.44409
595.4488, 75.85278
595.9309, 104.9314
596.4130, 123.7297
596.8951, 122.8489
597.3773, 125.3413
597.8594, 137.5759
598.3415, 153.4912
598.8236, 171.9260
599.3057, 189.6301
599.7878, 196.2598
600.2700, 179.8525
600.7521, 151.7524
601.2342, 143.0471
601.7163, 155.5342
602.1984, 165.9365
602.6805, 168.0759
603.1627, 165.5596
603.6448, 161.1506
604.1269, 154.9712
604.6090, 150.3472
605.0911, 151.6108
605.5732, 150.2329
606.0554, 132.4280
606.5375, 113.0828
607.0196, 118.8545
607.5017, 154.4473
607.9838, 194.2161
608.4659, 209.8481
608.9481, 204.0588
609.4302, 205.3818
609.9123, 219.2002
610.3944, 224.1414
610.8765, 203.3630
611.3586, 175.5400
611.8408, 165.5171
612.3229, 175.2876
612.8050, 183.2993
613.2871, 181.1787
613.7692, 176.7419
614.2513, 173.5798
614.7335, 173.9846
615.2156, 182.4211
615.6977, 199.8413
616.1798, 218.9009
616.6619, 227.8818
617.1440, 226.0637
617.6262, 223.2261
618.1083, 217.6348
618.5904, 212.9858
619.0725, 210.3533
619.5546, 209.4048
620.0367, 209.0061
620.5189, 208.8257
621.0010, 212.7234
621.4831, 222.0449
621.9652, 234.0920
622.4473, 250.4543
622.9294, 267.7893
623.4116, 274.0703
623.8937, 262.5378
624.3758, 241.3813
624.8579, 222.3728
625.3400, 203.2908
625.8221, 196.3640
626.3043, 211.7966
626.7864, 227.4006
627.2685, 229.4812
627.7506, 225.4541
628.2327, 228.3235
628.7148, 243.8357
629.1970, 256.8982
629.6791, 255.4968
630.1612, 245.8325
630.6433, 235.9353
631.1254, 226.8757
631.6075, 217.5024
632.0897, 206.8230
632.5718, 196.3384
633.0539, 190.7180
633.5360, 192.8562
634.0181, 193.2061
634.5002, 184.3101
634.9824, 179.7791
635.4645, 193.2190
635.9466, 214.8000
636.4287, 222.8455
636.9108, 206.4392
637.3929, 189.4785
637.8751, 193.1516
638.3572, 204.1082
638.8393, 197.8560
639.3214, 174.0500
639.8035, 153.2197
640.2856, 149.5757
640.7678, 157.2913
641.2499, 157.5151
641.7320, 144.1519
642.2141, 139.1101
642.6962, 153.8220
643.1783, 167.6921
643.6605, 168.3550
644.1426, 160.4595
644.6247, 155.9360
645.1068, 160.8237
645.5889, 163.7566
646.0710, 155.2422
646.5532, 142.2983
647.0353, 134.7537
647.5174, 133.0156
647.9995, 132.9543
648.4816, 133.2727
648.9637, 132.6877
649.4459, 124.6807
649.9280, 102.7754
650.4101, 91.62988
650.8922, 106.1221
651.3743, 118.8723
651.8564, 109.9546
652.3386, 88.40698
652.8207, 77.79297
653.3028, 91.88940
653.7849, 101.7305
654.2670, 81.10010
654.7491, 49.45728
655.2313, 35.78271
655.7134, 41.74023
656.1955, 51.03809
656.6776, 52.97852
657.1597, 49.93726
657.6418, 48.96680
658.1240, 51.30762
658.6061, 51.16382
659.0882, 48.36499
659.5703, 42.70020
660.0524, 29.97998
660.5345, 14.81934
661.0167, 8.609619
661.4988, 16.90723
661.9809, 26.99023
662.4630, 37.00464
662.9451, 43.01074
663.4272, 37.22119
663.9094, 21.86841
664.3915, 8.154541
664.8736, 2.781250
665.3557, 3.626709
665.8378, 7.242676
666.3199, 14.43018
666.8021, 18.66309
667.2842, 18.60547
667.7663, 16.66113
668.2484, 12.91919
668.7305, 8.716309
669.2126, 7.127441
669.6948, 9.900146
670.1769, 11.94800
670.6590, 12.78809
671.1411, 11.42114
671.6232, 3.514648
672.1053, 7.392334
672.5875, 10.33154
673.0696, 0.8847660
673.5517, 15.88428
674.0338, 16.37207
674.5159, 2.849609
674.9980, 7.254883
675.4802, 13.57227
675.9623, 13.11865
676.4444, 1.249268
676.9265, 21.37524
677.4086, 24.80640
677.8907, 1.427246
678.3729, 11.34253
678.8550, 0.4965820
679.3371, 15.02026
679.8192, 28.56958
680.3013, 36.60303
680.7834, 31.02271
681.2656, 8.757080
681.7477, 12.05884
682.2298, 5.003662
682.7119, 20.58618
683.1940, 26.78760
683.6761, 10.35571
684.1583, 1.999512
684.6404, 20.34497
685.1225, 47.56396
685.6046, 49.93994
686.0867, 15.04810
686.5688, 4.713867
687.0510, 0.5288090
687.5331, 7.375000
688.0152, 14.42798
688.4973, 19.81055
688.9794, 23.89575
689.4615, 26.57959
689.9437, 24.92529
690.4258, 11.75415
690.9079, 4.253662
691.3900, 8.775391
691.8721, 3.333496
692.3542, 2.937256
692.8364, 6.829590
693.3185, 10.37769
693.8006, 16.29517
694.2827, 24.74463
694.7648, 32.18604
695.2469, 39.54712
695.7291, 44.40454
696.2112, 44.55005
696.6933, 43.22925
697.1754, 42.27246
697.6575, 42.10278
698.1396, 44.47998
698.6218, 56.01294
699.1039, 64.37891
699.5860, 57.14990
700.0681, 41.77271
700.5502, 30.38159
701.0323, 25.78003
701.5145, 25.81470
701.9966, 30.45630
702.4787, 35.81641
702.9608, 23.62549
703.4429, 11.95288
703.9250, 32.04517
704.4072, 25.91064
704.8893, 7.611816
705.3714, 18.14160
705.8535, 47.71875
706.3356, 64.13159
706.8177, 57.83374
707.2999, 50.51416
707.7820, 46.60254
708.2641, 44.13525
708.7462, 42.99829
709.2283, 41.79224
709.7104, 36.53784
710.1926, 24.64746
710.6747, 14.09790
711.1568, 13.53174
711.6389, 20.26636
712.1210, 29.38696
712.6031, 40.58691
713.0853, 50.70972
713.5674, 58.83472
714.0495, 62.83862
714.5316, 56.56616
715.0137, 30.25977
715.4958, 18.06445
715.9780, 29.91284
716.4601, 44.38940
716.9422, 54.54126
717.4243, 61.98511
717.9064, 70.10889
718.3885, 79.69214
718.8707, 86.61206
719.3528, 86.80347
719.8349, 84.42041
720.3170, 84.75122
720.7991, 86.41113
721.2813, 83.60571
721.7634, 74.50610
722.2455, 64.58032
722.7276, 60.82446
723.2097, 62.50903
723.6918, 59.21313
724.1740, 47.64941
724.6561, 42.26392
725.1382, 49.85522
725.6203, 62.29419
726.1024, 74.11719
726.5845, 84.75562
727.0667, 85.47095
727.5488, 62.97949
728.0309, 46.12427
728.5130, 49.03198
728.9951, 58.85083
729.4772, 63.49048
729.9594, 61.46851
730.4415, 57.60083
730.9236, 55.09863
731.4057, 52.98633
731.8878, 49.20264
732.3699, 44.64575
732.8521, 45.06201
733.3342, 51.78198
733.8163, 53.28491
734.2984, 40.49731
734.7805, 21.23413
735.2626, 19.61597
735.7448, 47.04956
736.2269, 63.35327
736.7090, 60.39771
737.1911, 58.15283
737.6732, 69.17432
738.1553, 83.06519
738.6375, 81.89209
739.1196, 60.59546
739.6017, 42.92700
740.0838, 44.13672
740.5659, 52.58594
741.0480, 59.83643
741.5302, 53.60742
742.0123, 68.81274
742.4944, 78.02832
742.9765, 81.16382
743.4586, 60.11255
743.9407, 71.32568
744.4229, 68.62207
744.9050, 65.15210
745.3871, 79.48682
745.8692, 61.74927
746.3513, 76.01904
746.8334, 77.55469
747.3156, 84.92603
747.7977, 74.45752
748.2798, 77.82153
748.7619, 77.80200
749.2440, 70.32983
749.7261, 63.78760
750.2083, 66.17798
750.6904, 73.58447
751.1725, 75.10986
751.6546, 65.31689
752.1367, 54.20532
752.6188, 46.60596
753.1010, 43.43335
753.5831, 50.20898
754.0652, 63.62402
754.5473, 68.42871
755.0294, 57.11401
755.5115, 41.17456
755.9937, 39.97583
756.4758, 53.59473
756.9579, 61.64551
757.4400, 64.05298
757.9221, 60.47144
758.4042, 46.82544
758.8864, 31.48267
759.3685, 26.42383
759.8506, 33.18677
760.3327, 36.74194
760.8148, 32.07593
761.2969, 28.75513
761.7791, 35.19287
762.2612, 42.43481
762.7433, 39.80103
763.2254, 28.56934
763.7075, 18.43555
764.1896, 13.04224
764.6718, 12.93994
765.1539, 24.24927
765.6360, 39.39551
766.1181, 43.31323
766.6002, 34.84180
767.0823, 18.67163
767.5645, 3.683350
768.0466, 23.43311
768.5287, 17.38818
769.0108, 18.32104
769.4929, 34.63745
769.9750, 22.95142
770.4572, 10.79370
770.9393, 9.064697
771.4214, 15.25757
771.9035, 28.36499
772.3856, 51.82153
772.8677, 61.94629
773.3499, 45.25366
773.8320, 30.46875
774.3141, 29.54639
774.7962, 33.74707
775.2783, 34.40967
775.7604, 30.45581
776.2426, 24.21460
776.7247, 12.21387
777.2068, 4.941895
777.6889, 18.93628
778.1710, 43.16675
778.6531, 55.57764
779.1353, 53.82007
779.6174, 46.40649
780.0995, 38.20557
780.5816, 30.83154
781.0637, 27.01611
781.5458, 26.64624
782.0280, 34.84180
782.5101, 57.03955
782.9922, 69.15137
783.4743, 52.96655
783.9564, 26.34937
784.4385, 21.56299
784.9207, 46.22607
785.4028, 59.47778
785.8849, 54.42212
786.3670, 46.67676
786.8491, 37.66553
787.3312, 30.23242
787.8134, 28.45264
788.2955, 31.49194
788.7776, 32.39893
789.2597, 24.58325
789.7418, 18.29541
790.2239, 24.22437
790.7061, 35.30078
791.1882, 40.84277
791.6703, 40.23315
792.1524, 37.73975
792.6345, 35.30640
793.1166, 35.41772
793.5988, 47.68286
794.0809, 68.78540
794.5630, 65.12305
795.0451, 31.31445
795.5272, 5.821777
796.0093, 7.098633
796.4915, 22.45996
796.9736, 34.19922
797.4557, 42.64771
797.9378, 44.05664
798.4199, 29.27100
798.9020, 20.73022
799.3842, 33.44922
799.8663, 45.29712
800.3484, 32.83813
800.8305, 1.943848
801.3126, 16.47266
801.7947, 8.356201
802.2769, 3.558105
802.7590, 10.51465
803.2411, 15.86426
803.7232, 23.80005
804.2053, 32.95508
804.6874, 39.08569
805.1696, 40.69019
805.6517, 39.71118
806.1338, 35.36841
806.6159, 31.13916
807.0980, 38.55518
807.5801, 55.37354
808.0623, 62.24487
808.5444, 52.25073
809.0265, 37.69971
809.5086, 31.51782
809.9907, 33.00293
810.4728, 35.53369
810.9550, 40.67822
811.4371, 40.70728
811.9192, 30.81250
812.4013, 21.00146
812.8834, 20.26733
813.3655, 25.63428
813.8477, 25.48218
814.3298, 15.14868
814.8119, 8.872070
815.2940, 6.315430
815.7761, 9.674561
816.2582, 25.19971
816.7404, 44.94507
817.2225, 59.40698
817.7046, 66.45898
818.1867, 64.95264
818.6688, 42.23608
819.1509, 21.96338
819.6331, 32.41846
820.1152, 57.42847
820.5973, 67.59668
821.0794, 58.88599
821.5615, 44.49683
822.0436, 32.56616
822.5258, 24.41064
823.0079, 22.42529
823.4900, 25.73364
823.9721, 24.89648
824.4542, 19.53760
824.9363, 14.29224
825.4185, 10.13354
825.9006, 9.661621
826.3827, 21.81445
826.8648, 51.15576
827.3469, 57.92114
827.8290, 27.20679
828.3111, 4.426514
828.7932, 7.573975
829.2753, 18.86133
829.7574, 21.43188
830.2396, 16.62183
830.7217, 13.68945
831.2038, 12.15649
831.6859, 14.11304
832.1680, 25.10059
832.6501, 34.91528
833.1323, 35.69653
833.6144, 30.03613
834.0965, 23.43555
834.5786, 17.30933
835.0607, 12.42114
835.5428, 10.26733
836.0250, 9.081543
836.5071, 5.331055
836.9892, 1.547607
837.4713, 5.470215
837.9534, 17.44385
838.4355, 26.15991
838.9177, 20.89282
839.3998, 9.518555
839.8819, 9.941162
840.3640, 19.90967
840.8461, 23.31592
841.3282, 17.80786
841.8104, 14.99097
842.2925, 22.27197
842.7746, 34.36255
843.2567, 41.41626
843.7388, 43.51465
844.2209, 39.26636
844.7031, 24.71362
845.1852, 12.76611
845.6673, 4.326904
846.1494, 3.830811
846.6315, 22.37158
847.1136, 58.17358
847.5958, 74.39136
848.0779, 52.38721
848.5600, 37.58008
849.0421, 40.67725
849.5242, 47.81201
850.0063, 54.20435
850.4885, 56.86890
850.9706, 48.35449
851.4527, 24.49976
851.9348, 10.06421
852.4169, 29.38843
852.8990, 50.35962
853.3812, 44.12671
853.8633, 23.74756
854.3454, 9.340820
854.8275, 5.447266
855.3096, 8.753662
855.7917, 19.13843
856.2739, 31.17676
856.7560, 37.83594
857.2381, 40.46582
857.7202, 45.87988
858.2023, 54.60059
858.6844, 54.34033
859.1666, 37.55396
859.6487, 19.31519
860.1308, 23.73633
860.6129, 47.14868
861.0950, 47.34326
861.5771, 21.34961
862.0593, 2.3437999E-02
862.5414, 8.697021
863.0235, 8.889404
863.5056, 3.263428
863.9877, 7.297363
864.4698, 18.97192
864.9520, 38.26709
865.4341, 42.86255
865.9162, 15.46069
866.3983, 5.056641
866.8804, 8.789063
867.3625, 36.29102
867.8447, 48.18188
868.3268, 42.14722
868.8089, 36.47412
869.2910, 31.33691
869.7731, 29.40479
870.2552, 34.93311
870.7374, 41.35229
871.2195, 42.61255
871.7016, 39.42163
872.1837, 35.89819
872.6658, 33.16089
873.1479, 31.04712
873.6301, 31.58521
874.1122, 30.92285
874.5943, 21.35010
875.0764, 8.736328
875.5585, 7.280029
876.0406, 19.20996
876.5228, 29.48145
877.0049, 23.86523
877.4870, 12.46631
877.9691, 12.65015
878.4512, 19.02783
878.9333, 13.63623
879.4155, 3.636963
879.8976, 12.72852
880.3797, 1.638184
880.8618, 15.18848
881.3439, 9.771240
881.8260, 13.92261
882.3082, 12.89673
882.7903, 14.55884
883.2724, 28.92554
883.7545, 15.49780
884.2366, 1.423828
884.7188, 2.520996
885.2009, 22.32446
885.6830, 32.25952
886.1651, 29.82910
886.6472, 25.52002
887.1293, 17.66870
887.6115, 13.00513
888.0936, 17.51562
888.5757, 25.15430
889.0578, 25.08691
889.5399, 15.29395
890.0220, 10.90894
890.5042, 17.37744
890.9863, 21.59497
891.4684, 14.14990
891.9505, 9.888672
892.4326, 27.41846
892.9147, 56.56079
893.3969, 66.56763
893.8790, 44.84985
894.3611, 25.26440
894.8432, 17.17944
895.3253, 14.55835
895.8074, 12.61108
896.2896, 14.62061
896.7717, 30.79712
897.2538, 58.24805
897.7359, 74.76953
898.2180, 64.72559
898.7001, 46.90186
899.1823, 30.72217
899.6644, 17.96753
900.1465, 11.00781
900.6286, 9.452393
901.1107, 12.63892
901.5928, 20.12231
902.0750, 27.50293
902.5571, 27.97998
903.0392, 27.34302
903.5213, 38.40015
904.0034, 56.31836
904.4855, 67.78369
904.9677, 70.20264
905.4498, 64.84448
905.9319, 51.59155
906.4140, 36.73242
906.8961, 30.76196
907.3782, 32.88257
907.8604, 41.67236
908.3425, 56.60425
908.8246, 62.42676
909.3067, 53.23169
909.7888, 41.61279
910.2709, 40.86206
910.7531, 47.88525
911.2352, 48.49438
911.7173, 41.83350
912.1994, 36.00391
912.6815, 33.54004
913.1636, 25.44653
913.6458, 2.967285
914.1279, 20.51221
914.6100, 22.78735
915.0921, 2.023682
915.5742, 14.14771
916.0563, 27.87524
916.5385, 31.71655
917.0206, 16.70605
917.5027, 1.109619
917.9848, 1.918457
918.4669, 4.343262
918.9490, 10.35059
919.4312, 14.76221
919.9133, 22.53613
920.3954, 44.57007
920.8775, 55.88403
921.3596, 38.69092
921.8417, 15.04248
922.3239, 4.472900
922.8060, 6.970947
923.2881, 16.29565
923.7702, 38.22021
924.2523, 54.30518
924.7344, 62.79150
925.2166, 61.63013
925.6987, 39.40161
926.1808, 11.95605
926.6629, 4.729004
927.1450, 20.05981
927.6271, 31.92236
928.1093, 23.42871
928.5914, 15.52246
929.0735, 23.82349
929.5556, 35.05859
930.0377, 33.89136
930.5198, 24.16089
931.0020, 17.75830
931.4841, 18.55737
931.9662, 22.75757
932.4483, 28.31128
932.9304, 35.39185
933.4125, 48.62720
933.8947, 61.40991
934.3768, 59.45044
934.8589, 44.93115
935.3410, 34.83545
935.8231, 38.48608
936.3052, 46.79834
936.7874, 54.44482
937.2695, 58.82568
937.7516, 53.06958
938.2337, 40.51123
938.7158, 25.13916
939.1979, 9.228271
939.6801, 0.4628910
940.1622, 3.374268
940.6443, 14.16016
941.1264, 20.41870
941.6085, 22.68335
942.0906, 20.72070
942.5728, 15.75952
943.0549, 16.56299
943.5370, 26.13940
944.0191, 34.14087
944.5012, 28.63135
944.9833, 15.62109
945.4655, 14.75732
945.9476, 24.68433
946.4297, 29.10449
946.9118, 26.06665
947.3939, 23.97900
947.8760, 26.77002
948.3582, 33.82764
948.8403, 46.79321
949.3224, 63.28833
949.8045, 59.37622
950.2866, 32.43799
950.7687, 17.60840
951.2509, 22.47217
951.7330, 32.25708
952.2151, 39.68066
952.6972, 41.68066
953.1793, 29.43677
953.6614, 0.8864750
954.1436, 5.642090
954.6257, 17.28442
955.1078, 32.84033
955.5899, 30.39917
956.0720, 23.50732
956.5541, 21.38892
957.0363, 23.44824
957.5184, 28.85620
958.0005, 40.00073
958.4826, 43.70117
958.9647, 33.81226
959.4468, 30.71802
959.9290, 45.88794
960.4111, 62.17310
960.8932, 62.15137
961.3753, 49.80884
961.8574, 44.85181
962.3395, 56.05322
962.8217, 56.76074
963.3038, 30.77905
963.7859, 12.66455
964.2680, 21.20239
964.7501, 38.52100
965.2322, 45.78784
965.7144, 43.90552
966.1965, 44.15747
966.6786, 51.63501
967.1607, 52.41626
967.6428, 41.54736
968.1249, 30.72705
968.6071, 23.13599
969.0892, 16.37817
969.5713, 7.419189
970.0534, 3.515381
970.5355, 2.437500
971.0176, 24.31714
971.4998, 44.41797
971.9819, 48.62183
972.4640, 49.02441
972.9461, 51.43774
973.4282, 54.89282
973.9103, 60.86230
974.3925, 69.68115
974.8746, 71.18433
975.3567, 55.63135
975.8388, 43.72876
976.3209, 44.43701
976.8030, 46.74536
977.2852, 41.76001
977.7673, 33.69458
978.2494, 30.64941
978.7315, 33.84961
979.2136, 39.84595
979.6957, 53.84448
980.1779, 62.65674
980.6600, 60.77246
981.1421, 52.78613
981.6242, 33.54858
982.1063, 13.52686
982.5884, 17.68091
983.0706, 54.35400
983.5527, 80.95239
984.0348, 80.37183
984.5169, 72.38452
984.9990, 60.64087
985.4811, 49.74585
985.9633, 44.22949
986.4454, 41.90308
986.9275, 37.77563
987.4096, 30.49414
987.8917, 22.48633
988.3738, 9.641846
988.8560, 2.229980
989.3381, 9.645752
989.8202, 21.84839
990.3023, 30.99707
990.7844, 35.51392
991.2665, 34.11230
991.7487, 25.62939
992.2308, 15.43555
992.7129, 0.6516110
993.1950, 10.48438
993.6771, 5.212891
994.1592, 8.752930
994.6414, 27.57617
995.1235, 48.24170
995.6056, 65.81055
996.0877, 80.67920
996.5698, 84.30713
997.0519, 59.34961
997.5341, 37.04663
998.0162, 42.19897
998.4983, 57.58301
998.9804, 64.10547
999.4625, 60.97266
999.9446, 54.95068
1000.427, 46.59399
1000.909, 41.91284
1001.391, 46.58984
1001.873, 52.63257
1002.355, 56.36279
1002.837, 57.34131
1003.319, 55.38745
1003.802, 50.52783
1004.284, 41.46729
1004.766, 24.28955
1005.248, 15.38867
1005.730, 33.84009
1006.212, 50.56860
1006.694, 38.64526
1007.176, 18.61182
1007.659, 19.32739
1008.141, 37.81689
1008.623, 48.37939
1009.105, 39.41553
1009.587, 32.26929
1010.069, 43.06372
1010.551, 51.57910
1011.033, 38.34863
1011.515, 19.53271
1011.998, 15.80444
1012.480, 26.43774
1012.962, 35.99023
1013.444, 39.05200
1013.926, 42.84766
1014.408, 54.38330
1014.890, 63.14673
1015.372, 63.47827
1015.854, 56.83765
1016.337, 40.40405
1016.819, 18.63550
1017.301, 7.368896
1017.783, 14.23389
1018.265, 21.38525
1018.747, 27.13867
1019.229, 25.63403
1019.711, 1.359375
1020.194, 26.45679
1020.676, 9.023926
1021.158, 38.79932
1021.640, 62.16309
1022.122, 40.78442
1022.604, 18.21362
1023.086, 4.640625
1023.568, 2.715820
1024.051, 0.1323240
1024.533, 4.265625
1025.015, 3.944092
1025.497, 18.78003
1025.979, 17.88965
1026.461, 8.525146
1026.943, 31.58521
1027.425, 47.25220
1027.907, 54.65283
1028.390, 46.69238
1028.872, 36.90063
1029.354, 40.72607
1029.836, 52.67627
1030.318, 53.11182
1030.800, 35.59399
1031.282, 20.18481
1031.764, 6.585938
1032.246, 0.1706540
1032.729, 6.714844
1033.211, 17.80078
1033.693, 26.82129
1034.175, 34.64038
1034.657, 44.95483
1035.139, 60.30981
1035.621, 69.14697
1036.103, 62.29297
1036.586, 60.25049
1037.068, 73.35669
1037.550, 87.58203
1038.032, 95.41504
1038.514, 96.35669
1038.996, 87.99072
1039.478, 67.17920
1039.960, 51.85034
1040.443, 41.29395
1040.925, 37.81104
1041.407, 53.04834
1041.889, 60.92969
1042.371, 34.13623
1042.853, 3.610840
1043.335, 4.759033
1043.817, 36.33813
1044.299, 58.78296
1044.781, 54.65088
1045.264, 48.57764
1045.746, 41.72437
1046.228, 37.50781
1046.710, 37.69824
1047.192, 42.05225
1047.674, 51.93066
1048.156, 67.07251
1048.638, 71.14502
1049.121, 60.56323
1049.603, 50.69141
1050.085, 41.37134
1050.567, 40.35059
1051.049, 53.03125
1051.531, 67.74512
1052.013, 69.87500
1052.495, 60.98169
1052.978, 53.20581
1053.460, 46.05249
1053.942, 45.15869
1054.424, 52.34033
1054.906, 56.17261
1055.388, 51.73926
1055.870, 43.84863
1056.352, 36.60083
1056.834, 31.79932
1057.317, 37.39282
1057.799, 52.13745
1058.281, 61.07397
1058.763, 63.27563
1059.245, 58.15308
1059.727, 45.26587
1060.209, 38.72095
1060.691, 52.62842
1061.173, 72.62158
1061.656, 62.63184
1062.138, 32.11890
1062.620, 26.39917
1063.102, 43.04126
1063.584, 61.08057
1064.066, 73.70239
1064.548, 72.60522
1065.030, 50.55298
1065.513, 25.09277
1065.995, 24.16357
1066.477, 36.40894
1066.959, 35.47192
1067.441, 26.94336
1067.923, 29.17773
1068.405, 42.62744
1068.887, 51.09326
1069.370, 46.49341
1069.852, 42.22168
1070.334, 57.84570
1070.816, 75.35645
1071.298, 68.47949
1071.780, 50.02002
1072.262, 40.58301
1072.744, 39.57446
1073.226, 34.19873
1073.708, 20.69897
1074.191, 16.33057
1074.673, 43.20337
1075.155, 68.27197
1075.637, 61.95874
1076.119, 46.96973
1076.601, 46.38647
1077.083, 55.08130
1077.565, 61.13257
1078.047, 60.28882
1078.530, 54.28149
1079.012, 34.86328
1079.494, 21.07349
1079.976, 23.83203
1080.458, 31.26123
1080.940, 39.96118
1081.422, 45.74390
1081.904, 40.76245
1082.387, 27.62549
1082.869, 25.63159
1083.351, 49.82520
1083.833, 58.64282
1084.315, 26.50806
1084.797, 4.940918
1085.279, 25.64526
1085.761, 53.54883
1086.244, 55.63281
1086.726, 40.42944
1087.208, 34.12134
1087.690, 39.94312
1088.172, 41.63770
1088.654, 39.37280
1089.136, 31.76929
1089.618, 13.88989
1090.100, 0.5412600
1090.583, 3.073242
1091.065, 4.026123
1091.547, 19.21753
1092.029, 41.97144
1092.511, 47.12769
1092.993, 30.99512
1093.475, 24.29858
1093.957, 32.23071
1094.439, 41.03345
1094.922, 45.16626
1095.404, 42.93286
1095.886, 29.98096
1096.368, 12.86743
1096.850, 14.51562
1097.332, 32.31519
1097.814, 49.79810
1098.296, 64.75122
1098.779, 64.00391
1099.261, 49.68311
1099.743, 63.82715
1100.225, 69.99487
1100.707, 68.38184
1101.189, 36.55054
1101.671, 43.95630
1102.153, 35.75610
1102.635, 26.91650
1103.118, 39.79565
1103.600, 12.64697
1104.082, 25.19141
1104.564, 10.50757
1105.046, 21.71094
1105.528, 33.17114
1106.010, 41.09814
1106.492, 43.82080
1106.974, 39.62476
1107.457, 16.52124
1107.939, 12.27979
1108.421, 14.46021
1108.903, 15.95020
1109.385, 42.57324
1109.867, 45.89990
1110.349, 48.35229
1110.831, 61.16016
1111.314, 73.20508
1111.796, 81.06982
1112.278, 81.52856
1112.760, 67.46411
1113.242, 41.23755
1113.724, 19.35522
1114.206, 3.212402
1114.688, 7.302490
1115.171, 24.46313
1115.653, 47.85620
1116.135, 46.79663
1116.617, 40.04663
1117.099, 41.17480
1117.581, 46.76465
1118.063, 49.55078
1118.545, 49.64722
1119.027, 44.58032
1119.510, 33.47266
1119.992, 20.00806
1120.474, 2.840820
1120.956, 3.072266
1121.438, 11.14917
1121.920, 30.96533
1122.402, 39.84521
1122.884, 39.14551
1123.366, 30.59497
1123.849, 16.11304
1124.331, 4.320557
1124.813, 3.154663
1125.295, 1.941895
1125.777, 19.97461
1126.259, 32.81934
1126.741, 26.57275
1127.223, 16.81055
1127.706, 26.22583
1128.188, 41.05200
1128.670, 38.96326
1129.152, 28.54468
1129.634, 29.31018
1130.116, 38.03308
1130.598, 33.57739
1131.080, 8.307983
1131.563, 12.27039
1132.045, 14.81726
1132.527, 7.186279
1133.009, 16.65112
1133.491, 38.71838
1133.973, 41.85425
1134.455, 34.61206
1134.937, 31.50256
1135.419, 33.19031
1135.901, 30.88635
1136.384, 13.71582
1136.866, 10.05872
1137.348, 36.15283
1137.830, 56.19556
1138.312, 59.88416
1138.794, 53.73340
1139.276, 38.48706
1139.758, 20.61121
1140.241, 15.91248
1140.723, 25.24390
1141.205, 35.10706
1141.687, 46.52454
1142.169, 50.95044
1142.651, 46.63074
1143.133, 38.26465
1143.615, 27.30762
1144.098, 21.69653
1144.580, 32.63745
1145.062, 50.62085
1145.544, 48.87646
1146.026, 34.81104
1146.508, 34.30200
1146.990, 42.15002
1147.472, 42.42908
1147.954, 33.03101
1148.437, 26.60718
1148.919, 30.77930
1149.401, 35.34106
1149.883, 28.41858
1150.365, 20.32715
1150.847, 23.50842
1151.329, 29.65601
1151.811, 27.06775
1152.293, 18.87378
1152.776, 13.78711
1153.258, 13.67834
1153.740, 17.63306
1154.222, 31.89746
1154.704, 40.57971
1155.186, 34.20813
1155.668, 27.24146
1156.150, 26.83093
1156.633, 29.29248
1157.115, 31.67041
1157.597, 33.52344
1158.079, 33.44153
1158.561, 31.41028
1159.043, 26.59351
1159.525, 16.77808
1160.007, 13.82874
1160.490, 21.44751
1160.972, 27.80664
1161.454, 26.32495
1161.936, 22.91919
1162.418, 24.55188
1162.900, 30.83582
1163.382, 45.09766
1163.864, 62.74780
1164.346, 62.54114
1164.828, 46.74194
1165.311, 29.20581
1165.793, 13.68420
1166.275, 2.150024
1166.757, 3.886719
1167.239, 3.100098
1167.721, 11.08582
1168.203, 28.21460
1168.685, 41.48584
1169.168, 49.02454
1169.650, 46.00171
1170.132, 36.70728
1170.614, 28.43860
1171.096, 22.91675
1171.578, 24.50195
1172.060, 40.59326
1172.542, 53.54272
1173.025, 66.24927
1173.507, 68.16077
1173.989, 43.08545
1174.471, 19.89197
1174.953, 25.91272
1175.435, 48.93787
1175.917, 58.53992
1176.399, 53.92029
1176.881, 50.83313
1177.364, 50.30933
1177.846, 38.37439
1178.328, 12.08081
1178.810, 3.700806
1179.292, 27.21094
1179.774, 51.47168
1180.256, 44.71912
1180.738, 26.94202
1181.220, 36.27637
1181.703, 59.47009
1182.185, 71.24280
1182.667, 71.72827
1183.149, 61.68066
1183.631, 44.35400
1184.113, 27.76514
1184.595, 14.78589
1185.077, 9.863037
1185.560, 23.64954
1186.042, 35.31128
1186.524, 32.88379
1187.006, 25.67078
1187.488, 15.32922
1187.970, 7.857056
1188.452, 12.42822
1188.934, 27.52356
1189.417, 40.01245
1189.899, 51.60706
1190.381, 57.86206
1190.863, 59.26819
1191.345, 51.25281
1191.827, 28.07654
1192.309, 14.29846
1192.791, 25.38782
1193.273, 44.43567
1193.755, 49.51660
1194.238, 45.98669
1194.720, 51.95203
1195.202, 63.93909
1195.684, 65.71631
1196.166, 59.89954
1196.648, 62.83960
1197.130, 75.22290
1197.612, 78.23132
1198.095, 61.46326
1198.577, 47.63757
1199.059, 60.08374
1199.541, 75.76819
1200.023, 81.03589
1200.505, 77.94421
1200.987, 62.32361
1201.469, 43.39355
1201.952, 39.33899
1202.434, 48.07471
1202.916, 40.76428
1203.398, 3.479126
1203.880, 22.15479
1204.362, 0.1809080
1204.844, 15.07007
1205.326, 10.18750
1205.808, 5.714355
1206.291, 14.91833
1206.773, 26.92395
1207.255, 24.80823
1207.737, 15.48877
1208.219, 34.26331
1208.701, 71.47668
1209.183, 70.56091
1209.665, 38.82654
1210.147, 27.79175
1210.630, 44.24072
1211.112, 49.97144
1211.594, 24.62183
1212.076, 1.268799
1212.558, 8.143799
1213.040, 25.40515
1213.522, 45.82031
1214.004, 61.84485
1214.487, 64.08496
1214.969, 58.84265
1215.451, 55.82263
1215.933, 54.84766
1216.415, 52.32617
1216.897, 43.54749
1217.379, 43.62598
1217.861, 59.65210
1218.344, 66.14783
1218.826, 54.45740
1219.308, 45.75378
1219.790, 52.83337
1220.272, 60.59644
1220.754, 48.71057
1221.236, 27.88892
1221.718, 29.53186
1222.200, 47.24963
1222.682, 59.74072
1223.165, 66.71423
1223.647, 70.28723
1224.129, 71.62903
1224.611, 73.82104
1225.093, 78.11987
1225.575, 78.19690
1226.057, 64.62280
1226.539, 52.53027
1227.022, 51.35510
1227.504, 53.75037
1227.986, 57.89624
1228.468, 60.47571
1228.950, 56.47510
1229.432, 48.19629
1229.914, 43.09521
1230.396, 40.89368
1230.879, 45.52039
1231.361, 60.41638
1231.843, 63.17151
1232.325, 49.45349
1232.807, 39.14648
1233.289, 40.06836
1233.771, 45.63416
1234.253, 47.46838
1234.735, 47.77161
1235.218, 30.13086
1235.700, 5.907593
1236.182, 8.845825
1236.664, 14.45862
1237.146, 8.254761
1237.628, 4.155762
1238.110, 8.850952
1238.592, 3.046997
1239.074, 2.495850
1239.557, 13.24646
1240.039, 24.43726
1240.521, 34.31494
1241.003, 43.58899
1241.485, 54.91101
1241.967, 61.90210
1242.449, 58.39111
1242.931, 51.63977
1243.414, 53.86719
1243.896, 61.93481
1244.378, 57.31140
1244.860, 42.11499
1245.342, 38.50623
1245.824, 46.40405
1246.306, 61.78711
1246.788, 80.47742
1247.271, 83.41113
1247.753, 61.49548
1248.235, 43.49622
1248.717, 57.51489
1249.199, 77.40503
1249.681, 91.42615
1250.163, 95.54163
1250.645, 74.16467
1251.127, 50.47156
1251.609, 33.40063
1252.092, 21.35461
1252.574, 18.05786
1253.056, 22.43152
1253.538, 28.55603
1254.020, 37.80688
1254.502, 42.78784
1254.984, 42.62952
1255.466, 37.11121
1255.949, 25.86877
1256.431, 19.98889
1256.913, 28.85681
1257.395, 39.54260
1257.877, 33.88525
1258.359, 20.21521
1258.841, 6.948730
1259.323, 1.781128
1259.806, 2.435547
1260.288, 13.65259
1260.770, 19.58362
1261.252, 19.15759
1261.734, 18.50073
1262.216, 13.15088
1262.698, 12.30298
1263.180, 8.284180
1263.662, 4.427734
1264.145, 0.0000000E+00
##END=



