##NAMES=Cordylite-(Ce)
##RRUFFID=R110181
##IDEAL CHEMISTRY=(Na,Ca,[box])BaCe_2_(CO_3_)_4_(F,O)
##LOCALITY=Demix Quarry, Mont St-Hilaire, Quebec, Canada
##OWNER=RRUFF
##SOURCE=Donald Doell
##DESCRIPTION=Tan colored hexagonal prism associated with albite and siderite (Raman people, check the ID of these associated minerals).The cordylite may be mixed with parisite. Need to check this carefully!
##STATUS=The identification of this mineral has been confirmed only by single crystal X-ray diffraction.
##URL=rruff.info/R110181
163.4389, 17547.96
163.9210, 17673.51
164.4031, 17804.01
164.8853, 17954.86
165.3674, 18108.22
165.8495, 18228.91
166.3316, 18302.21
166.8137, 18371.89
167.2958, 18481.03
167.7780, 18621.78
168.2601, 18770.64
168.7422, 18920.51
169.2243, 19070.65
169.7064, 19214.52
170.1885, 19346.88
170.6707, 19478.27
171.1528, 19617.56
171.6349, 19762.86
172.1170, 19907.02
172.5991, 20040.51
173.0812, 20162.27
173.5634, 20296.41
174.0455, 20463.99
174.5276, 20629.82
175.0097, 20770.61
175.4918, 20891.05
175.9739, 21016.35
176.4561, 21179.26
176.9382, 21401.26
177.4203, 21590.84
177.9024, 21721.66
178.3845, 21844.13
178.8666, 21985.25
179.3488, 22147.02
179.8309, 22314.30
180.3130, 22462.71
180.7951, 22574.50
181.2772, 22707.91
181.7593, 22873.23
182.2415, 23049.96
182.7236, 23224.86
183.2057, 23394.15
183.6878, 23558.99
184.1699, 23721.22
184.6520, 23882.99
185.1342, 24036.55
185.6163, 24167.58
186.0984, 24296.07
186.5805, 24448.37
187.0626, 24633.58
187.5447, 24829.00
188.0269, 24990.89
188.5090, 25107.47
188.9911, 25244.48
189.4732, 25430.58
189.9553, 25644.23
190.4374, 25845.93
190.9196, 26025.00
191.4017, 26191.27
191.8838, 26359.22
192.3659, 26527.30
192.8480, 26699.76
193.3301, 26880.80
193.8123, 27067.96
194.2944, 27252.19
194.7765, 27423.72
195.2586, 27600.96
195.7407, 27812.18
196.2228, 28057.70
196.7050, 28286.21
197.1871, 28442.19
197.6692, 28530.18
198.1513, 28652.53
198.6334, 28850.64
199.1155, 29074.05
199.5977, 29296.33
200.0798, 29514.48
200.5619, 29721.31
201.0440, 29902.90
201.5261, 30053.72
202.0082, 30224.70
202.4904, 30437.86
202.9725, 30663.52
203.4546, 30892.00
203.9367, 31120.68
204.4188, 31349.26
204.9009, 31572.01
205.3831, 31778.03
205.8652, 32012.23
206.3473, 32301.90
206.8294, 32597.54
207.3115, 32869.66
207.7936, 33113.26
208.2758, 33343.77
208.7579, 33580.73
209.2400, 33828.69
209.7221, 34072.22
210.2042, 34302.41
210.6863, 34533.90
211.1685, 34778.31
211.6506, 35037.49
212.1327, 35304.57
212.6148, 35572.39
213.0969, 35840.31
213.5790, 36105.23
214.0612, 36358.95
214.5433, 36613.85
215.0254, 36885.66
215.5075, 37175.20
215.9896, 37471.66
216.4717, 37755.50
216.9539, 38014.83
217.4360, 38295.93
217.9181, 38613.20
218.4002, 38946.28
218.8823, 39283.28
219.3644, 39620.52
219.8466, 39948.21
220.3287, 40242.39
220.8108, 40491.56
221.2929, 40782.97
221.7750, 41169.51
222.2571, 41589.05
222.7393, 41962.75
223.2214, 42271.03
223.7035, 42550.23
224.1856, 42833.91
224.6677, 43120.58
225.1498, 43420.87
225.6320, 43742.13
226.1141, 44077.60
226.5962, 44416.93
227.0783, 44759.54
227.5604, 45104.36
228.0425, 45466.60
228.5247, 45837.10
229.0068, 46179.16
229.4889, 46442.97
229.9710, 46668.54
230.4531, 46954.27
230.9352, 47328.99
231.4174, 47721.53
231.8995, 48081.29
232.3816, 48414.55
232.8637, 48734.94
233.3458, 49038.60
233.8279, 49333.42
234.3101, 49657.16
234.7922, 50034.02
235.2743, 50394.27
235.7564, 50678.19
236.2385, 50918.21
236.7206, 51183.00
237.2028, 51517.58
237.6849, 51906.67
238.1670, 52297.04
238.6491, 52716.23
239.1312, 53090.03
239.6133, 53374.23
240.0955, 53603.13
240.5776, 53835.35
241.0597, 54097.48
241.5418, 54391.44
242.0239, 54728.02
242.5060, 55176.38
242.9882, 55571.14
243.4703, 55848.35
243.9524, 56051.51
244.4345, 56238.99
244.9166, 56438.11
245.3987, 56654.11
245.8809, 56909.94
246.3630, 57238.62
246.8451, 57567.48
247.3272, 57903.84
247.8093, 58226.01
248.2914, 58498.86
248.7736, 58700.71
249.2557, 58852.09
249.7378, 59035.36
250.2199, 59299.71
250.7020, 59536.19
251.1841, 59710.29
251.6663, 59855.44
252.1484, 60008.98
252.6305, 60189.98
253.1126, 60390.31
253.5947, 60588.86
254.0768, 60767.67
254.5590, 60966.27
255.0411, 61205.39
255.5232, 61458.57
256.0053, 61701.87
256.4874, 61924.20
256.9695, 62126.50
257.4517, 62310.41
257.9338, 62435.26
258.4159, 62591.91
258.8980, 62808.79
259.3801, 63045.75
259.8622, 63264.20
260.3444, 63450.40
260.8265, 63613.65
261.3086, 63770.24
261.7907, 63908.91
262.2728, 64060.36
262.7549, 64259.31
263.2371, 64454.89
263.7192, 64585.70
264.2013, 64637.38
264.6834, 64656.74
265.1655, 64712.21
265.6476, 64818.93
266.1298, 64930.76
266.6119, 65062.16
267.0940, 65190.82
267.5761, 65291.92
268.0582, 65361.98
268.5403, 65421.50
269.0225, 65498.72
269.5046, 65604.22
269.9867, 65669.87
270.4688, 65646.73
270.9509, 65612.95
271.4330, 65651.54
271.9152, 65768.27
272.3973, 65882.53
272.8794, 65915.30
273.3615, 65857.87
273.8436, 65804.36
274.3257, 65752.46
274.8079, 65707.01
275.2900, 65677.47
275.7721, 65662.46
276.2542, 65646.48
276.7363, 65628.55
277.2184, 65598.33
277.7006, 65512.11
278.1827, 65323.75
278.6648, 65116.12
279.1469, 64941.59
279.6290, 64799.70
280.1111, 64677.71
280.5933, 64580.79
281.0754, 64494.07
281.5575, 64370.43
282.0396, 64191.12
282.5217, 63999.30
283.0038, 63821.59
283.4860, 63654.80
283.9681, 63481.68
284.4502, 63300.71
284.9323, 63101.72
285.4144, 62866.28
285.8965, 62582.06
286.3787, 62294.22
286.8608, 62028.72
287.3429, 61780.91
287.8250, 61527.11
288.3071, 61252.91
288.7892, 60979.64
289.2714, 60741.83
289.7535, 60544.50
290.2356, 60340.80
290.7177, 60116.63
291.1998, 59869.68
291.6819, 59587.16
292.1641, 59257.32
292.6462, 58906.71
293.1283, 58550.61
293.6104, 58191.61
294.0925, 57861.80
294.5746, 57596.69
295.0568, 57366.85
295.5389, 57116.36
296.0210, 56839.39
296.5031, 56540.56
296.9852, 56196.45
297.4673, 55827.75
297.9495, 55493.94
298.4316, 55244.22
298.9137, 55030.14
299.3958, 54780.61
299.8779, 54489.83
300.3600, 54183.27
300.8422, 53872.67
301.3243, 53558.44
301.8064, 53244.06
302.2885, 52916.46
302.7706, 52598.24
303.2527, 52316.81
303.7349, 52072.68
304.2170, 51843.34
304.6991, 51632.11
305.1812, 51423.14
305.6633, 51197.10
306.1454, 50952.84
306.6276, 50689.95
307.1097, 50402.72
307.5918, 50092.97
308.0739, 49774.05
308.5560, 49419.63
309.0381, 49092.80
309.5203, 48876.57
310.0024, 48782.82
310.4845, 48685.75
310.9666, 48496.06
311.4487, 48228.57
311.9308, 47951.40
312.4130, 47660.50
312.8951, 47391.19
313.3772, 47185.59
313.8593, 47034.21
314.3414, 46884.41
314.8235, 46715.02
315.3057, 46527.39
315.7878, 46317.00
316.2699, 46073.55
316.7520, 45833.39
317.2341, 45625.49
317.7162, 45441.77
318.1984, 45266.04
318.6805, 45099.69
319.1626, 44935.88
319.6447, 44762.92
320.1268, 44579.45
320.6089, 44394.75
321.0911, 44203.52
321.5732, 44016.69
322.0553, 43855.34
322.5374, 43736.97
323.0195, 43622.06
323.5016, 43460.31
323.9838, 43250.23
324.4659, 43061.65
324.9480, 42935.91
325.4301, 42836.16
325.9122, 42716.91
326.3943, 42571.41
326.8765, 42423.80
327.3586, 42293.30
327.8407, 42176.13
328.3228, 42051.84
328.8049, 41906.68
329.2870, 41766.43
329.7692, 41658.63
330.2513, 41581.00
330.7334, 41510.83
331.2155, 41448.20
331.6976, 41384.57
332.1797, 41295.79
332.6619, 41171.89
333.1440, 41043.77
333.6261, 40929.02
334.1082, 40828.43
334.5903, 40748.83
335.0724, 40723.66
335.5546, 40705.75
336.0367, 40617.98
336.5188, 40452.18
337.0009, 40306.57
337.4830, 40257.30
337.9651, 40260.29
338.4473, 40232.93
338.9294, 40160.82
339.4115, 40066.16
339.8936, 39949.43
340.3757, 39816.55
340.8578, 39720.77
341.3400, 39702.03
341.8221, 39708.95
342.3042, 39657.31
342.7863, 39535.92
343.2684, 39421.23
343.7505, 39352.83
344.2327, 39318.50
344.7148, 39291.75
345.1969, 39269.92
345.6790, 39246.67
346.1611, 39217.86
346.6432, 39183.72
347.1254, 39133.74
347.6075, 39037.37
348.0896, 38937.21
348.5717, 38901.88
349.0538, 38939.61
349.5359, 38968.47
350.0181, 38919.85
350.5002, 38809.57
350.9823, 38719.94
351.4644, 38660.29
351.9465, 38618.68
352.4286, 38594.84
352.9108, 38584.97
353.3929, 38569.26
353.8750, 38534.94
354.3571, 38492.26
354.8392, 38468.69
355.3214, 38475.61
355.8035, 38473.51
356.2856, 38438.05
356.7677, 38385.98
357.2498, 38349.54
357.7319, 38339.46
358.2141, 38337.79
358.6962, 38319.55
359.1783, 38282.45
359.6604, 38244.10
360.1425, 38208.06
360.6246, 38170.59
361.1068, 38122.65
361.5889, 38065.05
362.0710, 38017.78
362.5531, 37998.54
363.0352, 38007.87
363.5173, 38018.96
363.9995, 38055.52
364.4816, 38070.76
364.9637, 38020.53
365.4458, 37929.53
365.9279, 37863.54
366.4100, 37859.57
366.8922, 37896.89
367.3743, 37908.48
367.8564, 37869.62
368.3385, 37841.55
368.8206, 37842.59
369.3027, 37853.68
369.7849, 37850.84
370.2670, 37827.83
370.7491, 37799.63
371.2312, 37789.11
371.7133, 37810.66
372.1954, 37803.68
372.6776, 37743.29
373.1597, 37677.71
373.6418, 37633.29
374.1239, 37611.43
374.6060, 37602.53
375.0881, 37599.67
375.5703, 37602.89
376.0524, 37608.89
376.5345, 37642.21
377.0166, 37650.96
377.4987, 37600.41
377.9808, 37523.95
378.4630, 37467.94
378.9451, 37453.76
379.4272, 37471.62
379.9093, 37501.11
380.3914, 37565.93
380.8735, 37601.20
381.3557, 37592.89
381.8378, 37566.08
382.3199, 37527.88
382.8020, 37485.46
383.2841, 37457.94
383.7662, 37472.09
384.2484, 37536.96
384.7305, 37579.43
385.2126, 37586.27
385.6947, 37581.80
386.1768, 37567.90
386.6589, 37548.35
387.1411, 37527.52
387.6232, 37506.64
388.1053, 37488.24
388.5874, 37482.57
389.0695, 37496.30
389.5516, 37510.66
390.0338, 37523.82
390.5159, 37534.38
390.9980, 37543.50
391.4801, 37551.36
391.9622, 37550.46
392.4443, 37523.71
392.9265, 37466.33
393.4086, 37431.62
393.8907, 37443.53
394.3728, 37464.80
394.8549, 37469.99
395.3370, 37464.18
395.8192, 37470.25
396.3013, 37517.73
396.7834, 37588.06
397.2655, 37613.65
397.7476, 37577.02
398.2297, 37540.99
398.7119, 37544.60
399.1940, 37566.58
399.6761, 37581.95
400.1582, 37585.87
400.6403, 37578.07
401.1224, 37550.99
401.6046, 37506.03
402.0867, 37471.61
402.5688, 37453.62
403.0509, 37453.66
403.5330, 37470.72
404.0151, 37504.38
404.4973, 37552.85
404.9794, 37643.94
405.4615, 37741.36
405.9436, 37770.66
406.4257, 37716.41
406.9078, 37649.37
407.3900, 37619.33
407.8721, 37625.79
408.3542, 37654.99
408.8363, 37744.19
409.3184, 37822.09
409.8005, 37825.21
410.2827, 37774.39
410.7648, 37744.70
411.2469, 37773.52
411.7290, 37833.45
412.2111, 37862.25
412.6932, 37852.65
413.1754, 37836.25
413.6575, 37820.44
414.1396, 37799.15
414.6217, 37747.47
415.1038, 37667.75
415.5859, 37620.67
416.0681, 37677.27
416.5502, 37852.90
417.0323, 37958.46
417.5144, 37957.16
417.9965, 37936.66
418.4786, 37920.82
418.9608, 37913.07
419.4429, 37913.19
419.9250, 37920.97
420.4071, 37937.98
420.8892, 37970.23
421.3713, 38046.39
421.8535, 38093.12
422.3356, 38093.34
422.8177, 38076.58
423.2998, 38064.78
423.7819, 38061.01
424.2640, 38054.51
424.7462, 38030.50
425.2283, 37986.11
425.7104, 37965.59
426.1925, 38001.36
426.6746, 38026.39
427.1567, 38000.87
427.6389, 37956.80
428.1210, 37949.35
428.6031, 38009.39
429.0852, 38100.38
429.5673, 38142.26
430.0494, 38115.96
430.5316, 38110.04
431.0137, 38182.92
431.4958, 38257.02
431.9779, 38279.40
432.4600, 38248.30
432.9421, 38201.63
433.4243, 38162.91
433.9064, 38131.45
434.3885, 38103.53
434.8706, 38077.95
435.3527, 38058.25
435.8348, 38051.90
436.3170, 38051.97
436.7991, 38044.57
437.2812, 38013.12
437.7633, 37991.64
438.2454, 38035.72
438.7275, 38131.02
439.2097, 38170.46
439.6918, 38099.20
440.1739, 37982.66
440.6560, 37916.50
441.1381, 37900.27
441.6202, 37898.60
442.1024, 37902.23
442.5845, 37915.16
443.0666, 37953.39
443.5487, 38014.98
444.0308, 38058.57
444.5129, 38048.10
444.9951, 37990.39
445.4772, 37953.17
445.9593, 37952.80
446.4414, 37950.98
446.9235, 37945.45
447.4056, 37928.61
447.8878, 37879.34
448.3699, 37791.66
448.8520, 37700.25
449.3341, 37658.88
449.8162, 37685.18
450.2983, 37715.64
450.7805, 37764.19
451.2626, 37803.59
451.7447, 37825.72
452.2268, 37826.92
452.7089, 37797.73
453.1910, 37727.18
453.6732, 37630.97
454.1553, 37578.41
454.6374, 37601.01
455.1195, 37614.63
455.6016, 37596.20
456.0837, 37570.39
456.5659, 37561.46
457.0480, 37572.25
457.5301, 37581.98
458.0122, 37567.35
458.4943, 37528.73
458.9764, 37489.74
459.4586, 37443.09
459.9407, 37408.94
460.4228, 37410.08
460.9049, 37427.46
461.3870, 37425.65
461.8691, 37386.37
462.3513, 37332.91
462.8334, 37303.77
463.3155, 37296.79
463.7976, 37246.61
464.2797, 37098.63
464.7618, 36940.68
465.2440, 36894.50
465.7261, 36960.87
466.2082, 37018.49
466.6903, 37026.51
467.1724, 37004.29
467.6545, 36971.96
468.1367, 36931.76
468.6188, 36883.19
469.1009, 36822.78
469.5830, 36754.97
470.0651, 36700.58
470.5472, 36655.94
471.0294, 36627.23
471.5115, 36637.50
471.9936, 36655.61
472.4757, 36635.86
472.9578, 36568.61
473.4399, 36488.07
473.9221, 36434.61
474.4042, 36411.92
474.8863, 36395.54
475.3684, 36404.23
475.8505, 36398.49
476.3326, 36361.25
476.8148, 36300.01
477.2969, 36226.21
477.7790, 36145.51
478.2611, 36061.48
478.7432, 35981.26
479.2253, 35902.11
479.7075, 35835.91
480.1896, 35777.85
480.6717, 35738.89
481.1538, 35740.19
481.6359, 35771.34
482.1180, 35791.73
482.6002, 35773.38
483.0823, 35724.89
483.5644, 35663.94
484.0465, 35583.81
484.5286, 35517.61
485.0107, 35491.98
485.4929, 35482.42
485.9750, 35459.12
486.4571, 35416.95
486.9392, 35373.32
487.4213, 35336.02
487.9034, 35305.15
488.3856, 35283.76
488.8677, 35273.29
489.3498, 35263.04
489.8319, 35246.45
490.3140, 35221.89
490.7961, 35184.73
491.2783, 35121.36
491.7604, 35059.59
492.2425, 35017.19
492.7246, 34984.23
493.2067, 34936.86
493.6888, 34866.85
494.1710, 34796.83
494.6531, 34766.01
495.1352, 34797.52
495.6173, 34794.74
496.0994, 34730.38
496.5815, 34663.50
497.0637, 34623.13
497.5458, 34602.88
498.0279, 34586.39
498.5100, 34565.54
498.9921, 34536.61
499.4742, 34483.40
499.9564, 34383.48
500.4385, 34316.73
500.9206, 34333.36
501.4027, 34354.74
501.8848, 34330.79
502.3669, 34263.45
502.8491, 34187.69
503.3312, 34118.28
503.8133, 34059.93
504.2954, 34032.84
504.7775, 34045.44
505.2596, 34049.98
505.7418, 34017.39
506.2239, 33968.00
506.7060, 33933.39
507.1881, 33920.45
507.6702, 33900.40
508.1523, 33849.29
508.6345, 33784.89
509.1166, 33739.23
509.5987, 33716.91
510.0808, 33697.41
510.5629, 33662.66
511.0450, 33614.82
511.5272, 33578.26
512.0093, 33558.77
512.4914, 33541.57
512.9735, 33532.43
513.4556, 33518.88
513.9377, 33482.06
514.4199, 33418.29
514.9020, 33340.63
515.3841, 33262.29
515.8662, 33178.77
516.3483, 33126.75
516.8304, 33148.55
517.3126, 33157.76
517.7947, 33121.71
518.2768, 33060.59
518.7589, 33002.46
519.2410, 32958.00
519.7231, 32926.49
520.2053, 32914.71
520.6874, 32925.52
521.1695, 32911.59
521.6516, 32851.81
522.1337, 32784.36
522.6158, 32739.98
523.0980, 32709.67
523.5801, 32666.14
524.0622, 32581.21
524.5443, 32497.65
525.0264, 32466.41
525.5085, 32480.08
525.9907, 32498.34
526.4728, 32510.66
526.9549, 32514.60
527.4370, 32507.69
527.9191, 32491.75
528.4012, 32455.85
528.8834, 32378.36
529.3655, 32298.29
529.8476, 32235.16
530.3297, 32192.04
530.8118, 32174.33
531.2939, 32186.03
531.7761, 32216.56
532.2582, 32241.62
532.7403, 32276.32
533.2224, 32274.32
533.7045, 32208.98
534.1866, 32133.95
534.6688, 32082.09
535.1509, 32049.14
535.6330, 32009.51
536.1151, 31940.08
536.5972, 31861.17
537.0793, 31836.49
537.5615, 31885.11
538.0436, 31909.65
538.5257, 31855.25
539.0078, 31786.60
539.4899, 31764.93
539.9720, 31789.85
540.4542, 31810.92
540.9363, 31804.54
541.4184, 31779.81
541.9005, 31741.09
542.3826, 31690.46
542.8647, 31656.55
543.3469, 31659.15
543.8290, 31682.80
544.3111, 31686.65
544.7932, 31661.23
545.2753, 31641.06
545.7574, 31634.58
546.2396, 31632.24
546.7217, 31635.04
547.2038, 31636.21
547.6859, 31612.42
548.1680, 31543.57
548.6501, 31443.69
549.1323, 31373.81
549.6144, 31331.36
550.0965, 31327.29
550.5786, 31403.40
551.0607, 31481.71
551.5428, 31497.02
552.0250, 31453.12
552.5071, 31407.03
552.9892, 31400.48
553.4713, 31422.32
553.9534, 31443.51
554.4355, 31466.03
554.9177, 31476.44
555.3998, 31459.95
555.8819, 31435.19
556.3640, 31431.41
556.8461, 31452.96
557.3282, 31462.19
557.8104, 31430.70
558.2925, 31387.23
558.7746, 31366.83
559.2567, 31369.78
559.7388, 31378.80
560.2209, 31385.54
560.7031, 31387.79
561.1852, 31378.56
561.6673, 31339.42
562.1494, 31314.77
562.6315, 31308.03
563.1136, 31313.78
563.5958, 31343.34
564.0779, 31384.38
564.5600, 31394.67
565.0421, 31334.94
565.5242, 31239.17
566.0063, 31230.58
566.4885, 31344.42
566.9706, 31442.39
567.4527, 31508.38
567.9348, 31533.42
568.4169, 31488.61
568.8990, 31384.83
569.3812, 31294.03
569.8633, 31262.29
570.3454, 31261.62
570.8275, 31250.67
571.3096, 31230.70
571.7917, 31225.50
572.2739, 31249.52
572.7560, 31286.53
573.2381, 31302.52
573.7202, 31283.26
574.2023, 31300.48
574.6844, 31418.41
575.1666, 31525.21
575.6487, 31528.55
576.1308, 31455.98
576.6129, 31390.14
577.0950, 31373.95
577.5771, 31387.47
578.0593, 31385.81
578.5414, 31359.65
579.0235, 31343.48
579.5056, 31352.93
579.9877, 31359.34
580.4698, 31343.99
580.9520, 31315.63
581.4341, 31294.58
581.9162, 31288.63
582.3983, 31296.51
582.8804, 31332.77
583.3625, 31391.43
583.8447, 31396.30
584.3268, 31306.30
584.8089, 31212.15
585.2910, 31226.23
585.7731, 31335.14
586.2552, 31397.00
586.7374, 31378.17
587.2195, 31332.22
587.7016, 31275.24
588.1837, 31213.12
588.6658, 31148.73
589.1479, 31084.33
589.6301, 31035.91
590.1122, 31026.86
590.5943, 31062.97
591.0764, 31082.58
591.5585, 31080.51
592.0406, 31066.39
592.5228, 31034.84
593.0049, 30995.91
593.4870, 30959.89
593.9691, 30929.42
594.4512, 30904.15
594.9333, 30890.18
595.4155, 30882.13
595.8976, 30852.01
596.3797, 30792.18
596.8618, 30739.37
597.3439, 30727.15
597.8260, 30731.87
598.3082, 30694.68
598.7903, 30596.38
599.2724, 30505.38
599.7545, 30447.36
600.2366, 30405.32
600.7188, 30360.98
601.2009, 30313.86
601.6830, 30278.16
602.1651, 30266.38
602.6472, 30265.63
603.1293, 30225.48
603.6115, 30113.07
604.0936, 30021.31
604.5757, 29965.27
605.0578, 29921.66
605.5399, 29884.50
606.0220, 29847.99
606.5042, 29798.61
606.9863, 29723.19
607.4684, 29640.07
607.9505, 29585.47
608.4326, 29558.16
608.9147, 29510.23
609.3969, 29422.29
609.8790, 29322.62
610.3611, 29237.61
610.8432, 29166.56
611.3253, 29111.23
611.8074, 29108.29
612.2896, 29083.11
612.7717, 28978.71
613.2538, 28830.39
613.7359, 28687.86
614.2180, 28568.77
614.7001, 28488.85
615.1823, 28477.51
615.6644, 28541.06
616.1465, 28537.93
616.6286, 28414.11
617.1107, 28296.04
617.5928, 28232.87
618.0750, 28181.78
618.5571, 28088.67
619.0392, 27945.93
619.5213, 27814.18
620.0034, 27752.31
620.4855, 27731.22
620.9677, 27686.43
621.4498, 27615.08
621.9319, 27531.28
622.4140, 27436.71
622.8961, 27339.84
623.3782, 27263.40
623.8604, 27224.21
624.3425, 27150.89
624.8246, 26988.09
625.3067, 26831.17
625.7888, 26756.01
626.2709, 26739.49
626.7531, 26716.17
627.2352, 26654.27
627.7173, 26566.35
628.1994, 26469.63
628.6815, 26357.88
629.1636, 26272.47
629.6458, 26250.36
630.1279, 26209.42
630.6100, 26092.58
631.0921, 25934.93
631.5742, 25798.54
632.0563, 25700.71
632.5385, 25620.09
633.0206, 25553.47
633.5027, 25490.30
633.9848, 25405.55
634.4669, 25296.14
634.9490, 25183.21
635.4312, 25080.71
635.9133, 24987.68
636.3954, 24897.83
636.8775, 24819.74
637.3596, 24733.98
637.8417, 24622.90
638.3239, 24518.30
638.8060, 24453.65
639.2881, 24417.35
639.7702, 24369.63
640.2523, 24287.11
640.7344, 24178.88
641.2166, 24058.47
641.6987, 23924.63
642.1808, 23795.04
642.6629, 23670.58
643.1450, 23554.07
643.6271, 23450.24
644.1093, 23356.42
644.5914, 23266.34
645.0735, 23181.72
645.5556, 23098.35
646.0377, 23021.05
646.5198, 22941.07
647.0020, 22840.80
647.4841, 22720.30
647.9662, 22603.21
648.4483, 22513.37
648.9304, 22444.67
649.4125, 22345.72
649.8947, 22190.13
650.3768, 22055.41
650.8589, 21971.45
651.3410, 21899.07
651.8231, 21813.08
652.3052, 21713.29
652.7874, 21610.67
653.2695, 21510.46
653.7516, 21410.29
654.2337, 21305.87
654.7158, 21198.93
655.1979, 21099.25
655.6801, 21010.71
656.1622, 20923.97
656.6443, 20829.78
657.1264, 20728.64
657.6085, 20614.00
658.0906, 20465.16
658.5728, 20330.96
659.0549, 20232.72
659.5370, 20148.00
660.0191, 20054.18
660.5012, 19947.03
660.9833, 19833.67
661.4655, 19717.17
661.9476, 19600.11
662.4297, 19494.82
662.9118, 19402.83
663.3939, 19312.71
663.8760, 19224.73
664.3582, 19133.30
664.8403, 19028.93
665.3224, 18912.94
665.8045, 18802.53
666.2866, 18696.27
666.7687, 18600.53
667.2509, 18531.31
667.7330, 18471.37
668.2151, 18389.79
668.6972, 18279.89
669.1793, 18164.23
669.6614, 18065.63
670.1436, 17982.57
670.6257, 17894.63
671.1078, 17805.79
671.5899, 17703.32
672.0720, 17554.69
672.5541, 17410.40
673.0363, 17320.10
673.5184, 17280.43
674.0005, 17229.80
674.4826, 17133.29
674.9647, 17020.00
675.4468, 16915.81
675.9290, 16818.74
676.4111, 16723.06
676.8932, 16627.28
677.3753, 16527.28
677.8574, 16415.35
678.3395, 16289.90
678.8217, 16194.96
679.3038, 16171.84
679.7859, 16126.73
680.2680, 16027.92
680.7501, 15912.27
681.2322, 15812.02
681.7144, 15730.86
682.1965, 15652.99
682.6786, 15568.75
683.1607, 15482.24
683.6428, 15403.36
684.1249, 15330.34
684.6071, 15250.16
685.0892, 15157.75
685.5713, 15058.99
686.0534, 14957.21
686.5355, 14851.93
687.0176, 14760.45
687.4998, 14687.83
687.9819, 14621.36
688.4640, 14569.94
688.9461, 14515.68
689.4282, 14435.14
689.9103, 14329.82
690.3925, 14224.59
690.8746, 14137.54
691.3567, 14065.10
691.8388, 14008.51
692.3209, 13969.61
692.8030, 13895.26
693.2852, 13752.59
693.7673, 13605.79
694.2494, 13527.09
694.7315, 13511.70
695.2136, 13478.23
695.6957, 13422.81
696.1779, 13349.81
696.6600, 13236.18
697.1421, 13120.18
697.6242, 13052.09
698.1063, 13031.42
698.5884, 13014.06
699.0706, 12967.02
699.5527, 12898.39
700.0348, 12830.97
700.5169, 12766.20
700.9990, 12692.88
701.4811, 12605.42
701.9633, 12513.33
702.4454, 12413.23
702.9275, 12313.28
703.4096, 12243.18
703.8917, 12235.71
704.3738, 12218.92
704.8560, 12157.01
705.3381, 12072.51
705.8202, 11981.62
706.3023, 11893.14
706.7844, 11828.44
707.2665, 11806.12
707.7487, 11803.69
708.2308, 11754.94
708.7129, 11646.01
709.1950, 11556.02
709.6771, 11501.64
710.1592, 11458.38
710.6414, 11422.72
711.1235, 11384.92
711.6056, 11320.00
712.0877, 11209.55
712.5698, 11105.87
713.0519, 11035.78
713.5341, 10986.25
714.0162, 10948.54
714.4983, 10917.80
714.9804, 10884.37
715.4625, 10843.17
715.9446, 10790.94
716.4268, 10712.83
716.9089, 10593.63
717.3910, 10518.78
717.8731, 10529.09
718.3552, 10530.24
718.8373, 10467.93
719.3195, 10374.04
719.8016, 10293.11
720.2837, 10232.35
720.7658, 10177.48
721.2479, 10124.81
721.7300, 10072.40
722.2122, 10020.95
722.6943, 9967.948
723.1764, 9900.248
723.6585, 9811.695
724.1406, 9725.862
724.6227, 9683.041
725.1049, 9689.124
725.5870, 9680.011
726.0691, 9654.028
726.5512, 9615.176
727.0333, 9555.223
727.5154, 9489.403
727.9976, 9433.265
728.4797, 9388.158
728.9618, 9345.753
729.4439, 9298.391
729.9260, 9256.039
730.4081, 9237.608
730.8903, 9230.381
731.3724, 9200.946
731.8545, 9140.599
732.3366, 9073.291
732.8187, 9025.759
733.3008, 8995.100
733.7830, 8943.070
734.2651, 8856.265
734.7472, 8777.076
735.2293, 8710.531
735.7114, 8658.811
736.1935, 8631.767
736.6757, 8623.345
737.1578, 8606.526
737.6399, 8566.700
738.1220, 8524.503
738.6041, 8497.587
739.0862, 8475.782
739.5684, 8443.688
740.0505, 8399.088
740.5326, 8345.202
741.0147, 8282.603
741.4968, 8217.283
741.9789, 8168.649
742.4611, 8141.916
742.9432, 8112.742
743.4253, 8077.901
743.9074, 8041.597
744.3895, 8009.273
744.8716, 7976.479
745.3538, 7932.583
745.8359, 7870.353
746.3180, 7815.464
746.8001, 7787.169
747.2822, 7766.610
747.7643, 7733.625
748.2465, 7690.470
748.7286, 7648.421
749.2107, 7612.751
749.6928, 7581.835
750.1749, 7553.252
750.6570, 7526.953
751.1392, 7505.250
751.6213, 7495.100
752.1034, 7472.782
752.5855, 7417.706
753.0676, 7353.181
753.5497, 7309.697
754.0319, 7288.243
754.5140, 7263.102
754.9961, 7224.044
755.4782, 7183.801
755.9603, 7147.025
756.4424, 7115.466
756.9246, 7094.264
757.4067, 7082.430
757.8888, 7069.240
758.3709, 7046.782
758.8530, 7013.976
759.3351, 6962.781
759.8173, 6889.918
760.2994, 6827.293
760.7815, 6779.460
761.2636, 6748.631
761.7457, 6748.622
762.2278, 6769.678
762.7100, 6764.252
763.1921, 6717.084
763.6742, 6665.770
764.1563, 6611.411
764.6384, 6562.620
765.1205, 6530.243
765.6027, 6509.256
766.0848, 6484.968
766.5669, 6450.248
767.0490, 6413.496
767.5311, 6385.980
768.0132, 6366.323
768.4954, 6348.702
768.9775, 6333.647
769.4596, 6311.762
769.9417, 6276.374
770.4238, 6234.458
770.9059, 6197.780
771.3881, 6167.367
771.8702, 6138.883
772.3523, 6110.988
772.8344, 6086.318
773.3165, 6065.271
773.7986, 6048.332
774.2808, 6040.058
774.7629, 6038.467
775.2450, 6029.135
775.7271, 5998.988
776.2092, 5959.017
776.6913, 5922.708
777.1735, 5890.547
777.6556, 5865.003
778.1377, 5846.575
778.6198, 5835.223
779.1019, 5833.323
779.5840, 5836.824
780.0662, 5824.904
780.5483, 5793.776
781.0304, 5754.035
781.5125, 5690.263
781.9946, 5634.555
782.4767, 5607.562
782.9589, 5598.412
783.4410, 5585.951
783.9231, 5564.273
784.4052, 5542.546
784.8873, 5530.177
785.3694, 5518.167
785.8516, 5491.845
786.3337, 5455.521
786.8158, 5426.451
787.2979, 5411.482
787.7800, 5402.389
788.2621, 5389.979
788.7443, 5374.103
789.2264, 5345.445
789.7085, 5296.351
790.1906, 5255.913
790.6727, 5235.149
791.1548, 5223.670
791.6370, 5213.084
792.1191, 5202.974
792.6012, 5190.503
793.0833, 5177.385
793.5654, 5159.074
794.0475, 5127.460
794.5297, 5094.307
795.0118, 5072.403
795.4939, 5060.783
795.9760, 5051.661
796.4581, 5041.380
796.9402, 5027.189
797.4224, 5003.321
797.9045, 4971.106
798.3866, 4939.136
798.8687, 4907.792
799.3508, 4881.396
799.8329, 4864.643
800.3151, 4850.151
800.7972, 4823.034
801.2793, 4776.491
801.7614, 4744.067
802.2435, 4731.433
802.7256, 4724.440
803.2078, 4724.759
803.6899, 4725.040
804.1720, 4716.056
804.6541, 4698.460
805.1362, 4683.385
805.6183, 4682.470
806.1005, 4680.194
806.5826, 4654.569
807.0647, 4616.541
807.5468, 4592.886
808.0289, 4586.829
808.5110, 4581.327
808.9932, 4564.303
809.4753, 4539.468
809.9574, 4515.943
810.4395, 4493.397
810.9216, 4473.670
811.4037, 4460.296
811.8859, 4444.105
812.3680, 4416.542
812.8501, 4385.239
813.3322, 4361.213
813.8143, 4345.617
814.2964, 4332.461
814.7786, 4315.965
815.2607, 4306.121
815.7428, 4320.318
816.2249, 4339.345
816.7070, 4333.233
817.1891, 4299.271
817.6713, 4259.451
818.1534, 4227.171
818.6355, 4204.693
819.1176, 4205.719
819.5997, 4224.951
820.0818, 4214.668
820.5640, 4162.835
821.0461, 4114.588
821.5282, 4103.440
822.0103, 4117.203
822.4924, 4119.114
822.9745, 4104.674
823.4567, 4088.295
823.9388, 4069.693
824.4209, 4049.443
824.9030, 4026.353
825.3851, 4002.370
825.8672, 3978.509
826.3494, 3955.075
826.8315, 3937.999
827.3136, 3931.458
827.7957, 3931.082
828.2778, 3936.749
828.7599, 3944.808
829.2421, 3952.293
829.7242, 3956.560
830.2063, 3947.528
830.6884, 3915.510
831.1705, 3870.290
831.6526, 3834.067
832.1348, 3806.947
832.6169, 3791.701
833.0990, 3792.679
833.5811, 3792.339
834.0632, 3778.930
834.5453, 3758.397
835.0275, 3743.956
835.5096, 3738.938
835.9917, 3730.121
836.4738, 3717.363
836.9559, 3700.804
837.4380, 3675.300
837.9202, 3649.178
838.4023, 3630.928
838.8844, 3621.674
839.3665, 3618.426
839.8486, 3625.344
840.3307, 3630.371
840.8129, 3616.435
841.2950, 3593.183
841.7771, 3584.231
842.2592, 3589.768
842.7413, 3584.469
843.2234, 3551.097
843.7056, 3506.446
844.1877, 3487.232
844.6698, 3496.310
845.1519, 3496.195
845.6340, 3484.543
846.1161, 3466.561
846.5983, 3437.192
847.0804, 3409.271
847.5625, 3403.888
848.0446, 3422.654
848.5267, 3434.828
849.0089, 3443.571
849.4910, 3439.918
849.9731, 3408.942
850.4552, 3374.087
850.9373, 3357.839
851.4194, 3357.200
851.9016, 3355.314
852.3837, 3344.785
852.8658, 3331.230
853.3479, 3320.783
853.8300, 3310.268
854.3121, 3291.664
854.7943, 3266.863
855.2764, 3246.773
855.7585, 3236.222
856.2406, 3230.943
856.7227, 3225.325
857.2048, 3219.657
857.6870, 3218.795
858.1691, 3225.270
858.6512, 3226.065
859.1333, 3215.865
859.6154, 3202.427
860.0975, 3193.375
860.5797, 3178.749
861.0618, 3174.579
861.5439, 3149.817
862.0260, 3128.943
862.5081, 3112.914
862.9902, 3101.892
863.4724, 3099.334
863.9545, 3100.550
864.4366, 3098.557
864.9187, 3091.614
865.4008, 3082.103
865.8829, 3067.429
866.3651, 3054.345
866.8472, 3054.886
867.3293, 3062.400
867.8114, 3060.198
868.2935, 3045.238
868.7756, 3025.200
869.2578, 3004.926
869.7399, 2986.949
870.2220, 2979.253
870.7041, 2982.441
871.1862, 2983.203
871.6683, 2980.255
872.1505, 2975.510
872.6326, 2970.165
873.1147, 2963.242
873.5968, 2952.109
874.0789, 2934.933
874.5610, 2923.583
875.0432, 2925.374
875.5253, 2923.190
876.0074, 2913.210
876.4895, 2897.745
876.9716, 2871.720
877.4537, 2841.433
877.9359, 2828.554
878.4180, 2848.250
878.9001, 2866.816
879.3822, 2861.000
879.8643, 2844.981
880.3464, 2836.375
880.8286, 2831.815
881.3107, 2813.560
881.7928, 2776.826
882.2749, 2746.648
882.7570, 2755.392
883.2391, 2789.521
883.7213, 2808.969
884.2034, 2813.914
884.6855, 2801.746
885.1676, 2768.875
885.6497, 2741.084
886.1318, 2740.651
886.6140, 2758.185
887.0961, 2761.516
887.5782, 2745.205
888.0603, 2728.135
888.5424, 2704.583
889.0245, 2688.362
889.5067, 2691.001
889.9888, 2700.153
890.4709, 2702.203
890.9530, 2696.573
891.4351, 2688.532
891.9172, 2674.758
892.3994, 2664.199
892.8815, 2665.615
893.3636, 2668.058
893.8457, 2658.280
894.3278, 2639.757
894.8099, 2624.617
895.2921, 2617.585
895.7742, 2618.816
896.2563, 2638.377
896.7384, 2661.182
897.2205, 2655.812
897.7026, 2628.504
898.1848, 2607.667
898.6669, 2602.184
899.1490, 2604.670
899.6311, 2609.352
900.1132, 2614.293
900.5953, 2610.714
901.0775, 2597.590
901.5596, 2587.566
902.0417, 2582.257
902.5238, 2581.242
903.0059, 2587.398
903.4880, 2594.357
903.9702, 2586.831
904.4523, 2556.900
904.9344, 2544.517
905.4165, 2571.982
905.8986, 2588.023
906.3807, 2568.935
906.8629, 2543.710
907.3450, 2541.090
907.8271, 2555.826
908.3092, 2559.634
908.7913, 2537.076
909.2734, 2519.781
909.7556, 2530.675
910.2377, 2545.219
910.7198, 2538.567
911.2019, 2519.208
911.6840, 2506.912
912.1661, 2507.399
912.6483, 2512.185
913.1304, 2516.955
913.6125, 2519.312
914.0946, 2513.606
914.5767, 2502.169
915.0588, 2490.824
915.5410, 2481.193
916.0231, 2478.724
916.5052, 2487.681
916.9873, 2500.933
917.4694, 2503.781
917.9515, 2495.730
918.4337, 2490.930
918.9158, 2489.677
919.3979, 2491.294
919.8800, 2497.901
920.3621, 2502.460
920.8442, 2496.180
921.3264, 2480.390
921.8085, 2469.322
922.2906, 2461.629
922.7727, 2460.968
923.2548, 2474.014
923.7369, 2486.722
924.2191, 2495.374
924.7012, 2498.238
925.1833, 2489.027
925.6654, 2466.198
926.1475, 2454.743
926.6296, 2477.741
927.1118, 2495.498
927.5939, 2479.943
928.0760, 2454.312
928.5581, 2444.271
929.0402, 2449.038
929.5223, 2455.072
930.0045, 2456.988
930.4866, 2454.838
930.9687, 2444.776
931.4508, 2433.009
931.9329, 2432.884
932.4150, 2439.665
932.8972, 2433.900
933.3793, 2411.996
933.8614, 2395.077
934.3435, 2403.109
934.8256, 2425.349
935.3077, 2435.536
935.7899, 2434.423
936.2720, 2432.172
936.7541, 2429.564
937.2362, 2429.995
937.7183, 2436.079
938.2004, 2443.048
938.6826, 2443.265
939.1647, 2436.519
939.6468, 2432.917
940.1289, 2433.814
940.6110, 2434.614
941.0931, 2434.785
941.5753, 2434.193
942.0574, 2430.883
942.5395, 2427.091
943.0216, 2429.609
943.5037, 2442.286
943.9858, 2449.513
944.4680, 2446.885
944.9501, 2442.508
945.4322, 2434.750
945.9143, 2430.053
946.3964, 2438.604
946.8785, 2457.184
947.3607, 2468.684
947.8428, 2464.998
948.3249, 2458.765
948.8070, 2451.992
949.2891, 2449.864
949.7712, 2463.702
950.2534, 2484.084
950.7355, 2489.802
951.2176, 2477.026
951.6997, 2465.001
952.1818, 2469.875
952.6639, 2481.216
953.1461, 2484.830
953.6282, 2483.822
954.1103, 2487.009
954.5924, 2493.948
955.0745, 2494.495
955.5566, 2483.481
956.0388, 2470.315
956.5209, 2466.521
957.0030, 2471.744
957.4851, 2487.444
957.9672, 2513.598
958.4493, 2531.857
958.9315, 2537.814
959.4136, 2538.259
959.8957, 2538.298
960.3778, 2536.185
960.8599, 2526.349
961.3420, 2506.329
961.8242, 2490.759
962.3063, 2478.054
962.7884, 2474.411
963.2705, 2486.448
963.7526, 2502.367
964.2347, 2509.945
964.7169, 2510.571
965.1990, 2514.582
965.6811, 2525.274
966.1632, 2534.313
966.6453, 2536.987
967.1274, 2543.398
967.6096, 2566.519
968.0917, 2590.710
968.5738, 2592.773
969.0559, 2572.638
969.5380, 2558.749
970.0201, 2562.276
970.5023, 2567.257
970.9844, 2568.426
971.4665, 2568.469
971.9486, 2568.064
972.4307, 2568.756
972.9128, 2573.547
973.3950, 2583.132
973.8771, 2593.176
974.3592, 2601.137
974.8413, 2608.553
975.3234, 2618.470
975.8055, 2627.813
976.2877, 2631.413
976.7698, 2629.774
977.2519, 2625.915
977.7340, 2621.050
978.2161, 2619.742
978.6982, 2628.480
979.1804, 2643.318
979.6625, 2658.096
980.1446, 2672.191
980.6267, 2684.633
981.1088, 2695.024
981.5909, 2702.862
982.0731, 2707.876
982.5552, 2709.590
983.0373, 2705.545
983.5194, 2696.898
984.0015, 2690.574
984.4836, 2686.843
984.9658, 2693.449
985.4479, 2714.024
985.9300, 2734.489
986.4121, 2741.402
986.8942, 2738.633
987.3763, 2740.068
987.8585, 2746.530
988.3406, 2749.997
988.8227, 2745.636
989.3048, 2755.702
989.7869, 2797.672
990.2690, 2842.182
990.7512, 2851.125
991.2333, 2828.288
991.7154, 2821.241
992.1975, 2836.974
992.6796, 2854.135
993.1617, 2876.332
993.6439, 2892.692
994.1260, 2892.521
994.6081, 2886.886
995.0902, 2890.587
995.5723, 2903.668
996.0544, 2923.694
996.5366, 2965.784
997.0187, 2993.138
997.5008, 2988.595
997.9829, 2979.194
998.4650, 2979.489
998.9471, 2987.047
999.4293, 2998.615
999.9114, 3014.257
1000.393, 3022.501
1000.876, 3008.938
1001.358, 3001.641
1001.840, 3017.155
1002.322, 3039.875
1002.804, 3057.344
1003.286, 3070.012
1003.768, 3082.548
1004.250, 3096.214
1004.733, 3108.917
1005.215, 3122.645
1005.697, 3131.600
1006.179, 3126.183
1006.661, 3116.682
1007.143, 3114.935
1007.625, 3122.099
1008.107, 3136.769
1008.589, 3158.991
1009.072, 3179.687
1009.554, 3187.498
1010.036, 3192.547
1010.518, 3207.329
1011.000, 3228.590
1011.482, 3251.232
1011.964, 3273.134
1012.446, 3291.340
1012.929, 3304.323
1013.411, 3313.683
1013.893, 3316.867
1014.375, 3320.061
1014.857, 3339.014
1015.339, 3369.362
1015.821, 3395.975
1016.303, 3415.256
1016.785, 3431.245
1017.268, 3447.158
1017.750, 3458.421
1018.232, 3451.903
1018.714, 3434.392
1019.196, 3433.869
1019.678, 3450.341
1020.160, 3478.380
1020.642, 3516.442
1021.125, 3550.614
1021.607, 3569.449
1022.089, 3592.545
1022.571, 3594.073
1023.053, 3614.216
1023.535, 3621.790
1024.017, 3615.370
1024.499, 3617.881
1024.981, 3637.192
1025.464, 3662.873
1025.946, 3686.106
1026.428, 3707.148
1026.910, 3727.584
1027.392, 3748.108
1027.874, 3758.189
1028.356, 3752.526
1028.838, 3762.820
1029.321, 3805.427
1029.803, 3852.177
1030.285, 3876.442
1030.767, 3881.526
1031.249, 3879.924
1031.731, 3865.195
1032.213, 3869.368
1032.695, 3898.426
1033.177, 3934.295
1033.660, 3975.291
1034.142, 4012.340
1034.624, 4035.530
1035.106, 4046.491
1035.588, 4053.590
1036.070, 4051.208
1036.552, 4058.690
1037.034, 4079.674
1037.516, 4105.311
1037.999, 4137.534
1038.481, 4167.078
1038.963, 4179.268
1039.445, 4178.040
1039.927, 4194.264
1040.409, 4244.080
1040.891, 4283.016
1041.373, 4313.299
1041.855, 4329.438
1042.338, 4310.344
1042.820, 4289.785
1043.302, 4306.540
1043.784, 4355.701
1044.266, 4399.039
1044.748, 4439.389
1045.230, 4467.090
1045.712, 4469.237
1046.195, 4473.428
1046.677, 4494.863
1047.159, 4520.836
1047.641, 4538.214
1048.123, 4547.126
1048.605, 4552.575
1049.087, 4544.042
1049.569, 4552.290
1050.052, 4593.505
1050.534, 4638.331
1051.016, 4676.163
1051.498, 4708.647
1051.980, 4740.563
1052.462, 4770.162
1052.944, 4786.029
1053.426, 4772.994
1053.908, 4773.091
1054.391, 4803.827
1054.873, 4840.476
1055.355, 4874.206
1055.837, 4904.649
1056.319, 4929.929
1056.801, 4951.975
1057.283, 4980.505
1057.765, 5023.454
1058.248, 5059.171
1058.730, 5077.860
1059.212, 5091.860
1059.694, 5107.223
1060.176, 5122.266
1060.658, 5129.319
1061.140, 5133.121
1061.622, 5155.044
1062.104, 5207.890
1062.587, 5258.671
1063.069, 5301.562
1063.551, 5331.946
1064.033, 5333.223
1064.515, 5330.234
1064.997, 5353.130
1065.479, 5398.699
1065.961, 5443.861
1066.443, 5482.096
1066.926, 5518.777
1067.408, 5562.522
1067.890, 5597.913
1068.372, 5612.019
1068.854, 5615.572
1069.336, 5612.958
1069.818, 5611.770
1070.300, 5632.413
1070.782, 5686.266
1071.265, 5735.045
1071.747, 5753.106
1072.229, 5771.557
1072.711, 5813.915
1073.193, 5863.025
1073.675, 5900.357
1074.157, 5926.521
1074.639, 5949.398
1075.122, 5970.783
1075.604, 5992.427
1076.086, 6011.321
1076.568, 6035.287
1077.050, 6078.968
1077.532, 6122.045
1078.014, 6136.786
1078.496, 6134.062
1078.979, 6143.142
1079.461, 6171.399
1079.943, 6213.749
1080.425, 6285.379
1080.907, 6348.687
1081.389, 6378.460
1081.871, 6393.636
1082.353, 6404.599
1082.835, 6418.167
1083.318, 6446.088
1083.800, 6490.699
1084.282, 6532.791
1084.764, 6561.357
1085.246, 6588.974
1085.728, 6627.312
1086.210, 6662.479
1086.692, 6676.372
1087.175, 6680.670
1087.657, 6697.304
1088.139, 6729.789
1088.621, 6764.848
1089.103, 6797.891
1089.585, 6831.466
1090.067, 6870.326
1090.549, 6906.491
1091.031, 6932.350
1091.514, 6951.962
1091.996, 6967.125
1092.478, 6980.913
1092.960, 7010.480
1093.442, 7076.658
1093.924, 7130.983
1094.406, 7142.151
1094.888, 7150.544
1095.370, 7186.433
1095.853, 7232.848
1096.335, 7267.413
1096.817, 7289.515
1097.299, 7309.898
1097.781, 7331.286
1098.263, 7351.686
1098.745, 7359.779
1099.227, 7379.480
1099.709, 7437.687
1100.192, 7503.079
1100.674, 7542.261
1101.156, 7558.503
1101.638, 7569.930
1102.120, 7575.163
1102.602, 7594.060
1103.084, 7641.409
1103.566, 7690.396
1104.049, 7740.219
1104.531, 7778.564
1105.013, 7780.365
1105.495, 7766.437
1105.977, 7791.550
1106.459, 7871.156
1106.941, 7928.032
1107.423, 7925.432
1107.906, 7932.116
1108.388, 7972.053
1108.870, 8020.852
1109.352, 8074.043
1109.834, 8120.016
1110.316, 8128.970
1110.798, 8096.340
1111.280, 8104.993
1111.762, 8208.774
1112.245, 8282.869
1112.727, 8287.310
1113.209, 8287.736
1113.691, 8313.923
1114.173, 8354.833
1114.655, 8399.209
1115.137, 8446.328
1115.619, 8490.086
1116.102, 8532.565
1116.584, 8567.464
1117.066, 8590.381
1117.548, 8611.784
1118.030, 8633.333
1118.512, 8656.854
1118.994, 8683.011
1119.476, 8712.913
1119.958, 8752.636
1120.441, 8810.661
1120.923, 8849.529
1121.405, 8853.329
1121.887, 8874.044
1122.369, 8933.508
1122.851, 8997.130
1123.333, 9039.188
1123.815, 9068.142
1124.297, 9103.425
1124.780, 9146.110
1125.262, 9179.249
1125.744, 9198.688
1126.226, 9225.097
1126.708, 9266.070
1127.190, 9298.806
1127.672, 9306.219
1128.154, 9310.245
1128.636, 9344.632
1129.119, 9405.163
1129.601, 9456.175
1130.083, 9497.287
1130.565, 9537.623
1131.047, 9579.381
1131.529, 9600.520
1132.011, 9587.220
1132.493, 9586.772
1132.976, 9652.261
1133.458, 9756.300
1133.940, 9816.856
1134.422, 9838.271
1134.904, 9878.092
1135.386, 9937.188
1135.868, 9979.211
1136.350, 9994.528
1136.833, 9997.601
1137.315, 9995.755
1137.797, 10007.50
1138.279, 10081.95
1138.761, 10192.07
1139.243, 10233.46
1139.725, 10223.28
1140.207, 10238.99
1140.689, 10289.52
1141.172, 10334.68
1141.654, 10355.63
1142.136, 10376.86
1142.618, 10427.15
1143.100, 10466.33
1143.582, 10538.74
1144.064, 10581.06
1144.546, 10646.44
1145.029, 10726.55
1145.511, 10785.98
1145.993, 10816.88
1146.475, 10846.80
1146.957, 10897.16
1147.439, 10946.98
1147.921, 10966.52
1148.403, 11018.49
1148.885, 11029.15
1149.368, 11091.88
1149.850, 11132.34
1150.332, 11151.18
1150.814, 11179.31
1151.296, 11230.02
1151.778, 11285.72
1152.260, 11344.66
1152.742, 11394.43
1153.224, 11416.17
1153.707, 11433.49
1154.189, 11474.81
1154.671, 11531.85
1155.153, 11579.18
1155.635, 11611.71
1156.117, 11650.53
1156.599, 11695.95
1157.081, 11757.75
1157.563, 11863.44
1158.046, 11959.64
1158.528, 12005.32
1159.010, 12026.39
1159.492, 12053.33
1159.974, 12088.77
1160.456, 12137.23
1160.938, 12210.68
1161.420, 12274.41
1161.903, 12315.76
1162.385, 12363.05
1162.867, 12425.79
1163.349, 12495.05
1163.831, 12564.86
1164.313, 12635.95
1164.795, 12712.16
1165.277, 12797.61
1165.760, 12850.42
1166.242, 12849.69
1166.724, 12887.82
1167.206, 12992.41
1167.688, 13091.42
1168.170, 13144.34
1168.652, 13183.81
1169.134, 13253.15
1169.616, 13310.37
1170.099, 13371.66
1170.581, 13448.52
1171.063, 13507.60
1171.545, 13589.10
1172.027, 13667.92
1172.509, 13736.98
1172.991, 13801.18
1173.473, 13863.62
1173.956, 13928.18
1174.438, 14006.01
1174.920, 14090.34
1175.402, 14156.86
1175.884, 14209.44
1176.366, 14258.21
1176.848, 14308.04
1177.330, 14370.25
1177.813, 14449.73
1178.295, 14539.50
1178.777, 14636.74
1179.259, 14737.78
1179.741, 14842.77
1180.223, 14944.98
1180.705, 15035.24
1181.187, 15113.90
1181.669, 15176.56
1182.151, 15227.14
1182.634, 15286.94
1183.116, 15367.74
1183.598, 15449.60
1184.080, 15512.85
1184.562, 15582.03
1185.044, 15677.27
1185.526, 15783.48
1186.008, 15892.72
1186.490, 15997.61
1186.973, 16080.72
1187.455, 16136.72
1187.937, 16211.51
1188.419, 16327.03
1188.901, 16443.27
1189.383, 16561.42
1189.865, 16668.82
1190.347, 16750.55
1190.830, 16824.11
1191.312, 16902.44
1191.794, 16988.61
1192.276, 17101.09
1192.758, 17256.41
1193.240, 17380.43
1193.722, 17459.71
1194.204, 17545.03
1194.687, 17643.68
1195.169, 17768.15
1195.651, 17935.03
1196.133, 18109.77
1196.615, 18236.49
1197.097, 18321.96
1197.579, 18404.72
1198.061, 18486.14
1198.543, 18591.94
1199.026, 18721.47
1199.508, 18811.50
1199.990, 18844.02
1200.472, 18918.68
1200.954, 19124.11
1201.436, 19362.53
1201.918, 19476.06
1202.400, 19522.69
1202.883, 19609.72
1203.365, 19728.68
1203.847, 19853.86
1204.329, 19981.49
1204.811, 20122.21
1205.293, 20278.54
1205.775, 20423.45
1206.257, 20523.26
1206.740, 20626.39
1207.222, 20766.13
1207.704, 20926.83
1208.186, 21112.85
1208.668, 21299.04
1209.150, 21443.08
1209.632, 21552.53
1210.114, 21685.21
1210.596, 21863.51
1211.078, 22031.73
1211.561, 22156.80
1212.043, 22302.87
1212.525, 22497.87
1213.007, 22711.70
1213.489, 22955.66
1213.971, 23182.46
1214.453, 23294.63
1214.935, 23303.48
1215.417, 23429.93
1215.900, 23718.00
1216.382, 23951.15
1216.864, 24103.05
1217.346, 24258.34
1217.828, 24441.39
1218.310, 24648.58
1218.792, 24883.53
1219.274, 25125.38
1219.757, 25340.94
1220.239, 25530.95
1220.721, 25684.36
1221.203, 25816.90
1221.685, 26005.06
1222.167, 26254.02
1222.649, 26546.31
1223.131, 26869.50
1223.614, 27157.57
1224.096, 27349.30
1224.578, 27520.65
1225.060, 27755.39
1225.542, 28016.47
1226.024, 28264.48
1226.506, 28503.33
1226.988, 28737.12
1227.470, 28970.34
1227.953, 29214.48
1228.435, 29471.60
1228.917, 29724.05
1229.399, 29959.77
1229.881, 30194.79
1230.363, 30419.32
1230.845, 30664.57
1231.327, 30958.90
1231.810, 31276.41
1232.292, 31579.25
1232.774, 31879.67
1233.256, 32236.81
1233.738, 32690.49
1234.220, 33019.04
1234.702, 33170.67
1235.184, 33360.61
1235.667, 33630.95
1236.149, 33929.42
1236.631, 34229.38
1237.113, 34539.45
1237.595, 34875.41
1238.077, 35222.83
1238.559, 35540.02
1239.041, 35833.94
1239.523, 36139.39
1240.005, 36459.27
1240.488, 36783.27
1240.970, 37112.04
1241.452, 37459.20
1241.934, 37834.39
1242.416, 38228.86
1242.898, 38650.59
1243.380, 39070.17
1243.862, 39470.53
1244.344, 39844.14
1244.827, 40145.83
1245.309, 40437.82
1245.791, 40823.55
1246.273, 41305.75
1246.755, 41829.29
1247.237, 42422.18
1247.719, 42910.71
1248.201, 43134.21
1248.684, 43422.77
1249.166, 43932.98
1249.648, 44464.43
1250.130, 44900.39
1250.612, 45295.16
1251.094, 45717.81
1251.576, 46167.94
1252.058, 46643.09
1252.541, 47086.19
1253.023, 47612.90
1253.505, 48019.30
1253.987, 48456.79
1254.469, 48946.64
1254.951, 49459.20
1255.433, 49978.04
1255.915, 50499.95
1256.397, 51025.31
1256.880, 51545.97
1257.362, 52031.86
1257.844, 52505.08
1258.326, 52997.36
1258.808, 53516.84
1259.290, 54101.29
1259.772, 54731.49
1260.254, 55304.84
1260.737, 55765.92
1261.219, 56267.93
1261.701, 56989.50
1262.183, 57640.00
1262.665, 57971.84
1263.147, 58298.26
1263.629, 58899.91
1264.111, 59605.39
1264.594, 60159.47
1265.076, 60579.29
1265.558, 61012.78
1266.040, 61452.12
1266.522, 61937.96
1267.004, 62485.13
1267.486, 63033.74
1267.968, 63580.00
1268.450, 64088.49
1268.932, 64536.79
1269.415, 64974.00
1269.897, 65468.19
1270.379, 65867.62
1270.861, 66374.25
1271.343, 66708.41
1271.825, 67103.20
1272.307, 67557.80
1272.789, 68081.05
1273.271, 68638.91
1273.754, 69103.26
1274.236, 69430.39
1274.718, 69712.16
1275.200, 69953.84
1275.682, 70250.38
1276.164, 70737.09
1276.646, 71210.60
1277.128, 71502.20
1277.611, 71716.03
1278.093, 71967.36
1278.575, 72251.63
1279.057, 72517.77
1279.539, 72762.36
1280.021, 73035.52
1280.503, 73335.44
1280.985, 73634.94
1281.468, 73971.97
1281.950, 74227.91
1282.432, 74344.00
1282.914, 74436.80
1283.396, 74604.50
1283.878, 74815.58
1284.360, 75026.29
1284.842, 75193.81
1285.324, 75209.29
##END=



