##NAMES=Cornwallite
##RRUFFID=R050469
##IDEAL CHEMISTRY=Cu^2+^_5_(As^5+^O_4_)_2_(OH)_4_
##LOCALITY=Carissa mine, Tintic District, Utah, USA
##OWNER=RRUFF
##SOURCE=University of Arizona Mineral Museum
##DESCRIPTION=Dark green botryoidal crust
##STATUS=The identification of this mineral has been confirmed by X-ray diffraction and chemical analysis
##URL=rruff.info/R050469
##MEASURED CHEMISTRY=(Cu_4.98_Ca_0.02_)_Î£=5_(As_1.00_O_4_)_2_(OH)_4_ ; OH estimated by difference and charge balance
140.0664, 0.0000000E+00
140.5486, 0.2395730
141.0307, 7.5096257E-02
141.5128, 0.4844277
141.9949, 0.7129191
142.4770, 0.7702880
142.9591, 0.1440035
143.4413, 0.4005148
143.9234, 0.3032421
144.4055, 0.1914622
144.8876, 0.5722240
145.3697, 4.5375500E-02
145.8518, 0.4183264
146.3340, 0.4320930
146.8161, 0.6102498
147.2982, 0.4324367
147.7803, 0.3645715
148.2624, 0.6527901
148.7445, 0.7438421
149.2267, 0.5250506
149.7088, 0.7136570
150.1909, 0.1743736
150.6730, 0.2738235
151.1551, 0.6488581
151.6372, 0.4479654
152.1194, 0.3562080
152.6015, 0.4028520
153.0836, 0.4829090
153.5657, 0.5518400
154.0478, 0.6094870
154.5299, 0.6467230
155.0121, 0.6269730
155.4942, 0.5455150
155.9763, 0.4558730
156.4584, 0.4366820
156.9405, 0.4912170
157.4227, 0.5523050
157.9048, 0.6002140
158.3869, 0.6408450
158.8690, 0.6951950
159.3511, 0.7882590
159.8332, 0.8553990
160.3154, 0.8141580
160.7975, 0.6625490
161.2796, 0.4976280
161.7617, 0.3798460
162.2438, 0.3093210
162.7259, 0.2673210
163.2081, 0.2687760
163.6902, 0.2841270
164.1723, 0.2995950
164.6544, 0.3175060
165.1365, 0.3197940
165.6186, 0.2670850
166.1008, 0.1492710
166.5829, 6.9588996E-02
167.0650, 5.9857000E-02
167.5471, 0.1050450
168.0292, 0.1082840
168.5113, 7.9412997E-02
168.9935, 6.3685000E-02
169.4756, 0.1378210
169.9577, 0.4049810
170.4398, 0.5573570
170.9219, 0.4886570
171.4040, 0.3625350
171.8862, 0.3276490
172.3683, 0.4372100
172.8504, 0.6223510
173.3325, 0.6870000
173.8146, 0.4784690
174.2967, 0.3303320
174.7789, 0.2858520
175.2610, 0.2962450
175.7431, 0.3059560
176.2252, 0.2911050
176.7073, 0.2587490
177.1894, 0.2435040
177.6716, 0.2179450
178.1537, 0.2386380
178.6358, 0.3944440
179.1179, 0.6016570
179.6000, 0.6736520
180.0821, 0.4799450
180.5643, 0.1423400
181.0464, 4.8997998E-02
181.5285, 0.3568670
182.0106, 0.6330510
182.4927, 0.6369420
182.9749, 0.4207890
183.4570, 0.2141740
183.9391, 0.1174810
184.4212, 0.1115210
184.9033, 0.1342460
185.3854, 0.1815760
185.8676, 0.2458500
186.3497, 0.3491910
186.8318, 0.4947530
187.3139, 0.5666000
187.7960, 0.4465010
188.2781, 0.2519040
188.7603, 0.1002290
189.2424, 1.2492000E-02
189.7245, 2.0587999E-02
190.2066, 1.2069000E-02
190.6887, 0.1411750
191.1708, 0.2228620
191.6530, 0.1527790
192.1351, 3.7865002E-02
192.6172, 2.5219001E-02
193.0993, 4.1919998E-03
193.5814, 7.4588001E-02
194.0635, 6.8604000E-02
194.5457, 9.2837997E-02
195.0278, 0.1677130
195.5099, 5.8419000E-02
195.9920, 0.1254900
196.4741, 0.2895680
196.9562, 0.3936550
197.4384, 0.4389270
197.9205, 0.4333390
198.4026, 0.2826540
198.8847, 0.1729880
199.3668, 0.1497110
199.8489, 0.1720400
200.3311, 0.1973640
200.8132, 0.2032970
201.2953, 0.1935220
201.7774, 0.1785400
202.2595, 0.1400510
202.7416, 0.1162600
203.2238, 0.1295080
203.7059, 0.1469420
204.1880, 0.1411120
204.6701, 7.7777997E-02
205.1522, 2.3723001E-02
205.6344, 6.7610003E-02
206.1165, 2.4340000E-02
206.5986, 3.4538001E-02
207.0807, 9.7116001E-02
207.5628, 0.1649100
208.0449, 0.2459990
208.5271, 0.3481630
209.0092, 0.4606550
209.4913, 0.5380850
209.9734, 0.6199720
210.4555, 0.6393550
210.9376, 0.4897090
211.4198, 0.2326810
211.9019, 7.0618004E-02
212.3840, 0.1252270
212.8661, 0.3241320
213.3482, 0.4531540
213.8303, 0.4934440
214.3125, 0.5020720
214.7946, 0.5031140
215.2767, 0.4964740
215.7588, 0.4804670
216.2409, 0.4483330
216.7230, 0.4111390
217.2052, 0.3833660
217.6873, 0.3577180
218.1694, 0.3583710
218.6515, 0.4348140
219.1336, 0.5823550
219.6157, 0.6722710
220.0979, 0.6311860
220.5800, 0.5184740
221.0621, 0.3892410
221.5442, 0.2398580
222.0263, 0.1123360
222.5084, 4.1763000E-02
222.9906, 2.7813001E-02
223.4727, 7.2682001E-02
223.9548, 0.2646480
224.4369, 0.4635560
224.9190, 0.5652390
225.4011, 0.5464370
225.8833, 0.4626130
226.3654, 0.3613310
226.8475, 0.2328320
227.3296, 0.1379320
227.8117, 0.1219670
228.2938, 0.1227550
228.7760, 8.6204998E-02
229.2581, 5.0380002E-03
229.7402, 5.4974001E-02
230.2223, 2.4582000E-02
230.7044, 0.3246340
231.1866, 0.5020240
231.6687, 0.4129410
232.1508, 0.2757820
232.6329, 0.2305280
233.1150, 0.2999380
233.5971, 0.4026690
234.0793, 0.4222040
234.5614, 0.3208070
235.0435, 0.2261120
235.5256, 9.7327001E-02
236.0077, 5.5640000E-03
236.4898, 7.7459998E-03
236.9720, 0.1070610
237.4541, 0.2567740
237.9362, 0.3996010
238.4183, 0.5461440
238.9004, 0.6508830
239.3825, 0.7554500
239.8647, 0.7992100
240.3468, 0.7053890
240.8289, 0.4838030
241.3110, 0.2436680
241.7931, 0.1019130
242.2752, 8.5451998E-02
242.7574, 0.1325930
243.2395, 0.3105240
243.7216, 0.4922240
244.2037, 0.5887050
244.6858, 0.5937630
245.1679, 0.5715370
245.6501, 0.5956650
246.1322, 0.6925400
246.6143, 0.7187280
247.0964, 0.6034440
247.5785, 0.4783790
248.0606, 0.4516120
248.5428, 0.5219210
249.0249, 0.5913540
249.5070, 0.5598430
249.9891, 0.4059890
250.4712, 0.2893750
250.9533, 0.2196990
251.4355, 0.1794450
251.9176, 0.1661020
252.3997, 0.1703910
252.8818, 0.1812870
253.3639, 0.1908180
253.8460, 0.1934030
254.3282, 0.1621040
254.8103, 1.7882001E-02
255.2924, 9.7360000E-02
255.7745, 4.1101001E-02
256.2566, 0.1678090
256.7387, 0.3377040
257.2209, 0.3151960
257.7030, 0.1366770
258.1851, 6.9945998E-02
258.6672, 0.2295280
259.1493, 0.4079280
259.6314, 0.4427750
260.1136, 0.3483200
260.5957, 0.2703090
261.0778, 0.3058650
261.5599, 0.4196150
262.0420, 0.4876400
262.5241, 0.4889740
263.0063, 0.4668590
263.4884, 0.4509140
263.9705, 0.4433830
264.4526, 0.4233610
264.9347, 0.3771030
265.4168, 0.3135450
265.8990, 0.2536320
266.3811, 0.1990400
266.8632, 0.1431570
267.3453, 3.3611000E-02
267.8275, 0.1095200
268.3096, 0.1073420
268.7917, 0.2090040
269.2738, 0.6110290
269.7559, 0.7980650
270.2380, 0.7447180
270.7202, 0.5971770
271.2023, 0.4006740
271.6844, 0.1718560
272.1665, 2.4900001E-02
272.6486, 4.9339999E-03
273.1307, 6.9735996E-02
273.6129, 0.2039030
274.0950, 0.4059980
274.5771, 0.5383980
275.0592, 0.4392080
275.5413, 0.1619430
276.0234, 3.0732000E-02
276.5056, 0.1685550
276.9877, 0.3692740
277.4698, 0.4916950
277.9519, 0.5389390
278.4340, 0.5289510
278.9161, 0.4339740
279.3983, 0.2803500
279.8804, 0.1928840
280.3625, 0.2295800
280.8446, 0.2658220
281.3267, 0.1899180
281.8088, 5.7611000E-02
282.2910, 1.4946000E-02
282.7731, 7.7573001E-02
283.2552, 0.2763600
283.7373, 0.3807330
284.2194, 0.3497340
284.7015, 0.2970660
285.1837, 0.2670700
285.6658, 0.2543670
286.1479, 0.2519190
286.6300, 0.2570180
287.1121, 0.2694530
287.5942, 0.2880580
288.0764, 0.3192440
288.5585, 0.3553520
289.0406, 0.4189690
289.5227, 0.4757050
290.0048, 0.4762820
290.4869, 0.3926260
290.9691, 0.2846530
291.4512, 0.2636190
291.9333, 0.3612870
292.4154, 0.4450630
292.8975, 0.4931040
293.3796, 0.5067630
293.8618, 0.4750800
294.3439, 0.3959370
294.8260, 0.2989960
295.3081, 0.2138740
295.7902, 0.1358040
296.2723, 9.2253000E-02
296.7545, 0.1426520
297.2366, 0.1907040
297.7187, 0.1492870
298.2008, 2.5067000E-02
298.6829, 6.8310998E-02
299.1650, 3.0939000E-02
299.6472, 0.3569920
300.1293, 0.5528760
300.6114, 0.5099290
301.0935, 0.4017310
301.5756, 0.2563520
302.0577, 0.1020230
302.5399, 2.3390001E-03
303.0220, 9.2329998E-03
303.5041, 0.1303180
303.9862, 0.2155870
304.4683, 0.2353770
304.9504, 0.2512660
305.4326, 0.2957050
305.9147, 0.3519950
306.3968, 0.3842620
306.8789, 0.3613710
307.3610, 0.3033390
307.8431, 0.3098760
308.3253, 0.4818240
308.8074, 0.5528370
309.2895, 0.3579930
309.7716, 6.7720003E-02
310.2537, 9.9647000E-02
310.7358, 3.9361998E-02
311.2180, 0.1426650
311.7001, 0.2050910
312.1822, 8.2170002E-02
312.6643, 1.6119000E-02
313.1464, 7.7551000E-02
313.6285, 8.5225999E-02
314.1107, 7.2280001E-03
314.5928, 0.1589410
315.0749, 0.3389830
315.5570, 0.4187290
316.0392, 0.3681220
316.5213, 0.3258050
317.0034, 0.2688350
317.4855, 0.2516380
317.9676, 0.3387100
318.4497, 0.5168070
318.9319, 0.6895280
319.4140, 0.7625630
319.8961, 0.7299230
320.3782, 0.6560360
320.8603, 0.4490450
321.3424, 0.2891930
321.8246, 0.2744230
322.3067, 0.3657350
322.7888, 0.4602600
323.2709, 0.4806720
323.7530, 0.4339770
324.2351, 0.4250480
324.7173, 0.5098480
325.1994, 0.5517560
325.6815, 0.4622970
326.1636, 0.3198080
326.6457, 0.2321070
327.1278, 0.2471280
327.6100, 0.3320630
328.0921, 0.4066770
328.5742, 0.4462160
329.0563, 0.4724130
329.5384, 0.4902570
330.0205, 0.4961080
330.5027, 0.4768540
330.9848, 0.4293870
331.4669, 0.3856840
331.9490, 0.4101520
332.4311, 0.5280790
332.9132, 0.5839050
333.3954, 0.4716110
333.8775, 0.3564640
334.3596, 0.3444080
334.8417, 0.4324370
335.3238, 0.5291150
335.8059, 0.5637700
336.2881, 0.5367600
336.7702, 0.4343870
337.2523, 0.1256590
337.7344, 0.1077820
338.2165, 0.1039480
338.6986, 7.0511997E-02
339.1808, 0.2548340
339.6629, 0.3533050
340.1450, 0.3846860
340.6271, 0.4335940
341.1092, 0.4998500
341.5913, 0.5539490
342.0735, 0.6065330
342.5556, 0.6387450
343.0377, 0.6132200
343.5198, 0.5008590
344.0019, 0.3717860
344.4840, 0.3515780
344.9662, 0.4677070
345.4483, 0.5707820
345.9304, 0.6276500
346.4125, 0.6463740
346.8946, 0.6213330
347.3767, 0.5520980
347.8589, 0.4631880
348.3410, 0.3554770
348.8231, 0.2306490
349.3052, 0.1757670
349.7873, 0.2289020
350.2694, 0.3312370
350.7516, 0.4898180
351.2337, 0.6750030
351.7158, 0.7675680
352.1979, 0.6150850
352.6800, 0.3094560
353.1621, 0.1663730
353.6443, 0.2415240
354.1264, 0.3652470
354.6085, 0.4785460
355.0906, 0.5662630
355.5727, 0.5921150
356.0548, 0.5179700
356.5370, 0.4042460
357.0191, 0.3342700
357.5012, 0.3029910
357.9833, 0.3277350
358.4654, 0.5065360
358.9475, 0.6893420
359.4297, 0.6685500
359.9118, 0.3833770
360.3939, 9.8563001E-02
360.8760, 3.1854000E-02
361.3581, 0.1443530
361.8402, 0.2328510
362.3224, 0.2322350
362.8045, 0.2252160
363.2866, 0.3245690
363.7687, 0.5161640
364.2508, 0.6545290
364.7329, 0.6706990
365.2151, 0.6016040
365.6972, 0.4794860
366.1793, 0.2894690
366.6614, 0.1541330
367.1436, 0.2262270
367.6257, 0.4301230
368.1078, 0.5228400
368.5899, 0.4009750
369.0720, 0.2365990
369.5541, 0.1714380
370.0363, 0.1919390
370.5184, 0.2051600
371.0005, 0.1585700
371.4826, 8.7520003E-02
371.9647, 6.2762998E-02
372.4468, 6.9421999E-02
372.9290, 0.1360340
373.4111, 0.3514220
373.8932, 0.6209550
374.3753, 0.7514440
374.8574, 0.6819170
375.3395, 0.5346330
375.8217, 0.4643320
376.3038, 0.4829690
376.7859, 0.4696010
377.2680, 0.3685910
377.7501, 0.2612830
378.2322, 0.2383840
378.7144, 0.2934270
379.1965, 0.3182780
379.6786, 0.2086170
380.1607, 1.0061000E-02
380.6428, 5.8931001E-02
381.1249, 0.2358570
381.6071, 0.4828520
382.0892, 0.5098610
382.5713, 0.3959820
383.0534, 0.3019930
383.5355, 0.2992850
384.0176, 0.3307540
384.4998, 0.2661380
384.9819, 6.3647002E-02
385.4640, 0.2051770
385.9461, 2.3334000E-02
386.4282, 0.3374640
386.9103, 0.5032730
387.3925, 0.4835470
387.8746, 0.3638710
388.3567, 0.2216750
388.8388, 4.3175001E-02
389.3209, 5.2841999E-02
389.8030, 5.4207001E-02
390.2852, 1.4920000E-03
390.7673, 0.1528010
391.2494, 0.3452930
391.7315, 0.4522610
392.2136, 0.3958230
392.6957, 0.2219840
393.1779, 0.1083540
393.6600, 9.6633002E-02
394.1421, 9.1107003E-02
394.6242, 5.3252000E-02
395.1063, 3.3643000E-02
395.5884, 0.1095150
396.0706, 0.2932870
396.5527, 0.4680500
397.0348, 0.4296880
397.5169, 8.9417003E-02
397.9990, 0.1082780
398.4811, 5.9902001E-02
398.9633, 4.3455001E-02
399.4454, 0.1649720
399.9275, 0.2818850
400.4096, 0.3627260
400.8917, 0.3810830
401.3738, 0.3484790
401.8560, 0.3089700
402.3381, 0.2433080
402.8202, 0.2093500
403.3023, 0.2451620
403.7844, 0.3073560
404.2665, 0.3585260
404.7487, 0.3890640
405.2308, 0.3910400
405.7129, 0.3412730
406.1950, 0.2355300
406.6771, 0.1513630
407.1592, 0.1058210
407.6414, 8.4604003E-02
408.1235, 7.1244001E-02
408.6056, 6.8618000E-02
409.0877, 9.3397997E-02
409.5698, 0.1844540
410.0519, 0.3053600
410.5341, 0.3594780
411.0162, 0.3260830
411.4983, 0.2968860
411.9804, 0.3446510
412.4625, 0.4293320
412.9446, 0.4872400
413.4268, 0.5138390
413.9089, 0.5024680
414.3910, 0.4164560
414.8731, 0.2765720
415.3553, 0.1922520
415.8374, 0.2192490
416.3195, 0.2814040
416.8016, 0.2444470
417.2837, 9.8834001E-02
417.7658, 1.9516001E-02
418.2480, 0.1150220
418.7301, 0.2708000
419.2122, 0.3496660
419.6943, 0.3417040
420.1764, 0.2973530
420.6585, 0.2350760
421.1407, 0.1670330
421.6228, 0.2005080
422.1049, 0.4548620
422.5870, 0.6702740
423.0691, 0.7220760
423.5512, 0.6679620
424.0334, 0.6105560
424.5155, 0.5902300
424.9976, 0.5922540
425.4797, 0.5923210
425.9618, 0.6109400
426.4439, 0.5806520
426.9261, 0.4392990
427.4082, 0.3078560
427.8903, 0.2517440
428.3724, 0.2620350
428.8545, 0.3282360
429.3366, 0.4413780
429.8188, 0.5974860
430.3009, 0.6952850
430.7830, 0.7001690
431.2651, 0.6808780
431.7472, 0.6068890
432.2293, 0.5232990
432.7115, 0.5230800
433.1936, 0.6351380
433.6757, 0.7868110
434.1578, 0.8603030
434.6399, 0.8417080
435.1220, 0.7937670
435.6042, 0.6929010
436.0863, 0.5863160
436.5684, 0.4730910
437.0505, 0.3699230
437.5326, 0.3206270
438.0147, 0.3773850
438.4969, 0.5021490
438.9790, 0.5683160
439.4611, 0.5499660
439.9432, 0.5259960
440.4253, 0.5484570
440.9074, 0.5735190
441.3896, 0.5402830
441.8717, 0.4240060
442.3538, 0.3189180
442.8359, 0.3217150
443.3180, 0.4083530
443.8001, 0.4892500
444.2823, 0.5332310
444.7644, 0.5499690
445.2465, 0.5373480
445.7286, 0.5021920
446.2107, 0.4748090
446.6928, 0.4766390
447.1750, 0.4780560
447.6571, 0.4598500
448.1392, 0.4241900
448.6213, 0.3588540
449.1034, 0.2326240
449.5855, 8.9615002E-02
450.0677, 5.5307001E-02
450.5498, 0.1732870
451.0319, 0.2844500
451.5140, 0.3658580
451.9961, 0.4109400
452.4782, 0.3948320
452.9604, 0.3218190
453.4425, 0.2455850
453.9246, 0.2242180
454.4067, 0.2725230
454.8888, 0.2677810
455.3709, 0.1012610
455.8531, 2.2390001E-03
456.3352, 0.1270220
456.8173, 0.3732020
457.2994, 0.5767210
457.7815, 0.6627590
458.2636, 0.6483670
458.7458, 0.5542070
459.2279, 0.2994390
459.7100, 0.1361220
460.1921, 0.1329590
460.6742, 0.1585580
461.1563, 0.1333430
461.6385, 6.3166000E-02
462.1206, 3.8970001E-03
462.6027, 3.7150001E-03
463.0848, 4.8965000E-02
463.5669, 6.5096997E-02
464.0491, 3.1145999E-02
464.5312, 1.1003000E-02
465.0133, 3.0817000E-02
465.4954, 7.1099997E-02
465.9775, 0.1195090
466.4597, 0.1751060
466.9418, 0.2170580
467.4239, 0.2115510
467.9060, 0.1685720
468.3881, 0.1607260
468.8702, 0.2147800
469.3524, 0.2736060
469.8345, 0.2929970
470.3166, 0.2796270
470.7987, 0.2455650
471.2808, 0.1561220
471.7629, 7.6697998E-02
472.2451, 6.7093998E-02
472.7272, 0.1205520
473.2093, 0.2213880
473.6914, 0.3939090
474.1735, 0.5582960
474.6556, 0.5180920
475.1378, 0.1963240
475.6199, 2.5658000E-02
476.1020, 5.9647001E-02
476.5841, 6.8480000E-03
477.0662, 0.1404280
477.5483, 0.3132080
478.0305, 0.4442830
478.5126, 0.4662830
478.9947, 0.3926260
479.4768, 0.3411040
479.9589, 0.3070440
480.4410, 0.3012770
480.9232, 0.3546240
481.4053, 0.4218090
481.8874, 0.4673880
482.3695, 0.4800980
482.8516, 0.4473930
483.3337, 0.3400550
483.8159, 0.1458930
484.2980, 2.1929999E-03
484.7801, 0.1494630
485.2622, 0.1894020
485.7443, 8.4079998E-03
486.2264, 0.3123620
486.7086, 0.5165110
487.1907, 0.5315720
487.6728, 0.4270260
488.1549, 0.2489830
488.6370, 1.5374000E-02
489.1191, 0.1213250
489.6013, 8.0826998E-02
490.0834, 0.3541840
490.5655, 0.5069930
491.0476, 0.5460300
491.5297, 0.5138050
492.0118, 0.3360320
492.4940, 0.1474250
492.9761, 0.1414390
493.4582, 0.3139810
493.9403, 0.5230670
494.4224, 0.7368030
494.9045, 0.9044580
495.3867, 0.8669560
495.8688, 0.5237100
496.3509, 0.2649420
496.8330, 0.2398390
497.3151, 0.3093300
497.7972, 0.3352820
498.2794, 0.2987110
498.7615, 0.2384390
499.2436, 0.1816420
499.7257, 0.1303400
500.2078, 0.1259390
500.6899, 0.2416820
501.1721, 0.3161050
501.6542, 0.2745220
502.1363, 0.2029580
502.6184, 0.2161460
503.1005, 0.3345810
503.5826, 0.4550830
504.0648, 0.4348050
504.5469, 0.2550610
505.0290, 0.1196790
505.5111, 8.0700004E-03
505.9932, 2.6954999E-02
506.4753, 8.0245003E-02
506.9575, 0.2596870
507.4396, 0.4131060
507.9217, 0.5193660
508.4038, 0.5527270
508.8859, 0.4459410
509.3680, 0.2144200
509.8502, 3.7866000E-02
510.3323, 5.2492000E-02
510.8144, 6.4949997E-02
511.2965, 3.3876002E-02
511.7786, 0.2192490
512.2607, 0.3544450
512.7429, 0.3780040
513.2250, 0.3600390
513.7071, 0.3550930
514.1892, 0.3621670
514.6713, 0.3719870
515.1534, 0.3843360
515.6356, 0.3853100
516.1177, 0.3413040
516.5998, 0.2010720
517.0819, 0.1335700
517.5640, 0.2154170
518.0461, 0.3120980
518.5283, 0.3199880
519.0104, 0.2561380
519.4925, 0.2070880
519.9746, 0.2339060
520.4567, 0.3069030
520.9388, 0.3032060
521.4210, 0.1180920
521.9031, 5.7824999E-02
522.3852, 0.2680170
522.8673, 0.5104540
523.3494, 0.6338240
523.8315, 0.6315640
524.3137, 0.5887730
524.7958, 0.5687080
525.2779, 0.5592490
525.7600, 0.5020280
526.2421, 0.3704750
526.7242, 0.2930620
527.2064, 0.3783350
527.6885, 0.5220180
528.1706, 0.5991650
528.6527, 0.6066570
529.1348, 0.5690160
529.6169, 0.4686410
530.0991, 0.3292210
530.5812, 0.1870640
531.0633, 5.2599002E-02
531.5454, 3.5790000E-03
532.0275, 9.8999001E-02
532.5096, 0.3249750
532.9918, 0.4240750
533.4739, 0.2953190
533.9560, 0.1868210
534.4381, 0.1528140
534.9202, 0.1674300
535.4023, 0.2237460
535.8845, 0.3104160
536.3666, 0.3878050
536.8487, 0.4140260
537.3308, 0.3893190
537.8129, 0.3630900
538.2951, 0.3568980
538.7772, 0.3195380
539.2593, 0.1658990
539.7415, 1.3281000E-02
540.2236, 1.4589000E-02
540.7057, 0.2042020
541.1878, 0.4221360
541.6699, 0.4946340
542.1520, 0.4440710
542.6342, 0.4216770
543.1163, 0.4514430
543.5984, 0.5147150
544.0805, 0.6103660
544.5626, 0.7066670
545.0447, 0.7360570
545.5269, 0.6564810
546.0090, 0.5721660
546.4911, 0.5447810
546.9732, 0.5474890
547.4553, 0.5577110
547.9374, 0.5598330
548.4196, 0.5533530
548.9017, 0.5364930
549.3838, 0.5089140
549.8659, 0.4843660
550.3480, 0.4371160
550.8301, 0.4223930
551.3123, 0.5071590
551.7944, 0.6097530
552.2765, 0.6042280
552.7586, 0.4695420
553.2407, 0.3300820
553.7228, 0.3604530
554.2050, 0.5766700
554.6871, 0.6629990
555.1692, 0.5413730
555.6513, 0.3952360
556.1334, 0.2309260
556.6155, 0.1084260
557.0977, 0.1272900
557.5798, 0.3293290
558.0619, 0.5488900
558.5440, 0.6405260
559.0261, 0.6254330
559.5082, 0.5753610
559.9904, 0.4933020
560.4725, 0.4044690
560.9546, 0.3125010
561.4367, 0.2302700
561.9188, 0.2063020
562.4009, 0.3079030
562.8831, 0.3839970
563.3652, 0.3762120
563.8473, 0.3086150
564.3294, 0.1894100
564.8115, 3.0035000E-02
565.2936, 8.5139997E-02
565.7758, 6.5606996E-02
566.2579, 8.9230999E-02
566.7400, 0.2362400
567.2221, 0.4086930
567.7042, 0.5296800
568.1863, 0.5956390
568.6685, 0.5964390
569.1506, 0.4770500
569.6327, 0.2403740
570.1148, 4.2041998E-02
570.5969, 8.2160003E-02
571.0790, 0.3129680
571.5612, 0.4212910
572.0433, 0.3658760
572.5254, 0.2954230
573.0075, 0.2763930
573.4896, 0.2927580
573.9717, 0.3292300
574.4539, 0.3986450
574.9360, 0.4376200
575.4181, 0.3884920
575.9002, 0.3038210
576.3823, 0.2574640
576.8644, 0.2562890
577.3466, 0.2729120
577.8287, 0.2957710
578.3108, 0.3145540
578.7929, 0.2781200
579.2750, 2.1457000E-02
579.7571, 7.0184000E-02
580.2393, 0.1754560
580.7214, 0.4812650
581.2035, 0.6383720
581.6856, 0.6360610
582.1677, 0.5765640
582.6498, 0.5261140
583.1320, 0.4868900
583.6141, 0.4851590
584.0962, 0.5568850
584.5783, 0.5395250
585.0604, 0.2972990
585.5425, 1.8451000E-02
586.0247, 0.1554880
586.5068, 0.2207980
586.9889, 0.2038610
587.4710, 4.8671000E-02
587.9531, 0.1384710
588.4352, 0.2329680
588.9174, 0.2416980
589.3995, 0.2173550
589.8816, 0.1781000
590.3637, 0.1494830
590.8458, 0.1873870
591.3279, 0.3404290
591.8101, 0.4181920
592.2922, 0.3459510
592.7743, 0.2733080
593.2564, 0.3111560
593.7385, 0.4022860
594.2206, 0.4190360
594.7028, 0.3025030
595.1849, 0.1323440
595.6670, 3.6908999E-02
596.1491, 2.1245001E-02
596.6312, 4.7359999E-02
597.1133, 0.1560560
597.5955, 0.2477550
598.0776, 0.2638080
598.5597, 0.2404990
599.0418, 0.2148030
599.5239, 0.1958660
600.0060, 0.1959930
600.4882, 0.2273440
600.9703, 0.2828640
601.4524, 0.3552510
601.9345, 0.4446180
602.4166, 0.5138830
602.8987, 0.5242890
603.3809, 0.4809150
603.8630, 0.4583760
604.3451, 0.4993500
604.8272, 0.5034530
605.3093, 0.4191930
605.7914, 0.3098070
606.2736, 0.2304320
606.7557, 0.1918880
607.2378, 0.1778800
607.7199, 0.1686570
608.2020, 0.1748870
608.6841, 0.2696570
609.1663, 0.5096860
609.6484, 0.6738340
610.1305, 0.6428990
610.6126, 0.5451550
611.0947, 0.4889980
611.5768, 0.4769380
612.0590, 0.4520230
612.5411, 0.3827160
613.0232, 0.2928950
613.5053, 0.1706240
613.9874, 4.0803999E-02
614.4695, 3.4986999E-02
614.9517, 0.2286280
615.4338, 0.4829950
615.9159, 0.5632320
616.3980, 0.3934950
616.8801, 0.3061460
617.3622, 0.3853590
617.8444, 0.4471370
618.3265, 0.3632120
618.8086, 0.2258380
619.2907, 0.2062360
619.7728, 0.3640440
620.2549, 0.5524320
620.7371, 0.5611940
621.2192, 0.3994630
621.7013, 0.3093600
622.1834, 0.3287460
622.6655, 0.3588630
623.1476, 0.3302190
623.6298, 0.2815760
624.1119, 0.2679040
624.5940, 0.2910490
625.0761, 0.3335350
625.5582, 0.4427840
626.0403, 0.5370300
626.5225, 0.4603140
627.0046, 0.2349650
627.4867, 8.6064003E-02
627.9688, 0.1767600
628.4509, 0.4109750
628.9330, 0.5165160
629.4152, 0.4194650
629.8973, 0.3244130
630.3794, 0.2195070
630.8615, 0.1342140
631.3436, 8.6268000E-02
631.8257, 7.1345001E-02
632.3079, 7.9184003E-02
632.7900, 9.8134004E-02
633.2721, 0.1298930
633.7542, 0.2108540
634.2363, 0.3291540
634.7184, 0.3616500
635.2006, 0.2629240
635.6827, 0.1385550
636.1648, 6.9839001E-02
636.6469, 5.6873001E-02
637.1291, 7.3248997E-02
637.6112, 0.1617450
638.0933, 0.2302810
638.5754, 0.2096520
639.0576, 0.1607040
639.5397, 0.1560480
640.0218, 0.2027760
640.5039, 0.2571440
640.9860, 0.2813700
641.4681, 0.2871840
641.9503, 0.3315850
642.4324, 0.4429260
642.9145, 0.5197440
643.3966, 0.5267910
643.8787, 0.4899490
644.3608, 0.4297870
644.8430, 0.3554430
645.3251, 0.2865780
645.8072, 0.1919220
646.2893, 0.1230180
646.7714, 0.1514530
647.2535, 0.2547060
647.7357, 0.3785720
648.2178, 0.5117350
648.6999, 0.5958650
649.1820, 0.5534300
649.6641, 0.3763840
650.1462, 0.2376020
650.6284, 0.1203960
651.1105, 5.9411999E-02
651.5926, 9.7995996E-02
652.0747, 0.1745970
652.5568, 0.2377680
653.0389, 0.2752860
653.5211, 0.2909510
654.0032, 0.2964750
654.4853, 0.2828830
654.9674, 0.1869100
655.4495, 9.1720000E-03
655.9316, 0.1182290
656.4138, 4.0998001E-02
656.8959, 0.1064570
657.3780, 0.1777060
657.8601, 0.1763940
658.3422, 0.1541130
658.8243, 8.2272999E-02
659.3065, 2.7357001E-02
659.7886, 3.0576000E-02
660.2707, 7.3770002E-02
660.7528, 0.1426800
661.2349, 0.2260050
661.7170, 0.2767020
662.1992, 0.2212070
662.6813, 6.8172000E-02
663.1634, 3.6936000E-02
663.6455, 0.2030780
664.1276, 0.3418530
664.6097, 0.3701290
665.0919, 0.3465980
665.5740, 0.3060920
666.0561, 0.2537940
666.5382, 0.2209820
667.0203, 0.2361930
667.5024, 0.2635360
667.9846, 0.2734600
668.4667, 0.2661760
668.9488, 0.2347470
669.4309, 0.1735990
669.9130, 0.1311090
670.3951, 0.1823990
670.8773, 0.3480160
671.3594, 0.4398400
671.8415, 0.3985500
672.3236, 0.3567260
672.8057, 0.3157840
673.2878, 0.2852440
673.7700, 0.3030910
674.2521, 0.3672140
674.7342, 0.4162630
675.2163, 0.3893000
675.6984, 0.3205940
676.1805, 0.2712180
676.6627, 0.2417750
677.1448, 0.2549050
677.6269, 0.3352700
678.1090, 0.4233130
678.5911, 0.4292390
679.0732, 0.3312370
679.5554, 0.2735790
680.0375, 0.2930250
680.5196, 0.3102580
681.0017, 0.2793460
681.4838, 0.2344950
681.9659, 0.2212930
682.4481, 0.2482500
682.9302, 0.2882100
683.4123, 0.3362560
683.8944, 0.3732650
684.3765, 0.2873460
684.8586, 4.2165998E-02
685.3408, 9.9133998E-02
685.8229, 1.0890000E-03
686.3050, 0.1923950
686.7871, 0.2915630
687.2692, 0.3042570
687.7513, 0.3094860
688.2335, 0.3578150
688.7156, 0.3604690
689.1977, 0.1727330
689.6798, 5.5571999E-02
690.1619, 4.8872001E-02
690.6440, 0.2332730
691.1262, 0.5348080
691.6083, 0.5864610
692.0904, 0.4310720
692.5725, 0.3821840
693.0546, 0.4835890
693.5367, 0.5706380
694.0189, 0.5927380
694.5010, 0.5727630
694.9831, 0.5212670
695.4652, 0.4443320
695.9473, 0.3846800
696.4294, 0.3875420
696.9116, 0.3789240
697.3937, 0.2849990
697.8758, 0.1500700
698.3579, 4.5453001E-02
698.8400, 8.5920002E-03
699.3221, 4.5500002E-03
699.8043, 7.6007001E-02
700.2864, 0.2173640
700.7685, 0.2998140
701.2506, 0.3109900
701.7327, 0.2892680
702.2148, 0.1788150
702.6970, 8.9582004E-02
703.1791, 0.1054610
703.6612, 0.2086910
704.1433, 0.3214670
704.6254, 0.4500980
705.1075, 0.5314060
705.5897, 0.4686390
706.0718, 0.3299990
706.5539, 0.2576490
707.0360, 0.2775620
707.5181, 0.3422300
708.0002, 0.4220200
708.4824, 0.5051830
708.9645, 0.5327870
709.4466, 0.4915900
709.9287, 0.4188610
710.4108, 0.2843500
710.8929, 0.1517830
711.3751, 4.6897002E-02
711.8572, 2.7013000E-02
712.3393, 6.5314002E-02
712.8214, 6.2091000E-02
713.3035, 3.6251999E-02
713.7856, 1.6980000E-03
714.2678, 5.3893998E-02
714.7499, 9.4485998E-02
715.2320, 0.1183610
715.7141, 0.1533210
716.1962, 0.2220450
716.6783, 0.3058950
717.1605, 0.3495850
717.6426, 0.3483830
718.1247, 0.3143600
718.6068, 0.1733840
719.0889, 7.8635000E-02
719.5710, 0.1454910
720.0532, 0.2922690
720.5353, 0.3728700
721.0174, 0.3385520
721.4995, 0.2793590
721.9816, 0.2838010
722.4637, 0.3086290
722.9459, 0.2455420
723.4280, 9.7792998E-02
723.9101, 1.1805000E-02
724.3922, 2.2707000E-02
724.8743, 3.7209000E-02
725.3564, 0.1233670
725.8386, 0.2603000
726.3207, 0.3351900
726.8028, 0.2751740
727.2849, 0.2399770
727.7670, 0.3531810
728.2491, 0.4792580
728.7313, 0.4175040
729.2134, 0.1385780
729.6955, 0.1064230
730.1776, 0.1077860
730.6597, 2.8411999E-02
731.1418, 0.1729550
731.6240, 0.3134650
732.1061, 0.3829780
732.5882, 0.3524990
733.0703, 0.3076840
733.5524, 0.3665620
734.0345, 0.5393360
734.5167, 0.5838530
734.9988, 0.3317260
735.4809, 0.1708430
735.9631, 0.2620210
736.4452, 0.3890840
736.9273, 0.3261340
737.4094, 0.1086280
737.8915, 5.4660002E-03
738.3737, 0.1810370
738.8558, 0.4423280
739.3379, 0.5478490
739.8200, 0.5212710
740.3021, 0.3934510
740.7842, 0.1726240
741.2664, 3.6079001E-02
741.7485, 0.1559170
742.2306, 0.4523800
742.7127, 0.5219450
743.1948, 0.1333060
743.6769, 6.5990001E-02
744.1591, 9.8990001E-02
744.6412, 0.2997570
745.1233, 0.3772880
745.6054, 0.3606650
746.0875, 0.3293170
746.5696, 0.3076870
747.0518, 0.2766970
747.5339, 0.1862100
748.0160, 9.0902001E-02
748.4981, 0.1145080
748.9802, 0.2380060
749.4623, 0.2902370
749.9445, 0.1758650
750.4266, 9.2409998E-03
750.9087, 8.8656001E-02
751.3908, 4.4282001E-02
751.8729, 2.1725999E-02
752.3550, 0.1442720
752.8372, 0.2426310
753.3193, 0.3031510
753.8014, 0.3216000
754.2835, 0.2661940
754.7656, 0.1379440
755.2477, 6.1790001E-02
755.7299, 0.1441920
756.2120, 0.2639210
756.6941, 0.3186110
757.1762, 0.3166000
757.6583, 0.2634550
758.1404, 0.1648990
758.6226, 8.3896004E-02
759.1047, 8.6432002E-02
759.5868, 0.1597280
760.0689, 0.2158430
760.5510, 0.2441640
761.0331, 0.2840530
761.5153, 0.3708490
761.9974, 0.4426090
762.4795, 0.4625490
762.9616, 0.4327880
763.4437, 0.3540160
763.9258, 0.1701940
764.4080, 3.7593000E-02
764.8901, 7.2105996E-02
765.3722, 0.1722120
765.8543, 0.2267710
766.3364, 0.2321940
766.8185, 0.2343390
767.3007, 0.2583920
767.7828, 0.2880210
768.2649, 0.2937730
768.7470, 0.2748440
769.2291, 0.2532990
769.7112, 0.2298670
770.1934, 0.1937970
770.6755, 0.1251260
771.1576, 5.5854000E-02
771.6397, 3.6348999E-02
772.1218, 6.5789998E-02
772.6039, 0.1263470
773.0861, 0.2408920
773.5682, 0.3583030
774.0503, 0.4772160
774.5324, 0.5704550
775.0145, 0.5986910
775.4966, 0.5568240
775.9788, 0.4698220
776.4609, 0.3336000
776.9430, 0.1903510
777.4251, 0.1637230
777.9072, 0.2500360
778.3893, 0.2858920
778.8715, 0.2208000
779.3536, 0.1473520
779.8357, 0.1495560
780.3178, 0.2147190
780.7999, 0.2558170
781.2820, 0.2399840
781.7642, 0.2473180
782.2463, 0.3200800
782.7284, 0.3841530
783.2105, 0.3805710
783.6926, 0.3315350
784.1747, 0.2974110
784.6569, 0.3039360
785.1390, 0.2816700
785.6211, 0.1028850
786.1032, 0.1228110
786.5853, 0.1388320
787.0674, 3.4908999E-02
787.5496, 0.1362920
788.0317, 5.5815000E-02
788.5138, 8.7219998E-02
788.9959, 0.1389310
789.4780, 9.2237003E-02
789.9601, 5.5038001E-02
790.4423, 3.3491001E-02
790.9244, 1.1522000E-02
791.4065, 1.5628001E-02
791.8886, 5.7170000E-03
792.3707, 0.1402150
792.8528, 0.3549060
793.3350, 0.4646140
793.8171, 0.3386560
794.2992, 0.1875070
794.7813, 0.1300730
795.2634, 0.1326150
795.7455, 0.1535400
796.2277, 0.1873850
796.7098, 0.2421850
797.1919, 0.3271970
797.6740, 0.4110020
798.1561, 0.4262800
798.6382, 0.3703120
799.1204, 0.3138180
799.6025, 0.2508600
800.0846, 0.2178020
800.5667, 0.2542610
801.0488, 0.3160560
801.5309, 0.3096960
802.0131, 0.2297390
802.4952, 0.1826420
802.9773, 0.2103640
803.4594, 0.2354550
803.9415, 0.1861160
804.4236, 0.1377820
804.9058, 0.2142140
805.3879, 0.4066410
805.8700, 0.5581980
806.3521, 0.5528730
806.8342, 0.4652190
807.3163, 0.3845660
807.7985, 0.3176420
808.2806, 0.2946630
808.7627, 0.3180970
809.2448, 0.3804330
809.7269, 0.4833150
810.2090, 0.5975780
810.6912, 0.6381650
811.1733, 0.5742930
811.6554, 0.5102850
812.1375, 0.4344320
812.6196, 0.3726070
813.1017, 0.3220510
813.5839, 0.2971380
814.0660, 0.3361630
814.5481, 0.4471060
815.0302, 0.5163870
815.5123, 0.4485030
815.9944, 0.3651940
816.4766, 0.3769270
816.9587, 0.4394850
817.4408, 0.4609660
817.9229, 0.4266610
818.4050, 0.3999550
818.8871, 0.3126800
819.3693, 0.4747860
819.8514, 0.5679310
820.3335, 0.5958200
820.8156, 0.3629470
821.2977, 0.4668350
821.7798, 0.4357900
822.2620, 0.3992290
822.7441, 0.5505670
823.2262, 0.3557130
823.7083, 0.5041060
824.1904, 0.5155060
824.6725, 0.5896300
825.1547, 0.5280140
825.6368, 0.5084250
826.1189, 0.6247620
826.6010, 0.6659650
827.0831, 0.5889990
827.5652, 0.6674620
828.0474, 0.4683100
828.5295, 0.5128370
829.0116, 0.6625180
829.4937, 0.5925300
829.9758, 0.6736180
830.4579, 0.6971920
830.9401, 0.4593350
831.4222, 0.6761890
831.9043, 0.6964190
832.3864, 0.5147590
832.8685, 0.7160830
833.3506, 0.5622900
833.8328, 0.5352770
834.3149, 0.6036730
834.7971, 0.5726410
835.2792, 0.6984120
835.7613, 0.6731550
836.2434, 0.6344180
836.7255, 0.5361129
837.2076, 0.7022565
837.6898, 0.8041089
838.1719, 0.8451102
838.6540, 0.6430374
839.1361, 0.7548476
839.6182, 0.7408679
840.1003, 0.7217275
840.5825, 0.8777204
841.0646, 0.7110001
841.5467, 0.8642110
842.0288, 0.8897121
842.5109, 0.9736628
842.9930, 0.9310440
843.4752, 0.9275251
843.9573, 1.050606
844.4394, 1.103587
844.9215, 1.046401
845.4036, 1.134067
845.8857, 0.9629251
846.3679, 1.018896
846.8500, 1.172845
847.3321, 1.122023
847.8142, 1.212003
848.2963, 1.248358
848.7784, 1.041005
849.2606, 1.257488
849.7427, 1.290671
850.2248, 1.135657
850.7069, 1.337612
851.1890, 1.208543
851.6711, 1.197627
852.1533, 1.275638
852.6354, 1.260946
853.1175, 1.195181
853.5996, 1.043729
854.0817, 0.9524190
854.5638, 0.9220670
855.0460, 0.9871270
855.5281, 1.135504
856.0102, 1.238491
856.4923, 1.244272
856.9744, 1.188812
857.4565, 1.110952
857.9387, 1.012510
858.4208, 0.9393300
858.9029, 0.8977600
859.3850, 0.8684970
859.8671, 0.8616170
860.3492, 0.8511190
860.8314, 0.7759900
861.3135, 0.6843040
861.7956, 0.7281040
862.2777, 1.029526
862.7598, 1.213097
863.2419, 1.099421
863.7241, 0.9180970
864.2062, 0.7950090
864.6883, 0.7248490
865.1704, 0.6742530
865.6525, 0.6353060
866.1346, 0.6272870
866.6168, 0.7017490
867.0989, 0.7870110
867.5810, 0.7475900
868.0631, 0.6207170
868.5452, 0.5286780
869.0273, 0.4971600
869.5095, 0.5165060
869.9916, 0.5798820
870.4737, 0.6584720
870.9558, 0.6572040
871.4379, 0.5540850
871.9200, 0.5001640
872.4022, 0.5249350
872.8843, 0.5415480
873.3664, 0.4767270
873.8485, 0.4100570
874.3306, 0.5091510
874.8127, 0.7872890
875.2949, 0.8788390
875.7770, 0.5712130
876.2591, 0.3192320
876.7412, 0.2896510
877.2233, 0.3411040
877.7054, 0.3715680
878.1876, 0.3678150
878.6697, 0.3321440
879.1518, 0.2555860
879.6339, 0.1926670
880.1160, 0.1992000
880.5981, 0.2380040
881.0803, 0.2446040
881.5624, 0.2351000
882.0445, 0.2958290
882.5266, 0.4549240
883.0087, 0.6018670
883.4908, 0.6009970
883.9730, 0.4789280
884.4551, 0.3206500
884.9372, 0.1296350
885.4193, 0.1244150
885.9014, 0.4065750
886.3835, 0.6520240
886.8657, 0.6076480
887.3478, 0.3860400
887.8299, 0.3024850
888.3120, 0.4376020
888.7941, 0.4956410
889.2762, 0.4143780
889.7584, 0.3349620
890.2405, 0.2923330
890.7226, 0.2763520
891.2047, 0.2957500
891.6868, 0.3397590
892.1689, 0.3350280
892.6511, 0.2017800
893.1332, 8.9674003E-02
893.6153, 0.1059730
894.0974, 0.1583800
894.5795, 0.1285820
895.0616, 4.5281000E-02
895.5438, 1.9160001E-02
896.0259, 9.5652997E-02
896.5080, 0.2149270
896.9901, 0.3836370
897.4722, 0.5222300
897.9543, 0.3694020
898.4365, 1.3846000E-02
898.9186, 0.2787740
899.4007, 0.3272240
899.8828, 0.2195920
900.3649, 1.9934000E-02
900.8470, 0.3263870
901.3292, 0.4518070
901.8113, 0.3547040
902.2934, 0.2787340
902.7755, 0.2443470
903.2576, 0.2266380
903.7397, 0.2211650
904.2219, 0.2183540
904.7040, 0.2080320
905.1861, 0.1920470
905.6682, 0.1541560
906.1503, 2.0150000E-02
906.6324, 3.7921000E-02
907.1146, 8.7100998E-02
907.5967, 0.2481570
908.0788, 0.3531680
908.5609, 0.3890280
909.0430, 0.3373250
909.5251, 0.1609950
910.0073, 2.3977000E-02
910.4894, 4.4052001E-02
910.9715, 0.1298200
911.4536, 0.2159410
911.9357, 0.2876480
912.4178, 0.3312780
912.9000, 0.3429300
913.3821, 0.3221910
913.8642, 0.2603250
914.3463, 0.1801190
914.8284, 0.1003320
915.3105, 3.6575999E-02
915.7927, 9.3047000E-02
916.2748, 0.2779630
916.7569, 0.4111210
917.2390, 0.3891980
917.7211, 0.2863260
918.2032, 0.2195840
918.6854, 0.1898510
919.1675, 0.1902360
919.6496, 0.2345430
920.1317, 0.2649640
920.6138, 0.2595260
921.0959, 0.2459080
921.5781, 0.2362840
922.0602, 0.2376030
922.5423, 0.2859210
923.0244, 0.4079440
923.5065, 0.5254130
923.9886, 0.7108560
924.4708, 0.8056140
924.9529, 0.6883080
925.4350, 0.4704620
925.9171, 0.2461370
926.3992, 4.5717999E-02
926.8813, 1.6068000E-02
927.3635, 0.2571590
927.8456, 0.5007450
928.3277, 0.4238360
928.8098, 0.2641450
929.2919, 0.3423060
929.7740, 0.5828990
930.2562, 0.6818100
930.7383, 0.5153400
931.2204, 0.3080390
931.7025, 0.2953090
932.1846, 0.3960990
932.6667, 0.4523900
933.1489, 0.4414400
933.6310, 0.3534460
934.1132, 0.1929920
934.5953, 8.1726000E-02
935.0774, 0.1156870
935.5595, 0.2389470
936.0416, 0.3320140
936.5237, 0.3950340
937.0059, 0.4346070
937.4880, 0.4489330
937.9701, 0.4538970
938.4522, 0.4713480
938.9343, 0.4416160
939.4164, 0.2684370
939.8986, 3.1068999E-02
940.3807, 0.2020090
940.8628, 0.2267600
941.3449, 0.1558960
941.8270, 0.1061260
942.3091, 0.3458520
942.7913, 0.4540420
943.2734, 0.4673190
943.7555, 0.4325540
944.2376, 0.3466670
944.7197, 0.2617270
945.2018, 0.1279090
945.6840, 6.9964997E-02
946.1661, 0.2229310
946.6482, 0.4019170
947.1303, 0.4078090
947.6124, 0.2897320
948.0945, 0.2417560
948.5767, 0.3399270
949.0588, 0.4587800
949.5409, 0.5440340
950.0230, 0.5926570
950.5051, 0.5883750
950.9872, 0.5506780
951.4694, 0.5198430
951.9515, 0.5012170
952.4336, 0.4596430
952.9157, 0.3416630
953.3978, 0.2220800
953.8799, 0.2179820
954.3621, 0.2944250
954.8442, 0.3684140
955.3263, 0.4301700
955.8084, 0.4742700
956.2905, 0.4967960
956.7726, 0.4836160
957.2548, 0.4452910
957.7369, 0.3984400
958.2190, 0.3889510
958.7011, 0.4052850
959.1832, 0.3753920
959.6653, 0.2787760
960.1475, 0.1770910
960.6296, 8.9832000E-02
961.1117, 5.2067000E-02
961.5938, 0.1491140
962.0759, 0.4099550
962.5580, 0.5166780
963.0402, 0.3795960
963.5223, 0.2751760
964.0044, 0.2599110
964.4865, 0.2941360
964.9686, 0.4080720
965.4507, 0.5488170
965.9329, 0.5555120
966.4150, 0.3622760
966.8971, 0.2138960
967.3792, 0.1273950
967.8613, 8.6692996E-02
968.3434, 9.7002998E-02
968.8256, 0.1432950
969.3077, 0.2222450
969.7898, 0.3256110
970.2719, 0.4287480
970.7540, 0.5517580
971.2361, 0.6158480
971.7183, 0.5537020
972.2004, 0.4540260
972.6825, 0.3653770
973.1646, 0.2968250
973.6467, 0.2634360
974.1288, 0.2614400
974.6110, 0.2517780
975.0931, 0.2034340
975.5752, 0.1521950
976.0573, 0.1258410
976.5394, 0.1208690
977.0215, 0.1432240
977.5037, 0.1816110
977.9858, 0.1970550
978.4679, 0.1784190
978.9500, 0.1740550
979.4321, 0.2469910
979.9142, 0.3501670
980.3964, 0.4011950
980.8785, 0.4006300
981.3606, 0.3183220
981.8427, 0.1641410
982.3248, 6.2595002E-02
982.8069, 8.1029996E-02
983.2891, 0.1725350
983.7712, 0.3037400
984.2533, 0.4495610
984.7354, 0.3681170
985.2175, 5.3622998E-02
985.6996, 4.4390000E-03
986.1818, 0.3753360
986.6639, 0.7033240
987.1460, 0.6482580
987.6281, 0.3656300
988.1102, 0.2101300
988.5923, 0.2067420
989.0745, 0.1134740
989.5566, 0.1586970
990.0387, 0.2309500
990.5208, 0.1278960
991.0029, 0.4977820
991.4850, 0.4676200
991.9672, 0.1600890
992.4493, 5.9865002E-02
992.9314, 0.3211070
993.4135, 0.4216710
993.8956, 0.2127260
994.3777, 4.2133000E-02
994.8599, 5.7721999E-02
995.3420, 0.1286540
995.8241, 0.1357960
996.3062, 8.8224001E-02
996.7883, 4.8223000E-02
997.2704, 2.2874000E-02
997.7526, 1.4185000E-02
998.2347, 0.1997960
998.7168, 0.3722200
999.1989, 0.3459420
999.6810, 0.2439410
1000.163, 0.1976980
1000.645, 0.2134670
1001.127, 0.2105650
1001.609, 0.1418320
1002.092, 8.7608002E-02
1002.574, 7.4367002E-02
1003.056, 9.2891000E-02
1003.538, 0.1469520
1004.020, 0.2247140
1004.502, 0.3263630
1004.984, 0.4402720
1005.466, 0.4851670
1005.949, 0.3786160
1006.431, 0.2445050
1006.913, 0.1529340
1007.395, 9.9143997E-02
1007.877, 0.1095120
1008.359, 0.1469210
1008.841, 0.1062490
1009.323, 3.2968000E-02
1009.805, 0.1290380
1010.288, 4.2578999E-02
1010.770, 0.1090050
1011.252, 0.1888580
1011.734, 0.2285080
1012.216, 0.2988280
1012.698, 0.3877200
1013.180, 0.4132220
1013.662, 0.3444250
1014.145, 0.2607580
1014.627, 0.2444730
1015.109, 0.2673000
1015.591, 0.2722080
1016.073, 0.2677100
1016.555, 0.2714680
1017.037, 0.1577310
1017.519, 0.3140410
1018.001, 0.4013670
1018.484, 0.4234980
1018.966, 0.1846750
1019.448, 0.2826480
1019.930, 0.2457470
1020.412, 0.2033060
1020.894, 0.3487420
1021.376, 0.1479650
1021.858, 0.2904160
1022.341, 0.2958690
1022.823, 0.3640230
1023.305, 0.2963900
1023.787, 0.2706910
1024.269, 0.3808180
1024.751, 0.4157310
1025.233, 0.3322920
1025.715, 0.4040840
1026.198, 0.1982650
1026.680, 0.2362810
1027.162, 0.3795050
1027.644, 0.3030380
1028.126, 0.3776230
1028.608, 0.3946750
1029.090, 0.1502700
1029.572, 0.3605560
1030.054, 0.3741970
1030.536, 0.1859300
1031.019, 0.2619730
1031.501, 0.3119980
1031.983, 0.3101910
1032.465, 0.2437680
1032.947, 0.2325820
1033.429, 0.3138000
1033.911, 0.3462090
1034.393, 0.2571220
1034.876, 0.1904430
1035.358, 0.2725400
1035.840, 0.4339570
1036.322, 0.5172000
1036.804, 0.5134290
1037.286, 0.4276350
1037.768, 0.1603670
1038.250, 7.8809997E-03
1038.733, 2.7050000E-02
1039.215, 0.1248430
1039.697, 0.1982330
1040.179, 0.2560470
1040.661, 0.3264640
1041.143, 0.4292160
1041.625, 0.4885540
1042.107, 0.4549430
1042.589, 0.4267690
1043.072, 0.4584150
1043.554, 0.4646180
1044.036, 0.3436380
1044.518, 0.1630060
1045.000, 0.1070000
1045.482, 0.2344380
1045.964, 0.2715690
1046.446, 8.5357003E-02
1046.928, 3.8079001E-02
1047.411, 2.0719999E-03
1047.893, 8.3903000E-02
1048.375, 0.1748080
1048.857, 0.2488420
1049.339, 0.3105020
1049.821, 0.3722720
1050.303, 0.3596310
1050.785, 0.1550910
1051.268, 1.6045000E-02
1051.750, 9.5018998E-02
1052.232, 0.2057910
1052.714, 0.1576090
1053.196, 4.1129000E-02
1053.678, 9.5127001E-02
1054.160, 0.3905350
1054.642, 0.5633130
1055.125, 0.4210270
1055.607, 0.2801630
1056.089, 0.2758670
1056.571, 0.3020180
1057.053, 0.2544910
1057.535, 0.1734580
1058.017, 0.1642920
1058.499, 0.2527430
1058.981, 0.3316150
1059.464, 0.3866520
1059.946, 0.4021020
1060.428, 0.3179810
1060.910, 0.2400610
1061.392, 0.2599880
1061.874, 0.3534160
1062.356, 0.4929270
1062.838, 0.6796520
1063.320, 0.7206600
1063.803, 0.3932710
1064.285, 0.1047110
1064.767, 3.8812999E-02
1065.249, 8.5415997E-02
1065.731, 0.2153930
1066.213, 0.3609070
1066.695, 0.3985540
1067.177, 0.3048460
1067.660, 0.2295950
1068.142, 0.2511540
1068.624, 0.3052230
1069.106, 0.4113970
1069.588, 0.4892770
1070.070, 0.4491520
1070.552, 0.3420020
1071.034, 0.2568920
1071.516, 0.2075150
1071.999, 0.1714680
1072.481, 0.1058410
1072.963, 9.5123999E-02
1073.445, 0.2650080
1073.927, 0.4321490
1074.409, 0.4114770
1074.891, 0.2807170
1075.373, 0.1259330
1075.855, 7.4530002E-03
1076.338, 1.6104000E-02
1076.820, 0.2732300
1077.302, 0.5117030
1077.784, 0.4955510
1078.266, 0.3970510
1078.748, 0.3118860
1079.230, 0.2551670
1079.712, 0.2404380
1080.195, 0.2633000
1080.677, 0.2930080
1081.159, 0.3301310
1081.641, 0.3458750
1082.123, 0.3014190
1082.605, 0.2566560
1083.087, 0.2340500
1083.569, 0.2513730
1084.052, 0.3677330
1084.534, 0.5514970
1085.016, 0.6446090
1085.498, 0.5752520
1085.980, 0.4658910
1086.462, 0.3354030
1086.944, 0.2207960
1087.426, 0.1404410
1087.908, 9.3356997E-02
1088.391, 8.1448004E-02
1088.873, 0.1004740
1089.355, 0.1447900
1089.837, 0.2226970
1090.319, 0.2804490
1090.801, 0.2660770
1091.283, 0.2622960
1091.765, 0.3875320
1092.248, 0.4886690
1092.730, 0.3261560
1093.212, 1.7834000E-02
1093.694, 7.1662001E-02
1094.176, 0.1758340
1094.658, 0.3579970
1095.140, 0.2803870
1095.622, 0.1734100
1096.104, 0.1178000
1096.587, 9.7914003E-02
1097.069, 0.1309890
1097.551, 0.1748340
1098.033, 0.1196180
1098.515, 6.0300000E-02
1098.997, 0.1224350
1099.479, 0.1078360
1099.961, 0.3187270
1100.443, 0.4251080
1100.926, 0.4748360
1101.408, 0.4795820
1101.890, 0.4586460
1102.372, 0.4290960
1102.854, 0.3950580
1103.336, 0.3848060
1103.818, 0.4290260
1104.300, 0.4616920
1104.783, 0.4686340
1105.265, 0.4599600
1105.747, 0.4126870
1106.229, 0.3676070
1106.711, 0.3803320
1107.193, 0.4469260
1107.675, 0.5176210
1108.157, 0.6349750
1108.640, 0.6619100
1109.122, 0.5369520
1109.604, 0.3735780
1110.086, 0.1387470
1110.568, 5.2138999E-02
1111.050, 6.4482003E-02
1111.532, 6.2019002E-02
1112.014, 0.1718980
1112.496, 0.2733350
1112.979, 0.3165660
1113.461, 0.2558080
1113.943, 0.1960780
1114.425, 0.1541170
1114.907, 0.1328910
1115.389, 0.1283050
1115.871, 0.1387200
1116.353, 0.1910690
1116.835, 0.3098130
1117.318, 0.3312800
1117.800, 0.1509860
1118.282, 7.2733998E-02
1118.764, 0.2359570
1119.246, 0.3615200
1119.728, 0.2497280
1120.210, 5.5794001E-02
1120.692, 2.9054999E-02
1121.175, 0.1647220
1121.657, 0.2053750
1122.139, 5.4251999E-02
1122.621, 0.1055200
1123.103, 0.5326580
1123.585, 0.8038550
1124.067, 0.6304850
1124.549, 0.3296400
1125.031, 0.2501110
1125.514, 0.3452370
1125.996, 0.4075310
1126.478, 0.4477740
1126.960, 0.3743500
1127.442, 0.1437900
1127.924, 1.5033000E-02
1128.406, 3.5014000E-02
1128.888, 6.2015001E-02
1129.370, 0.2991640
1129.853, 0.5453550
1130.335, 0.4351180
1130.817, 3.0175000E-02
1131.299, 0.1267770
1131.781, 0.1691140
1132.263, 0.2630810
1132.745, 2.0827999E-02
1133.227, 0.1509580
1133.710, 9.9809999E-03
1134.192, 0.2595640
1134.674, 0.4115100
1135.156, 0.4550660
1135.638, 0.3974320
1136.120, 0.2578360
1136.602, 0.1752860
1137.084, 0.1677260
1137.567, 0.2608230
1138.049, 0.4608250
1138.531, 0.6265350
1139.013, 0.6199750
1139.495, 0.5016450
1139.977, 0.3438400
1140.459, 0.1834290
1140.941, 0.1214800
1141.423, 0.1556970
1141.906, 0.2893780
1142.388, 0.4968560
1142.870, 0.6284390
1143.352, 0.5874930
1143.834, 0.4591770
1144.316, 0.2810140
1144.798, 0.1277660
1145.280, 0.1632630
1145.762, 0.2886430
1146.245, 0.2589270
1146.727, 0.1123470
1147.209, 0.1356080
1147.691, 0.4377500
1148.173, 0.7074560
1148.655, 0.6852640
1149.137, 0.5579280
1149.619, 0.4458640
1150.102, 0.3536650
1150.584, 0.2701620
1151.066, 0.2174180
1151.548, 0.2529870
1152.030, 0.3818400
1152.512, 0.4937990
1152.994, 0.5691700
1153.476, 0.5633380
1153.958, 0.3490290
1154.441, 0.1614630
1154.923, 0.2406450
1155.405, 0.3789010
1155.887, 0.2686420
1156.369, 2.5397001E-02
1156.851, 0.1647160
1157.333, 4.4202998E-02
1157.815, 0.1160740
1158.297, 0.3786810
1158.780, 0.5271400
1159.262, 0.3811350
1159.744, 0.2085590
1160.226, 0.1903100
1160.708, 0.2833400
1161.190, 0.4438040
1161.672, 0.6849350
1162.154, 0.7133380
1162.637, 0.3179090
1163.119, 0.1118950
1163.601, 0.2305940
1164.083, 0.3843050
1164.565, 0.4782910
1165.047, 0.5246310
1165.529, 0.5342330
1166.011, 0.5079750
1166.494, 0.4366390
1166.976, 0.2919300
1167.458, 0.2559990
1167.940, 0.3566340
1168.422, 0.4321370
1168.904, 0.4491250
1169.386, 0.4499970
1169.868, 0.4584050
1170.350, 0.4486000
1170.833, 0.3729520
1171.315, 0.2426390
1171.797, 0.1032210
1172.279, 3.7354000E-02
1172.761, 7.8639999E-02
1173.243, 1.6081000E-02
1173.725, 6.1087001E-02
1174.207, 0.1173680
1174.689, 0.1441340
1175.172, 0.1213910
1175.654, 0.1019520
1176.136, 0.2119870
1176.618, 0.3787750
1177.100, 0.4298770
1177.582, 0.3890990
1178.064, 0.3527780
1178.546, 0.3288370
1179.029, 0.2794430
1179.511, 0.1960530
1179.993, 0.1213310
1180.475, 7.0188001E-02
1180.957, 6.8318002E-02
1181.439, 0.1689350
1181.921, 0.3124990
1182.403, 0.4443550
1182.885, 0.5494120
1183.368, 0.6216740
1183.850, 0.6569820
1184.332, 0.6347900
1184.814, 0.5291540
1185.296, 0.3968960
1185.778, 0.1974980
1186.260, 4.8379999E-02
1186.742, 5.1879998E-02
1187.225, 0.1230280
1187.707, 0.1923410
1188.189, 0.2470450
1188.671, 0.2590020
1189.153, 0.2017160
1189.635, 0.1966110
1190.117, 0.3091570
1190.599, 0.3598500
1191.082, 0.2608260
1191.564, 0.1785550
1192.046, 0.1871430
1192.528, 0.2390200
1193.010, 0.2733160
1193.492, 0.2970400
1193.974, 0.3858680
1194.456, 0.5748270
1194.938, 0.6306440
1195.421, 0.5191280
1195.903, 0.4033010
1196.385, 0.3267890
1196.867, 0.2985980
1197.349, 0.3328000
1197.831, 0.3868800
1198.313, 0.3696930
1198.795, 0.3061020
1199.277, 0.3417370
1199.760, 0.4479890
1200.242, 0.4722010
1200.724, 0.4028630
1201.206, 0.2918620
1201.688, 0.1656400
1202.170, 8.0633000E-02
1202.652, 8.6491004E-02
1203.134, 0.1488780
1203.617, 0.2576490
1204.099, 0.3695280
1204.581, 0.4252370
1205.063, 0.4342610
1205.545, 0.4014470
1206.027, 0.3462290
1206.509, 0.3210230
1206.991, 0.3462650
1207.474, 0.3821530
1207.956, 0.4329400
1208.438, 0.4556560
1208.920, 0.4238040
1209.402, 0.3592530
1209.884, 0.2395270
1210.366, 0.1214140
1210.848, 7.7361003E-02
1211.330, 0.1140580
1211.813, 0.2365140
1212.295, 0.5956630
1212.777, 0.7309890
1213.259, 0.4647340
1213.741, 0.2513040
1214.223, 0.2154770
1214.705, 0.2319720
1215.187, 0.2468720
1215.669, 0.2606800
1216.152, 0.2780920
1216.634, 0.2980850
1217.116, 0.2803400
1217.598, 0.2172540
1218.080, 0.2329970
1218.562, 0.3463770
1219.044, 0.3687360
1219.526, 0.2337010
1220.009, 0.1053990
1220.491, 0.1049730
1220.973, 0.1897710
1221.455, 0.3170460
1221.937, 0.4469120
1222.419, 0.4387090
1222.901, 0.3569600
1223.383, 0.4310590
1223.865, 0.6145100
1224.348, 0.5794810
1224.830, 0.2382740
1225.312, 7.9490002E-03
1225.794, 0.1786230
1226.276, 0.4296710
1226.758, 0.4851600
1227.240, 0.4573670
1227.722, 0.3902210
1228.204, 0.3389330
1228.687, 0.3934090
1229.169, 0.5186920
1229.651, 0.5793280
1230.133, 0.5362870
1230.615, 0.4901950
1231.097, 0.4608480
1231.579, 0.4461380
1232.061, 0.4865630
1232.544, 0.4887030
1233.026, 0.3774740
1233.508, 0.2467240
1233.990, 0.2170540
1234.472, 0.2494600
1234.954, 0.1546700
1235.436, 0.1207630
1235.918, 0.1181440
1236.401, 0.1982270
1236.883, 0.3992650
1237.365, 0.3916970
1237.847, 0.3546210
1238.329, 0.3804660
1238.811, 0.4098070
1239.293, 0.3707530
1239.775, 0.2948630
1240.257, 0.2270500
1240.740, 0.1824410
1241.222, 0.2024290
1241.704, 0.2751200
1242.186, 0.3934300
1242.668, 0.5279920
1243.150, 0.5678980
1243.632, 0.4572780
1244.114, 0.3572260
1244.596, 0.4104040
1245.079, 0.4628310
1245.561, 0.3886160
1246.043, 0.3017280
1246.525, 0.3256800
1247.007, 0.3855550
1247.489, 0.3550890
1247.971, 0.2382040
1248.453, 0.1318380
1248.936, 6.2350002E-03
1249.418, 3.2110000E-03
1249.900, 0.1875800
1250.382, 0.3330010
1250.864, 0.3606750
1251.346, 0.3906030
1251.828, 0.5108950
1252.310, 0.6152170
1252.792, 0.5473160
1253.275, 0.3601190
1253.757, 0.2820530
1254.239, 0.3011990
1254.721, 0.2691200
1255.203, 0.1884030
1255.685, 0.1457720
1256.167, 0.1594280
1256.649, 0.2042010
1257.131, 0.2754110
1257.614, 0.3396880
1258.096, 0.3667880
1258.578, 0.3722880
1259.060, 0.3744170
1259.542, 0.3659620
1260.024, 0.3275490
1260.506, 0.2769140
1260.988, 0.2395990
1261.471, 0.2210640
1261.953, 0.1873200
1262.435, 0.2230230
1262.917, 0.2438010
1263.399, 0.1881000
1263.881, 0.1879920
1264.363, 0.3590240
1264.845, 0.4956700
1265.328, 0.4777870
1265.810, 0.3911540
1266.292, 0.3100490
1266.774, 0.2541530
1267.256, 0.3308800
1267.738, 0.5677950
1268.220, 0.6298870
1268.702, 0.5037530
1269.184, 0.3685810
1269.667, 0.2466910
1270.149, 0.1439030
1270.631, 6.2762998E-02
1271.113, 2.5015000E-02
1271.595, 6.4121000E-02
1272.077, 0.1238750
1272.559, 8.2764998E-02
1273.041, 3.9818000E-02
1273.523, 0.2248330
1274.006, 0.4762630
1274.488, 0.4653010
1274.970, 0.2445600
1275.452, 0.1055540
1275.934, 0.1260760
1276.416, 0.1324150
1276.898, 9.8689999E-03
1277.380, 6.8595000E-02
1277.863, 9.8880999E-02
1278.345, 0.2641760
1278.827, 0.3001990
1279.309, 0.3039310
1279.791, 0.3498280
1280.273, 0.4356730
1280.755, 0.5317550
1281.237, 0.6452180
1281.719, 0.6221810
1282.202, 0.4523440
1282.684, 0.2003660
1283.166, 7.6040000E-02
1283.648, 2.7551999E-02
1284.130, 6.1108999E-02
1284.612, 9.0369001E-02
1285.094, 5.2142002E-02
1285.576, 1.6771000E-02
1286.059, 5.0992001E-02
1286.541, 0.1045230
1287.023, 8.3942004E-02
1287.505, 0.0000000E+00
##END=



