##NAMES=Coronadite
##RRUFFID=R070320
##IDEAL CHEMISTRY=Pb^2+^(Mn^4+^_6_Mn^3+^_2_)O_16_
##LOCALITY=Broken Hill, New South Wales, Australia
##OWNER=RRUFF
##SOURCE=James Shigley
##DESCRIPTION=Dark gray fine-grained aggregate, some thin acicular crystals lining cracks in the rock
##STATUS=The identification of this mineral is not yet confirmed.
##URL=rruff.info/R070320
182.7303, 0.0000000E+00
183.2124, 9.160889
183.6946, 0.2712400
184.1767, 0.7463380
184.6588, 21.06445
185.1409, 37.43921
185.6230, 42.71802
186.1051, 41.56714
186.5873, 39.18286
187.0694, 37.85278
187.5515, 36.94263
188.0336, 34.43896
188.5157, 27.38843
188.9978, 24.07251
189.4800, 30.13184
189.9621, 38.69653
190.4442, 42.47021
190.9263, 37.34399
191.4084, 26.78320
191.8905, 18.53784
192.3727, 10.87720
192.8548, 9.360107
193.3369, 18.35596
193.8190, 31.17383
194.3011, 42.32568
194.7832, 49.69067
195.2654, 52.98901
195.7475, 50.41797
196.2296, 35.36279
196.7117, 27.14136
197.1938, 36.07153
197.6759, 51.11084
198.1581, 55.49902
198.6402, 51.42139
199.1223, 43.41626
199.6044, 40.06982
200.0865, 44.21753
200.5686, 47.55811
201.0508, 48.92310
201.5329, 49.62256
202.0150, 51.36646
202.4971, 54.41431
202.9792, 56.51074
203.4613, 53.36499
203.9435, 41.23999
204.4256, 32.29858
204.9077, 29.54541
205.3898, 27.93799
205.8719, 22.31958
206.3540, 12.45654
206.8362, 4.083740
207.3183, 6.678223
207.8004, 27.61157
208.2825, 40.50293
208.7646, 43.37891
209.2467, 40.79712
209.7289, 33.58960
210.2110, 22.77002
210.6931, 10.51660
211.1752, 1.861084
211.6573, 16.76587
212.1395, 22.26758
212.6216, 10.38892
213.1037, 3.369141
213.5858, 11.23120
214.0679, 13.40479
214.5500, 15.12915
215.0322, 22.37061
215.5143, 36.79932
215.9964, 45.31665
216.4785, 45.49976
216.9606, 42.17896
217.4427, 33.72119
217.9249, 22.69556
218.4070, 14.89062
218.8891, 15.66772
219.3712, 25.29004
219.8533, 33.84595
220.3354, 43.91138
220.8176, 50.20361
221.2997, 47.09131
221.7818, 39.04663
222.2639, 35.67920
222.7460, 45.18701
223.2281, 65.47339
223.7103, 72.91431
224.1924, 51.62427
224.6745, 34.07935
225.1566, 28.38086
225.6387, 30.35107
226.1208, 33.12500
226.6030, 32.61963
227.0851, 30.25781
227.5672, 32.35327
228.0493, 45.76807
228.5314, 54.27344
229.0135, 52.23291
229.4957, 45.21289
229.9778, 39.79175
230.4599, 38.99097
230.9420, 40.47900
231.4241, 38.03369
231.9062, 27.25049
232.3884, 20.24072
232.8705, 20.95508
233.3526, 24.21118
233.8347, 25.21094
234.3168, 22.42871
234.7989, 18.32324
235.2811, 17.59619
235.7632, 22.86353
236.2453, 25.21191
236.7274, 17.72778
237.2095, 11.65723
237.6916, 18.18604
238.1738, 37.82349
238.6559, 57.71606
239.1380, 59.22339
239.6201, 34.65259
240.1022, 20.33228
240.5843, 26.71362
241.0665, 35.87305
241.5486, 39.02490
242.0307, 36.33740
242.5128, 33.36865
242.9949, 36.00220
243.4770, 44.85767
243.9592, 51.99414
244.4413, 58.52344
244.9234, 61.99634
245.4055, 60.47046
245.8876, 54.99585
246.3697, 48.18311
246.8519, 41.51489
247.3340, 35.02490
247.8161, 28.73950
248.2982, 17.30444
248.7803, 14.03882
249.2624, 32.19287
249.7446, 59.32642
250.2267, 74.00806
250.7088, 61.30957
251.1909, 32.65625
251.6730, 22.44824
252.1551, 38.75635
252.6373, 55.75366
253.1194, 69.53833
253.6015, 78.39062
254.0836, 78.53125
254.5657, 67.17847
255.0478, 52.12744
255.5300, 47.39648
256.0121, 56.88208
256.4942, 61.98145
256.9763, 49.12329
257.4584, 34.60034
257.9406, 32.16333
258.4227, 45.04346
258.9048, 60.58374
259.3869, 64.95850
259.8690, 57.64941
260.3511, 51.10767
260.8333, 47.42407
261.3154, 45.47485
261.7975, 44.08179
262.2796, 43.29736
262.7617, 44.28516
263.2438, 48.01245
263.7260, 54.30225
264.2081, 62.68408
264.6902, 75.47070
265.1723, 86.57715
265.6544, 92.94189
266.1365, 94.66943
266.6187, 91.68994
267.1008, 75.58276
267.5829, 55.25830
268.0650, 53.78784
268.5471, 77.47021
269.0292, 101.0291
269.5114, 102.7651
269.9935, 92.46777
270.4756, 86.63867
270.9577, 92.62085
271.4398, 101.1648
271.9219, 101.2659
272.4041, 92.65723
272.8862, 84.64331
273.3683, 81.92773
273.8504, 82.78149
274.3325, 83.72754
274.8146, 85.38623
275.2968, 85.72290
275.7789, 83.10815
276.2610, 77.95166
276.7431, 71.11133
277.2252, 61.06421
277.7073, 52.06201
278.1895, 51.84839
278.6716, 61.59033
279.1537, 71.91455
279.6358, 81.46875
280.1179, 88.96191
280.6000, 90.78271
281.0822, 85.37085
281.5643, 78.94556
282.0464, 81.07642
282.5285, 93.08081
283.0106, 97.96240
283.4927, 85.40454
283.9749, 69.63257
284.4570, 64.04858
284.9391, 69.39795
285.4212, 78.06787
285.9033, 84.19360
286.3854, 87.72607
286.8676, 91.26782
287.3497, 98.29590
287.8318, 102.0215
288.3139, 96.73755
288.7960, 85.22534
289.2781, 75.03320
289.7603, 70.47217
290.2424, 70.16162
290.7245, 68.44995
291.2066, 60.55396
291.6887, 57.19678
292.1708, 67.99805
292.6530, 81.37695
293.1351, 79.55640
293.6172, 56.66919
294.0993, 26.71899
294.5814, 15.17896
295.0635, 36.73926
295.5457, 49.61426
296.0278, 48.18506
296.5099, 42.77539
296.9920, 39.73608
297.4741, 40.20557
297.9562, 42.60254
298.4384, 45.36475
298.9205, 48.45508
299.4026, 52.28052
299.8847, 64.89404
300.3668, 70.24976
300.8489, 56.23462
301.3311, 30.57471
301.8131, 9.506836
302.2953, 3.838135
302.7774, 11.19019
303.2595, 19.71533
303.7416, 30.73657
304.2237, 40.97144
304.7058, 48.16968
305.1880, 54.99048
305.6701, 67.36719
306.1522, 87.95483
306.6343, 105.5603
307.1164, 98.23022
307.5985, 57.63379
308.0807, 23.25171
308.5628, 0.9494630
309.0449, 14.32300
309.5270, 11.68384
310.0091, 5.958252
310.4912, 26.81665
310.9734, 41.58984
311.4555, 50.68530
311.9376, 58.72437
312.4197, 68.96313
312.9018, 73.30054
313.3839, 63.26221
313.8661, 43.80347
314.3482, 27.94312
314.8303, 22.64600
315.3124, 24.03101
315.7945, 26.19165
316.2766, 29.44067
316.7588, 31.43286
317.2409, 27.86206
317.7230, 23.32788
318.2051, 26.47412
318.6872, 43.50488
319.1693, 59.17310
319.6515, 59.43457
320.1336, 47.64380
320.6157, 39.65137
321.0978, 42.63867
321.5799, 48.83911
322.0620, 44.92065
322.5442, 29.80542
323.0263, 14.94775
323.5084, 1.026855
323.9905, 13.06030
324.4726, 10.98779
324.9547, 6.795166
325.4369, 24.70459
325.9190, 26.07715
326.4011, 8.737549
326.8832, 2.872803
327.3653, 20.42139
327.8474, 38.02173
328.3296, 41.21729
328.8117, 33.14624
329.2938, 25.18994
329.7759, 24.14697
330.2580, 28.08789
330.7401, 28.30273
331.2223, 17.89136
331.7044, 12.32690
332.1865, 17.79663
332.6686, 26.78027
333.1507, 31.29932
333.6328, 28.91211
334.1150, 22.38965
334.5971, 14.76709
335.0792, 2.515869
335.5613, 0.6791990
336.0434, 16.96509
336.5255, 32.19727
337.0077, 29.75732
337.4898, 13.26440
337.9719, 2.394531
338.4540, 4.490479
338.9361, 4.976074
339.4182, 7.499512
339.9004, 3.119873
340.3825, 11.64380
340.8646, 14.06860
341.3467, 11.97998
341.8288, 6.993896
342.3109, 0.5727540
342.7931, 9.488770
343.2752, 18.88403
343.7573, 29.23657
344.2394, 35.81445
344.7215, 35.01929
345.2036, 31.87598
345.6858, 30.07544
346.1679, 29.82764
346.6500, 30.27881
347.1321, 32.44922
347.6142, 34.89697
348.0963, 32.46313
348.5785, 22.85425
349.0606, 13.91406
349.5427, 12.41040
350.0248, 16.61865
350.5069, 21.96509
350.9890, 31.89844
351.4712, 39.35083
351.9533, 35.57422
352.4354, 23.05322
352.9175, 14.69946
353.3996, 17.38989
353.8817, 26.16992
354.3639, 28.12402
354.8460, 17.24268
355.3281, 13.89941
355.8102, 30.08789
356.2923, 52.80200
356.7744, 67.95972
357.2566, 72.30103
357.7387, 67.13232
358.2208, 52.13623
358.7029, 23.54028
359.1850, 6.715820
359.6671, 3.999512
360.1493, 8.733643
360.6314, 24.03760
361.1135, 44.23706
361.5956, 58.83179
362.0777, 61.60864
362.5598, 54.50342
363.0420, 43.69897
363.5241, 21.91479
364.0062, 11.41821
364.4883, 18.46533
364.9704, 31.36182
365.4525, 43.49707
365.9347, 53.81348
366.4168, 60.30444
366.8989, 58.81689
367.3810, 49.30591
367.8631, 41.96631
368.3452, 36.90430
368.8274, 33.83276
369.3095, 33.20532
369.7916, 34.25537
370.2737, 34.98779
370.7558, 32.97729
371.2379, 31.50610
371.7201, 37.48242
372.2022, 51.91772
372.6843, 65.65698
373.1664, 77.81616
373.6485, 83.28516
374.1306, 74.27441
374.6128, 45.05713
375.0949, 21.76831
375.5770, 22.77686
376.0591, 38.58789
376.5412, 50.95654
377.0233, 56.02026
377.5055, 57.77563
377.9876, 61.18555
378.4697, 66.71289
378.9518, 68.97192
379.4339, 67.94116
379.9160, 63.02100
380.3982, 49.78003
380.8803, 31.87793
381.3624, 18.88696
381.8445, 15.64722
382.3266, 20.71484
382.8087, 28.78125
383.2909, 50.78174
383.7730, 59.79712
384.2551, 41.22168
384.7372, 18.76465
385.2193, 13.42896
385.7014, 27.35327
386.1836, 47.08374
386.6657, 57.91772
387.1478, 58.76221
387.6299, 60.50073
388.1120, 65.22412
388.5941, 68.95361
389.0763, 71.30640
389.5584, 69.89282
390.0405, 63.02173
390.5226, 47.91797
391.0047, 32.57983
391.4868, 31.84229
391.9690, 47.58423
392.4511, 59.86450
392.9332, 60.90063
393.4153, 58.67651
393.8974, 60.60181
394.3795, 66.72778
394.8617, 74.28320
395.3438, 88.28955
395.8259, 100.6428
396.3080, 93.80566
396.7901, 65.37842
397.2722, 37.53467
397.7544, 26.05078
398.2365, 28.25513
398.7186, 27.98853
399.2007, 22.83081
399.6828, 17.88379
400.1649, 12.48071
400.6471, 8.856445
401.1292, 12.43237
401.6113, 25.06689
402.0934, 41.02295
402.5755, 52.22168
403.0576, 58.04590
403.5398, 60.19043
404.0219, 55.64014
404.5040, 50.76123
404.9861, 49.21289
405.4682, 50.11206
405.9503, 50.30640
406.4325, 47.50293
406.9146, 43.19629
407.3967, 43.95801
407.8788, 56.35547
408.3609, 60.01245
408.8430, 43.87524
409.3252, 22.92017
409.8073, 7.434814
410.2894, 0.6333010
410.7715, 2.977783
411.2536, 1.406738
411.7357, 11.01953
412.2179, 17.22021
412.7000, 17.32129
413.1821, 19.11841
413.6642, 33.12549
414.1463, 52.36133
414.6284, 61.79053
415.1106, 53.03857
415.5927, 40.66235
416.0748, 33.98877
416.5569, 32.21802
417.0390, 32.64258
417.5211, 34.06299
418.0033, 38.76367
418.4854, 53.13159
418.9675, 85.88281
419.4496, 96.14868
419.9317, 64.12012
420.4138, 24.14722
420.8960, 7.447266
421.3781, 27.04395
421.8602, 30.18481
422.3423, 12.26978
422.8244, 20.56982
423.3065, 41.82715
423.7887, 47.12598
424.2708, 46.78271
424.7529, 37.28223
425.2350, 26.25659
425.7171, 20.14917
426.1992, 19.66968
426.6814, 20.80518
427.1635, 20.45801
427.6456, 18.59448
428.1277, 14.44629
428.6098, 6.486084
429.0919, 0.8090820
429.5741, 8.432129
430.0562, 13.16870
430.5383, 8.435059
431.0204, 11.13306
431.5025, 32.18750
431.9846, 46.41870
432.4668, 53.42261
432.9489, 49.12451
433.4310, 29.61768
433.9131, 8.410645
434.3952, 2.953613
434.8773, 15.32178
435.3595, 22.16675
435.8416, 12.36841
436.3237, 5.649658
436.8058, 20.64307
437.2879, 48.81885
437.7701, 66.26733
438.2522, 60.01855
438.7343, 40.38550
439.2164, 34.26904
439.6985, 55.29736
440.1806, 65.51489
440.6628, 56.56250
441.1449, 44.26929
441.6270, 40.22168
442.1091, 43.05444
442.5912, 42.29053
443.0733, 26.35449
443.5555, 2.147461
444.0376, 0.7539060
444.5197, 34.28760
445.0018, 56.57227
445.4839, 33.27686
445.9660, 1.362549
446.4482, 11.85645
446.9303, 8.797852
447.4124, 32.40308
447.8945, 40.72852
448.3766, 40.00098
448.8587, 45.05786
449.3409, 58.58716
449.8230, 67.05054
450.3051, 56.03906
450.7872, 28.90405
451.2693, 19.15942
451.7514, 42.94824
452.2336, 63.92163
452.7157, 69.12939
453.1978, 64.73120
453.6799, 59.21802
454.1620, 55.12231
454.6441, 49.66040
455.1263, 37.60767
455.6084, 15.59155
456.0905, 6.235840
456.5726, 24.01587
457.0547, 40.01489
457.5368, 41.41309
458.0190, 36.46460
458.5011, 41.57788
458.9832, 66.06958
459.4653, 91.88232
459.9474, 88.33618
460.4295, 54.86743
460.9117, 31.71655
461.3938, 29.10083
461.8759, 35.65747
462.3580, 43.99902
462.8401, 53.33594
463.3222, 59.02637
463.8044, 57.57642
464.2865, 53.74048
464.7686, 49.78979
465.2507, 46.70044
465.7328, 49.59839
466.2149, 62.21558
466.6971, 76.49634
467.1792, 75.60303
467.6613, 44.92676
468.1434, 29.85889
468.6255, 42.28687
469.1076, 59.56421
469.5898, 69.93237
470.0719, 73.23755
470.5540, 74.71362
471.0361, 77.59180
471.5182, 79.34253
472.0003, 75.85645
472.4825, 66.02368
472.9646, 56.44531
473.4467, 40.86597
473.9288, 31.79492
474.4109, 44.13770
474.8930, 75.36157
475.3752, 99.85474
475.8573, 97.34399
476.3394, 81.30396
476.8215, 77.45703
477.3036, 86.15625
477.7857, 88.03540
478.2679, 69.68677
478.7500, 41.80933
479.2321, 32.07495
479.7142, 46.60034
480.1963, 61.80298
480.6784, 80.17090
481.1606, 91.59814
481.6427, 81.28101
482.1248, 53.13696
482.6069, 29.65771
483.0890, 28.41089
483.5711, 44.90112
484.0533, 55.67480
484.5354, 51.28613
485.0175, 57.19507
485.4996, 92.54004
485.9817, 127.4250
486.4638, 134.3279
486.9460, 112.3618
487.4281, 85.44336
487.9102, 70.39624
488.3923, 65.64185
488.8744, 66.38281
489.3565, 72.52246
489.8387, 79.32959
490.3208, 84.44116
490.8029, 88.83813
491.2850, 95.14062
491.7671, 105.1006
492.2492, 111.2034
492.7314, 109.0361
493.2135, 103.1714
493.6956, 98.57593
494.1777, 95.77563
494.6598, 93.34985
495.1419, 89.56885
495.6241, 84.75415
496.1062, 81.12598
496.5883, 81.43481
497.0704, 78.97852
497.5525, 68.35205
498.0346, 58.06592
498.5168, 56.39355
498.9989, 63.40186
499.4810, 71.82056
499.9631, 78.56470
500.4452, 81.83374
500.9273, 71.82666
501.4095, 44.00415
501.8916, 20.15259
502.3737, 10.16040
502.8558, 9.909424
503.3379, 13.17310
503.8200, 19.59473
504.3022, 27.43188
504.7843, 37.50708
505.2664, 49.54834
505.7485, 69.95117
506.2306, 95.76074
506.7127, 104.9280
507.1949, 78.96387
507.6770, 29.99951
508.1591, 12.07495
508.6412, 61.87134
509.1233, 89.20776
509.6054, 69.41797
510.0876, 41.95459
510.5697, 39.33179
511.0518, 59.22119
511.5339, 74.51294
512.0161, 63.11963
512.4982, 34.85107
512.9803, 14.38623
513.4624, 1.367432
513.9445, 0.4379880
514.4266, 17.51562
514.9088, 42.02612
515.3909, 57.33081
515.8730, 63.37134
516.3551, 62.67847
516.8372, 47.92310
517.3193, 32.76074
517.8015, 34.20239
518.2836, 48.06885
518.7657, 53.77808
519.2478, 39.39990
519.7299, 14.90820
520.2120, 4.840332
520.6942, 21.63037
521.1763, 29.07764
521.6584, 18.13916
522.1405, 7.424805
522.6226, 8.992920
523.1047, 19.09082
523.5869, 26.66943
524.0690, 26.01831
524.5511, 19.85376
525.0332, 9.586914
525.5153, 4.703125
525.9974, 9.235840
526.4796, 5.026367
526.9617, 20.61548
527.4438, 13.97607
527.9259, 11.56567
528.4080, 25.77344
528.8901, 15.67090
529.3723, 1.794922
529.8544, 3.972412
530.3365, 4.695801
530.8186, 8.343262
531.3007, 17.44946
531.7828, 24.86987
532.2650, 19.40918
532.7471, 2.192871
533.2292, 16.50122
533.7113, 20.52124
534.1934, 20.23462
534.6755, 13.27808
535.1577, 4.779541
535.6398, 3.578613
536.1219, 13.27490
536.6040, 20.01904
537.0861, 5.435547
537.5682, 22.66113
538.0504, 38.52393
538.5325, 38.44946
539.0146, 30.52979
539.4967, 16.68896
539.9788, 0.1142580
540.4609, 5.176270
540.9431, 12.23364
541.4252, 25.24048
541.9073, 25.56567
542.3894, 20.93848
542.8715, 17.48169
543.3536, 16.54126
543.8358, 18.36157
544.3179, 24.22046
544.8000, 31.93555
545.2821, 29.49487
545.7642, 9.083496
546.2463, 0.1904300
546.7285, 27.04321
547.2106, 55.61743
547.6927, 55.09277
548.1748, 27.29468
548.6569, 5.259277
549.1390, 7.906982
549.6211, 20.35303
550.1032, 28.58276
550.5853, 32.53613
551.0674, 32.25146
551.5496, 26.86255
552.0317, 22.09814
552.5138, 28.51270
552.9959, 53.27271
553.4780, 64.71387
553.9601, 49.57202
554.4423, 37.32788
554.9244, 42.46265
555.4065, 57.47876
555.8886, 69.58936
556.3707, 74.08740
556.8528, 76.56519
557.3350, 85.23193
557.8171, 98.81372
558.2992, 105.1794
558.7813, 99.97998
559.2634, 98.23340
559.7455, 114.7180
560.2277, 141.5974
560.7098, 153.0952
561.1919, 137.1992
561.6740, 126.7073
562.1561, 134.3911
562.6382, 150.9905
563.1204, 170.2993
563.6025, 189.3955
564.0846, 202.9602
564.5667, 206.9795
565.0488, 202.9014
565.5309, 194.4771
566.0131, 174.7280
566.4952, 168.3120
566.9773, 192.6602
567.4594, 221.2893
567.9415, 236.2952
568.4236, 240.0884
568.9058, 247.5588
569.3879, 272.2942
569.8700, 296.9155
570.3521, 299.6648
570.8342, 287.0154
571.3163, 281.4893
571.7985, 290.3328
572.2806, 304.3140
572.7627, 311.7305
573.2448, 311.5122
573.7269, 315.1057
574.2090, 323.2656
574.6912, 334.1750
575.1733, 352.7485
575.6554, 371.0291
576.1375, 377.4297
576.6196, 370.6301
577.1017, 365.0752
577.5839, 377.7727
578.0660, 402.1626
578.5481, 416.3484
579.0302, 419.5713
579.5123, 415.3853
579.9944, 400.4241
580.4766, 383.3137
580.9587, 384.1494
581.4408, 409.3987
581.9229, 422.4819
582.4050, 407.5698
582.8871, 388.7478
583.3693, 382.7385
583.8514, 385.2542
584.3335, 384.4619
584.8156, 374.1152
585.2977, 360.1541
585.7798, 351.0149
586.2620, 346.8372
586.7441, 346.7290
587.2262, 357.7605
587.7083, 360.6980
588.1904, 331.6724
588.6725, 290.9849
589.1547, 273.6230
589.6368, 291.1321
590.1189, 313.4905
590.6010, 335.4863
591.0831, 348.4541
591.5652, 336.8398
592.0474, 303.8315
592.5295, 271.2229
593.0116, 252.7883
593.4937, 246.0913
593.9758, 245.2830
594.4579, 255.5864
594.9401, 260.8335
595.4222, 251.4250
595.9043, 242.8303
596.3864, 247.0991
596.8685, 258.3433
597.3506, 260.2305
597.8328, 242.2673
598.3149, 221.6963
598.7970, 216.7415
599.2791, 221.3948
599.7612, 219.3862
600.2433, 207.5415
600.7255, 195.9033
601.2076, 193.3826
601.6897, 198.6208
602.1718, 200.4067
602.6539, 188.2856
603.1360, 187.3896
603.6182, 216.0842
604.1003, 243.5049
604.5824, 242.6013
605.0645, 217.3374
605.5466, 192.6768
606.0287, 182.3325
606.5109, 181.0217
606.9930, 181.1990
607.4751, 183.3406
607.9572, 192.8047
608.4393, 213.9141
608.9214, 230.7913
609.4036, 225.5251
609.8857, 197.9602
610.3678, 177.7515
610.8499, 166.0625
611.3320, 158.1870
611.8141, 150.5837
612.2963, 147.7070
612.7784, 159.2371
613.2605, 182.5286
613.7426, 199.6794
614.2247, 194.3926
614.7068, 175.6973
615.1890, 165.6482
615.6711, 164.5657
616.1532, 165.7427
616.6353, 169.3938
617.1174, 170.6924
617.5995, 160.7488
618.0817, 139.2629
618.5638, 130.5845
619.0459, 149.0078
619.5280, 164.9333
620.0101, 165.8730
620.4922, 158.4246
620.9744, 148.5054
621.4565, 138.8455
621.9386, 134.3687
622.4207, 141.9204
622.9028, 157.4424
623.3849, 163.7825
623.8671, 159.1152
624.3492, 154.3083
624.8313, 154.8289
625.3134, 154.5571
625.7955, 141.6370
626.2776, 117.2068
626.7598, 106.4919
627.2419, 127.9172
627.7240, 147.7227
628.2061, 145.4062
628.6882, 131.9553
629.1703, 124.4658
629.6525, 126.8879
630.1346, 130.1873
630.6167, 123.6533
631.0988, 110.0808
631.5809, 107.3950
632.0630, 119.3984
632.5452, 127.2100
633.0273, 122.9624
633.5094, 114.4382
633.9915, 109.3738
634.4736, 107.9727
634.9557, 110.9482
635.4379, 126.7585
635.9200, 138.2605
636.4021, 132.9858
636.8842, 118.1335
637.3663, 104.7310
637.8484, 95.56860
638.3306, 86.69800
638.8127, 72.34985
639.2948, 55.22266
639.7769, 55.09546
640.2590, 78.86963
640.7411, 94.89233
641.2233, 90.54834
641.7054, 78.07178
642.1875, 69.18677
642.6696, 63.67896
643.1517, 59.46729
643.6339, 56.72119
644.1160, 54.53394
644.5981, 52.85767
645.0802, 51.22681
645.5623, 48.14282
646.0444, 43.76270
646.5266, 41.44482
647.0087, 45.38574
647.4908, 53.38794
647.9729, 53.68774
648.4550, 43.37134
648.9371, 37.14014
649.4193, 39.82349
649.9014, 47.04297
650.3835, 57.55591
650.8656, 69.43701
651.3477, 72.24756
651.8298, 54.75610
652.3120, 38.54468
652.7941, 33.39575
653.2762, 35.65967
653.7583, 44.83838
654.2404, 58.25366
654.7225, 62.42285
655.2047, 44.58887
655.6868, 15.07910
656.1689, 12.43018
656.6510, 42.77197
657.1331, 61.43213
657.6152, 54.14014
658.0974, 39.81860
658.5795, 34.67139
659.0616, 36.88232
659.5437, 38.83838
660.0258, 40.98535
660.5079, 41.37402
660.9901, 40.45337
661.4722, 36.74097
661.9543, 26.01245
662.4364, 10.22290
662.9185, 2.655029
663.4006, 7.424316
663.8828, 5.699707
664.3649, 0.3864750
664.8470, 8.572021
665.3291, 21.27661
665.8112, 42.76807
666.2933, 55.57178
666.7755, 39.69727
667.2576, 4.083008
667.7397, 11.78540
668.2218, 4.631592
668.7039, 20.20093
669.1860, 32.93530
669.6682, 38.92505
670.1503, 28.14185
670.6324, 8.052979
671.1145, 0.5720210
671.5966, 18.10010
672.0787, 41.64893
672.5609, 41.48193
673.0430, 21.57715
673.5251, 11.19702
674.0072, 14.20288
674.4893, 20.55786
674.9714, 26.15845
675.4536, 29.65332
675.9357, 26.98486
676.4178, 13.49878
676.8999, 3.979492
677.3820, 0.9260250
677.8641, 0.2585450
678.3463, 3.2958999E-02
678.8284, 0.1298830
679.3105, 3.602051
679.7926, 12.99585
680.2747, 20.45898
680.7568, 17.34058
681.2390, 7.757080
681.7211, 0.5832520
682.2032, 3.984619
682.6853, 4.435547
683.1674, 1.529053
683.6495, 8.199463
684.1317, 5.837891
684.6138, 8.192139
685.0959, 17.28491
685.5780, 21.93018
686.0601, 20.98242
686.5422, 7.594727
687.0244, 7.568848
687.5065, 12.85498
687.9886, 7.303467
688.4707, 0.4709470
688.9528, 9.190186
689.4349, 14.89380
689.9171, 7.202148
690.3992, 7.253662
690.8813, 5.471436
691.3634, 18.33789
691.8455, 42.64771
692.3276, 44.64307
692.8098, 27.59082
693.2919, 20.70996
693.7740, 30.72290
694.2561, 35.10010
694.7382, 19.14844
695.2203, 5.893799
695.7025, 16.33350
696.1846, 43.71338
696.6667, 61.89404
697.1488, 58.68237
697.6309, 51.38525
698.1130, 49.77759
698.5952, 48.91479
699.0773, 39.66870
699.5594, 23.93481
700.0415, 14.41919
700.5236, 19.63477
701.0057, 31.68262
701.4879, 33.55664
701.9700, 24.92261
702.4521, 18.61890
702.9342, 14.23535
703.4163, 13.73291
703.8984, 19.25415
704.3806, 28.86499
704.8627, 39.39917
705.3448, 55.66943
705.8269, 59.25903
706.3090, 35.13574
706.7911, 10.15771
707.2733, 3.332275
707.7554, 5.318848
708.2375, 6.327393
708.7196, 31.18188
709.2017, 53.45898
709.6838, 57.80176
710.1660, 48.25879
710.6481, 28.21704
711.1302, 0.7463380
711.6123, 8.615234
712.0944, 19.63623
712.5765, 55.33765
713.0587, 61.47974
713.5408, 36.26904
714.0229, 20.40088
714.5050, 18.46851
714.9871, 19.97021
715.4692, 26.36743
715.9514, 33.07275
716.4335, 35.68262
716.9156, 34.93066
717.3977, 35.59009
717.8798, 41.68188
718.3619, 47.07837
718.8441, 46.93237
719.3262, 42.23608
719.8083, 30.21094
720.2904, 13.48389
720.7725, 8.651611
721.2546, 28.51587
721.7368, 60.50049
722.2189, 73.54736
722.7010, 65.24878
723.1831, 52.28662
723.6652, 29.62280
724.1473, 14.64966
724.6295, 24.08032
725.1116, 45.28564
725.5937, 51.32275
726.0758, 38.80005
726.5579, 25.68677
727.0400, 10.93311
727.5222, 2.674316
728.0043, 3.883301
728.4864, 12.13892
728.9685, 21.69165
729.4506, 30.86157
729.9327, 40.32617
730.4149, 52.98291
730.8970, 65.35181
731.3791, 67.47217
731.8612, 60.54224
732.3433, 56.84082
732.8254, 61.18213
733.3076, 63.58862
733.7897, 53.97583
734.2718, 34.11182
734.7539, 19.58423
735.2360, 12.34668
735.7181, 7.166504
736.2003, 0.1474610
736.6824, 2.308838
737.1645, 11.60254
737.6466, 33.43018
738.1287, 41.63672
738.6108, 26.32959
739.0930, 9.389160
739.5751, 3.3202998E-02
740.0572, 2.974121
740.5393, 1.498047
741.0214, 11.04248
741.5035, 18.31250
741.9857, 20.33521
742.4678, 21.49805
742.9499, 29.76782
743.4320, 43.84839
743.9141, 48.07886
744.3962, 40.23389
744.8784, 34.73730
745.3605, 37.89722
745.8426, 43.77075
746.3247, 44.93945
746.8068, 40.06030
747.2889, 40.55811
747.7711, 55.37402
748.2532, 63.33569
748.7353, 57.33521
749.2174, 45.07007
749.6995, 27.01001
750.1816, 7.980469
750.6638, 3.673340
751.1459, 29.41235
751.6280, 57.43262
752.1101, 62.39526
752.5922, 51.42285
753.0743, 32.12158
753.5565, 8.635498
754.0386, 3.341064
754.5207, 6.311035
755.0028, 26.31641
755.4849, 34.04761
755.9670, 27.78516
756.4492, 25.72534
756.9313, 30.40234
757.4134, 33.78491
757.8955, 32.84155
758.3776, 28.36011
758.8597, 18.76025
759.3419, 2.517090
759.8240, 2.908203
760.3061, 12.78467
760.7882, 28.87720
761.2703, 38.33936
761.7524, 43.80420
762.2346, 47.98364
762.7167, 51.37354
763.1988, 53.79956
763.6809, 55.91919
764.1630, 55.69165
764.6451, 49.81250
765.1273, 39.62964
765.6094, 28.30493
766.0915, 17.09985
766.5736, 7.928223
767.0557, 2.216553
767.5378, 0.2177730
768.0200, 0.3342290
768.5021, 1.089600
768.9842, 11.36084
769.4663, 39.28442
769.9484, 57.17236
770.4305, 41.96631
770.9127, 16.08765
771.3948, 14.40039
771.8769, 39.11499
772.3590, 56.26660
772.8411, 59.54614
773.3232, 57.52222
773.8054, 52.22388
774.2875, 44.11816
774.7696, 30.00708
775.2517, 12.59033
775.7338, 2.611572
776.2159, 6.869141
776.6981, 19.00146
777.1802, 38.74194
777.6623, 59.26343
778.1444, 62.14648
778.6265, 47.06299
779.1086, 29.37061
779.5908, 17.31934
780.0729, 10.25903
780.5550, 7.044434
781.0371, 7.629639
781.5192, 13.37378
782.0013, 26.38574
782.4835, 39.74902
782.9656, 57.05859
783.4477, 67.48853
783.9298, 48.93066
784.4119, 0.2028810
784.8940, 22.47534
785.3762, 9.460938
785.8583, 33.63062
786.3404, 24.81958
786.8225, 8.056396
787.3046, 6.067627
787.7867, 16.50684
788.2689, 24.00195
788.7510, 22.15698
789.2331, 15.58325
789.7152, 1.255127
790.1973, 11.71094
790.6794, 4.416504
791.1616, 18.87793
791.6437, 38.51318
792.1258, 46.13135
792.6079, 44.78369
793.0900, 36.30347
793.5721, 21.86792
794.0543, 12.55225
794.5364, 7.564209
795.0185, 16.24097
795.5006, 48.88306
795.9827, 77.33325
796.4648, 69.37988
796.9470, 29.66187
797.4291, 8.092529
797.9112, 22.84668
798.3933, 30.51147
798.8754, 25.39868
799.3575, 16.19629
799.8397, 4.128662
800.3218, 7.218262
800.8039, 11.09912
801.2860, 4.885498
801.7681, 1.127197
802.2502, 5.419189
802.7324, 8.033447
803.2145, 17.98657
803.6966, 56.21362
804.1787, 70.97803
804.6608, 56.17261
805.1429, 40.77612
805.6251, 51.82593
806.1072, 74.79688
806.5893, 77.34277
807.0714, 61.94800
807.5535, 45.32642
808.0356, 29.74097
808.5178, 21.40063
808.9999, 25.47876
809.4820, 38.06909
809.9641, 50.77051
810.4462, 66.16211
810.9283, 71.80957
811.4105, 61.67505
811.8926, 51.41406
812.3747, 45.27319
812.8568, 43.99902
813.3389, 50.88623
813.8210, 65.80322
814.3032, 74.69043
814.7853, 73.76416
815.2674, 68.68457
815.7495, 56.96289
816.2316, 45.37061
816.7137, 40.98340
817.1959, 42.01025
817.6780, 41.77368
818.1601, 38.03442
818.6422, 34.27759
819.1243, 34.74805
819.6064, 36.75830
820.0886, 35.65771
820.5707, 32.20288
821.0528, 30.67969
821.5349, 32.44336
822.0170, 32.97070
822.4991, 24.91797
822.9813, 12.89355
823.4634, 19.42603
823.9455, 46.00610
824.4276, 67.02466
824.9097, 78.30322
825.3918, 77.72534
825.8740, 59.78809
826.3561, 31.97852
826.8382, 20.60034
827.3203, 35.93115
827.8024, 43.41870
828.2845, 33.75415
828.7667, 27.64990
829.2488, 35.28003
829.7309, 48.85083
830.2130, 62.01978
830.6951, 74.26392
831.1772, 75.88721
831.6594, 48.73218
832.1415, 26.97632
832.6236, 31.57764
833.1057, 45.07788
833.5878, 51.68945
834.0699, 50.43115
834.5521, 43.99634
835.0342, 31.93140
835.5163, 23.48364
835.9984, 32.55273
836.4805, 47.94702
836.9626, 48.31445
837.4448, 37.51343
837.9269, 35.18018
838.4090, 47.50562
838.8911, 61.50928
839.3732, 63.49316
839.8553, 56.24683
840.3375, 49.36426
840.8196, 42.84204
841.3017, 35.55420
841.7838, 25.89844
842.2659, 22.66943
842.7480, 32.88623
843.2302, 53.45044
843.7123, 67.64722
844.1944, 74.89062
844.6765, 76.66382
845.1586, 69.28320
845.6407, 62.39722
846.1229, 64.02173
846.6050, 63.95532
847.0871, 46.77148
847.5692, 14.61792
848.0513, 3.110596
848.5334, 6.621338
849.0156, 21.98682
849.4977, 48.86328
849.9798, 67.71631
850.4619, 53.62549
850.9440, 21.84448
851.4261, 7.541748
851.9083, 22.24731
852.3904, 40.83374
852.8725, 52.04956
853.3546, 54.79565
853.8367, 40.45020
854.3188, 19.97778
854.8010, 14.13013
855.2831, 25.33228
855.7652, 39.97095
856.2473, 47.50757
856.7294, 50.89404
857.2115, 55.08032
857.6937, 59.47485
858.1758, 60.72046
858.6579, 59.01294
859.1400, 60.09570
859.6221, 66.94775
860.1042, 72.07935
860.5864, 64.12671
861.0685, 44.93481
861.5506, 39.32324
862.0327, 51.18872
862.5148, 61.56348
862.9969, 67.64502
863.4791, 68.57837
863.9612, 61.24341
864.4433, 48.86987
864.9254, 43.69946
865.4075, 52.92456
865.8896, 54.24292
866.3718, 38.76221
866.8539, 26.30835
867.3360, 28.88330
867.8181, 34.77686
868.3002, 25.45752
868.7823, 2.211182
869.2645, 3.713379
869.7466, 38.18042
870.2287, 69.52319
870.7108, 55.69800
871.1929, 32.03491
871.6750, 32.66724
872.1572, 49.41895
872.6393, 56.08325
873.1214, 43.61938
873.6035, 28.88794
874.0856, 24.27661
874.5677, 23.55298
875.0499, 19.02954
875.5320, 13.06250
876.0141, 10.95801
876.4962, 13.56299
876.9783, 19.01294
877.4604, 26.72437
877.9426, 33.83496
878.4247, 36.56934
878.9068, 34.71875
879.3889, 21.92285
879.8710, 6.1278999E-02
880.3531, 2.154541
880.8353, 28.10938
881.3174, 62.09985
881.7995, 64.31128
882.2816, 40.08887
882.7637, 21.01831
883.2458, 6.066895
883.7280, 7.587402
884.2101, 34.08740
884.6922, 54.63623
885.1743, 44.37378
885.6564, 21.16333
886.1385, 27.94922
886.6207, 79.17285
887.1028, 93.49854
887.5849, 41.82178
888.0670, 5.0292999E-02
888.5491, 12.64941
889.0313, 6.986328
889.5134, 15.37598
889.9955, 49.28857
890.4776, 71.12964
890.9597, 72.68799
891.4418, 73.99609
891.9240, 81.45068
892.4061, 85.28906
892.8882, 76.57129
893.3703, 63.11572
893.8524, 55.76660
894.3345, 55.70142
894.8167, 56.83887
895.2988, 57.91333
895.7809, 58.18896
896.2630, 57.38623
896.7451, 55.49609
897.2272, 49.59668
897.7094, 43.04590
898.1915, 45.81274
898.6736, 61.55151
899.1557, 75.08057
899.6378, 68.66479
900.1199, 57.73218
900.6021, 67.50806
901.0842, 85.79370
901.5663, 82.54834
902.0484, 56.43970
902.5305, 32.17578
903.0126, 25.14771
903.4948, 27.80640
903.9769, 33.84546
904.4590, 39.96533
904.9411, 30.71533
905.4232, 8.804932
905.9053, 0.1669920
906.3875, 12.60327
906.8696, 31.75488
907.3517, 43.49414
907.8338, 48.79028
908.3159, 49.44873
908.7980, 45.40234
909.2802, 46.74146
909.7623, 56.56396
910.2444, 55.88037
910.7265, 33.06641
911.2086, 2.686279
911.6907, 14.80615
912.1729, 19.50049
912.6550, 20.32886
913.1371, 19.41406
913.6192, 6.017334
914.1013, 30.68457
914.5834, 63.37964
915.0656, 73.97314
915.5477, 68.32666
916.0298, 59.02222
916.5119, 44.21313
916.9940, 32.50342
917.4761, 19.52588
917.9583, 15.88599
918.4404, 34.04761
918.9225, 53.77173
919.4046, 58.30151
919.8867, 50.94336
920.3688, 44.43066
920.8510, 38.77832
921.3331, 36.04028
921.8152, 37.82666
922.2973, 41.06958
922.7794, 42.74683
923.2615, 46.15576
923.7437, 59.95776
924.2258, 82.37769
924.7079, 91.50732
925.1900, 70.97876
925.6721, 51.73438
926.1542, 49.42236
926.6364, 51.31934
927.1185, 48.81104
927.6006, 43.11328
928.0827, 34.48438
928.5648, 23.87939
929.0469, 18.37622
929.5291, 24.73340
930.0112, 34.36792
930.4933, 46.03882
930.9754, 53.81421
931.4575, 43.88892
931.9396, 23.89990
932.4218, 18.27856
932.9039, 35.52856
933.3860, 53.90625
933.8681, 51.33691
934.3502, 42.18628
934.8323, 47.86499
935.3145, 59.75610
935.7966, 60.77759
936.2787, 50.32275
936.7608, 39.46582
937.2429, 34.07812
937.7250, 30.44067
938.2072, 19.09277
938.6893, 8.831299
939.1714, 26.21777
939.6535, 62.17969
940.1356, 79.02295
940.6177, 69.32104
941.0999, 50.01880
941.5820, 31.79907
942.0641, 19.52979
942.5462, 27.61353
943.0283, 51.13623
943.5104, 64.82983
943.9926, 68.00513
944.4747, 65.26294
944.9568, 57.84326
945.4389, 51.16113
945.9210, 50.02588
946.4031, 52.35059
946.8853, 56.33496
947.3674, 62.12109
947.8495, 63.53418
948.3316, 59.80859
948.8137, 56.32300
949.2958, 55.30029
949.7780, 54.13501
950.2601, 48.81006
950.7422, 41.60889
951.2243, 48.51025
951.7064, 74.78345
952.1885, 77.23315
952.6707, 43.64185
953.1528, 17.69824
953.6349, 22.13306
954.1170, 39.08789
954.5991, 44.48022
955.0812, 38.97217
955.5634, 38.05103
956.0455, 43.23877
956.5276, 48.74231
957.0097, 55.72046
957.4918, 59.06848
957.9739, 55.30029
958.4561, 47.01672
958.9382, 37.79919
959.4203, 27.33911
959.9024, 19.48083
960.3845, 10.50439
960.8666, 12.11975
961.3488, 33.69824
961.8309, 55.87036
962.3130, 69.04419
962.7951, 73.69385
963.2772, 68.98694
963.7593, 51.86853
964.2415, 41.79907
964.7236, 46.22595
965.2057, 46.68848
965.6878, 32.70349
966.1699, 21.02661
966.6520, 23.79041
967.1342, 36.38306
967.6163, 50.16370
968.0984, 68.36230
968.5805, 73.79541
969.0626, 48.75317
969.5447, 32.49182
970.0269, 45.73523
970.5090, 63.14331
970.9911, 65.25879
971.4732, 56.87036
971.9553, 48.74634
972.4374, 39.41736
972.9196, 37.23047
973.4017, 55.02075
973.8838, 65.17456
974.3659, 51.05396
974.8480, 30.96545
975.3301, 19.95325
975.8123, 16.94299
976.2944, 15.91968
976.7765, 16.43262
977.2586, 17.22449
977.7407, 16.29382
978.2228, 17.69226
978.7050, 27.32068
979.1871, 36.92639
979.6692, 39.67883
980.1513, 35.09473
980.6334, 22.62183
981.1155, 3.978027
981.5977, 21.09998
982.0798, 19.48840
982.5619, 9.261353
983.0440, 13.15662
983.5261, 34.47949
984.0082, 39.09253
984.4904, 29.65710
984.9725, 19.88757
985.4546, 9.358032
985.9367, 10.77759
986.4188, 48.58325
986.9009, 77.40808
987.3831, 58.95020
987.8652, 24.28210
988.3473, 10.68433
988.8294, 17.32166
989.3115, 20.92566
989.7936, 13.05286
990.2758, 5.945068
990.7579, 6.273682
991.2400, 7.186401
991.7221, 0.6094970
992.2042, 7.139648
992.6863, 5.409546
993.1685, 32.27319
993.6506, 46.46204
994.1327, 35.57385
994.6148, 21.35095
995.0969, 9.447144
995.5790, 1.747070
996.0612, 3.516602
996.5433, 1.832764
997.0254, 22.61902
997.5075, 61.23401
997.9896, 72.23694
998.4717, 28.49902
998.9539, 4.986328
999.4360, 16.36267
999.9181, 42.68774
1000.400, 34.10999
1000.882, 13.04749
1001.364, 10.15295
1001.847, 25.41882
1002.329, 40.80383
1002.811, 51.41797
1003.293, 57.43005
1003.775, 56.62927
1004.257, 53.80127
1004.739, 49.05518
1005.221, 46.29529
1005.703, 55.20142
1006.186, 71.10999
1006.668, 72.23657
1007.150, 44.54370
1007.632, 24.72925
1008.114, 38.40930
1008.596, 55.58557
1009.078, 58.68701
1009.560, 52.93042
1010.043, 40.90784
1010.525, 26.57361
1011.007, 20.54236
1011.489, 27.17993
1011.971, 38.54333
1012.453, 58.00598
1012.935, 73.46960
1013.417, 76.70557
1013.899, 72.51978
1014.382, 62.91882
1014.864, 51.26025
1015.346, 46.48474
1015.828, 53.59143
1016.310, 56.61023
1016.792, 43.33105
1017.274, 31.55933
1017.756, 34.37305
1018.239, 41.63293
1018.721, 40.82117
1019.203, 33.95581
1019.685, 27.66431
1020.167, 23.01917
1020.649, 21.28992
1021.131, 28.01904
1021.613, 31.36780
1022.095, 17.54675
1022.578, 4.930786
1023.060, 15.46704
1023.542, 40.37024
1024.024, 55.15967
1024.506, 54.54114
1024.988, 49.09778
1025.470, 35.97754
1025.952, 25.79944
1026.435, 25.44617
1026.917, 26.96960
1027.399, 23.82629
1027.881, 17.66248
1028.363, 11.90173
1028.845, 6.466797
1029.327, 6.151001
1029.809, 20.13770
1030.292, 27.79797
1030.774, 12.85413
1031.256, 0.8745120
1031.738, 15.94678
1032.220, 42.61572
1032.702, 51.43152
1033.184, 38.86560
1033.666, 29.17651
1034.148, 26.06458
1034.630, 24.14771
1035.113, 22.09412
1035.595, 21.55676
1036.077, 27.66211
1036.559, 33.71033
1037.041, 25.06262
1037.523, 0.6759030
1038.005, 4.087891
1038.487, 37.40955
1038.970, 55.30774
1039.452, 23.98352
1039.934, 4.163208
1040.416, 4.296875
1040.898, 9.022461
1041.380, 20.27698
1041.862, 29.22266
1042.344, 33.22546
1042.826, 32.06653
1043.309, 25.57471
1043.791, 6.320923
1044.273, 3.942139
1044.755, 7.206299
1045.237, 24.27795
1045.719, 31.67761
1046.201, 31.64819
1046.683, 35.75171
1047.166, 43.59631
1047.648, 47.46741
1048.130, 46.24170
1048.612, 44.24597
1049.094, 42.63623
1049.576, 41.03821
1050.058, 39.21619
1050.540, 37.21460
1051.022, 31.69800
1051.505, 21.58850
1051.987, 20.22607
1052.469, 29.72668
1052.951, 33.90527
1053.433, 27.83777
1053.915, 22.02856
1054.397, 24.00293
1054.879, 30.40381
1055.361, 35.28369
1055.844, 38.69568
1056.326, 41.57275
1056.808, 42.38611
1057.290, 46.05298
1057.772, 53.09998
1058.254, 56.04895
1058.736, 50.76697
1059.218, 41.97205
1059.701, 34.95801
1060.183, 30.25000
1060.665, 31.99500
1061.147, 38.13501
1061.629, 34.75989
1062.111, 22.18787
1062.593, 18.12463
1063.075, 28.91235
1063.557, 36.85413
1064.040, 22.16077
1064.522, 0.3198240
1065.004, 0.5058590
1065.486, 11.92334
1065.968, 12.65051
1066.450, 3.414795
1066.932, 3.278320
1067.414, 4.008179
1067.896, 2.060425
1068.379, 0.5660400
1068.861, 4.092163
1069.343, 9.391113
1069.825, 15.26111
1070.307, 21.44873
1070.789, 26.31836
1071.271, 25.12402
1071.753, 19.16943
1072.236, 16.19067
1072.718, 19.65588
1073.200, 26.69971
1073.682, 45.00452
1074.164, 55.56702
1074.646, 30.38953
1075.128, 2.943237
1075.610, 12.35461
1076.093, 0.8388670
1076.575, 25.61218
1077.057, 59.66516
1077.539, 85.59595
1078.021, 97.53650
1078.503, 97.34399
1078.985, 77.59814
1079.467, 54.22498
1079.949, 32.50854
1080.432, 18.94800
1080.914, 27.54822
1081.396, 58.06824
1081.878, 77.44421
1082.360, 75.63440
1082.842, 68.76355
1083.324, 51.62122
1083.806, 39.01685
1084.288, 40.81421
1084.771, 48.14514
1085.253, 51.40588
1085.735, 51.67908
1086.217, 55.54321
1086.699, 72.17664
1087.181, 70.26404
1087.663, 35.26868
1088.145, 7.832520
1088.628, 1.837280
1089.110, 0.2668460
1089.592, 13.59082
1090.074, 31.46033
1090.556, 39.67126
1091.038, 38.06750
1091.520, 29.45850
1092.002, 11.47668
1092.484, 2.500366
1092.967, 6.142334
1093.449, 15.92151
1093.931, 29.99011
1094.413, 40.69019
1094.895, 36.73352
1095.377, 23.34338
1095.859, 20.23547
1096.341, 26.47241
1096.823, 29.62756
1097.306, 29.50256
1097.788, 37.39246
1098.270, 56.10242
1098.752, 65.52527
1099.234, 46.75732
1099.716, 20.67004
1100.198, 21.38916
1100.680, 36.95569
1101.163, 45.56213
1101.645, 47.86743
1102.127, 46.90393
1102.609, 43.58911
1103.091, 30.11316
1103.573, 1.927734
1104.055, 17.12109
1104.537, 4.214722
1105.020, 31.35364
1105.502, 29.92578
1105.984, 17.72510
1106.466, 13.80469
1106.948, 18.85547
1107.430, 32.08191
1107.912, 52.09424
1108.394, 63.43982
1108.876, 55.71667
1109.359, 44.45471
1109.841, 29.07996
1110.323, 19.04333
1110.805, 21.68799
1111.287, 31.97900
1111.769, 51.34412
1112.251, 73.93298
1112.733, 70.78809
1113.215, 19.50867
1113.698, 7.910156
1114.180, 2.724365
1114.662, 18.40015
1115.144, 38.32178
1115.626, 51.96277
1116.108, 49.79358
1116.590, 39.32983
1117.072, 34.35803
1117.555, 34.85754
1118.037, 35.41467
1118.519, 35.02539
1119.001, 41.94897
1119.483, 58.93811
1119.965, 71.89197
1120.447, 75.16138
1120.929, 69.30725
1121.411, 52.75513
1121.894, 32.78040
1122.376, 30.67896
1122.858, 42.70422
1123.340, 50.26428
1123.822, 52.73328
1124.304, 50.64844
1124.786, 45.15906
1125.268, 43.07349
1125.750, 48.77441
1126.233, 57.13403
1126.715, 66.06665
1127.197, 70.72620
1127.679, 59.82434
1128.161, 42.82031
1128.643, 34.21204
1129.125, 33.36230
1129.607, 34.08459
1130.090, 34.63391
1130.572, 36.07349
1131.054, 39.13538
1131.536, 42.86975
1132.018, 49.91248
1132.500, 54.29297
1132.982, 49.59692
1133.464, 39.96277
1133.947, 29.63953
1134.429, 20.05469
1134.911, 18.45105
1135.393, 30.32812
1135.875, 34.25061
1136.357, 16.89270
1136.839, 9.336182
1137.321, 26.63098
1137.803, 39.91089
1138.286, 27.31909
1138.768, 7.913330
1139.250, 10.50671
1139.732, 32.71460
1140.214, 54.56006
1140.696, 78.34009
1141.178, 81.02649
1141.660, 58.83118
1142.142, 43.81555
1142.625, 47.01733
1143.107, 44.80493
1143.589, 16.89661
1144.071, 17.13513
1144.553, 20.33984
1145.035, 2.393555
1145.517, 5.679932
1145.999, 6.062012
1146.482, 12.74060
1146.964, 25.49158
1147.446, 32.88184
1147.928, 30.87122
1148.410, 28.33972
1148.892, 31.30310
1149.374, 37.34656
1149.856, 45.54346
1150.339, 54.56531
1150.821, 68.88354
1151.303, 79.70093
1151.785, 67.89294
1152.267, 39.48218
1152.749, 27.95349
1153.231, 47.50269
1153.713, 59.66663
1154.195, 51.03613
1154.677, 40.36462
1155.160, 30.91565
1155.642, 23.64136
1156.124, 17.91467
1156.606, 15.67395
1157.088, 22.75708
1157.570, 37.23669
1158.052, 32.93420
1158.534, 1.082520
1159.017, 6.988770
1159.499, 15.41187
1159.981, 38.03113
1160.463, 52.65320
1160.945, 58.27686
1161.427, 53.05920
1161.909, 43.22534
1162.391, 44.42017
1162.874, 51.99023
1163.356, 54.86646
1163.838, 53.81140
1164.320, 50.50305
1164.802, 45.66174
1165.284, 38.40820
1165.766, 29.71716
1166.248, 31.33582
1166.730, 58.66418
1167.213, 79.18469
1167.695, 54.42847
1168.177, 23.05298
1168.659, 18.93115
1169.141, 29.45386
1169.623, 41.99719
1170.105, 52.04858
1170.587, 52.90222
1171.069, 42.46472
1171.552, 30.37622
1172.034, 14.11829
1172.516, 6.266235
1172.998, 16.34351
1173.480, 23.69409
1173.962, 15.40479
1174.444, 6.695801
1174.926, 15.14600
1175.409, 34.67297
1175.891, 43.15430
1176.373, 39.39502
1176.855, 42.71472
1177.337, 53.36096
1177.819, 61.72595
1178.301, 65.83557
1178.783, 58.81970
1179.266, 37.27698
1179.748, 18.59900
1180.230, 24.75769
1180.712, 38.33508
1181.194, 27.44592
1181.676, 6.684448
1182.158, 0.5958250
1182.640, 3.368652
1183.122, 12.97876
1183.604, 25.00195
1184.087, 33.03772
1184.569, 34.23596
1185.051, 35.73315
1185.533, 43.72754
1186.015, 48.66821
1186.497, 42.24719
1186.979, 32.24597
1187.461, 37.92041
1187.944, 46.15198
1188.426, 39.69897
1188.908, 21.26416
1189.390, 7.674561
1189.872, 3.096191
1190.354, 0.2675780
1190.836, 20.18750
1191.318, 36.62598
1191.801, 44.28064
1192.283, 47.29370
1192.765, 47.73401
1193.247, 46.79041
1193.729, 46.95276
1194.211, 43.92200
1194.693, 26.73608
1195.175, 4.091919
1195.657, 7.252441
1196.140, 28.20459
1196.622, 39.25415
1197.104, 36.42114
1197.586, 31.70605
1198.068, 29.94653
1198.550, 31.55188
1199.032, 43.79175
1199.514, 50.35437
1199.996, 34.78528
1200.479, 17.28674
1200.961, 17.40625
1201.443, 23.62537
1201.925, 13.81213
1202.407, 8.900513
1202.889, 14.58191
1203.371, 2.085815
1203.853, 20.14856
1204.336, 42.64600
1204.818, 56.62610
1205.300, 59.28345
1205.782, 52.06580
1206.264, 35.43884
1206.746, 20.64966
1207.228, 22.74121
1207.710, 33.72986
1208.193, 32.69739
1208.675, 24.47168
1209.157, 21.85669
1209.639, 23.94678
1210.121, 32.64966
1210.603, 44.64685
1211.085, 47.55798
1211.567, 36.40210
1212.049, 25.86853
1212.531, 25.15076
1213.014, 27.06055
1213.496, 32.28052
1213.978, 33.63135
1214.460, 18.62976
1214.942, 2.371948
1215.424, 8.038574
1215.906, 25.79944
1216.388, 26.89905
1216.871, 13.63525
1217.353, 10.65625
1217.835, 21.13611
1218.317, 27.83765
1218.799, 27.45789
1219.281, 31.41504
1219.763, 45.22986
1220.245, 55.05872
1220.728, 47.74744
1221.210, 31.32617
1221.692, 14.32056
1222.174, 1.824341
1222.656, 11.76404
1223.138, 32.28320
1223.620, 37.21167
1224.102, 28.84253
1224.584, 23.57397
1225.067, 25.53406
1225.549, 27.23560
1226.031, 25.46277
1226.513, 23.29663
1226.995, 23.42920
1227.477, 21.43604
1227.959, 7.702271
1228.441, 0.1789550
1228.923, 0.0000000E+00
##END=



