##NAMES=Coronadite
##RRUFFID=R070320
##IDEAL CHEMISTRY=Pb^2+^(Mn^4+^_6_Mn^3+^_2_)O_16_
##LOCALITY=Broken Hill, New South Wales, Australia
##OWNER=RRUFF
##SOURCE=James Shigley
##DESCRIPTION=Dark gray fine-grained aggregate, some thin acicular crystals lining cracks in the rock
##STATUS=The identification of this mineral is not yet confirmed.
##URL=rruff.info/R070320
251.8706, 0.0000000E+00
252.3527, 8.728655
252.8348, 52.93608
253.3170, 108.3616
253.7991, 130.1951
254.2812, 97.18388
254.7633, 83.12033
255.2454, 78.08427
255.7275, 117.7739
256.2097, 122.3830
256.6918, 70.28569
257.1739, 2.647000
257.6560, 3.967192
258.1381, 38.56942
258.6202, 91.90599
259.1024, 101.7813
259.5845, 53.79177
260.0666, 20.94321
260.5487, 4.430708
261.0308, 2.361261
261.5129, 13.73256
261.9951, 43.15746
262.4772, 74.63551
262.9593, 126.2437
263.4414, 171.8936
263.9235, 179.8121
264.4056, 150.8270
264.8878, 109.6008
265.3699, 104.9022
265.8520, 152.6203
266.3341, 191.9219
266.8162, 196.7852
267.2983, 160.9494
267.7805, 128.0744
268.2626, 95.92869
268.7447, 69.40260
269.2268, 59.28093
269.7089, 69.80193
270.1910, 81.55328
270.6732, 88.99028
271.1553, 92.31948
271.6374, 87.33747
272.1195, 73.38757
272.6016, 52.04533
273.0837, 19.14170
273.5659, 11.85595
274.0480, 20.37598
274.5301, 12.72271
275.0122, 7.445567
275.4943, 37.17375
275.9764, 86.26647
276.4586, 122.4161
276.9407, 130.6352
277.4228, 107.7654
277.9049, 82.03065
278.3870, 58.97313
278.8691, 39.29681
279.3513, 45.42108
279.8334, 85.51432
280.3155, 130.3937
280.7976, 133.6228
281.2798, 92.84120
281.7619, 60.95007
282.2440, 62.48452
282.7261, 92.38560
283.2082, 110.8903
283.6903, 115.5844
284.1725, 117.6074
284.6546, 135.8562
285.1367, 169.0297
285.6188, 190.1029
286.1009, 181.6752
286.5830, 152.6116
287.0652, 142.1453
287.5473, 151.9295
288.0294, 169.9486
288.5115, 186.9631
288.9936, 202.3882
289.4757, 209.8625
289.9579, 201.6300
290.4400, 185.4193
290.9221, 189.5878
291.4042, 216.3367
291.8863, 236.0488
292.3684, 207.5519
292.8506, 142.5744
293.3327, 92.45853
293.8148, 82.05564
294.2969, 91.19930
294.7790, 71.79450
295.2611, 23.80990
295.7433, 9.084596
296.2254, 29.97426
296.7075, 116.8784
297.1896, 182.7827
297.6717, 212.3509
298.1538, 209.0659
298.6360, 158.0457
299.1181, 64.04925
299.6002, 14.28183
300.0823, 15.58347
300.5644, 28.44849
301.0465, 54.74763
301.5287, 30.13909
302.0108, 2.075071
302.4929, 37.34667
302.9750, 125.8809
303.4571, 204.5257
303.9392, 235.9782
304.4214, 230.9292
304.9035, 195.5931
305.3856, 107.9578
305.8677, 28.89616
306.3498, 26.36410
306.8319, 87.28764
307.3141, 139.1755
307.7962, 137.0007
308.2783, 115.4657
308.7604, 109.5039
309.2425, 127.8693
309.7246, 151.3742
310.2068, 178.8998
310.6889, 203.5608
311.1710, 206.4196
311.6531, 148.9783
312.1352, 85.26651
312.6173, 58.24860
313.0995, 84.97018
313.5816, 119.2444
314.0637, 141.3148
314.5458, 156.0592
315.0279, 172.8218
315.5100, 223.9272
315.9922, 256.9654
316.4743, 227.6718
316.9564, 108.5410
317.4385, 20.76477
317.9206, 35.98357
318.4027, 99.29884
318.8849, 133.9293
319.3670, 77.98814
319.8491, 26.22137
320.3312, 22.35347
320.8133, 80.64983
321.2954, 118.4893
321.7776, 93.75591
322.2597, 50.97892
322.7418, 38.57506
323.2239, 116.5814
323.7060, 172.5682
324.1881, 169.4846
324.6703, 101.0409
325.1524, 48.77525
325.6345, 25.21447
326.1166, 17.64554
326.5987, 15.87315
327.0808, 21.98707
327.5630, 31.31931
328.0451, 45.40107
328.5272, 63.82801
329.0093, 77.56693
329.4914, 74.16063
329.9735, 76.50374
330.4557, 103.4048
330.9378, 193.0434
331.4199, 237.3187
331.9020, 209.4623
332.3841, 128.9510
332.8662, 86.22063
333.3484, 101.5933
333.8305, 120.0398
334.3126, 108.1712
334.7947, 50.18834
335.2768, 11.17364
335.7589, 1.224760
336.2411, 4.715353
336.7232, 8.918190
337.2053, 10.26650
337.6874, 12.68402
338.1695, 18.72344
338.6516, 28.66209
339.1338, 36.78514
339.6159, 40.28391
340.0980, 45.85768
340.5801, 68.27398
341.0622, 111.1446
341.5443, 147.2850
342.0265, 168.1976
342.5086, 174.2573
342.9907, 169.4820
343.4728, 151.8324
343.9549, 130.9277
344.4370, 123.4375
344.9192, 128.2610
345.4013, 118.5643
345.8834, 66.67938
346.3655, 0.7714610
346.8476, 0.6677040
347.3297, 69.14497
347.8119, 140.5890
348.2940, 128.7716
348.7761, 64.00943
349.2582, 40.15976
349.7403, 107.2167
350.2225, 203.2409
350.7046, 246.2616
351.1867, 240.0433
351.6688, 203.8450
352.1509, 123.9410
352.6331, 30.10901
353.1152, 7.978465
353.5973, 5.506895
354.0794, 2.231009
354.5615, 8.063420
355.0436, 16.06024
355.5258, 2.090776
356.0079, 74.73145
356.4900, 150.8585
356.9721, 168.6393
357.4542, 99.33281
357.9363, 36.52020
358.4185, 46.15428
358.9006, 96.23576
359.3827, 132.8486
359.8648, 141.0494
360.3469, 126.3563
360.8290, 73.26808
361.3112, 11.41405
361.7933, 46.31166
362.2754, 11.88375
362.7575, 74.07512
363.2396, 148.3232
363.7217, 173.3195
364.2039, 168.0641
364.6860, 114.2251
365.1681, 11.41601
365.6502, 1.241777
366.1323, 15.13208
366.6144, 92.40333
367.0966, 124.0497
367.5787, 40.35094
368.0608, 6.003747
368.5429, 18.55521
369.0250, 95.44716
369.5071, 129.8316
369.9893, 93.00141
370.4714, 47.04649
370.9535, 21.85361
371.4356, 26.85437
371.9177, 29.51553
372.3998, 19.57534
372.8820, 12.28251
373.3641, 53.80275
373.8462, 176.4238
374.3283, 262.1826
374.8104, 244.4871
375.2925, 109.7194
375.7747, 44.09429
376.2568, 65.80506
376.7389, 119.7286
377.2210, 130.4783
377.7031, 95.20073
378.1852, 57.22573
378.6674, 22.64718
379.1495, 3.708695
379.6316, 10.64917
380.1137, 70.65350
380.5958, 124.4449
381.0779, 104.5879
381.5601, 29.11372
382.0422, 8.546048
382.5243, 27.99953
383.0064, 91.84394
383.4885, 97.65894
383.9706, 53.19266
384.4528, 14.04663
384.9349, 30.60563
385.4170, 74.01221
385.8991, 93.03006
386.3812, 73.05363
386.8633, 52.18847
387.3455, 76.42869
387.8276, 127.4559
388.3097, 164.0220
388.7918, 156.1155
389.2739, 130.6373
389.7560, 103.9343
390.2382, 76.12772
390.7203, 61.38994
391.2024, 73.80655
391.6845, 100.1798
392.1666, 127.4977
392.6487, 166.8989
393.1309, 189.4542
393.6130, 170.6452
394.0951, 115.0867
394.5772, 74.50436
395.0593, 68.36322
395.5414, 77.34679
396.0236, 89.39450
396.5057, 126.0122
396.9878, 138.2254
397.4699, 99.12184
397.9520, 29.15857
398.4341, 7.248352
398.9163, 10.53212
399.3984, 40.79275
399.8805, 74.08237
400.3626, 125.3645
400.8447, 138.2505
401.3268, 86.62487
401.8090, 13.72344
402.2911, 7.901094
402.7732, 10.56764
403.2553, 11.53512
403.7374, 39.31713
404.2195, 71.63422
404.7017, 86.68445
405.1838, 80.43164
405.6659, 68.51820
406.1480, 68.82893
406.6301, 81.98884
407.1122, 80.28502
407.5944, 53.23114
408.0765, 14.13971
408.5586, 5.448256
409.0407, 6.156916
409.5228, 1.339523
410.0049, 7.724697
410.4871, 16.46490
410.9692, 42.60449
411.4513, 93.95328
411.9334, 141.7293
412.4155, 146.6889
412.8976, 120.1552
413.3798, 95.93366
413.8619, 92.54359
414.3440, 95.58872
414.8261, 89.93430
415.3082, 75.29842
415.7903, 59.81637
416.2725, 52.74998
416.7546, 46.39227
417.2367, 31.65833
417.7188, 9.089615
418.2009, 4.366894
418.6830, 22.25474
419.1652, 21.68341
419.6473, 2.167519
420.1294, 70.20508
420.6115, 170.3846
421.0937, 208.9291
421.5758, 144.7860
422.0579, 90.29699
422.5400, 54.23949
423.0221, 37.17402
423.5042, 39.10843
423.9864, 101.6365
424.4685, 139.3749
424.9506, 118.8337
425.4327, 31.90071
425.9148, 2.824556
426.3969, 48.62468
426.8791, 114.9078
427.3612, 129.8081
427.8433, 72.49791
428.3254, 29.89079
428.8075, 17.93514
429.2896, 27.34462
429.7718, 25.23252
430.2539, 9.116400
430.7360, 5.179497
431.2181, 10.27591
431.7002, 3.946299
432.1823, 16.25643
432.6645, 58.23448
433.1466, 97.83548
433.6287, 89.64935
434.1108, 44.20337
434.5929, 14.74374
435.0750, 41.01456
435.5572, 89.31667
436.0393, 91.69489
436.5214, 50.53210
437.0035, 16.31778
437.4856, 47.01275
437.9677, 104.5438
438.4499, 134.8866
438.9320, 114.4580
439.4141, 80.46500
439.8962, 45.45499
440.3783, 16.89369
440.8604, 9.697731
441.3426, 49.07023
441.8247, 97.80805
442.3068, 138.6553
442.7889, 171.7567
443.2710, 186.8015
443.7531, 166.9069
444.2353, 133.0066
444.7174, 108.1630
445.1995, 106.1165
445.6816, 101.9703
446.1637, 92.49623
446.6458, 77.73506
447.1280, 57.15570
447.6101, 22.26979
448.0922, 9.067206
448.5743, 17.91736
449.0564, 6.070461
449.5385, 19.86208
450.0207, 25.09703
450.5028, 91.55817
450.9849, 124.0879
451.4670, 116.3992
451.9491, 104.4041
452.4312, 102.2216
452.9134, 107.9024
453.3955, 106.9232
453.8776, 98.85633
454.3597, 86.82072
454.8418, 70.38882
455.3239, 51.60545
455.8061, 40.32613
456.2882, 42.72418
456.7703, 47.17954
457.2524, 22.06477
457.7345, 22.19827
458.2166, 7.482903
458.6988, 13.05064
459.1809, 92.37344
459.6630, 138.2512
460.1451, 142.4645
460.6272, 128.2599
461.1093, 94.04250
461.5915, 54.00115
462.0736, 24.23787
462.5557, 12.64320
463.0378, 14.45117
463.5199, 45.55620
464.0020, 98.97394
464.4842, 125.7981
464.9663, 82.89200
465.4484, 34.68528
465.9305, 14.95535
466.4126, 35.07843
466.8947, 66.19720
467.3769, 128.3582
467.8590, 193.0903
468.3411, 209.9398
468.8232, 147.5932
469.3053, 100.2038
469.7874, 100.8754
470.2696, 145.0136
470.7517, 154.6880
471.2338, 120.8755
471.7159, 80.16085
472.1980, 68.84106
472.6801, 84.92789
473.1623, 89.77665
473.6444, 78.70783
474.1265, 67.69005
474.6086, 96.61420
475.0907, 156.7180
475.5728, 199.6720
476.0550, 195.1006
476.5371, 164.5879
477.0192, 145.9657
477.5013, 141.9779
477.9834, 134.0941
478.4655, 86.14422
478.9477, 30.23367
479.4298, 11.16021
479.9119, 79.95141
480.3940, 140.7671
480.8761, 126.8957
481.3582, 63.10283
481.8404, 21.85909
482.3225, 39.04417
482.8046, 69.97509
483.2867, 98.70650
483.7688, 126.1069
484.2509, 145.5906
484.7331, 155.2111
485.2152, 158.5494
485.6973, 155.2367
486.1794, 135.3187
486.6615, 123.4944
487.1436, 133.3537
487.6258, 155.6505
488.1079, 135.4631
488.5900, 47.84645
489.0721, 14.40977
489.5542, 26.65043
490.0363, 172.7127
490.5185, 230.5414
491.0006, 178.8461
491.4827, 91.46952
491.9648, 66.26685
492.4470, 92.29474
492.9291, 108.8736
493.4112, 82.92525
493.8933, 46.55120
494.3754, 55.18900
494.8575, 102.8505
495.3397, 151.1460
495.8218, 179.0990
496.3039, 188.7699
496.7860, 182.6986
497.2681, 157.8304
497.7502, 131.3768
498.2324, 99.00848
498.7145, 74.28471
499.1966, 75.36950
499.6787, 151.7707
500.1608, 210.2969
500.6429, 212.4129
501.1251, 161.6462
501.6072, 123.6449
502.0893, 113.8312
502.5714, 107.8730
503.0535, 92.91087
503.5356, 57.71439
504.0178, 40.17805
504.4999, 41.62608
504.9820, 59.75378
505.4641, 101.7252
505.9462, 177.3306
506.4283, 217.2483
506.9105, 189.0824
507.3926, 114.2042
507.8747, 79.91430
508.3568, 85.23403
508.8389, 107.4054
509.3210, 143.2621
509.8032, 183.2009
510.2853, 198.9875
510.7674, 184.1258
511.2495, 157.9128
511.7316, 136.8639
512.2137, 119.2489
512.6959, 101.6107
513.1780, 77.26939
513.6601, 56.70568
514.1422, 47.83248
514.6243, 49.59619
515.1064, 54.26241
515.5886, 61.34029
516.0707, 67.03882
516.5528, 73.46758
517.0349, 94.36924
517.5170, 80.52122
517.9991, 22.26470
518.4813, 87.61723
518.9634, 133.6088
519.4455, 61.10067
519.9276, 12.63374
520.4097, 15.44922
520.8918, 56.32543
521.3740, 68.92067
521.8561, 44.62557
522.3382, 19.82291
522.8203, 22.13774
523.3024, 49.32222
523.7845, 64.76868
524.2667, 65.54998
524.7488, 60.01393
525.2309, 61.20543
525.7130, 65.87377
526.1951, 61.03062
526.6772, 27.35571
527.1594, 3.635368
527.6415, 26.05875
528.1236, 98.76878
528.6057, 137.5453
529.0878, 45.33377
529.5699, 8.540421
530.0521, 34.62225
530.5342, 3.325386
531.0163, 70.73963
531.4984, 33.65406
531.9805, 17.44695
532.4626, 11.84856
532.9448, 6.429419
533.4269, 60.23230
533.9090, 69.88301
534.3911, 49.42453
534.8732, 55.05996
535.3553, 104.3295
535.8375, 147.4703
536.3196, 161.2831
536.8017, 145.0983
537.2838, 126.4658
537.7659, 104.1272
538.2480, 77.42493
538.7302, 34.65235
539.2123, 18.80764
539.6944, 11.24732
540.1765, 9.053364
540.6586, 38.13871
541.1407, 54.75276
541.6229, 45.22356
542.1050, 26.31948
542.5871, 22.62744
543.0692, 5.990829
543.5513, 17.10952
544.0334, 100.0574
544.5156, 187.0917
544.9977, 169.5011
545.4798, 115.1724
545.9619, 76.70703
546.4440, 69.05360
546.9261, 70.11783
547.4083, 97.38778
547.8904, 130.3908
548.3725, 137.8445
548.8546, 93.10438
549.3367, 67.98737
549.8188, 91.36000
550.3010, 156.9903
550.7831, 170.0811
551.2652, 118.6600
551.7473, 54.38711
552.2294, 4.914724
552.7115, 9.910095
553.1937, 14.16386
553.6758, 26.06013
554.1579, 85.79942
554.6400, 108.1596
555.1221, 104.0232
555.6042, 98.14311
556.0864, 97.85387
556.5685, 102.1579
557.0506, 112.8836
557.5327, 127.5658
558.0148, 136.4704
558.4969, 126.4371
558.9791, 115.6221
559.4612, 117.0081
559.9433, 135.2218
560.4254, 148.0877
560.9075, 146.7850
561.3896, 141.0523
561.8718, 139.6201
562.3539, 143.5664
562.8360, 150.5554
563.3181, 163.1534
563.8002, 177.1678
564.2823, 182.4993
564.7645, 177.8170
565.2466, 169.6672
565.7287, 160.7631
566.2108, 150.4409
566.6929, 127.5801
567.1750, 90.41347
567.6572, 70.25826
568.1393, 112.7472
568.6214, 187.7907
569.1035, 231.4861
569.5856, 230.1343
570.0677, 214.5362
570.5499, 210.3674
571.0320, 209.0538
571.5141, 197.1836
571.9962, 146.0513
572.4783, 107.1062
572.9604, 104.1473
573.4426, 132.4870
573.9247, 167.2544
574.4068, 222.4941
574.8889, 266.3351
575.3710, 283.4335
575.8531, 264.7517
576.3353, 244.3536
576.8174, 216.7404
577.2995, 209.7753
577.7816, 262.9273
578.2637, 386.2977
578.7458, 435.0859
579.2280, 368.1006
579.7101, 255.7516
580.1922, 223.2659
580.6743, 260.4881
581.1564, 306.7168
581.6385, 356.7185
582.1207, 388.8608
582.6028, 356.3896
583.0849, 268.1915
583.5670, 192.7744
584.0491, 169.0095
584.5313, 175.2560
585.0134, 203.2317
585.4955, 268.2865
585.9776, 302.0830
586.4597, 245.8326
586.9418, 166.5467
587.4240, 139.9091
587.9061, 226.1424
588.3882, 283.1957
588.8703, 284.5576
589.3524, 244.0480
589.8345, 195.5342
590.3167, 137.3877
590.7988, 90.13555
591.2809, 58.27787
591.7630, 40.74036
592.2451, 38.85507
592.7272, 53.45404
593.2094, 63.46695
593.6915, 39.86404
594.1736, 1.518818
594.6557, 14.16412
595.1378, 1.537443
595.6199, 28.41013
596.1021, 55.25145
596.5842, 82.66298
597.0663, 110.2130
597.5485, 154.7642
598.0306, 185.1790
598.5127, 185.2197
598.9948, 159.5042
599.4769, 130.5192
599.9590, 77.62022
600.4412, 47.14835
600.9233, 69.48004
601.4054, 152.7571
601.8875, 178.1399
602.3696, 128.5387
602.8517, 57.94934
603.3339, 6.108515
603.8160, 27.48380
604.2981, 17.90792
604.7802, 22.65068
605.2623, 0.3398530
605.7444, 9.924679
606.2266, 20.98048
606.7087, 19.98180
607.1908, 22.97425
607.6729, 92.28990
608.1550, 137.2621
608.6371, 158.6877
609.1193, 161.2854
609.6014, 122.0905
610.0835, 85.44007
610.5656, 80.88947
611.0477, 119.8040
611.5298, 121.2510
612.0120, 37.17493
612.4941, 19.88118
612.9762, 11.55728
613.4583, 40.58461
613.9404, 95.56285
614.4225, 97.15487
614.9047, 79.93482
615.3868, 101.4496
615.8689, 157.7501
616.3510, 189.3089
616.8331, 167.0109
617.3152, 126.9534
617.7974, 137.5643
618.2795, 186.2264
618.7616, 225.0686
619.2437, 223.0324
619.7258, 204.5122
620.2079, 181.8090
620.6901, 156.0903
621.1722, 141.7822
621.6543, 170.6231
622.1364, 193.8588
622.6185, 174.4336
623.1006, 74.01663
623.5828, 12.36192
624.0649, 4.003351
624.5470, 12.42213
625.0291, 54.26602
625.5112, 129.1025
625.9933, 190.5450
626.4755, 233.0465
626.9576, 252.9313
627.4397, 229.0860
627.9218, 167.5654
628.4039, 114.5415
628.8860, 95.06844
629.3682, 96.74455
629.8503, 105.0734
630.3324, 119.9883
630.8145, 147.3297
631.2966, 212.5972
631.7787, 276.0409
632.2609, 307.1060
632.7430, 294.8811
633.2251, 278.0005
633.7072, 266.7045
634.1893, 251.6900
634.6714, 223.6839
635.1536, 171.0844
635.6357, 132.2507
636.1178, 115.6635
636.5999, 108.3032
637.0820, 74.53329
637.5641, 11.82245
638.0463, 7.192669
638.5284, 60.85076
639.0105, 169.5821
639.4926, 238.3062
639.9747, 268.0970
640.4568, 264.1424
640.9390, 187.9420
641.4211, 106.9843
641.9032, 94.43729
642.3853, 155.2266
642.8674, 208.4670
643.3495, 231.5516
643.8317, 229.2030
644.3138, 201.2886
644.7959, 115.7730
645.2780, 66.93385
645.7601, 64.02095
646.2422, 89.57728
646.7244, 130.5850
647.2065, 193.3900
647.6886, 234.8999
648.1707, 242.8008
648.6528, 231.5967
649.1349, 227.4323
649.6171, 229.9285
650.0992, 236.5073
650.5813, 256.3015
651.0634, 274.6981
651.5455, 268.9307
652.0276, 241.6500
652.5098, 207.0792
652.9919, 163.5622
653.4740, 125.3203
653.9561, 101.7002
654.4382, 93.68592
654.9203, 99.69722
655.4025, 129.8556
655.8846, 166.4310
656.3667, 203.6413
656.8488, 251.4225
657.3309, 261.1222
657.8130, 218.2322
658.2952, 160.6031
658.7773, 147.1360
659.2594, 173.4966
659.7415, 187.8810
660.2236, 176.0665
660.7057, 147.6879
661.1879, 92.61083
661.6700, 26.51468
662.1521, 3.061609
662.6342, 93.00340
663.1163, 193.9272
663.5984, 240.0377
664.0806, 234.5029
664.5627, 219.9038
665.0448, 203.9913
665.5269, 184.3063
666.0090, 160.8135
666.4911, 133.8213
666.9733, 97.17376
667.4554, 38.47221
667.9375, 5.333681
668.4196, 12.44086
668.9017, 88.66669
669.3839, 111.5066
669.8660, 60.29251
670.3481, 3.919483
670.8302, 43.35690
671.3123, 140.1454
671.7944, 210.6185
672.2766, 230.1857
672.7587, 213.7732
673.2408, 135.1624
673.7229, 31.86119
674.2050, 24.12669
674.6871, 33.89001
675.1693, 91.38028
675.6514, 118.9925
676.1335, 120.9611
676.6156, 117.6140
677.0977, 108.2288
677.5798, 94.53219
678.0620, 69.51678
678.5441, 37.98970
679.0262, 60.87755
679.5083, 142.3899
679.9904, 205.8687
680.4725, 159.2284
680.9547, 64.26861
681.4368, 37.96576
681.9189, 100.4089
682.4010, 165.9708
682.8831, 174.0608
683.3652, 156.5266
683.8474, 146.2703
684.3295, 173.4485
684.8116, 171.6898
685.2937, 106.0178
685.7758, 17.54963
686.2579, 23.61311
686.7401, 17.09929
687.2222, 12.03896
687.7043, 8.204258
688.1864, 96.38887
688.6685, 155.0178
689.1506, 169.3702
689.6328, 165.8177
690.1149, 151.2348
690.5970, 131.7671
691.0791, 104.5735
691.5612, 74.86092
692.0433, 54.07093
692.5255, 43.03544
693.0076, 46.82478
693.4897, 79.77097
693.9718, 147.3194
694.4539, 183.1026
694.9360, 144.5818
695.4182, 103.3154
695.9003, 100.7712
696.3824, 152.7014
696.8645, 179.1282
697.3466, 175.6221
697.8287, 158.2063
698.3109, 143.9279
698.7930, 131.0095
699.2751, 105.9197
699.7572, 61.18995
700.2393, 23.28102
700.7214, 25.38828
701.2036, 52.24219
701.6857, 78.51458
702.1678, 97.68993
702.6499, 111.8579
703.1320, 118.3898
703.6141, 121.6956
704.0963, 135.7605
704.5784, 180.0282
705.0605, 205.3550
705.5426, 195.2760
706.0247, 158.2286
706.5068, 135.8808
706.9890, 131.6153
707.4711, 113.3075
707.9532, 48.15625
708.4353, 19.42820
708.9174, 30.79337
709.3995, 44.49223
709.8817, 29.83683
710.3638, 17.52806
710.8459, 57.55940
711.3280, 86.15506
711.8101, 58.75505
712.2922, 26.94136
712.7744, 28.44228
713.2565, 1.3310000E-03
713.7386, 19.41624
714.2207, 146.5099
714.7028, 215.3503
715.1849, 154.9411
715.6671, 54.48149
716.1492, 17.64547
716.6313, 36.67592
717.1134, 41.27950
717.5955, 18.55122
718.0776, 6.708090
718.5598, 6.588778
719.0419, 13.49125
719.5240, 45.13983
720.0061, 111.6383
720.4882, 153.7043
720.9703, 117.0133
721.4525, 40.54813
721.9346, 12.92123
722.4167, 115.3544
722.8988, 174.0611
723.3809, 133.2366
723.8630, 27.04888
724.3452, 2.580004
724.8273, 71.67458
725.3094, 137.0797
725.7915, 148.0531
726.2736, 124.2403
726.7557, 112.2831
727.2379, 111.1423
727.7200, 112.4897
728.2021, 117.4169
728.6842, 117.9606
729.1663, 101.2553
729.6484, 62.40595
730.1306, 46.72679
730.6127, 106.3444
731.0948, 165.7040
731.5769, 181.4501
732.0590, 139.6081
732.5411, 108.9125
733.0233, 90.04499
733.5054, 76.37271
733.9875, 65.42693
734.4696, 55.69761
734.9517, 32.03458
735.4338, 10.92154
735.9160, 2.892284
736.3981, 6.783957
736.8802, 10.94355
737.3623, 7.758733
737.8444, 21.75617
738.3266, 38.93496
738.8087, 33.41046
739.2908, 22.56155
739.7729, 32.69034
740.2551, 80.51038
740.7372, 121.1622
741.2193, 152.3607
741.7014, 171.4457
742.1835, 168.4406
742.6656, 143.0643
743.1478, 118.1486
743.6299, 98.47095
744.1120, 84.76207
744.5941, 84.02542
745.0762, 94.35892
745.5583, 110.4192
746.0405, 158.1038
746.5226, 182.3626
747.0047, 119.2098
747.4868, 6.912366
747.9689, 16.48294
748.4510, 48.84098
748.9332, 148.7651
749.4153, 193.1515
749.8974, 185.9164
750.3795, 171.9661
750.8616, 149.2304
751.3438, 135.5958
751.8259, 153.8360
752.3080, 187.1420
752.7901, 192.3619
753.2722, 169.7649
753.7543, 146.2635
754.2365, 129.8477
754.7186, 127.0877
755.2007, 150.8119
755.6828, 210.8755
756.1649, 245.4425
756.6470, 227.7788
757.1292, 196.7005
757.6113, 175.6532
758.0934, 169.2655
758.5755, 151.7994
759.0576, 122.3758
759.5397, 84.38931
760.0219, 24.26570
760.5040, 6.028387
760.9861, 24.99769
761.4682, 17.02559
761.9503, 45.67405
762.4324, 135.2444
762.9146, 216.9705
763.3967, 250.3525
763.8788, 184.4451
764.3609, 137.0646
764.8430, 144.9791
765.3251, 170.6009
765.8073, 170.6910
766.2894, 136.1866
766.7715, 107.2491
767.2536, 85.39843
767.7357, 70.95360
768.2178, 57.32189
768.7000, 46.77496
769.1821, 51.42294
769.6642, 86.90644
770.1463, 120.6083
770.6284, 112.7253
771.1105, 84.73695
771.5927, 72.73885
772.0748, 132.5292
772.5569, 157.5381
773.0390, 81.47633
773.5211, 3.741892
774.0032, 5.022107
774.4854, 132.2717
774.9675, 244.3895
775.4496, 215.0187
775.9317, 99.90360
776.4138, 25.99468
776.8959, 7.025051
777.3781, 13.20074
777.8602, 5.207104
778.3423, 40.23592
778.8244, 104.4948
779.3065, 184.6634
779.7886, 225.5741
780.2708, 168.2574
780.7529, 108.1863
781.2350, 75.07172
781.7171, 66.85506
782.1992, 63.49484
782.6813, 64.77791
783.1635, 75.92984
783.6456, 105.6771
784.1277, 146.8221
784.6098, 176.5407
785.0919, 192.9149
785.5740, 180.0034
786.0562, 76.96614
786.5383, 11.54440
787.0204, 9.250979
787.5025, 74.76557
787.9846, 151.4767
788.4667, 168.1052
788.9489, 158.9480
789.4310, 130.1922
789.9131, 79.68793
790.3952, 57.68296
790.8773, 70.59529
791.3594, 85.46788
791.8416, 62.69470
792.3237, 18.99867
792.8058, 17.36029
793.2879, 58.97822
793.7700, 82.18217
794.2521, 0.5299590
794.7343, 51.75650
795.2164, 44.50106
795.6985, 61.56016
796.1806, 145.4468
796.6627, 114.6688
797.1448, 62.87841
797.6270, 49.64219
798.1091, 80.60852
798.5912, 107.9610
799.0733, 133.4691
799.5554, 145.5392
800.0375, 119.1088
800.5197, 74.90046
801.0018, 55.62121
801.4839, 69.86875
801.9660, 85.66092
802.4481, 89.24943
802.9302, 82.39997
803.4124, 64.84492
803.8945, 25.76204
804.3766, 0.2315670
804.8587, 14.41879
805.3408, 14.72437
805.8229, 4.303467
806.3051, 47.74092
806.7872, 93.35336
807.2693, 141.9812
807.7514, 172.5420
808.2335, 145.6298
808.7156, 92.90440
809.1978, 64.84267
809.6799, 80.07722
810.1620, 92.73703
810.6441, 81.20496
811.1262, 59.45513
811.6083, 39.19862
812.0905, 8.633017
812.5726, 12.87159
813.0547, 68.71904
813.5368, 128.3355
814.0189, 119.2523
814.5010, 57.30529
814.9832, 44.63512
815.4653, 107.8317
815.9474, 171.3714
816.4295, 151.0045
816.9116, 96.39490
817.3937, 72.00359
817.8759, 118.7876
818.3580, 143.7171
818.8401, 111.4900
819.3222, 65.18752
819.8043, 45.65487
820.2864, 57.77032
820.7686, 57.32677
821.2507, 36.56256
821.7328, 14.09876
822.2149, 23.03000
822.6970, 48.31565
823.1791, 49.57333
823.6613, 6.467316
824.1434, 13.86810
824.6255, 5.285177
825.1076, 65.90145
825.5897, 122.9852
826.0718, 195.9375
826.5540, 229.9322
827.0361, 215.0829
827.5182, 173.5924
828.0003, 112.2186
828.4824, 32.29349
828.9645, 36.85660
829.4467, 160.3309
829.9288, 290.1134
830.4109, 292.0204
830.8930, 217.3020
831.3751, 137.7409
831.8572, 63.81325
832.3394, 18.47632
832.8215, 31.21713
833.3036, 60.23490
833.7857, 55.09437
834.2678, 8.110801
834.7499, 6.125712
835.2321, 3.856146
835.7142, 53.81416
836.1963, 49.03147
836.6784, 5.611771
837.1605, 10.64417
837.6426, 22.97567
838.1248, 57.22020
838.6069, 48.92931
839.0890, 21.52091
839.5711, 1.438534
840.0532, 4.861077
840.5353, 16.17428
841.0175, 73.90500
841.4996, 172.1167
841.9817, 171.2971
842.4638, 65.52397
842.9459, 23.44198
843.4280, 70.87537
843.9102, 130.8320
844.3923, 102.4591
844.8744, 34.37472
845.3565, 5.361954
845.8386, 35.74748
846.3207, 72.58601
846.8029, 119.4127
847.2850, 146.6455
847.7671, 123.1046
848.2492, 9.302391
848.7313, 0.8593290
849.2134, 20.41995
849.6956, 28.30546
850.1777, 53.95155
850.6598, 62.15660
851.1419, 80.03698
851.6240, 112.3079
852.1061, 132.7133
852.5883, 104.7611
853.0704, 65.60052
853.5525, 49.30317
854.0346, 59.50178
854.5167, 75.43352
854.9988, 104.8937
855.4810, 127.7718
855.9631, 128.5052
856.4452, 106.7582
856.9273, 76.88591
857.4094, 37.56438
857.8915, 13.01229
858.3737, 33.06559
858.8558, 76.24249
859.3379, 126.7670
859.8200, 185.1000
860.3021, 204.6048
860.7842, 116.7931
861.2664, 28.77032
861.7485, 7.638092
862.2306, 63.01878
862.7127, 76.57941
863.1948, 41.85411
863.6769, 4.575964
864.1591, 5.815382
864.6412, 2.872110
865.1233, 15.23549
865.6054, 30.60677
866.0875, 45.59143
866.5696, 67.05276
867.0518, 80.40877
867.5339, 69.15942
868.0160, 30.92191
868.4981, 17.89640
868.9802, 41.62912
869.4623, 66.43442
869.9445, 79.29834
870.4266, 81.52177
870.9087, 70.59686
871.3908, 48.49232
871.8729, 38.59101
872.3550, 61.67807
872.8372, 97.58165
873.3193, 138.8409
873.8014, 181.2095
874.2835, 202.3151
874.7656, 174.0009
875.2477, 153.0210
875.7299, 160.6363
876.2120, 182.2833
876.6941, 162.0083
877.1762, 99.98504
877.6583, 45.28995
878.1404, 21.45815
878.6226, 14.33342
879.1047, 2.739981
879.5869, 7.486241
880.0690, 0.8852960
880.5511, 71.00331
881.0332, 110.4897
881.5153, 58.45654
881.9974, 5.721523
882.4796, 22.27694
882.9617, 14.66588
883.4438, 27.32829
883.9259, 37.65070
884.4080, 37.57869
884.8901, 61.78412
885.3723, 101.8217
885.8544, 138.3555
886.3365, 164.5379
886.8186, 185.4429
887.3007, 199.3011
887.7828, 210.3391
888.2650, 226.8303
888.7471, 259.7201
889.2292, 262.4668
889.7113, 218.2703
890.1934, 172.3713
890.6755, 210.9782
891.1577, 297.1715
891.6398, 308.4077
892.1219, 209.5264
892.6040, 90.74756
893.0861, 15.09175
893.5682, 44.45143
894.0504, 65.11584
894.5325, 4.909327
895.0146, 7.253481
895.4967, 72.59029
895.9788, 122.9195
896.4609, 132.5419
896.9431, 108.1254
897.4252, 86.59431
897.9073, 68.59546
898.3894, 62.54774
898.8715, 73.73384
899.3536, 100.5491
899.8358, 155.1812
900.3179, 242.3214
900.8000, 294.0362
901.2821, 294.2903
901.7642, 273.3377
902.2463, 239.4012
902.7285, 195.1010
903.2106, 150.3013
903.6927, 106.5136
904.1748, 86.56208
904.6569, 141.0563
905.1390, 202.3361
905.6212, 179.0907
906.1033, 90.71478
906.5854, 19.21412
907.0675, 12.24649
907.5496, 14.65779
908.0317, 14.12702
908.5139, 64.26766
908.9960, 114.8296
909.4781, 165.5481
909.9602, 185.1194
910.4423, 144.6676
910.9244, 96.46996
911.4066, 105.8742
911.8887, 153.4817
912.3708, 202.9387
912.8529, 283.3438
913.3350, 304.0967
913.8171, 198.0159
914.2993, 62.95475
914.7814, 45.25709
915.2635, 157.4113
915.7456, 214.3508
916.2277, 181.7669
916.7098, 127.2632
917.1920, 137.3985
917.6741, 175.5849
918.1562, 186.4278
918.6383, 151.2902
919.1204, 114.5672
919.6025, 71.73483
920.0847, 47.10280
920.5668, 65.65523
921.0489, 139.2303
921.5310, 163.5557
922.0131, 132.0300
922.4952, 102.3676
922.9774, 132.7405
923.4595, 187.6840
923.9416, 223.7918
924.4237, 236.5925
924.9058, 213.5888
925.3879, 92.65957
925.8701, 5.410175
926.3522, 20.39392
926.8343, 35.94448
927.3164, 54.56429
927.7985, 31.90862
928.2806, 28.37030
928.7628, 84.51186
929.2449, 163.1964
929.7270, 218.9868
930.2091, 249.8007
930.6912, 251.8022
931.1733, 208.4094
931.6555, 152.9054
932.1376, 67.50901
932.6197, 13.43036
933.1018, 19.61174
933.5839, 62.00460
934.0660, 121.2578
934.5482, 137.5671
935.0303, 129.5176
935.5124, 114.1558
935.9945, 93.72750
936.4766, 67.60017
936.9587, 21.14085
937.4409, 8.262747
937.9230, 86.38684
938.4051, 176.5119
938.8872, 215.3479
939.3693, 191.8755
939.8514, 186.5545
940.3336, 202.7858
940.8157, 215.1665
941.2978, 181.7966
941.7799, 137.1339
942.2620, 150.5105
942.7441, 220.0591
943.2263, 248.3540
943.7084, 139.5750
944.1905, 42.27255
944.6726, 21.43523
945.1547, 63.57077
945.6368, 89.09708
946.1190, 97.89330
946.6011, 128.5881
947.0832, 230.6932
947.5653, 329.7997
948.0474, 296.7828
948.5295, 182.7705
949.0117, 106.7668
949.4938, 145.1880
949.9759, 179.1559
950.4580, 190.4191
950.9401, 183.8988
951.4222, 162.4276
951.9044, 127.3276
952.3865, 102.7120
952.8686, 90.31857
953.3507, 79.91345
953.8328, 58.46154
954.3149, 35.13462
954.7971, 18.12807
955.2792, 3.329517
955.7613, 19.59533
956.2434, 99.69461
956.7255, 176.5247
957.2076, 208.7729
957.6898, 197.5797
958.1719, 172.7379
958.6540, 134.6150
959.1361, 114.6522
959.6182, 155.7793
960.1003, 208.1173
960.5825, 240.2677
961.0646, 246.6877
961.5467, 201.4512
962.0288, 12.95313
962.5109, 46.74399
962.9930, 14.71911
963.4752, 152.9459
963.9573, 215.9624
964.4394, 188.1899
964.9215, 160.1738
965.4036, 167.7081
965.8857, 170.8160
966.3679, 111.2852
966.8500, 34.66243
967.3321, 5.301275
967.8142, 85.44000
968.2963, 110.0590
968.7784, 57.52561
969.2606, 8.890765
969.7427, 17.86366
970.2248, 5.406889
970.7069, 25.11870
971.1890, 33.94958
971.6711, 36.68450
972.1533, 36.07157
972.6354, 32.11470
973.1175, 17.00141
973.5996, 7.881611
974.0817, 2.859404
974.5638, 62.06502
975.0460, 111.1025
975.5281, 123.0236
976.0102, 112.3911
976.4923, 98.36385
976.9744, 87.52388
977.4565, 99.19540
977.9387, 187.2613
978.4208, 246.7888
978.9029, 212.5467
979.3850, 139.9281
979.8671, 107.8145
980.3492, 124.7633
980.8314, 133.8132
981.3135, 128.0971
981.7956, 118.8093
982.2777, 122.7720
982.7598, 124.5819
983.2419, 85.74696
983.7241, 9.749584
984.2062, 23.38255
984.6883, 15.13709
985.1704, 102.4325
985.6525, 162.7099
986.1346, 197.1635
986.6168, 198.5736
987.0989, 167.5927
987.5810, 125.4121
988.0631, 67.45768
988.5452, 17.81915
989.0273, 6.417486
989.5095, 3.952676
989.9916, 31.20316
990.4737, 159.3916
990.9558, 218.4884
991.4379, 163.4671
991.9200, 72.60925
992.4022, 75.27691
992.8843, 146.6700
993.3664, 194.7619
993.8485, 201.8338
994.3306, 184.1454
994.8127, 120.0504
995.2949, 58.89775
995.7770, 55.72899
996.2591, 121.3467
996.7412, 138.2724
997.2233, 92.45934
997.7054, 48.49532
998.1876, 49.93366
998.6697, 79.05929
999.1518, 101.0633
999.6339, 116.1020
1000.116, 125.8861
1000.598, 150.6855
1001.080, 147.0975
1001.562, 63.01291
1002.044, 9.962686
1002.527, 9.608095
1003.009, 74.86395
1003.491, 133.6153
1003.973, 94.90535
1004.455, 25.96812
1004.937, 13.14149
1005.419, 3.319151
1005.901, 2.678560
1006.384, 8.385979
1006.866, 9.644494
1007.348, 34.36036
1007.830, 94.42716
1008.312, 142.6770
1008.794, 178.7506
1009.276, 205.8275
1009.758, 221.9391
1010.240, 212.6477
1010.723, 133.6409
1011.205, 61.95762
1011.687, 58.87143
1012.169, 99.81200
1012.651, 112.6581
1013.133, 78.45294
1013.615, 73.17927
1014.097, 118.0203
1014.580, 167.8365
1015.062, 143.6990
1015.544, 83.64682
1016.026, 66.48982
1016.508, 116.0549
1016.990, 152.8106
1017.472, 136.5734
1017.954, 105.2497
1018.436, 75.88627
1018.919, 49.01825
1019.401, 41.42693
1019.883, 53.21383
1020.365, 60.96493
1020.847, 64.57288
1021.329, 58.81098
1021.811, 26.76737
1022.293, 15.26915
1022.776, 11.31965
1023.258, 16.77091
1023.740, 7.747206
1024.222, 43.08746
1024.704, 119.5036
1025.186, 146.4581
1025.668, 136.3925
1026.150, 134.0958
1026.632, 147.6577
1027.115, 144.1961
1027.597, 75.46277
1028.079, 9.617039
1028.561, 4.361973
1029.043, 30.95169
1029.525, 50.11256
1030.007, 50.15189
1030.489, 54.72202
1030.972, 79.32298
1031.454, 108.8704
1031.936, 126.1953
1032.418, 132.8028
1032.900, 134.0019
1033.382, 128.9761
1033.864, 117.5900
1034.346, 104.0903
1034.828, 85.23832
1035.311, 46.49136
1035.793, 4.857652
1036.275, 11.84440
1036.757, 30.35562
1037.239, 69.61766
1037.721, 64.87926
1038.203, 47.46462
1038.685, 16.66673
1039.167, 16.49881
1039.650, 61.89504
1040.132, 301.8978
1040.614, 420.3534
1041.096, 275.4256
1041.578, 35.27345
1042.060, 7.758261
1042.542, 18.37839
1043.024, 26.25975
1043.507, 70.34375
1043.989, 107.0229
1044.471, 138.8266
1044.953, 161.0208
1045.435, 171.4996
1045.917, 169.9468
1046.399, 140.7805
1046.881, 85.51024
1047.364, 52.60090
1047.846, 119.7461
1048.328, 178.3322
1048.810, 118.8807
1049.292, 18.17266
1049.774, 0.6651710
1050.256, 85.39912
1050.738, 182.7002
1051.220, 209.6495
1051.703, 184.5573
1052.185, 97.94725
1052.667, 1.753059
1053.149, 13.53076
1053.631, 62.96735
1054.113, 128.4846
1054.595, 124.9233
1055.077, 99.00883
1055.559, 67.66090
1056.042, 33.78991
1056.524, 24.41855
1057.006, 41.52338
1057.488, 68.53408
1057.970, 117.9117
1058.452, 151.9568
1058.934, 125.1344
1059.416, 76.64668
1059.899, 76.55943
1060.381, 151.2311
1060.863, 191.5987
1061.345, 189.9308
1061.827, 155.1491
1062.309, 51.00380
1062.791, 18.23980
1063.273, 17.68891
1063.755, 56.06689
1064.238, 152.3065
1064.720, 183.4108
1065.202, 202.6897
1065.684, 222.7029
1066.166, 240.2392
1066.648, 246.4982
1067.130, 241.8312
1067.612, 228.4335
1068.094, 205.4068
1068.577, 177.9738
1069.059, 148.3102
1069.541, 115.8926
1070.023, 76.99046
1070.505, 25.93990
1070.987, 0.7603490
1071.469, 1.536673
1071.951, 24.77712
1072.434, 90.10351
1072.916, 160.9533
1073.398, 206.1526
1073.880, 217.9008
1074.362, 192.2155
1074.844, 75.71766
1075.326, 11.02457
1075.808, 25.43310
1076.291, 79.79876
1076.773, 143.4147
1077.255, 200.0776
1077.737, 185.4983
1078.219, 86.06756
1078.701, 7.414621
1079.183, 4.875027
1079.665, 39.01129
1080.147, 102.4940
1080.630, 183.6227
1081.112, 197.9197
1081.594, 149.0352
1082.076, 114.1295
1082.558, 123.9389
1083.040, 150.1589
1083.522, 191.8210
1084.004, 223.6841
1084.486, 203.3666
1084.969, 83.62653
1085.451, 42.39987
1085.933, 95.77908
1086.415, 166.6411
1086.897, 217.0253
1087.379, 236.2693
1087.861, 183.2131
1088.343, 77.08345
1088.826, 0.8192140
1089.308, 3.483479
1089.790, 5.986109
1090.272, 17.77227
1090.754, 19.01240
1091.236, 3.991699
1091.718, 92.37948
1092.200, 126.9013
1092.682, 88.82239
1093.165, 52.08381
1093.647, 65.32560
1094.129, 91.96082
1094.611, 116.6021
1095.093, 135.7831
1095.575, 126.1487
1096.057, 85.73786
1096.539, 65.21453
1097.022, 90.63450
1097.504, 128.0854
1097.986, 147.4038
1098.468, 149.1600
1098.950, 131.3147
1099.432, 81.02756
1099.914, 38.58808
1100.396, 0.3423880
1100.879, 4.768421
1101.361, 69.40587
1101.843, 176.5420
1102.325, 231.8275
1102.807, 241.4500
1103.289, 231.1125
1103.771, 193.6470
1104.253, 158.7786
1104.735, 128.8253
1105.218, 106.7070
1105.700, 106.6327
1106.182, 119.9735
1106.664, 99.77958
1107.146, 38.70433
1107.628, 22.18100
1108.110, 14.47461
1108.592, 39.94349
1109.074, 24.47694
1109.557, 75.75014
1110.039, 151.5057
1110.521, 177.0096
1111.003, 184.0688
1111.485, 190.1899
1111.967, 170.6482
1112.449, 54.16516
1112.931, 3.236740
1113.414, 20.06063
1113.896, 19.52334
1114.378, 112.2452
1114.860, 190.2495
1115.342, 214.2671
1115.824, 128.1981
1116.306, 3.294567
1116.788, 16.15832
1117.271, 5.007946
1117.753, 23.42729
1118.235, 26.15322
1118.717, 79.12192
1119.199, 98.97112
1119.681, 96.54057
1120.163, 71.80312
1120.645, 31.49740
1121.127, 3.632668
1121.609, 5.773151
1122.092, 9.337246
1122.574, 100.2457
1123.056, 157.1480
1123.538, 128.9777
1124.020, 59.92622
1124.502, 40.84919
1124.984, 65.17632
1125.466, 72.50139
1125.949, 48.23849
1126.431, 37.09457
1126.913, 99.88993
1127.395, 161.8981
1127.877, 156.5644
1128.359, 95.05677
1128.841, 79.57211
1129.323, 114.4507
1129.806, 112.7421
1130.288, 8.109840
1130.770, 7.930456
1131.252, 74.80363
1131.734, 292.4738
1132.216, 365.9082
1132.698, 213.9193
1133.180, 141.2768
1133.662, 168.1008
1134.145, 193.6060
1134.627, 121.6521
1135.109, 29.51277
1135.591, 68.00581
1136.073, 184.2634
1136.555, 242.6488
1137.037, 144.3183
1137.519, 75.33482
1138.001, 46.37118
1138.484, 49.28179
1138.966, 90.95355
1139.448, 154.3074
1139.930, 201.9226
1140.412, 231.1779
1140.894, 236.1561
1141.376, 190.5837
1141.858, 151.8521
1142.341, 129.2789
1142.823, 125.6979
1143.305, 152.0119
1143.787, 200.1777
1144.269, 232.8772
1144.751, 243.2687
1145.233, 245.0673
1145.715, 241.9058
1146.198, 236.6119
1146.680, 230.8383
1147.162, 224.6426
1147.644, 207.5825
1148.126, 181.0468
1148.608, 186.6725
1149.090, 260.4784
1149.572, 323.4661
1150.054, 316.1540
1150.536, 269.6200
1151.019, 200.4581
1151.501, 107.8892
1151.983, 72.58258
1152.465, 97.74494
1152.947, 135.6802
1153.429, 161.3090
1153.911, 187.3294
1154.393, 240.3541
1154.876, 297.1166
1155.358, 311.6844
1155.840, 263.6175
1156.322, 233.1034
1156.804, 223.5140
1157.286, 221.2189
1157.768, 213.4024
1158.250, 207.3991
1158.733, 224.0978
1159.215, 253.3506
1159.697, 254.3292
1160.179, 203.7565
1160.661, 164.6130
1161.143, 146.4358
1161.625, 133.2432
1162.107, 105.2499
1162.589, 75.01141
1163.072, 55.62867
1163.554, 49.18481
1164.036, 66.40113
1164.518, 131.9510
1165.000, 182.6377
1165.482, 197.7036
1165.964, 195.3238
1166.446, 219.9297
1166.928, 268.4785
1167.411, 326.5745
1167.893, 401.7449
1168.375, 399.9234
1168.857, 204.8538
1169.339, 34.07727
1169.821, 27.43333
1170.303, 7.365505
1170.785, 35.48392
1171.268, 90.00172
1171.750, 116.7895
1172.232, 74.75948
1172.714, 58.03905
1173.196, 133.1905
1173.678, 218.2756
1174.160, 265.9357
1174.642, 277.9008
1175.125, 262.9095
1175.607, 227.8412
1176.089, 200.5554
1176.571, 197.7395
1177.053, 197.1512
1177.535, 181.4507
1178.017, 169.7739
1178.499, 189.0123
1178.981, 238.6274
1179.464, 234.0981
1179.946, 178.7054
1180.428, 135.3515
1180.910, 145.1701
1181.392, 175.2741
1181.874, 233.5989
1182.356, 288.5839
1182.838, 287.3033
1183.320, 227.5397
1183.803, 169.9835
1184.285, 118.5719
1184.767, 99.09006
1185.249, 156.5642
1185.731, 227.3296
1186.213, 282.4819
1186.695, 312.5664
1187.177, 282.1358
1187.660, 184.8132
1188.142, 147.2979
1188.624, 186.3396
1189.106, 229.6736
1189.588, 211.1624
1190.070, 164.4789
1190.552, 96.13551
1191.034, 19.14336
1191.516, 13.54014
1191.999, 87.43783
1192.481, 158.1027
1192.963, 217.6546
1193.445, 255.9425
1193.927, 266.6100
1194.409, 249.7109
1194.891, 183.3413
1195.373, 65.72822
1195.855, 51.30966
1196.338, 156.3048
1196.820, 222.2733
1197.302, 174.6311
1197.784, 87.80886
1198.266, 6.573448
1198.748, 0.9737260
1199.230, 20.07807
1199.712, 90.33320
1200.195, 143.2269
1200.677, 124.7098
1201.159, 100.3105
1201.641, 100.8237
1202.123, 117.9052
1202.605, 158.6722
1203.087, 203.3420
1203.569, 218.7340
1204.052, 193.3600
1204.534, 167.7387
1205.016, 141.6900
1205.498, 112.3951
1205.980, 81.99012
1206.462, 43.50622
1206.944, 21.78302
1207.426, 104.0358
1207.908, 127.2793
1208.391, 48.53128
1208.873, 14.00154
1209.355, 39.73458
1209.837, 86.87119
1210.319, 153.5435
1210.801, 203.2904
1211.283, 163.4973
1211.765, 70.77329
1212.247, 15.70021
1212.730, 99.32228
1213.212, 132.2900
1213.694, 92.86024
1214.176, 38.44859
1214.658, 0.0000000E+00
##END=



