##NAMES=Cosalite
##RRUFFID=R060988
##IDEAL CHEMISTRY=Pb^2+^_2_Bi^3+^_2_S^2-^_5_
##LOCALITY=San Nicolas mine, Badajoz Provence, Spain
##OWNER=RRUFF
##SOURCE=Bob Jenkins
##DESCRIPTION=Silver metallic prismatic crystals, exterior tarnish steel-blue, associated with quartz and yellowish-green crystals of a Bi oxide.
##STATUS=The identification of this mineral has been confirmed only by single crystal X-ray diffraction.
##URL=rruff.info/R060988
121.5281, 0.0000000E+00
122.0102, 105.9402
122.4923, 6.474609
122.9744, 22.85620
123.4565, 86.56787
123.9386, 304.4836
124.4208, 616.3237
124.9029, 1032.055
125.3850, 1538.014
125.8671, 2084.512
126.3492, 2703.344
126.8313, 3320.979
127.3135, 3913.054
127.7956, 4474.381
128.2777, 4980.715
128.7598, 5362.248
129.2419, 5628.050
129.7240, 6017.485
130.2061, 6616.829
130.6883, 7281.036
131.1704, 8167.936
131.6525, 9150.875
132.1346, 9744.926
132.6167, 9327.257
133.0988, 7710.280
133.5810, 6352.425
134.0631, 5473.367
134.5452, 4740.907
135.0273, 4034.452
135.5094, 3339.486
135.9915, 2705.111
136.4737, 2184.807
136.9558, 1787.068
137.4379, 1494.723
137.9200, 1333.317
138.4021, 1246.593
138.8842, 1226.438
139.3664, 1262.004
139.8485, 1321.337
140.3306, 1356.013
140.8127, 1334.947
141.2948, 1355.980
141.7769, 1404.978
142.2591, 1495.367
142.7412, 1642.623
143.2233, 1847.661
143.7054, 2093.731
144.1875, 2350.854
144.6696, 2608.108
145.1518, 2897.565
145.6339, 3270.234
146.1160, 3642.595
146.5981, 3938.742
147.0802, 4137.272
147.5623, 4279.765
148.0445, 4448.154
148.5266, 4761.971
149.0087, 4924.757
149.4908, 4890.072
149.9729, 4730.255
150.4550, 4492.289
150.9371, 4191.518
151.4193, 3867.937
151.9014, 3602.877
152.3835, 3438.541
152.8656, 3279.104
153.3477, 3124.158
153.8298, 2969.754
154.3120, 2805.167
154.7941, 2624.904
155.2762, 2445.804
155.7583, 2312.023
156.2404, 2224.471
156.7225, 2181.460
157.2047, 2212.369
157.6868, 2271.632
158.1689, 2286.710
158.6510, 2223.798
159.1331, 2134.022
159.6152, 2147.937
160.0974, 2310.445
160.5795, 2477.965
161.0616, 2647.322
161.5437, 2795.708
162.0258, 2867.096
162.5079, 2832.118
162.9901, 2721.646
163.4722, 2600.314
163.9543, 2471.574
164.4364, 2334.097
164.9185, 2176.793
165.4007, 2006.890
165.8828, 1857.424
166.3649, 1741.544
166.8470, 1653.378
167.3291, 1583.867
167.8112, 1537.464
168.2934, 1497.505
168.7755, 1462.843
169.2576, 1435.233
169.7397, 1407.531
170.2218, 1379.087
170.7039, 1347.709
171.1861, 1297.971
171.6682, 1228.110
172.1503, 1157.401
172.6324, 1094.215
173.1145, 1037.795
173.5966, 984.4946
174.0788, 935.1514
174.5609, 886.0649
175.0430, 829.3813
175.5251, 757.8936
176.0072, 693.7148
176.4893, 657.1479
176.9714, 642.1733
177.4536, 619.3066
177.9357, 573.4263
178.4178, 518.8823
178.8999, 479.1694
179.3820, 446.0820
179.8641, 416.2534
180.3463, 378.2344
180.8284, 336.3472
181.3105, 306.2544
181.7926, 295.7124
182.2747, 297.1328
182.7568, 301.9536
183.2390, 313.8364
183.7211, 314.1123
184.2032, 278.8560
184.6853, 214.8955
185.1674, 170.0903
185.6495, 170.7173
186.1317, 185.6646
186.6138, 172.3540
187.0959, 124.4888
187.5780, 81.56787
188.0601, 78.49463
188.5422, 108.8101
189.0244, 127.2329
189.5065, 123.1030
189.9886, 98.69287
190.4707, 54.58936
190.9528, 11.67969
191.4349, 72.80469
191.9171, 110.8291
192.3992, 127.0464
192.8813, 130.0889
193.3634, 116.6016
193.8455, 94.84473
194.3276, 70.72607
194.8098, 44.06494
195.2919, 23.59326
195.7740, 18.75195
196.2561, 27.14746
196.7382, 32.05225
197.2203, 27.11719
197.7025, 21.34912
198.1846, 26.09424
198.6667, 40.94238
199.1488, 49.32373
199.6309, 32.23242
200.1130, 4.438965
200.5951, 22.21826
201.0773, 1.008301
201.5594, 23.12012
202.0415, 14.51465
202.5236, 23.04834
203.0057, 52.63965
203.4878, 42.15430
203.9700, 1.158203
204.4521, 21.82861
204.9342, 11.72998
205.4163, 4.601563
205.8984, 9.788086
206.3805, 4.086914
206.8627, 11.87695
207.3448, 48.01904
207.8269, 96.20898
208.3090, 124.1689
208.7911, 121.6118
209.2732, 109.6699
209.7554, 103.6006
210.2375, 101.5493
210.7196, 97.28174
211.2017, 84.44580
211.6838, 66.73047
212.1659, 55.76611
212.6481, 54.21191
213.1302, 55.38184
213.6123, 64.18994
214.0944, 73.29980
214.5765, 63.14746
215.0586, 0.2236330
215.5408, 85.60791
216.0229, 117.6465
216.5050, 75.84863
216.9871, 27.60010
217.4692, 18.52344
217.9513, 32.22949
218.4335, 39.55322
218.9156, 17.75732
219.3977, 12.01074
219.8798, 5.311035
220.3619, 49.92261
220.8440, 101.3333
221.3262, 114.4167
221.8083, 105.6111
222.2904, 95.41870
222.7725, 86.23560
223.2546, 81.77515
223.7367, 91.08423
224.2189, 117.5242
224.7010, 139.1741
225.1831, 143.9421
225.6652, 137.0984
226.1473, 123.3479
226.6294, 100.4292
227.1115, 75.52979
227.5937, 54.88721
228.0758, 38.31665
228.5579, 29.22607
229.0400, 30.35620
229.5221, 40.03345
230.0042, 56.75952
230.4864, 82.31812
230.9685, 110.2991
231.4506, 138.2078
231.9327, 165.5923
232.4148, 184.2734
232.8969, 187.7209
233.3791, 183.1045
233.8612, 182.7688
234.3433, 190.0918
234.8254, 189.2480
235.3075, 153.8613
235.7896, 94.31494
236.2718, 71.86694
236.7539, 120.8359
237.2360, 192.3623
237.7181, 224.0007
238.2002, 212.4702
238.6823, 200.4885
239.1645, 217.1599
239.6466, 250.5271
240.1287, 264.1125
240.6108, 243.3474
241.0929, 215.2266
241.5750, 212.1387
242.0572, 232.0908
242.5393, 252.3547
243.0214, 268.7493
243.5035, 279.5286
243.9856, 276.8718
244.4677, 255.4792
244.9499, 236.7314
245.4320, 249.4832
245.9141, 288.4526
246.3962, 318.3767
246.8783, 326.2334
247.3604, 323.5120
247.8426, 324.8948
248.3247, 332.5198
248.8068, 335.2197
249.2889, 317.3433
249.7710, 283.2598
250.2531, 263.5850
250.7352, 274.7649
251.2174, 291.8721
251.6995, 291.5869
252.1816, 275.6033
252.6637, 265.4111
253.1458, 276.3904
253.6279, 304.3999
254.1101, 325.3252
254.5922, 338.0098
255.0743, 344.9812
255.5564, 348.1064
256.0385, 346.2397
256.5207, 334.8523
257.0028, 310.5481
257.4849, 279.0151
257.9670, 255.7490
258.4491, 238.3281
258.9312, 229.3359
259.4134, 232.9661
259.8955, 244.3542
260.3776, 257.4902
260.8597, 272.2820
261.3418, 282.4736
261.8239, 270.3813
262.3060, 215.4189
262.7881, 180.7224
263.2703, 183.8821
263.7524, 203.4958
264.2345, 220.5996
264.7166, 230.3813
265.1987, 230.9253
265.6808, 217.2249
266.1630, 179.7327
266.6451, 160.1245
267.1272, 171.0691
267.6093, 187.8557
268.0914, 195.1680
268.5735, 191.8840
269.0557, 182.6392
269.5378, 169.9294
270.0199, 151.8425
270.5020, 136.9358
270.9841, 114.0439
271.4662, 103.1519
271.9484, 127.2229
272.4305, 173.9497
272.9126, 208.5254
273.3947, 199.3660
273.8768, 151.0911
274.3589, 137.7202
274.8411, 213.7556
275.3232, 265.7119
275.8053, 249.3140
276.2874, 200.6426
276.7695, 175.7263
277.2516, 203.3347
277.7338, 264.8892
278.2159, 299.9241
278.6980, 287.0393
279.1801, 275.0242
279.6622, 262.2983
280.1443, 256.3772
280.6265, 268.5491
281.1086, 301.1848
281.5907, 339.3208
282.0728, 359.4128
282.5549, 357.6179
283.0370, 348.0964
283.5192, 319.1401
284.0013, 292.9226
284.4834, 287.0667
284.9655, 300.3909
285.4476, 313.4702
285.9297, 306.9390
286.4119, 279.7144
286.8940, 247.6265
287.3761, 195.4343
287.8582, 155.6379
288.3403, 149.1357
288.8224, 166.9033
289.3046, 183.6611
289.7867, 179.7229
290.2688, 162.3330
290.7509, 160.7695
291.2330, 183.4741
291.7151, 205.9888
292.1973, 220.9688
292.6794, 227.2214
293.1615, 221.4124
293.6436, 197.6440
294.1257, 167.9570
294.6078, 149.7217
295.0900, 143.9946
295.5721, 140.7664
296.0542, 138.0264
296.5363, 134.5308
297.0184, 130.0112
297.5005, 125.3672
297.9827, 116.4487
298.4648, 94.02344
298.9469, 62.30615
299.4290, 43.27637
299.9111, 46.98730
300.3932, 59.18872
300.8754, 60.49658
301.3575, 50.58350
301.8396, 45.05127
302.3217, 58.56885
302.8038, 77.10107
303.2859, 73.91382
303.7681, 42.58423
304.2502, 10.68481
304.7323, 7.100830
305.2144, 31.95117
305.6965, 49.01099
306.1786, 50.40430
306.6608, 46.88477
307.1429, 45.77197
307.6250, 47.60596
308.1071, 49.99170
308.5892, 51.20801
309.0714, 51.32910
309.5535, 50.99487
310.0356, 52.04346
310.5177, 51.10083
310.9998, 43.88550
311.4819, 34.61816
311.9640, 30.01318
312.4461, 32.57983
312.9283, 41.10034
313.4104, 53.10449
313.8925, 78.23145
314.3746, 92.49976
314.8567, 91.85107
315.3388, 83.20166
315.8210, 67.51135
316.3031, 47.35132
316.7852, 32.88257
317.2673, 39.68982
317.7494, 78.60657
318.2315, 90.30908
318.7137, 52.40186
319.1958, 10.52368
319.6779, 22.92578
320.1600, 45.30505
320.6421, 54.74280
321.1242, 47.37549
321.6064, 26.72412
322.0885, 15.20142
322.5706, 17.74146
323.0527, 22.88208
323.5348, 33.56006
324.0169, 42.76172
324.4991, 40.30347
324.9812, 21.09631
325.4633, 4.366943
325.9454, 17.65979
326.4275, 15.00195
326.9096, 19.31140
327.3918, 38.31970
327.8739, 65.44519
328.3560, 102.8907
328.8381, 149.8163
329.3202, 183.6370
329.8023, 177.9114
330.2845, 142.2952
330.7666, 120.8756
331.2487, 122.7462
331.7308, 131.5880
332.2129, 134.7047
332.6950, 133.6688
333.1772, 133.5260
333.6593, 135.2135
334.1414, 138.8760
334.6235, 144.5391
335.1056, 152.2516
335.5877, 162.9194
336.0699, 179.1285
336.5520, 198.2480
337.0341, 211.2125
337.5162, 216.1642
337.9983, 217.6930
338.4804, 214.2101
338.9626, 209.0170
339.4447, 210.4154
339.9268, 222.1515
340.4089, 237.2700
340.8910, 243.5114
341.3731, 236.4974
341.8553, 229.7189
342.3374, 223.4371
342.8195, 217.7469
343.3016, 212.1626
343.7837, 207.0011
344.2658, 204.2576
344.7480, 206.6053
345.2301, 214.7509
345.7122, 216.7373
346.1943, 203.3169
346.6764, 194.0146
347.1585, 201.1649
347.6407, 215.4529
348.1228, 219.1073
348.6049, 201.7977
349.0870, 173.9459
349.5691, 164.8853
350.0512, 185.6421
350.5334, 203.7928
351.0155, 215.1022
351.4976, 221.9823
351.9797, 224.3518
352.4618, 222.8698
352.9439, 222.1628
353.4261, 230.1371
353.9082, 246.6780
354.3903, 252.5684
354.8724, 240.7968
355.3545, 225.1367
355.8366, 210.4634
356.3188, 198.6042
356.8009, 194.1233
357.2830, 207.3069
357.7651, 225.9550
358.2472, 226.5415
358.7293, 206.7866
359.2115, 188.4813
359.6936, 182.2916
360.1757, 185.9869
360.6578, 194.0321
361.1399, 212.1040
361.6220, 221.0618
362.1041, 201.7173
362.5862, 167.3164
363.0684, 147.9841
363.5505, 153.1537
364.0326, 166.2229
364.5147, 162.3198
364.9968, 132.3752
365.4789, 125.6925
365.9611, 161.0330
366.4432, 208.2546
366.9253, 255.3055
367.4074, 295.8271
367.8895, 314.5227
368.3716, 296.3562
368.8538, 245.8293
369.3359, 215.9690
369.8180, 226.1877
370.3001, 235.3666
370.7822, 235.5677
371.2643, 232.1440
371.7465, 232.5264
372.2286, 238.9086
372.7107, 247.2167
373.1928, 251.4850
373.6749, 251.3030
374.1570, 247.4314
374.6392, 239.5443
375.1213, 229.0204
375.6034, 211.4541
376.0855, 189.9313
376.5676, 176.8358
377.0497, 187.3549
377.5319, 212.5847
378.0140, 221.4543
378.4961, 211.1691
378.9782, 196.1617
379.4603, 176.4214
379.9424, 157.8115
380.4246, 150.7570
380.9067, 162.9878
381.3888, 174.2424
381.8709, 163.1796
382.3530, 136.4111
382.8351, 123.7201
383.3173, 139.3612
383.7994, 159.6997
384.2815, 145.6021
384.7636, 93.92847
385.2457, 59.61707
385.7278, 66.80298
386.2100, 85.79492
386.6921, 87.69250
387.1742, 72.36670
387.6563, 59.49377
388.1384, 64.24219
388.6205, 83.97424
389.1027, 94.21082
389.5848, 84.60229
390.0669, 78.73950
390.5490, 83.89624
391.0311, 93.93665
391.5132, 103.7632
391.9954, 111.1322
392.4775, 112.1884
392.9596, 97.78125
393.4417, 58.17310
393.9238, 34.25684
394.4059, 39.34656
394.8881, 48.39014
395.3702, 50.14697
395.8523, 46.63904
396.3344, 46.08020
396.8165, 54.58655
397.2986, 68.92053
397.7808, 80.12573
398.2629, 87.35083
398.7450, 94.18738
399.2271, 107.5809
399.7092, 118.3386
400.1913, 112.6986
400.6735, 84.64856
401.1556, 59.79053
401.6377, 57.71362
402.1198, 71.70520
402.6019, 86.36926
403.0840, 100.0372
403.5662, 107.5973
404.0483, 100.2373
404.5304, 77.57410
405.0125, 65.17639
405.4946, 72.48792
405.9767, 83.05042
406.4589, 88.19727
406.9410, 88.06836
407.4231, 83.96875
407.9052, 76.10657
408.3873, 67.96960
408.8694, 69.28015
409.3516, 89.49512
409.8336, 105.6306
410.3158, 124.6154
410.7979, 134.3983
411.2800, 116.7120
411.7621, 76.05798
412.2442, 41.56165
412.7263, 42.93579
413.2085, 77.93237
413.6906, 100.9686
414.1727, 109.7584
414.6548, 109.2384
415.1369, 93.61340
415.6190, 73.92773
416.1012, 66.43848
416.5833, 78.66016
417.0654, 94.56348
417.5475, 97.01367
418.0296, 87.09558
418.5117, 73.22449
418.9939, 53.63794
419.4760, 36.56128
419.9581, 31.60840
420.4402, 37.42883
420.9223, 47.87585
421.4044, 66.71753
421.8866, 86.47620
422.3687, 99.78027
422.8508, 106.7390
423.3329, 113.0865
423.8150, 124.1682
424.2971, 135.0992
424.7793, 128.2367
425.2614, 78.52856
425.7435, 43.02185
426.2256, 28.11060
426.7077, 27.60535
427.1898, 42.47046
427.6720, 69.12598
428.1541, 92.54443
428.6362, 96.22913
429.1183, 79.69763
429.6004, 65.18494
430.0826, 53.25745
430.5647, 42.80054
431.0468, 30.46045
431.5289, 20.12524
432.0110, 19.07959
432.4931, 31.78320
432.9753, 45.54834
433.4574, 43.23901
433.9395, 25.72510
434.4216, 10.72241
434.9037, 2.291626
435.3858, 2.797241
435.8680, 12.55139
436.3501, 25.36279
436.8322, 21.70569
437.3143, 27.87903
437.7964, 77.81055
438.2785, 79.70117
438.7607, 41.48914
439.2428, 6.213623
439.7249, 4.180176
440.2070, 4.046631
440.6891, 13.79590
441.1712, 31.45776
441.6534, 41.64111
442.1355, 37.75000
442.6176, 30.10876
443.0997, 25.35693
443.5818, 25.48511
444.0639, 30.92126
444.5461, 43.73340
445.0282, 62.38220
445.5103, 70.58679
445.9924, 62.08728
446.4745, 53.49780
446.9566, 44.40906
447.4388, 39.89868
447.9209, 49.52478
448.4030, 77.00281
448.8851, 102.2194
449.3672, 103.1212
449.8493, 84.65137
450.3315, 70.31482
450.8136, 64.43738
451.2957, 59.90601
451.7778, 49.81250
452.2599, 35.88184
452.7420, 25.97644
453.2242, 19.59875
453.7063, 18.66162
454.1884, 30.21338
454.6705, 47.72424
455.1526, 55.82507
455.6347, 48.38843
456.1169, 32.98071
456.5990, 21.08582
457.0811, 9.286255
457.5632, 10.86023
458.0453, 38.57874
458.5274, 65.43701
459.0095, 78.02002
459.4916, 78.78430
459.9738, 75.52661
460.4559, 71.99036
460.9380, 69.10095
461.4201, 71.25330
461.9022, 81.88074
462.3843, 82.53528
462.8665, 56.87463
463.3486, 29.00085
463.8307, 18.42163
464.3128, 25.45337
464.7949, 39.09387
465.2770, 63.75098
465.7592, 87.28760
466.2413, 86.66101
466.7234, 62.17017
467.2055, 41.77234
467.6876, 41.75720
468.1697, 57.06433
468.6519, 70.51233
469.1340, 84.48572
469.6161, 93.32605
470.0982, 97.40771
470.5803, 95.22021
471.0624, 82.07275
471.5446, 59.35120
472.0267, 36.02112
472.5088, 18.47998
472.9909, 7.261963
473.4730, 12.35767
473.9551, 56.70789
474.4373, 80.98059
474.9194, 52.35034
475.4015, 8.873291
475.8836, 6.948120
476.3657, 15.72888
476.8478, 45.72791
477.3300, 50.26562
477.8121, 34.34741
478.2942, 30.96582
478.7763, 48.31055
479.2584, 66.70569
479.7405, 73.95215
480.2227, 70.05481
480.7048, 58.89038
481.1869, 31.05078
481.6690, 6.791504
482.1511, 11.12512
482.6332, 18.75159
483.1154, 3.085815
483.5975, 37.22461
484.0796, 77.47754
484.5617, 86.21570
485.0438, 58.14343
485.5259, 42.36975
486.0081, 54.36340
486.4902, 62.49915
486.9723, 55.44348
487.4544, 40.77490
487.9365, 27.79358
488.4186, 19.50317
488.9008, 17.78894
489.3829, 28.36121
489.8650, 49.98755
490.3471, 66.82495
490.8292, 77.58777
491.3113, 81.54199
491.7935, 75.02246
492.2756, 60.57495
492.7577, 46.53760
493.2398, 29.24585
493.7219, 17.33875
494.2040, 19.36536
494.6862, 30.31787
495.1683, 38.46716
495.6504, 39.57715
496.1325, 41.41577
496.6146, 57.31702
497.0967, 96.19458
497.5789, 108.4711
498.0610, 63.18530
498.5431, 26.20142
499.0252, 32.39404
499.5073, 59.43005
499.9894, 65.95105
500.4716, 32.76318
500.9537, 7.547241
501.4358, 4.441162
501.9179, 41.72144
502.4000, 76.10291
502.8821, 89.73376
503.3643, 91.83801
503.8464, 87.17285
504.3285, 75.83582
504.8106, 62.57019
505.2927, 42.75928
505.7748, 26.55737
506.2570, 21.33423
506.7391, 24.69128
507.2212, 34.58948
507.7033, 50.58533
508.1854, 62.48584
508.6675, 54.08313
509.1496, 17.37903
509.6317, 2.017090
510.1139, 13.07898
510.5960, 26.62866
511.0781, 22.46509
511.5602, 11.74841
512.0424, 10.98828
512.5245, 23.81982
513.0066, 41.26648
513.4887, 52.44080
513.9708, 57.48816
514.4529, 55.67480
514.9351, 42.62708
515.4172, 30.53821
515.8993, 32.97302
516.3814, 45.01318
516.8635, 49.92468
517.3456, 32.16772
517.8278, 20.81543
518.3099, 42.24023
518.7920, 77.63770
519.2741, 89.63599
519.7562, 68.77747
520.2383, 40.98132
520.7205, 37.53210
521.2026, 61.27551
521.6847, 80.70154
522.1668, 103.6708
522.6489, 113.6793
523.1310, 90.43616
523.6132, 57.27563
524.0953, 43.51367
524.5774, 58.19043
525.0595, 79.84668
525.5416, 87.75403
526.0237, 86.20862
526.5059, 83.14429
526.9880, 78.22229
527.4701, 73.91809
527.9522, 71.50342
528.4343, 70.35522
528.9164, 67.73193
529.3986, 62.45715
529.8807, 57.41980
530.3628, 57.99426
530.8449, 56.92627
531.3270, 40.62109
531.8091, 10.10510
532.2913, 14.93542
532.7734, 13.96118
533.2554, 9.132935
533.7375, 10.05945
534.2197, 35.99744
534.7018, 59.87158
535.1839, 29.51587
535.6660, 18.86731
536.1481, 58.33459
536.6302, 83.84351
537.1124, 94.52734
537.5945, 81.13818
538.0766, 55.42175
538.5587, 37.06335
539.0408, 26.88440
539.5229, 21.83105
540.0051, 20.79688
540.4872, 23.02930
540.9693, 26.86499
541.4514, 28.57104
541.9335, 38.54333
542.4156, 66.98645
542.8978, 95.71411
543.3799, 115.3462
543.8620, 124.3525
544.3441, 121.2861
544.8262, 103.1482
545.3083, 79.22961
545.7905, 72.73303
546.2726, 87.37769
546.7547, 95.80579
547.2368, 92.19482
547.7189, 81.34875
548.2010, 63.44202
548.6832, 40.76758
549.1653, 25.61194
549.6474, 22.41089
550.1295, 26.68555
550.6116, 39.52319
551.0938, 56.86609
551.5759, 69.78784
552.0580, 75.30701
552.5401, 75.90063
553.0222, 74.33813
553.5043, 70.18640
553.9865, 66.67407
554.4686, 66.13770
554.9507, 64.00256
555.4328, 59.25134
555.9149, 52.75854
556.3970, 43.18628
556.8792, 29.92737
557.3613, 22.11951
557.8434, 33.39368
558.3255, 57.01794
558.8076, 72.98193
559.2897, 80.06909
559.7719, 74.72400
560.2540, 47.11133
560.7361, 7.562866
561.2182, 4.377319
561.7003, 32.86646
562.1824, 58.19006
562.6646, 52.11194
563.1467, 38.52576
563.6288, 40.71863
564.1109, 55.20850
564.5930, 63.57678
565.0751, 55.71667
565.5573, 37.33032
566.0394, 24.93933
566.5215, 20.05627
567.0036, 14.66479
567.4857, 9.128174
567.9678, 0.4400630
568.4500, 22.68335
568.9321, 55.39294
569.4142, 63.74707
569.8963, 10.52747
570.3784, 44.81970
570.8605, 51.60437
571.3427, 27.14612
571.8248, 11.53186
572.3069, 17.81042
572.7890, 35.19739
573.2711, 51.80847
573.7532, 68.82373
574.2354, 73.35437
574.7175, 50.25317
575.1996, 33.47607
575.6817, 37.64014
576.1638, 50.13599
576.6459, 55.93518
577.1281, 51.56726
577.6102, 45.50305
578.0923, 47.32678
578.5744, 51.16760
579.0565, 37.42896
579.5386, 5.628906
580.0208, 6.055054
580.5029, 30.25757
580.9850, 92.94861
581.4671, 124.7832
581.9492, 111.7117
582.4313, 88.55933
582.9135, 29.34729
583.3956, 16.93726
583.8777, 8.618042
584.3598, 37.43250
584.8419, 77.72168
585.3240, 91.05908
585.8062, 86.43665
586.2883, 71.58142
586.7704, 47.47046
587.2525, 40.39368
587.7346, 60.44397
588.2167, 82.17700
588.6989, 81.47510
589.1810, 62.72107
589.6631, 54.84094
590.1452, 64.28125
590.6273, 76.90369
591.1094, 100.3641
591.5916, 117.8712
592.0737, 100.5333
592.5558, 51.45874
593.0379, 10.25684
593.5200, 7.662842
594.0021, 34.45996
594.4843, 60.21948
594.9664, 89.05676
595.4485, 101.5278
595.9306, 80.51184
596.4127, 51.26001
596.8948, 38.66516
597.3770, 41.75708
597.8591, 44.29150
598.3412, 36.75012
598.8233, 31.02429
599.3054, 36.02637
599.7875, 49.42407
600.2697, 69.37988
600.7518, 94.60583
601.2339, 113.7369
601.7160, 109.8619
602.1981, 81.08728
602.6802, 63.36755
603.1624, 64.43799
603.6445, 64.85059
604.1266, 56.08044
604.6087, 44.95923
605.0908, 36.11829
605.5729, 29.99048
606.0551, 35.30945
606.5372, 72.40649
607.0193, 114.3630
607.5014, 122.9253
607.9835, 101.7455
608.4656, 77.29553
608.9478, 60.97778
609.4299, 53.66846
609.9120, 59.89526
610.3941, 91.91138
610.8762, 98.52673
611.3583, 43.59058
611.8405, 1.374756
612.3226, 7.553711
612.8047, 39.91003
613.2868, 64.82397
613.7689, 72.50220
614.2510, 71.92688
614.7332, 64.07202
615.2153, 54.87170
615.6974, 60.89282
616.1795, 82.90222
616.6616, 100.4426
617.1437, 101.2079
617.6259, 89.33276
618.1080, 76.15930
618.5901, 59.20459
619.0722, 44.43652
619.5543, 37.27368
620.0364, 28.86462
620.5186, 3.647217
621.0007, 24.66980
621.4828, 21.80786
621.9649, 34.38757
622.4470, 92.74890
622.9291, 85.29480
623.4113, 32.69263
623.8934, 12.55457
624.3755, 38.28235
624.8576, 66.09045
625.3397, 63.56348
625.8218, 38.18311
626.3040, 23.86438
626.7861, 31.95288
627.2682, 35.60657
627.7503, 33.89856
628.2324, 33.04370
628.7145, 38.15125
629.1967, 47.40564
629.6788, 54.40125
630.1609, 55.48206
630.6430, 54.92639
631.1251, 60.09473
631.6072, 69.30957
632.0893, 73.77917
632.5714, 72.90979
633.0535, 64.97681
633.5356, 45.92371
634.0178, 19.42261
634.4999, 9.915039
634.9820, 31.10327
635.4641, 49.55200
635.9462, 67.61145
636.4283, 77.39380
636.9105, 64.22412
637.3926, 35.49451
637.8747, 18.69788
638.3568, 36.35913
638.8389, 64.76111
639.3210, 66.33496
639.8032, 45.09546
640.2853, 31.55957
640.7674, 32.81079
641.2495, 35.87476
641.7316, 34.09473
642.2137, 28.88538
642.6959, 23.82300
643.1780, 19.42603
643.6601, 14.40479
644.1422, 3.724731
644.6243, 3.889893
645.1064, 9.1797002E-02
645.5886, 14.22009
646.0707, 31.66858
646.5528, 53.15369
647.0349, 68.05615
647.5170, 50.77747
647.9991, 8.719360
648.4813, 3.455200
648.9634, 30.35962
649.4455, 69.59705
649.9276, 77.74060
650.4097, 58.03186
650.8918, 45.77441
651.3740, 47.40649
651.8561, 47.94775
652.3382, 45.76953
652.8203, 41.35889
653.3024, 34.18384
653.7845, 25.01062
654.2667, 15.37415
654.7488, 3.269653
655.2309, 3.774536
655.7130, 11.23108
656.1951, 41.99011
656.6772, 58.09717
657.1594, 52.46997
657.6415, 38.81055
658.1236, 25.75269
658.6057, 14.86560
659.0878, 18.70935
659.5699, 65.01770
660.0521, 87.45898
660.5342, 59.33801
661.0163, 25.30396
661.4984, 17.38367
661.9805, 31.44324
662.4626, 44.93469
662.9448, 47.70813
663.4269, 44.70166
663.9090, 40.18738
664.3911, 34.33032
664.8732, 26.55859
665.3553, 16.82190
665.8375, 8.964233
666.3196, 5.419556
666.8017, 6.679199
667.2838, 15.54443
667.7659, 38.59802
668.2480, 57.57861
668.7302, 73.03210
669.2123, 82.84509
669.6944, 82.89465
670.1765, 76.72583
670.6586, 70.10303
671.1407, 62.89746
671.6229, 59.83313
672.1050, 69.71899
672.5871, 84.67932
673.0692, 89.87903
673.5513, 83.98218
674.0334, 72.93054
674.5156, 59.51233
674.9977, 46.91528
675.4798, 45.09778
675.9619, 57.87256
676.4440, 70.34253
676.9261, 85.08057
677.4083, 95.15491
677.8904, 93.35913
678.3725, 85.07349
678.8546, 81.01208
679.3367, 88.08301
679.8188, 95.60022
680.3010, 92.55286
680.7831, 86.39148
681.2652, 90.75183
681.7473, 101.0062
682.2294, 94.80457
682.7115, 59.28723
683.1937, 13.90894
683.6758, 5.582031
684.1579, 3.221069
684.6400, 12.60547
685.1221, 21.91565
685.6042, 30.91589
686.0864, 39.28198
686.5685, 47.39417
687.0506, 57.60730
687.5327, 73.50464
688.0148, 78.17725
688.4969, 61.22229
688.9791, 37.90979
689.4612, 6.471191
689.9433, 20.23865
690.4254, 13.34314
690.9075, 35.81213
691.3896, 90.42139
691.8718, 105.3944
692.3539, 88.12659
692.8360, 78.89966
693.3181, 79.25452
693.8002, 76.67029
694.2823, 63.01807
694.7645, 48.72681
695.2466, 51.43030
695.7287, 77.12024
696.2108, 89.87842
696.6929, 83.08948
697.1750, 71.88440
697.6572, 56.62439
698.1393, 42.35718
698.6214, 34.70215
699.1035, 34.27478
699.5856, 36.72583
700.0677, 43.15967
700.5499, 47.92383
701.0320, 38.22656
701.5141, 18.07324
701.9962, 7.534790
702.4783, 12.53296
702.9604, 18.99500
703.4426, 9.124512
703.9247, 14.52612
704.4068, 8.610107
704.8889, 54.45532
705.3710, 98.54053
705.8531, 100.5046
706.3353, 89.51099
706.8174, 81.56482
707.2995, 77.56348
707.7816, 76.93091
708.2637, 80.73108
708.7458, 86.02734
709.2280, 93.12207
709.7101, 102.4540
710.1922, 114.5437
710.6743, 126.5168
711.1564, 131.4978
711.6385, 125.1008
712.1207, 111.0977
712.6028, 94.73633
713.0849, 75.49695
713.5670, 56.43579
714.0491, 33.18542
714.5313, 19.89771
715.0134, 28.18298
715.4955, 52.07959
715.9776, 77.77344
716.4597, 116.7026
716.9418, 129.7938
717.4240, 76.01050
717.9061, 28.51794
718.3882, 51.91809
718.8703, 110.2869
719.3524, 128.4086
719.8345, 81.22498
720.3167, 27.80090
720.7988, 28.79370
721.2809, 64.99231
721.7630, 92.97668
722.2451, 111.1616
722.7272, 123.0485
723.2094, 130.3698
723.6915, 129.6880
724.1736, 113.8206
724.6557, 80.20288
725.1378, 60.06775
725.6199, 61.00049
726.1021, 64.76282
726.5842, 73.17761
727.0663, 78.25195
727.5484, 67.60083
728.0305, 43.99377
728.5126, 31.64124
728.9948, 51.16211
729.4769, 72.64062
729.9590, 74.51477
730.4411, 65.67053
730.9232, 57.34167
731.4053, 52.58252
731.8874, 54.03577
732.3695, 65.32959
732.8516, 79.64282
733.3337, 79.29065
733.8159, 63.57886
734.2980, 45.10364
734.7801, 20.81592
735.2622, 7.894653
735.7443, 22.45337
736.2264, 56.15979
736.7086, 79.83984
737.1907, 89.98132
737.6728, 97.71301
738.1549, 100.6952
738.6370, 104.4479
739.1191, 117.3003
739.6013, 131.4233
740.0834, 131.3097
740.5655, 112.2247
741.0476, 91.29614
741.5297, 82.25891
742.0118, 82.42041
742.4940, 87.44324
742.9761, 95.27368
743.4582, 103.5597
743.9403, 111.6735
744.4224, 110.4707
744.9045, 83.17554
745.3867, 32.53748
745.8688, 24.35327
746.3509, 79.23999
746.8330, 120.8624
747.3151, 124.4692
747.7972, 111.7148
748.2794, 101.0623
748.7615, 93.06531
749.2436, 91.24475
749.7257, 108.8839
750.2078, 116.2206
750.6899, 85.83569
751.1721, 54.68030
751.6542, 62.01721
752.1363, 101.5575
752.6184, 143.8873
753.1005, 177.2377
753.5826, 193.9443
754.0648, 176.2162
754.5469, 134.9146
755.0290, 95.52710
755.5111, 61.78601
755.9932, 56.88025
756.4753, 97.97388
756.9575, 154.3297
757.4396, 163.9448
757.9217, 112.3370
758.4038, 93.94751
758.8859, 138.9071
759.3680, 169.3119
759.8502, 140.7920
760.3323, 94.94739
760.8144, 73.75439
761.2965, 78.94250
761.7786, 85.14929
762.2607, 90.29614
762.7429, 92.32556
763.2250, 85.08215
763.7071, 76.61108
764.1892, 83.44714
764.6713, 101.9755
765.1534, 105.6606
765.6356, 73.73706
766.1177, 24.96252
766.5998, 18.27332
767.0819, 53.06982
767.5640, 64.07666
768.0461, 48.79163
768.5283, 23.12744
769.0104, 4.749390
769.4925, 31.90320
769.9746, 51.50574
770.4567, 63.82959
770.9388, 67.07837
771.4210, 52.99524
771.9031, 41.03003
772.3852, 37.07104
772.8673, 40.61157
773.3494, 51.88782
773.8315, 71.18420
774.3137, 94.77344
774.7958, 134.8270
775.2779, 164.6699
775.7600, 163.0154
776.2421, 144.8491
776.7242, 130.6935
777.2064, 123.8912
777.6885, 115.3099
778.1706, 94.82166
778.6527, 74.40771
779.1348, 78.94788
779.6169, 101.4850
780.0991, 110.4462
780.5812, 100.5956
781.0633, 90.93811
781.5454, 94.35779
782.0275, 107.9913
782.5096, 127.5911
782.9918, 162.1978
783.4739, 168.1357
783.9560, 119.0278
784.4381, 80.68787
784.9202, 99.45422
785.4023, 138.9086
785.8845, 144.3611
786.3666, 108.0896
786.8487, 85.03247
787.3308, 96.74915
787.8129, 110.8090
788.2950, 111.9392
788.7772, 106.3943
789.2593, 100.3245
789.7414, 96.04297
790.2235, 96.69739
790.7056, 105.9799
791.1877, 118.6406
791.6699, 130.2355
792.1520, 139.6047
792.6341, 143.4280
793.1162, 141.4246
793.5983, 136.6241
794.0804, 131.0537
794.5626, 122.7963
795.0447, 106.6401
795.5268, 81.35291
796.0089, 56.92285
796.4910, 30.46777
796.9731, 15.31079
797.4553, 27.04773
797.9374, 44.37793
798.4195, 28.12000
798.9016, 32.65283
799.3837, 60.27405
799.8658, 33.14246
800.3480, 0.1519780
800.8301, 36.32996
801.3122, 65.35107
801.7943, 73.68420
802.2764, 65.44849
802.7585, 62.70203
803.2407, 81.54468
803.7228, 96.14209
804.2049, 77.72327
804.6870, 49.19958
805.1691, 44.28979
805.6512, 60.12817
806.1334, 77.55908
806.6155, 87.07922
807.0976, 89.08472
807.5797, 77.48010
808.0618, 57.31506
808.5439, 61.54712
809.0261, 91.83936
809.5082, 120.0591
809.9903, 138.0055
810.4724, 141.4653
810.9545, 120.2095
811.4366, 75.48792
811.9188, 61.51367
812.4009, 101.0526
812.8830, 127.8901
813.3651, 124.5510
813.8472, 112.2462
814.3293, 97.37488
814.8115, 84.76379
815.2936, 89.44031
815.7757, 126.9822
816.2578, 149.6556
816.7399, 130.8484
817.2220, 105.4885
817.7042, 98.46240
818.1863, 102.2784
818.6684, 99.38831
819.1505, 85.75256
819.6326, 76.05701
820.1147, 82.71143
820.5969, 98.83337
821.0790, 126.6072
821.5611, 154.8646
822.0432, 142.9410
822.5253, 87.48950
823.0074, 43.18359
823.4896, 54.76562
823.9717, 101.6633
824.4538, 135.4454
824.9359, 155.9423
825.4180, 152.9326
825.9001, 122.1063
826.3823, 91.10791
826.8644, 73.72510
827.3465, 64.34924
827.8286, 53.52222
828.3107, 37.51245
828.7928, 38.03870
829.2749, 75.57861
829.7570, 102.1376
830.2391, 99.16504
830.7213, 86.62195
831.2034, 79.62000
831.6855, 79.31104
832.1676, 82.89893
832.6497, 100.4899
833.1318, 107.9070
833.6140, 79.79016
834.0961, 47.26245
834.5782, 41.96936
835.0603, 55.54199
835.5424, 61.02661
836.0245, 48.15503
836.5067, 32.25867
836.9888, 22.24207
837.4709, 20.09961
837.9530, 34.09302
838.4351, 58.70959
838.9172, 76.62231
839.3994, 83.00476
839.8815, 82.59937
840.3636, 77.77808
840.8457, 72.45996
841.3278, 84.82190
841.8099, 115.3910
842.2921, 117.1932
842.7742, 77.03442
843.2563, 41.42493
843.7384, 39.87854
844.2205, 59.72131
844.7026, 74.79736
845.1848, 88.21875
845.6669, 83.25317
846.1490, 39.67761
846.6311, 8.222534
847.1132, 15.57861
847.5953, 34.22803
848.0775, 38.10681
848.5596, 28.35059
849.0417, 22.56995
849.5238, 20.84375
850.0059, 26.46094
850.4880, 58.36255
850.9702, 84.69543
851.4523, 71.50354
851.9344, 37.17786
852.4165, 19.37329
852.8986, 30.77783
853.3807, 49.80737
853.8629, 70.74146
854.3450, 84.86328
854.8271, 77.94592
855.3092, 58.14160
855.7913, 41.01038
856.2734, 30.88477
856.7556, 24.08032
857.2377, 20.48999
857.7198, 24.34680
858.2019, 43.56458
858.6840, 71.50610
859.1661, 78.70361
859.6483, 62.32300
860.1304, 55.52344
860.6125, 79.07898
861.0946, 106.3866
861.5767, 83.82629
862.0588, 7.530884
862.5410, 13.91943
863.0231, 37.65161
863.5052, 76.49475
863.9873, 74.59082
864.4694, 57.77197
864.9515, 49.96033
865.4337, 49.59473
865.9158, 43.69019
866.3979, 17.40576
866.8800, 9.885620
867.3621, 39.98157
867.8442, 69.44373
868.3264, 86.34082
868.8085, 90.61707
869.2906, 78.11853
869.7727, 45.95007
870.2548, 25.18262
870.7369, 33.60571
871.2191, 43.66467
871.7012, 34.52490
872.1833, 25.47241
872.6654, 49.91602
873.1475, 96.74792
873.6296, 112.1322
874.1118, 58.30847
874.5939, 8.470093
875.0760, 35.81592
875.5581, 89.46509
876.0402, 108.2035
876.5223, 95.17493
877.0045, 67.91052
877.4866, 34.68396
877.9687, 13.38879
878.4508, 29.29016
878.9329, 61.07751
879.4150, 57.00952
879.8972, 26.95081
880.3793, 19.06348
880.8614, 40.33948
881.3435, 58.49475
881.8256, 52.09753
882.3077, 33.45264
882.7899, 26.44629
883.2720, 31.34241
883.7541, 38.06079
884.2362, 46.92078
884.7183, 56.46326
885.2004, 68.84106
885.6826, 74.59119
886.1647, 61.33191
886.6468, 31.46582
887.1289, 8.459961
887.6110, 13.11023
888.0931, 13.94727
888.5753, 31.78491
889.0574, 66.17529
889.5395, 45.02698
890.0216, 2.791870
890.5037, 24.47522
890.9858, 15.12512
891.4680, 4.715698
891.9501, 1.396484
892.4322, 10.50977
892.9143, 49.11646
893.3964, 87.66125
893.8785, 101.1494
894.3607, 92.98279
894.8428, 80.69971
895.3249, 64.49487
895.8070, 55.60938
896.2891, 66.68933
896.7712, 79.36511
897.2534, 77.39062
897.7355, 67.66028
898.2176, 64.73230
898.6997, 70.55151
899.1818, 71.39026
899.6639, 52.53113
900.1461, 32.40454
900.6282, 30.59497
901.1103, 38.69080
901.5924, 46.49780
902.0745, 51.08508
902.5566, 47.44373
903.0388, 33.08264
903.5209, 18.90186
904.0030, 14.95325
904.4851, 21.50000
904.9672, 47.96814
905.4493, 87.04443
905.9315, 107.1339
906.4136, 100.5663
906.8957, 68.59167
907.3778, 6.126831
907.8599, 59.31885
908.3420, 52.78967
908.8242, 20.23035
909.3063, 66.98682
909.7884, 80.44653
910.2705, 89.73999
910.7526, 108.6489
911.2347, 117.5874
911.7169, 86.87732
912.1990, 23.73840
912.6811, 4.310303
913.1632, 44.23730
913.6453, 59.56287
914.1274, 22.53516
914.6096, 0.1379390
915.0917, 46.21948
915.5738, 121.4760
916.0559, 141.6641
916.5380, 92.88867
917.0201, 58.40918
917.5023, 41.16797
917.9844, 34.15491
918.4665, 44.40979
918.9486, 56.31006
919.4307, 54.30542
919.9128, 43.04175
920.3950, 40.40356
920.8771, 57.73340
921.3592, 65.16223
921.8413, 41.54749
922.3234, 29.10291
922.8055, 69.91443
923.2877, 117.3110
923.7698, 101.3528
924.2519, 25.50757
924.7340, 15.60034
925.2161, 33.81177
925.6982, 80.79382
926.1804, 95.46594
926.6625, 93.78906
927.1446, 81.78357
927.6267, 65.07996
928.1088, 48.56750
928.5909, 33.59204
929.0730, 30.98254
929.5551, 63.50000
930.0372, 92.03357
930.5193, 79.17310
931.0015, 51.16968
931.4836, 40.45520
931.9657, 47.36658
932.4478, 57.97107
932.9299, 67.28528
933.4120, 70.27466
933.8942, 54.58289
934.3763, 38.08374
934.8584, 46.03870
935.3405, 67.04053
935.8226, 75.33911
936.3047, 66.46509
936.7869, 52.52051
937.2690, 44.92908
937.7511, 42.88550
938.2332, 49.66711
938.7153, 59.54089
939.1974, 59.26965
939.6796, 49.71948
940.1617, 33.35925
940.6438, 12.72302
941.1259, 9.168579
941.6080, 50.33374
942.0901, 110.0586
942.5723, 125.9570
943.0544, 106.0154
943.5365, 87.15015
944.0186, 73.92651
944.5007, 63.54663
944.9828, 54.64417
945.4650, 49.05005
945.9471, 51.99988
946.4292, 61.70642
946.9113, 63.60950
947.3934, 57.85913
947.8755, 54.69727
948.3577, 55.14368
948.8398, 56.02917
949.3219, 54.17981
949.8040, 50.32642
950.2861, 45.05396
950.7682, 38.06201
951.2504, 44.92200
951.7325, 69.76440
952.2146, 79.33154
952.6967, 60.13818
953.1788, 42.73877
953.6609, 54.84070
954.1431, 84.37305
954.6252, 94.03943
955.1073, 79.78406
955.5894, 61.93835
956.0715, 34.84009
956.5536, 22.42139
957.0358, 38.75623
957.5179, 62.18762
958.0000, 70.98230
958.4821, 67.33960
958.9642, 64.34546
959.4464, 56.98474
959.9285, 64.95435
960.4106, 105.9176
960.8927, 132.2501
961.3748, 117.5211
961.8569, 83.94055
962.3391, 53.60645
962.8212, 26.73572
963.3033, 26.86523
963.7854, 85.74109
964.2675, 118.2402
964.7496, 93.63464
965.2318, 64.15381
965.7139, 60.48901
966.1960, 68.66565
966.6781, 57.70959
967.1602, 19.59314
967.6423, 9.141235
968.1245, 57.42749
968.6066, 90.32410
969.0887, 80.83557
969.5708, 68.82141
970.0529, 84.84949
970.5350, 113.0938
971.0172, 118.7833
971.4993, 88.72400
971.9814, 80.41272
972.4635, 130.9178
972.9456, 163.1686
973.4277, 139.8981
973.9099, 105.7117
974.3920, 93.49390
974.8741, 98.37805
975.3562, 104.6392
975.8383, 112.0452
976.3204, 114.0231
976.8026, 102.8207
977.2847, 94.21094
977.7668, 99.77307
978.2489, 106.2649
978.7310, 97.78735
979.2131, 79.15784
979.6953, 69.59302
980.1774, 75.55396
980.6595, 82.34460
981.1416, 86.63000
981.6237, 90.24109
982.1058, 99.71704
982.5880, 104.2032
983.0701, 85.22180
983.5522, 50.03894
984.0343, 39.28699
984.5164, 78.89478
984.9985, 106.3344
985.4807, 84.31750
985.9628, 61.77185
986.4449, 72.84375
986.9270, 97.48169
987.4091, 112.4124
987.8912, 114.1556
988.3734, 103.8586
988.8555, 71.16321
989.3376, 47.75061
989.8197, 61.25769
990.3018, 72.69849
990.7839, 48.76294
991.2661, 9.007935
991.7482, 19.07129
992.2303, 31.65894
992.7124, 37.73718
993.1945, 46.11108
993.6766, 39.30359
994.1588, 10.11926
994.6409, 58.46912
995.1230, 64.61267
995.6051, 50.01270
996.0872, 51.25232
996.5693, 73.24377
997.0515, 95.01868
997.5336, 110.5653
998.0157, 120.4784
998.4978, 120.0691
998.9799, 118.8674
999.4620, 124.6107
999.9442, 135.3052
1000.426, 149.2466
1000.908, 165.0743
1001.391, 172.5170
1001.873, 161.5801
1002.355, 148.3948
1002.837, 142.6202
1003.319, 136.3137
1003.801, 116.2825
1004.283, 93.09790
1004.765, 90.66504
1005.247, 112.0537
1005.730, 125.0403
1006.212, 103.5652
1006.694, 85.80457
1007.176, 94.02747
1007.658, 110.9583
1008.140, 124.5717
1008.622, 134.0706
1009.104, 144.0883
1009.586, 154.8756
1010.069, 148.7806
1010.551, 92.24414
1011.033, 50.36157
1011.515, 68.38049
1011.997, 102.1283
1012.479, 117.7776
1012.961, 118.1038
1013.443, 114.5944
1013.926, 109.6931
1014.408, 102.0027
1014.890, 85.26086
1015.372, 72.96472
1015.854, 73.92139
1016.336, 79.54871
1016.818, 84.67664
1017.300, 88.22241
1017.782, 89.98596
1018.265, 89.91516
1018.747, 85.54590
1019.229, 74.41162
1019.711, 60.92114
1020.193, 47.74622
1020.675, 32.17212
1021.157, 1.140747
1021.639, 29.63818
1022.122, 25.49670
1022.604, 20.21289
1023.086, 50.07263
1023.568, 37.00403
1024.050, 20.15833
1024.532, 9.297607
1025.014, 3.210083
1025.496, 2.431152
1025.978, 2.799316
1026.461, 18.65613
1026.943, 65.00928
1027.425, 81.86938
1027.907, 21.45447
1028.389, 20.74072
1028.871, 2.143555
1029.353, 27.16443
1029.835, 31.87219
1030.318, 25.59314
1030.800, 37.67554
1031.282, 71.72461
1031.764, 87.50891
1032.246, 56.06006
1032.728, 38.85413
1033.210, 65.99011
1033.692, 91.66357
1034.174, 78.92139
1034.656, 53.18738
1035.139, 66.96692
1035.621, 126.2861
1036.103, 161.5862
1036.585, 150.7361
1037.067, 141.0084
1037.549, 142.5787
1038.031, 140.9669
1038.513, 125.9218
1038.996, 105.1985
1039.478, 88.08398
1039.960, 74.60632
1040.442, 67.34229
1040.924, 66.61523
1041.406, 71.37012
1041.888, 79.47192
1042.370, 96.89343
1042.853, 140.7087
1043.335, 181.3212
1043.817, 174.4836
1044.299, 125.3679
1044.781, 104.0880
1045.263, 128.3960
1045.745, 136.9070
1046.227, 119.1989
1046.709, 99.55969
1047.192, 83.90564
1047.674, 77.12732
1048.156, 88.90125
1048.638, 113.9620
1049.120, 117.1678
1049.602, 86.32104
1050.084, 78.19897
1050.566, 103.1451
1051.048, 125.8241
1051.531, 135.8342
1052.013, 138.0864
1052.495, 128.0405
1052.977, 113.8706
1053.459, 136.5254
1053.941, 205.0991
1054.423, 196.5918
1054.905, 93.97424
1055.388, 33.72583
1055.870, 62.94812
1056.352, 110.9486
1056.834, 120.5060
1057.316, 102.5591
1057.798, 75.00635
1058.280, 40.21655
1058.762, 43.41089
1059.245, 83.50403
1059.727, 101.3645
1060.209, 82.40088
1060.691, 51.02930
1061.173, 21.95691
1061.655, 3.529419
1062.137, 17.06104
1062.619, 52.31677
1063.101, 67.94470
1063.583, 67.30664
1064.066, 71.42566
1064.548, 82.63403
1065.030, 81.08447
1065.512, 54.75916
1065.994, 30.51611
1066.476, 52.38208
1066.958, 93.12244
1067.440, 91.64294
1067.923, 66.89685
1068.405, 68.55896
1068.887, 96.30957
1069.369, 117.7794
1069.851, 119.3175
1070.333, 111.8618
1070.815, 100.7627
1071.297, 90.20361
1071.780, 87.93018
1072.262, 87.41418
1072.744, 77.86157
1073.226, 61.51160
1073.708, 43.44299
1074.190, 26.31567
1074.672, 21.28101
1075.154, 41.68469
1075.636, 67.10400
1076.119, 89.82361
1076.601, 105.5220
1077.083, 109.3147
1077.565, 103.4862
1078.047, 91.21094
1078.529, 73.54553
1079.011, 51.67542
1079.493, 10.14209
1079.975, 8.595215
1080.458, 37.19128
1080.940, 81.37244
1081.422, 78.63147
1081.904, 57.00720
1082.386, 52.10156
1082.868, 62.85278
1083.350, 66.30493
1083.832, 50.67480
1084.314, 48.91101
1084.797, 86.23730
1085.279, 108.5576
1085.761, 79.04175
1086.243, 43.80334
1086.725, 55.22400
1087.207, 90.71655
1087.689, 85.28418
1088.171, 18.53357
1088.654, 1.395386
1089.136, 68.88208
1089.618, 110.3828
1090.100, 100.3387
1090.582, 63.36853
1091.064, 7.3199999E-04
1091.546, 56.03357
1092.028, 37.03101
1092.510, 54.18152
1092.993, 100.2228
1093.475, 95.09314
1093.957, 94.53259
1094.439, 107.6179
1094.921, 112.6759
1095.403, 99.38782
1095.885, 77.11218
1096.367, 55.64160
1096.849, 36.05835
1097.332, 17.52087
1097.814, 3.667725
1098.296, 22.08533
1098.778, 70.29370
1099.260, 103.6361
1099.742, 107.6226
1100.224, 87.80322
1100.706, 42.12415
1101.189, 1.149902
1101.671, 9.187622
1102.153, 46.61328
1102.635, 62.69714
1103.117, 61.59729
1103.599, 59.19153
1104.081, 58.46814
1104.563, 54.64893
1105.046, 44.79492
1105.528, 35.85229
1106.010, 34.96289
1106.492, 35.79089
1106.974, 30.13062
1107.456, 24.50269
1107.938, 27.58167
1108.420, 38.07007
1108.902, 52.43323
1109.385, 70.10120
1109.867, 79.60999
1110.349, 69.77502
1110.831, 60.10852
1111.313, 55.98840
1111.795, 56.74585
1112.277, 66.12170
1112.759, 77.63989
1113.241, 78.63965
1113.724, 69.29065
1114.206, 71.69324
1114.688, 102.6353
1115.170, 120.1868
1115.652, 124.5217
1116.134, 112.4862
1116.616, 68.07532
1117.098, 28.47583
1117.581, 35.60388
1118.063, 70.90540
1118.545, 68.39441
1119.027, 16.30310
1119.509, 6.833984
1119.991, 48.91370
1120.473, 79.00024
1120.955, 82.05566
1121.438, 74.94128
1121.920, 66.39929
1122.402, 63.15247
1122.884, 79.68542
1123.366, 108.6212
1123.848, 117.9507
1124.330, 110.6381
1124.812, 100.8568
1125.294, 90.44775
1125.776, 77.54614
1126.259, 61.71606
1126.741, 47.09045
1127.223, 37.83252
1127.705, 30.31409
1128.187, 12.41431
1128.669, 1.656982
1129.151, 14.53577
1129.633, 49.69202
1130.116, 81.46191
1130.598, 104.5703
1131.080, 122.4395
1131.562, 139.9022
1132.044, 138.5798
1132.526, 86.02014
1133.008, 37.83179
1133.490, 36.63745
1133.973, 49.61536
1134.455, 42.41125
1134.937, 22.04468
1135.419, 11.71362
1135.901, 15.14868
1136.383, 21.00122
1136.865, 28.48315
1137.347, 37.87207
1137.829, 58.77966
1138.312, 67.90503
1138.794, 49.75000
1139.276, 24.31372
1139.758, 16.31470
1140.240, 22.26953
1140.722, 19.87390
1141.204, 4.482178
1141.686, 15.97070
1142.168, 62.88342
1142.651, 77.25684
1143.133, 37.07434
1143.615, 5.549438
1144.097, 13.45557
1144.579, 3.627930
1145.061, 10.93628
1145.543, 23.53198
1146.025, 12.52881
1146.508, 79.82385
1146.990, 116.5110
1147.472, 119.1376
1147.954, 114.3643
1148.436, 112.9242
1148.918, 113.4178
1149.400, 115.3534
1149.882, 114.2686
1150.365, 99.20923
1150.847, 74.91638
1151.329, 30.98584
1151.811, 6.917358
1152.293, 19.40552
1152.775, 96.92480
1153.257, 129.6896
1153.739, 75.30872
1154.221, 22.77527
1154.703, 16.12122
1155.186, 30.73694
1155.668, 1.843994
1156.150, 38.28748
1156.632, 73.11267
1157.114, 98.06348
1157.596, 104.5271
1158.078, 92.15979
1158.560, 70.84363
1159.043, 32.86902
1159.525, 14.12463
1160.007, 22.22644
1160.489, 30.21716
1160.971, 26.38684
1161.453, 27.18262
1161.935, 50.67334
1162.417, 82.06714
1162.900, 81.71814
1163.382, 57.77100
1163.864, 49.43982
1164.346, 55.09802
1164.828, 65.66614
1165.310, 77.57019
1165.792, 84.63647
1166.274, 83.98450
1166.756, 74.30164
1167.239, 38.10144
1167.721, 10.88135
1168.203, 47.24084
1168.685, 96.93127
1169.167, 100.4980
1169.649, 74.57373
1170.131, 50.73914
1170.613, 37.25403
1171.095, 43.95667
1171.578, 89.89380
1172.060, 117.3846
1172.542, 102.7212
1173.024, 81.12305
1173.506, 45.87292
1173.988, 29.41528
1174.470, 71.62109
1174.952, 136.6908
1175.434, 154.4351
1175.917, 124.7531
1176.399, 89.64209
1176.881, 44.48450
1177.363, 25.90552
1177.845, 40.19214
1178.327, 57.90710
1178.809, 66.00903
1179.291, 68.38757
1179.774, 67.15576
1180.256, 70.13000
1180.738, 101.0507
1181.220, 142.6888
1181.702, 147.6860
1182.184, 129.0441
1182.666, 124.3173
1183.148, 131.9623
1183.630, 120.4766
1184.113, 78.63330
1184.595, 45.02173
1185.077, 50.87158
1185.559, 63.75818
1186.041, 67.24854
1186.523, 67.40735
1187.005, 65.09863
1187.487, 65.04285
1187.969, 77.77380
1188.452, 99.58557
1188.934, 106.4474
1189.416, 90.41492
1189.898, 78.59839
1190.380, 74.34680
1190.862, 65.85718
1191.344, 46.30542
1191.826, 34.07373
1192.309, 39.07483
1192.791, 60.39392
1193.273, 105.7859
1193.755, 155.7709
1194.237, 116.4719
1194.719, 10.68091
1195.201, 21.56738
1195.683, 15.50317
1196.166, 55.27075
1196.648, 79.32996
1197.130, 91.57434
1197.612, 93.33557
1198.094, 92.18994
1198.576, 97.33630
1199.058, 99.95251
1199.540, 85.34790
1200.022, 69.53687
1200.505, 72.84363
1200.987, 86.56128
1201.469, 97.16760
1201.951, 102.3101
1202.433, 103.3407
1202.915, 99.60840
1203.397, 90.14343
1203.879, 74.64160
1204.361, 57.99634
1204.844, 39.32227
1205.326, 25.34314
1205.808, 22.69446
1206.290, 23.40259
1206.772, 10.23560
1207.254, 11.79956
1207.736, 4.017212
1208.218, 29.75220
1208.701, 57.60999
1209.183, 75.23145
1209.665, 70.04919
1210.147, 43.89209
1210.629, 43.50342
1211.111, 105.3973
1211.593, 164.4462
1212.075, 142.8217
1212.557, 101.4614
1213.040, 97.61304
1213.522, 112.9626
1214.004, 127.4004
1214.486, 134.1454
1214.968, 119.1400
1215.450, 81.07422
1215.932, 68.48499
1216.414, 122.6284
1216.896, 144.7783
1217.379, 106.6420
1217.861, 82.63708
1218.343, 101.0938
1218.825, 125.1053
1219.307, 127.9543
1219.789, 119.2540
1220.271, 114.4054
1220.753, 114.3403
1221.236, 132.5779
1221.718, 161.5770
1222.200, 148.3396
1222.682, 100.5001
1223.164, 84.21155
1223.646, 112.9874
1224.128, 136.1879
1224.610, 122.4280
1225.093, 99.49353
1225.575, 80.39880
1226.057, 72.16614
1226.539, 90.78723
1227.021, 113.4866
1227.503, 116.2163
1227.985, 106.3668
1228.467, 98.70447
1228.949, 94.81958
1229.432, 99.10767
1229.914, 117.4519
1230.396, 130.5428
1230.878, 140.0142
1231.360, 136.3318
1231.842, 113.4175
1232.324, 93.12585
1232.806, 88.99841
1233.288, 98.35535
1233.771, 125.4705
1234.253, 153.4283
1234.735, 106.4038
1235.217, 19.88721
1235.699, 18.41443
1236.181, 15.13074
1236.663, 5.564697
1237.145, 1.750610
1237.628, 13.68677
1238.110, 35.74683
1238.592, 45.73547
1239.074, 18.14685
1239.556, 3.632446
1240.038, 7.096436
1240.520, 7.874146
1241.002, 50.38440
1241.484, 96.70618
1241.967, 119.3832
1242.449, 122.5648
1242.931, 124.4606
1243.413, 126.0034
1243.895, 115.0400
1244.377, 91.25623
1244.859, 75.72986
1245.341, 71.75488
1245.823, 63.97729
1246.306, 46.09094
1246.788, 42.17358
1247.270, 81.57642
1247.752, 127.9548
1248.234, 134.8112
1248.716, 129.5293
1249.198, 146.9177
1249.680, 168.6924
1250.163, 167.1838
1250.645, 145.5396
1251.127, 116.0126
1251.609, 77.37720
1252.091, 67.93933
1252.573, 118.7572
1253.055, 141.3206
1253.537, 115.4285
1254.020, 97.81799
1254.502, 118.9817
1254.984, 135.4835
1255.466, 102.1458
1255.948, 49.06287
1256.430, 39.43713
1256.912, 58.97388
1257.394, 33.17822
1257.876, 7.091675
1258.359, 31.73230
1258.841, 120.8497
1259.323, 157.2208
1259.805, 129.2417
1260.287, 114.2277
1260.769, 150.4480
1261.251, 169.0021
1261.733, 116.8207
1262.215, 78.03052
1262.698, 102.0515
1263.180, 124.3860
1263.662, 98.42395
1264.144, 67.53735
1264.626, 87.91382
1265.108, 130.8451
1265.590, 131.0900
1266.072, 84.86951
1266.555, 56.74353
1267.037, 44.91064
1267.519, 24.00745
1268.001, 3.635498
1268.483, 3.916626
1268.965, 59.35901
1269.447, 109.3358
1269.929, 114.1221
1270.411, 70.63818
1270.894, 42.28430
1271.376, 13.89612
1271.858, 0.0000000E+00
##END=



