##NAMES=Cosalite
##RRUFFID=R060988
##IDEAL CHEMISTRY=Pb^2+^_2_Bi^3+^_2_S^2-^_5_
##LOCALITY=San Nicolas mine, Badajoz Provence, Spain
##OWNER=RRUFF
##SOURCE=Bob Jenkins
##DESCRIPTION=Silver metallic prismatic crystals, exterior tarnish steel-blue, associated with quartz and yellowish-green crystals of a Bi oxide.
##STATUS=The identification of this mineral has been confirmed only by single crystal X-ray diffraction.
##URL=rruff.info/R060988
114.7734, 5.558624
115.2555, 7.5103998E-02
115.7376, 12.58313
116.2198, 27.33954
116.7019, 42.41968
117.1840, 59.52512
117.6661, 82.49805
118.1482, 111.5167
118.6303, 135.1266
119.1124, 142.5419
119.5946, 141.8298
120.0767, 143.7888
120.5588, 152.4349
121.0409, 165.6604
121.5230, 182.6101
122.0051, 203.4146
122.4873, 226.4550
122.9694, 254.3380
123.4515, 284.0098
123.9336, 307.0880
124.4157, 315.6658
124.8979, 315.6152
125.3800, 314.6522
125.8621, 313.6569
126.3442, 313.1100
126.8263, 312.7377
127.3084, 312.7713
127.7905, 315.4617
128.2727, 325.7036
128.7548, 340.3160
129.2369, 350.1105
129.7190, 351.2037
130.2011, 346.7795
130.6832, 343.9026
131.1654, 342.7947
131.6475, 340.9792
132.1296, 334.7961
132.6117, 324.7201
133.0938, 315.8845
133.5759, 309.1519
134.0581, 304.8374
134.5402, 306.5677
135.0223, 316.0057
135.5044, 327.4456
135.9865, 331.1763
136.4686, 326.1614
136.9508, 320.8812
137.4329, 318.8606
137.9150, 320.2257
138.3971, 324.1545
138.8792, 332.3173
139.3613, 341.8550
139.8434, 345.2745
140.3256, 341.0291
140.8077, 334.6764
141.2898, 329.5356
141.7719, 326.6042
142.2540, 321.4145
142.7361, 311.0746
143.2183, 297.4941
143.7004, 294.6689
144.1825, 310.7946
144.6646, 327.8166
145.1467, 330.6677
145.6288, 304.6582
146.1110, 289.2390
146.5931, 294.6300
147.0752, 322.7486
147.5573, 338.4670
148.0394, 334.1327
148.5215, 321.7390
149.0037, 313.2450
149.4858, 315.1201
149.9679, 314.0381
150.4500, 305.9780
150.9321, 287.4641
151.4142, 273.9656
151.8964, 268.6412
152.3785, 267.7418
152.8606, 266.0632
153.3427, 260.2998
153.8248, 256.4579
154.3069, 257.2219
154.7890, 266.5154
155.2712, 272.6166
155.7533, 271.6425
156.2354, 266.3572
156.7175, 262.9374
157.1996, 266.1043
157.6817, 268.9899
158.1639, 267.7992
158.6460, 257.1246
159.1281, 248.8107
159.6102, 245.8804
160.0923, 247.7642
160.5744, 252.3760
161.0566, 264.0485
161.5387, 275.4365
162.0208, 281.1647
162.5029, 273.0146
162.9850, 265.0283
163.4671, 264.7063
163.9493, 271.0284
164.4314, 274.7511
164.9135, 265.2505
165.3956, 252.4334
165.8777, 244.7086
166.3598, 251.7983
166.8420, 259.8660
167.3241, 259.6448
167.8062, 251.4211
168.2883, 242.4410
168.7704, 235.5091
169.2525, 231.0617
169.7346, 229.5992
170.2168, 235.4420
170.6989, 242.5191
171.1810, 244.5826
171.6631, 240.8032
172.1452, 235.5021
172.6273, 232.8492
173.1095, 231.3781
173.5916, 227.5543
174.0737, 216.5382
174.5558, 203.2419
175.0379, 194.2708
175.5201, 190.9482
176.0022, 189.5167
176.4843, 183.7028
176.9664, 175.6998
177.4485, 173.1870
177.9306, 187.3932
178.4128, 209.0922
178.8949, 221.8157
179.3770, 221.4832
179.8591, 214.2438
180.3412, 206.9763
180.8233, 199.6198
181.3055, 192.1119
181.7876, 182.3641
182.2697, 172.2539
182.7518, 166.4416
183.2339, 165.6964
183.7160, 170.0172
184.1981, 182.5969
184.6803, 203.1652
185.1624, 221.5908
185.6445, 231.4146
186.1266, 232.6381
186.6087, 224.7081
187.0908, 202.5917
187.5730, 173.6792
188.0551, 157.3308
188.5372, 153.9697
189.0193, 157.3822
189.5014, 164.0248
189.9835, 173.4373
190.4657, 180.5180
190.9478, 183.4362
191.4299, 182.8870
191.9120, 180.2582
192.3941, 174.8309
192.8762, 170.7941
193.3584, 175.2135
193.8405, 187.9428
194.3226, 197.3057
194.8047, 196.1973
195.2868, 186.5698
195.7689, 187.1320
196.2511, 200.7654
196.7332, 217.0771
197.2153, 219.8842
197.6974, 208.1415
198.1795, 196.7611
198.6616, 191.7078
199.1437, 192.9712
199.6259, 195.2603
200.1080, 199.3329
200.5901, 203.1715
201.0722, 202.7699
201.5543, 197.4454
202.0364, 191.7668
202.5186, 187.3964
203.0007, 184.2806
203.4828, 182.6218
203.9649, 182.0936
204.4470, 183.3143
204.9291, 188.6210
205.4113, 199.4502
205.8934, 208.9465
206.3755, 212.5497
206.8576, 208.6722
207.3397, 208.6469
207.8218, 214.3004
208.3040, 223.1260
208.7861, 229.0375
209.2682, 231.9796
209.7503, 232.1349
210.2324, 227.8002
210.7145, 216.3898
211.1967, 212.5840
211.6788, 219.9727
212.1609, 234.7781
212.6430, 245.0928
213.1251, 251.3896
213.6072, 252.1641
214.0894, 244.3513
214.5715, 223.1234
215.0536, 209.0525
215.5357, 204.7595
216.0178, 208.9630
216.4999, 217.1639
216.9820, 231.6995
217.4642, 245.9929
217.9463, 255.8376
218.4284, 260.2881
218.9105, 262.2983
219.3926, 261.1700
219.8747, 257.5671
220.3569, 255.8895
220.8390, 257.0486
221.3211, 258.8806
221.8032, 259.9872
222.2853, 260.5613
222.7674, 260.1265
223.2496, 259.1255
223.7317, 257.3499
224.2138, 251.9957
224.6959, 240.3439
225.1780, 228.5631
225.6601, 220.4696
226.1423, 214.4008
226.6244, 216.4324
227.1065, 231.5992
227.5886, 259.0579
228.0707, 274.0537
228.5528, 271.9540
229.0350, 262.4786
229.5171, 253.4575
229.9992, 243.1715
230.4813, 236.6097
230.9634, 236.5480
231.4455, 243.0256
231.9276, 242.6464
232.4098, 229.1096
232.8919, 214.8398
233.3740, 212.9305
233.8561, 231.9495
234.3382, 246.5717
234.8203, 250.4899
235.3025, 243.1769
235.7846, 242.0377
236.2667, 254.1893
236.7488, 265.7987
237.2309, 260.8400
237.7130, 225.6167
238.1952, 199.4551
238.6773, 192.2692
239.1594, 205.5117
239.6415, 215.3243
240.1236, 220.0122
240.6057, 222.5600
241.0879, 226.0546
241.5700, 230.5273
242.0521, 235.9764
242.5342, 244.1004
243.0163, 255.6668
243.4984, 257.6765
243.9806, 242.9636
244.4627, 225.7064
244.9448, 222.2995
245.4269, 243.3680
245.9090, 258.0281
246.3911, 256.5898
246.8732, 236.7150
247.3554, 227.5149
247.8375, 235.9283
248.3196, 248.8948
248.8017, 251.3661
249.2838, 237.2714
249.7659, 224.9072
250.2481, 218.6702
250.7302, 219.1096
251.2123, 218.0095
251.6944, 214.5354
252.1765, 210.3980
252.6586, 207.6459
253.1408, 207.6286
253.6229, 205.8259
254.1050, 201.0067
254.5871, 193.1453
255.0692, 185.9199
255.5513, 179.4686
256.0334, 173.7296
256.5156, 168.1572
256.9977, 161.7354
257.4798, 156.8641
257.9619, 155.6166
258.4440, 158.5605
258.9261, 154.1401
259.4083, 136.8825
259.8904, 118.7889
260.3725, 115.4967
260.8546, 134.7996
261.3367, 147.3966
261.8188, 144.8512
262.3010, 127.0589
262.7831, 115.7043
263.2652, 111.2122
263.7473, 109.9240
264.2294, 108.5754
264.7115, 108.4597
265.1937, 109.4276
265.6758, 111.3501
266.1579, 113.6660
266.6400, 112.9673
267.1221, 108.7130
267.6042, 101.5538
268.0864, 90.78235
268.5685, 73.61786
269.0506, 64.26654
269.5327, 69.43024
270.0148, 87.89240
270.4969, 93.20923
270.9791, 80.95178
271.4612, 64.42950
271.9433, 59.20190
272.4254, 69.01575
272.9075, 73.73749
273.3896, 64.46521
273.8718, 44.04626
274.3539, 40.70312
274.8360, 60.11621
275.3181, 82.92175
275.8002, 89.31232
276.2823, 76.94458
276.7645, 64.38007
277.2466, 54.51758
277.7287, 47.49316
278.2108, 44.88770
278.6929, 47.45746
279.1750, 51.68317
279.6572, 56.46881
280.1393, 62.36768
280.6214, 59.85443
281.1035, 42.67963
281.5856, 16.57745
282.0677, 6.375183
282.5499, 14.40448
283.0320, 26.60071
283.5141, 31.54620
283.9962, 29.30811
284.4783, 24.56848
284.9604, 16.35870
285.4425, 7.387939
285.9247, 8.491516
286.4068, 20.68799
286.8889, 31.50049
287.3710, 28.80780
287.8531, 14.23383
288.3352, 2.071350
288.8174, 5.953613
289.2995, 9.366516
289.7816, 4.108826
290.2637, 10.00732
290.7458, 22.24890
291.2279, 22.50073
291.7101, 13.17712
292.1922, 5.798950
292.6743, 2.201355
293.1564, 1.639832
293.6385, 4.631042
294.1206, 10.87659
294.6028, 15.39191
295.0849, 14.28455
295.5670, 8.779724
296.0491, 1.842285
296.5312, 6.718811
297.0133, 14.71661
297.4955, 18.89087
297.9776, 19.39722
298.4597, 18.30487
298.9418, 16.60724
299.4239, 14.25665
299.9060, 10.16705
300.3882, 3.173706
300.8703, 2.064453
301.3524, 1.940308
301.8345, 12.90271
302.3166, 22.86371
302.7987, 28.30701
303.2809, 29.96344
303.7630, 28.26831
304.2451, 22.76764
304.7272, 16.50214
305.2093, 11.20935
305.6914, 7.255554
306.1736, 5.552368
306.6557, 8.596741
307.1378, 13.05878
307.6199, 15.57556
308.1020, 15.79712
308.5841, 14.89160
309.0663, 13.99579
309.5484, 12.53247
310.0305, 9.498230
310.5126, 2.481812
310.9947, 5.109192
311.4768, 10.80127
311.9590, 14.60205
312.4411, 15.94629
312.9232, 11.87622
313.4053, 5.926392
313.8874, 2.508545
314.3695, 6.229187
314.8516, 10.16718
315.3337, 10.70599
315.8159, 7.862366
316.2980, 3.978638
316.7801, 2.941650
317.2622, 9.130981
317.7443, 11.11169
318.2264, 0.7623290
318.7086, 6.955566
319.1907, 3.645203
319.6728, 8.667969
320.1549, 15.78058
320.6370, 5.003235
321.1191, 7.469666
321.6013, 10.76105
322.0834, 10.38043
322.5655, 26.41141
323.0476, 31.12421
323.5297, 26.16617
324.0118, 18.33377
324.4940, 4.026703
324.9761, 9.458801
325.4582, 18.33197
325.9403, 16.68704
326.4224, 18.44867
326.9045, 29.13596
327.3867, 44.34351
327.8688, 52.15744
328.3509, 48.25333
328.8330, 40.92233
329.3151, 31.90567
329.7972, 16.32318
330.2794, 9.657928
330.7615, 17.27634
331.2436, 31.79141
331.7257, 40.28436
332.2078, 39.88898
332.6899, 37.86951
333.1721, 35.88440
333.6542, 33.53232
334.1363, 33.15076
334.6184, 35.47055
335.1005, 39.16586
335.5826, 42.92719
336.0648, 47.66599
336.5469, 50.19150
337.0290, 48.64474
337.5111, 42.94089
337.9932, 40.91397
338.4753, 43.49384
338.9575, 47.96384
339.4396, 52.22659
339.9217, 56.56287
340.4038, 59.17227
340.8859, 59.39648
341.3680, 57.64383
341.8502, 55.41501
342.3323, 52.55811
342.8144, 50.25357
343.2965, 50.23593
343.7786, 52.44223
344.2607, 52.66208
344.7429, 49.27472
345.2250, 44.81659
345.7071, 46.72101
346.1892, 55.13269
346.6713, 61.45642
347.1534, 57.29285
347.6355, 45.82364
348.1176, 39.82220
348.5998, 41.26941
349.0819, 46.77075
349.5640, 53.45679
350.0461, 60.74252
350.5282, 65.14008
351.0103, 61.58984
351.4925, 54.72006
351.9746, 53.00931
352.4567, 57.47372
352.9388, 64.17227
353.4209, 71.89447
353.9030, 79.01123
354.3852, 81.80191
354.8673, 74.41370
355.3494, 64.27271
355.8315, 59.18179
356.3136, 59.38858
356.7957, 60.81866
357.2779, 61.34903
357.7600, 61.38733
358.2421, 61.45099
358.7242, 61.57928
359.2063, 61.42993
359.6884, 60.08438
360.1706, 57.72659
360.6527, 55.99875
361.1348, 56.57892
361.6169, 57.89893
362.0990, 58.84470
362.5811, 58.83978
363.0633, 58.95590
363.5454, 57.95636
364.0275, 56.94376
364.5096, 59.14075
364.9917, 69.09753
365.4738, 79.55499
365.9560, 88.16135
366.4381, 97.65219
366.9202, 98.65942
367.4023, 81.24155
367.8844, 56.58966
368.3665, 42.93527
368.8487, 53.43787
369.3308, 62.76395
369.8129, 63.62204
370.2950, 53.60059
370.7771, 48.10742
371.2592, 49.57391
371.7414, 53.58624
372.2235, 56.00482
372.7056, 55.95901
373.1877, 55.77991
373.6698, 56.15924
374.1519, 56.81192
374.6341, 54.38058
375.1162, 46.71381
375.5983, 40.18686
376.0804, 41.49362
376.5625, 52.56790
377.0446, 59.64105
377.5267, 59.96829
378.0089, 55.45749
378.4910, 50.78125
378.9731, 45.64343
379.4552, 42.28027
379.9373, 42.23749
380.4194, 45.25116
380.9016, 45.42038
381.3837, 42.33310
381.8658, 38.90491
382.3479, 42.25763
382.8300, 50.90939
383.3121, 53.95834
383.7943, 38.57367
384.2764, 14.88980
384.7585, 9.400879
385.2406, 23.04330
385.7227, 38.53827
386.2048, 37.53680
386.6870, 26.04492
387.1691, 16.51440
387.6512, 12.19644
388.1333, 12.23865
388.6154, 19.20633
389.0975, 31.89526
389.5797, 41.64441
390.0618, 39.56058
390.5439, 33.07318
391.0260, 30.16595
391.5081, 35.01657
391.9902, 39.16360
392.4724, 36.98950
392.9545, 30.63510
393.4366, 25.06839
393.9187, 21.26505
394.4008, 19.55179
394.8829, 20.31769
395.3651, 23.99643
395.8472, 28.32764
396.3293, 34.48883
396.8114, 40.54507
397.2935, 44.10190
397.7756, 40.19186
398.2578, 38.33612
398.7399, 43.31711
399.2220, 55.99686
399.7041, 60.22568
400.1862, 47.07724
400.6683, 32.05243
401.1505, 26.16742
401.6326, 37.12915
402.1147, 43.97852
402.5968, 43.90329
403.0789, 38.61533
403.5610, 33.87344
404.0432, 28.64276
404.5253, 26.25491
405.0074, 29.85245
405.4895, 41.67136
405.9716, 46.45688
406.4537, 42.42856
406.9359, 34.64053
407.4180, 30.03503
407.9001, 28.59665
408.3822, 30.47455
408.8643, 37.72403
409.3464, 48.45099
409.8285, 54.13263
410.3106, 54.73947
410.7928, 51.04083
411.2749, 39.32294
411.7570, 22.71951
412.2391, 14.30331
412.7212, 19.96304
413.2033, 31.57483
413.6855, 37.91162
414.1676, 39.68054
414.6497, 40.37079
415.1318, 42.76312
415.6139, 45.13437
416.0960, 45.35831
416.5782, 42.63144
417.0603, 38.09317
417.5424, 29.87299
418.0245, 20.67026
418.5066, 15.29230
418.9887, 18.72668
419.4709, 24.13504
419.9530, 28.03983
420.4351, 30.22482
420.9172, 31.48441
421.3993, 30.10599
421.8814, 28.92154
422.3636, 30.31915
422.8457, 38.22409
423.3278, 44.87503
423.8099, 50.87900
424.2920, 55.25760
424.7741, 52.95844
425.2563, 36.08453
425.7384, 19.47318
426.2205, 8.775604
426.7026, 4.586945
427.1847, 6.279266
427.6668, 18.16531
428.1490, 32.87347
428.6311, 38.12781
429.1132, 29.23090
429.5953, 23.47876
430.0774, 27.83063
430.5595, 40.97659
431.0417, 44.47034
431.5238, 36.06329
432.0059, 24.92358
432.4880, 17.93756
432.9701, 15.05649
433.4522, 18.02643
433.9344, 30.22885
434.4165, 44.58298
434.8986, 44.70282
435.3807, 31.77954
435.8628, 19.50778
436.3449, 16.46112
436.8271, 19.77411
437.3092, 24.46793
437.7913, 30.45126
438.2734, 35.89139
438.7555, 39.06287
439.2376, 40.36090
439.7197, 40.56644
440.2018, 37.52469
440.6840, 35.43048
441.1661, 40.96561
441.6482, 52.36551
442.1303, 56.49084
442.6124, 37.60550
443.0945, 15.02890
443.5767, 3.992249
444.0588, 13.27261
444.5409, 23.32666
445.0230, 29.48282
445.5051, 33.02777
445.9872, 36.14139
446.4694, 40.67505
446.9515, 43.86172
447.4336, 43.70947
447.9157, 38.85013
448.3978, 37.96512
448.8799, 44.38519
449.3621, 52.16824
449.8442, 55.87985
450.3263, 54.64566
450.8084, 51.21747
451.2905, 45.50378
451.7726, 37.96536
452.2548, 29.53308
452.7369, 19.44308
453.2190, 11.31201
453.7011, 6.706024
454.1832, 5.674988
454.6653, 10.09152
455.1475, 21.73575
455.6296, 33.30505
456.1117, 32.96609
456.5938, 22.80417
457.0759, 14.87564
457.5580, 14.63690
458.0402, 18.95383
458.5223, 24.27881
459.0044, 30.35083
459.4865, 33.88095
459.9686, 30.22583
460.4507, 23.30530
460.9329, 17.78464
461.4150, 14.36667
461.8971, 13.42471
462.3792, 17.80246
462.8613, 24.75931
463.3434, 28.84625
463.8256, 24.33044
464.3077, 19.50613
464.7898, 18.10318
465.2719, 19.84729
465.7540, 24.11261
466.2361, 38.13129
466.7183, 51.47882
467.2004, 55.55322
467.6825, 38.96692
468.1646, 26.82507
468.6467, 20.17749
469.1288, 18.95224
469.6109, 23.83328
470.0930, 40.23874
470.5752, 53.24658
471.0573, 56.39554
471.5394, 48.62738
472.0215, 36.36386
472.5036, 16.89453
472.9857, 1.447784
473.4679, 7.689911
473.9500, 1.748413
474.4321, 8.010620
474.9142, 22.93716
475.3963, 37.48892
475.8784, 34.17059
476.3606, 14.34705
476.8427, 2.180603
477.3248, 3.150513
477.8069, 19.92987
478.2890, 29.85062
478.7711, 30.41483
479.2533, 26.68021
479.7354, 20.29462
480.2175, 12.97992
480.6996, 7.649353
481.1817, 5.605438
481.6638, 5.855164
482.1460, 9.696442
482.6281, 16.40460
483.1102, 20.15128
483.5923, 14.27103
484.0744, 7.963165
484.5565, 7.552032
485.0387, 20.45850
485.5208, 29.05692
486.0029, 29.19290
486.4850, 24.77808
486.9671, 21.69135
487.4492, 20.26251
487.9314, 19.79510
488.4135, 21.04007
488.8956, 23.86453
489.3777, 22.00357
489.8598, 12.83731
490.3419, 4.933472
490.8241, 6.424042
491.3062, 17.99481
491.7883, 26.08551
492.2704, 29.24551
492.7525, 28.55429
493.2346, 23.90582
493.7168, 16.06323
494.1989, 10.51599
494.6810, 11.45395
495.1631, 15.93765
495.6452, 19.50504
496.1273, 21.87985
496.6095, 22.08890
497.0916, 17.71881
497.5737, 11.33429
498.0558, 5.906799
498.5379, 2.065704
499.0201, 0.3763120
499.5022, 2.032593
499.9843, 2.310516
500.4664, 6.9610998E-02
500.9485, 11.79779
501.4306, 20.51608
501.9127, 18.41867
502.3948, 3.087067
502.8770, 3.913788
503.3591, 5.874542
503.8412, 19.62189
504.3233, 29.90424
504.8054, 37.48193
505.2875, 39.48218
505.7697, 33.31445
506.2518, 22.75879
506.7339, 17.81683
507.2160, 20.10040
507.6981, 21.24600
508.1802, 15.97214
508.6624, 5.787720
509.1445, 4.635712
509.6266, 13.59027
510.1087, 23.32062
510.5908, 23.82339
511.0729, 17.74835
511.5551, 13.68536
512.0372, 14.05069
512.5193, 15.64639
513.0014, 15.22726
513.4835, 13.11972
513.9656, 10.15964
514.4478, 3.541138
514.9299, 1.365601
515.4120, 1.464264
515.8941, 11.74954
516.3762, 19.35001
516.8583, 18.11536
517.3405, 13.57025
517.8226, 9.869354
518.3047, 8.454651
518.7868, 6.871857
519.2689, 4.321198
519.7510, 1.530457
520.2332, 0.1658630
520.7153, 2.042084
521.1974, 2.289185
521.6795, 2.422241
522.1616, 12.03238
522.6437, 11.15240
523.1259, 3.232483
523.6080, 20.00397
524.0901, 30.77219
524.5722, 35.60983
525.0543, 36.37607
525.5364, 33.26627
526.0186, 28.15387
526.5007, 19.66888
526.9828, 8.978516
527.4649, 2.860291
527.9470, 7.802704
528.4291, 16.87317
528.9113, 22.14813
529.3934, 24.03598
529.8755, 25.63721
530.3576, 24.91177
530.8397, 23.00739
531.3218, 21.60751
531.8040, 21.42535
532.2861, 21.58148
532.7682, 23.92706
533.2503, 25.91876
533.7324, 23.75571
534.2145, 9.253967
534.6967, 0.9087830
535.1788, 2.347137
535.6609, 4.061218
536.1430, 9.649933
536.6251, 14.50940
537.1072, 18.25360
537.5894, 20.30627
538.0715, 20.36874
538.5536, 21.62833
539.0357, 25.25742
539.5178, 27.35297
539.9999, 19.79504
540.4821, 4.153381
540.9642, 5.931549
541.4463, 4.695709
541.9284, 2.349121
542.4105, 7.101715
542.8926, 9.715820
543.3748, 11.05460
543.8569, 8.945374
544.3390, 7.340393
544.8211, 11.13214
545.3032, 21.54291
545.7853, 31.23337
546.2675, 37.02695
546.7495, 39.75812
547.2316, 40.06845
547.7137, 36.15530
548.1959, 32.10901
548.6780, 27.33762
549.1601, 22.82944
549.6422, 21.68967
550.1243, 28.09869
550.6064, 31.69733
551.0886, 28.17169
551.5707, 17.24033
552.0528, 8.699432
552.5349, 2.017609
553.0170, 0.6079710
553.4991, 4.773621
553.9813, 17.53485
554.4634, 28.12387
554.9455, 35.76172
555.4276, 39.54117
555.9097, 35.47675
556.3918, 25.89987
556.8740, 18.31320
557.3561, 17.09833
557.8382, 18.80231
558.3203, 22.06308
558.8024, 26.13339
559.2845, 26.30383
559.7667, 13.81320
560.2488, 0.9056400
560.7309, 3.232605
561.2130, 6.432404
561.6951, 14.56940
562.1772, 18.80316
562.6594, 19.81717
563.1415, 18.08664
563.6236, 8.555420
564.1057, 4.860870
564.5878, 11.91696
565.0699, 25.49896
565.5521, 29.33548
566.0342, 20.49655
566.5163, 12.61591
566.9984, 13.13928
567.4805, 20.94144
567.9626, 26.44006
568.4448, 29.58612
568.9269, 31.34958
569.4090, 33.20792
569.8911, 34.36926
570.3732, 32.91956
570.8553, 28.05298
571.3375, 21.51331
571.8196, 11.92493
572.3017, 2.048523
572.7838, 2.619873
573.2659, 6.371002
573.7480, 15.23273
574.2302, 16.69070
574.7123, 11.32303
575.1944, 7.931244
575.6765, 8.841431
576.1586, 11.61691
576.6407, 15.53476
577.1229, 21.84787
577.6050, 25.42401
578.0871, 25.32458
578.5692, 23.72293
579.0513, 23.15323
579.5334, 23.69263
580.0156, 23.64911
580.4977, 23.75247
580.9798, 23.60837
581.4619, 20.80249
581.9440, 15.51974
582.4261, 8.855408
582.9083, 4.797577
583.3904, 16.45227
583.8725, 9.592712
584.3546, 14.95871
584.8367, 36.56085
585.3188, 45.48303
585.8010, 44.09766
586.2831, 31.77335
586.7652, 2.304474
587.2473, 23.10794
587.7294, 10.56964
588.2115, 16.71085
588.6937, 32.67764
589.1758, 29.66464
589.6579, 25.08643
590.1400, 20.56049
590.6221, 16.44345
591.1042, 14.59885
591.5864, 15.67328
592.0685, 16.77802
592.5506, 15.28638
593.0327, 11.92477
593.5148, 14.47681
593.9969, 23.40857
594.4791, 32.20538
594.9612, 35.30942
595.4433, 33.89044
595.9254, 29.64771
596.4075, 22.14011
596.8896, 14.44647
597.3718, 7.199615
597.8539, 2.453369
598.3360, 3.662842
598.8181, 21.87924
599.3002, 36.20328
599.7823, 35.95154
600.2645, 23.24677
600.7466, 15.16315
601.2287, 17.95682
601.7108, 20.03275
602.1929, 15.18585
602.6750, 1.051849
603.1572, 1.342560
603.6393, 11.65018
604.1214, 28.28152
604.6035, 37.84592
605.0856, 40.59329
605.5677, 42.24545
606.0499, 43.56381
606.5320, 44.26361
607.0141, 44.52060
607.4962, 43.87659
607.9783, 41.05643
608.4604, 33.34198
608.9425, 24.93027
609.4246, 17.83820
609.9067, 12.61014
610.3889, 11.89468
610.8710, 23.91415
611.3531, 34.96118
611.8352, 36.15237
612.3173, 23.55075
612.7994, 16.50107
613.2816, 18.37198
613.7637, 23.65176
614.2458, 29.08765
614.7279, 36.30579
615.2100, 37.51224
615.6921, 30.36249
616.1743, 19.85474
616.6564, 14.79556
617.1385, 14.93341
617.6206, 15.49530
618.1027, 14.23807
618.5848, 12.83542
619.0670, 15.53040
619.5491, 21.35684
620.0312, 27.12173
620.5133, 32.61557
620.9954, 36.19855
621.4775, 35.13153
621.9597, 28.92966
622.4418, 25.12775
622.9239, 30.88275
623.4060, 36.89734
623.8881, 36.41010
624.3702, 22.34830
624.8524, 12.66263
625.3345, 7.143616
625.8166, 6.196228
626.2987, 12.97241
626.7808, 30.87970
627.2629, 38.76736
627.7451, 28.64487
628.2272, 9.389832
628.7093, 2.534119
629.1914, 7.157257
629.6735, 13.91202
630.1556, 20.72452
630.6378, 24.81076
631.1199, 20.39230
631.6020, 8.108032
632.0841, 1.163605
632.5662, 0.7982180
633.0483, 7.208069
633.5305, 13.52173
634.0126, 19.65741
634.4947, 23.38837
634.9768, 21.52814
635.4589, 18.56128
635.9410, 18.98480
636.4232, 25.01901
636.9053, 30.02246
637.3874, 34.41931
637.8695, 36.53799
638.3516, 30.78131
638.8337, 16.50168
639.3159, 6.541473
639.7980, 5.197021
640.2801, 10.16055
640.7622, 17.90964
641.2443, 27.30246
641.7264, 33.27902
642.2086, 28.72095
642.6907, 20.57758
643.1728, 16.50705
643.6549, 17.34085
644.1370, 17.81271
644.6191, 14.27930
645.1013, 8.983917
645.5834, 6.531525
646.0655, 8.934235
646.5476, 10.58749
647.0297, 11.53372
647.5118, 11.67029
647.9940, 10.57999
648.4761, 7.829102
648.9582, 5.639069
649.4403, 4.205536
649.9224, 3.825195
650.4045, 5.862732
650.8867, 9.969604
651.3688, 13.29605
651.8509, 15.38400
652.3330, 15.38858
652.8151, 9.833832
653.2972, 0.4146730
653.7794, 4.290588
654.2615, 3.578949
654.7436, 14.60141
655.2257, 22.23199
655.7078, 25.64761
656.1899, 26.46310
656.6721, 21.67172
657.1542, 16.78223
657.6363, 16.41818
658.1184, 23.69617
658.6005, 25.48929
659.0826, 19.28314
659.5648, 10.33563
660.0469, 6.068604
660.5290, 6.285126
661.0111, 9.509796
661.4932, 17.80707
661.9753, 25.78574
662.4575, 24.40451
662.9396, 16.12808
663.4217, 8.504395
663.9038, 3.606781
664.3859, 2.072052
664.8680, 6.497162
665.3502, 16.06714
665.8323, 22.51587
666.3144, 20.55292
666.7965, 17.88412
667.2786, 18.36081
667.7607, 22.91711
668.2429, 25.44522
668.7250, 25.57104
669.2071, 24.27444
669.6892, 21.81705
670.1713, 18.25397
670.6534, 16.47946
671.1355, 17.32617
671.6176, 17.85950
672.0997, 11.74084
672.5818, 2.724915
673.0640, 0.4668580
673.5461, 8.479950
674.0282, 18.75970
674.5103, 22.96021
674.9924, 23.26001
675.4745, 24.25385
675.9567, 30.85843
676.4388, 34.53943
676.9209, 29.73743
677.4030, 18.76410
677.8851, 16.14294
678.3672, 26.15598
678.8494, 35.35455
679.3315, 37.93820
679.8136, 34.16516
680.2957, 25.06665
680.7778, 10.05618
681.2599, 0.8869930
681.7421, 4.130524
682.2242, 18.33374
682.7063, 29.76645
683.1884, 37.21286
683.6705, 40.46353
684.1526, 35.59628
684.6348, 28.31244
685.1169, 24.60620
685.5990, 29.59091
686.0811, 32.82227
686.5632, 31.48212
687.0453, 28.05936
687.5275, 25.79654
688.0096, 25.41974
688.4917, 24.28015
688.9738, 21.40286
689.4559, 17.86630
689.9380, 16.08871
690.4202, 16.26901
690.9023, 18.11908
691.3844, 23.72516
691.8665, 29.58755
692.3486, 29.80005
692.8307, 25.15817
693.3129, 19.96005
693.7950, 15.54596
694.2771, 12.22720
694.7592, 11.66287
695.2413, 14.66272
695.7234, 14.93686
696.2056, 3.363129
696.6877, 5.145599
697.1698, 0.8177190
697.6519, 28.62219
698.1340, 41.37469
698.6161, 35.33609
699.0983, 23.70386
699.5804, 21.19482
700.0625, 26.11996
700.5446, 29.32693
701.0267, 29.14981
701.5089, 27.12283
701.9910, 23.73337
702.4731, 19.85046
702.9552, 16.97797
703.4373, 16.58746
703.9194, 16.24112
704.4016, 14.20154
704.8837, 11.52240
705.3658, 10.92111
705.8479, 12.86057
706.3300, 16.68240
706.8121, 24.17273
707.2943, 33.43417
707.7764, 34.36472
708.2585, 26.08401
708.7406, 16.36761
709.2227, 9.083191
709.7048, 3.500641
710.1870, 5.114410
710.6691, 15.97983
711.1512, 18.37628
711.6333, 4.647278
712.1154, 33.20612
712.5975, 47.82755
713.0797, 45.26697
713.5618, 40.77048
714.0439, 36.13693
714.5260, 33.09235
715.0081, 32.92197
715.4902, 36.72079
715.9724, 40.66376
716.4545, 45.07700
716.9366, 49.00540
717.4187, 52.46713
717.9008, 55.17056
718.3829, 51.34549
718.8651, 38.40604
719.3472, 24.29196
719.8293, 19.47586
720.3114, 21.06198
720.7935, 22.98816
721.2756, 21.50793
721.7578, 21.67398
722.2399, 27.27069
722.7220, 36.31393
723.2041, 43.97943
723.6862, 53.96396
724.1683, 56.84741
724.6505, 47.06967
725.1326, 29.58542
725.6147, 25.43561
726.0968, 37.31970
726.5789, 46.03769
727.0610, 39.18680
727.5432, 23.91315
728.0253, 20.08002
728.5074, 26.49063
728.9895, 33.75412
729.4716, 36.19138
729.9537, 36.37091
730.4359, 35.95422
730.9180, 35.04959
731.4000, 34.97211
731.8821, 38.06546
732.3643, 40.33093
732.8464, 39.01489
733.3285, 32.43298
733.8106, 29.74008
734.2927, 32.71716
734.7748, 35.66895
735.2570, 32.07416
735.7391, 23.08688
736.2212, 16.99719
736.7033, 14.74512
737.1854, 15.26627
737.6675, 19.52481
738.1497, 25.20081
738.6318, 28.64502
739.1139, 27.15912
739.5960, 26.65201
740.0781, 32.20407
740.5602, 39.10031
741.0424, 40.18149
741.5245, 31.66653
742.0066, 23.07455
742.4887, 13.23715
742.9708, 5.810455
743.4529, 11.56772
743.9351, 30.75967
744.4172, 43.43860
744.8993, 40.74170
745.3814, 31.01144
745.8635, 24.92105
746.3456, 22.72516
746.8278, 25.36734
747.3099, 40.14630
747.7920, 53.50067
748.2741, 57.39230
748.7562, 52.85519
749.2383, 47.14542
749.7205, 40.53146
750.2026, 33.92206
750.6847, 28.42773
751.1668, 23.59167
751.6489, 12.67294
752.1310, 5.904938
752.6132, 19.89439
753.0953, 20.58498
753.5774, 11.02655
754.0595, 4.277130
754.5416, 24.34082
755.0237, 40.03918
755.5059, 42.81866
755.9880, 39.42542
756.4701, 33.71649
756.9522, 25.09988
757.4343, 21.27454
757.9164, 28.01025
758.3986, 35.94443
758.8807, 39.54153
759.3628, 37.52658
759.8449, 36.88028
760.3270, 37.94141
760.8091, 39.32047
761.2913, 39.40408
761.7734, 38.64227
762.2555, 38.97095
762.7376, 41.12708
763.2197, 41.86526
763.7018, 35.69241
764.1840, 27.86642
764.6661, 24.64801
765.1482, 31.49884
765.6303, 36.64197
766.1124, 35.53381
766.5945, 33.22211
767.0767, 36.76520
767.5588, 49.89169
768.0409, 53.66635
768.5230, 42.94812
769.0051, 26.85501
769.4872, 20.01230
769.9694, 19.87149
770.4515, 21.61435
770.9336, 24.99579
771.4157, 27.50504
771.8978, 25.17288
772.3799, 20.60260
772.8621, 18.80664
773.3442, 25.31635
773.8263, 30.11661
774.3084, 31.77316
774.7905, 30.03934
775.2726, 22.40399
775.7548, 5.408813
776.2369, 4.744110
776.7190, 0.9991760
777.2011, 10.64780
777.6832, 14.99133
778.1653, 13.33206
778.6475, 12.22815
779.1296, 19.23962
779.6117, 24.90649
780.0938, 17.36267
780.5759, 0.4531560
781.0580, 10.17224
781.5402, 4.861298
782.0223, 2.345215
782.5044, 5.944550
782.9865, 6.859985
783.4686, 13.94006
783.9507, 29.10278
784.4329, 43.64948
784.9150, 54.62704
785.3971, 61.72678
785.8792, 63.93024
786.3613, 61.27863
786.8434, 53.73468
787.3256, 33.28885
787.8077, 13.97003
788.2898, 9.153351
788.7719, 19.30377
789.2540, 28.26852
789.7361, 32.87851
790.2183, 34.49570
790.7004, 31.87894
791.1825, 24.42508
791.6646, 27.45532
792.1467, 43.96094
792.6288, 57.03983
793.1110, 48.80038
793.5930, 28.55319
794.0751, 23.75266
794.5573, 35.36206
795.0394, 46.31378
795.5215, 40.56934
796.0036, 31.62430
796.4857, 32.51166
796.9678, 48.67838
797.4500, 53.81586
797.9321, 35.67523
798.4142, 16.05328
798.8963, 8.289917
799.3784, 13.89453
799.8605, 20.72162
800.3427, 29.01868
800.8248, 37.51697
801.3069, 48.01993
801.7890, 57.45413
802.2711, 58.03076
802.7532, 47.85556
803.2354, 38.01428
803.7175, 35.20169
804.1996, 35.39896
804.6817, 35.74539
805.1638, 37.81177
805.6459, 34.28781
806.1281, 20.07407
806.6102, 7.958801
807.0923, 10.60150
807.5744, 27.42468
808.0565, 32.49463
808.5386, 22.40622
809.0208, 10.54865
809.5029, 9.811859
809.9850, 16.37238
810.4671, 26.51819
810.9492, 42.56198
811.4313, 54.63092
811.9135, 56.89273
812.3956, 53.54547
812.8777, 48.72104
813.3598, 41.68753
813.8419, 34.77618
814.3240, 26.50528
814.8062, 21.14645
815.2883, 27.36050
815.7704, 42.10583
816.2525, 46.58240
816.7346, 36.51541
817.2167, 24.07153
817.6989, 19.00772
818.1810, 19.06268
818.6631, 21.74911
819.1452, 28.43192
819.6273, 33.67172
820.1094, 38.10675
820.5916, 39.32532
821.0737, 32.85968
821.5558, 14.73203
822.0379, 8.624573
822.5200, 19.16879
823.0021, 33.83383
823.4843, 36.02536
823.9664, 30.11191
824.4485, 27.84790
824.9306, 32.82962
825.4127, 37.97473
825.8948, 39.88937
826.3770, 38.79810
826.8591, 34.82791
827.3412, 21.59012
827.8233, 15.78909
828.3054, 21.68671
828.7875, 30.36230
829.2697, 29.76233
829.7518, 19.86163
830.2339, 15.52774
830.7160, 18.96167
831.1981, 26.87958
831.6802, 42.63770
832.1624, 58.18723
832.6445, 58.20200
833.1266, 28.95731
833.6087, 8.822205
834.0908, 19.94302
834.5729, 42.35699
835.0551, 54.43134
835.5372, 52.71350
836.0193, 48.81683
836.5014, 42.33728
836.9835, 35.95612
837.4656, 33.85593
837.9478, 34.85757
838.4299, 33.89026
838.9120, 28.69147
839.3941, 25.54025
839.8762, 31.65274
840.3583, 40.33389
840.8405, 44.56946
841.3226, 41.52713
841.8047, 36.12619
842.2868, 25.74176
842.7689, 16.36472
843.2510, 15.25388
843.7332, 22.89822
844.2153, 27.64786
844.6974, 28.28970
845.1795, 27.07379
845.6616, 26.50623
846.1437, 25.67200
846.6259, 24.08450
847.1080, 21.81848
847.5901, 19.79822
848.0722, 17.57822
848.5543, 16.36179
849.0364, 17.55490
849.5186, 23.27585
850.0007, 24.44720
850.4828, 19.30817
850.9649, 14.19382
851.4470, 16.27386
851.9291, 23.70264
852.4113, 30.63321
852.8934, 36.68484
853.3755, 39.59122
853.8576, 33.58902
854.3397, 26.19073
854.8218, 25.32840
855.3039, 35.91879
855.7860, 39.33896
856.2681, 31.39612
856.7502, 20.53830
857.2324, 9.839081
857.7145, 1.102020
858.1966, 0.2541200
858.6787, 14.00256
859.1608, 27.02734
859.6429, 20.96915
860.1251, 8.602661
860.6072, 7.439026
861.0893, 19.87292
861.5714, 31.21112
862.0535, 42.15738
862.5356, 44.65936
863.0178, 31.12454
863.4999, 1.068268
863.9820, 15.11465
864.4641, 9.287292
864.9462, 1.403961
865.4283, 12.26410
865.9105, 21.10034
866.3926, 21.11603
866.8747, 12.86777
867.3568, 4.173553
867.8389, 2.509308
868.3210, 6.003448
868.8032, 4.825165
869.2853, 1.313995
869.7674, 7.759247
870.2495, 15.94519
870.7316, 21.70435
871.2137, 20.94202
871.6959, 15.78250
872.1780, 19.63916
872.6601, 31.36383
873.1422, 40.05508
873.6243, 35.94128
874.1064, 28.64874
874.5886, 25.52170
875.0707, 26.45340
875.5528, 29.59079
876.0349, 39.22424
876.5170, 45.22040
876.9991, 44.42422
877.4813, 38.23926
877.9634, 30.79044
878.4455, 22.03595
878.9276, 16.34097
879.4097, 16.91803
879.8918, 19.99771
880.3740, 22.29926
880.8561, 23.18649
881.3382, 21.09198
881.8203, 9.146027
882.3024, 1.459503
882.7845, 6.005035
883.2667, 16.12320
883.7488, 18.10910
884.2309, 9.754669
884.7130, 5.734680
885.1951, 10.37680
885.6772, 18.65292
886.1594, 22.75763
886.6415, 24.32965
887.1236, 27.64560
887.6057, 37.30902
888.0878, 43.40817
888.5699, 38.90875
889.0521, 29.22916
889.5342, 21.35092
890.0163, 14.28726
890.4984, 13.00885
890.9805, 20.01929
891.4626, 27.66412
891.9448, 23.01694
892.4269, 10.77621
892.9090, 7.289917
893.3911, 17.27557
893.8732, 26.60086
894.3553, 22.23349
894.8375, 14.27213
895.3196, 12.69904
895.8017, 22.74301
896.2838, 28.46280
896.7659, 28.59283
897.2480, 26.74438
897.7302, 26.22052
898.2123, 26.47742
898.6944, 23.37683
899.1765, 16.52420
899.6586, 9.809235
900.1407, 3.593506
900.6229, 0.6864620
901.1050, 7.092133
901.5871, 24.44183
902.0692, 29.55298
902.5513, 9.428223
903.0334, 6.746429
903.5156, 3.420319
903.9977, 15.70557
904.4798, 20.38608
904.9619, 11.24850
905.4440, 4.172974
905.9261, 11.76971
906.4083, 23.88522
906.8904, 31.88690
907.3725, 35.84167
907.8546, 37.23172
908.3367, 33.78293
908.8188, 31.10416
909.3010, 31.69061
909.7831, 33.53967
910.2652, 28.96979
910.7473, 18.01367
911.2294, 11.59985
911.7115, 15.86609
912.1937, 22.08417
912.6758, 18.64426
913.1579, 9.366180
913.6400, 1.367828
914.1221, 4.433929
914.6042, 6.738190
915.0864, 3.144318
915.5685, 2.289429
916.0506, 3.432495
916.5327, 0.4721370
917.0148, 0.9696350
917.4969, 9.781036
917.9790, 21.12247
918.4611, 33.32663
918.9432, 43.02725
919.4254, 44.70825
919.9075, 36.03436
920.3896, 23.97427
920.8717, 1.907623
921.3538, 15.36859
921.8359, 16.84793
922.3181, 1.545410
922.8002, 14.92465
923.2823, 22.14362
923.7644, 27.61264
924.2465, 38.66434
924.7286, 48.26956
925.2108, 41.07776
925.6929, 17.85687
926.1750, 2.748352
926.6571, 18.45560
927.1392, 31.77280
927.6213, 22.35403
928.1035, 4.284424
928.5856, 4.654449
929.0677, 25.28149
929.5498, 47.58414
930.0319, 40.24127
930.5140, 20.87732
930.9962, 17.73853
931.4783, 25.86786
931.9604, 31.49829
932.4425, 26.24481
932.9246, 21.20312
933.4067, 20.23560
933.8889, 21.22339
934.3710, 20.51004
934.8531, 17.68286
935.3352, 15.73343
935.8173, 14.74405
936.2994, 16.31198
936.7816, 28.18933
937.2637, 42.47623
937.7458, 43.28052
938.2279, 19.75146
938.7100, 3.154846
939.1921, 11.43054
939.6743, 25.33054
940.1564, 30.02481
940.6385, 23.20383
941.1206, 21.63974
941.6027, 26.21863
942.0848, 30.11035
942.5670, 24.82709
943.0491, 16.56659
943.5312, 14.71906
944.0133, 19.58621
944.4954, 24.38797
944.9775, 26.90320
945.4597, 28.39603
945.9418, 29.43518
946.4239, 29.96228
946.9060, 29.42969
947.3881, 27.79623
947.8702, 25.85773
948.3524, 23.61105
948.8345, 21.64352
949.3166, 20.65540
949.7987, 20.57748
950.2808, 21.27356
950.7629, 23.68323
951.2451, 25.75464
951.7272, 27.19986
952.2093, 28.69742
952.6914, 31.85358
953.1735, 36.81232
953.6556, 39.54440
954.1378, 39.73825
954.6199, 35.85477
955.1020, 18.87427
955.5841, 0.3770750
956.0662, 2.297607
956.5483, 19.80750
957.0305, 37.25079
957.5126, 45.48672
957.9947, 47.05737
958.4768, 40.56738
958.9589, 26.51529
959.4410, 23.24185
959.9232, 30.72766
960.4053, 37.94684
960.8874, 34.68265
961.3695, 29.27457
961.8516, 29.01843
962.3337, 33.23361
962.8159, 38.03784
963.2980, 46.50912
963.7801, 49.43909
964.2622, 42.33426
964.7443, 30.04556
965.2264, 26.17126
965.7086, 29.56073
966.1907, 32.74493
966.6728, 33.01678
967.1549, 32.90268
967.6370, 34.77341
968.1191, 37.39429
968.6013, 39.06519
969.0834, 39.82416
969.5655, 39.26401
970.0476, 37.77692
970.5297, 34.20255
971.0118, 24.35013
971.4940, 11.17987
971.9761, 6.732025
972.4582, 12.21533
972.9403, 19.59976
973.4224, 25.01901
973.9045, 29.01505
974.3867, 31.41937
974.8688, 32.54886
975.3509, 36.20975
975.8330, 44.84235
976.3151, 47.06357
976.7972, 34.15604
977.2794, 14.84204
977.7615, 7.240601
978.2435, 9.075073
978.7256, 13.07257
979.2078, 17.91415
979.6899, 20.85815
980.1720, 19.39285
980.6541, 16.33060
981.1362, 18.95233
981.6183, 29.60049
982.1005, 30.82507
982.5826, 17.38547
983.0647, 2.887146
983.5468, 5.339996
984.0289, 15.32788
984.5110, 17.00812
984.9932, 6.322449
985.4753, 1.026245
985.9574, 14.72437
986.4395, 26.37646
986.9216, 23.89029
987.4037, 8.767822
987.8859, 7.756775
988.3680, 20.52606
988.8501, 31.60080
989.3322, 30.09399
989.8143, 24.22824
990.2964, 21.10880
990.7786, 20.04474
991.2607, 18.88419
991.7428, 17.56284
992.2249, 15.19382
992.7070, 10.25290
993.1891, 6.105347
993.6713, 11.11798
994.1534, 22.44162
994.6355, 25.77377
995.1176, 16.59433
995.5997, 8.098663
996.0818, 11.81656
996.5640, 19.08817
997.0461, 22.23242
997.5282, 20.01736
998.0103, 18.17270
998.4924, 17.02548
998.9745, 15.12622
999.4567, 9.622711
999.9388, 3.320038
1000.421, 4.218414
1000.903, 10.71298
1001.385, 16.04034
1001.867, 14.13882
1002.349, 13.66684
1002.831, 20.74985
1003.314, 30.26663
1003.796, 31.14584
1004.278, 22.55960
1004.760, 15.64841
1005.242, 12.34854
1005.724, 11.91925
1006.206, 17.91245
1006.688, 24.17795
1007.171, 20.77905
1007.653, 0.7846070
1008.135, 9.463043
1008.617, 2.551727
1009.099, 7.733795
1009.581, 13.64865
1010.063, 15.78696
1010.545, 19.62094
1011.027, 24.46387
1011.510, 24.28067
1011.992, 6.064697
1012.474, 9.931427
1012.956, 6.854431
1013.438, 9.367615
1013.920, 18.56934
1014.402, 18.16101
1014.884, 16.58032
1015.367, 14.30267
1015.849, 13.63318
1016.331, 20.02390
1016.813, 30.10977
1017.295, 36.51001
1017.777, 37.01181
1018.259, 37.23114
1018.741, 42.09073
1019.223, 44.74826
1019.706, 40.16348
1020.188, 28.33020
1020.670, 20.16751
1021.152, 15.71265
1021.634, 13.56741
1022.116, 13.61880
1022.598, 15.30338
1023.080, 17.60730
1023.563, 20.40646
1024.045, 24.16028
1024.527, 29.77072
1025.009, 35.29239
1025.491, 41.17719
1025.973, 45.92462
1026.455, 48.39386
1026.937, 47.89868
1027.419, 38.84509
1027.901, 18.62274
1028.384, 5.980286
1028.866, 20.94308
1029.348, 41.56995
1029.830, 53.26657
1030.312, 55.84482
1030.794, 49.80206
1031.276, 33.47797
1031.758, 19.91217
1032.241, 17.23413
1032.723, 19.96823
1033.205, 20.93774
1033.687, 20.85861
1034.169, 21.42569
1034.651, 24.90442
1035.133, 26.55792
1035.615, 24.98453
1036.098, 22.37592
1036.580, 21.73846
1037.062, 22.69101
1037.544, 22.97458
1038.026, 22.44244
1038.508, 19.08557
1038.990, 1.685822
1039.472, 11.23767
1039.954, 0.5604550
1040.437, 32.77472
1040.919, 52.40778
1041.401, 56.26666
1041.883, 55.36365
1042.365, 53.65680
1042.847, 50.09497
1043.329, 39.31305
1043.811, 25.93372
1044.293, 19.30817
1044.776, 30.93839
1045.258, 34.75424
1045.740, 18.23578
1046.222, 0.6500240
1046.704, 1.690491
1047.186, 20.07065
1047.668, 26.11908
1048.150, 19.20758
1048.633, 11.15533
1049.115, 6.810364
1049.597, 7.746582
1050.079, 19.80853
1050.561, 39.65790
1051.043, 47.64166
1051.525, 40.02097
1052.007, 30.66132
1052.490, 20.42990
1052.972, 15.23816
1053.454, 31.47388
1053.936, 57.31155
1054.418, 70.23926
1054.900, 61.00040
1055.382, 51.54907
1055.864, 51.55362
1056.346, 51.58572
1056.828, 45.56210
1057.311, 34.26645
1057.793, 26.17282
1058.275, 21.26971
1058.757, 19.59329
1059.239, 23.01105
1059.721, 27.75845
1060.203, 30.98657
1060.685, 33.80911
1061.168, 40.18094
1061.650, 54.86597
1062.132, 55.10968
1062.614, 35.03592
1063.096, 12.86905
1063.578, 10.38708
1064.060, 19.24750
1064.542, 29.05093
1065.025, 38.73532
1065.507, 40.46164
1065.989, 19.63785
1066.471, 6.148987
1066.953, 13.87799
1067.435, 33.93045
1067.917, 31.15680
1068.399, 10.37076
1068.881, 1.333130
1069.364, 10.65195
1069.846, 25.32291
1070.328, 31.55383
1070.810, 32.10693
1071.292, 28.17319
1071.774, 15.27005
1072.256, 18.74716
1072.738, 41.64673
1073.220, 59.61755
1073.703, 44.69073
1074.185, 19.27814
1074.667, 11.83759
1075.149, 19.92181
1075.631, 28.37872
1076.113, 38.30768
1076.595, 39.99887
1077.077, 28.17932
1077.559, 12.84720
1078.042, 14.13281
1078.524, 25.59760
1079.006, 25.99167
1079.488, 9.764130
1079.970, 4.840546
1080.452, 8.323669
1080.934, 6.955719
1081.416, 4.501587
1081.899, 1.030212
1082.381, 3.419281
1082.863, 8.822540
1083.345, 13.62119
1083.827, 18.45688
1084.309, 20.44632
1084.791, 10.78845
1085.273, 1.386475
1085.755, 3.5980001E-02
1086.238, 29.05203
1086.720, 42.16553
1087.202, 35.11670
1087.684, 24.25528
1088.166, 23.01541
1088.648, 28.35019
1089.130, 37.39108
1089.612, 48.62112
1090.094, 53.81415
1090.577, 43.62946
1091.059, 34.82050
1091.541, 32.18710
1092.023, 32.62335
1092.505, 30.64407
1092.987, 26.16211
1093.469, 18.87296
1093.951, 7.552612
1094.434, 0.8024290
1094.916, 8.291626
1095.398, 19.37665
1095.880, 27.04651
1096.362, 31.20169
1096.844, 28.79340
1097.326, 18.63742
1097.808, 12.83466
1098.291, 19.60416
1098.773, 27.18234
1099.255, 15.11926
1099.737, 2.954193
1100.219, 4.484650
1100.701, 34.75644
1101.183, 51.64349
1101.665, 40.28259
1102.147, 24.20172
1102.630, 25.85388
1103.112, 35.97021
1103.594, 32.20370
1104.076, 17.24109
1104.558, 10.01819
1105.040, 31.24261
1105.522, 43.33194
1106.004, 33.18130
1106.486, 14.00263
1106.969, 10.65265
1107.451, 19.78568
1107.933, 21.74368
1108.415, 12.21814
1108.897, 7.504944
1109.379, 27.82422
1109.861, 48.44681
1110.343, 52.94717
1110.826, 42.99042
1111.308, 24.15656
1111.790, 4.376038
1112.272, 15.62982
1112.754, 7.913483
1113.236, 37.75568
1113.718, 45.08575
1114.200, 40.33292
1114.682, 37.16101
1115.165, 38.57449
1115.647, 38.14276
1116.129, 35.67776
1116.611, 31.98288
1117.093, 26.76483
1117.575, 21.62247
1118.057, 16.40402
1118.539, 12.44907
1119.021, 12.42862
1119.504, 20.77295
1119.986, 28.80933
1120.468, 37.82104
1120.950, 42.88724
1121.432, 32.32227
1121.914, 12.33762
1122.396, 5.835419
1122.878, 14.71091
1123.361, 24.15317
1123.843, 26.82245
1124.325, 27.95145
1124.807, 30.88904
1125.289, 33.64041
1125.771, 27.99707
1126.253, 14.97964
1126.735, 9.479401
1127.218, 17.27872
1127.700, 25.77426
1128.182, 24.38882
1128.664, 20.02457
1129.146, 18.63950
1129.628, 20.38855
1130.110, 23.78488
1130.592, 29.21823
1131.074, 31.12241
1131.557, 23.11649
1132.039, 15.11334
1132.521, 21.53729
1133.003, 34.68192
1133.485, 42.00598
1133.967, 39.78247
1134.449, 34.72159
1134.931, 25.36630
1135.413, 18.20920
1135.896, 20.94266
1136.378, 28.05835
1136.860, 31.18637
1137.342, 30.49072
1137.824, 27.42664
1138.306, 18.53842
1138.788, 13.95959
1139.270, 16.62836
1139.752, 21.30887
1140.235, 19.64987
1140.717, 14.21808
1141.199, 12.33176
1141.681, 14.75784
1142.163, 17.80194
1142.645, 21.71106
1143.127, 23.10703
1143.609, 18.88702
1144.092, 13.09436
1144.574, 19.77774
1145.056, 35.86649
1145.538, 43.32901
1146.020, 35.88837
1146.502, 27.48132
1146.984, 28.18375
1147.466, 29.93582
1147.948, 26.93796
1148.431, 19.53262
1148.913, 11.09387
1149.395, 1.789032
1149.877, 0.9049070
1150.359, 10.77411
1150.841, 23.31476
1151.323, 24.61639
1151.805, 21.51642
1152.287, 23.54388
1152.770, 32.91373
1153.252, 39.31845
1153.734, 42.80566
1154.216, 43.16666
1154.698, 39.46951
1155.180, 33.25391
1155.662, 24.27087
1156.144, 14.15839
1156.627, 7.548828
1157.109, 5.804718
1157.591, 4.265656
1158.073, 2.933167
1158.555, 1.518921
1159.037, 4.015259
1159.519, 9.165497
1160.001, 3.247070
1160.484, 12.36514
1160.966, 19.06299
1161.448, 7.036133
1161.930, 0.3674930
1162.412, 2.810059
1162.894, 10.50970
1163.376, 11.84360
1163.858, 11.38431
1164.340, 20.74045
1164.823, 43.47784
1165.305, 52.28568
1165.787, 29.26212
1166.269, 7.691742
1166.751, 1.208221
1167.233, 0.4903560
1167.715, 5.316040
1168.197, 14.49280
1168.679, 21.76587
1169.162, 24.73328
1169.644, 28.13959
1170.126, 37.71631
1170.608, 44.57718
1171.090, 39.32129
1171.572, 25.34399
1172.054, 21.45950
1172.536, 25.57800
1173.019, 27.57224
1173.501, 21.89410
1173.983, 14.74847
1174.465, 0.9396360
1174.947, 6.939392
1175.429, 8.547516
1175.911, 45.76456
1176.393, 54.03879
1176.875, 34.85858
1177.358, 13.66010
1177.840, 2.705658
1178.322, 2.722046
1178.804, 4.063721
1179.286, 1.507263
1179.768, 6.238342
1180.250, 19.18076
1180.732, 30.32651
1181.214, 39.13879
1181.697, 40.33743
1182.179, 19.90607
1182.661, 3.3356000E-02
1183.143, 1.574158
1183.625, 9.376648
1184.107, 16.55258
1184.589, 19.72745
1185.071, 23.05112
1185.554, 27.50089
1186.036, 30.02838
1186.518, 25.22296
1187.000, 19.32724
1187.482, 18.35797
1187.964, 21.80075
1188.446, 24.01569
1188.928, 25.02374
1189.411, 24.58713
1189.893, 22.20300
1190.375, 19.78748
1190.857, 17.95047
1191.339, 18.07947
1191.821, 23.47211
1192.303, 34.89606
1192.785, 38.01904
1193.267, 31.53073
1193.750, 26.04324
1194.232, 26.35504
1194.714, 29.04144
1195.196, 30.82123
1195.678, 32.15234
1196.160, 34.14862
1196.642, 38.29248
1197.124, 35.66205
1197.606, 24.23639
1198.089, 17.76682
1198.571, 30.84232
1199.053, 46.79800
1199.535, 42.21561
1200.017, 26.06161
1200.499, 15.29791
1200.981, 14.49695
1201.463, 14.04526
1201.945, 13.74689
1202.428, 14.39584
1202.910, 18.01993
1203.392, 21.92429
1203.874, 20.06186
1204.356, 15.64047
1204.838, 19.15292
1205.320, 38.72217
1205.802, 48.86224
1206.285, 46.23306
1206.767, 40.14410
1207.249, 40.24911
1207.731, 41.84875
1208.213, 38.03607
1208.695, 29.72617
1209.177, 24.95285
1209.659, 26.73120
1210.141, 25.96118
1210.624, 20.42761
1211.106, 15.13275
1211.588, 15.60373
1212.070, 20.04089
1212.552, 28.96530
1213.034, 41.36234
1213.516, 43.67722
1213.998, 31.27032
1214.480, 19.27573
1214.963, 10.69199
1215.445, 4.553406
1215.927, 2.578827
1216.409, 7.040161
1216.891, 2.253906
1217.373, 13.28244
1217.855, 26.52158
1218.337, 39.55838
1218.820, 39.90845
1219.302, 19.01523
1219.784, 6.050964
1220.266, 8.124695
1220.748, 2.323608
1221.230, 11.05756
1221.712, 15.34705
1222.194, 19.74292
1222.677, 25.12024
1223.159, 28.46732
1223.641, 27.98096
1224.123, 25.69629
1224.605, 24.50452
1225.087, 23.69897
1225.569, 21.09512
1226.051, 13.21725
1226.533, 15.28818
1227.016, 31.03168
1227.498, 44.10669
1227.980, 43.87299
1228.462, 38.50354
1228.944, 42.27472
1229.426, 48.72043
1229.908, 45.38120
1230.390, 19.53424
1230.872, 13.40717
1231.355, 31.96600
1231.837, 49.04987
1232.319, 44.03162
1232.801, 30.09479
1233.283, 25.34879
1233.765, 25.87811
1234.247, 24.64478
1234.729, 19.45181
1235.212, 14.39951
1235.694, 8.442413
1236.176, 8.220947
1236.658, 27.44363
1237.140, 48.87891
1237.622, 50.45737
1238.104, 38.10077
1238.586, 27.05450
1239.068, 16.48517
1239.551, 18.31500
1240.033, 35.68140
1240.515, 48.30981
1240.997, 28.44809
1241.479, 5.020813
1241.961, 13.60950
1242.443, 41.60019
1242.925, 47.94608
1243.407, 25.05173
1243.890, 11.94086
1244.372, 12.32312
1244.854, 19.40802
1245.336, 35.33218
1245.818, 48.13547
1246.300, 43.17365
1246.782, 26.13840
1247.264, 19.35721
1247.747, 24.61749
1248.229, 22.49127
1248.711, 9.326996
1249.193, 1.349152
1249.675, 22.19061
1250.157, 44.24646
1250.639, 43.01413
1251.121, 25.94589
1251.604, 15.21207
1252.086, 10.94391
1252.568, 11.91742
1253.050, 18.55423
1253.532, 23.25174
1254.014, 18.17874
1254.496, 10.75806
1254.978, 3.951843
1255.460, 0.7029420
1255.943, 3.145264
1256.425, 14.64053
1256.907, 22.04892
1257.389, 22.94693
1257.871, 22.13651
1258.353, 20.84689
1258.835, 20.14255
1259.317, 21.92957
1259.799, 25.95053
1260.281, 35.97754
1260.764, 48.39371
1261.246, 49.28192
1261.728, 31.32098
1262.210, 19.34650
1262.692, 36.18088
1263.174, 50.24796
1263.656, 45.75473
1264.138, 30.02649
1264.621, 22.22592
1265.103, 20.82816
1265.585, 21.20944
1266.067, 22.41177
1266.549, 24.71207
1267.031, 30.00833
1267.513, 33.97687
1267.995, 34.81519
1268.478, 33.36859
1268.960, 31.28021
1269.442, 28.59634
1269.924, 25.23270
1270.406, 20.62393
1270.888, 17.64676
1271.370, 17.44885
1271.852, 16.97748
1272.334, 14.74530
1272.817, 11.61093
1273.299, 5.698578
1273.781, 1.249542
1274.263, 7.779266
1274.745, 33.62442
1275.227, 43.44098
1275.709, 31.30978
1276.191, 21.76840
1276.673, 28.92996
1277.156, 40.28247
1277.638, 38.28174
1278.120, 29.02966
1278.602, 20.21149
1279.084, 12.01120
1279.566, 13.69272
1280.048, 26.98657
1280.530, 35.50293
1281.013, 27.42776
1281.495, 17.94714
1281.977, 26.61981
1282.459, 39.79840
1282.941, 38.99902
1283.423, 22.63431
1283.905, 15.84042
1284.387, 18.39676
1284.870, 19.93478
1285.352, 11.70370
1285.834, 7.258057
1286.316, 21.47867
1286.798, 39.11447
1287.280, 44.38348
1287.762, 38.26208
1288.244, 42.78098
1288.726, 55.07764
1289.208, 57.80829
1289.691, 33.17603
1290.173, 14.26355
1290.655, 20.67587
1291.137, 31.54163
1291.619, 32.75824
1292.101, 26.89465
1292.583, 27.83463
1293.065, 32.84164
1293.548, 31.95120
1294.030, 13.89414
1294.512, 4.243988
1294.994, 10.26947
1295.476, 16.76880
1295.958, 9.688385
1296.440, 2.598419
1296.922, 0.8879090
1297.405, 15.15143
1297.887, 25.96051
1298.369, 29.75867
1298.851, 21.53055
1299.333, 10.86557
1299.815, 4.255615
1300.297, 1.802216
1300.779, 0.0000000E+00
##END=



