##NAMES=Covellite
##RRUFFID=R060129
##IDEAL CHEMISTRY=Cu^1+^S
##LOCALITY=Butte, Montana, USA
##OWNER=RRUFF
##SOURCE=University of Arizona Mineral Museum
##DESCRIPTION=Iridescent blue metallic hexagonal plates
##STATUS=The identification of this mineral has been confirmed by X-ray diffraction and chemical analysis
##URL=rruff.info/R060129
##MEASURED CHEMISTRY=Cu_1.00_S_1.00_
134.4516, 0.0000000E+00
134.9337, 0.4877390
135.4159, 0.7252150
135.8980, 0.3139620
136.3801, 2.5114000E-02
136.8622, 1.9231001E-02
137.3443, 0.2250060
137.8264, 1.010950
138.3086, 2.414744
138.7907, 4.026006
139.2728, 4.935833
139.7549, 4.475062
140.2370, 3.988806
140.7191, 3.622684
141.2013, 3.690051
141.6834, 3.634928
142.1655, 3.129628
142.6476, 2.565234
143.1297, 2.179667
143.6118, 2.008996
144.0939, 1.892287
144.5761, 1.922511
145.0582, 2.070623
145.5403, 2.055670
146.0224, 1.731946
146.5045, 1.231116
146.9866, 0.7262370
147.4688, 2.7574999E-02
147.9509, 0.1563920
148.4330, 0.1413370
148.9151, 0.1086870
149.3972, 0.3692610
149.8793, 0.5085970
150.3615, 0.5308210
150.8436, 0.1764050
151.3257, 0.3087210
151.8078, 0.2460310
152.2899, 0.1753850
152.7720, 0.3763310
153.2542, 7.6944999E-02
153.7363, 0.2736800
154.2184, 0.2724420
154.7005, 0.3618850
155.1826, 0.2551290
155.6647, 0.2090400
156.1469, 0.3593160
156.6290, 0.4009420
157.1111, 0.2717940
157.5932, 0.3672970
158.0753, 6.1554998E-02
158.5574, 0.1080040
159.0396, 0.3064360
159.5217, 0.1874040
160.0038, 0.2867490
160.4859, 0.3029970
160.9680, 0.1369890
161.4501, 2.9549001E-02
161.9323, 0.3797850
162.4144, 0.6701630
162.8965, 0.6145740
163.3786, 0.1710500
163.8607, 0.1085730
164.3428, 7.1768001E-02
164.8250, 9.9303000E-02
165.3071, 2.5966000E-02
165.7892, 0.5479130
166.2713, 1.160946
166.7534, 1.498154
167.2355, 1.629272
167.7177, 1.629005
168.1998, 1.332711
168.6819, 0.9496730
169.1640, 0.8089550
169.6461, 1.010228
170.1282, 1.343823
170.6104, 1.581115
171.0925, 1.716537
171.5746, 1.792548
172.0567, 1.845955
172.5388, 1.851691
173.0209, 1.755359
173.5031, 1.468701
173.9852, 1.156550
174.4673, 0.9579520
174.9494, 0.8722810
175.4315, 0.8524320
175.9136, 0.8929110
176.3958, 0.9966530
176.8779, 1.086915
177.3600, 1.175936
177.8421, 1.192360
178.3242, 1.028870
178.8063, 0.7112280
179.2885, 0.4727600
179.7706, 0.6806620
180.2527, 1.543378
180.7348, 1.988360
181.2169, 1.613720
181.6990, 1.070546
182.1812, 0.5933710
182.6633, 0.2496310
183.1454, 8.0412000E-02
183.6275, 0.2035610
184.1096, 0.8916140
184.5917, 1.291238
185.0738, 1.206001
185.5560, 1.015896
186.0381, 1.060923
186.5202, 1.398160
187.0023, 1.747156
187.4844, 1.610424
187.9665, 0.4268740
188.4487, 5.3181000E-02
188.9308, 0.1938500
189.4129, 0.1345130
189.8950, 9.5142998E-02
190.3771, 2.4803000E-02
190.8592, 0.3822760
191.3414, 0.5251930
191.8235, 0.3385540
192.3056, 0.2598980
192.7877, 0.2181310
193.2698, 0.1948210
193.7519, 0.1500860
194.2341, 5.9767999E-02
194.7162, 2.2941001E-02
195.1983, 6.6979997E-02
195.6804, 0.4229130
196.1625, 0.6137030
196.6446, 0.3071070
197.1268, 0.1722550
197.6089, 0.1040600
198.0910, 0.1504660
198.5731, 0.2641710
199.0552, 0.7665200
199.5373, 1.262517
200.0195, 1.575990
200.5016, 1.453098
200.9837, 1.001274
201.4658, 0.8064490
201.9479, 1.194205
202.4300, 1.755726
202.9122, 2.030487
203.3943, 1.989061
203.8764, 1.835262
204.3585, 1.705103
204.8406, 1.598582
205.3227, 1.452458
205.8048, 1.064017
206.2870, 0.7868500
206.7691, 0.9987570
207.2512, 1.704776
207.7333, 2.414074
208.2154, 2.535600
208.6975, 1.945048
209.1797, 1.498978
209.6618, 1.524147
210.1439, 1.613876
210.6260, 1.500135
211.1081, 1.153365
211.5902, 0.8028000
212.0724, 0.7920950
212.5545, 1.281979
213.0366, 1.622377
213.5187, 1.722015
214.0008, 1.712797
214.4829, 1.607201
214.9651, 1.432635
215.4472, 1.301448
215.9293, 1.400761
216.4114, 1.904687
216.8935, 2.283462
217.3756, 2.614690
217.8578, 2.796640
218.3399, 2.634879
218.8220, 2.137759
219.3041, 1.631020
219.7862, 1.625101
220.2683, 2.604109
220.7505, 3.091519
221.2326, 2.795110
221.7147, 2.246027
222.1968, 1.814048
222.6789, 1.592031
223.1610, 1.569506
223.6432, 1.728022
224.1253, 2.306319
224.6074, 2.524723
225.0895, 2.005828
225.5716, 1.336590
226.0537, 1.098909
226.5358, 1.418212
227.0180, 1.933127
227.5001, 2.148609
227.9822, 1.951713
228.4643, 1.752519
228.9464, 1.439262
229.4285, 1.173582
229.9107, 1.174223
230.3928, 1.494533
230.8749, 1.954340
231.3570, 2.343386
231.8391, 2.658039
232.3212, 2.931827
232.8034, 3.231340
233.2855, 3.473371
233.7676, 3.556152
234.2497, 3.458728
234.7318, 2.841471
235.2139, 3.477238
235.6961, 3.895457
236.1782, 4.106999
236.6603, 3.495807
237.1424, 3.949224
237.6245, 3.976505
238.1066, 3.991847
238.5888, 4.595557
239.0709, 4.107325
239.5530, 4.258797
240.0351, 4.067603
240.5172, 3.998983
240.9993, 4.009691
241.4815, 4.057394
241.9636, 4.145270
242.4457, 4.271558
242.9278, 4.452429
243.4099, 4.662895
243.8920, 4.838528
244.3742, 4.922830
244.8563, 4.963663
245.3384, 5.022241
245.8205, 5.135005
246.3026, 5.181013
246.7847, 5.089055
247.2668, 4.906902
247.7490, 4.745799
248.2311, 4.670762
248.7132, 4.634448
249.1953, 4.536058
249.6774, 4.371781
250.1595, 4.147376
250.6417, 3.785571
251.1238, 3.396028
251.6059, 3.142554
252.0880, 3.142530
252.5701, 3.266523
253.0522, 3.177739
253.5344, 2.761790
254.0165, 2.355241
254.4986, 2.037104
254.9807, 1.765481
255.4628, 1.496997
255.9449, 1.204521
256.4271, 0.8223510
256.9092, 1.026174
257.3913, 1.130305
257.8734, 1.140095
258.3555, 0.7729830
258.8376, 0.8925720
259.3198, 0.8171120
259.8019, 0.7336620
260.2840, 0.9217620
260.7661, 0.6094850
261.2482, 0.7932850
261.7303, 0.7790650
262.2125, 0.8554720
262.6946, 0.7356540
263.1767, 0.6764690
263.6588, 0.8136000
264.1409, 0.8420360
264.6230, 0.6996550
265.1052, 0.7818760
265.5873, 0.4628110
266.0694, 0.4958950
266.5515, 0.6809170
267.0336, 0.5484450
267.5157, 0.6343010
267.9979, 0.6370050
268.4800, 7.8906998E-02
268.9621, 0.2946230
269.4442, 0.4106420
269.9263, 0.4323240
270.4084, 7.7101998E-02
270.8906, 0.2085780
271.3727, 0.1450130
271.8548, 7.3454998E-02
272.3369, 0.2734430
272.8190, 2.6942000E-02
273.3011, 0.1687310
273.7833, 0.1663800
274.2654, 0.2546650
274.7475, 0.1467020
275.2296, 9.9356003E-02
275.7117, 0.2483280
276.1938, 9.4562002E-02
276.6760, 6.7280002E-02
277.1581, 0.1464280
277.6402, 7.7904001E-02
278.1223, 3.0130001E-02
278.6044, 3.5089999E-02
279.0865, 5.1244002E-02
279.5686, 0.2269380
280.0508, 7.6260000E-02
280.5329, 8.1580002E-03
281.0150, 0.2096650
281.4971, 0.3308920
281.9792, 0.3546900
282.4613, 1.5820001E-03
282.9435, 0.1390550
283.4256, 7.7597000E-02
283.9077, 8.1420001E-03
284.3898, 0.2102300
284.8719, 8.8058002E-02
285.3540, 0.1096720
285.8362, 0.1093780
286.3183, 0.1997170
286.8004, 0.1225530
287.2825, 0.4110290
287.7646, 0.3866140
288.2467, 0.1563790
288.7289, 9.2275001E-02
289.2110, 0.4555280
289.6931, 0.6522910
290.1752, 0.4176390
290.6573, 4.5320000E-03
291.1394, 2.6968000E-02
291.6216, 7.4693002E-02
292.1037, 0.2523090
292.5858, 0.4499330
293.0679, 0.4966420
293.5500, 0.4533040
294.0321, 0.2045800
294.5143, 7.9589002E-02
294.9964, 1.1749000E-02
295.4785, 4.4840001E-02
295.9606, 0.1774590
296.4427, 0.2655570
296.9248, 0.1561630
297.4070, 9.5083997E-02
297.8891, 9.6855998E-02
298.3712, 0.1244050
298.8533, 0.2459640
299.3354, 0.2731970
299.8175, 7.6467998E-02
300.2997, 6.0525998E-02
300.7818, 2.4730000E-03
301.2639, 6.3588999E-02
301.7460, 0.1418470
302.2281, 0.1530960
302.7102, 4.7938000E-02
303.1924, 5.0951999E-02
303.6745, 1.9327000E-02
304.1566, 0.2144540
304.6387, 4.8455000E-02
305.1208, 0.2116600
305.6029, 0.2805440
306.0851, 2.7474999E-02
306.5672, 0.1511660
307.0493, 0.1347580
307.5314, 0.1103520
308.0135, 0.3574850
308.4956, 0.1042400
308.9778, 0.3470700
309.4599, 0.3918660
309.9420, 0.5273110
310.4241, 0.4665160
310.9062, 0.4663530
311.3883, 0.5106670
311.8705, 0.5886830
312.3526, 0.6825600
312.8347, 0.7667580
313.3168, 0.8560480
313.7989, 0.9062760
314.2810, 0.8984550
314.7632, 0.8505780
315.2453, 0.7803940
315.7274, 0.6899080
316.2095, 0.5978950
316.6916, 0.5298710
317.1737, 0.4985340
317.6559, 0.4561740
318.1380, 0.3663700
318.6201, 0.2859100
319.1022, 0.2743970
319.5843, 0.3401880
320.0664, 0.4207460
320.5485, 0.4405110
321.0306, 0.3913150
321.5128, 0.4253830
321.9949, 0.6349800
322.4770, 0.8504870
322.9591, 0.9770480
323.4412, 1.010951
323.9233, 0.9886580
324.4055, 0.9303870
324.8876, 0.8370310
325.3697, 0.7528630
325.8518, 0.6728270
326.3339, 0.6053010
326.8160, 0.5542820
327.2982, 0.5183610
327.7803, 0.4942540
328.2624, 0.4800800
328.7445, 0.4795900
329.2266, 0.5122320
329.7087, 0.6431720
330.1909, 0.6882240
330.6730, 0.5145560
331.1551, 0.2729360
331.6372, 0.1755070
332.1193, 0.2855920
332.6014, 0.4629860
333.0836, 0.4933030
333.5657, 0.2801850
334.0478, 0.2125320
334.5299, 0.4363480
335.0120, 0.7288800
335.4941, 0.9473500
335.9763, 1.066018
336.4584, 1.085285
336.9405, 1.004953
337.4226, 0.8105520
337.9047, 0.5909230
338.3868, 0.2502650
338.8690, 2.8997000E-02
339.3511, 7.0868000E-02
339.8332, 6.6533998E-02
340.3153, 4.1365001E-02
340.7974, 0.1596890
341.2795, 0.4405130
341.7617, 0.6205500
342.2438, 0.6614920
342.7259, 0.6545310
343.2080, 0.5967880
343.6901, 0.5100770
344.1722, 0.4655440
344.6544, 0.4932050
345.1365, 0.5608590
345.6186, 0.6024850
346.1007, 0.6112350
346.5828, 0.5737390
347.0649, 0.3673980
347.5471, 0.1861410
348.0292, 0.2512170
348.5113, 0.5738750
348.9934, 0.9657540
349.4755, 1.201546
349.9576, 1.269271
350.4398, 1.243217
350.9219, 1.047103
351.4040, 0.8499820
351.8861, 0.7316810
352.3682, 0.6674060
352.8503, 0.6114420
353.3325, 0.5085840
353.8146, 0.3847590
354.2967, 0.3517790
354.7788, 0.4574410
355.2609, 0.5753930
355.7430, 0.7444320
356.2252, 0.8963080
356.7073, 0.8795520
357.1894, 0.6163070
357.6715, 0.2286440
358.1536, 6.3846998E-02
358.6357, 0.2765600
359.1179, 0.4834410
359.5999, 0.7681920
360.0821, 0.9816000
360.5642, 0.9920500
361.0463, 0.7779010
361.5284, 0.4998610
362.0105, 0.3573490
362.4926, 0.4216670
362.9748, 0.4654940
363.4569, 0.4633080
363.9390, 0.4607620
364.4211, 0.5038720
364.9032, 0.5711600
365.3853, 0.6073700
365.8675, 0.5637570
366.3496, 0.4504800
366.8317, 0.3637630
367.3138, 0.2825670
367.7959, 0.2730660
368.2780, 0.3753680
368.7602, 0.5364960
369.2423, 0.7220530
369.7244, 0.9177140
370.2065, 1.084446
370.6886, 1.118941
371.1707, 0.9275470
371.6529, 0.8434040
372.1350, 1.074126
372.6171, 1.304430
373.0992, 1.277986
373.5813, 0.9846600
374.0634, 0.6666540
374.5456, 0.6287900
375.0277, 0.8935470
375.5098, 0.9524690
375.9919, 0.6072930
376.4740, 0.2494860
376.9561, 2.9012000E-02
377.4383, 5.6279998E-02
377.9204, 4.0468000E-02
378.4025, 0.1135270
378.8846, 0.3221800
379.3667, 0.3353510
379.8488, 6.0825001E-02
380.3310, 5.4527000E-02
380.8131, 8.4882997E-02
381.2952, 1.3047000E-02
381.7773, 4.2059999E-02
382.2594, 4.0746000E-02
382.7415, 0.1139740
383.2237, 0.1518070
383.7058, 0.1546720
384.1879, 0.2197430
384.6700, 0.4347280
385.1521, 0.6490350
385.6342, 0.7203260
386.1164, 0.6568010
386.5985, 0.5777780
387.0806, 0.5648330
387.5627, 0.5831260
388.0448, 0.5322900
388.5269, 0.3801680
389.0091, 0.2376020
389.4912, 0.2104460
389.9733, 0.2555680
390.4554, 0.2775840
390.9375, 0.2170820
391.4196, 0.1613830
391.9018, 0.2277050
392.3839, 0.3991870
392.8660, 0.5032670
393.3481, 0.4429610
393.8302, 0.2905460
394.3123, 0.1919220
394.7945, 0.1593660
395.2766, 0.1330660
395.7587, 5.8869999E-02
396.2408, 1.8206000E-02
396.7229, 2.3400001E-04
397.2050, 0.1494020
397.6872, 0.3088620
398.1693, 0.3122260
398.6514, 0.1434500
399.1335, 0.1441720
399.6156, 0.5774740
400.0977, 0.9835650
400.5798, 0.9949310
401.0620, 0.6619710
401.5441, 0.2667770
402.0262, 3.4738000E-02
402.5083, 9.0125002E-02
402.9904, 0.2072840
403.4725, 0.1949900
403.9547, 0.1524480
404.4368, 8.6534001E-02
404.9189, 5.5900002E-03
405.4010, 7.4989997E-02
405.8831, 2.1309000E-02
406.3652, 0.1235910
406.8474, 0.2389070
407.3295, 0.4194950
407.8116, 0.4402920
408.2937, 0.1135260
408.7758, 2.2871001E-02
409.2579, 3.2671999E-02
409.7401, 1.6899001E-02
410.2222, 0.1801780
410.7043, 6.0442999E-02
411.1864, 0.1123930
411.6685, 0.1331340
412.1506, 0.5126280
412.6328, 1.013576
413.1149, 0.8109490
413.5970, 0.3129900
414.0791, 5.5610001E-02
414.5612, 2.9277001E-02
415.0433, 5.0990000E-02
415.5255, 0.1213380
416.0076, 0.4498230
416.4897, 0.5940600
416.9718, 0.3009290
417.4539, 1.5526000E-02
417.9360, 1.5412000E-02
418.4182, 0.1591370
418.9003, 0.3146700
419.3824, 0.2600270
419.8645, 5.8690000E-02
420.3466, 1.3746000E-02
420.8287, 0.2209140
421.3109, 0.3847310
421.7930, 0.3424340
422.2751, 0.2141230
422.7572, 0.1379420
423.2393, 0.1611500
423.7214, 0.1957580
424.2036, 0.1147500
424.6857, 7.3951997E-02
425.1678, 1.9345000E-02
425.6499, 7.1231999E-02
426.1320, 8.5653000E-02
426.6141, 0.2064000
427.0963, 0.2911930
427.5784, 0.3372920
428.0605, 0.3119260
428.5426, 0.2601430
429.0247, 0.2529490
429.5068, 0.2954550
429.9890, 0.3590600
430.4711, 0.4599110
430.9532, 0.5569300
431.4353, 0.5329600
431.9174, 0.2874520
432.3995, 6.9633998E-02
432.8817, 4.8278000E-02
433.3638, 0.1407640
433.8459, 0.1589200
434.3280, 3.5227001E-02
434.8101, 7.1535997E-02
435.2922, 3.0399000E-02
435.7744, 6.7570001E-02
436.2565, 2.0900001E-03
436.7386, 4.0598001E-02
437.2207, 8.5403003E-02
437.7028, 6.9796003E-02
438.1849, 3.0610000E-03
438.6671, 9.4628997E-02
439.1492, 0.2212670
439.6313, 0.3562000
440.1134, 0.3925080
440.5955, 0.1971670
441.0776, 5.6899998E-02
441.5598, 9.9750003E-03
442.0418, 4.2800000E-04
442.5240, 0.1220890
443.0061, 0.3517790
443.4882, 0.5973960
443.9703, 0.7385700
444.4524, 0.7560090
444.9345, 0.7602200
445.4167, 0.7407010
445.8988, 0.7181720
446.3809, 0.7072230
446.8630, 0.6977500
447.3451, 0.6714950
447.8272, 0.6195190
448.3094, 0.5416450
448.7915, 0.4089570
449.2736, 0.1520640
449.7557, 4.1242000E-02
450.2378, 0.2721000
450.7199, 0.5882990
451.2021, 0.8530240
451.6842, 1.029489
452.1663, 1.094318
452.6484, 0.9265380
453.1305, 0.6056620
453.6126, 0.5282450
454.0948, 0.8120450
454.5769, 1.109391
455.0590, 1.116584
455.5411, 0.9731360
456.0232, 0.9181670
456.5053, 1.052126
456.9875, 1.220670
457.4696, 1.328185
457.9517, 1.367445
458.4338, 1.265455
458.9159, 0.9124670
459.3980, 0.5760550
459.8802, 0.7713750
460.3623, 1.556863
460.8444, 2.099085
461.3265, 2.120888
461.8086, 1.938652
462.2907, 1.784048
462.7729, 1.688785
463.2550, 1.660245
463.7371, 1.728276
464.2192, 1.861726
464.7013, 1.919271
465.1834, 1.688180
465.6656, 1.655876
466.1477, 2.075671
466.6298, 2.627489
467.1119, 2.982626
467.5940, 3.073905
468.0761, 3.029383
468.5583, 2.993597
469.0404, 2.942897
469.5225, 2.967046
470.0046, 3.193496
470.4867, 3.392709
470.9688, 3.437001
471.4510, 3.420960
471.9331, 3.499933
472.4152, 3.775703
472.8973, 4.085335
473.3794, 4.142873
473.8615, 3.891753
474.3437, 3.624736
474.8258, 3.345808
475.3079, 3.090626
475.7900, 2.927057
476.2721, 2.830377
476.7542, 2.646722
477.2364, 2.163090
477.7185, 1.551015
478.2006, 1.229480
478.6827, 1.243818
479.1648, 1.304481
479.6469, 1.299993
480.1291, 1.229395
480.6112, 1.083899
481.0933, 0.8192700
481.5754, 0.6036640
482.0575, 0.5447460
482.5396, 0.5807090
483.0217, 0.6257640
483.5038, 0.6666970
483.9860, 0.6937290
484.4681, 0.6814960
484.9502, 0.6279040
485.4323, 0.5940370
485.9144, 0.5726110
486.3965, 0.5762100
486.8787, 0.6250680
487.3608, 0.7004570
487.8429, 0.7885210
488.3250, 0.8836980
488.8071, 0.9343730
489.2892, 0.8324980
489.7714, 0.4499420
490.2535, 0.2288320
490.7356, 0.2270260
491.2177, 0.3058120
491.6998, 0.4498540
492.1819, 0.6149190
492.6641, 0.7154390
493.1462, 0.7063030
493.6283, 0.6199800
494.1104, 0.5312730
494.5925, 0.4069640
495.0746, 0.3441610
495.5568, 0.4770740
496.0389, 0.6139080
496.5210, 0.5518960
497.0031, 0.3028300
497.4852, 0.1437520
497.9673, 0.3644810
498.4495, 0.8157700
498.9316, 1.084595
499.4137, 1.137581
499.8958, 1.098015
500.3779, 0.9992900
500.8600, 0.8628560
501.3422, 0.7239320
501.8243, 0.5503770
502.3064, 0.4479240
502.7885, 0.5528930
503.2706, 0.7429150
503.7527, 0.7779090
504.2349, 0.6043250
504.7170, 0.3749710
505.1991, 0.2286030
505.6812, 0.1683930
506.1633, 0.1655820
506.6454, 0.3313670
507.1276, 0.4261700
507.6097, 0.2705160
508.0918, 9.7840000E-03
508.5739, 8.0516003E-02
509.0560, 9.5239997E-02
509.5381, 0.3528620
510.0203, 0.3877480
510.5024, 0.1265720
510.9845, 6.8088003E-02
511.4666, 4.0215001E-02
511.9487, 4.4218998E-02
512.4308, 4.5418002E-02
512.9130, 0.4860220
513.3951, 0.8018270
513.8772, 0.6564790
514.3593, 0.3102190
514.8414, 0.2356090
515.3235, 0.4564630
515.8057, 0.6426640
516.2878, 0.7634740
516.7699, 0.8091980
517.2520, 0.7360920
517.7341, 0.5665880
518.2162, 0.4555810
518.6984, 0.5391590
519.1805, 0.6756850
519.6626, 0.6596860
520.1447, 0.5003920
520.6268, 0.3722500
521.1089, 0.3694730
521.5911, 0.4342230
522.0732, 0.4263450
522.5553, 0.3073220
523.0374, 0.2404610
523.5195, 0.3257820
524.0016, 0.4245490
524.4838, 0.3884830
524.9659, 0.2322560
525.4480, 9.7050004E-02
525.9301, 9.2676997E-02
526.4122, 0.1835120
526.8943, 0.1829870
527.3765, 2.2389000E-02
527.8586, 0.1362020
528.3407, 5.2639998E-02
528.8228, 0.2185130
529.3049, 0.1696200
529.7870, 0.2455870
530.2692, 2.1708000E-02
530.7513, 0.1175960
531.2334, 0.1768800
531.7155, 8.3543003E-02
532.1976, 6.8828002E-02
532.6797, 5.5757001E-02
533.1619, 3.5914000E-02
533.6440, 0.2464060
534.1261, 3.2458998E-02
534.6082, 0.2393080
535.0903, 0.2781840
535.5724, 0.3939430
536.0546, 0.3432430
536.5367, 0.3439520
537.0188, 0.5111910
537.5009, 0.5862280
537.9830, 0.5163650
538.4651, 0.6370290
538.9473, 0.4173050
539.4294, 0.9936490
539.9115, 1.360032
540.3936, 1.299708
540.8757, 1.119330
541.3578, 1.236312
541.8400, 1.710696
542.3221, 2.261565
542.8042, 2.601558
543.2863, 2.727367
543.7684, 2.845494
544.2505, 2.826311
544.7326, 2.963743
545.2147, 3.467439
545.6968, 4.078227
546.1790, 4.528638
546.6611, 4.752379
547.1432, 4.828126
547.6253, 4.775790
548.1074, 4.600882
548.5895, 4.487849
549.0717, 4.472454
549.5538, 4.459596
550.0359, 4.452246
550.5180, 4.395168
551.0001, 4.180006
551.4822, 3.749736
551.9644, 3.258326
552.4465, 2.678295
552.9286, 1.977153
553.4107, 2.031839
553.8928, 2.001957
554.3749, 1.892071
554.8571, 1.462424
555.3392, 1.445671
555.8213, 1.263456
556.3034, 1.074458
556.7855, 1.115800
557.2676, 0.7327200
557.7498, 0.7703830
558.2319, 0.6401280
558.7140, 0.3994610
559.1961, 0.5542720
559.6782, 0.6245140
560.1603, 0.6147380
560.6425, 0.2852370
561.1246, 0.3685940
561.6067, 0.2864990
562.0888, 0.1976210
562.5709, 0.3390830
563.0530, 5.6106001E-02
563.5352, 0.1939090
564.0173, 0.1637540
564.4994, 3.2190001E-03
564.9815, 6.6965997E-02
565.4636, 3.0726001E-02
565.9457, 0.3536850
566.4279, 0.5832230
566.9100, 0.4708750
567.3921, 0.1067430
567.8742, 0.1211430
568.3563, 5.5852000E-02
568.8384, 8.2792997E-02
569.3206, 6.0047001E-02
569.8027, 0.3124170
570.2848, 0.4151230
570.7669, 0.2300050
571.2490, 2.3550000E-02
571.7311, 3.3542000E-02
572.2133, 0.1132420
572.6954, 1.5920000E-02
573.1775, 0.5529970
573.6596, 1.076375
574.1417, 1.006692
574.6238, 0.7214110
575.1060, 0.5013590
575.5881, 0.4054970
576.0702, 0.4098990
576.5523, 0.4926410
577.0344, 0.6302760
577.5165, 0.7947330
577.9987, 1.019238
578.4808, 1.157087
578.9629, 1.127820
579.4450, 0.9791200
579.9271, 0.7501660
580.4092, 0.4325430
580.8914, 0.2003420
581.3735, 0.1093750
581.8556, 0.1429160
582.3377, 0.3664970
582.8198, 0.7326250
583.3019, 0.9850810
583.7841, 0.9572160
584.2662, 0.7403360
584.7483, 0.5667210
585.2304, 0.4272980
585.7125, 0.3413870
586.1946, 0.3418830
586.6768, 0.3651080
587.1589, 0.4013050
587.6410, 0.4411080
588.1231, 0.5033590
588.6052, 0.5796090
589.0873, 0.6369560
589.5695, 0.5534560
590.0516, 0.2942430
590.5337, 0.2544530
591.0158, 0.7372450
591.4979, 1.193405
591.9800, 1.077098
592.4622, 0.5323370
592.9443, 0.1438100
593.4264, 0.1303790
593.9085, 0.3009130
594.3906, 0.6358800
594.8727, 1.033132
595.3549, 1.161488
595.8370, 0.9005040
596.3191, 0.5401990
596.8012, 0.4414870
597.2833, 0.6522500
597.7654, 0.7885760
598.2476, 0.7584870
598.7297, 0.7716190
599.2118, 1.015332
599.6939, 1.300593
600.1760, 1.295576
600.6581, 0.9446200
601.1403, 0.5175360
601.6224, 0.3360540
602.1045, 0.3866990
602.5866, 0.3650770
603.0687, 0.2415430
603.5508, 0.1100750
604.0330, 3.7870999E-02
604.5151, 9.7231999E-02
604.9972, 0.1027650
605.4793, 0.1214960
605.9614, 0.3521450
606.4435, 0.5195620
606.9257, 0.6320200
607.4078, 0.6927170
607.8899, 0.7053960
608.3720, 0.6906050
608.8541, 0.6607930
609.3362, 0.6142010
609.8184, 0.5442290
610.3005, 0.4193460
610.7826, 0.3197730
611.2647, 0.2608370
611.7468, 0.2128740
612.2289, 0.1369650
612.7111, 5.5374000E-02
613.1932, 3.4774002E-02
613.6753, 0.1226770
614.1574, 0.2606970
614.6395, 0.3270210
615.1216, 0.3130200
615.6038, 0.3618670
616.0859, 0.5684390
616.5680, 0.7448690
617.0501, 0.6588370
617.5322, 0.4006020
618.0143, 0.2845690
618.4965, 0.5244980
618.9786, 0.7541970
619.4607, 0.7339940
619.9428, 0.5552000
620.4249, 0.3465740
620.9070, 0.1486260
621.3892, 4.5290001E-02
621.8713, 0.1371550
622.3534, 0.4210420
622.8355, 0.6380940
623.3176, 0.7503910
623.7997, 0.8618650
624.2819, 1.053799
624.7640, 1.206565
625.2461, 1.169082
625.7282, 0.9391190
626.2103, 0.7282430
626.6924, 0.7621950
627.1745, 0.8820760
627.6566, 0.5413180
628.1387, 7.8929000E-02
628.6208, 0.4677400
629.1030, 1.3322000E-02
629.5851, 1.038135
630.0672, 1.310138
630.5493, 0.7877290
631.0314, 0.4138890
631.5135, 0.4534110
631.9957, 0.5306690
632.4778, 0.3656780
632.9599, 6.3391998E-02
633.4420, 0.1154610
633.9241, 0.1169930
634.4063, 3.6037002E-02
634.8884, 4.5340001E-03
635.3705, 2.9428000E-02
635.8526, 7.3322996E-02
636.3347, 2.1066001E-02
636.8168, 2.2026001E-02
637.2990, 0.1428390
637.7811, 0.5888560
638.2632, 0.8347040
638.7453, 0.8152740
639.2274, 0.6649380
639.7095, 0.3404020
640.1917, 2.4639999E-03
640.6738, 3.9453000E-02
641.1559, 0.2374620
641.6380, 0.5360090
642.1201, 0.7127940
642.6022, 0.7907590
643.0844, 0.8192150
643.5665, 0.7798210
644.0486, 0.7239760
644.5307, 0.6228430
645.0128, 0.5329980
645.4949, 0.4947090
645.9771, 0.4892420
646.4592, 0.4825490
646.9413, 0.4605210
647.4234, 0.4127200
647.9055, 0.2767460
648.3876, 6.7924000E-02
648.8698, 7.2952002E-02
649.3519, 0.3569800
649.8340, 0.6465160
650.3161, 0.8087580
650.7982, 0.8718560
651.2803, 0.8744620
651.7625, 0.7675360
652.2446, 0.7363120
652.7267, 0.9480700
653.2088, 1.212043
653.6909, 1.318661
654.1730, 1.263581
654.6552, 1.147078
655.1373, 1.030396
655.6194, 0.8915810
656.1015, 0.6359190
656.5836, 0.1083420
657.0657, 7.7584997E-02
657.5479, 0.2222810
658.0300, 0.6089450
658.5121, 0.8075450
658.9942, 0.8608290
659.4763, 0.8619850
659.9584, 0.8211380
660.4406, 0.8084190
660.9227, 0.9375580
661.4048, 1.137794
661.8869, 1.210819
662.3690, 1.123798
662.8511, 1.006474
663.3333, 0.9360660
663.8154, 0.8813610
664.2975, 0.7925400
664.7796, 0.6486350
665.2617, 0.4987220
665.7438, 0.2740760
666.2260, 0.1031580
666.7081, 9.8545000E-02
667.1902, 0.2215200
667.6723, 0.3559030
668.1544, 0.4408260
668.6365, 0.5162820
669.1187, 0.6926840
669.6008, 0.9589890
670.0829, 1.028352
670.5650, 0.7901860
671.0471, 0.5369510
671.5292, 0.4865670
672.0114, 0.5962260
672.4935, 0.6969680
672.9756, 0.7903860
673.4577, 0.8668190
673.9398, 0.9711790
674.4219, 1.022529
674.9041, 0.8702040
675.3862, 0.5763720
675.8683, 0.4078240
676.3504, 0.5437880
676.8325, 0.8363070
677.3146, 0.9324610
677.7968, 0.7963400
678.2789, 0.6284160
678.7610, 0.3624640
679.2431, 0.1776030
679.7252, 0.2100190
680.2073, 0.3896100
680.6895, 0.5968180
681.1716, 0.8667290
681.6537, 1.016280
682.1358, 0.8856780
682.6179, 0.5967000
683.1000, 0.2380570
683.5822, 7.0894003E-02
684.0643, 8.7807000E-02
684.5464, 6.2307999E-02
685.0285, 0.3966470
685.5106, 0.6231290
685.9927, 0.4613280
686.4749, 0.3633990
686.9570, 0.4312740
687.4391, 0.5739540
687.9212, 0.8683670
688.4033, 1.193648
688.8854, 1.324302
689.3676, 1.162728
689.8497, 0.9144310
690.3318, 0.7407770
690.8139, 0.5999810
691.2960, 0.3329150
691.7781, 5.0000001E-02
692.2603, 4.8944999E-02
692.7424, 9.5890999E-02
693.2245, 0.2520650
693.7066, 0.5079800
694.1887, 0.6202140
694.6708, 0.6732820
695.1530, 0.6168850
695.6351, 0.5716940
696.1172, 0.6552790
696.5993, 0.7736680
697.0814, 0.7451030
697.5635, 0.4872450
698.0457, 0.2056460
698.5278, 0.1054240
699.0099, 0.1581460
699.4920, 0.2759880
699.9741, 0.4685900
700.4562, 0.5383250
700.9384, 0.3264540
701.4205, 2.6825000E-02
701.9026, 5.3052999E-02
702.3847, 0.6242420
702.8668, 0.9268120
703.3489, 0.7549970
703.8311, 0.5199720
704.3132, 0.4528420
704.7953, 0.4533910
705.2774, 0.2708210
705.7595, 1.8673999E-02
706.2416, 0.3241090
706.7238, 0.1252190
707.2059, 0.3331140
707.6880, 0.6617760
708.1701, 0.6628110
708.6522, 0.6147640
709.1343, 0.6221650
709.6164, 0.6498290
710.0985, 0.6328250
710.5806, 0.5576660
711.0627, 0.5373700
711.5449, 0.6122090
712.0270, 0.7079130
712.5091, 0.8074300
712.9912, 0.8976940
713.4733, 0.9890420
713.9554, 1.070980
714.4376, 1.060927
714.9197, 0.8207280
715.4018, 0.4554140
715.8839, 0.2419620
716.3660, 0.1841690
716.8481, 0.2764950
717.3303, 0.6141430
717.8124, 0.9703520
718.2945, 1.095602
718.7766, 1.001237
719.2587, 0.7935090
719.7408, 0.2758910
720.2230, 3.4111001E-02
720.7051, 2.3456000E-02
721.1872, 4.8195001E-02
721.6693, 0.1642520
722.1514, 0.2029530
722.6335, 0.3110390
723.1157, 0.6270810
723.5978, 1.041468
724.0799, 1.268502
724.5620, 1.304733
725.0441, 1.186801
725.5262, 0.8400350
726.0084, 0.4835180
726.4905, 0.2750510
726.9726, 0.2056580
727.4547, 0.2492260
727.9368, 0.5083520
728.4189, 0.7176840
728.9011, 0.8365200
729.3832, 0.8439820
729.8653, 0.6390380
730.3474, 0.2957100
730.8295, 3.7122000E-02
731.3116, 3.8040001E-03
731.7938, 8.2098998E-02
732.2759, 0.1389420
732.7580, 0.1733590
733.2401, 0.3058310
733.7222, 0.6231800
734.2043, 0.8298050
734.6865, 0.6681060
735.1686, 0.3166540
735.6507, 0.1740910
736.1328, 0.2965460
736.6149, 0.4319740
737.0970, 0.5678090
737.5792, 0.6673610
738.0613, 0.7158350
738.5434, 0.7020410
739.0255, 0.5894400
739.5076, 0.3826100
739.9897, 0.1958990
740.4719, 0.1956890
740.9540, 0.3473420
741.4361, 0.3650200
741.9182, 0.2175850
742.4003, 0.1626520
742.8824, 0.3435360
743.3646, 0.5837040
743.8467, 0.6404400
744.3288, 0.5126770
744.8109, 0.4309570
745.2930, 0.5044870
745.7751, 0.5215160
746.2573, 0.3102130
746.7394, 4.4082001E-02
747.2215, 3.3973001E-02
747.7036, 7.8289002E-02
748.1857, 0.1496620
748.6678, 3.5296999E-02
749.1500, 0.1640240
749.6321, 5.2058998E-02
750.1142, 0.2724330
750.5963, 0.4885830
751.0784, 0.2615830
751.5605, 5.6531999E-02
752.0427, 2.8491000E-02
752.5248, 1.1380000E-02
753.0069, 2.8812001E-02
753.4890, 2.1226000E-02
753.9711, 3.0077999E-02
754.4532, 8.4792003E-02
754.9354, 3.0303000E-02
755.4175, 3.3620000E-03
755.8996, 5.7753999E-02
756.3817, 7.5231999E-02
756.8638, 0.1470210
757.3459, 0.3729000
757.8281, 0.1972890
758.3102, 7.9438001E-02
758.7923, 0.4137010
759.2744, 0.5984170
759.7565, 0.5808070
760.2386, 0.2604420
760.7208, 5.5565000E-02
761.2029, 9.5459996E-03
761.6850, 0.1890740
762.1671, 0.3866810
762.6492, 0.2505440
763.1313, 9.6074998E-02
763.6135, 1.9401999E-02
764.0956, 0.1028620
764.5777, 9.3291998E-02
765.0598, 7.0711002E-02
765.5419, 1.0397000E-02
766.0240, 0.1388370
766.5062, 0.2683580
766.9883, 0.3038960
767.4704, 0.2772990
767.9525, 0.3568240
768.4346, 0.5891260
768.9167, 0.7527510
769.3989, 0.6266640
769.8810, 0.2734550
770.3631, 8.1021003E-02
770.8452, 0.1051560
771.3273, 0.1910090
771.8094, 0.4222090
772.2916, 0.6172930
772.7737, 0.6680860
773.2558, 0.6111210
773.7379, 0.5092860
774.2200, 0.3511820
774.7021, 0.2735190
775.1843, 0.4844480
775.6664, 0.7602730
776.1485, 0.7363480
776.6306, 0.4693490
777.1127, 0.2995630
777.5948, 0.3798400
778.0770, 0.5618960
778.5591, 0.6467880
779.0412, 0.6379720
779.5233, 0.6365600
780.0054, 0.6784760
780.4875, 0.6489700
780.9697, 0.4032000
781.4518, 0.1524770
781.9339, 0.1495570
782.4160, 0.3697350
782.8981, 0.4936840
783.3802, 0.3521130
783.8624, 0.2030900
784.3445, 0.1754230
784.8266, 0.2177760
785.3087, 0.2716010
785.7908, 0.3248560
786.2729, 0.4004730
786.7551, 0.5292140
787.2372, 0.6264690
787.7193, 0.4477900
788.2014, 7.7500002E-04
788.6835, 0.1169930
789.1656, 0.1354590
789.6478, 8.2805000E-02
790.1299, 0.3983350
790.6120, 0.7209830
791.0941, 0.8114960
791.5762, 0.5834360
792.0583, 0.3973010
792.5404, 0.2678810
793.0225, 0.1888100
793.5046, 0.2162540
793.9868, 0.2630380
794.4689, 0.1772520
794.9510, 5.1587000E-02
795.4331, 0.1527860
795.9152, 0.1303390
796.3973, 7.5684004E-02
796.8795, 0.1186180
797.3616, 4.3843001E-02
797.8437, 8.7998003E-02
798.3258, 0.3130530
798.8079, 0.5905220
799.2900, 0.8311760
799.7722, 1.012668
800.2543, 0.9895970
800.7364, 0.6143980
801.2185, 0.3363870
801.7006, 0.1575740
802.1827, 0.1188850
802.6649, 0.4046460
803.1470, 0.8022250
803.6291, 0.8780070
804.1112, 0.4719570
804.5933, 0.1495530
805.0754, 0.2607270
805.5576, 0.5385550
806.0397, 0.7350600
806.5218, 0.8563640
807.0039, 1.006909
807.4860, 1.223531
807.9681, 1.342574
808.4503, 1.133560
808.9324, 0.6754310
809.4145, 0.3933520
809.8966, 0.3105230
810.3787, 0.3029480
810.8608, 0.3882580
811.3430, 0.4478070
811.8251, 0.2902250
812.3072, 2.3691000E-02
812.7893, 1.5312000E-02
813.2714, 0.6814040
813.7535, 1.143514
814.2357, 1.090948
814.7178, 0.8974730
815.1999, 0.7916950
815.6820, 0.7650900
816.1641, 0.6809460
816.6462, 0.4755670
817.1284, 0.3348810
817.6105, 0.4869060
818.0926, 0.7973110
818.5747, 1.058575
819.0568, 1.249057
819.5389, 1.218836
820.0211, 0.8988690
820.5032, 0.5176350
820.9853, 0.3245710
821.4674, 0.3136080
821.9495, 0.4329130
822.4316, 0.7800680
822.9138, 1.068869
823.3959, 1.330675
823.8780, 1.436166
824.3601, 1.170520
824.8422, 0.6980880
825.3243, 0.4661780
825.8065, 0.6534410
826.2886, 0.8301270
826.7707, 0.7806450
827.2528, 0.6944440
827.7349, 0.7291180
828.2170, 0.8666640
828.6992, 1.076212
829.1813, 1.334921
829.6634, 1.506492
830.1455, 1.412442
830.6276, 1.119608
831.1097, 0.8339500
831.5919, 0.5584230
832.0740, 0.3974170
832.5561, 0.3902440
833.0382, 0.4745750
833.5203, 0.6137250
834.0024, 0.7916160
834.4846, 0.8874180
834.9667, 0.8074190
835.4488, 0.7982700
835.9309, 0.9437080
836.4130, 1.083684
836.8951, 1.123499
837.3773, 1.104542
837.8594, 1.105075
838.3415, 1.142826
838.8236, 1.192418
839.3057, 1.275746
839.7878, 1.335574
840.2700, 1.314094
840.7521, 1.234714
841.2342, 1.110265
841.7163, 0.9554300
842.1984, 0.8411190
842.6805, 0.8377330
843.1627, 0.9060120
843.6448, 0.8793530
844.1269, 0.7529130
844.6090, 0.7124250
845.0911, 0.7901380
845.5732, 0.9702770
846.0554, 1.309751
846.5375, 1.692537
847.0196, 1.795056
847.5017, 1.430359
847.9838, 1.230376
848.4659, 1.341769
848.9481, 1.451799
849.4302, 1.395772
849.9123, 1.272489
850.3944, 1.210279
850.8765, 1.232229
851.3586, 1.271545
851.8408, 1.328709
852.3229, 1.356019
852.8050, 1.289436
853.2871, 1.167256
853.7692, 1.069060
854.2513, 1.009118
854.7335, 0.9384640
855.2156, 0.8252070
855.6977, 0.7341060
856.1798, 0.8409320
856.6619, 1.134034
857.1440, 1.202525
857.6262, 0.9759820
858.1083, 0.7891120
858.5904, 0.7823480
859.0725, 0.9268800
859.5546, 1.164608
860.0367, 1.489670
860.5189, 1.644437
861.0010, 1.635300
861.4831, 1.466788
861.9652, 0.8727180
862.4473, 0.3687830
862.9294, 0.4282780
863.4116, 0.8982340
863.8937, 1.314271
864.3758, 1.573459
864.8579, 1.627667
865.3400, 1.287658
865.8221, 0.8433840
866.3043, 0.5544160
866.7864, 0.4558370
867.2685, 0.6573690
867.7506, 1.160380
868.2327, 1.603689
868.7148, 1.555438
869.1970, 1.185888
869.6791, 1.130784
870.1612, 1.389906
870.6433, 1.338006
871.1254, 0.7605570
871.6075, 0.2571210
872.0897, 0.3210350
872.5718, 0.7762580
873.0539, 1.065832
873.5360, 1.150403
874.0181, 1.157322
874.5002, 0.9962530
874.9823, 0.8420550
875.4644, 0.6965150
875.9465, 0.6143610
876.4286, 0.7109230
876.9108, 0.9764880
877.3929, 1.128149
877.8750, 0.9187750
878.3571, 0.7462550
878.8392, 0.8573710
879.3214, 1.111099
879.8035, 1.450301
880.2856, 1.770963
880.7677, 1.792187
881.2498, 1.355032
881.7319, 0.8078290
882.2141, 0.5595850
882.6962, 0.5529590
883.1783, 0.6413700
883.6604, 0.8121020
884.1425, 1.048448
884.6246, 1.359601
885.1068, 1.575030
885.5889, 1.495443
886.0710, 1.152604
886.5531, 0.7635000
887.0352, 0.2277180
887.5173, 5.3520001E-02
887.9995, 6.2674001E-02
888.4816, 0.3202680
888.9637, 0.6821070
889.4458, 1.031890
889.9279, 1.110612
890.4100, 0.8630650
890.8922, 0.6350840
891.3743, 0.4069670
891.8564, 0.2862570
892.3385, 0.4368010
892.8206, 0.6484390
893.3027, 0.6373620
893.7849, 0.4278970
894.2670, 0.3138160
894.7491, 0.4879580
895.2312, 0.7069400
895.7133, 0.7881570
896.1954, 0.7454330
896.6776, 0.5553190
897.1597, 0.2554650
897.6418, 5.2940000E-02
898.1239, 0.1337330
898.6060, 2.8410001E-02
899.0881, 4.2647999E-02
899.5703, 0.1540420
900.0524, 1.3448000E-02
900.5345, 8.8822000E-02
901.0166, 0.1969590
901.4987, 0.3715990
901.9808, 0.4714280
902.4630, 0.3853420
902.9451, 0.2054320
903.4272, 0.2045270
903.9093, 0.5197280
904.3914, 0.6963480
904.8735, 0.7258070
905.3557, 0.6227160
905.8378, 0.2327600
906.3199, 0.1795270
906.8020, 0.1076670
907.2841, 0.1247770
907.7662, 5.5686999E-02
908.2484, 0.1929030
908.7305, 0.2991070
909.2126, 0.4081790
909.6947, 0.4636310
910.1768, 0.3512700
910.6589, 0.1492910
911.1411, 4.9194001E-02
911.6232, 0.1239140
912.1053, 0.2719810
912.5874, 0.4553700
913.0695, 0.6269670
913.5516, 0.7169480
914.0338, 0.7310140
914.5159, 0.7162630
914.9980, 0.6757660
915.4801, 0.4767660
915.9622, 1.6158000E-02
916.4443, 0.2291770
916.9265, 0.4052570
917.4086, 0.1704500
917.8907, 2.5924999E-02
918.3728, 0.1408780
918.8549, 5.3394999E-02
919.3370, 0.2889560
919.8192, 0.5998190
920.3013, 0.5762900
920.7834, 0.1780820
921.2655, 3.0820000E-03
921.7476, 0.2061640
922.2297, 0.3654770
922.7119, 0.4147880
923.1940, 0.4130720
923.6761, 0.3396700
924.1582, 0.2523840
924.6403, 0.2968970
925.1224, 0.5434220
925.6046, 0.6612960
926.0867, 0.4513820
926.5688, 0.2256400
927.0509, 0.1318070
927.5330, 0.1259900
928.0151, 0.1819620
928.4973, 0.2679330
928.9794, 0.3040060
929.4615, 0.2475670
929.9436, 0.1390430
930.4257, 7.0928000E-02
930.9078, 4.6909001E-02
931.3900, 9.7439997E-02
931.8721, 2.6412001E-02
932.3542, 0.2258080
932.8363, 0.3135660
933.3184, 0.3649690
933.8005, 0.4442900
934.2827, 0.5526860
934.7648, 0.7551160
935.2469, 1.021572
935.7290, 1.016549
936.2111, 0.6753080
936.6932, 0.3106770
937.1754, 8.9527003E-02
937.6575, 9.9189999E-03
938.1396, 0.1002000
938.6217, 0.3785690
939.1038, 0.5069440
939.5859, 0.4145680
940.0681, 0.3690900
940.5502, 0.4911430
941.0323, 0.6041410
941.5144, 0.5167670
941.9965, 0.2951440
942.4786, 0.2282960
942.9608, 0.4297130
943.4429, 0.5437780
943.9250, 0.5297450
944.4071, 0.4568340
944.8892, 0.3282770
945.3713, 0.1693840
945.8535, 4.5517001E-02
946.3356, 1.6881000E-02
946.8177, 6.4943001E-02
947.2998, 8.3020004E-03
947.7819, 0.3630890
948.2640, 0.6268370
948.7462, 0.7601880
949.2283, 0.6449780
949.7104, 0.3905730
950.1925, 0.2092440
950.6746, 0.1651160
951.1567, 0.1883490
951.6389, 0.2431860
952.1210, 0.3188080
952.6031, 0.4130720
953.0852, 0.5143760
953.5673, 0.6156590
954.0494, 0.7029740
954.5316, 0.7187650
955.0137, 0.6307520
955.4958, 0.4827200
955.9779, 0.3218830
956.4600, 0.1595430
956.9421, 3.2251000E-02
957.4242, 6.4416997E-02
957.9063, 4.2149000E-02
958.3884, 0.2868210
958.8705, 0.4156950
959.3527, 1.0390000E-03
959.8348, 0.4384380
960.3169, 0.6811670
960.7990, 0.3180240
961.2811, 0.2536800
961.7632, 0.6723620
962.2454, 0.8944280
962.7275, 0.5346490
963.2096, 6.6917002E-02
963.6917, 4.4275001E-02
964.1738, 0.4050820
964.6559, 0.5933890
965.1381, 0.4622500
965.6202, 0.4166340
966.1023, 0.5120330
966.5844, 0.6268860
967.0665, 0.7202170
967.5486, 0.7966090
968.0308, 0.8622200
968.5129, 0.9216150
968.9950, 0.9859310
969.4771, 1.117977
969.9592, 1.141421
970.4413, 0.9693640
970.9235, 0.7204320
971.4056, 0.3987640
971.8877, 9.5495999E-02
972.3698, 7.8059998E-03
972.8519, 0.1384060
973.3340, 0.3046510
973.8162, 0.3435480
974.2983, 0.3450920
974.7804, 0.4374020
975.2625, 0.5739230
975.7446, 0.6719170
976.2267, 0.6959000
976.7089, 0.5551550
977.1910, 0.1804210
977.6731, 0.1234530
978.1552, 7.8148998E-02
978.6373, 0.4953970
979.1194, 0.5795810
979.6016, 0.4406680
980.0837, 0.4760710
980.5658, 0.7505910
981.0479, 1.040287
981.5300, 1.206839
982.0121, 1.236174
982.4943, 1.001518
982.9764, 0.5751870
983.4585, 0.3244150
983.9406, 0.2575410
984.4227, 0.1826660
984.9048, 2.7851000E-02
985.3870, 4.6778001E-02
985.8691, 0.5385530
986.3512, 1.257015
986.8333, 1.315256
987.3154, 0.5986800
987.7975, 0.1763940
988.2797, 0.1439540
988.7618, 0.2021270
989.2439, 0.2637330
989.7260, 0.3561800
990.2081, 0.4982510
990.6902, 0.6709990
991.1724, 0.6807590
991.6545, 0.3889310
992.1366, 0.2636540
992.6187, 0.4525230
993.1008, 0.6334580
993.5829, 0.6852450
994.0651, 0.6302980
994.5472, 0.4482770
995.0293, 0.1348840
995.5114, 3.0308999E-02
995.9935, 5.8067001E-02
996.4756, 0.1501010
996.9578, 0.1936560
997.4399, 0.2546270
997.9220, 0.4236010
998.4041, 0.6096260
998.8862, 0.6648100
999.3683, 0.5758640
999.8505, 0.4459570
1000.333, 0.1554860
1000.815, 3.7510000E-02
1001.297, 0.4572770
1001.779, 0.8837550
1002.261, 0.7646640
1002.743, 0.3464630
1003.225, 0.2202350
1003.707, 0.5272380
1004.190, 0.7533070
1004.672, 0.4148300
1005.154, 0.2065570
1005.636, 0.8965780
1006.118, 1.719815
1006.600, 1.618044
1007.082, 0.8236930
1007.564, 0.2507790
1008.046, 0.2353840
1008.529, 0.4740140
1009.011, 0.9257940
1009.493, 1.291975
1009.975, 1.108582
1010.457, 0.7013040
1010.939, 0.7579390
1011.421, 1.221382
1011.903, 1.419072
1012.385, 1.015494
1012.868, 0.5032650
1013.350, 0.4770330
1013.832, 0.6772240
1014.314, 0.6016030
1014.796, 0.3334680
1015.278, 0.1143030
1015.760, 4.6460000E-03
1016.242, 4.6707001E-02
1016.725, 1.0353000E-02
1017.207, 0.1214100
1017.689, 0.3921180
1018.171, 0.7050400
1018.653, 0.6804090
1019.135, 0.3885930
1019.617, 0.4189370
1020.099, 0.8822920
1020.581, 1.137058
1021.064, 0.7042780
1021.546, 2.8806999E-02
1022.028, 4.4948999E-02
1022.510, 0.6628130
1022.992, 0.7304670
1023.474, 0.2284870
1023.956, 4.6248998E-02
1024.438, 0.4490730
1024.921, 0.7825440
1025.403, 0.5280760
1025.885, 5.4109000E-02
1026.367, 0.1249140
1026.849, 0.2557800
1027.331, 0.1148930
1027.813, 0.8772300
1028.295, 1.384217
1028.777, 0.8826110
1029.260, 0.2820680
1029.742, 0.3584580
1030.224, 0.8218490
1030.706, 0.8364460
1031.188, 0.2745000
1031.670, 7.8368001E-02
1032.152, 7.0799001E-02
1032.634, 0.1214960
1033.116, 0.1303350
1033.599, 0.5302970
1034.081, 1.058721
1034.563, 1.568222
1035.045, 1.542649
1035.527, 0.6829370
1036.009, 0.3162010
1036.491, 0.7159710
1036.973, 1.054347
1037.456, 1.153429
1037.938, 1.043622
1038.420, 0.5885860
1038.902, 2.6891001E-02
1039.384, 0.1353410
1039.866, 0.5721120
1040.348, 0.9151540
1040.830, 0.5632200
1041.313, 0.3193560
1041.795, 0.5091840
1042.277, 0.7795020
1042.759, 0.8347540
1043.241, 0.7298960
1043.723, 0.6384330
1044.205, 0.5665370
1044.687, 0.4952000
1045.169, 0.3603390
1045.651, 0.3220750
1046.134, 0.5141230
1046.616, 0.7155160
1047.098, 0.7336770
1047.580, 0.6058510
1048.062, 0.4389490
1048.544, 0.1883290
1049.026, 9.1122001E-02
1049.508, 0.3460960
1049.991, 0.5437940
1050.473, 0.4067260
1050.955, 0.2804210
1051.437, 0.5781140
1051.919, 1.106302
1052.401, 1.305440
1052.883, 1.033514
1053.365, 0.7184920
1053.848, 0.2691360
1054.330, 4.0699001E-02
1054.812, 0.4540160
1055.294, 0.8869510
1055.776, 0.6438720
1056.258, 1.8046999E-02
1056.740, 3.8033001E-02
1057.222, 0.3081670
1057.704, 0.6071920
1058.187, 0.2888020
1058.669, 8.1850002E-03
1059.151, 9.5300004E-03
1059.633, 0.1451360
1060.115, 0.2281040
1060.597, 0.2821500
1061.079, 0.4055270
1061.561, 0.6252540
1062.043, 0.8259330
1062.526, 1.040510
1063.008, 1.136625
1063.490, 1.038992
1063.972, 0.8125860
1064.454, 0.4201090
1064.936, 2.4506999E-02
1065.418, 0.1269670
1065.900, 0.2862620
1066.383, 0.2229230
1066.865, 6.7405000E-02
1067.347, 0.5476350
1067.829, 0.8402200
1068.311, 0.9565710
1068.793, 0.7614190
1069.275, 0.4543400
1069.757, 0.4586580
1070.240, 0.8335030
1070.722, 1.015527
1071.204, 0.5356660
1071.686, 0.1200040
1072.168, 0.1962910
1072.650, 0.3905970
1073.132, 0.3593970
1073.614, 0.2351020
1074.096, 0.3406050
1074.578, 0.6988250
1075.061, 0.9018430
1075.543, 0.6577300
1076.025, 0.4224420
1076.507, 0.4536260
1076.989, 0.5416500
1077.471, 0.5368680
1077.953, 0.4680380
1078.435, 0.3829740
1078.918, 0.2980550
1079.400, 0.2450120
1079.882, 0.2484530
1080.364, 0.2580620
1080.846, 0.2002110
1081.328, 0.1913970
1081.810, 0.4283090
1082.292, 0.6988970
1082.774, 0.6313150
1083.257, 0.2868180
1083.739, 0.1542790
1084.221, 0.4731230
1084.703, 0.7658890
1085.185, 0.8719700
1085.667, 0.8551750
1086.149, 0.6498030
1086.631, 0.4121610
1087.114, 0.3435790
1087.596, 0.4172570
1088.078, 0.4658740
1088.560, 0.4088930
1089.042, 0.2963740
1089.524, 6.3703001E-02
1090.006, 5.8731999E-02
1090.488, 0.1853570
1090.970, 0.4991130
1091.453, 0.4973370
1091.935, 0.3007840
1092.417, 0.3101330
1092.899, 0.6442980
1093.381, 0.8918000
1093.863, 0.8449180
1094.345, 0.7492470
1094.827, 0.6648170
1095.309, 0.6266490
1095.792, 0.7065750
1096.274, 0.8363720
1096.756, 0.8869060
1097.238, 0.8307300
1097.720, 0.7495580
1098.202, 0.6741670
1098.684, 0.5412130
1099.166, 0.2050560
1099.649, 6.9481999E-02
1100.131, 4.0552001E-02
1100.613, 0.1375210
1101.095, 0.2506070
1101.577, 0.2709110
1102.059, 0.2149790
1102.541, 4.6232000E-02
1103.023, 0.1655170
1103.505, 0.1071480
1103.988, 0.3559670
1104.470, 0.3140350
1104.952, 0.1315670
1105.434, 6.1260001E-03
1105.916, 7.5873002E-02
1106.398, 4.0789001E-02
1106.880, 0.1934160
1107.362, 0.3208430
1107.844, 0.1204340
1108.327, 4.7954001E-02
1108.809, 0.3633160
1109.291, 0.7367970
1109.773, 0.9848510
1110.255, 1.073634
1110.737, 0.8951390
1111.219, 0.3261290
1111.701, 5.8531001E-02
1112.184, 6.6108003E-02
1112.666, 9.5305003E-02
1113.148, 0.2007020
1113.630, 0.5766950
1114.112, 0.6997950
1114.594, 0.6430190
1115.076, 0.5361650
1115.558, 0.3584240
1116.041, 0.2776590
1116.523, 0.3776810
1117.005, 0.4278190
1117.487, 0.3553950
1117.969, 0.3006050
1118.451, 0.3698210
1118.933, 0.4518860
1119.415, 0.3566090
1119.897, 0.1186130
1120.380, 0.1359580
1120.862, 0.5425890
1121.344, 0.8868300
1121.826, 1.213846
1122.308, 1.347019
1122.790, 1.137676
1123.272, 0.8475260
1123.754, 0.7024210
1124.236, 0.6642620
1124.719, 0.5919310
1125.201, 0.4308530
1125.683, 0.4330800
1126.165, 0.6439870
1126.647, 0.8542780
1127.129, 1.031877
1127.611, 1.136654
1128.093, 1.135412
1128.576, 1.055351
1129.058, 0.9458240
1129.540, 0.8068160
1130.022, 0.5677840
1130.504, 0.1972860
1130.986, 0.1771680
1131.468, 0.6202670
1131.950, 0.9848050
1132.432, 1.006508
1132.915, 0.8555130
1133.397, 0.7250600
1133.879, 0.6062400
1134.361, 0.4250910
1134.843, 0.2014650
1135.325, 0.2340060
1135.807, 0.5267570
1136.289, 0.7634720
1136.771, 0.8422580
1137.254, 0.8639090
1137.736, 0.9161230
1138.218, 0.9301700
1138.700, 0.6803620
1139.182, 0.3084490
1139.664, 0.3754210
1140.146, 0.7716990
1140.628, 0.9780130
1141.111, 0.9104610
1141.593, 0.7650580
1142.075, 0.6433860
1142.557, 0.5370770
1143.039, 0.4348680
1143.521, 0.3423220
1144.003, 0.3443580
1144.485, 0.3302120
1144.968, 9.6663997E-02
1145.450, 0.3629360
1145.932, 0.5401400
1146.414, 5.4453000E-02
1146.896, 0.2267160
1147.378, 0.8824700
1147.860, 1.305632
1148.342, 1.148403
1148.824, 0.7802370
1149.307, 0.5744570
1149.789, 0.5206730
1150.271, 0.5772860
1150.753, 0.7061730
1151.235, 0.8227950
1151.717, 0.8997110
1152.199, 0.9268070
1152.681, 0.9082580
1153.163, 0.8270030
1153.646, 0.5503690
1154.128, 0.3045190
1154.610, 0.3785910
1155.092, 0.6620150
1155.574, 0.9007710
1156.056, 1.050284
1156.538, 1.010848
1157.020, 0.5049720
1157.503, 0.1594370
1157.985, 0.3227970
1158.467, 0.5293140
1158.949, 0.4738100
1159.431, 0.3067840
1159.913, 0.2563250
1160.395, 0.3038440
1160.877, 0.2366530
1161.359, 9.5858000E-02
1161.842, 0.2112460
1162.324, 6.9597997E-02
1162.806, 0.3003720
1163.288, 0.3473090
1163.770, 0.3204020
1164.252, 0.3212940
1164.734, 0.3045040
1165.216, 0.1194150
1165.698, 0.2307370
1166.181, 0.1963520
1166.663, 0.1174610
1167.145, 0.5388420
1167.627, 0.9516430
1168.109, 1.126866
1168.591, 0.8978160
1169.073, 0.5814130
1169.555, 0.5382390
1170.037, 0.7036120
1170.520, 0.8594200
1171.002, 1.015094
1171.484, 1.116163
1171.966, 1.159146
1172.448, 1.073230
1172.930, 0.8421750
1173.412, 0.6292180
1173.894, 0.5412800
1174.377, 0.5537260
1174.859, 0.6850490
1175.341, 0.8639350
1175.823, 0.8625340
1176.305, 0.7448520
1176.787, 0.6885930
1177.269, 0.7162580
1177.751, 0.8746150
1178.234, 1.145538
1178.716, 1.169690
1179.198, 0.5632500
1179.680, 0.1773810
1180.162, 8.2985997E-02
1180.644, 0.2561620
1181.126, 5.8472998E-02
1181.608, 5.3123001E-02
1182.090, 0.4950380
1182.573, 0.7569670
1183.055, 0.9190210
1183.537, 1.004800
1184.019, 1.028020
1184.501, 0.8597220
1184.983, 0.8015810
1185.465, 1.275645
1185.947, 1.692497
1186.429, 1.355815
1186.912, 0.6770170
1187.394, 0.4819710
1187.876, 0.8337650
1188.358, 1.050686
1188.840, 0.9447690
1189.322, 0.8271470
1189.804, 0.6599520
1190.286, 0.5764040
1190.769, 0.6771890
1191.251, 0.8251050
1191.733, 0.9252050
1192.215, 0.9643520
1192.697, 0.9468450
1193.179, 0.8415950
1193.661, 0.8594660
1194.143, 1.063304
1194.625, 1.136606
1195.108, 0.9952540
1195.590, 0.8892640
1196.072, 0.9551780
1196.554, 1.026640
1197.036, 0.8885130
1197.518, 0.6513060
1198.000, 0.7272670
1198.482, 1.057537
1198.964, 1.071109
1199.447, 0.7859470
1199.929, 0.5337830
1200.411, 0.4024620
1200.893, 0.4529740
1201.375, 0.7288480
1201.857, 0.9701640
1202.339, 0.8139010
1202.821, 0.4795990
1203.304, 0.2974060
1203.786, 0.2171400
1204.268, 0.1347370
1204.750, 7.9051003E-02
1205.232, 0.1781650
1205.714, 0.4495870
1206.196, 0.7815980
1206.678, 1.182941
1207.161, 1.420235
1207.643, 1.233037
1208.125, 0.9610030
1208.607, 0.8007770
1209.089, 0.7114310
1209.571, 0.6341870
1210.053, 0.5836860
1210.535, 0.6418630
1211.017, 0.8325250
1211.500, 0.8710490
1211.982, 0.5239570
1212.464, 0.3294160
1212.946, 0.4851150
1213.428, 0.6039680
1213.910, 0.5175580
1214.392, 0.3654090
1214.874, 0.2650930
1215.356, 0.2090760
1215.839, 0.1612950
1216.321, 0.1005070
1216.803, 0.2985150
1217.285, 0.8278780
1217.767, 1.107347
1218.249, 1.018144
1218.731, 0.8795140
1219.213, 0.8340130
1219.696, 0.8333670
1220.178, 0.8079750
1220.660, 0.7709700
1221.142, 0.7695420
1221.624, 0.7964390
1222.106, 0.8325220
1222.588, 0.8725040
1223.070, 0.9199310
1223.552, 0.9420970
1224.035, 0.8764610
1224.517, 0.7033140
1224.999, 0.5544280
1225.481, 0.6152930
1225.963, 0.6887210
1226.445, 0.4837570
1226.927, 0.2972880
1227.409, 0.5580990
1227.891, 1.007510
1228.374, 1.206382
1228.856, 1.118663
1229.338, 0.9516720
1229.820, 0.7215990
1230.302, 0.5120250
1230.784, 0.2937440
1231.266, 0.1655130
1231.748, 0.1513100
1232.231, 0.2505720
1232.713, 0.5851090
1233.195, 0.9106280
1233.677, 0.8000430
1234.159, 0.4227400
1234.641, 0.2864900
1235.123, 0.4214940
1235.605, 0.5042770
1236.088, 0.5148260
1236.570, 0.5573630
1237.052, 0.6731180
1237.534, 0.6457950
1238.016, 0.3074930
1238.498, 1.1435000E-02
1238.980, 0.2200000
1239.462, 0.7568140
1239.944, 0.9491240
1240.427, 0.8908800
1240.909, 0.8492850
1241.391, 0.8276820
1241.873, 0.7280810
1242.355, 0.5436960
1242.837, 0.3664090
1243.319, 0.2337860
1243.801, 0.1941250
1244.283, 0.3651210
1244.766, 0.5465540
1245.248, 0.5713820
1245.730, 0.5439830
1246.212, 0.5704810
1246.694, 0.6271600
1247.176, 0.7161250
1247.658, 0.8066250
1248.140, 0.6397550
1248.622, 9.3897000E-02
1249.105, 5.5932999E-02
1249.587, 4.4700000E-04
1250.069, 0.2201390
1250.551, 0.2614560
1251.033, 0.6182990
1251.515, 0.5451530
1251.997, 0.3450570
1252.479, 0.4933060
1252.962, 0.8984700
1253.444, 1.027954
1253.926, 0.8872140
1254.408, 0.7430530
1254.890, 0.6111390
1255.372, 0.4543350
1255.854, 0.2764330
1256.336, 0.2164690
1256.818, 0.3561870
1257.301, 0.6041500
1257.783, 0.9465900
1258.265, 1.238681
1258.747, 1.260607
1259.229, 1.118282
1259.711, 0.8804270
1260.193, 0.6394720
1260.675, 0.5178070
1261.157, 0.5359490
1261.640, 0.7169880
1262.122, 1.150328
1262.604, 1.329532
1263.086, 0.8331590
1263.568, 0.4412750
1264.050, 0.4682030
1264.532, 0.5991410
1265.014, 0.6756360
1265.497, 0.7332720
1265.979, 0.8407950
1266.461, 0.9561570
1266.943, 0.8702240
1267.425, 0.5291290
1267.907, 0.3520980
1268.389, 0.4355320
1268.871, 0.4170860
1269.354, 9.8641999E-02
1269.836, 0.1109140
1270.318, 2.4830000E-02
1270.800, 0.1691350
1271.282, 0.3016120
1271.764, 0.3917620
1272.246, 0.4837570
1272.728, 0.5495030
1273.210, 0.4812810
1273.693, 0.3810010
1274.175, 0.4589960
1274.657, 0.6876320
1275.139, 0.9708090
1275.621, 1.263236
1276.103, 1.232136
1276.585, 0.3648760
1277.067, 8.8133998E-02
1277.549, 1.0530000E-03
1278.032, 0.3735240
1278.514, 0.6281010
1278.996, 0.8368960
1279.478, 0.8242140
1279.960, 0.6663860
1280.442, 0.4823070
1280.924, 0.2792070
1281.406, 0.3376130
1281.889, 0.5228000
1282.371, 0.6523050
1282.853, 0.6083670
1283.335, 0.4902100
1283.817, 0.3319200
1284.299, 0.1784450
1284.781, 6.1771002E-02
1285.263, 2.3040001E-03
1285.745, 2.6015000E-02
1286.228, 0.0000000E+00
##END=



