##NAMES=Crednerite
##RRUFFID=R070404
##IDEAL CHEMISTRY=Cu^1+^Mn^3+^O_2_
##LOCALITY=Merehead, Mendip Hills, Somerset, England, United Kingdom
##OWNER=RRUFF
##SOURCE=Michael Scott
##DESCRIPTION=Platy iron-black striated crystals with well-defined cleavage planes
##STATUS=The identification of this mineral has been confirmed only by single crystal X-ray diffraction.
##URL=rruff.info/R070404
162.9636, 0.0000000E+00
163.4457, 1.419922
163.9278, 5.711914
164.4099, 12.96143
164.8920, 21.13159
165.3741, 24.17944
165.8563, 29.81860
166.3384, 60.91296
166.8205, 88.01978
167.3026, 98.40308
167.7847, 91.17102
168.2668, 70.73657
168.7490, 47.53027
169.2311, 16.98920
169.7132, 1.474304
170.1953, 7.721802
170.6774, 31.13361
171.1595, 49.79089
171.6417, 54.88647
172.1238, 61.82239
172.6059, 74.95026
173.0880, 83.47540
173.5701, 90.02917
174.0522, 96.80713
174.5344, 100.6921
175.0165, 97.74445
175.4986, 86.28113
175.9807, 70.94977
176.4628, 61.39960
176.9449, 59.70740
177.4271, 60.89716
177.9092, 66.87634
178.3913, 73.06964
178.8734, 74.26178
179.3555, 69.04926
179.8376, 58.15076
180.3197, 41.42560
180.8019, 10.58246
181.2840, 10.55804
181.7661, 11.53833
182.2482, 2.801636
182.7303, 6.665466
183.2124, 13.64380
183.6946, 17.77698
184.1767, 18.12195
184.6588, 10.98621
185.1409, 7.864868
185.6230, 9.276794
186.1051, 15.71625
186.5873, 28.81104
187.0694, 52.69983
187.5515, 81.29279
188.0336, 96.77307
188.5157, 99.32104
188.9978, 98.16107
189.4800, 94.72681
189.9621, 89.85583
190.4442, 84.90332
190.9263, 80.49426
191.4084, 74.78314
191.8905, 64.59546
192.3727, 44.10468
192.8548, 31.49951
193.3369, 31.82678
193.8190, 39.37183
194.3011, 48.28979
194.7832, 56.08337
195.2654, 62.35327
195.7475, 65.13995
196.2296, 65.35504
196.7117, 61.11047
197.1938, 48.34460
197.6759, 33.71692
198.1581, 22.79236
198.6402, 17.32983
199.1223, 15.43872
199.6044, 13.36115
200.0865, 8.559326
200.5686, 9.507935
201.0508, 21.67169
201.5329, 36.04083
202.0150, 44.78986
202.4971, 45.96402
202.9792, 43.57047
203.4613, 44.20245
203.9435, 50.75369
204.4256, 54.13031
204.9077, 53.50235
205.3898, 50.04251
205.8719, 42.75128
206.3540, 32.33371
206.8362, 23.66324
207.3183, 25.41418
207.8004, 45.42514
208.2825, 54.77228
208.7646, 48.83038
209.2467, 37.37424
209.7289, 23.26434
210.2110, 8.460693
210.6931, 4.430511
211.1752, 12.78799
211.6573, 16.58881
212.1395, 14.82385
212.6216, 2.415863
213.1037, 10.75534
213.5858, 21.00958
214.0679, 27.48804
214.5500, 30.72272
215.0322, 30.76291
215.5143, 26.97324
215.9964, 23.95673
216.4785, 23.55362
216.9606, 22.42542
217.4427, 17.43115
217.9249, 10.25006
218.4070, 5.492584
218.8891, 7.764282
219.3712, 17.37827
219.8533, 25.08957
220.3354, 33.23807
220.8176, 40.22687
221.2997, 38.32614
221.7818, 30.83261
222.2639, 24.47443
222.7460, 24.61020
223.2281, 30.18005
223.7103, 29.64444
224.1924, 13.02582
224.6745, 0.9822690
225.1566, 0.2501830
225.6387, 6.275391
226.1208, 11.92493
226.6030, 12.86945
227.0851, 10.57053
227.5672, 11.75208
228.0493, 22.84988
228.5314, 30.26016
229.0135, 28.53830
229.4957, 23.05661
229.9778, 20.25519
230.4599, 23.16214
230.9420, 29.25677
231.4241, 32.12109
231.9062, 29.71863
232.3884, 27.36832
232.8705, 24.82919
233.3526, 23.10995
233.8347, 23.13354
234.3168, 25.22559
234.7989, 28.73898
235.2811, 32.90161
235.7632, 38.85236
236.2453, 42.79956
236.7274, 42.68436
237.2095, 41.89951
237.6916, 43.61649
238.1738, 47.96567
238.6559, 51.19504
239.1380, 46.79428
239.6201, 32.24881
240.1022, 24.72641
240.5843, 30.39194
241.0665, 38.14819
241.5486, 43.24722
242.0307, 45.31775
242.5128, 46.28442
242.9949, 48.43033
243.4770, 52.13278
243.9592, 53.93460
244.4413, 53.19272
244.9234, 50.92612
245.4055, 44.82404
245.8876, 37.10406
246.3697, 33.31842
246.8519, 39.43985
247.3340, 53.73029
247.8161, 59.91299
248.2982, 51.41821
248.7803, 43.22195
249.2624, 40.93033
249.7446, 42.27856
250.2267, 43.12183
250.7088, 40.57669
251.1909, 36.97443
251.6730, 39.62540
252.1551, 52.68164
252.6373, 63.54980
253.1194, 67.81763
253.6015, 68.24579
254.0836, 67.04773
254.5657, 64.55658
255.0478, 62.39627
255.5300, 64.48932
256.0121, 73.11194
256.4942, 77.34586
256.9763, 68.60153
257.4584, 57.44333
257.9406, 51.90717
258.4227, 53.91492
258.9048, 57.99594
259.3869, 57.99963
259.8690, 53.63498
260.3511, 50.21997
260.8333, 49.14334
261.3154, 49.03580
261.7975, 49.24454
262.2796, 49.60513
262.7617, 49.36899
263.2438, 46.69427
263.7260, 42.45093
264.2081, 42.48779
264.6902, 50.51379
265.1723, 58.13214
265.6544, 59.33032
266.1365, 55.06824
266.6187, 49.03928
267.1008, 39.44589
267.5829, 29.89816
268.0650, 29.67105
268.5471, 41.29306
269.0292, 53.35168
269.5114, 58.85437
269.9935, 59.54596
270.4756, 58.35220
270.9577, 53.81488
271.4398, 48.23950
271.9219, 43.28421
272.4041, 38.81384
272.8862, 38.49301
273.3683, 47.79007
273.8504, 60.76550
274.3325, 65.66113
274.8146, 58.26474
275.2968, 49.28235
275.7789, 46.21591
276.2610, 47.74121
276.7431, 48.36716
277.2252, 45.96228
277.7073, 42.14218
278.1895, 38.96503
278.6716, 35.71695
279.1537, 35.45914
279.6358, 42.61536
280.1179, 52.73785
280.6000, 57.64487
281.0822, 55.17111
281.5643, 50.11096
282.0464, 47.56467
282.5285, 47.72946
283.0106, 48.03076
283.4927, 48.46948
283.9749, 48.90512
284.4570, 49.12393
284.9391, 49.12012
285.4212, 49.32736
285.9033, 50.45941
286.3854, 52.32990
286.8676, 51.99048
287.3497, 45.90936
287.8318, 41.20251
288.3139, 43.65292
288.7960, 50.57007
289.2781, 54.20956
289.7603, 49.81940
290.2424, 39.63229
290.7245, 33.13052
291.2066, 31.85904
291.6887, 32.03635
292.1708, 35.89499
292.6530, 39.95633
293.1351, 38.84598
293.6172, 30.80035
294.0993, 20.11508
294.5814, 14.45081
295.0635, 16.60699
295.5457, 18.91034
296.0278, 21.35233
296.5099, 23.94037
296.9920, 26.98901
297.4741, 30.30020
297.9562, 33.08084
298.4384, 34.54987
298.9205, 34.61923
299.4026, 33.97699
299.8847, 32.43213
300.3668, 30.39972
300.8489, 26.68997
301.3311, 22.60080
301.8131, 20.70181
302.2953, 22.81516
302.7774, 28.30829
303.2595, 34.21667
303.7416, 42.39499
304.2237, 48.08405
304.7058, 49.62457
305.1880, 48.90222
305.6701, 47.75183
306.1522, 47.02307
306.6343, 46.51556
307.1164, 45.99112
307.5985, 45.77924
308.0807, 44.39673
308.5628, 39.16800
309.0449, 34.43188
309.5270, 33.36880
310.0091, 36.10187
310.4912, 39.69070
310.9734, 41.81317
311.4555, 42.56314
311.9376, 43.14221
312.4197, 44.75922
312.9018, 44.81116
313.3839, 40.33652
313.8661, 33.07098
314.3482, 26.62738
314.8303, 22.64975
315.3124, 20.38025
315.7945, 18.66537
316.2766, 17.56335
316.7588, 16.98099
317.2409, 17.52216
317.7230, 18.29074
318.2051, 17.45831
318.6872, 13.11023
319.1693, 10.17099
319.6515, 14.87354
320.1336, 24.98932
320.6157, 30.18509
321.0978, 25.95193
321.5799, 16.81393
322.0620, 8.436523
322.5442, 0.2500920
323.0263, 3.220856
323.5084, 7.473663
323.9905, 22.12134
324.4726, 27.46368
324.9547, 21.30542
325.4369, 10.87234
325.9190, 1.929749
326.4011, 5.370422
326.8832, 7.564514
327.3653, 0.3194270
327.8474, 8.457642
328.3296, 10.62357
328.8117, 8.264404
329.2938, 6.841797
329.7759, 9.887970
330.2580, 15.79449
330.7401, 17.16272
331.2223, 7.045380
331.7044, 1.080627
332.1865, 3.534851
332.6686, 9.665710
333.1507, 14.97653
333.6328, 17.92035
334.1150, 18.77533
334.5971, 17.70316
335.0792, 13.85294
335.5613, 10.29007
336.0434, 6.842712
336.5255, 3.798248
337.0077, 1.332642
337.4898, 0.5289610
337.9719, 2.097687
338.4540, 4.206573
338.9361, 6.344849
339.4182, 3.263458
339.9004, 10.87552
340.3825, 21.49579
340.8646, 23.33585
341.3467, 20.06015
341.8288, 15.72705
342.3109, 11.51794
342.7931, 8.345306
343.2752, 7.967834
343.7573, 10.77972
344.2394, 13.66983
344.7215, 16.90646
345.2036, 19.08606
345.6858, 18.68378
346.1679, 15.71948
346.6500, 12.63715
347.1321, 10.79608
347.6142, 9.711243
348.0963, 9.801758
348.5785, 11.54590
349.0606, 13.01419
349.5427, 12.25632
350.0248, 9.953796
350.5069, 8.023956
350.9890, 6.310425
351.4712, 5.420593
351.9533, 6.188599
352.4354, 8.396851
352.9175, 10.80518
353.3996, 12.89764
353.8817, 14.72733
354.3639, 16.49139
354.8460, 18.64664
355.3281, 19.87210
355.8102, 20.03058
356.2923, 19.02893
356.7744, 16.16608
357.2566, 11.43790
357.7387, 6.630981
358.2208, 3.728058
358.7029, 2.985138
359.1850, 2.854858
359.6671, 2.431274
360.1493, 3.417084
360.6314, 9.141174
361.1135, 16.78754
361.5956, 20.20477
362.0777, 15.55887
362.5598, 4.950104
363.0420, 3.869598
363.5241, 12.86945
364.0062, 16.37549
364.4883, 10.37769
364.9704, 1.408325
365.4525, 5.475891
365.9347, 9.050995
366.4168, 10.85883
366.8989, 12.85291
367.3810, 15.20123
367.8631, 15.04056
368.3452, 10.98941
368.8274, 5.766144
369.3095, 1.820770
369.7916, 9.494385
370.2737, 11.43985
370.7558, 1.703308
371.2379, 12.27756
371.7201, 17.54022
372.2022, 13.03839
372.6843, 10.00793
373.1664, 14.34955
373.6485, 22.19922
374.1306, 27.36032
374.6128, 28.89688
375.0949, 30.47870
375.5770, 35.63904
376.0591, 41.88373
376.5412, 43.36588
377.0233, 38.45435
377.5055, 32.31195
377.9876, 30.21646
378.4697, 32.65558
378.9518, 34.54944
379.4339, 36.06091
379.9160, 37.00357
380.3982, 37.15295
380.8803, 36.37579
381.3624, 33.97354
381.8445, 28.89224
382.3266, 23.34103
382.8087, 24.27032
383.2909, 41.12488
383.7730, 52.09717
384.2551, 53.79593
384.7372, 51.29510
385.2193, 48.01117
385.7014, 44.77817
386.1836, 42.22327
386.6657, 41.29211
387.1478, 42.13626
387.6299, 41.66000
388.1120, 36.25430
388.5941, 33.89215
389.0763, 42.03256
389.5584, 53.62811
390.0405, 56.34738
390.5226, 42.99139
391.0047, 24.41827
391.4868, 19.11700
391.9690, 28.72791
392.4511, 35.99493
392.9332, 35.30746
393.4153, 31.40720
393.8974, 28.22446
394.3795, 25.86493
394.8617, 25.11508
395.3438, 28.25949
395.8259, 32.57791
396.3080, 31.99026
396.7901, 25.56134
397.2722, 22.17407
397.7544, 30.26767
398.2365, 46.49695
398.7186, 53.63623
399.2007, 45.93307
399.6828, 35.79089
400.1649, 25.13461
400.6471, 15.84656
401.1292, 12.13666
401.6113, 15.42154
402.0934, 20.94055
402.5755, 21.57614
403.0576, 15.31244
403.5398, 10.02255
404.0219, 1.949982
404.5040, 1.934814
404.9861, 5.708801
405.4682, 20.66211
405.9503, 32.68640
406.4325, 35.27634
406.9146, 30.26990
407.3967, 23.31726
407.8788, 11.48648
408.3609, 3.890320
408.8430, 3.702148
409.3252, 7.072327
409.8073, 12.84613
410.2894, 20.30365
410.7715, 25.14694
411.2536, 20.45111
411.7357, 8.956757
412.2179, 6.396271
412.7000, 17.62585
413.1821, 28.53607
413.6642, 26.78568
414.1463, 17.90140
414.6284, 12.73086
415.1106, 15.89441
415.5927, 20.03616
416.0748, 18.62787
416.5569, 13.67743
417.0390, 12.30429
417.5211, 17.76086
418.0033, 24.49036
418.4854, 23.40201
418.9675, 10.60468
419.4496, 3.341248
419.9317, 6.373840
420.4138, 11.68640
420.8960, 14.31015
421.3781, 13.95215
421.8602, 12.50989
422.3423, 11.47098
422.8244, 11.19357
423.3065, 12.48074
423.7887, 15.22138
424.2708, 19.70895
424.7529, 30.69702
425.2350, 40.14481
425.7171, 40.24313
426.1992, 30.60010
426.6814, 18.29611
427.1635, 8.408966
427.6456, 0.7688600
428.1277, 1.844696
428.6098, 2.592224
429.0919, 9.749176
429.5741, 20.79172
430.0562, 32.20282
430.5383, 38.28159
431.0204, 36.77606
431.5025, 31.68784
431.9846, 23.71765
432.4668, 14.50989
432.9489, 10.68134
433.4310, 14.79932
433.9131, 21.82031
434.3952, 26.86783
434.8773, 30.20358
435.3595, 29.15631
435.8416, 18.22961
436.3237, 6.926483
436.8058, 0.3496090
437.2879, 1.431610
437.7701, 0.6833500
438.2522, 6.499664
438.7343, 14.18494
439.2164, 18.99442
439.6985, 18.50308
440.1806, 19.88583
440.6628, 25.78821
441.1449, 31.23422
441.6270, 31.68408
442.1091, 28.28506
442.5912, 26.56696
443.0733, 31.52167
443.5555, 40.71600
444.0376, 45.79022
444.5197, 46.82010
445.0018, 44.32217
445.4839, 32.67816
445.9660, 20.49634
446.4482, 17.77396
446.9303, 27.19193
447.4124, 36.67966
447.8945, 36.46832
448.3766, 30.80106
448.8587, 29.40695
449.3409, 33.98260
449.8230, 40.74835
450.3051, 47.35355
450.7872, 53.43762
451.2693, 56.38959
451.7514, 54.50415
452.2336, 51.74622
452.7157, 49.85638
453.1978, 48.65112
453.6799, 47.67764
454.1620, 46.91608
454.6441, 46.93625
455.1263, 48.98578
455.6084, 54.35037
456.0905, 55.14484
456.5726, 43.56598
457.0547, 35.35666
457.5368, 37.58905
458.0190, 45.83044
458.5011, 52.66019
458.9832, 54.81140
459.4653, 55.21591
459.9474, 58.55624
460.4295, 64.88782
460.9117, 69.55841
461.3938, 72.01999
461.8759, 71.96906
462.3580, 67.75195
462.8401, 60.70163
463.3222, 55.37433
463.8044, 53.99158
464.2865, 54.10864
464.7686, 53.88922
465.2507, 53.34155
465.7328, 52.31415
466.2149, 50.40543
466.6971, 49.19009
467.1792, 52.23798
467.6613, 65.09131
468.1434, 70.03680
468.6255, 58.62878
469.1076, 46.79242
469.5898, 46.36581
470.0719, 54.46881
470.5540, 60.38538
471.0361, 56.95367
471.5182, 47.88092
472.0003, 44.71295
472.4825, 50.85254
472.9646, 53.64917
473.4467, 46.27307
473.9288, 37.63937
474.4109, 33.58292
474.8930, 34.17065
475.3752, 35.59897
475.8573, 36.25931
476.3394, 36.15189
476.8215, 34.65384
477.3036, 31.68582
477.7857, 30.36996
478.2679, 33.36197
478.7500, 37.91708
479.2321, 36.60776
479.7142, 26.17438
480.1963, 18.95956
480.6784, 19.86551
481.1606, 23.26752
481.6427, 24.25079
482.1248, 22.48999
482.6069, 19.76498
483.0890, 17.04984
483.5711, 14.87061
484.0533, 16.54681
484.5354, 26.86948
485.0175, 33.06979
485.4996, 31.54651
485.9817, 26.80319
486.4638, 21.92126
486.9460, 17.38818
487.4281, 13.84525
487.9102, 11.13818
488.3923, 9.840851
488.8744, 12.74625
489.3565, 20.81778
489.8387, 27.71808
490.3208, 31.18433
490.8029, 30.74765
491.2850, 25.47302
491.7671, 12.93146
492.2492, 2.616730
492.7314, 2.663330
493.2135, 3.767487
493.6956, 0.3209530
494.1777, 8.608429
494.6598, 15.71475
495.1419, 17.77029
495.6241, 15.46014
496.1062, 11.64685
496.5883, 3.923431
497.0704, 2.231750
497.5525, 5.649231
498.0346, 7.833984
498.5168, 9.749268
498.9989, 11.65454
499.4810, 13.70865
499.9631, 17.05841
500.4452, 20.63086
500.9273, 19.30362
501.4095, 11.54095
501.8916, 5.446930
502.3737, 5.877045
502.8558, 9.254303
503.3379, 9.250458
503.8200, 4.389862
504.3022, 1.984283
504.7843, 9.216736
505.2664, 17.80252
505.7485, 16.82812
506.2306, 6.497223
506.7127, 5.333740
507.1949, 14.12265
507.6770, 19.32672
508.1591, 18.20660
508.6412, 0.7459110
509.1233, 8.205322
509.6054, 0.5216980
510.0876, 11.74316
510.5697, 13.47409
511.0518, 6.241760
511.5339, 1.052765
512.0161, 1.853973
512.4982, 1.760559
512.9803, 4.259155
513.4624, 5.456177
513.9445, 6.435822
514.4266, 6.783051
514.9088, 7.819305
515.3909, 11.73846
515.8730, 18.86307
516.3551, 24.69415
516.8372, 28.33911
517.3193, 29.77856
517.8015, 27.75983
518.2836, 23.25229
518.7657, 20.01428
519.2478, 20.21484
519.7299, 22.10947
520.2120, 21.34296
520.6942, 15.11478
521.1763, 11.60651
521.6584, 13.46039
522.1405, 15.23871
522.6226, 12.69507
523.1047, 7.654144
523.5869, 5.267853
524.0690, 8.725952
524.5511, 15.06439
525.0332, 19.77625
525.5153, 22.86777
525.9974, 25.15057
526.4796, 26.23001
526.9617, 27.53329
527.4438, 32.69867
527.9259, 40.88037
528.4080, 42.33719
528.8901, 28.36383
529.3723, 14.55121
529.8544, 8.814606
530.3365, 10.13052
530.8186, 17.94904
531.3007, 31.82166
531.7828, 45.95081
532.2650, 51.80075
532.7471, 47.67581
533.2292, 46.01932
533.7113, 50.52902
534.1934, 53.24820
534.6755, 50.02185
535.1577, 44.27789
535.6398, 40.23309
536.1219, 38.95636
536.6040, 40.69403
537.0861, 48.17563
537.5682, 58.93781
538.0504, 63.60446
538.5325, 60.13867
539.0146, 57.62604
539.4967, 62.38864
539.9788, 73.45392
540.4609, 85.57297
540.9431, 104.5768
541.4252, 116.7770
541.9073, 114.7556
542.3894, 107.7223
542.8715, 103.4617
543.3536, 103.2670
543.8358, 105.8899
544.3179, 111.2988
544.8000, 117.7760
545.2821, 116.0446
545.7642, 100.4359
546.2463, 92.18170
546.7285, 102.7418
547.2106, 118.3589
547.6927, 130.0337
548.1748, 137.2440
548.6569, 140.8699
549.1390, 138.9787
549.6211, 135.2432
550.1032, 133.1257
550.5853, 132.4073
551.0674, 132.2170
551.5496, 132.3253
552.0317, 133.7037
552.5138, 137.9374
552.9959, 146.6784
553.4780, 152.6316
553.9601, 153.7479
554.4423, 154.6300
554.9244, 159.0374
555.4065, 163.7083
555.8886, 161.9046
556.3707, 150.9190
556.8528, 139.4672
557.3350, 139.6746
557.8171, 149.7950
558.2992, 155.7919
558.7813, 155.6330
559.2634, 155.4331
559.7455, 158.8279
560.2277, 164.5815
560.7098, 169.8650
561.1919, 177.9247
561.6740, 180.6653
562.1561, 167.2053
562.6382, 151.3646
563.1204, 150.7386
563.6025, 165.3519
564.0846, 181.5266
564.5667, 189.0841
565.0488, 189.1304
565.5309, 186.7890
566.0131, 178.0908
566.4952, 177.0319
566.9773, 193.7257
567.4594, 212.9012
567.9415, 225.8032
568.4236, 231.9804
568.9058, 232.2538
569.3879, 222.2766
569.8700, 210.6630
570.3521, 206.7534
570.8342, 208.6108
571.3163, 209.7459
571.7985, 208.0287
572.2806, 206.6892
572.7627, 210.0349
573.2448, 218.8770
573.7269, 224.8162
574.2090, 222.8928
574.6912, 224.2147
575.1733, 237.7640
575.6554, 252.7417
576.1375, 255.5544
576.6196, 243.9189
577.1017, 229.3190
577.5839, 220.9921
578.0660, 218.0403
578.5481, 218.3838
579.0302, 222.4409
579.5123, 225.7369
579.9944, 225.9279
580.4766, 224.4367
580.9587, 224.2355
581.4408, 226.0330
581.9229, 226.0424
582.4050, 224.2719
582.8871, 220.0875
583.3693, 208.8222
583.8514, 195.3450
584.3335, 190.7129
584.8156, 200.1140
585.2977, 215.3122
585.7798, 224.3076
586.2620, 226.9713
586.7441, 223.7375
587.2262, 210.3794
587.7083, 198.0685
588.1904, 194.5588
588.6725, 195.8816
589.1547, 195.7210
589.6368, 192.6270
590.1189, 189.6416
590.6010, 189.4068
591.0831, 189.4606
591.5652, 187.3736
592.0474, 182.6008
592.5295, 173.3681
593.0116, 157.5405
593.4937, 139.2775
593.9758, 132.1587
594.4579, 142.2399
594.9401, 149.1385
595.4222, 148.9232
595.9043, 147.1723
596.3864, 146.1199
596.8685, 145.7245
597.3506, 145.9445
597.8328, 148.5582
598.3149, 148.2579
598.7970, 135.8346
599.2791, 117.1070
599.7612, 108.7908
600.2433, 114.1094
600.7255, 121.0073
601.2076, 119.4367
601.6897, 110.3228
602.1718, 101.1625
602.6539, 88.80701
603.1360, 80.92715
603.6182, 80.45999
604.1003, 82.72546
604.5824, 86.10080
605.0645, 89.20929
605.5466, 88.84589
606.0287, 81.97006
606.5109, 72.26944
606.9930, 64.31143
607.4751, 58.21051
607.9572, 55.50592
608.4393, 57.19556
608.9214, 59.94873
609.4036, 60.55878
609.8857, 59.00623
610.3678, 57.10446
610.8499, 57.45096
611.3320, 54.24634
611.8141, 39.45166
612.2963, 24.65060
612.7784, 24.41037
613.2605, 38.05457
613.7426, 50.56424
614.2247, 49.11835
614.7068, 39.73752
615.1890, 37.99332
615.6711, 44.29382
616.1532, 49.11865
616.6353, 49.79190
617.1174, 47.89243
617.5995, 44.46283
618.0817, 39.45538
618.5638, 35.72610
619.0459, 32.49042
619.5280, 31.57950
620.0101, 36.23096
620.4922, 42.35898
620.9744, 44.90323
621.4565, 42.96988
621.9386, 38.74307
622.4207, 32.65149
622.9028, 26.48260
623.3849, 29.17722
623.8671, 42.92828
624.3492, 52.53143
624.8313, 51.89368
625.3134, 46.90695
625.7955, 43.74838
626.2776, 42.30310
626.7598, 42.38577
627.2419, 48.56564
627.7240, 51.31836
628.2061, 40.92197
628.6882, 26.11044
629.1703, 19.89978
629.6525, 24.90869
630.1346, 34.46927
630.6167, 43.18619
631.0988, 50.78796
631.5809, 55.06409
632.0630, 54.64453
632.5452, 56.68594
633.0273, 67.07349
633.5094, 77.20312
633.9915, 73.87747
634.4736, 58.14313
634.9557, 52.82547
635.4379, 72.52606
635.9200, 93.95020
636.4021, 104.5852
636.8842, 107.7822
637.3663, 107.9538
637.8484, 106.8124
638.3306, 106.7777
638.8127, 111.4507
639.2948, 119.3983
639.7769, 119.3695
640.2590, 107.4463
640.7411, 101.1960
641.2233, 111.7052
641.7054, 124.5803
642.1875, 120.5235
642.6696, 101.5810
643.1517, 94.40933
643.6339, 118.2323
644.1160, 140.4944
644.5981, 138.7583
645.0802, 125.7154
645.5623, 121.6596
646.0444, 130.3847
646.5266, 140.8269
647.0087, 142.0892
647.4908, 136.8242
647.9729, 138.6373
648.4550, 149.9877
648.9371, 158.7877
649.4193, 160.8087
649.9014, 159.8776
650.3835, 159.9173
650.8656, 160.9054
651.3477, 160.6656
651.8298, 156.9834
652.3120, 154.0937
652.7941, 154.1782
653.2762, 156.2381
653.7583, 159.3659
654.2404, 163.0226
654.7225, 166.1430
655.2047, 167.8906
655.6868, 168.2263
656.1689, 167.8800
656.6510, 167.2875
657.1331, 163.1998
657.6152, 152.8197
658.0974, 141.8373
658.5795, 133.8864
659.0616, 129.3271
659.5437, 130.7901
660.0258, 149.1374
660.5079, 160.3131
660.9901, 149.5348
661.4722, 131.7727
661.9543, 123.2750
662.4364, 124.6355
662.9185, 126.2821
663.4006, 122.2477
663.8828, 113.5967
664.3649, 100.5881
664.8470, 82.97296
665.3291, 70.94550
665.8112, 66.90491
666.2933, 66.60193
666.7755, 67.34805
667.2576, 69.33444
667.7397, 73.44467
668.2218, 86.33167
668.7039, 90.60303
669.1860, 74.34088
669.6682, 55.14096
670.1503, 47.36768
670.6324, 48.93835
671.1145, 50.16592
671.5966, 46.18893
672.0787, 40.62140
672.5609, 38.90076
673.0430, 40.01862
673.5251, 37.23639
674.0072, 28.74121
674.4893, 24.68182
674.9714, 33.43158
675.4536, 48.83252
675.9357, 54.53241
676.4178, 45.15106
676.8999, 37.75882
677.3820, 33.83365
677.8641, 30.94778
678.3463, 27.88266
678.8284, 24.98962
679.3105, 23.80157
679.7926, 24.77942
680.2747, 24.38766
680.7568, 15.76965
681.2390, 4.208649
681.7211, 5.443359
682.2032, 19.17029
682.6853, 27.34320
683.1674, 21.17432
683.6495, 8.804901
684.1317, 3.075195
684.6138, 5.752808
685.0959, 5.957611
685.5780, 0.4389650
686.0601, 3.664398
686.5422, 4.552277
687.0244, 3.226807
687.5065, 2.5908999E-02
687.9886, 5.000183
688.4707, 10.13205
688.9528, 14.90378
689.4349, 17.70035
689.9171, 17.06924
690.3992, 13.93427
690.8813, 10.79633
691.3634, 8.322296
691.8455, 4.627838
692.3276, 2.632690
692.8098, 12.79028
693.2919, 19.69690
693.7740, 22.64662
694.2561, 23.69388
694.7382, 23.24474
695.2203, 21.25510
695.7025, 16.20795
696.1846, 9.362823
696.6667, 5.521027
697.1488, 8.875092
697.6309, 10.94275
698.1130, 5.417084
698.5952, 2.920624
699.0773, 7.456787
699.5594, 8.400238
700.0415, 11.52914
700.5236, 21.05508
701.0057, 31.34210
701.4879, 28.57437
701.9700, 11.82831
702.4521, 1.916138
702.9342, 2.583771
703.4163, 5.289246
703.8984, 5.762848
704.3806, 4.553375
704.8627, 2.926575
705.3448, 0.7056730
705.8269, 1.384125
706.3090, 4.753876
706.7911, 6.518784
707.2733, 3.099564
707.7554, 2.511185
708.2375, 4.795181
708.7196, 2.232925
709.2017, 0.8314820
709.6838, 0.2438810
710.1660, 3.836472
710.6481, 5.907959
711.1302, 6.385101
711.6123, 5.735031
712.0944, 3.722794
712.5765, 2.329376
713.0587, 4.339371
713.5408, 9.988312
714.0229, 13.99872
714.5050, 13.80301
714.9871, 15.48495
715.4692, 24.14902
715.9514, 31.76865
716.4335, 29.07423
716.9156, 18.49901
717.3977, 13.25830
717.8798, 24.08095
718.3619, 34.17876
718.8441, 26.56819
719.3262, 10.55820
719.8083, 1.680267
720.2904, 1.799316
720.7725, 5.180557
721.2546, 8.011795
721.7368, 11.54890
722.2189, 20.88564
722.7010, 38.33716
723.1831, 44.61003
723.6652, 33.38950
724.1473, 20.44611
724.6295, 13.62245
725.1116, 11.39864
725.5937, 10.01054
726.0758, 8.535904
726.5579, 11.17809
727.0400, 25.98476
727.5222, 37.77245
728.0043, 35.45593
728.4864, 24.76300
728.9685, 14.08371
729.4506, 6.291046
729.9327, 2.278351
730.4149, 4.065735
730.8970, 9.773132
731.3791, 16.08376
731.8612, 22.72983
732.3433, 27.00046
732.8254, 27.97453
733.3076, 27.35139
733.7897, 27.01567
734.2718, 26.77452
734.7539, 23.81084
735.2360, 14.46976
735.7181, 8.492203
736.2003, 7.703262
736.6824, 9.718048
737.1645, 15.58067
737.6466, 22.96213
738.1287, 25.68854
738.6108, 20.45903
739.0930, 14.46361
739.5751, 10.76462
740.0572, 9.106308
740.5393, 9.861938
741.0214, 12.44006
741.5035, 15.12183
741.9857, 17.09383
742.4678, 19.34660
742.9499, 25.14635
743.4320, 33.65640
743.9141, 32.56717
744.3962, 20.00153
744.8784, 7.449890
745.3605, 2.242279
745.8426, 7.610535
746.3247, 5.464630
746.8068, 5.330551
747.2889, 13.26849
747.7711, 17.86371
748.2532, 20.58548
748.7353, 20.27083
749.2174, 19.36763
749.6995, 20.89339
750.1816, 24.01680
750.6638, 23.87083
751.1459, 16.02902
751.6280, 9.335251
752.1101, 14.88756
752.5922, 26.37328
753.0743, 31.85625
753.5565, 30.46686
754.0386, 26.60645
754.5207, 22.36018
755.0028, 18.16556
755.4849, 15.72229
755.9670, 15.56747
756.4492, 17.12048
756.9313, 19.95084
757.4134, 24.28081
757.8955, 33.26620
758.3776, 42.79930
758.8597, 46.09441
759.3419, 42.86462
759.8240, 39.91847
760.3061, 36.65416
760.7882, 34.59013
761.2703, 37.18918
761.7524, 39.70976
762.2346, 35.50804
762.7167, 25.47830
763.1988, 17.42033
763.6809, 15.91391
764.1630, 17.88849
764.6451, 20.59650
765.1273, 24.42693
765.6094, 31.86035
766.0915, 41.91731
766.5736, 44.58574
767.0557, 32.47931
767.5378, 14.63556
768.0200, 11.58464
768.5021, 26.37860
768.9842, 36.83200
769.4663, 42.79013
769.9484, 43.77296
770.4305, 35.88193
770.9127, 25.47415
771.3948, 21.94505
771.8769, 25.76680
772.3590, 28.87350
772.8411, 31.10757
773.3232, 31.57001
773.8054, 27.71289
774.2875, 23.35818
774.7696, 23.00606
775.2517, 26.42264
775.7338, 29.55034
776.2159, 29.09926
776.6981, 29.73141
777.1802, 41.03468
777.6623, 56.09294
778.1444, 57.87953
778.6265, 45.98610
779.1086, 33.51031
779.5908, 27.78076
780.0729, 25.87509
780.5550, 22.31940
781.0371, 16.66560
781.5192, 13.60542
782.0013, 13.82416
782.4835, 14.99313
782.9656, 14.54774
783.4477, 15.22498
783.9298, 24.30534
784.4119, 42.32697
784.8940, 49.67006
785.3762, 37.61107
785.8583, 24.88675
786.3404, 13.47736
786.8225, 5.842209
787.3046, 5.319199
787.7867, 10.20903
788.2689, 14.89217
788.7510, 16.34129
789.2331, 18.98816
789.7152, 31.12280
790.1973, 44.53654
790.6794, 44.11787
791.1616, 31.80722
791.6437, 19.94531
792.1258, 13.77501
792.6079, 11.79663
793.0900, 12.61859
793.5721, 15.82321
794.0543, 18.27875
794.5364, 20.10632
795.0185, 20.76617
795.5006, 18.92828
795.9827, 18.18362
796.4648, 22.81169
796.9470, 32.10146
797.4291, 38.71745
797.9112, 45.96761
798.3933, 45.67094
798.8754, 29.92943
799.3575, 14.07787
799.8397, 5.885605
800.3218, 4.195419
800.8039, 6.432846
801.2860, 12.48990
801.7681, 18.85414
802.2502, 27.02686
802.7324, 31.58076
803.2145, 22.92108
803.6966, 8.427246
804.1787, 2.770432
804.6608, 9.340561
805.1429, 20.89728
805.6251, 34.23912
806.1072, 44.65181
806.5893, 37.20334
807.0714, 15.22742
807.5535, 6.060730
808.0356, 15.03217
808.5178, 25.35431
808.9999, 25.89470
809.4820, 20.12477
809.9641, 16.86107
810.4462, 16.51178
810.9283, 17.06050
811.4105, 19.86462
811.8926, 21.36716
812.3747, 20.58751
812.8568, 17.51270
813.3389, 9.927536
813.8210, 2.041656
814.3032, 6.819916
814.7853, 5.889740
815.2674, 15.10080
815.7495, 10.50906
816.2316, 1.792938
816.7137, 3.682327
817.1959, 5.040131
817.6780, 2.923569
818.1601, 3.013809
818.6422, 9.424316
819.1243, 13.88711
819.6064, 17.06223
820.0886, 18.58138
820.5707, 18.88121
821.0528, 21.02956
821.5349, 25.88664
822.0170, 28.92140
822.4991, 23.73801
822.9813, 13.30666
823.4634, 11.52866
823.9455, 18.91904
824.4276, 24.07410
824.9097, 24.56320
825.3918, 22.62218
825.8740, 19.34883
826.3561, 15.45244
826.8382, 13.16167
827.3203, 13.17497
827.8024, 13.20487
828.2845, 14.10054
828.7667, 13.94667
829.2488, 10.75902
829.7309, 6.938583
830.2130, 5.020416
830.6951, 5.183090
831.1772, 7.428207
831.6594, 15.43571
832.1415, 21.02597
832.6236, 18.11147
833.1057, 12.94897
833.5878, 11.46671
834.0699, 13.78122
834.5521, 18.04639
835.0342, 24.01920
835.5163, 28.57849
835.9984, 28.86150
836.4805, 25.55051
836.9626, 16.96268
837.4448, 5.500610
837.9269, 0.5065310
838.4090, 4.765121
838.8911, 9.705475
839.3732, 5.256500
839.8553, 4.795273
840.3375, 5.912170
840.8196, 2.066711
841.3017, 10.95306
841.7838, 20.02258
842.2659, 26.25357
842.7480, 26.94424
843.2302, 24.34805
843.7123, 24.71831
844.1944, 30.98357
844.6765, 29.74533
845.1586, 12.61719
845.6407, 0.7205960
846.1229, 6.684509
846.6050, 17.22658
847.0871, 18.52029
847.5692, 11.27019
848.0513, 7.234451
848.5334, 10.83417
849.0156, 13.98657
849.4977, 13.46677
849.9798, 12.59930
850.4619, 14.50888
850.9440, 18.06909
851.4261, 20.61118
851.9083, 21.35103
852.3904, 20.59592
852.8725, 16.71097
853.3546, 12.98831
853.8367, 14.37793
854.3188, 18.17903
854.8010, 17.98114
855.2831, 13.16344
855.7652, 9.048492
856.2473, 9.661499
856.7294, 12.82574
857.2115, 14.72131
857.6937, 15.73596
858.1758, 18.41525
858.6579, 22.91956
859.1400, 26.23654
859.6221, 27.12886
860.1042, 24.67526
860.5864, 16.05086
861.0685, 1.836227
861.5506, 2.151611
862.0327, 6.988647
862.5148, 15.28993
862.9969, 20.47385
863.4791, 22.43651
863.9612, 19.45192
864.4433, 13.63632
864.9254, 13.10641
865.4075, 24.31215
865.8896, 27.23880
866.3718, 10.78954
866.8539, 0.3856200
867.3360, 7.980225
867.8181, 22.45709
868.3002, 27.99574
868.7823, 23.95844
869.2645, 18.57849
869.7466, 11.38196
870.2287, 6.551102
870.7108, 5.706879
871.1929, 7.926483
871.6750, 14.07277
872.1572, 21.91344
872.6393, 28.51939
873.1214, 32.30225
873.6035, 32.29993
874.0856, 24.46432
874.5677, 15.01959
875.0499, 12.87944
875.5320, 14.63562
876.0141, 11.19128
876.4962, 1.819458
876.9783, 5.472778
877.4604, 5.337982
877.9426, 1.9799999E-04
878.4247, 8.692261
878.9068, 19.56779
879.3889, 29.27261
879.8710, 37.43201
880.3531, 40.94731
880.8353, 38.41823
881.3174, 32.32260
881.7995, 24.86211
882.2816, 16.55231
882.7637, 15.83612
883.2458, 24.36029
883.7280, 27.69057
884.2101, 22.21103
884.6922, 15.37451
885.1743, 11.51059
885.6564, 9.993393
886.1385, 9.614029
886.6207, 10.71437
887.1028, 11.43144
887.5849, 11.85336
888.0670, 11.84570
888.5491, 9.833450
889.0313, 8.613586
889.5134, 11.31480
889.9955, 17.22678
890.4776, 21.72142
890.9597, 26.75691
891.4418, 26.23270
891.9240, 12.80739
892.4061, 0.7061920
892.8882, 2.333130
893.3703, 0.3580780
893.8524, 4.436691
894.3345, 9.134064
894.8167, 14.28262
895.2988, 24.10515
895.7809, 29.07773
896.2630, 16.93991
896.7451, 2.971466
897.2272, 7.381027
897.7094, 23.16165
898.1915, 28.00494
898.6736, 14.17548
899.1557, 1.800674
899.6378, 11.45992
900.1199, 26.62325
900.6021, 24.97644
901.0842, 12.89311
901.5663, 3.675659
902.0484, 6.9228999E-02
902.5305, 0.8949280
903.0126, 0.1349490
903.4948, 1.210052
903.9769, 1.108307
904.4590, 0.5430450
904.9411, 3.767227
905.4232, 10.17838
905.9053, 13.46359
906.3875, 11.60370
906.8696, 9.837173
907.3517, 13.81213
907.8338, 20.71695
908.3159, 20.65688
908.7980, 13.57547
909.2802, 7.505402
909.7623, 2.854889
910.2444, 3.017868
910.7265, 10.65811
911.2086, 20.80077
911.6907, 26.23828
912.1729, 27.02580
912.6550, 28.37770
913.1371, 30.84105
913.6192, 32.37941
914.1013, 33.76735
914.5834, 31.72536
915.0656, 21.34888
915.5477, 7.775314
916.0298, 3.367859
916.5119, 11.43271
916.9940, 16.26448
917.4761, 16.15866
917.9583, 15.22047
918.4404, 13.01688
918.9225, 11.51521
919.4046, 13.62387
919.8867, 17.95226
920.3688, 18.14174
920.8510, 9.247742
921.3331, 6.211639
921.8152, 17.03708
922.2973, 27.37489
922.7794, 31.33160
923.2615, 30.73888
923.7437, 27.33485
924.2258, 21.84976
924.7079, 16.83867
925.1900, 13.38652
925.6721, 10.90720
926.1542, 6.521469
926.6364, 4.541824
927.1185, 12.66188
927.6006, 24.43056
928.0827, 27.81467
928.5648, 20.75272
929.0469, 13.17845
929.5291, 7.111130
930.0112, 6.613098
930.4933, 22.06459
930.9754, 39.86176
931.4575, 39.80403
931.9396, 26.73976
932.4218, 19.76744
932.9039, 25.68948
933.3860, 32.66708
933.8681, 30.92564
934.3502, 24.18379
934.8323, 14.21767
935.3145, 3.892395
935.7966, 1.996658
936.2787, 2.641769
936.7608, 4.521118
937.2429, 21.54666
937.7250, 35.51137
938.2072, 24.76353
938.6893, 1.610977
939.1714, 4.279144
939.6535, 3.516052
940.1356, 9.081802
940.6177, 8.817535
941.0999, 6.505020
941.5820, 4.439590
942.0641, 3.860626
942.5462, 8.657776
943.0283, 17.18588
943.5104, 20.97189
943.9926, 19.79178
944.4747, 14.68494
944.9568, 5.846085
945.4389, 2.337357
945.9210, 6.172165
946.4031, 5.799179
946.8853, 0.2381740
947.3674, 11.89240
947.8495, 16.34273
948.3316, 11.95172
948.8137, 10.83911
949.2958, 18.55458
949.7780, 26.63443
950.2601, 24.91327
950.7422, 15.72566
951.2243, 12.60375
951.7064, 16.57043
952.1885, 19.22989
952.6707, 19.41176
953.1528, 19.73367
953.6349, 21.47911
954.1170, 24.02150
954.5991, 27.53366
955.0812, 31.60249
955.5634, 25.71281
956.0455, 2.431137
956.5276, 6.687683
957.0097, 9.381912
957.4918, 25.65935
957.9739, 28.13550
958.4561, 23.99551
958.9382, 24.61288
959.4203, 30.54201
959.9024, 33.17151
960.3845, 30.22449
960.8666, 28.57762
961.3488, 30.08383
961.8309, 31.93274
962.3130, 33.30508
962.7951, 33.42383
963.2772, 30.31955
963.7593, 23.12010
964.2415, 17.34532
964.7236, 12.15306
965.2057, 9.615707
965.6878, 11.84357
966.1699, 15.11180
966.6520, 17.64090
967.1342, 19.33775
967.6163, 19.69266
968.0984, 17.98323
968.5805, 17.81198
969.0626, 19.52197
969.5447, 22.56181
970.0269, 30.37442
970.5090, 36.22440
970.9911, 32.90120
971.4732, 23.84181
971.9553, 18.62436
972.4374, 19.47966
972.9196, 19.30173
973.4017, 14.09906
973.8838, 11.54893
974.3659, 17.80476
974.8480, 24.95926
975.3301, 25.12431
975.8123, 20.25072
976.2944, 17.28629
976.7765, 17.25067
977.2586, 19.38878
977.7407, 28.53668
978.2228, 33.73573
978.7050, 27.37860
979.1871, 16.93657
979.6692, 6.548080
980.1513, 1.178070
980.6334, 1.737686
981.1155, 23.86328
981.5977, 35.02820
982.0798, 15.09192
982.5619, 4.872910
983.0440, 8.871552
983.5261, 4.746796
984.0082, 0.1894380
984.4904, 4.523483
984.9725, 7.207397
985.4546, 7.457275
985.9367, 7.572006
986.4188, 7.098724
986.9009, 8.174301
987.3831, 13.83669
987.8652, 21.20422
988.3473, 26.13956
988.8294, 28.96942
989.3115, 29.70348
989.7936, 27.72592
990.2758, 25.48445
990.7579, 24.92879
991.2400, 23.39787
991.7221, 17.73895
992.2042, 11.07681
992.6863, 5.516357
993.1685, 2.517136
993.6506, 6.054382
994.1327, 20.00229
994.6148, 33.65877
995.0969, 45.38837
995.5790, 51.40465
996.0612, 46.01834
996.5433, 35.36192
997.0254, 25.24100
997.5075, 17.62965
997.9896, 13.22623
998.4717, 12.55096
998.9539, 14.52182
999.4360, 23.57240
999.9181, 29.82541
1000.400, 22.36516
1000.882, 10.56050
1001.364, 6.934525
1001.847, 11.19815
1002.329, 14.55743
1002.811, 12.84435
1003.293, 13.39981
1003.775, 23.80475
1004.257, 33.39217
1004.739, 31.55717
1005.221, 26.62373
1005.703, 33.00166
1006.186, 47.68094
1006.668, 52.55875
1007.150, 38.62758
1007.632, 24.41971
1008.114, 17.36278
1008.596, 13.94290
1009.078, 12.70964
1009.560, 13.26228
1010.043, 16.90396
1010.525, 22.11380
1011.007, 23.09216
1011.489, 16.11961
1011.971, 12.12517
1012.453, 22.40913
1012.935, 29.54367
1013.417, 17.81755
1013.899, 0.8820950
1014.382, 6.970001
1014.864, 4.891403
1015.346, 1.073685
1015.828, 11.11748
1016.310, 17.43878
1016.792, 12.72362
1017.274, 8.610580
1017.756, 13.15543
1018.239, 20.12164
1018.721, 22.88016
1019.203, 22.16472
1019.685, 22.68719
1020.167, 26.47881
1020.649, 26.64825
1021.131, 14.89932
1021.613, 6.548203
1022.095, 12.76096
1022.578, 22.05150
1023.060, 24.47702
1023.542, 21.32666
1024.024, 17.78210
1024.506, 14.66861
1024.988, 11.97572
1025.470, 8.491455
1025.952, 7.030533
1026.435, 9.847427
1026.917, 14.01466
1027.399, 18.28833
1027.881, 21.75185
1028.363, 21.57487
1028.845, 16.28586
1029.327, 17.18086
1029.809, 36.24411
1030.292, 47.93620
1030.774, 38.42372
1031.256, 26.42020
1031.738, 25.26559
1032.220, 30.25006
1032.702, 32.20775
1033.184, 30.24471
1033.666, 28.65709
1034.148, 28.58394
1034.630, 27.87755
1035.113, 23.57913
1035.595, 21.40286
1036.077, 26.39186
1036.559, 34.46034
1037.041, 39.04037
1037.523, 39.89496
1038.005, 43.36746
1038.487, 55.77083
1038.970, 60.49805
1039.452, 51.14592
1039.934, 40.99768
1040.416, 34.20256
1040.898, 30.52301
1041.380, 32.32616
1041.862, 38.54001
1042.344, 35.77736
1042.826, 16.85054
1043.309, 4.991486
1043.791, 4.940674
1044.273, 4.074127
1044.755, 6.337982
1045.237, 13.28633
1045.719, 0.3592990
1046.201, 26.51164
1046.683, 39.29855
1047.166, 33.58521
1047.648, 28.97493
1048.130, 25.99957
1048.612, 22.97279
1049.094, 19.45135
1049.576, 15.33788
1050.058, 9.768661
1050.540, 4.636612
1051.022, 6.309006
1051.505, 16.20091
1051.987, 17.70706
1052.469, 9.022751
1052.951, 3.272980
1053.433, 3.713318
1053.915, 6.822479
1054.397, 10.42520
1054.879, 13.80995
1055.361, 15.77486
1055.844, 16.88657
1056.326, 21.54346
1056.808, 28.63145
1057.290, 32.90054
1057.772, 33.33414
1058.254, 31.34224
1058.736, 27.57924
1059.218, 22.64952
1059.701, 16.67870
1060.183, 10.77687
1060.665, 9.185165
1061.147, 11.22568
1061.629, 13.55504
1062.111, 15.69373
1062.593, 17.61349
1063.075, 19.27420
1063.557, 19.68498
1064.040, 16.95428
1064.522, 14.28923
1065.004, 20.52383
1065.486, 30.39731
1065.968, 27.79915
1066.450, 16.57176
1066.932, 15.74541
1067.414, 28.54556
1067.896, 37.83220
1068.379, 30.81708
1068.861, 20.07684
1069.343, 20.31110
1069.825, 23.88458
1070.307, 17.45393
1070.789, 6.486649
1071.271, 2.570648
1071.753, 6.820648
1072.236, 14.05023
1072.718, 23.51648
1073.200, 30.68839
1073.682, 30.19269
1074.164, 27.47014
1074.646, 27.77582
1075.128, 28.02242
1075.610, 22.00957
1076.093, 12.84558
1076.575, 10.65941
1077.057, 18.40327
1077.539, 23.41786
1078.021, 18.79317
1078.503, 12.64417
1078.985, 3.174042
1079.467, 2.250504
1079.949, 4.803329
1080.432, 18.00987
1080.914, 27.51294
1081.396, 32.12250
1081.878, 33.46788
1082.360, 29.26213
1082.842, 25.77817
1083.324, 23.04283
1083.806, 22.31769
1084.288, 27.84546
1084.771, 32.92584
1085.253, 28.59007
1085.735, 17.13174
1086.217, 9.530548
1086.699, 5.097946
1087.181, 7.132782
1087.663, 22.42316
1088.145, 29.83296
1088.628, 20.01683
1089.110, 8.033661
1089.592, 4.297424
1090.074, 6.573700
1090.556, 10.27411
1091.038, 15.41696
1091.520, 22.11195
1092.002, 31.42670
1092.484, 34.60779
1092.967, 29.59694
1093.449, 22.41890
1093.931, 15.78421
1094.413, 9.666855
1094.895, 2.946625
1095.377, 2.071564
1095.859, 6.484253
1096.341, 25.99332
1096.823, 35.77301
1097.306, 34.67632
1097.788, 28.93347
1098.270, 20.94600
1098.752, 13.66716
1099.234, 9.056580
1099.716, 8.195404
1100.198, 16.62595
1100.680, 27.93491
1101.163, 27.59721
1101.645, 19.26242
1102.127, 12.20927
1102.609, 8.186813
1103.091, 6.803970
1103.573, 9.277435
1104.055, 12.64880
1104.537, 15.74289
1105.020, 18.20348
1105.502, 20.44246
1105.984, 21.28088
1106.466, 16.98738
1106.948, 10.84634
1107.430, 10.51842
1107.912, 17.37093
1108.394, 24.73334
1108.876, 32.04353
1109.359, 36.15535
1109.841, 37.03732
1110.323, 32.94830
1110.805, 15.84613
1111.287, 2.030701
1111.769, 2.417709
1112.251, 11.01599
1112.733, 13.97214
1113.215, 4.556488
1113.698, 11.21835
1114.180, 4.136444
1114.662, 16.63977
1115.144, 20.52669
1115.626, 20.35704
1116.108, 17.81476
1116.590, 14.59979
1117.072, 13.94412
1117.555, 15.86096
1118.037, 18.53421
1118.519, 22.83475
1119.001, 22.11400
1119.483, 14.55136
1119.965, 9.292496
1120.447, 10.54013
1120.929, 12.93933
1121.411, 10.85565
1121.894, 6.212372
1122.376, 3.545227
1122.858, 2.916489
1123.340, 5.555466
1123.822, 10.66786
1124.304, 14.65054
1124.786, 16.30424
1125.268, 12.97513
1125.750, 2.694031
1126.233, 5.330460
1126.715, 3.475723
1127.197, 17.16742
1127.679, 17.56389
1128.161, 12.34180
1128.643, 14.75948
1129.125, 22.85133
1129.607, 27.57671
1130.090, 26.77440
1130.572, 25.25996
1131.054, 26.13834
1131.536, 25.63965
1132.018, 19.86546
1132.500, 14.18542
1132.982, 12.53609
1133.464, 12.88580
1133.947, 13.97739
1134.429, 14.63890
1134.911, 10.60191
1135.393, 2.213165
1135.875, 7.421768
1136.357, 4.629654
1136.839, 11.72163
1137.321, 4.227219
1137.803, 0.1152650
1138.286, 11.71475
1138.768, 28.30276
1139.250, 32.43288
1139.732, 25.50081
1140.214, 20.11790
1140.696, 15.93274
1141.178, 17.00107
1141.660, 24.35115
1142.142, 27.69409
1142.625, 23.48833
1143.107, 18.36609
1143.589, 17.29153
1144.071, 19.30316
1144.553, 24.83116
1145.035, 31.34630
1145.517, 29.33618
1145.999, 21.85332
1146.482, 19.20271
1146.964, 21.34753
1147.446, 21.09410
1147.928, 15.92946
1148.410, 10.72189
1148.892, 7.542694
1149.374, 8.483185
1149.856, 20.45667
1150.339, 32.80406
1150.821, 34.08681
1151.303, 28.62866
1151.785, 21.09402
1152.267, 14.10524
1152.749, 14.48195
1153.231, 27.07999
1153.713, 33.75809
1154.195, 25.22168
1154.677, 17.01984
1155.160, 13.97011
1155.642, 12.42470
1156.124, 8.886978
1156.606, 6.416122
1157.088, 10.66048
1157.570, 20.68433
1158.052, 25.35464
1158.534, 23.99559
1159.017, 19.41846
1159.499, 10.47618
1159.981, 6.731293
1160.463, 11.58763
1160.945, 17.97644
1161.427, 21.08754
1161.909, 20.98439
1162.391, 16.09894
1162.874, 8.741074
1163.356, 7.646042
1163.838, 10.64655
1164.320, 11.08797
1164.802, 8.923782
1165.284, 7.632324
1165.766, 8.252029
1166.248, 8.563431
1166.730, 1.534256
1167.213, 7.364487
1167.695, 11.27731
1168.177, 12.38719
1168.659, 2.298370
1169.141, 6.670914
1169.623, 5.248367
1170.105, 3.588455
1170.587, 9.997147
1171.069, 1.538483
1171.552, 7.819992
1172.034, 8.215744
1172.516, 11.30673
1172.998, 8.566727
1173.480, 7.207916
1173.962, 12.09807
1174.444, 13.75896
1174.926, 10.34459
1175.409, 13.60431
1175.891, 4.940369
1176.373, 6.740005
1176.855, 13.05417
1177.337, 9.934082
1177.819, 13.30112
1178.301, 13.32712
1178.783, 2.986038
1179.266, 12.13747
1179.748, 12.88005
1180.230, 4.951950
1180.712, 13.46986
1181.194, 6.736984
1181.676, 5.447388
1182.158, 8.253860
1182.640, 6.789780
1183.122, 12.05872
1183.604, 10.84058
1184.087, 9.043106
1184.569, 9.773819
1185.051, 3.328735
1185.533, 10.17607
1186.015, 7.940704
1186.497, 10.21935
1186.979, 10.44633
1187.461, 18.91022
1187.944, 27.50958
1188.426, 24.83281
1188.908, 13.36481
1189.390, 9.068466
1189.872, 15.48286
1190.354, 15.28152
1190.836, 5.319290
1191.318, 4.032166
1191.801, 16.94246
1192.283, 28.57437
1192.765, 30.14716
1193.247, 25.91167
1193.729, 19.88385
1194.211, 14.00000
1194.693, 13.64493
1195.175, 16.42947
1195.657, 15.64499
1196.140, 11.97668
1196.622, 8.053375
1197.104, 4.973358
1197.586, 5.185150
1198.068, 10.23819
1198.550, 13.59160
1199.032, 9.206528
1199.514, 4.606827
1199.996, 3.229355
1200.479, 4.178085
1200.961, 9.035370
1201.443, 14.20642
1201.925, 13.78162
1202.407, 8.463989
1202.889, 5.670471
1203.371, 5.541046
1203.853, 8.828629
1204.336, 18.60461
1204.818, 20.97211
1205.300, 11.49072
1205.782, 1.355957
1206.264, 3.906006
1206.746, 3.437744
1207.228, 5.125259
1207.710, 17.05621
1208.193, 18.99492
1208.675, 15.05673
1209.157, 17.74968
1209.639, 25.32558
1210.121, 30.60941
1210.603, 31.83653
1211.085, 28.38315
1211.567, 19.23021
1212.049, 12.99826
1212.531, 18.80969
1213.014, 24.87685
1213.496, 20.96812
1213.978, 15.16656
1214.460, 12.55232
1214.942, 9.820679
1215.424, 5.710052
1215.906, 1.569138
1216.388, 2.922119
1216.871, 11.68626
1217.353, 13.39258
1217.835, 5.002747
1218.317, 0.1855160
1218.799, 3.001709
1219.281, 5.396042
1219.763, 3.398941
1220.245, 0.0000000E+00
##END=



