##NAMES=Cuproiridsite
##RRUFFID=R070035
##IDEAL CHEMISTRY=Cu^2+^Ir^3+^_2_S^2-^_4_
##LOCALITY=Miass River, Urals, Russia
##OWNER=RRUFF
##SOURCE=Michael Scott
##DESCRIPTION=Iron-black metallic polished fragment embedded in epoxy
##STATUS=The identification of this mineral has been confirmed only by chemical analysis
##URL=rruff.info/R070035
##MEASURED CHEMISTRY=gray inclusion in the dark phase: (Cu_0.67_Ni_0.17_Fe_0.16_)_Σ=1_(Ir_1.94_Pt_0.04_Ru_0.02_)_Σ=2_S_4.00_ trace amounts of Os.
138.1838, 0.0000000E+00
138.6659, 5.303955
139.1480, 4.095215
139.6301, 17.18896
140.1123, 74.17236
140.5944, 144.6252
141.0765, 222.3298
141.5586, 305.9470
142.0407, 394.8606
142.5228, 489.5144
143.0050, 588.4766
143.4871, 687.5486
143.9692, 789.2310
144.4513, 887.0984
144.9334, 990.7744
145.4155, 1088.075
145.8977, 1160.721
146.3798, 1195.347
146.8619, 1196.697
147.3440, 1200.795
147.8261, 1228.673
148.3082, 1235.326
148.7904, 1207.559
149.2725, 1152.664
149.7546, 1081.934
150.2367, 1001.175
150.7188, 911.7495
151.2010, 832.9436
151.6831, 765.8408
152.1652, 708.3337
152.6473, 660.9878
153.1294, 624.6794
153.6115, 597.9668
154.0937, 580.2202
154.5758, 571.1321
155.0579, 564.9980
155.5400, 567.7251
156.0221, 568.5796
156.5042, 565.0474
156.9864, 556.5425
157.4685, 544.0406
157.9506, 526.6997
158.4327, 503.8396
158.9148, 484.8109
159.3969, 471.8447
159.8791, 459.4884
160.3612, 446.6428
160.8433, 434.7886
161.3254, 426.0763
161.8075, 426.4441
162.2896, 435.8807
162.7718, 436.1461
163.2539, 411.1810
163.7360, 388.6165
164.2181, 381.1202
164.7002, 383.5216
165.1823, 386.2863
165.6645, 384.0636
166.1466, 378.3558
166.6287, 356.9240
167.1108, 293.9491
167.5929, 234.6095
168.0750, 202.1398
168.5572, 192.7371
169.0393, 192.3612
169.5214, 192.2858
170.0035, 191.7812
170.4856, 189.1737
170.9677, 187.5889
171.4499, 182.3892
171.9320, 169.1476
172.4141, 149.2859
172.8962, 129.4994
173.3783, 112.2421
173.8604, 98.47815
174.3426, 88.63049
174.8247, 86.43518
175.3068, 83.54041
175.7889, 74.05115
176.2710, 58.92749
176.7531, 44.20166
177.2353, 33.34265
177.7174, 26.63220
178.1995, 22.37024
178.6816, 22.67603
179.1637, 23.29175
179.6458, 20.32910
180.1280, 14.66528
180.6101, 12.05737
181.0922, 16.86792
181.5743, 26.48413
182.0564, 32.57251
182.5385, 35.28430
183.0207, 34.82568
183.5028, 30.55859
183.9849, 22.62134
184.4670, 12.37720
184.9491, 1.323486
185.4312, 15.72681
185.9134, 26.11047
186.3955, 33.31372
186.8776, 35.83167
187.3597, 28.45776
187.8418, 12.72900
188.3239, 2.944824
188.8061, 7.854919
189.2882, 21.62573
189.7703, 32.57318
190.2524, 40.89862
190.7345, 46.18121
191.2166, 47.67102
191.6988, 45.56976
192.1809, 40.85394
192.6630, 31.37781
193.1451, 21.40381
193.6272, 17.57947
194.1093, 22.06000
194.5915, 27.57080
195.0736, 27.75043
195.5557, 23.41217
196.0378, 15.25134
196.5199, 12.51807
197.0020, 11.65918
197.4842, 8.128662
197.9663, 1.408142
198.4484, 5.134827
198.9305, 9.040100
199.4126, 10.59460
199.8947, 11.75867
200.3769, 11.79608
200.8590, 13.10846
201.3411, 18.43182
201.8232, 28.18530
202.3053, 37.94739
202.7874, 44.92487
203.2696, 49.47272
203.7517, 53.47693
204.2338, 57.34088
204.7159, 60.68317
205.1980, 63.42896
205.6801, 65.56384
206.1623, 66.45367
206.6444, 63.06793
207.1265, 57.42206
207.6086, 59.00708
208.0907, 74.11987
208.5728, 89.68488
209.0550, 92.33978
209.5371, 84.04132
210.0192, 77.48468
210.5013, 80.57697
210.9834, 90.74664
211.4656, 100.5687
211.9477, 110.7464
212.4298, 117.6638
212.9119, 115.2110
213.3940, 106.4297
213.8761, 102.3759
214.3583, 111.7974
214.8404, 129.2447
215.3225, 141.6649
215.8046, 147.6231
216.2867, 150.1979
216.7688, 150.1542
217.2510, 148.4872
217.7331, 147.2862
218.2152, 146.7907
218.6973, 147.4779
219.1794, 150.7465
219.6615, 157.3699
220.1437, 163.9857
220.6258, 169.5916
221.1079, 173.7109
221.5900, 174.9046
222.0721, 170.5021
222.5542, 164.4537
223.0364, 162.3292
223.5185, 164.4952
224.0006, 168.8455
224.4827, 178.1344
224.9648, 187.8599
225.4469, 191.2491
225.9291, 184.9306
226.4112, 174.6961
226.8933, 165.3898
227.3754, 156.7647
227.8575, 152.2452
228.3396, 155.7101
228.8218, 163.1192
229.3039, 169.1000
229.7860, 172.3629
230.2681, 175.7873
230.7502, 184.6689
231.2323, 198.3804
231.7145, 204.0559
232.1966, 192.0448
232.6787, 174.1853
233.1608, 165.1245
233.6429, 166.2993
234.1250, 170.4818
234.6072, 174.4343
235.0893, 177.8013
235.5714, 178.2502
236.0535, 173.8457
236.5356, 168.1758
237.0177, 165.0687
237.4999, 164.4125
237.9820, 164.5659
238.4641, 165.5680
238.9462, 167.0695
239.4283, 167.1237
239.9104, 164.2759
240.3926, 161.9770
240.8747, 164.1091
241.3568, 169.9492
241.8389, 176.1700
242.3210, 182.9660
242.8031, 188.5256
243.2853, 189.6378
243.7674, 185.6520
244.2495, 180.3662
244.7316, 177.1936
245.2137, 176.1483
245.6958, 175.8125
246.1780, 175.2266
246.6601, 173.9528
247.1422, 172.3047
247.6243, 170.5424
248.1064, 167.0758
248.5885, 158.7306
249.0707, 148.4302
249.5528, 144.8374
250.0349, 155.7437
250.5170, 167.9604
250.9991, 170.3188
251.4812, 163.6444
251.9634, 156.1310
252.4455, 151.9677
252.9276, 150.3337
253.4097, 148.1743
253.8918, 145.9450
254.3739, 142.7283
254.8561, 137.1299
255.3382, 130.2560
255.8203, 124.9711
256.3024, 122.3997
256.7845, 121.3190
257.2667, 119.7650
257.7488, 117.3860
258.2309, 115.6159
258.7130, 114.5374
259.1951, 114.5251
259.6772, 117.3705
260.1594, 124.0499
260.6415, 129.8678
261.1236, 126.9072
261.6057, 112.5667
262.0878, 103.3513
262.5699, 104.4717
263.0521, 109.5899
263.5342, 113.5525
264.0163, 115.4893
264.4984, 115.0791
264.9805, 111.3483
265.4626, 103.7380
265.9448, 99.28839
266.4269, 98.49402
266.9090, 100.1635
267.3911, 105.0235
267.8732, 112.1263
268.3553, 118.4568
268.8375, 122.0858
269.3196, 123.0271
269.8017, 121.0604
270.2838, 113.6170
270.7659, 106.6109
271.2480, 101.1280
271.7302, 97.48938
272.2123, 96.79904
272.6944, 99.89001
273.1765, 105.0870
273.6586, 107.2113
274.1407, 103.1316
274.6229, 99.66629
275.1050, 98.20209
275.5871, 97.17676
276.0692, 94.62717
276.5513, 89.98834
277.0334, 84.63675
277.5156, 80.99249
277.9977, 81.31384
278.4798, 78.67026
278.9619, 67.03589
279.4440, 57.20178
279.9261, 58.31879
280.4083, 70.05191
280.8904, 84.08612
281.3725, 92.10568
281.8546, 93.79050
282.3367, 91.13547
282.8188, 78.53647
283.3010, 67.24667
283.7831, 62.11035
284.2652, 61.60464
284.7473, 61.51199
285.2294, 58.73413
285.7115, 53.83029
286.1937, 51.09833
286.6758, 52.58682
287.1579, 53.77426
287.6400, 52.90836
288.1221, 51.46631
288.6042, 51.49326
289.0864, 53.98267
289.5685, 57.77640
290.0506, 60.82275
290.5327, 63.93115
291.0148, 64.07449
291.4969, 57.71445
291.9791, 50.41583
292.4612, 46.67297
292.9433, 47.27087
293.4254, 48.88773
293.9075, 47.21249
294.3896, 41.78937
294.8718, 38.65921
295.3539, 39.18259
295.8360, 41.71307
296.3181, 46.09436
296.8002, 51.83829
297.2823, 57.12097
297.7645, 61.07230
298.2466, 63.63647
298.7287, 64.58075
299.2108, 63.61288
299.6929, 61.90125
300.1750, 59.48315
300.6572, 56.66464
301.1393, 54.08649
301.6214, 51.86823
302.1035, 50.23972
302.5856, 49.31451
303.0677, 49.17844
303.5499, 50.10605
304.0320, 52.63443
304.5141, 55.47000
304.9962, 56.50745
305.4783, 54.74905
305.9604, 53.85947
306.4426, 57.48569
306.9247, 64.09732
307.4068, 68.18140
307.8889, 67.76324
308.3710, 65.63855
308.8531, 65.72253
309.3353, 68.18158
309.8174, 67.13290
310.2995, 57.23688
310.7816, 44.93945
311.2637, 39.11926
311.7458, 41.03152
312.2280, 43.76364
312.7101, 40.31934
313.1922, 30.57022
313.6743, 26.53952
314.1564, 36.17862
314.6385, 44.35410
315.1207, 40.00845
315.6028, 27.26053
316.0849, 16.59528
316.5670, 13.08185
317.0491, 15.83722
317.5313, 16.51862
318.0134, 13.04745
318.4955, 10.26111
318.9776, 7.777588
319.4597, 6.670776
319.9418, 9.308899
320.4240, 16.25845
320.9061, 24.18463
321.3882, 27.51910
321.8703, 23.53906
322.3524, 21.11514
322.8345, 21.56174
323.3167, 22.18698
323.7988, 20.65594
324.2809, 17.52222
324.7630, 15.72202
325.2451, 18.50290
325.7272, 25.78717
326.2094, 28.14984
326.6915, 18.12573
327.1736, 11.41730
327.6557, 15.17410
328.1378, 23.75513
328.6199, 28.36380
329.1021, 24.32205
329.5842, 16.00946
330.0663, 13.57205
330.5484, 19.66919
331.0305, 24.14642
331.5126, 23.34552
331.9948, 20.91537
332.4769, 19.03537
332.9590, 18.13797
333.4411, 18.22443
333.9232, 20.02121
334.4053, 23.28491
334.8875, 24.98520
335.3696, 24.64621
335.8517, 22.82968
336.3338, 19.24149
336.8159, 14.44611
337.2980, 10.43774
337.7802, 7.968170
338.2623, 6.964478
338.7444, 8.000183
339.2265, 11.32495
339.7086, 12.90472
340.1907, 7.790344
340.6729, 0.4017330
341.1550, 1.443726
341.6371, 16.42719
342.1192, 31.18304
342.6013, 38.49969
343.0834, 39.24420
343.5656, 34.32007
344.0477, 23.04233
344.5298, 10.85449
345.0119, 7.306305
345.4940, 14.81271
345.9761, 19.90875
346.4583, 20.54623
346.9404, 18.84534
347.4225, 15.55283
347.9046, 11.16040
348.3867, 7.699463
348.8688, 7.227142
349.3510, 9.712860
349.8331, 10.14240
350.3152, 6.554932
350.7973, 3.458740
351.2794, 2.352905
351.7615, 2.507996
352.2437, 2.443878
352.7258, 1.489288
353.2079, 0.7554020
353.6900, 3.203461
354.1721, 13.03482
354.6542, 17.84006
355.1364, 15.16107
355.6185, 9.627472
356.1006, 2.886414
356.5827, 4.038635
357.0648, 9.303528
357.5469, 11.17017
358.0291, 9.657227
358.5112, 5.570892
358.9933, 5.981598
359.4754, 13.12994
359.9575, 8.135376
360.4396, 3.199005
360.9218, 11.55881
361.4039, 13.10126
361.8860, 10.08383
362.3681, 4.780731
362.8502, 3.219116
363.3323, 9.506714
363.8145, 13.52155
364.2966, 14.21103
364.7787, 9.135071
365.2608, 2.546417
365.7430, 11.49896
366.2251, 11.40033
366.7072, 5.300934
367.1893, 1.342346
367.6714, 8.072327
368.1535, 13.15665
368.6357, 14.77225
369.1178, 12.97855
369.5999, 10.11057
370.0820, 2.978271
370.5641, 2.202057
371.0462, 2.330444
371.5284, 12.43851
372.0105, 14.45798
372.4926, 0.4013670
372.9747, 20.88986
373.4568, 26.81818
373.9389, 1.157928
374.4211, 15.87878
374.9032, 17.46042
375.3853, 13.33997
375.8674, 10.81595
376.3495, 11.38748
376.8316, 13.53525
377.3138, 16.09476
377.7959, 19.25790
378.2780, 20.27121
378.7601, 16.48825
379.2422, 13.19882
379.7243, 12.09778
380.2065, 12.33136
380.6886, 12.08020
381.1707, 10.22037
381.6528, 8.508453
382.1349, 11.90024
382.6170, 23.02914
383.0992, 28.89908
383.5813, 20.36990
384.0634, 10.44931
384.5455, 8.533783
385.0276, 14.56668
385.5097, 20.78589
385.9919, 21.94592
386.4740, 19.39664
386.9561, 16.28766
387.4382, 12.25006
387.9203, 9.797943
388.4024, 12.73526
388.8846, 18.24017
389.3667, 19.21506
389.8488, 10.62292
390.3309, 2.664093
390.8130, 3.783264
391.2951, 10.78491
391.7773, 14.43311
392.2594, 11.12885
392.7415, 5.297424
393.2236, 4.125824
393.7057, 10.13986
394.1878, 12.90262
394.6700, 9.376221
395.1521, 4.574554
395.6342, 1.765198
396.1163, 0.8909910
396.5984, 0.9602360
397.0805, 1.384064
397.5627, 1.907104
398.0448, 0.7524110
398.5269, 4.897339
399.0090, 8.654114
399.4911, 9.707397
399.9732, 8.634003
400.4554, 4.814484
400.9375, 1.503265
401.4196, 6.994019
401.9017, 6.322174
402.3838, 1.375305
402.8659, 5.025116
403.3481, 1.134949
403.8302, 3.302063
404.3123, 4.024750
404.7944, 2.732208
405.2765, 3.420410
405.7586, 8.511261
406.2408, 15.47705
406.7229, 21.09766
407.2050, 25.37265
407.6871, 26.93845
408.1692, 24.26358
408.6513, 19.44644
409.1335, 15.36179
409.6156, 11.86032
410.0977, 9.994019
410.5798, 11.02862
411.0619, 13.48367
411.5440, 15.75409
412.0262, 17.58679
412.5083, 18.94846
412.9904, 19.48636
413.4725, 19.19455
413.9546, 20.58746
414.4367, 26.32083
414.9189, 30.20218
415.4010, 30.02701
415.8831, 27.60648
416.3652, 24.96500
416.8473, 22.72949
417.3294, 20.78784
417.8116, 19.25430
418.2937, 17.71478
418.7758, 17.51422
419.2579, 19.45334
419.7400, 22.04980
420.2221, 25.60052
420.7043, 29.55899
421.1864, 32.99106
421.6685, 35.76273
422.1506, 37.26706
422.6327, 35.96786
423.1148, 31.50061
423.5970, 26.10352
424.0791, 18.86301
424.5612, 13.01041
425.0433, 12.12738
425.5254, 16.32248
426.0075, 20.29953
426.4897, 22.26270
426.9718, 22.12213
427.4539, 18.37918
427.9360, 10.89465
428.4181, 5.071381
428.9002, 5.164337
429.3824, 10.25754
429.8645, 14.71536
430.3466, 19.22269
430.8287, 21.48291
431.3108, 21.13824
431.7929, 20.55518
432.2751, 19.78192
432.7572, 19.08798
433.2393, 18.18546
433.7214, 16.56750
434.2035, 13.89734
434.6856, 12.46042
435.1678, 14.50369
435.6499, 15.41278
436.1320, 12.77597
436.6141, 8.214813
437.0962, 4.227661
437.5783, 1.812683
438.0605, 1.112244
438.5426, 3.053223
439.0247, 8.105530
439.5068, 11.98810
439.9889, 13.81793
440.4710, 14.18860
440.9532, 12.68442
441.4353, 9.818390
441.9174, 8.714233
442.3995, 11.84106
442.8816, 16.80585
443.3637, 21.12924
443.8459, 24.73856
444.3280, 26.83749
444.8101, 26.67352
445.2922, 24.95288
445.7743, 23.53534
446.2564, 22.42105
446.7386, 21.60803
447.2207, 21.51276
447.7028, 21.42526
448.1849, 20.78992
448.6670, 19.62170
449.1491, 18.35168
449.6313, 17.25470
450.1134, 16.41629
450.5955, 16.58701
451.0776, 20.57544
451.5597, 21.70938
452.0418, 15.28986
452.5240, 7.637329
453.0061, 5.591980
453.4882, 10.50916
453.9703, 17.39572
454.4524, 21.44653
454.9345, 22.92731
455.4167, 24.44861
455.8988, 26.81897
456.3809, 27.43521
456.8630, 23.43210
457.3451, 17.00531
457.8272, 11.74338
458.3094, 7.606445
458.7915, 6.371765
459.2736, 12.01291
459.7557, 20.78708
460.2378, 22.97147
460.7199, 15.65469
461.2021, 5.437988
461.6842, 0.8434140
462.1663, 3.076233
462.6484, 2.176086
463.1305, 5.763214
463.6126, 12.73209
464.0948, 14.47192
464.5769, 12.76477
465.0590, 10.94052
465.5411, 10.51410
466.0232, 10.77112
466.5053, 10.00018
466.9875, 6.992767
467.4696, 7.381927
467.9517, 18.00699
468.4338, 26.08508
468.9159, 23.21136
469.3980, 12.71164
469.8802, 3.867340
470.3623, 0.9389950
470.8444, 2.050232
471.3265, 6.314484
471.8086, 13.51352
472.2907, 17.12521
472.7729, 13.58029
473.2550, 7.040863
473.7371, 4.372437
474.2192, 5.982910
474.7013, 5.569794
475.1834, 1.804321
475.6656, 8.626556
476.1477, 8.039032
476.6298, 1.267609
477.1119, 6.436249
477.5940, 12.24908
478.0761, 16.46286
478.5583, 20.16714
479.0404, 25.88550
479.5225, 26.27066
480.0046, 15.30075
480.4867, 4.453308
480.9688, 1.744141
481.4510, 6.173798
481.9331, 11.14169
482.4152, 11.99435
482.8973, 10.50494
483.3794, 11.86325
483.8615, 16.87991
484.3437, 19.99863
484.8258, 17.56290
485.3079, 13.64484
485.7900, 14.20172
486.2721, 19.80472
486.7542, 22.90579
487.2364, 18.10956
487.7185, 10.98306
488.2006, 7.279633
488.6827, 7.353333
489.1649, 10.43997
489.6470, 16.77747
490.1291, 24.44376
490.6112, 27.58640
491.0933, 21.76871
491.5754, 17.25287
492.0576, 14.36554
492.5397, 12.68777
493.0218, 12.57339
493.5039, 13.52670
493.9860, 13.90433
494.4681, 11.90640
494.9503, 8.734680
495.4324, 9.590698
495.9145, 16.22952
496.3966, 21.39606
496.8787, 21.81863
497.3608, 20.37494
497.8430, 19.87787
498.3251, 20.49377
498.8072, 20.89389
499.2893, 21.21625
499.7714, 20.59158
500.2535, 16.83655
500.7357, 10.32797
501.2178, 5.059509
501.6999, 3.176697
502.1820, 4.138885
502.6641, 6.496002
503.1462, 13.64185
503.6284, 16.84158
504.1105, 10.31674
504.5926, 4.223175
505.0747, 8.813538
505.5568, 21.32693
506.0389, 29.72256
506.5211, 24.61230
507.0032, 11.21405
507.4853, 6.325897
507.9674, 12.22141
508.4495, 18.82428
508.9316, 25.91068
509.4138, 31.14529
509.8959, 31.05692
510.3780, 25.63229
510.8601, 21.00876
511.3422, 20.67416
511.8243, 22.02737
512.3065, 22.26669
512.7886, 21.43790
513.2707, 20.59103
513.7528, 20.36545
514.2349, 19.98853
514.7170, 17.87119
515.1992, 12.87137
515.6813, 8.498871
516.1634, 2.876831
516.6455, 0.4449460
517.1276, 1.385223
517.6097, 7.240295
518.0919, 15.18271
518.5740, 24.73819
519.0561, 32.85083
519.5382, 31.15475
520.0203, 17.36490
520.5024, 9.737122
520.9846, 16.61865
521.4667, 24.78745
521.9488, 22.50208
522.4309, 12.60126
522.9130, 6.222015
523.3951, 8.787292
523.8773, 14.45459
524.3594, 20.90744
524.8415, 26.60535
525.3236, 26.12546
525.8057, 17.25677
526.2878, 6.083923
526.7700, 0.7213440
527.2521, 2.208984
527.7342, 3.953369
528.2163, 7.744019
528.6984, 9.883972
529.1805, 6.350616
529.6627, 1.339691
530.1448, 1.950653
530.6269, 10.56577
531.1090, 20.05777
531.5911, 19.45972
532.0732, 9.891602
532.5554, 6.587402
533.0375, 12.86414
533.5196, 19.12296
534.0017, 18.77451
534.4838, 15.13385
534.9659, 14.64502
535.4481, 20.55374
535.9302, 23.88437
536.4123, 16.11966
536.8944, 5.569214
537.3765, 4.361053
537.8586, 13.74313
538.3408, 23.37076
538.8229, 24.45828
539.3050, 18.32809
539.7871, 13.94333
540.2692, 10.75555
540.7513, 10.30627
541.2335, 16.17139
541.7156, 22.17432
542.1977, 22.75015
542.6798, 17.98511
543.1619, 12.58395
543.6440, 8.877411
544.1262, 7.158020
544.6083, 9.718994
545.0904, 16.71014
545.5725, 19.40350
546.0546, 12.19562
546.5367, 1.735199
547.0189, 0.4244690
547.5010, 7.263641
547.9831, 13.74100
548.4652, 19.14471
548.9473, 21.87546
549.4294, 19.34912
549.9116, 13.51959
550.3937, 8.102600
550.8758, 4.836914
551.3579, 3.564941
551.8400, 4.320374
552.3221, 7.423309
552.8043, 10.96167
553.2864, 17.39148
553.7685, 20.88306
554.2506, 16.43909
554.7327, 7.801056
555.2148, 1.748657
555.6970, 0.3001710
556.1791, 1.233063
556.6612, 3.734680
557.1433, 7.268555
557.6254, 11.43903
558.1075, 16.07504
558.5897, 18.60025
559.0718, 16.11719
559.5539, 9.481567
560.0360, 6.578461
560.5181, 9.680450
561.0002, 13.89249
561.4824, 21.55618
561.9645, 28.17795
562.4466, 28.76120
562.9287, 24.06943
563.4108, 19.51044
563.8929, 19.58383
564.3751, 22.14383
564.8572, 22.37781
565.3393, 20.23474
565.8214, 15.50577
566.3035, 5.783417
566.7856, 3.670044
567.2678, 4.669647
567.7499, 2.853333
568.2320, 9.337952
568.7141, 15.08429
569.1962, 18.04721
569.6783, 14.89444
570.1605, 8.567627
570.6426, 3.811707
571.1247, 2.466492
571.6068, 4.650513
572.0889, 12.56470
572.5710, 27.41693
573.0532, 32.07227
573.5353, 19.88339
574.0174, 7.913177
574.4995, 2.548676
574.9816, 1.878357
575.4637, 4.489410
575.9459, 10.85944
576.4280, 15.34503
576.9101, 13.62393
577.3922, 8.642487
577.8743, 3.605652
578.3564, 0.8851930
578.8386, 2.942963
579.3207, 1.129639
579.8028, 2.979736
580.2849, 4.922119
580.7670, 2.281097
581.2491, 1.924377
581.7313, 5.608276
582.2134, 9.593903
582.6955, 12.80576
583.1776, 14.67013
583.6597, 13.86301
584.1418, 8.961456
584.6240, 3.933563
585.1061, 4.712799
585.5882, 10.32690
586.0703, 17.15921
586.5524, 25.45609
587.0345, 29.47754
587.5167, 22.24072
587.9988, 5.797424
588.4809, 2.544128
588.9630, 3.177032
589.4451, 7.892853
589.9272, 7.171021
590.4094, 5.507935
590.8915, 7.708496
591.3736, 13.43369
591.8557, 18.90515
592.3378, 21.92285
592.8199, 21.99445
593.3021, 15.52664
593.7842, 0.8836670
594.2663, 5.594666
594.7484, 4.633972
595.2305, 18.12924
595.7126, 20.67038
596.1948, 13.90961
596.6769, 7.890106
597.1590, 3.592041
597.6411, 0.8469240
598.1232, 0.2871700
598.6053, 1.0773000E-02
599.0875, 1.917297
599.5696, 5.269257
600.0517, 8.910919
600.5338, 11.90329
601.0159, 14.14957
601.4980, 14.42197
601.9802, 11.47836
602.4623, 9.439514
602.9444, 10.84177
603.4265, 13.21735
603.9086, 13.18201
604.3907, 10.24878
604.8729, 7.835388
605.3550, 7.364960
605.8371, 7.775482
606.3192, 7.819366
606.8013, 8.042999
607.2834, 10.72491
607.7656, 16.61688
608.2477, 22.21915
608.7298, 22.47534
609.2119, 16.74991
609.6940, 14.10745
610.1761, 19.03381
610.6583, 20.72684
611.1404, 12.15503
611.6225, 1.697144
612.1046, 1.029999
612.5867, 5.188812
613.0688, 11.15427
613.5510, 9.633301
614.0331, 5.590332
614.5152, 6.643524
614.9973, 11.75143
615.4794, 13.73926
615.9615, 9.285004
616.4437, 2.515228
616.9258, 8.0475003E-02
617.4079, 2.422424
617.8900, 4.920685
618.3721, 8.777435
618.8542, 11.15338
619.3364, 10.16208
619.8185, 7.556091
620.3006, 5.017914
620.7827, 2.983673
621.2648, 2.084473
621.7469, 3.213531
622.2291, 5.656525
622.7112, 8.459198
623.1933, 11.48151
623.6754, 13.12021
624.1575, 12.08658
624.6396, 10.71213
625.1218, 13.86710
625.6039, 25.08105
626.0860, 30.98743
626.5681, 28.69531
627.0502, 24.86127
627.5323, 20.90692
628.0145, 17.39420
628.4966, 14.78186
628.9787, 13.20358
629.4608, 12.55795
629.9429, 12.53314
630.4250, 13.38763
630.9072, 16.75912
631.3893, 22.72635
631.8714, 26.33752
632.3535, 24.81976
632.8356, 20.55765
633.3177, 18.10266
633.7999, 18.92029
634.2820, 16.96747
634.7641, 6.355774
635.2462, 0.5267940
635.7283, 6.173370
636.2104, 18.15152
636.6926, 22.16479
637.1747, 14.82336
637.6568, 5.700104
638.1389, 3.675140
638.6210, 7.068909
639.1031, 12.74515
639.5853, 20.79895
640.0674, 23.34387
640.5495, 14.88452
641.0316, 2.237030
641.5137, 2.311127
641.9958, 4.648682
642.4780, 8.845123
642.9601, 9.476898
643.4422, 8.348541
643.9243, 4.080536
644.4064, 0.5792540
644.8885, 1.481171
645.3707, 2.325958
645.8528, 7.063416
646.3349, 9.320984
646.8170, 9.927612
647.2991, 10.06152
647.7813, 9.751556
648.2634, 9.407745
648.7455, 9.083740
649.2276, 9.056641
649.7097, 9.804291
650.1918, 11.52066
650.6740, 13.24133
651.1561, 16.15750
651.6382, 17.70392
652.1203, 16.26660
652.6024, 13.45575
653.0845, 9.235077
653.5667, 4.061218
654.0488, 0.6854550
654.5309, 1.682617
655.0130, 5.999725
655.4951, 12.64798
655.9772, 21.34137
656.4594, 27.14761
656.9415, 28.03879
657.4236, 26.07019
657.9057, 23.72821
658.3878, 20.98416
658.8699, 18.06546
659.3521, 16.44897
659.8342, 12.84796
660.3163, 1.799316
660.7984, 8.792267
661.2805, 8.563812
661.7626, 2.341034
662.2448, 11.83936
662.7269, 9.464783
663.2090, 2.466858
663.6911, 3.360535
664.1732, 10.61258
664.6553, 15.33148
665.1375, 15.11462
665.6196, 12.66150
666.1017, 11.41376
666.5838, 11.38046
667.0659, 13.75336
667.5480, 24.14709
668.0302, 29.05191
668.5123, 24.04123
668.9944, 15.74832
669.4765, 7.450439
669.9586, 0.4349670
670.4407, 2.383240
670.9229, 2.127991
671.4050, 8.945282
671.8871, 13.95099
672.3692, 16.87946
672.8513, 15.95465
673.3335, 10.98062
673.8156, 6.390045
674.2977, 6.207855
674.7798, 9.204041
675.2620, 8.844788
675.7441, 1.802521
676.2262, 1.973816
676.7083, 0.9853520
677.1904, 5.139435
677.6725, 7.970154
678.1547, 9.616547
678.6368, 10.73749
679.1189, 11.38641
679.6010, 11.87817
680.0831, 13.59848
680.5652, 14.72968
681.0474, 10.65637
681.5295, 2.396362
682.0116, 2.320892
682.4937, 1.448059
682.9758, 9.914124
683.4579, 14.48532
683.9401, 14.14355
684.4222, 14.99603
684.9043, 19.44284
685.3864, 21.82059
685.8685, 15.82147
686.3506, 7.093903
686.8328, 5.210724
687.3149, 13.30469
687.7970, 18.43799
688.2791, 12.79010
688.7612, 5.395050
689.2433, 3.808929
689.7255, 6.660400
690.2076, 9.848816
690.6897, 11.77243
691.1718, 13.13989
691.6539, 15.40067
692.1360, 18.22559
692.6182, 17.42563
693.1003, 12.09995
693.5824, 7.157654
694.0645, 4.154510
694.5466, 2.762390
695.0287, 2.500854
695.5109, 3.288818
695.9930, 5.966522
696.4751, 14.80576
696.9572, 20.61508
697.4393, 15.58057
697.9214, 8.050903
698.4036, 10.05987
698.8857, 21.58200
699.3678, 29.65710
699.8499, 22.68106
700.3320, 9.442413
700.8141, 7.103729
701.2963, 14.19650
701.7784, 19.09314
702.2605, 18.97833
702.7426, 17.00854
703.2247, 15.97113
703.7068, 15.58377
704.1890, 14.06900
704.6711, 9.237396
705.1532, 7.007935
705.6353, 8.685883
706.1174, 11.20270
706.5995, 12.57556
707.0817, 13.11655
707.5638, 14.32690
708.0459, 17.51935
708.5280, 18.87787
709.0101, 12.22601
709.4922, 3.355713
709.9744, 2.586914
710.4565, 9.540100
710.9386, 17.27411
711.4207, 22.30356
711.9028, 24.35861
712.3849, 21.97412
712.8671, 13.85760
713.3492, 9.790924
713.8313, 10.86694
714.3134, 14.12680
714.7955, 21.05621
715.2776, 27.92145
715.7598, 29.58813
716.2419, 25.46906
716.7240, 21.18137
717.2061, 16.69888
717.6882, 13.85669
718.1703, 15.04651
718.6525, 17.62817
719.1346, 18.37704
719.6167, 17.23325
720.0988, 16.20258
720.5809, 18.50534
721.0630, 21.43219
721.5452, 15.21231
722.0273, 0.2162170
722.5094, 5.263275
722.9915, 4.916840
723.4736, 15.81229
723.9557, 12.58032
724.4379, 1.629822
724.9200, 5.716675
725.4021, 13.19009
725.8842, 24.33685
726.3663, 21.23761
726.8484, 14.95145
727.3306, 9.323334
727.8127, 6.394714
728.2948, 10.46704
728.7769, 25.38235
729.2590, 37.77325
729.7411, 35.17511
730.2233, 24.92813
730.7054, 16.22009
731.1875, 10.43225
731.6696, 9.668213
732.1517, 15.05304
732.6339, 22.90604
733.1160, 28.36176
733.5981, 31.52042
734.0802, 29.65134
734.5623, 20.73325
735.0444, 12.57843
735.5266, 7.469177
736.0087, 5.095825
736.4908, 5.542725
736.9729, 8.719055
737.4550, 11.45496
737.9371, 15.03091
738.4193, 16.02075
738.9014, 8.614807
739.3835, 0.7365420
739.8656, 3.260925
740.3477, 14.85715
740.8298, 23.49136
741.3120, 21.21976
741.7941, 13.92325
742.2762, 9.106018
742.7583, 6.643433
743.2404, 6.136292
743.7225, 7.537537
744.2047, 10.67539
744.6868, 15.84729
745.1689, 21.88797
745.6510, 26.67767
746.1331, 30.53375
746.6152, 29.30145
747.0974, 17.90829
747.5795, 8.235352
748.0616, 3.182861
748.5437, 2.806030
749.0258, 8.980103
749.5079, 22.16290
749.9901, 32.36923
750.4722, 36.35495
750.9543, 35.76215
751.4364, 28.20532
751.9185, 18.31348
752.4006, 14.57846
752.8828, 17.84451
753.3649, 20.66473
753.8470, 16.32147
754.3291, 8.421265
754.8112, 5.930847
755.2933, 8.643280
755.7755, 11.23840
756.2576, 12.74973
756.7397, 14.33032
757.2218, 17.24271
757.7039, 20.61017
758.1860, 21.28784
758.6682, 17.11520
759.1503, 14.25668
759.6324, 13.59753
760.1145, 13.20007
760.5966, 13.18552
761.0787, 12.50690
761.5609, 8.478363
762.0430, 0.3558960
762.5251, 4.265930
763.0072, 1.203491
763.4893, 9.422699
763.9714, 14.05145
764.4536, 16.01920
764.9357, 18.18689
765.4178, 21.02808
765.8999, 21.95215
766.3820, 18.04279
766.8641, 11.19833
767.3463, 6.442017
767.8284, 3.758209
768.3105, 5.623169
768.7926, 13.69543
769.2747, 21.49539
769.7568, 23.97137
770.2390, 22.49759
770.7211, 22.00180
771.2032, 23.53775
771.6853, 24.14008
772.1674, 23.31976
772.6495, 22.14130
773.1317, 21.49451
773.6138, 20.60464
774.0959, 18.32156
774.5780, 13.98001
775.0601, 9.418823
775.5422, 3.464111
776.0244, 0.5614320
776.5065, 1.245300
776.9886, 7.009155
777.4707, 15.00748
777.9528, 23.59958
778.4349, 26.75720
778.9171, 17.99518
779.3992, 2.729706
779.8813, 5.318268
780.3634, 6.523987
780.8455, 3.824463
781.3276, 2.678680
781.8098, 9.630157
782.2919, 15.47208
782.7740, 19.17313
783.2561, 18.52899
783.7382, 9.220825
784.2203, 4.803223
784.7025, 9.145447
785.1846, 13.72696
785.6667, 14.83554
786.1488, 15.08694
786.6309, 19.45737
787.1130, 28.13141
787.5952, 31.32095
788.0773, 18.12415
788.5594, 5.471436
789.0415, 8.368958
789.5236, 17.84473
790.0057, 20.62378
790.4879, 15.35370
790.9700, 7.753784
791.4521, 0.8475040
791.9342, 3.716339
792.4163, 1.300446
792.8984, 6.516235
793.3806, 10.09097
793.8627, 8.263672
794.3448, 7.333862
794.8269, 10.83707
795.3090, 16.36734
795.7911, 19.65338
796.2733, 20.42453
796.7554, 20.68817
797.2375, 20.99933
797.7196, 19.90649
798.2017, 15.11331
798.6838, 10.15036
799.1660, 7.740143
799.6481, 7.852600
800.1302, 9.560699
800.6123, 15.97675
801.0944, 19.70349
801.5765, 16.91818
802.0587, 11.30267
802.5408, 1.867798
803.0229, 7.023590
803.5050, 3.249329
803.9871, 19.29605
804.4692, 40.10083
804.9514, 34.09268
805.4335, 14.60999
805.9156, 7.821136
806.3977, 12.55692
806.8798, 17.37759
807.3619, 18.38202
807.8441, 17.62442
808.3262, 17.24387
808.8083, 17.07391
809.2904, 15.95428
809.7725, 13.59009
810.2546, 11.81921
810.7368, 11.14972
811.2189, 10.69708
811.7010, 9.287811
812.1831, 7.733551
812.6652, 9.077301
813.1473, 17.04465
813.6295, 19.92899
814.1116, 10.60156
814.5937, 3.973907
815.0758, 10.30389
815.5579, 20.61789
816.0400, 21.77524
816.5222, 12.53781
817.0043, 5.628967
817.4864, 6.810455
817.9685, 12.59125
818.4506, 25.26178
818.9327, 38.66547
819.4149, 42.60620
819.8970, 36.93073
820.3791, 27.28033
820.8612, 17.82428
821.3433, 10.80270
821.8254, 11.38434
822.3076, 17.71460
822.7897, 23.59348
823.2718, 28.44067
823.7539, 27.83200
824.2360, 19.23151
824.7181, 8.206970
825.2003, 1.640839
825.6824, 0.4685970
826.1645, 1.693573
826.6466, 10.82648
827.1287, 16.96814
827.6108, 17.46396
828.0930, 15.31424
828.5751, 11.34763
829.0572, 6.560608
829.5393, 4.714783
830.0214, 8.397247
830.5035, 9.667877
830.9857, 2.272369
831.4678, 2.120514
831.9499, 6.818298
832.4320, 20.58157
832.9141, 27.05890
833.3962, 24.20505
833.8784, 18.16718
834.3605, 8.322418
834.8426, 0.8541560
835.3247, 3.063873
835.8068, 10.18912
836.2889, 15.42975
836.7711, 17.70316
837.2532, 18.18823
837.7353, 17.04089
838.2174, 15.30835
838.6995, 14.72928
839.1816, 14.83566
839.6638, 12.20670
840.1459, 6.868378
840.6280, 3.168427
841.1101, 2.688782
841.5922, 5.203308
842.0743, 11.21399
842.5565, 20.06696
843.0386, 24.43405
843.5207, 22.89194
844.0028, 21.64709
844.4849, 22.67151
844.9670, 22.49252
845.4492, 17.04572
845.9313, 9.011230
846.4134, 6.500702
846.8955, 12.42645
847.3776, 15.90152
847.8597, 15.06653
848.3419, 13.05359
848.8240, 9.244171
849.3061, 6.795715
849.7882, 10.89999
850.2703, 20.98431
850.7524, 27.10574
851.2346, 23.15088
851.7167, 17.59598
852.1988, 14.58383
852.6809, 13.04324
853.1630, 11.23129
853.6451, 9.873199
854.1273, 12.01990
854.6094, 18.90155
855.0915, 25.66309
855.5736, 29.23669
856.0557, 29.79620
856.5378, 26.41870
857.0200, 20.21362
857.5021, 15.56781
857.9842, 13.52835
858.4663, 11.74387
858.9484, 7.974060
859.4305, 3.872528
859.9127, 5.174652
860.3948, 12.06021
860.8769, 13.20480
861.3590, 7.034698
861.8411, 3.755035
862.3232, 9.418304
862.8054, 17.52188
863.2875, 17.57861
863.7696, 8.768799
864.2517, 4.172333
864.7338, 5.786621
865.2159, 8.106506
865.6981, 11.95767
866.1802, 14.34814
866.6623, 11.51645
867.1444, 5.701233
867.6265, 3.463867
868.1086, 6.991455
868.5908, 9.643982
869.0729, 9.045105
869.5550, 8.798279
870.0371, 12.91971
870.5192, 17.19360
871.0013, 14.44397
871.4835, 5.073059
871.9656, 0.5113530
872.4477, 5.749939
872.9298, 12.57889
873.4119, 11.19775
873.8940, 6.908722
874.3762, 6.897736
874.8583, 9.863586
875.3404, 9.524963
875.8225, 3.398560
876.3046, 3.228882
876.7867, 6.921570
877.2689, 6.506836
877.7510, 4.170502
878.2331, 21.06467
878.7152, 28.36090
879.1973, 23.37064
879.6794, 17.21188
880.1616, 18.37277
880.6437, 22.52960
881.1258, 18.52734
881.6079, 7.137421
882.0900, 4.622223
882.5721, 12.78094
883.0543, 20.06235
883.5364, 21.60257
884.0185, 21.31290
884.5006, 24.06372
884.9827, 29.37125
885.4648, 30.74939
885.9470, 26.61066
886.4291, 22.11005
886.9112, 17.04620
887.3933, 13.20975
887.8754, 12.49619
888.3575, 13.34610
888.8397, 11.81345
889.3218, 5.670532
889.8039, 5.028381
890.2860, 13.93497
890.7681, 22.60474
891.2502, 30.76843
891.7324, 35.84201
892.2145, 34.81519
892.6966, 28.75201
893.1787, 21.68484
893.6608, 13.07574
894.1429, 6.622467
894.6251, 3.579651
895.1072, 3.017120
895.5893, 5.397583
896.0714, 9.298279
896.5535, 13.10867
897.0356, 16.37634
897.5178, 18.78973
897.9999, 20.37494
898.4820, 20.79233
898.9641, 18.51965
899.4462, 15.68518
899.9283, 15.86758
900.4105, 18.16479
900.8926, 18.99179
901.3747, 16.95111
901.8568, 13.86273
902.3389, 10.92148
902.8210, 8.515503
903.3032, 8.527252
903.7853, 9.665283
904.2674, 6.336273
904.7495, 1.596497
905.2316, 5.852295
905.7137, 0.6633000
906.1959, 7.767029
906.6780, 6.960083
907.1601, 0.9564510
907.6422, 1.213165
908.1243, 6.666016
908.6064, 13.01575
909.0886, 14.74353
909.5707, 14.50851
910.0528, 15.05246
910.5349, 15.43335
911.0170, 10.29172
911.4991, 2.177277
911.9813, 5.435699
912.4634, 5.006256
912.9455, 14.94321
913.4276, 17.34531
913.9097, 17.02451
914.3918, 20.72000
914.8740, 28.66257
915.3561, 29.66293
915.8382, 18.51892
916.3203, 11.12909
916.8024, 10.72638
917.2845, 13.09442
917.7667, 18.15866
918.2488, 23.44141
918.7309, 22.90720
919.2130, 14.45105
919.6951, 10.22000
920.1772, 15.44806
920.6594, 18.26569
921.1415, 12.16055
921.6237, 5.642792
922.1058, 6.436615
922.5879, 12.48898
923.0700, 16.88434
923.5521, 18.34369
924.0342, 18.50568
924.5164, 16.66782
924.9985, 14.95612
925.4806, 14.96521
925.9627, 15.46313
926.4448, 14.10516
926.9269, 11.47769
927.4091, 11.78156
927.8912, 19.23132
928.3733, 24.11728
928.8554, 17.24054
929.3375, 8.707642
929.8196, 9.268646
930.3018, 14.67944
930.7839, 15.00653
931.2660, 8.701660
931.7481, 3.394012
932.2302, 4.213623
932.7123, 7.791199
933.1945, 10.29459
933.6766, 12.47769
934.1587, 18.80029
934.6408, 26.99432
935.1229, 28.69278
935.6050, 21.51587
936.0872, 12.64859
936.5693, 8.476624
937.0514, 7.475861
937.5335, 7.602661
938.0156, 8.714203
938.4977, 11.01678
938.9799, 14.10345
939.4620, 15.95090
939.9441, 15.46994
940.4262, 14.15808
940.9083, 14.91449
941.3904, 16.21289
941.8726, 11.25369
942.3547, 1.742065
942.8368, 1.448700
943.3189, 3.630829
943.8010, 9.272095
944.2831, 10.49454
944.7653, 9.482452
945.2474, 11.81543
945.7295, 16.89404
946.2116, 18.14590
946.6937, 15.47430
947.1758, 13.83380
947.6580, 14.69510
948.1401, 15.98413
948.6222, 16.18445
949.1043, 15.09076
949.5864, 11.36679
950.0685, 4.615143
950.5507, 1.163055
951.0328, 1.421509
951.5149, 4.252075
951.9970, 10.15775
952.4791, 15.43698
952.9612, 16.11453
953.4434, 13.15884
953.9255, 10.76388
954.4076, 8.388245
954.8897, 9.616058
955.3718, 16.65155
955.8539, 21.45087
956.3361, 20.15753
956.8182, 15.82523
957.3003, 11.00613
957.7824, 6.221863
958.2645, 8.422089
958.7466, 22.91376
959.2288, 30.77979
959.7109, 27.52429
960.1930, 22.72012
960.6751, 20.32828
961.1572, 19.41272
961.6393, 19.11746
962.1215, 19.50562
962.6036, 17.63522
963.0857, 11.73001
963.5678, 6.816559
964.0499, 0.4083560
964.5320, 1.962708
965.0142, 5.130554
965.4963, 16.76996
965.9784, 25.70895
966.4605, 31.82056
966.9426, 34.86401
967.4247, 36.80786
967.9069, 32.81097
968.3890, 12.11218
968.8711, 4.340332
969.3532, 1.667999
969.8353, 17.91251
970.3174, 20.36584
970.7996, 4.187317
971.2817, 2.907227
971.7638, 11.07303
972.2459, 21.53781
972.7280, 19.36459
973.2101, 14.90485
973.6923, 16.87509
974.1744, 21.69287
974.6565, 20.39987
975.1386, 10.70468
975.6207, 3.310120
976.1028, 0.9848940
976.5850, 0.1175540
977.0671, 1.696747
977.5492, 1.455475
978.0313, 5.738129
978.5134, 16.47070
978.9955, 21.86218
979.4777, 19.25354
979.9598, 18.00827
980.4419, 23.20828
980.9240, 26.85754
981.4061, 24.80371
981.8882, 20.41263
982.3704, 14.84976
982.8525, 9.864990
983.3346, 9.810822
983.8167, 16.86627
984.2988, 22.25119
984.7809, 23.28436
985.2631, 21.78894
985.7452, 15.24594
986.2273, 9.303009
986.7094, 11.63379
987.1915, 19.45169
987.6736, 22.61264
988.1558, 17.89188
988.6379, 11.93616
989.1200, 6.203949
989.6021, 1.114441
990.0842, 5.958954
990.5663, 10.08688
991.0485, 2.544464
991.5306, 12.45422
992.0127, 20.47937
992.4948, 15.98190
992.9769, 11.33649
993.4590, 12.49930
993.9412, 14.16449
994.4233, 12.69580
994.9054, 10.38046
995.3875, 10.17160
995.8696, 11.61227
996.3517, 12.12646
996.8339, 10.68130
997.3160, 9.581085
997.7981, 10.99582
998.2802, 11.79117
998.7623, 8.530182
999.2444, 4.661621
999.7266, 5.442017
1000.209, 9.307037
1000.691, 8.979950
1001.173, 1.099365
1001.655, 3.675171
1002.137, 2.750122
1002.619, 10.36053
1003.101, 13.81140
1003.583, 14.35767
1004.066, 12.46124
1004.548, 9.340027
1005.030, 8.263123
1005.512, 10.91519
1005.994, 11.85715
1006.476, 5.308289
1006.958, 0.1342770
1007.440, 2.272919
1007.923, 8.324402
1008.405, 17.80200
1008.887, 27.30319
1009.369, 27.18304
1009.851, 12.46286
1010.333, 1.509277
1010.815, 3.921509
1011.297, 10.33002
1011.779, 18.61163
1012.262, 25.64182
1012.744, 27.31128
1013.226, 25.19568
1013.708, 24.64590
1014.190, 27.61447
1014.672, 28.29770
1015.154, 22.40112
1015.636, 16.07892
1016.119, 11.97256
1016.601, 9.398346
1017.083, 7.248505
1017.565, 6.047089
1018.047, 8.247101
1018.529, 15.23419
1019.011, 18.43655
1019.493, 10.92661
1019.975, 4.025024
1020.458, 2.489960
1020.940, 4.050385
1021.422, 7.706360
1021.904, 12.47650
1022.386, 17.06760
1022.868, 21.75671
1023.350, 23.93610
1023.832, 21.48019
1024.314, 18.25845
1024.797, 14.23135
1025.279, 11.34891
1025.761, 11.11023
1026.243, 13.05933
1026.725, 17.33380
1027.207, 25.02774
1027.689, 26.49774
1028.171, 12.50403
1028.654, 2.269531
1029.136, 2.269470
1029.618, 6.325287
1030.100, 11.99799
1030.582, 17.67224
1031.064, 20.83206
1031.546, 21.19498
1032.028, 22.14005
1032.510, 24.91772
1032.993, 27.11285
1033.475, 30.20422
1033.957, 30.56567
1034.439, 24.40485
1034.921, 15.19101
1035.403, 9.037170
1035.885, 6.588867
1036.367, 6.534149
1036.849, 11.29434
1037.332, 14.58569
1037.814, 14.29227
1038.296, 14.53983
1038.778, 18.53714
1039.260, 22.76895
1039.742, 22.43719
1040.224, 18.22183
1040.706, 16.72830
1041.189, 20.96954
1041.671, 21.93378
1042.153, 17.60440
1042.635, 13.11908
1043.117, 10.43481
1043.599, 7.962006
1044.081, 2.834930
1044.563, 3.241089
1045.046, 1.717957
1045.528, 9.533264
1046.010, 19.80978
1046.492, 30.68179
1046.974, 36.33643
1047.456, 33.56363
1047.938, 27.47952
1048.420, 21.85309
1048.902, 17.94971
1049.385, 17.11652
1049.867, 19.65649
1050.349, 22.20233
1050.831, 24.30368
1051.313, 26.66086
1051.795, 30.17801
1052.277, 31.28793
1052.759, 27.28192
1053.242, 20.04929
1053.724, 12.40417
1054.206, 4.525604
1054.688, 1.069702
1055.170, 2.241272
1055.652, 4.715240
1056.134, 8.072968
1056.616, 10.28293
1057.099, 10.07333
1057.581, 9.280670
1058.063, 10.63623
1058.545, 13.39438
1059.027, 14.21790
1059.509, 12.94882
1059.991, 12.43799
1060.473, 12.97406
1060.955, 17.62631
1061.438, 27.60672
1061.920, 35.11093
1062.402, 31.33951
1062.884, 21.43625
1063.366, 14.81152
1063.848, 11.69125
1064.330, 15.67670
1064.812, 24.44696
1065.294, 26.18558
1065.777, 18.38770
1066.259, 10.66647
1066.741, 10.06226
1067.223, 13.01056
1067.705, 16.15738
1068.187, 18.82727
1068.669, 19.47617
1069.151, 18.76630
1069.634, 18.63940
1070.116, 19.08841
1070.598, 17.70050
1071.080, 12.76743
1071.562, 9.259583
1072.044, 13.14709
1072.526, 18.89850
1073.008, 20.79932
1073.490, 20.99866
1073.973, 24.38483
1074.455, 29.07108
1074.937, 27.55136
1075.419, 17.18546
1075.901, 7.315338
1076.383, 2.001709
1076.865, 0.1207580
1077.347, 0.4041140
1077.829, 3.565491
1078.312, 12.43317
1078.794, 22.65417
1079.276, 26.26917
1079.758, 22.24081
1080.240, 16.84830
1080.722, 7.256866
1081.204, 3.307281
1081.686, 14.77383
1082.169, 24.22778
1082.651, 18.26291
1083.133, 7.519958
1083.615, 6.396179
1084.097, 13.73358
1084.579, 16.43542
1085.061, 9.646088
1085.543, 6.405212
1086.026, 9.931152
1086.508, 12.24933
1086.990, 10.21246
1087.472, 7.391754
1087.954, 6.532806
1088.436, 7.070862
1088.918, 7.447815
1089.400, 7.450867
1089.882, 9.630188
1090.365, 16.51074
1090.847, 15.00125
1091.329, 0.9740600
1091.811, 12.06351
1092.293, 5.862793
1092.775, 7.896973
1093.257, 15.26764
1093.739, 16.99149
1094.221, 17.79501
1094.704, 17.76416
1095.186, 16.06104
1095.668, 12.77325
1096.150, 14.25290
1096.632, 23.04794
1097.114, 29.95337
1097.596, 25.77197
1098.078, 15.84146
1098.561, 10.36026
1099.043, 8.604095
1099.525, 6.322083
1100.007, 4.261444
1100.489, 5.737274
1100.971, 10.41061
1101.453, 10.80566
1101.935, 1.983002
1102.417, 5.597260
1102.900, 3.375732
1103.382, 16.78848
1103.864, 17.79526
1104.346, 13.24768
1104.828, 15.96710
1105.310, 23.76938
1105.792, 25.90182
1106.274, 19.17734
1106.756, 10.89056
1107.239, 2.010193
1107.721, 3.491882
1108.203, 0.9005740
1108.685, 4.715729
1109.167, 11.20587
1109.649, 16.70447
1110.131, 18.27902
1110.613, 16.27496
1111.096, 15.32071
1111.578, 17.32547
1112.060, 18.39151
1112.542, 17.39374
1113.024, 15.97556
1113.506, 13.01523
1113.988, 11.56284
1114.470, 17.03799
1114.953, 24.83871
1115.435, 22.05753
1115.917, 5.890747
1116.399, 1.935120
1116.881, 4.5959000E-02
1117.363, 7.605713
1117.845, 24.18759
1118.327, 34.71869
1118.809, 29.59473
1119.292, 20.40836
1119.774, 23.31122
1120.256, 33.99765
1120.738, 30.11011
1121.220, 12.31372
1121.702, 1.812988
1122.184, 0.1427310
1122.666, 1.317810
1123.148, 4.527283
1123.631, 7.705078
1124.113, 9.008667
1124.595, 10.10324
1125.077, 14.37265
1125.559, 19.70770
1126.041, 21.66367
1126.523, 20.86246
1127.005, 17.98679
1127.488, 14.14877
1127.970, 12.44330
1128.452, 13.99197
1128.934, 16.40411
1129.416, 19.17010
1129.898, 20.49640
1130.380, 16.81424
1130.862, 12.94897
1131.344, 13.69806
1131.827, 17.64856
1132.309, 23.98523
1132.791, 31.10449
1133.273, 31.55792
1133.755, 18.62222
1134.237, 10.93814
1134.719, 19.49222
1135.201, 25.72232
1135.683, 20.22131
1136.166, 11.80069
1136.648, 5.472198
1137.130, 2.471100
1137.612, 6.309875
1138.094, 17.79129
1138.576, 25.37210
1139.058, 28.80716
1139.540, 28.84833
1140.023, 25.18369
1140.505, 18.74927
1140.987, 8.703796
1141.469, 0.5181270
1141.951, 0.3142700
1142.433, 5.505463
1142.915, 8.957916
1143.397, 10.91754
1143.880, 14.13824
1144.362, 18.18277
1144.844, 17.92783
1145.326, 12.80551
1145.808, 9.641754
1146.290, 12.14224
1146.772, 14.98853
1147.254, 9.787384
1147.736, 4.062500
1148.219, 12.47995
1148.701, 24.85843
1149.183, 23.41003
1149.665, 12.38898
1150.147, 7.933350
1150.629, 12.15408
1151.111, 13.58893
1151.593, 4.860352
1152.075, 0.8260190
1152.558, 5.125977
1153.040, 12.71515
1153.522, 17.07135
1154.004, 19.74530
1154.486, 24.44403
1154.968, 28.38757
1155.450, 21.71698
1155.932, 0.6120300
1156.415, 5.824768
1156.897, 10.45169
1157.379, 24.55679
1157.861, 35.36115
1158.343, 39.96899
1158.825, 35.60327
1159.307, 28.39612
1159.789, 24.56232
1160.271, 22.44604
1160.754, 18.09259
1161.236, 11.66092
1161.718, 10.25650
1162.200, 13.46082
1162.682, 14.48297
1163.164, 12.02921
1163.646, 6.613342
1164.128, 1.453156
1164.610, 6.454956
1165.093, 0.3661800
1165.575, 8.966248
1166.057, 11.24838
1166.539, 10.45819
1167.021, 12.28806
1167.503, 16.04950
1167.985, 20.25854
1168.467, 23.93149
1168.950, 23.93198
1169.432, 17.26373
1169.914, 14.27121
1170.396, 25.93393
1170.878, 33.35492
1171.360, 23.28458
1171.842, 10.46729
1172.324, 5.976074
1172.807, 6.972351
1173.289, 8.229218
1173.771, 9.654785
1174.253, 9.470245
1174.735, 6.421844
1175.217, 7.027496
1175.699, 12.52643
1176.181, 19.00278
1176.663, 26.37793
1177.146, 27.90146
1177.628, 17.47607
1178.110, 3.358185
1178.592, 0.6899110
1179.074, 6.492065
1179.556, 8.968140
1180.038, 8.635071
1180.520, 4.291290
1181.002, 1.854401
1181.485, 0.1670230
1181.967, 12.23538
1182.449, 23.65817
1182.931, 27.65454
1183.413, 28.60291
1183.895, 28.30667
1184.377, 28.36688
1184.859, 30.47009
1185.342, 33.40936
1185.824, 37.74222
1186.306, 41.14331
1186.788, 37.19754
1187.270, 24.32471
1187.752, 15.98227
1188.234, 18.87045
1188.716, 18.03857
1189.198, 6.915802
1189.681, 2.336487
1190.163, 13.62775
1190.645, 27.14651
1191.127, 31.26639
1191.609, 28.80804
1192.091, 25.83737
1192.573, 22.37262
1193.055, 18.49582
1193.537, 14.26642
1194.020, 9.634857
1194.502, 5.270416
1194.984, 7.188843
1195.466, 16.92917
1195.948, 24.37408
1196.430, 20.76276
1196.912, 14.61856
1197.394, 15.85873
1197.877, 19.29886
1198.359, 18.73975
1198.841, 16.68323
1199.323, 18.67142
1199.805, 22.54080
1200.287, 21.14386
1200.769, 12.86099
1201.251, 5.415131
1201.734, 0.4458310
1202.216, 0.8970340
1202.698, 4.444916
1203.180, 9.720337
1203.662, 12.65845
1204.144, 14.73117
1204.626, 16.98441
1205.108, 18.76581
1205.590, 22.80548
1206.073, 28.11780
1206.555, 25.11954
1207.037, 14.42877
1207.519, 9.622803
1208.001, 11.77487
1208.483, 14.50003
1208.965, 15.54221
1209.447, 16.36087
1209.929, 18.17505
1210.412, 19.54898
1210.894, 18.31577
1211.376, 16.34149
1211.858, 14.21643
1212.340, 13.76410
1212.822, 21.20496
1213.304, 30.71112
1213.786, 27.03033
1214.269, 8.488464
1214.751, 1.346771
1215.233, 24.19141
1215.715, 37.00626
1216.197, 30.40265
1216.679, 22.28348
1217.161, 16.99814
1217.643, 11.95105
1218.125, 4.404114
1218.608, 1.920288
1219.090, 2.8991999E-02
1219.572, 8.550934
1220.054, 15.92416
1220.536, 21.76453
1221.018, 23.03204
1221.500, 20.05603
1221.982, 14.56699
1222.464, 7.991180
1222.947, 5.990265
1223.429, 12.05008
1223.911, 18.67166
1224.393, 21.76227
1224.875, 21.60529
1225.357, 16.94888
1225.839, 10.99133
1226.321, 4.518372
1226.804, 9.1430999E-02
1227.286, 2.492279
1227.768, 10.78372
1228.250, 16.62073
1228.732, 18.48892
1229.214, 21.15298
1229.696, 26.61215
1230.178, 27.11148
1230.661, 20.36835
1231.143, 11.97125
1231.625, 3.731689
1232.107, 0.1973880
1232.589, 10.06622
1233.071, 24.60074
1233.553, 22.11215
1234.035, 10.29935
1234.517, 13.05987
1235.000, 23.45358
1235.482, 19.72824
1235.964, 4.455933
1236.446, 2.363739
1236.928, 5.772461
1237.410, 13.10553
1237.892, 10.15930
1238.374, 8.683136
1238.856, 13.56668
1239.339, 20.68198
1239.821, 27.74341
1240.303, 34.55215
1240.785, 43.16479
1241.267, 46.52148
1241.749, 42.39813
1242.231, 28.77307
1242.713, 17.25507
1243.196, 7.658752
1243.678, 2.049103
1244.160, 2.3621000E-02
1244.642, 0.3958130
1245.124, 0.0000000E+00
##END=



