##NAMES=Cuprite
##RRUFFID=R050374
##IDEAL CHEMISTRY=Cu^1+^_2_O
##LOCALITY=unknown
##OWNER=RRUFF
##SOURCE=Eugene Schlepp
##DESCRIPTION=Aggregate of deep red cubes
##STATUS=The identification of this mineral has been confirmed by X-ray diffraction and chemical analysis
##URL=rruff.info/R050374
##MEASURED CHEMISTRY=Cu_2.00_O
121.4504, 0.0000000E+00
121.9325, 0.2744140
122.4147, 4.607422
122.8968, 16.22070
123.3789, 27.94531
123.8610, 17.71387
124.3431, 5.972656
124.8252, 2.384766
125.3074, 1.782227
125.7895, 12.15332
126.2716, 14.45117
126.7537, 0.7636720
127.2358, 7.105469
127.7179, 0.2998050
128.2001, 15.93945
128.6822, 30.46777
129.1643, 37.33789
129.6464, 37.63086
130.1285, 44.27344
130.6107, 69.46094
131.0928, 89.83301
131.5749, 96.79785
132.0570, 93.87988
132.5391, 90.28027
133.0212, 94.36035
133.5034, 108.1738
133.9855, 116.3076
134.4676, 114.1348
134.9497, 111.4336
135.4318, 112.7471
135.9139, 118.8330
136.3960, 128.9727
136.8782, 142.4551
137.3603, 159.6924
137.8424, 180.3027
138.3245, 212.1865
138.8066, 244.3291
139.2887, 261.9189
139.7709, 259.9727
140.2530, 249.7295
140.7351, 242.3486
141.2172, 237.2656
141.6993, 237.7910
142.1814, 246.6045
142.6636, 262.3965
143.1457, 281.7539
143.6278, 309.6748
144.1099, 333.7588
144.5920, 342.5771
145.0741, 336.2549
145.5563, 327.6729
146.0384, 329.4824
146.5205, 343.4199
147.0026, 353.1855
147.4847, 352.5098
147.9668, 349.0615
148.4490, 345.6885
148.9311, 343.2686
149.4132, 342.6729
149.8953, 346.4531
150.3774, 360.8975
150.8595, 366.1279
151.3417, 358.0898
151.8238, 343.5381
152.3059, 325.9385
152.7880, 306.9609
153.2701, 288.3535
153.7522, 274.9053
154.2344, 273.1445
154.7165, 269.4297
155.1986, 264.0889
155.6807, 256.2754
156.1628, 243.8311
156.6449, 225.2070
157.1271, 202.8926
157.6092, 187.5869
158.0913, 185.0107
158.5734, 181.6289
159.0555, 169.0234
159.5376, 151.9863
160.0198, 145.2725
160.5019, 161.8857
160.9840, 192.1094
161.4661, 200.2441
161.9482, 168.6387
162.4303, 134.5195
162.9125, 124.0947
163.3946, 136.4688
163.8767, 152.2109
164.3588, 160.9512
164.8409, 165.4385
165.3230, 170.1953
165.8052, 174.0566
166.2873, 180.1475
166.7694, 195.4248
167.2515, 224.5996
167.7336, 246.8418
168.2157, 244.5195
168.6979, 231.9150
169.1800, 225.7764
169.6621, 234.9150
170.1442, 253.9102
170.6263, 266.7207
171.1084, 266.7021
171.5906, 271.2939
172.0727, 290.5957
172.5548, 316.4541
173.0369, 337.5664
173.5190, 346.6934
174.0011, 345.0645
174.4833, 343.0303
174.9654, 328.5713
175.4475, 326.6338
175.9296, 351.8818
176.4117, 393.4023
176.8938, 432.5273
177.3760, 455.6152
177.8581, 462.4365
178.3402, 461.0117
178.8223, 440.6699
179.3044, 422.8389
179.7865, 418.3379
180.2687, 424.5605
180.7508, 432.2109
181.2329, 433.8584
181.7150, 429.1680
182.1971, 420.8760
182.6792, 399.4150
183.1614, 381.9375
183.6435, 382.7266
184.1256, 400.5986
184.6077, 418.8311
185.0898, 421.8867
185.5719, 408.7998
186.0541, 400.2393
186.5362, 400.2178
187.0183, 403.6924
187.5004, 405.8613
187.9825, 405.4199
188.4646, 402.5479
188.9468, 399.0176
189.4289, 394.3809
189.9110, 386.0859
190.3931, 369.1143
190.8752, 349.4824
191.3573, 337.1924
191.8395, 334.8223
192.3216, 334.7734
192.8037, 330.3037
193.2858, 323.4834
193.7679, 319.2920
194.2500, 325.2891
194.7322, 336.2549
195.2143, 333.5215
195.6964, 303.3301
196.1785, 278.3770
196.6606, 281.4492
197.1427, 303.4297
197.6249, 324.2578
198.1070, 330.1748
198.5891, 322.3848
199.0712, 319.2656
199.5533, 330.2705
200.0354, 335.9414
200.5176, 325.8916
200.9997, 304.5293
201.4818, 281.6963
201.9639, 263.9297
202.4460, 251.1289
202.9281, 246.6475
203.4103, 263.2646
203.8924, 277.7227
204.3745, 282.7178
204.8566, 278.0430
205.3387, 267.3066
205.8208, 251.3184
206.3030, 227.6113
206.7851, 222.9473
207.2672, 257.7168
207.7493, 290.4590
208.2314, 302.3184
208.7135, 296.2090
209.1957, 286.9297
209.6778, 288.2031
210.1599, 300.6133
210.6420, 311.3105
211.1241, 323.4355
211.6062, 331.6562
212.0884, 331.4258
212.5705, 323.6895
213.0526, 313.5371
213.5347, 304.5762
214.0168, 296.7773
214.4989, 295.5215
214.9811, 310.6582
215.4632, 324.2188
215.9453, 321.6309
216.4274, 303.3906
216.9095, 284.5156
217.3916, 278.8242
217.8737, 286.2363
218.3559, 285.4043
218.8380, 268.9570
219.3201, 248.7578
219.8022, 235.4688
220.2843, 230.0195
220.7664, 226.1406
221.2486, 219.6016
221.7307, 210.6621
222.2128, 200.2285
222.6949, 187.1543
223.1770, 172.9219
223.6591, 158.2148
224.1413, 142.5449
224.6234, 129.7578
225.1055, 123.2227
225.5876, 121.4746
226.0697, 123.0703
226.5518, 131.5371
227.0340, 140.9609
227.5161, 141.3457
227.9982, 130.1992
228.4803, 118.3359
228.9624, 112.9492
229.4445, 110.4844
229.9267, 106.0996
230.4088, 96.60156
230.8909, 85.47461
231.3730, 80.75977
231.8551, 86.54102
232.3372, 88.37305
232.8194, 76.96289
233.3015, 59.78320
233.7836, 45.51367
234.2657, 38.30469
234.7478, 35.21289
235.2299, 28.31250
235.7121, 11.90039
236.1942, 3.955078
236.6763, 18.83203
237.1584, 39.99219
237.6405, 48.83008
238.1227, 36.37305
238.6048, 11.23438
239.0869, 5.076172
239.5690, 10.19141
240.0511, 9.515625
240.5332, 2.175781
241.0154, 15.37891
241.4975, 19.05469
241.9796, 8.361328
242.4617, 10.09180
242.9438, 19.30469
243.4259, 10.82227
243.9081, 4.849609
244.3902, 11.53906
244.8723, 19.32031
245.3544, 13.64062
245.8365, 11.26758
246.3186, 44.16602
246.8008, 58.55664
247.2829, 33.60352
247.7650, 19.46289
248.2471, 26.85156
248.7292, 40.82617
249.2113, 47.03906
249.6935, 40.68555
250.1756, 27.94922
250.6577, 21.24023
251.1398, 30.05859
251.6219, 30.66992
252.1040, 10.90625
252.5862, 10.17383
253.0683, 11.18359
253.5504, 12.58594
254.0325, 43.11328
254.5146, 50.43164
254.9967, 14.60938
255.4789, 7.853516
255.9610, 8.328125
256.4431, 0.1484380
256.9252, 5.638672
257.4073, 5.699219
257.8894, 3.734375
258.3716, 4.224609
258.8537, 9.376953
259.3358, 11.13672
259.8179, 7.263672
260.3000, 1.449219
260.7821, 6.271484
261.2643, 15.15430
261.7464, 17.06836
262.2285, 0.1894530
262.7106, 43.77734
263.1927, 68.82227
263.6748, 60.20508
264.1570, 41.76562
264.6391, 34.27539
265.1212, 39.60156
265.6033, 44.59766
266.0854, 34.60938
266.5675, 8.990234
267.0497, 4.269531
267.5318, 4.511719
268.0139, 19.47852
268.4960, 27.93750
268.9781, 29.33984
269.4602, 31.33008
269.9424, 41.75195
270.4245, 58.33398
270.9066, 65.66016
271.3887, 58.34375
271.8708, 45.69727
272.3529, 33.43555
272.8351, 21.80273
273.3172, 11.21094
273.7993, 1.417969
274.2814, 6.613281
274.7635, 11.28711
275.2456, 11.17773
275.7278, 7.849609
276.2099, 3.671875
276.6920, 0.8632810
277.1741, 4.677734
277.6562, 7.230469
278.1383, 8.535156
278.6205, 8.388672
279.1026, 5.224609
279.5847, 3.978516
280.0668, 9.876953
280.5489, 21.51758
281.0310, 29.54688
281.5132, 26.64258
281.9953, 22.92578
282.4774, 34.92969
282.9595, 66.14648
283.4416, 92.11133
283.9237, 94.65430
284.4059, 78.62305
284.8880, 63.90039
285.3701, 54.18359
285.8522, 48.84570
286.3343, 48.21484
286.8164, 52.01953
287.2986, 54.32422
287.7807, 48.39258
288.2628, 38.04102
288.7449, 37.33398
289.2270, 53.48633
289.7091, 69.93555
290.1913, 70.13086
290.6734, 58.40234
291.1555, 50.65430
291.6376, 60.75195
292.1197, 79.43750
292.6018, 82.31055
293.0840, 61.26367
293.5661, 41.01172
294.0482, 41.44727
294.5303, 53.83789
295.0124, 62.69922
295.4945, 59.27539
295.9767, 50.25977
296.4588, 47.91992
296.9409, 53.72852
297.4230, 60.73047
297.9051, 70.47070
298.3872, 78.71680
298.8694, 78.44727
299.3515, 65.95312
299.8336, 47.43555
300.3157, 28.11719
300.7978, 6.578125
301.2799, 7.224609
301.7621, 8.146484
302.2442, 1.115234
302.7263, 14.04297
303.2084, 40.14844
303.6905, 63.84570
304.1726, 67.75000
304.6548, 50.92773
305.1369, 35.66602
305.6190, 26.88281
306.1011, 22.16602
306.5832, 20.92188
307.0653, 22.50000
307.5475, 24.29492
308.0296, 27.32227
308.5117, 31.16016
308.9938, 30.00977
309.4759, 18.82617
309.9580, 7.626953
310.4402, 1.429688
310.9223, 0.5390630
311.4044, 4.253906
311.8865, 15.35547
312.3686, 30.53516
312.8507, 33.39062
313.3329, 13.07227
313.8150, 2.244141
314.2971, 5.802734
314.7792, 28.33398
315.2613, 50.11523
315.7434, 64.61133
316.2256, 73.96289
316.7077, 83.84961
317.1898, 96.95117
317.6719, 102.8730
318.1540, 88.11719
318.6361, 67.75391
319.1183, 59.50977
319.6004, 70.71094
320.0825, 85.74219
320.5646, 83.28125
321.0467, 58.97852
321.5288, 43.39648
322.0110, 58.55273
322.4931, 78.83789
322.9752, 83.16016
323.4573, 67.94141
323.9394, 48.98047
324.4215, 41.34375
324.9037, 43.95508
325.3858, 45.43945
325.8679, 43.41797
326.3500, 38.99219
326.8321, 30.83203
327.3142, 20.35547
327.7964, 13.75781
328.2785, 18.24023
328.7606, 31.13672
329.2427, 38.46094
329.7248, 35.52344
330.2069, 34.03906
330.6891, 48.65039
331.1712, 70.03906
331.6533, 77.09375
332.1354, 50.42969
332.6175, 7.759766
333.0996, 12.92773
333.5818, 6.787109
334.0639, 6.333984
334.5460, 24.52344
335.0281, 41.21094
335.5102, 46.28711
335.9923, 33.25586
336.4745, 17.00391
336.9566, 16.75391
337.4387, 33.55859
337.9208, 48.44531
338.4029, 54.72852
338.8850, 56.23047
339.3671, 56.29492
339.8492, 55.11133
340.3314, 53.65039
340.8135, 52.92188
341.2956, 52.70117
341.7777, 50.97266
342.2598, 46.22266
342.7419, 41.56445
343.2241, 39.10547
343.7062, 38.76758
344.1883, 40.42969
344.6704, 45.58203
345.1525, 52.42578
345.6346, 57.29883
346.1168, 60.10352
346.5989, 60.55664
347.0810, 54.94336
347.5631, 47.00000
348.0452, 43.88867
348.5273, 49.07617
349.0095, 58.36523
349.4916, 69.43359
349.9737, 82.42188
350.4558, 89.95312
350.9379, 86.95898
351.4200, 76.91992
351.9022, 65.52539
352.3843, 52.06055
352.8664, 40.07031
353.3485, 31.74805
353.8306, 26.83594
354.3127, 23.52734
354.7949, 19.43750
355.2770, 20.17383
355.7591, 37.36328
356.2412, 70.71484
356.7233, 96.05469
357.2054, 102.4805
357.6876, 96.22461
358.1697, 84.53320
358.6518, 66.95117
359.1339, 50.91016
359.6160, 46.21094
360.0981, 50.98633
360.5803, 52.38672
361.0624, 45.29492
361.5445, 36.10742
362.0266, 31.11328
362.5087, 29.66797
362.9908, 24.62891
363.4730, 8.560547
363.9551, 11.50195
364.4372, 14.40625
364.9193, 8.638672
365.4014, 32.44336
365.8835, 48.48633
366.3657, 57.67188
366.8478, 61.48047
367.3299, 60.01953
367.8120, 53.95117
368.2941, 41.20312
368.7762, 16.56250
369.2584, 9.105469
369.7405, 40.63086
370.2226, 80.61719
370.7047, 98.88672
371.1868, 92.04492
371.6689, 74.73242
372.1511, 59.87695
372.6332, 47.50000
373.1153, 39.63086
373.5974, 42.46094
374.0795, 43.42188
374.5616, 35.92773
375.0438, 21.69141
375.5259, 3.384766
376.0080, 19.15625
376.4901, 40.88477
376.9722, 43.10547
377.4543, 1.285156
377.9365, 29.83398
378.4186, 23.79688
378.9007, 4.263672
379.3828, 5.076172
379.8649, 2.068359
380.3470, 14.50586
380.8292, 15.63867
381.3113, 2.953125
381.7934, 6.892578
382.2755, 21.29492
382.7576, 47.12695
383.2397, 47.52539
383.7219, 26.66016
384.2040, 3.488281
384.6861, 7.328125
385.1682, 6.349609
385.6503, 3.302734
386.1324, 9.132813
386.6146, 15.67383
387.0967, 9.587891
387.5788, 2.560547
388.0609, 13.79492
388.5430, 21.06836
389.0251, 23.30078
389.5073, 17.59570
389.9894, 0.3242190
390.4715, 17.25195
390.9536, 38.42188
391.4357, 53.68555
391.9178, 50.02930
392.4000, 29.49414
392.8821, 10.81250
393.3642, 15.98633
393.8463, 46.18750
394.3284, 57.76562
394.8105, 27.36133
395.2927, 5.035156
395.7748, 14.05469
396.2569, 41.15234
396.7390, 64.50781
397.2211, 73.71680
397.7032, 72.00586
398.1854, 63.68945
398.6675, 43.83984
399.1496, 32.76562
399.6317, 49.38086
400.1138, 69.04883
400.5959, 69.32812
401.0781, 46.90234
401.5602, 24.61328
402.0423, 27.13086
402.5244, 51.77734
403.0065, 68.23633
403.4886, 70.23828
403.9708, 67.21484
404.4529, 65.88867
404.9350, 65.29883
405.4171, 62.81641
405.8992, 56.70117
406.3813, 48.24414
406.8635, 36.81445
407.3456, 21.25000
407.8277, 14.03516
408.3098, 28.99805
408.7919, 52.59766
409.2740, 59.66602
409.7562, 41.11133
410.2383, 26.63281
410.7204, 42.57422
411.2025, 77.46094
411.6846, 96.43750
412.1667, 88.29883
412.6489, 69.52148
413.1310, 58.69141
413.6131, 55.39844
414.0952, 54.79297
414.5773, 57.26758
415.0594, 61.28906
415.5416, 66.55859
416.0237, 72.57812
416.5058, 76.30664
416.9879, 75.28320
417.4700, 70.41211
417.9521, 66.80273
418.4343, 56.51562
418.9164, 56.34375
419.3985, 78.14062
419.8806, 110.6641
420.3627, 139.1602
420.8448, 158.8945
421.3270, 169.7051
421.8091, 169.9980
422.2912, 155.8789
422.7733, 144.0879
423.2554, 133.8203
423.7375, 124.9512
424.2197, 116.1953
424.7018, 108.5840
425.1839, 105.5742
425.6660, 110.1152
426.1481, 120.8887
426.6302, 129.3047
427.1124, 139.5391
427.5945, 141.4004
428.0766, 124.0059
428.5587, 102.7695
429.0408, 94.12891
429.5229, 102.7031
430.0051, 119.2656
430.4872, 133.9707
430.9693, 150.1055
431.4514, 150.5977
431.9335, 113.8379
432.4156, 79.88086
432.8978, 64.48438
433.3799, 65.12109
433.8620, 71.85938
434.3441, 80.64648
434.8262, 90.74414
435.3083, 99.44531
435.7905, 104.8594
436.2726, 105.6445
436.7547, 93.64648
437.2368, 80.66211
437.7189, 81.05273
438.2010, 98.31445
438.6832, 112.8281
439.1653, 102.9629
439.6474, 73.82617
440.1295, 54.29492
440.6116, 50.35156
441.0938, 52.94727
441.5759, 53.35352
442.0580, 53.42969
442.5401, 60.13672
443.0222, 83.03516
443.5043, 108.6543
443.9865, 125.1348
444.4686, 132.3848
444.9507, 130.1582
445.4328, 113.7266
445.9149, 91.94727
446.3970, 88.66406
446.8792, 113.7422
447.3613, 127.3438
447.8434, 104.9395
448.3255, 71.41797
448.8076, 60.69531
449.2897, 77.70703
449.7719, 101.0586
450.2540, 111.3379
450.7361, 108.0176
451.2182, 101.4355
451.7003, 83.06250
452.1824, 71.27930
452.6646, 76.92578
453.1467, 92.81055
453.6288, 108.7949
454.1109, 120.5059
454.5930, 125.3301
455.0751, 116.3633
455.5573, 77.59375
456.0394, 56.66211
456.5215, 62.00195
457.0036, 74.71094
457.4857, 86.20508
457.9678, 94.93164
458.4500, 101.9180
458.9321, 108.2129
459.4142, 113.2852
459.8963, 113.3789
460.3784, 102.1699
460.8605, 97.48047
461.3427, 109.5293
461.8248, 126.5977
462.3069, 138.4434
462.7890, 142.5332
463.2711, 140.0723
463.7532, 125.7188
464.2354, 101.3770
464.7175, 97.61328
465.1996, 131.0293
465.6817, 164.5840
466.1638, 167.9746
466.6459, 151.1465
467.1281, 138.5684
467.6102, 138.8789
468.0923, 146.2188
468.5744, 158.3848
469.0565, 174.2637
469.5386, 180.2090
470.0208, 166.4629
470.5029, 145.4824
470.9850, 140.8438
471.4671, 154.9551
471.9492, 166.6035
472.4313, 166.8809
472.9135, 164.1875
473.3956, 168.9199
473.8777, 181.2930
474.3598, 193.2734
474.8419, 199.2324
475.3240, 199.4512
475.8062, 195.1562
476.2883, 182.0820
476.7704, 170.7949
477.2525, 165.4883
477.7346, 162.6680
478.2167, 155.5996
478.6989, 143.6230
479.1810, 133.7383
479.6631, 136.7109
480.1452, 157.6934
480.6273, 167.7012
481.1094, 149.8691
481.5916, 134.7109
482.0737, 131.7383
482.5558, 138.4805
483.0379, 150.2363
483.5200, 165.2695
484.0021, 180.1426
484.4843, 189.3516
484.9664, 192.6973
485.4485, 191.3281
485.9306, 181.0684
486.4127, 169.7480
486.8948, 164.0938
487.3770, 163.7227
487.8591, 161.1719
488.3412, 149.7578
488.8233, 135.9941
489.3054, 131.7734
489.7875, 138.8027
490.2697, 150.0078
490.7518, 164.0488
491.2339, 175.9531
491.7160, 177.3008
492.1981, 165.5156
492.6802, 153.1172
493.1624, 145.7598
493.6445, 140.5293
494.1266, 129.4395
494.6087, 111.9160
495.0908, 99.30859
495.5729, 103.9941
496.0551, 126.3359
496.5372, 136.4082
497.0193, 122.5586
497.5014, 110.8242
497.9835, 112.9160
498.4656, 121.0820
498.9478, 123.1621
499.4299, 115.4414
499.9120, 105.1738
500.3941, 103.5234
500.8762, 113.8594
501.3583, 119.2129
501.8405, 117.7949
502.3226, 113.1094
502.8047, 100.5391
503.2868, 86.82227
503.7689, 85.53711
504.2510, 105.1582
504.7331, 132.4727
505.2152, 142.9961
505.6974, 133.2988
506.1795, 124.0371
506.6616, 120.1289
507.1437, 118.3086
507.6258, 116.2734
508.1079, 113.8906
508.5901, 110.7168
509.0722, 106.6543
509.5543, 101.7207
510.0364, 93.46680
510.5185, 82.13281
511.0006, 78.57031
511.4828, 91.60352
511.9649, 112.2793
512.4470, 120.7227
512.9291, 113.6387
513.4113, 107.9844
513.8934, 110.2188
514.3755, 114.5391
514.8576, 114.7344
515.3397, 110.4648
515.8218, 104.0664
516.3040, 96.08398
516.7861, 88.01953
517.2682, 90.64648
517.7503, 123.9453
518.2324, 142.7227
518.7145, 131.4805
519.1967, 110.8555
519.6788, 100.5859
520.1609, 103.9004
520.6430, 111.4590
521.1251, 113.7891
521.6072, 109.6426
522.0894, 98.06055
522.5715, 68.74219
523.0536, 50.37891
523.5357, 61.04102
524.0178, 82.67188
524.4999, 95.45898
524.9821, 94.55469
525.4642, 84.52930
525.9463, 61.26953
526.4284, 30.81055
526.9105, 23.85938
527.3926, 51.55664
527.8748, 82.48047
528.3569, 93.09570
528.8390, 86.92773
529.3211, 76.13086
529.8032, 56.28906
530.2853, 38.44727
530.7675, 28.02344
531.2496, 24.00977
531.7317, 26.74219
532.2138, 36.43555
532.6959, 45.52344
533.1780, 44.13477
533.6602, 30.01758
534.1423, 18.86523
534.6244, 2.634766
535.1065, 2.720703
535.5886, 23.75195
536.0707, 60.49805
536.5529, 70.77539
537.0350, 40.59961
537.5171, 4.173828
537.9992, 20.07031
538.4813, 0.1562500
538.9634, 11.95898
539.4456, 6.890625
539.9277, 0.4316410
540.4098, 2.406250
540.8919, 1.134766
541.3740, 5.906250
541.8561, 22.35156
542.3383, 38.34961
542.8204, 41.10938
543.3025, 31.58984
543.7846, 16.96680
544.2667, 6.285156
544.7488, 23.79688
545.2310, 9.634766
545.7131, 31.38086
546.1952, 50.85352
546.6773, 25.59766
547.1594, 8.625000
547.6415, 37.05078
548.1237, 55.59766
548.6058, 52.42969
549.0879, 21.83984
549.5700, 17.07812
550.0521, 31.42773
550.5342, 8.773438
551.0164, 0.4218750
551.4985, 19.14648
551.9806, 34.62305
552.4627, 26.07422
552.9448, 3.841797
553.4269, 11.98633
553.9091, 11.97656
554.3912, 0.7773440
554.8733, 17.19336
555.3554, 44.56641
555.8375, 60.03125
556.3196, 54.19727
556.8018, 42.88867
557.2839, 36.10352
557.7660, 32.32227
558.2481, 26.66992
558.7302, 13.16016
559.2123, 2.216797
559.6945, 9.332031
560.1766, 29.81836
560.6587, 42.26758
561.1408, 39.93164
561.6229, 28.41602
562.1050, 11.62305
562.5872, 12.37500
563.0693, 23.20312
563.5514, 10.08984
564.0335, 5.759766
564.5156, 12.97852
564.9977, 15.29297
565.4799, 22.54102
565.9620, 38.33789
566.4441, 53.50000
566.9262, 50.45508
567.4083, 20.32227
567.8904, 7.781250
568.3726, 28.97266
568.8547, 51.75977
569.3368, 71.72656
569.8189, 84.28906
570.3010, 80.17383
570.7831, 53.36914
571.2653, 22.84766
571.7474, 12.61133
572.2295, 20.14453
572.7116, 24.77344
573.1937, 22.65625
573.6758, 18.58594
574.1580, 15.62305
574.6401, 13.93359
575.1222, 14.22266
575.6043, 20.43750
576.0864, 24.32812
576.5685, 20.86719
577.0507, 12.67188
577.5328, 0.6679690
578.0149, 14.05273
578.4970, 20.93359
578.9791, 6.429688
579.4612, 30.86914
579.9434, 55.18359
580.4255, 64.18750
580.9076, 62.28711
581.3897, 35.67969
581.8718, 6.154297
582.3539, 0.9824220
582.8361, 24.42188
583.3182, 52.17188
583.8003, 57.55859
584.2824, 44.34961
584.7645, 40.66211
585.2466, 48.04883
585.7288, 61.00781
586.2108, 85.29102
586.6929, 109.3574
587.1750, 113.7266
587.6572, 92.06055
588.1393, 72.26758
588.6214, 67.65820
589.1035, 71.76172
589.5856, 77.40820
590.0677, 83.52930
590.5499, 90.09570
591.0320, 97.70312
591.5141, 105.0664
591.9962, 107.1816
592.4783, 100.3301
592.9604, 92.95117
593.4426, 87.19141
593.9247, 80.25000
594.4068, 66.37695
594.8889, 49.44531
595.3710, 41.64648
595.8531, 53.13086
596.3353, 75.52734
596.8174, 80.75391
597.2995, 64.49609
597.7816, 54.56445
598.2637, 60.22656
598.7458, 71.41016
599.2280, 83.74414
599.7101, 95.04883
600.1922, 94.81836
600.6743, 68.08203
601.1564, 38.44141
601.6385, 23.20117
602.1207, 20.37500
602.6028, 28.30469
603.0849, 49.19336
603.5670, 71.83398
604.0491, 80.04297
604.5313, 70.53711
605.0134, 65.43359
605.4955, 70.73047
605.9776, 71.51953
606.4597, 60.94922
606.9418, 47.39453
607.4240, 38.89844
607.9061, 36.46094
608.3882, 38.33789
608.8703, 45.82617
609.3524, 58.54883
609.8345, 58.25586
610.3167, 37.47266
610.7988, 21.96680
611.2809, 27.90625
611.7630, 45.31836
612.2451, 61.50391
612.7272, 75.71094
613.2094, 85.43359
613.6915, 87.70312
614.1736, 86.05664
614.6557, 82.62109
615.1378, 78.66016
615.6199, 80.75391
616.1021, 94.33789
616.5842, 112.7383
617.0663, 115.9668
617.5484, 87.56641
618.0305, 72.70508
618.5126, 78.74219
618.9948, 89.87500
619.4769, 95.72461
619.9590, 99.35938
620.4411, 111.2656
620.9232, 141.1836
621.4053, 171.7910
621.8875, 168.0078
622.3696, 130.0898
622.8517, 109.5312
623.3338, 120.5859
623.8159, 139.9590
624.2980, 151.5996
624.7802, 156.2891
625.2623, 155.3848
625.7444, 141.7559
626.2265, 131.9766
626.7086, 139.4844
627.1907, 153.0703
627.6729, 156.4941
628.1550, 147.0840
628.6371, 131.4746
629.1192, 114.1191
629.6013, 96.29297
630.0834, 89.77539
630.5656, 102.6836
631.0477, 113.3906
631.5298, 123.3457
632.0119, 126.6367
632.4940, 110.0742
632.9761, 79.62305
633.4583, 64.54883
633.9404, 93.36523
634.4225, 138.1445
634.9046, 150.3730
635.3867, 132.6992
635.8688, 122.8223
636.3510, 137.0039
636.8331, 155.4609
637.3152, 148.9082
637.7973, 112.9766
638.2794, 96.92578
638.7615, 116.2441
639.2437, 138.9473
639.7258, 158.9043
640.2079, 171.0996
640.6900, 164.5332
641.1721, 138.8984
641.6542, 114.3672
642.1364, 115.4922
642.6185, 139.3301
643.1006, 146.5449
643.5827, 129.5645
644.0648, 112.4258
644.5469, 102.5449
645.0291, 96.87305
645.5112, 93.25781
645.9933, 91.55273
646.4754, 91.44336
646.9575, 88.69336
647.4396, 90.41406
647.9218, 115.2949
648.4039, 154.2930
648.8860, 165.8281
649.3681, 131.0078
649.8502, 79.23438
650.3323, 55.30664
650.8145, 66.08984
651.2966, 73.60156
651.7787, 76.64648
652.2608, 77.81250
652.7429, 78.60352
653.2250, 77.51172
653.7072, 70.19922
654.1893, 56.19922
654.6714, 45.34570
655.1535, 52.65430
655.6356, 70.47852
656.1177, 69.98242
656.5999, 48.10547
657.0820, 26.64453
657.5641, 12.09375
658.0462, 7.101563
658.5283, 22.31836
659.0104, 64.06445
659.4926, 90.37305
659.9747, 86.67773
660.4568, 74.11914
660.9389, 60.36523
661.4210, 48.89258
661.9031, 46.85547
662.3853, 56.50977
662.8674, 66.21680
663.3495, 54.50391
663.8316, 18.45508
664.3137, 9.099609
664.7958, 45.81836
665.2780, 73.91992
665.7601, 55.85156
666.2422, 21.53906
666.7243, 2.810547
667.2064, 3.386719
667.6885, 17.98242
668.1707, 62.70898
668.6528, 108.0469
669.1349, 116.0566
669.6170, 91.77148
670.0991, 62.06641
670.5812, 38.60938
671.0634, 24.58203
671.5455, 28.24414
672.0276, 59.05469
672.5097, 71.72266
672.9918, 45.91211
673.4739, 24.05078
673.9561, 22.77930
674.4382, 30.97461
674.9203, 32.27734
675.4024, 22.64453
675.8845, 15.15820
676.3666, 28.48242
676.8488, 49.17578
677.3309, 40.85742
677.8130, 2.646484
678.2951, 22.76953
678.7772, 13.05078
679.2593, 16.33398
679.7415, 37.97070
680.2236, 49.48633
680.7057, 59.54102
681.1878, 77.38672
681.6699, 83.86719
682.1520, 57.90820
682.6342, 19.58008
683.1163, 1.128906
683.5984, 4.539063
684.0805, 23.06641
684.5626, 46.66016
685.0447, 72.08594
685.5269, 79.80078
686.0090, 66.68164
686.4911, 51.91406
686.9732, 42.03516
687.4553, 36.67383
687.9374, 35.81055
688.4196, 39.57812
688.9017, 45.45703
689.3838, 62.09180
689.8659, 71.95312
690.3480, 57.33398
690.8301, 30.85742
691.3123, 14.88672
691.7944, 16.33594
692.2765, 24.43945
692.7586, 25.98633
693.2407, 21.97461
693.7228, 29.38477
694.2050, 56.13477
694.6871, 72.42969
695.1692, 57.66406
695.6513, 35.08203
696.1334, 31.68555
696.6155, 47.74414
697.0977, 58.28125
697.5798, 51.73633
698.0619, 41.06250
698.5440, 36.30859
699.0261, 34.57031
699.5082, 27.04102
699.9904, 12.96875
700.4725, 2.623047
700.9546, 8.179688
701.4367, 28.80469
701.9188, 44.75781
702.4009, 57.31836
702.8831, 62.60742
703.3652, 54.53320
703.8473, 43.75977
704.3294, 37.73438
704.8115, 35.26953
705.2936, 29.99023
705.7758, 13.51953
706.2579, 1.980469
706.7400, 17.04492
707.2221, 46.77539
707.7042, 57.63281
708.1863, 44.93945
708.6685, 32.84961
709.1506, 44.86719
709.6327, 77.53516
710.1148, 97.75977
710.5969, 99.52734
711.0790, 99.64844
711.5612, 100.1367
712.0433, 98.50977
712.5254, 90.54883
713.0075, 80.38672
713.4896, 77.01758
713.9717, 87.74219
714.4539, 99.17969
714.9360, 105.5723
715.4181, 105.5840
715.9002, 93.23047
716.3823, 68.32422
716.8644, 41.11719
717.3466, 16.58398
717.8287, 0.9453130
718.3108, 6.462891
718.7929, 62.20898
719.2750, 98.18164
719.7571, 105.4609
720.2393, 100.6367
720.7214, 88.17773
721.2035, 70.26562
721.6856, 46.65820
722.1677, 14.61914
722.6498, 8.277344
723.1320, 0.1210940
723.6141, 25.88086
724.0962, 41.87305
724.5783, 45.92969
725.0604, 41.77930
725.5425, 29.52930
726.0247, 16.21289
726.5068, 17.83203
726.9889, 44.68555
727.4710, 55.13672
727.9531, 31.37500
728.4352, 12.04688
728.9174, 13.66406
729.3995, 25.31641
729.8816, 32.16797
730.3637, 31.11133
730.8458, 31.08203
731.3279, 42.48633
731.8101, 56.73828
732.2922, 59.17578
732.7743, 50.75977
733.2564, 38.05664
733.7385, 22.43945
734.2206, 10.55664
734.7028, 12.01367
735.1849, 28.01562
735.6670, 38.88086
736.1491, 39.01758
736.6312, 40.68555
737.1133, 50.43555
737.5955, 58.75195
738.0776, 52.46484
738.5597, 34.97070
739.0418, 27.67383
739.5239, 49.91406
740.0060, 77.31641
740.4882, 80.86328
740.9703, 66.33789
741.4524, 47.71094
741.9345, 28.00195
742.4166, 17.75195
742.8987, 27.62891
743.3809, 52.70117
743.8630, 68.34375
744.3451, 67.11328
744.8272, 69.67773
745.3093, 83.99023
745.7914, 95.29297
746.2736, 91.92383
746.7557, 80.28125
747.2378, 74.61914
747.7199, 80.58398
748.2020, 87.86523
748.6841, 92.59961
749.1663, 91.83008
749.6484, 76.35352
750.1305, 48.28320
750.6126, 24.74805
751.0947, 14.81641
751.5768, 12.96289
752.0590, 8.820313
752.5411, 0.6250000
753.0232, 0.6367190
753.5053, 11.26172
753.9874, 22.00781
754.4695, 26.36523
754.9517, 27.99805
755.4338, 33.10547
755.9159, 41.72852
756.3980, 41.74805
756.8801, 15.74805
757.3622, 11.72461
757.8444, 14.70312
758.3265, 0.8339840
758.8086, 13.72461
759.2907, 23.84766
759.7728, 26.22461
760.2549, 16.09766
760.7371, 3.695313
761.2192, 16.33594
761.7013, 23.63672
762.1834, 17.77344
762.6655, 23.08008
763.1476, 56.19922
763.6298, 40.58203
764.1119, 4.386719
764.5940, 22.24023
765.0761, 15.51758
765.5582, 46.94727
766.0403, 33.91797
766.5225, 4.330078
767.0046, 12.44336
767.4867, 15.68555
767.9688, 17.82031
768.4509, 25.42188
768.9330, 31.03711
769.4152, 17.28320
769.8973, 17.25195
770.3794, 28.09961
770.8615, 2.205078
771.3436, 14.00781
771.8257, 7.130859
772.3079, 43.56445
772.7900, 62.28320
773.2721, 61.92969
773.7542, 62.97461
774.2363, 74.77539
774.7184, 82.13477
775.2006, 69.33594
775.6827, 51.68359
776.1648, 54.28125
776.6469, 77.61719
777.1290, 96.52539
777.6111, 89.69922
778.0933, 67.98633
778.5754, 56.73828
779.0575, 55.39258
779.5396, 47.56250
780.0217, 27.47852
780.5038, 9.523438
780.9860, 6.845703
781.4681, 15.61523
781.9502, 20.25391
782.4323, 8.640625
782.9144, 13.14258
783.3965, 55.45703
783.8787, 93.99805
784.3608, 102.9199
784.8429, 91.99023
785.3250, 79.96289
785.8071, 72.73828
786.2892, 66.96289
786.7714, 58.57617
787.2535, 50.30859
787.7356, 48.97461
788.2177, 53.49219
788.6998, 54.73633
789.1819, 49.21484
789.6641, 40.99805
790.1462, 34.52539
790.6283, 29.83203
791.1104, 28.90430
791.5925, 32.97656
792.0746, 38.84766
792.5568, 51.02539
793.0389, 60.47266
793.5210, 58.11914
794.0031, 47.35547
794.4852, 39.28906
794.9673, 33.32617
795.4495, 38.23828
795.9316, 72.05469
796.4137, 112.3965
796.8958, 130.9629
797.3779, 126.8223
797.8600, 108.1074
798.3422, 78.33594
798.8243, 49.33984
799.3064, 45.04883
799.7885, 66.69336
800.2706, 69.04102
800.7527, 41.07422
801.2349, 28.51172
801.7170, 65.54492
802.1991, 112.5898
802.6812, 107.5723
803.1633, 50.52734
803.6454, 12.06641
804.1276, 7.173828
804.6097, 11.85352
805.0918, 16.55859
805.5739, 27.49023
806.0560, 59.47461
806.5381, 106.0957
807.0203, 140.0527
807.5024, 143.3340
807.9845, 133.2598
808.4666, 134.1328
808.9487, 142.3574
809.4308, 142.4863
809.9130, 132.6133
810.3951, 121.4629
810.8772, 113.2344
811.3593, 109.5352
811.8414, 113.6016
812.3235, 128.7734
812.8057, 138.7578
813.2878, 141.4590
813.7699, 141.1387
814.2520, 142.3496
814.7341, 138.7891
815.2162, 114.3535
815.6984, 73.10352
816.1805, 53.82617
816.6626, 96.16406
817.1447, 139.4863
817.6268, 129.7383
818.1089, 95.91211
818.5911, 85.59570
819.0732, 102.0781
819.5553, 118.5742
820.0374, 118.7090
820.5195, 107.3223
821.0016, 86.84961
821.4838, 56.70312
821.9659, 39.23828
822.4480, 37.42773
822.9301, 43.94727
823.4122, 52.16992
823.8943, 64.27148
824.3765, 89.84180
824.8586, 136.0234
825.3407, 152.8887
825.8228, 105.7070
826.3049, 68.79688
826.7870, 77.57617
827.2692, 104.0391
827.7513, 120.2324
828.2334, 121.5020
828.7155, 116.2500
829.1976, 105.8672
829.6797, 96.95117
830.1619, 90.63672
830.6440, 89.32031
831.1261, 103.5801
831.6082, 132.1660
832.0903, 154.3301
832.5724, 158.0605
833.0546, 148.6250
833.5367, 133.4805
834.0188, 109.3887
834.5009, 103.3145
834.9830, 127.9375
835.4651, 144.6992
835.9473, 135.1465
836.4294, 114.4531
836.9115, 97.32422
837.3936, 84.02344
837.8757, 76.27539
838.3578, 74.20703
838.8400, 78.09766
839.3221, 91.30273
839.8042, 108.4375
840.2863, 128.5762
840.7684, 147.7812
841.2505, 156.3848
841.7327, 148.9941
842.2148, 135.0684
842.6969, 126.2031
843.1790, 119.7422
843.6611, 104.9277
844.1432, 82.29492
844.6254, 68.42383
845.1075, 70.98242
845.5896, 80.59375
846.0717, 84.69727
846.5538, 83.17383
847.0359, 85.77734
847.5181, 95.79492
848.0002, 103.8555
848.4823, 112.8145
848.9644, 113.8770
849.4465, 90.85938
849.9286, 56.01172
850.4108, 46.05859
850.8929, 80.59180
851.3750, 107.8965
851.8571, 107.9336
852.3392, 95.01367
852.8214, 71.61914
853.3035, 46.30078
853.7856, 36.15039
854.2677, 45.27344
854.7498, 54.77539
855.2319, 41.24609
855.7141, 18.14062
856.1962, 18.46289
856.6783, 39.21875
857.1604, 61.72461
857.6425, 82.07617
858.1246, 91.93555
858.6068, 82.43945
859.0889, 59.27148
859.5710, 43.51172
860.0531, 36.41602
860.5352, 33.58594
861.0173, 37.72461
861.4995, 42.33008
861.9816, 38.69727
862.4637, 36.76953
862.9458, 56.92188
863.4279, 103.1387
863.9100, 125.3301
864.3922, 83.23047
864.8743, 46.20117
865.3564, 60.08203
865.8385, 93.69531
866.3206, 111.5840
866.8027, 109.7461
867.2849, 99.18164
867.7670, 84.37305
868.2491, 70.49805
868.7312, 63.14258
869.2133, 62.37695
869.6954, 73.55469
870.1776, 95.10156
870.6597, 103.4160
871.1418, 86.86719
871.6239, 61.00195
872.1060, 47.93945
872.5881, 47.59766
873.0703, 39.14062
873.5524, 15.56445
874.0345, 2.271484
874.5166, 9.419922
874.9987, 23.28320
875.4808, 34.55664
875.9630, 43.79297
876.4451, 53.27148
876.9272, 68.85156
877.4093, 72.27539
877.8914, 43.01953
878.3735, 17.83008
878.8557, 29.72070
879.3378, 56.09375
879.8199, 54.35742
880.3020, 18.81445
880.7841, 6.730469
881.2662, 23.43164
881.7484, 64.10352
882.2305, 47.32617
882.7126, 0.5390630
883.1947, 1.906250
883.6768, 45.30078
884.1589, 80.54492
884.6411, 62.75977
885.1232, 19.16797
885.6053, 5.644531
886.0874, 23.18359
886.5695, 28.63281
887.0516, 17.16406
887.5338, 10.58789
888.0159, 20.54297
888.4980, 33.37109
888.9801, 30.78711
889.4622, 12.87695
889.9443, 5.636719
890.4265, 19.28906
890.9086, 28.80859
891.3907, 31.46680
891.8728, 29.85938
892.3549, 23.14844
892.8370, 14.09375
893.3192, 6.324219
893.8013, 9.7655997E-02
894.2834, 0.6347660
894.7655, 16.85547
895.2476, 36.11914
895.7297, 49.29102
896.2119, 57.59766
896.6940, 65.65234
897.1761, 72.91016
897.6582, 70.16406
898.1403, 47.77734
898.6224, 21.56445
899.1046, 20.56055
899.5867, 38.75781
900.0688, 49.46484
900.5509, 50.26953
901.0330, 50.69531
901.5151, 55.64844
901.9973, 60.26953
902.4794, 57.25391
902.9615, 46.63477
903.4436, 33.73047
903.9257, 16.23438
904.4078, 2.562500
904.8900, 5.300781
905.3721, 9.015625
905.8542, 6.714844
906.3363, 1.298828
906.8184, 2.320313
907.3005, 14.22852
907.7827, 21.61133
908.2648, 24.50000
908.7469, 20.18359
909.2290, 0.9726560
909.7111, 22.47461
910.1932, 38.55859
910.6754, 45.25977
911.1575, 44.41406
911.6396, 30.82422
912.1217, 18.87109
912.6038, 25.16406
913.0859, 37.22070
913.5681, 33.64258
914.0502, 18.06250
914.5323, 11.55469
915.0144, 23.18359
915.4965, 39.67969
915.9786, 45.54688
916.4607, 43.32422
916.9428, 41.45703
917.4249, 40.04297
917.9070, 40.20508
918.3892, 42.68164
918.8713, 43.67578
919.3534, 41.26367
919.8355, 33.98047
920.3176, 21.35156
920.7997, 3.230469
921.2819, 4.087891
921.7640, 64.89062
922.2461, 109.6445
922.7282, 99.32617
923.2103, 70.35938
923.6924, 72.80273
924.1746, 104.4160
924.6567, 113.1484
925.1388, 75.95508
925.6209, 44.52148
926.1030, 26.99219
926.5851, 18.92383
927.0673, 19.59375
927.5494, 26.38281
928.0315, 36.72070
928.5136, 50.03516
928.9957, 62.23242
929.4778, 70.24219
929.9600, 77.28711
930.4421, 89.85156
930.9242, 101.2852
931.4063, 101.9902
931.8884, 92.20508
932.3705, 78.45117
932.8527, 63.56055
933.3348, 52.39258
933.8169, 56.25977
934.2990, 67.76172
934.7811, 63.23828
935.2632, 44.64844
935.7454, 33.82227
936.2275, 38.00000
936.7096, 43.56055
937.1917, 36.64648
937.6738, 21.06445
938.1559, 9.667969
938.6381, 1.240234
939.1202, 8.187500
939.6023, 36.94922
940.0844, 62.54297
940.5665, 71.48047
941.0486, 70.97461
941.5308, 71.75977
942.0129, 73.69922
942.4950, 77.46289
942.9771, 89.59766
943.4592, 93.35742
943.9413, 72.34375
944.4235, 56.25977
944.9056, 75.68164
945.3877, 110.9238
945.8698, 114.9219
946.3519, 72.56250
946.8340, 42.11719
947.3162, 48.01758
947.7983, 58.59766
948.2804, 57.68359
948.7625, 52.46094
949.2446, 50.94531
949.7267, 54.24023
950.2089, 61.52930
950.6910, 74.58203
951.1731, 84.66992
951.6552, 87.21289
952.1373, 81.35352
952.6194, 57.24219
953.1016, 25.33008
953.5837, 10.31641
954.0658, 18.49219
954.5479, 38.11328
955.0300, 61.87500
955.5121, 86.82227
955.9943, 114.0996
956.4764, 138.2031
956.9585, 129.1094
957.4406, 86.85938
957.9227, 56.99609
958.4048, 60.99219
958.8870, 79.21094
959.3691, 85.31445
959.8512, 81.67773
960.3333, 91.57031
960.8154, 119.2539
961.2975, 125.2129
961.7797, 95.13281
962.2618, 67.71484
962.7439, 71.29688
963.2260, 89.73438
963.7081, 87.13477
964.1902, 56.64844
964.6724, 42.55469
965.1545, 54.14062
965.6366, 65.69531
966.1187, 76.25000
966.6008, 81.02734
967.0829, 72.06836
967.5651, 54.30078
968.0472, 46.00586
968.5293, 52.19336
969.0114, 57.30664
969.4935, 57.52148
969.9756, 58.29883
970.4578, 64.34180
970.9399, 70.59766
971.4220, 70.28516
971.9041, 64.38867
972.3862, 60.68555
972.8683, 63.41602
973.3505, 64.99219
973.8326, 59.18945
974.3147, 52.57031
974.7968, 58.17578
975.2789, 64.50391
975.7610, 43.42578
976.2432, 5.287109
976.7253, 41.32617
977.2074, 32.00000
977.6895, 10.00195
978.1716, 17.73633
978.6537, 34.11328
979.1359, 10.73242
979.6180, 40.77539
980.1001, 62.90625
980.5822, 35.85352
981.0643, 2.941406
981.5464, 17.22266
982.0286, 14.86133
982.5107, 11.61914
982.9928, 7.716797
983.4749, 4.869141
983.9570, 3.164063
984.4391, 0.1425780
984.9213, 6.349609
985.4034, 16.08203
985.8855, 33.59570
986.3676, 55.81445
986.8497, 48.56641
987.3318, 7.162109
987.8140, 3.869141
988.2961, 35.37109
988.7782, 69.28320
989.2603, 57.23047
989.7424, 24.68555
990.2245, 28.15039
990.7067, 75.81641
991.1888, 90.32422
991.6709, 56.04102
992.1530, 26.44727
992.6351, 9.937500
993.1172, 7.720703
993.5994, 25.50000
994.0815, 57.06250
994.5636, 84.50000
995.0457, 111.6367
995.5278, 123.3711
996.0099, 103.9590
996.4921, 89.24805
996.9742, 91.86523
997.4563, 100.2754
997.9384, 107.9102
998.4205, 113.2090
998.9026, 111.1797
999.3848, 95.99805
999.8669, 87.02734
1000.349, 93.64453
1000.831, 100.8809
1001.313, 105.5234
1001.795, 104.4961
1002.277, 89.69531
1002.760, 65.73828
1003.242, 52.62500
1003.724, 59.98242
1004.206, 71.13867
1004.688, 83.11914
1005.170, 91.50195
1005.652, 93.30078
1006.134, 89.04297
1006.617, 75.11719
1007.099, 54.85547
1007.581, 45.72852
1008.063, 61.44531
1008.545, 77.98438
1009.027, 73.83789
1009.509, 61.64844
1009.991, 52.35156
1010.473, 48.34570
1010.956, 54.66406
1011.438, 70.49023
1011.920, 84.51953
1012.402, 88.93164
1012.884, 88.18945
1013.366, 86.56055
1013.848, 84.23633
1014.330, 80.96484
1014.813, 77.40430
1015.295, 76.54102
1015.777, 78.88086
1016.259, 80.08594
1016.741, 75.92188
1017.223, 69.40234
1017.705, 62.80469
1018.187, 58.86523
1018.669, 72.18359
1019.152, 100.5996
1019.634, 119.3262
1020.116, 119.3281
1020.598, 111.6465
1021.080, 106.5254
1021.562, 103.9453
1022.044, 105.5664
1022.526, 110.5625
1023.008, 107.6074
1023.491, 95.56836
1023.973, 87.34180
1024.455, 88.40234
1024.937, 94.09766
1025.419, 98.85547
1025.901, 103.8789
1026.383, 117.4961
1026.865, 140.9375
1027.348, 151.9727
1027.830, 146.8203
1028.312, 138.3438
1028.794, 131.5117
1029.276, 126.6133
1029.758, 124.3770
1030.240, 124.4199
1030.722, 123.4043
1031.204, 120.8145
1031.687, 119.2656
1032.169, 117.3770
1032.651, 122.4863
1033.133, 141.7402
1033.615, 163.1133
1034.097, 169.5547
1034.579, 160.5488
1035.061, 155.2246
1035.544, 155.9043
1036.026, 154.4473
1036.508, 146.0352
1036.990, 144.9707
1037.472, 164.8633
1037.954, 184.3086
1038.436, 171.0293
1038.918, 126.3906
1039.401, 103.3730
1039.883, 115.9004
1040.365, 127.4004
1040.847, 140.1445
1041.329, 145.6719
1041.811, 136.5898
1042.293, 120.8398
1042.775, 103.9258
1043.257, 86.28516
1043.740, 87.41992
1044.222, 130.5566
1044.704, 156.7988
1045.186, 157.8574
1045.668, 147.5664
1046.150, 126.1914
1046.632, 101.9551
1047.114, 78.39844
1047.596, 56.51562
1048.079, 61.90039
1048.561, 130.3418
1049.043, 176.0586
1049.525, 180.4902
1050.007, 169.7754
1050.489, 146.0879
1050.971, 120.8516
1051.453, 105.3809
1051.936, 100.4082
1052.418, 105.0547
1052.900, 129.8418
1053.382, 145.0312
1053.864, 142.3047
1054.346, 132.3457
1054.828, 108.2715
1055.310, 88.57617
1055.792, 101.7363
1056.275, 142.3145
1056.757, 169.2090
1057.239, 176.2363
1057.721, 163.5098
1058.203, 105.4805
1058.685, 56.06641
1059.167, 44.42188
1059.649, 59.12305
1060.131, 96.84180
1060.614, 147.5586
1061.096, 174.7422
1061.578, 156.9141
1062.060, 141.8398
1062.542, 154.8105
1063.024, 166.0703
1063.506, 153.8594
1063.988, 133.9785
1064.471, 122.6758
1064.953, 121.5430
1065.435, 129.6504
1065.917, 152.1191
1066.399, 164.2500
1066.881, 147.4180
1067.363, 127.8672
1067.845, 119.6328
1068.328, 117.7734
1068.810, 114.5332
1069.292, 112.3145
1069.774, 124.5176
1070.256, 161.1855
1070.738, 177.4531
1071.220, 128.6406
1071.702, 83.78906
1072.184, 90.46094
1072.667, 115.7012
1073.149, 126.3418
1073.631, 123.9375
1074.113, 122.4375
1074.595, 125.3438
1075.077, 131.4941
1075.559, 141.3613
1076.041, 150.5566
1076.523, 157.7480
1077.006, 163.6348
1077.488, 166.3633
1077.970, 167.8145
1078.452, 175.5820
1078.934, 191.3340
1079.416, 192.7871
1079.898, 150.8711
1080.380, 116.5801
1080.862, 129.7148
1081.345, 150.8457
1081.827, 139.3145
1082.309, 110.6504
1082.791, 102.3613
1083.273, 119.8965
1083.755, 130.3047
1084.237, 113.5137
1084.719, 95.54297
1085.202, 90.24023
1085.684, 87.37500
1086.166, 71.86328
1086.648, 56.66406
1087.130, 67.48633
1087.612, 103.4219
1088.094, 132.0918
1088.576, 143.3867
1089.058, 142.6133
1089.541, 125.4238
1090.023, 103.4355
1090.505, 76.75586
1090.987, 56.62891
1091.469, 60.17578
1091.951, 83.88086
1092.433, 105.7891
1092.915, 122.5293
1093.397, 126.7988
1093.880, 104.7383
1094.362, 81.77539
1094.844, 69.62695
1095.326, 66.86914
1095.808, 74.33398
1096.290, 88.60938
1096.772, 102.1660
1097.254, 114.3477
1097.737, 119.2676
1098.219, 110.7246
1098.701, 99.75977
1099.183, 87.60938
1099.665, 78.58594
1100.147, 81.41797
1100.629, 88.99023
1101.111, 82.74805
1101.594, 58.00781
1102.076, 43.78125
1102.558, 66.76758
1103.040, 75.38867
1103.522, 34.68359
1104.004, 7.609375
1104.486, 20.08008
1104.968, 10.28906
1105.450, 14.34180
1105.932, 51.33398
1106.415, 67.75977
1106.897, 37.11133
1107.379, 15.29102
1107.861, 21.93750
1108.343, 29.30664
1108.825, 19.51953
1109.307, 4.664063
1109.789, 3.826172
1110.272, 4.076172
1110.754, 11.86133
1111.236, 70.69727
1111.718, 94.37500
1112.200, 41.67383
1112.682, 2.972656
1113.164, 2.259766
1113.646, 11.89453
1114.129, 11.65430
1114.611, 0.8671880
1115.093, 7.878906
1115.575, 19.00586
1116.057, 12.82031
1116.539, 38.48438
1117.021, 64.59961
1117.503, 32.55859
1117.985, 5.783203
1118.468, 19.72852
1118.950, 15.88672
1119.432, 3.898438
1119.914, 17.64062
1120.396, 28.53125
1120.878, 22.65430
1121.360, 18.53125
1121.842, 14.85156
1122.324, 19.95312
1122.807, 42.24805
1123.289, 70.20898
1123.771, 92.52539
1124.253, 107.5000
1124.735, 98.55664
1125.217, 55.67578
1125.699, 22.72852
1126.181, 0.9863280
1126.664, 3.091797
1127.146, 29.30469
1127.628, 60.86328
1128.110, 56.00586
1128.592, 29.79297
1129.074, 30.05664
1129.556, 61.51758
1130.038, 65.75195
1130.521, 38.12500
1131.003, 16.24219
1131.485, 9.285156
1131.967, 2.458984
1132.449, 15.62695
1132.931, 30.99805
1133.413, 18.24023
1133.895, 17.98438
1134.377, 48.38672
1134.859, 72.77344
1135.342, 78.30078
1135.824, 63.50195
1136.306, 40.68555
1136.788, 14.84375
1137.270, 3.287109
1137.752, 4.2969000E-02
1138.234, 14.67188
1138.716, 12.01758
1139.199, 1.517578
1139.681, 4.728516
1140.163, 28.87891
1140.645, 51.07812
1141.127, 64.72266
1141.609, 64.10742
1142.091, 43.76172
1142.573, 18.34375
1143.056, 9.166016
1143.538, 9.300781
1144.020, 4.007813
1144.502, 3.570313
1144.984, 2.140625
1145.466, 6.798828
1145.948, 8.250000
1146.430, 3.972656
1146.912, 14.43555
1147.395, 7.210938
1147.877, 5.857422
1148.359, 6.791016
1148.841, 8.162109
1149.323, 36.31445
1149.805, 77.39062
1150.287, 95.58789
1150.769, 85.38086
1151.251, 72.73242
1151.734, 69.17773
1152.216, 71.53516
1152.698, 84.84375
1153.180, 95.87891
1153.662, 90.03125
1154.144, 77.62891
1154.626, 69.77930
1155.108, 68.86719
1155.591, 78.46094
1156.073, 102.4863
1156.555, 117.6836
1157.037, 104.5332
1157.519, 96.21289
1158.001, 115.2070
1158.483, 135.4707
1158.965, 134.3379
1159.448, 121.8086
1159.930, 117.6387
1160.412, 123.2207
1160.894, 122.2344
1161.376, 100.0234
1161.858, 91.13086
1162.340, 115.5234
1162.822, 132.1992
1163.304, 118.0312
1163.786, 96.53516
1164.269, 89.58984
1164.751, 93.65625
1165.233, 96.16602
1165.715, 95.57617
1166.197, 101.7578
1166.679, 120.4707
1167.161, 129.2949
1167.643, 120.3535
1168.126, 110.1191
1168.608, 109.2559
1169.090, 110.3281
1169.572, 101.1836
1170.054, 84.19727
1170.536, 79.88672
1171.018, 89.30859
1171.500, 88.39648
1171.983, 74.35742
1172.465, 67.00195
1172.947, 72.63672
1173.429, 88.08789
1173.911, 113.4453
1174.393, 141.1836
1174.875, 155.2363
1175.357, 158.3691
1175.839, 160.0664
1176.322, 160.1465
1176.804, 158.4922
1177.286, 156.4844
1177.768, 161.5762
1178.250, 176.7227
1178.732, 187.5625
1179.214, 178.1211
1179.696, 159.9531
1180.178, 143.5391
1180.661, 131.8672
1181.143, 131.6172
1181.625, 139.3574
1182.107, 149.6289
1182.589, 159.4375
1183.071, 161.3965
1183.553, 148.5742
1184.035, 141.3828
1184.518, 159.7832
1185.000, 180.5508
1185.482, 188.9844
1185.964, 189.2129
1186.446, 184.3496
1186.928, 176.1875
1187.410, 166.2461
1187.892, 154.7168
1188.375, 146.8027
1188.857, 142.7793
1189.339, 143.8789
1189.821, 161.0605
1190.303, 169.6406
1190.785, 141.4219
1191.267, 115.4199
1191.749, 145.4863
1192.231, 206.1016
1192.714, 204.6484
1193.196, 112.6562
1193.678, 71.21094
1194.160, 99.35352
1194.642, 126.5801
1195.124, 138.8438
1195.606, 150.2305
1196.088, 171.4141
1196.570, 186.4922
1197.053, 169.0371
1197.535, 129.5391
1198.017, 122.0234
1198.499, 145.5820
1198.981, 158.7949
1199.463, 159.9883
1199.945, 156.5957
1200.427, 149.7676
1200.910, 147.6484
1201.392, 155.3945
1201.874, 167.2031
1202.356, 181.6152
1202.838, 190.0957
1203.320, 163.9336
1203.802, 120.4199
1204.284, 98.14453
1204.766, 96.67383
1205.249, 106.7812
1205.731, 122.8555
1206.213, 131.0742
1206.695, 116.2969
1207.177, 103.9570
1207.659, 126.3262
1208.141, 148.1094
1208.623, 125.3242
1209.105, 92.54297
1209.588, 105.7578
1210.070, 148.4961
1210.552, 152.3906
1211.034, 97.23047
1211.516, 65.05078
1211.998, 95.53516
1212.480, 120.8027
1212.962, 119.0527
1213.445, 114.6172
1213.927, 122.2441
1214.409, 132.1602
1214.891, 133.9199
1215.373, 128.6484
1215.855, 120.7129
1216.337, 107.2871
1216.819, 103.9609
1217.302, 113.2578
1217.784, 124.2520
1218.266, 137.0879
1218.748, 138.4316
1219.230, 119.1641
1219.712, 92.78711
1220.194, 75.80078
1220.676, 67.00977
1221.158, 62.43359
1221.641, 62.33203
1222.123, 74.74023
1222.605, 93.95898
1223.087, 82.01172
1223.569, 36.36328
1224.051, 5.576172
1224.533, 17.30664
1225.015, 40.85938
1225.497, 46.53320
1225.980, 45.94336
1226.462, 52.01367
1226.944, 60.49805
1227.426, 68.45117
1227.908, 72.91406
1228.390, 65.65039
1228.872, 48.28516
1229.354, 40.02148
1229.837, 49.14062
1230.319, 61.78906
1230.801, 80.80664
1231.283, 92.42383
1231.765, 85.25391
1232.247, 74.10547
1232.729, 72.39844
1233.211, 73.84375
1233.693, 64.43750
1234.176, 44.99023
1234.658, 36.44922
1235.140, 42.03320
1235.622, 49.25977
1236.104, 57.71094
1236.586, 69.05859
1237.068, 86.00000
1237.550, 94.08594
1238.032, 80.88281
1238.515, 60.75977
1238.997, 58.75586
1239.479, 69.54102
1239.961, 73.07617
1240.443, 69.87891
1240.925, 60.74609
1241.407, 47.32031
1241.889, 32.37109
1242.372, 18.82422
1242.854, 21.56641
1243.336, 53.48438
1243.818, 81.84961
1244.300, 70.36719
1244.782, 46.90625
1245.264, 31.51758
1245.746, 25.98047
1246.229, 41.92578
1246.711, 64.32617
1247.193, 61.26172
1247.675, 30.29102
1248.157, 3.267578
1248.639, 19.55078
1249.121, 22.69922
1249.603, 20.24805
1250.085, 50.29883
1250.568, 38.54688
1251.050, 20.92773
1251.532, 18.71680
1252.014, 27.85938
1252.496, 44.79883
1252.978, 67.23047
1253.460, 65.07422
1253.942, 33.53711
1254.424, 37.65039
1254.907, 83.32031
1255.389, 97.02344
1255.871, 59.05273
1256.353, 13.97266
1256.835, 10.53516
1257.317, 15.29297
1257.799, 8.357422
1258.281, 41.20898
1258.764, 45.11328
1259.246, 35.20312
1259.728, 43.58594
1260.210, 60.17578
1260.692, 48.92773
1261.174, 12.09180
1261.656, 2.707031
1262.138, 29.59375
1262.620, 51.39844
1263.103, 21.65039
1263.585, 4.994141
1264.067, 4.408203
1264.549, 7.900391
1265.031, 27.66797
1265.513, 47.43945
1265.995, 57.74609
1266.477, 59.42383
1266.959, 56.40625
1267.442, 44.33398
1267.924, 39.01758
1268.406, 62.82422
1268.888, 71.81641
1269.370, 57.78711
1269.852, 38.57617
1270.334, 22.13086
1270.816, 16.56250
1271.299, 32.83203
1271.781, 56.35938
1272.263, 68.80078
1272.745, 76.60938
1273.227, 69.77344
1273.709, 57.12305
1274.191, 63.24805
1274.673, 86.77344
1275.156, 86.76367
1275.638, 55.83398
1276.120, 35.61914
1276.602, 48.58984
1277.084, 62.86719
1277.566, 63.91016
1278.048, 60.30273
1278.530, 52.62500
1279.012, 46.75000
1279.495, 50.41602
1279.977, 59.82617
1280.459, 67.37891
1280.941, 72.04492
1281.423, 61.28906
1281.905, 30.99609
1282.387, 11.58008
1282.869, 5.890625
1283.351, 10.40820
1283.834, 26.12500
1284.316, 35.18164
1284.798, 24.42969
1285.280, 6.978516
1285.762, 0.2656250
1286.244, 0.0000000E+00
##END=



