##NAMES=Cuproiridsite
##RRUFFID=R070035
##IDEAL CHEMISTRY=Cu^2+^Ir^3+^_2_S^2-^_4_
##LOCALITY=Miass River, Urals, Russia
##OWNER=RRUFF
##SOURCE=Michael Scott
##DESCRIPTION=Iron-black metallic polished fragment embedded in epoxy
##STATUS=The identification of this mineral has been confirmed only by chemical analysis
##URL=rruff.info/R070035
##MEASURED CHEMISTRY=gray inclusion in the dark phase: (Cu_0.67_Ni_0.17_Fe_0.16_)_Σ=1_(Ir_1.94_Pt_0.04_Ru_0.02_)_Σ=2_S_4.00_ trace amounts of Os.
118.3625, 0.0000000E+00
118.8447, 90.61401
119.3268, 163.0283
119.8089, 199.8877
120.2910, 219.9121
120.7731, 145.6777
121.2552, 59.62793
121.7373, 8.843262
122.2195, 40.30615
122.7016, 42.54199
123.1837, 32.29053
123.6658, 29.75684
124.1479, 22.01465
124.6300, 7.017090
125.1122, 61.47656
125.5943, 134.3076
126.0764, 215.8291
126.5585, 306.4541
127.0406, 413.1523
127.5227, 540.7119
128.0049, 687.9521
128.4870, 854.1562
128.9691, 1034.442
129.4512, 1237.977
129.9333, 1500.172
130.4154, 1826.967
130.8976, 2165.295
131.3797, 2439.237
131.8618, 2658.163
132.3439, 2882.437
132.8260, 3153.202
133.3081, 3465.013
133.7903, 3736.179
134.2724, 3960.592
134.7545, 4161.801
135.2366, 4385.543
135.7187, 4633.853
136.2008, 4874.973
136.6829, 5096.215
137.1651, 5292.077
137.6472, 5482.377
138.1293, 5673.816
138.6114, 5857.422
139.0935, 6011.781
139.5756, 6127.660
140.0578, 6236.290
140.5399, 6370.624
141.0220, 6553.057
141.5041, 6688.719
141.9862, 6752.084
142.4683, 6742.312
142.9505, 6747.984
143.4326, 6779.035
143.9147, 6815.506
144.3968, 6828.002
144.8789, 6807.887
145.3610, 6782.883
145.8432, 6761.844
146.3253, 6746.424
146.8074, 6722.797
147.2895, 6673.109
147.7716, 6619.338
148.2537, 6605.900
148.7358, 6654.393
149.2180, 6717.740
149.7001, 6781.803
150.1822, 6811.830
150.6643, 6892.033
151.1464, 7047.574
151.6285, 7257.318
152.1107, 7455.707
152.5928, 7644.523
153.0749, 7817.361
153.5570, 7969.668
154.0391, 8074.221
154.5212, 8192.004
155.0034, 8348.160
155.4855, 8535.898
155.9676, 8692.354
156.4497, 8802.996
156.9318, 8878.785
157.4139, 8928.105
157.8961, 8934.357
158.3782, 8931.357
158.8603, 8932.363
159.3424, 8940.713
159.8245, 8931.352
160.3066, 8884.496
160.7887, 8818.113
161.2709, 8755.793
161.7530, 8705.719
162.2351, 8661.195
162.7172, 8622.051
163.1993, 8591.242
163.6814, 8552.479
164.1636, 8483.309
164.6457, 8400.559
165.1278, 8338.129
165.6099, 8342.297
166.0920, 8354.875
166.5741, 8326.859
167.0563, 8231.129
167.5384, 8133.119
168.0205, 8071.541
168.5026, 8042.691
168.9847, 8031.654
169.4668, 8037.520
169.9490, 8053.695
170.4311, 8073.059
170.9132, 8097.309
171.3953, 8119.984
171.8774, 8136.746
172.3595, 8146.902
172.8416, 8151.201
173.3238, 8151.111
173.8059, 8146.646
174.2880, 8138.668
174.7701, 8129.090
175.2522, 8113.533
175.7343, 8079.572
176.2165, 7999.094
176.6986, 7922.764
177.1807, 7893.746
177.6628, 7887.873
178.1449, 7849.389
178.6270, 7719.824
179.1092, 7550.672
179.5913, 7438.037
180.0734, 7391.938
180.5555, 7364.219
181.0376, 7305.057
181.5197, 7216.943
182.0019, 7124.031
182.4840, 7023.508
182.9661, 6926.414
183.4482, 6866.316
183.9303, 6855.785
184.4124, 6857.062
184.8945, 6822.797
185.3767, 6752.004
185.8588, 6661.598
186.3409, 6543.953
186.8230, 6409.539
187.3051, 6303.207
187.7872, 6236.914
188.2694, 6193.410
188.7515, 6141.309
189.2336, 6081.965
189.7157, 6018.781
190.1978, 5956.145
190.6799, 5893.672
191.1621, 5829.918
191.6442, 5758.219
192.1263, 5689.188
192.6084, 5660.234
193.0905, 5677.227
193.5726, 5694.000
194.0548, 5655.418
194.5369, 5562.102
195.0190, 5502.496
195.5011, 5520.480
195.9832, 5591.027
196.4653, 5579.582
196.9474, 5472.230
197.4296, 5330.406
197.9117, 5214.473
198.3938, 5125.020
198.8759, 5055.277
199.3580, 5011.441
199.8401, 4990.855
200.3223, 4948.887
200.8044, 4879.242
201.2865, 4801.797
201.7686, 4744.379
202.2507, 4711.250
202.7328, 4676.148
203.2150, 4631.840
203.6971, 4578.559
204.1792, 4508.629
204.6613, 4415.668
205.1434, 4314.879
205.6255, 4227.023
206.1077, 4149.223
206.5898, 4095.625
207.0719, 4084.422
207.5540, 4129.879
208.0361, 4135.816
208.5182, 4092.207
209.0004, 4016.023
209.4825, 3946.258
209.9646, 3888.539
210.4467, 3822.371
210.9288, 3730.441
211.4109, 3597.262
211.8931, 3505.180
212.3752, 3471.938
212.8573, 3476.633
213.3394, 3458.129
213.8215, 3405.250
214.3036, 3349.859
214.7858, 3309.836
215.2679, 3291.051
215.7500, 3271.902
216.2321, 3256.410
216.7142, 3239.242
217.1963, 3194.141
217.6785, 3102.328
218.1606, 3012.078
218.6427, 2961.883
219.1248, 2972.629
219.6069, 2963.801
220.0890, 2922.027
220.5712, 2850.352
221.0533, 2780.086
221.5354, 2708.883
222.0175, 2642.832
222.4996, 2586.711
222.9817, 2541.562
223.4638, 2501.867
223.9460, 2468.570
224.4281, 2442.527
224.9102, 2409.605
225.3923, 2366.125
225.8744, 2320.301
226.3565, 2279.117
226.8387, 2244.617
227.3208, 2213.258
227.8029, 2190.715
228.2850, 2176.879
228.7671, 2133.633
229.2492, 2041.070
229.7314, 1940.449
230.2135, 1876.039
230.6956, 1866.355
231.1777, 1864.059
231.6598, 1865.234
232.1419, 1872.004
232.6241, 1838.012
233.1062, 1739.465
233.5883, 1626.273
234.0704, 1558.301
234.5525, 1555.684
235.0346, 1552.363
235.5167, 1535.996
235.9989, 1510.191
236.4810, 1458.109
236.9631, 1348.496
237.4452, 1236.234
237.9273, 1201.910
238.4094, 1293.133
238.8916, 1383.531
239.3737, 1437.695
239.8558, 1449.551
240.3379, 1440.965
240.8200, 1408.867
241.3021, 1356.938
241.7843, 1289.953
242.2664, 1189.461
242.7485, 1107.430
243.2306, 1061.656
243.7127, 1058.613
244.1948, 1054.273
244.6770, 1044.027
245.1591, 1033.316
245.6412, 1037.820
246.1233, 1073.391
246.6054, 1096.926
247.0875, 1094.957
247.5696, 1062.402
248.0518, 1007.000
248.5339, 906.5039
249.0160, 792.9453
249.4981, 733.3906
249.9802, 761.1445
250.4623, 793.5508
250.9445, 796.2539
251.4266, 747.1953
251.9087, 729.2891
252.3908, 762.3633
252.8729, 817.2578
253.3550, 834.0078
253.8372, 807.6875
254.3193, 749.2148
254.8014, 649.1719
255.2835, 468.5703
255.7656, 370.1367
256.2477, 382.0898
256.7299, 463.1641
257.2120, 522.9922
257.6941, 566.6328
258.1762, 583.5352
258.6583, 560.8516
259.1404, 469.4570
259.6226, 414.0703
260.1047, 410.3672
260.5868, 438.5000
261.0689, 458.4336
261.5510, 479.4883
262.0331, 477.8320
262.5153, 432.8008
262.9974, 320.8242
263.4795, 234.7656
263.9616, 178.6016
264.4437, 149.6953
264.9258, 148.0898
265.4079, 195.8984
265.8900, 219.2305
266.3722, 160.5859
266.8543, 17.65625
267.3364, 100.6992
267.8185, 52.42969
268.3006, 73.59766
268.7827, 157.0742
269.2649, 194.0938
269.7470, 201.0117
270.2291, 171.6289
270.7112, 92.64844
271.1933, 71.44531
271.6754, 134.5156
272.1576, 231.3438
272.6397, 237.5430
273.1218, 131.3984
273.6039, 18.87109
274.0860, 45.31250
274.5681, 56.24609
275.0503, 68.13281
275.5324, 84.17969
276.0145, 98.99219
276.4966, 99.75391
276.9787, 84.32422
277.4608, 62.88281
277.9430, 35.54688
278.4251, 4.519531
278.9072, 6.542969
279.3893, 52.84375
279.8714, 112.2148
280.3535, 123.9883
280.8357, 84.47266
281.3178, 38.75781
281.7999, 5.031250
282.2820, 17.33594
282.7641, 21.71094
283.2462, 3.824219
283.7284, 24.46484
284.2105, 47.31250
284.6926, 64.64844
285.1747, 65.53125
285.6568, 30.27344
286.1389, 34.93750
286.6211, 68.18359
287.1032, 65.03906
287.5853, 34.53516
288.0674, 28.05078
288.5495, 120.7539
289.0316, 186.5938
289.5137, 168.1445
289.9958, 91.21484
290.4780, 79.92188
290.9601, 154.1367
291.4422, 243.9414
291.9243, 248.6797
292.4064, 179.1250
292.8885, 105.6914
293.3707, 58.34375
293.8528, 34.01953
294.3349, 20.16797
294.8170, 16.51953
295.2991, 25.54297
295.7813, 66.92969
296.2634, 129.6250
296.7455, 170.9570
297.2276, 164.9727
297.7097, 125.0195
298.1918, 67.39062
298.6740, 13.84375
299.1561, 74.27344
299.6382, 40.57031
300.1203, 55.55078
300.6024, 129.3008
301.0845, 136.4375
301.5667, 101.7148
302.0488, 38.34375
302.5309, 55.05078
303.0130, 124.8008
303.4951, 93.16797
303.9772, 0.1679690
304.4594, 74.84766
304.9415, 91.65625
305.4236, 77.77734
305.9057, 48.56250
306.3878, 5.226563
306.8699, 23.05469
307.3521, 0.9296880
307.8342, 49.66016
308.3163, 81.62109
308.7984, 70.32422
309.2805, 43.27344
309.7626, 18.38672
310.2448, 4.222656
310.7269, 30.85156
311.2090, 83.37109
311.6911, 136.5430
312.1732, 157.5391
312.6553, 111.0625
313.1375, 52.02734
313.6196, 4.175781
314.1017, 32.87500
314.5838, 63.63281
315.0659, 107.5000
315.5480, 137.5273
316.0301, 129.8516
316.5122, 37.24219
316.9944, 54.15625
317.4765, 123.5781
317.9586, 170.0469
318.4407, 184.1875
318.9228, 120.3594
319.4049, 49.13281
319.8871, 18.01562
320.3692, 77.58594
320.8513, 130.6328
321.3334, 141.7734
321.8155, 124.8438
322.2976, 135.6562
322.7798, 237.6328
323.2619, 331.4766
323.7440, 366.9609
324.2261, 294.3438
324.7082, 225.2188
325.1903, 163.2500
325.6725, 111.9922
326.1546, 77.32812
326.6367, 72.26562
327.1188, 72.08594
327.6009, 65.41406
328.0830, 30.60156
328.5652, 28.21875
329.0473, 74.27344
329.5294, 150.5156
330.0115, 221.2891
330.4936, 305.0703
330.9757, 361.3203
331.4579, 378.1016
331.9400, 342.6016
332.4221, 299.2031
332.9042, 246.1484
333.3863, 190.2500
333.8684, 134.3125
334.3506, 60.32031
334.8327, 26.82031
335.3148, 69.61719
335.7969, 200.2109
336.2790, 260.6875
336.7611, 224.5312
337.2433, 152.9609
337.7254, 121.4844
338.2075, 141.8438
338.6896, 164.8594
339.1717, 176.5625
339.6538, 178.5078
340.1359, 203.6172
340.6180, 257.3125
341.1002, 312.1016
341.5823, 340.2109
342.0644, 342.4922
342.5465, 327.3125
343.0286, 290.7812
343.5107, 242.3594
343.9929, 207.5938
344.4750, 185.3516
344.9571, 179.3125
345.4392, 198.6719
345.9213, 238.7422
346.4034, 277.7891
346.8856, 316.2891
347.3677, 344.8438
347.8498, 332.4453
348.3319, 280.3828
348.8140, 232.7969
349.2961, 227.3750
349.7783, 253.3047
350.2604, 282.8203
350.7425, 312.4688
351.2246, 336.9531
351.7067, 353.9688
352.1888, 363.3438
352.6710, 362.2422
353.1531, 329.8594
353.6352, 292.5625
354.1173, 289.4766
354.5994, 330.3438
355.0815, 380.1172
355.5637, 424.3125
356.0458, 457.7969
356.5279, 472.2734
357.0100, 441.4375
357.4921, 401.7656
357.9742, 386.2656
358.4564, 399.3594
358.9385, 391.6328
359.4206, 304.0391
359.9027, 194.7656
360.3848, 129.8828
360.8669, 156.0156
361.3491, 202.4453
361.8312, 242.4688
362.3133, 274.7812
362.7954, 309.1875
363.2775, 355.9062
363.7596, 405.2578
364.2417, 449.8594
364.7238, 505.5156
365.2060, 532.7734
365.6881, 516.1953
366.1702, 462.5078
366.6523, 404.0859
367.1344, 288.9609
367.6165, 211.1797
368.0987, 220.5000
368.5808, 449.8125
369.0629, 574.4688
369.5450, 535.7734
370.0271, 397.8516
370.5092, 321.6250
370.9914, 340.1484
371.4735, 373.0938
371.9556, 392.7812
372.4377, 395.5078
372.9198, 396.1719
373.4019, 400.2422
373.8841, 402.1875
374.3662, 391.4766
374.8483, 361.6484
375.3304, 334.5078
375.8125, 309.8594
376.2946, 289.3672
376.7768, 309.0469
377.2589, 378.0078
377.7410, 450.2891
378.2231, 476.9844
378.7052, 457.1484
379.1873, 432.3750
379.6695, 407.0703
380.1516, 385.7812
380.6337, 389.9141
381.1158, 419.1875
381.5979, 452.5781
382.0800, 475.0312
382.5622, 486.5625
383.0443, 481.6328
383.5264, 452.8281
384.0085, 421.5547
384.4906, 416.8984
384.9727, 435.8984
385.4549, 466.1562
385.9370, 513.2031
386.4191, 562.8438
386.9012, 602.2891
387.3833, 636.1328
387.8654, 631.3438
388.3475, 489.0625
388.8297, 288.8984
389.3118, 186.0703
389.7939, 375.3047
390.2760, 603.3047
390.7581, 659.9062
391.2402, 532.1250
391.7224, 407.2578
392.2045, 385.4297
392.6866, 412.5781
393.1687, 434.9531
393.6508, 422.0391
394.1329, 417.1484
394.6151, 442.2344
395.0972, 491.0703
395.5793, 521.1094
396.0614, 525.9062
396.5435, 509.1875
397.0256, 471.5312
397.5078, 355.9297
397.9899, 292.7891
398.4720, 318.5781
398.9541, 403.4219
399.4362, 472.0312
399.9183, 518.2344
400.4005, 554.1562
400.8826, 586.3672
401.3647, 621.9297
401.8468, 628.0078
402.3289, 597.9453
402.8110, 544.1797
403.2932, 478.5391
403.7753, 388.8125
404.2574, 323.5859
404.7395, 297.5859
405.2216, 308.6562
405.7037, 347.3125
406.1859, 427.4141
406.6680, 490.2031
407.1501, 458.6875
407.6322, 334.1562
408.1143, 276.7656
408.5964, 343.0078
409.0786, 465.7500
409.5607, 480.5312
410.0428, 389.5469
410.5249, 293.2344
411.0070, 268.9688
411.4891, 288.7891
411.9713, 280.2578
412.4534, 228.6797
412.9355, 175.4766
413.4176, 168.4062
413.8997, 198.0078
414.3818, 234.1562
414.8639, 271.3438
415.3460, 304.6484
415.8282, 331.0234
416.3103, 352.0156
416.7924, 358.6953
417.2745, 329.5391
417.7566, 286.6562
418.2387, 256.9844
418.7209, 267.1641
419.2030, 280.9062
419.6851, 285.5938
420.1672, 281.5234
420.6493, 267.1328
421.1314, 222.2109
421.6136, 181.3281
422.0957, 166.1172
422.5778, 195.4922
423.0599, 221.4297
423.5420, 224.9062
424.0241, 223.3516
424.5063, 254.4766
424.9884, 371.5859
425.4705, 461.0469
425.9526, 487.6875
426.4347, 444.0781
426.9168, 402.2500
427.3990, 364.1406
427.8811, 328.4922
428.3632, 284.5781
428.8453, 224.4219
429.3274, 202.1250
429.8095, 238.3359
430.2917, 319.4297
430.7738, 376.0312
431.2559, 407.3906
431.7380, 422.4219
432.2201, 433.5000
432.7022, 438.2266
433.1844, 389.3516
433.6665, 259.4141
434.1486, 129.5312
434.6307, 162.4688
435.1128, 328.3047
435.5949, 459.4062
436.0771, 432.1953
436.5592, 330.2109
437.0413, 298.3906
437.5234, 342.2891
438.0055, 388.2422
438.4876, 358.9453
438.9697, 302.0312
439.4518, 287.6797
439.9340, 395.0156
440.4161, 494.3516
440.8982, 469.6016
441.3803, 353.1406
441.8624, 283.3281
442.3445, 381.3516
442.8267, 509.0234
443.3088, 568.8906
443.7909, 516.3281
444.2730, 465.2188
444.7551, 451.4062
445.2372, 451.8438
445.7194, 429.3438
446.2015, 326.7109
446.6836, 250.8438
447.1657, 239.3203
447.6478, 306.7109
448.1299, 343.0391
448.6121, 315.9688
449.0942, 291.0234
449.5763, 330.0469
450.0584, 474.6406
450.5405, 557.7188
451.0226, 543.0859
451.5048, 462.1953
451.9869, 402.7188
452.4690, 365.4844
452.9511, 345.6094
453.4332, 343.8047
453.9153, 362.3281
454.3975, 405.7109
454.8796, 480.0156
455.3617, 551.1016
455.8438, 576.3359
456.3259, 562.3438
456.8080, 528.3516
457.2902, 472.0078
457.7723, 405.2422
458.2544, 338.3828
458.7365, 273.1250
459.2186, 226.3438
459.7007, 208.2109
460.1829, 215.7656
460.6650, 249.5234
461.1471, 321.9922
461.6292, 391.2188
462.1113, 433.7188
462.5934, 456.1953
463.0755, 463.7578
463.5576, 444.7891
464.0398, 430.9922
464.5219, 441.5391
465.0040, 481.8828
465.4861, 503.9531
465.9682, 509.4844
466.4503, 490.8984
466.9325, 438.9688
467.4146, 301.5781
467.8967, 202.4297
468.3788, 156.7578
468.8609, 158.0312
469.3430, 184.4141
469.8252, 253.4062
470.3073, 312.1953
470.7894, 332.5156
471.2715, 309.9141
471.7536, 291.5469
472.2357, 280.2891
472.7179, 267.1484
473.2000, 235.1875
473.6821, 185.2656
474.1642, 142.3594
474.6463, 105.8516
475.1284, 86.36719
475.6106, 126.1172
476.0927, 220.7266
476.5748, 306.6328
477.0569, 307.2812
477.5390, 269.3359
478.0211, 279.4297
478.5033, 372.3984
478.9854, 470.2734
479.4675, 525.4297
479.9496, 540.0703
480.4317, 518.3125
480.9138, 433.3047
481.3960, 335.1797
481.8781, 244.0312
482.3602, 161.2812
482.8423, 101.6797
483.3244, 90.79688
483.8065, 90.10938
484.2887, 72.76562
484.7708, 31.99219
485.2529, 68.48438
485.7350, 11.45312
486.2171, 157.5859
486.6992, 245.8359
487.1813, 250.6328
487.6635, 243.3125
488.1456, 243.3750
488.6277, 249.9609
489.1098, 275.4844
489.5919, 328.8047
490.0740, 380.6641
490.5562, 408.2031
491.0383, 410.4688
491.5204, 375.8984
492.0025, 291.0078
492.4846, 183.2656
492.9667, 97.45312
493.4489, 32.67969
493.9310, 12.02344
494.4131, 40.87500
494.8952, 48.68750
495.3773, 16.35156
495.8594, 62.03906
496.3416, 132.2734
496.8237, 135.3828
497.3058, 109.7734
497.7879, 110.5391
498.2700, 215.4219
498.7521, 291.0547
499.2343, 242.2344
499.7164, 102.7656
500.1985, 13.78906
500.6806, 40.39844
501.1627, 99.58594
501.6448, 155.4688
502.1270, 207.6562
502.6091, 255.2266
503.0912, 304.8906
503.5733, 346.1562
504.0554, 368.3906
504.5375, 383.3438
505.0197, 351.1172
505.5018, 246.3672
505.9839, 89.69531
506.4660, 21.82031
506.9481, 86.53906
507.4302, 112.8203
507.9124, 84.03906
508.3945, 8.960938
508.8766, 14.14062
509.3587, 31.66406
509.8408, 81.06250
510.3229, 37.00000
510.8051, 73.09375
511.2871, 159.9062
511.7693, 162.0781
512.2514, 150.8750
512.7335, 243.0312
513.2156, 409.0781
513.6978, 509.6250
514.1799, 373.8984
514.6620, 182.5312
515.1441, 93.89844
515.6262, 166.6172
516.1083, 226.2812
516.5905, 197.6016
517.0726, 129.5000
517.5547, 88.47656
518.0368, 114.0625
518.5189, 120.8750
519.0010, 74.10156
519.4832, 14.35156
519.9653, 40.21875
520.4474, 38.53906
520.9295, 116.5938
521.4116, 131.2656
521.8937, 65.84375
522.3759, 28.50000
522.8580, 24.62500
523.3401, 39.74219
523.8221, 45.44531
524.3043, 42.39844
524.7864, 79.66406
525.2685, 209.5703
525.7506, 356.0781
526.2327, 331.9297
526.7148, 160.5938
527.1970, 7.382813
527.6791, 7.523438
528.1612, 79.64844
528.6433, 123.6875
529.1254, 123.5391
529.6075, 117.5703
530.0897, 134.9609
530.5718, 157.9062
531.0539, 163.0703
531.5360, 126.9453
532.0181, 89.95312
532.5002, 70.60938
532.9824, 63.03906
533.4645, 37.54688
533.9466, 61.53906
534.4287, 125.9141
534.9108, 107.2500
535.3929, 20.33594
535.8751, 134.3828
536.3572, 250.5938
536.8393, 334.5625
537.3214, 335.8750
537.8035, 243.6016
538.2856, 167.8047
538.7678, 130.6797
539.2499, 122.6797
539.7320, 127.8750
540.2141, 144.4141
540.6962, 157.2500
541.1783, 152.1953
541.6605, 138.9219
542.1426, 132.9609
542.6247, 132.4062
543.1068, 131.9766
543.5889, 145.7969
544.0710, 156.5234
544.5532, 140.2031
545.0353, 58.20312
545.5174, 6.781250
545.9995, 12.04688
546.4816, 24.50000
546.9637, 58.96094
547.4459, 42.53906
547.9280, 62.03125
548.4101, 182.4453
548.8922, 420.8828
549.3743, 520.0312
549.8564, 412.0156
550.3386, 250.6328
550.8207, 147.5469
551.3028, 111.2891
551.7849, 88.29688
552.2670, 78.27344
552.7491, 74.46875
553.2313, 65.92969
553.7134, 53.60156
554.1955, 41.79688
554.6776, 29.00781
555.1597, 19.53906
555.6418, 30.19531
556.1240, 57.39062
556.6061, 70.02344
557.0882, 5.375000
557.5703, 65.25000
558.0524, 54.13281
558.5345, 80.04688
559.0167, 209.5625
559.4988, 286.5078
559.9809, 319.6719
560.4630, 319.0781
560.9451, 259.1094
561.4272, 196.7656
561.9094, 126.7500
562.3915, 58.36719
562.8736, 44.01562
563.3557, 126.8984
563.8378, 200.8203
564.3199, 208.7422
564.8021, 140.9453
565.2842, 94.30469
565.7663, 74.72656
566.2484, 74.93750
566.7305, 89.89062
567.2126, 113.1094
567.6948, 116.0781
568.1769, 92.74219
568.6590, 61.70312
569.1411, 54.09375
569.6232, 60.21875
570.1053, 46.28906
570.5875, 55.60156
571.0696, 149.9766
571.5517, 142.4531
572.0338, 34.02344
572.5159, 85.42969
572.9980, 241.8203
573.4801, 351.2578
573.9622, 334.1328
574.4443, 18.66406
574.9265, 132.3750
575.4086, 65.61719
575.8907, 384.8594
576.3728, 519.4531
576.8549, 377.1875
577.3370, 243.0312
577.8192, 174.2656
578.3013, 163.0391
578.7834, 161.0625
579.2655, 172.7344
579.7476, 165.4688
580.2297, 83.75000
580.7119, 37.12500
581.1940, 49.46094
581.6761, 60.24219
582.1582, 190.3906
582.6403, 253.2812
583.1224, 270.5156
583.6046, 275.8125
584.0867, 281.5547
584.5688, 274.0547
585.0509, 227.6562
585.5330, 162.8359
586.0151, 122.2891
586.4973, 135.6797
586.9794, 158.7188
587.4615, 179.0156
587.9436, 195.6562
588.4257, 209.1484
588.9078, 225.7969
589.3900, 231.7891
589.8721, 206.1484
590.3542, 125.4688
590.8363, 138.7344
591.3184, 289.8594
591.8005, 443.8984
592.2827, 383.2969
592.7648, 139.2109
593.2469, 5.257813
593.7290, 98.14062
594.2111, 274.1875
594.6932, 311.4922
595.1754, 240.2500
595.6575, 177.1562
596.1396, 207.6250
596.6217, 257.9453
597.1038, 255.6250
597.5859, 196.8594
598.0681, 168.0469
598.5502, 245.4062
599.0323, 337.3281
599.5144, 375.8047
599.9965, 292.4375
600.4786, 258.8594
600.9608, 309.9688
601.4429, 391.5469
601.9250, 423.5859
602.4071, 393.6875
602.8892, 353.8438
603.3713, 308.8828
603.8535, 264.8906
604.3356, 254.1328
604.8177, 275.7266
605.2998, 272.9844
605.7819, 160.1953
606.2640, 12.08594
606.7462, 9.117188
607.2283, 157.8281
607.7104, 302.1016
608.1925, 313.0391
608.6746, 266.1328
609.1567, 242.7109
609.6389, 267.3516
610.1210, 303.2891
610.6031, 355.8906
611.0852, 406.8828
611.5673, 428.2422
612.0494, 394.8594
612.5316, 358.4375
613.0137, 321.9922
613.4958, 287.8047
613.9779, 267.0859
614.4600, 260.0312
614.9421, 266.1406
615.4243, 287.7422
615.9064, 325.3438
616.3885, 357.2578
616.8706, 379.8359
617.3527, 414.9766
617.8348, 514.6875
618.3170, 636.5781
618.7991, 683.0234
619.2812, 618.4375
619.7633, 537.0156
620.2454, 491.6719
620.7275, 480.8828
621.2097, 502.7734
621.6918, 601.3203
622.1739, 684.8516
622.6559, 735.7891
623.1381, 750.3203
623.6202, 711.7344
624.1023, 549.9453
624.5844, 431.0078
625.0665, 433.3672
625.5486, 564.0156
626.0308, 613.6484
626.5129, 559.1484
626.9950, 500.9141
627.4771, 543.9453
627.9592, 665.3594
628.4413, 730.0312
628.9235, 714.7422
629.4056, 666.1641
629.8877, 626.7734
630.3698, 590.3281
630.8519, 549.4609
631.3340, 477.0625
631.8162, 427.7422
632.2983, 446.1875
632.7804, 515.4609
633.2625, 577.2500
633.7446, 614.8047
634.2267, 650.0312
634.7089, 702.5234
635.1910, 766.6094
635.6731, 784.3672
636.1552, 723.1953
636.6373, 674.7188
637.1194, 726.2969
637.6016, 874.4531
638.0837, 946.3750
638.5658, 928.0234
639.0479, 862.3203
639.5300, 757.7656
640.0121, 643.1797
640.4943, 613.1641
640.9764, 724.3125
641.4585, 862.5469
641.9406, 930.2109
642.4227, 946.4844
642.9048, 953.7422
643.3870, 969.8828
643.8691, 978.4922
644.3512, 978.3828
644.8333, 967.8438
645.3154, 929.6719
645.7975, 813.7734
646.2797, 732.2500
646.7618, 747.8906
647.2439, 874.6172
647.7260, 905.3125
648.2081, 808.5859
648.6902, 713.8594
649.1724, 764.8047
649.6545, 932.0312
650.1366, 1053.664
650.6187, 1108.203
651.1008, 1114.438
651.5829, 1067.547
652.0651, 990.8281
652.5472, 926.7734
653.0293, 885.0078
653.5114, 865.3984
653.9935, 880.4688
654.4756, 917.6484
654.9578, 945.2109
655.4399, 940.8438
655.9220, 941.9453
656.4041, 964.4219
656.8862, 1005.867
657.3683, 1027.898
657.8505, 1030.188
658.3326, 1011.953
658.8147, 949.3828
659.2968, 849.6875
659.7789, 842.2812
660.2610, 939.2578
660.7432, 1043.305
661.2253, 1061.328
661.7074, 1017.414
662.1895, 946.1875
662.6716, 840.1172
663.1537, 752.3125
663.6359, 725.2891
664.1180, 736.6328
664.6001, 757.0312
665.0822, 770.1406
665.5643, 792.6484
666.0464, 845.3047
666.5286, 909.7422
667.0107, 934.7812
667.4928, 917.1016
667.9749, 863.7109
668.4570, 752.4766
668.9391, 603.8203
669.4213, 560.3281
669.9034, 625.9062
670.3855, 709.5469
670.8676, 766.4688
671.3497, 791.9531
671.8318, 759.7031
672.3139, 665.0234
672.7960, 583.6094
673.2781, 581.2734
673.7603, 611.8125
674.2424, 628.6172
674.7245, 611.2969
675.2066, 602.3438
675.6887, 636.3594
676.1708, 672.6250
676.6530, 655.7656
677.1351, 549.9844
677.6172, 466.2734
678.0993, 411.2188
678.5814, 393.0312
679.0635, 459.8281
679.5457, 613.8672
680.0278, 714.2812
680.5099, 671.0625
680.9920, 561.1953
681.4741, 522.1094
681.9562, 544.6719
682.4384, 580.1016
682.9205, 615.1875
683.4026, 639.8594
683.8847, 645.2812
684.3668, 630.4844
684.8489, 604.2578
685.3311, 540.0078
685.8132, 487.5078
686.2953, 483.0781
686.7774, 562.1250
687.2595, 583.0703
687.7416, 527.5703
688.2238, 444.6250
688.7059, 391.2500
689.1880, 365.4141
689.6701, 331.9688
690.1522, 204.5469
690.6343, 158.5781
691.1165, 362.5625
691.5986, 415.9141
692.0807, 132.6875
692.5628, 96.34375
693.0449, 13.95312
693.5270, 80.94531
694.0092, 258.0859
694.4913, 202.2188
694.9734, 130.1719
695.4555, 146.3281
695.9376, 307.5391
696.4197, 155.3125
696.9019, 100.0391
697.3840, 358.6250
697.8661, 443.6719
698.3482, 255.9609
698.8303, 427.2031
699.3124, 42.49219
699.7946, 50.57031
700.2767, 388.8906
700.7588, 219.9688
701.2409, 315.3125
701.7230, 280.7734
702.2051, 190.6797
702.6873, 145.7422
703.1694, 260.1562
703.6515, 412.3203
704.1336, 482.9375
704.6157, 378.4141
705.0978, 291.8516
705.5800, 226.3906
706.0621, 183.5156
706.5442, 170.5781
707.0263, 196.6094
707.5084, 231.2812
707.9905, 280.1484
708.4727, 322.4453
708.9548, 309.9531
709.4369, 257.2031
709.9190, 207.0156
710.4011, 187.8516
710.8832, 174.9531
711.3654, 135.6094
711.8475, 88.10156
712.3296, 64.57031
712.8117, 123.1953
713.2938, 177.7656
713.7759, 168.7812
714.2581, 92.03906
714.7402, 101.0391
715.2223, 250.6797
715.7044, 385.7734
716.1865, 393.1953
716.6686, 277.8672
717.1508, 255.2500
717.6329, 337.0859
718.1150, 415.7812
718.5971, 361.0156
719.0792, 249.0000
719.5613, 235.6172
720.0435, 380.0938
720.5256, 472.3984
721.0077, 306.6719
721.4897, 61.17969
721.9719, 74.97656
722.4540, 53.98438
722.9361, 144.1797
723.4182, 176.6641
723.9003, 169.6406
724.3824, 140.4844
724.8646, 74.64844
725.3467, 29.92969
725.8288, 24.52344
726.3109, 50.86719
726.7930, 91.25000
727.2751, 147.0703
727.7573, 226.3438
728.2394, 382.5391
728.7215, 525.2891
729.2036, 560.8438
729.6857, 511.7422
730.1678, 459.9609
730.6500, 468.6094
731.1321, 447.2891
731.6142, 320.2891
732.0963, 98.72656
732.5784, 7.585938
733.0605, 106.7578
733.5427, 206.8672
734.0248, 187.7500
734.5069, 63.94531
734.9890, 25.52344
735.4711, 75.32812
735.9532, 158.3516
736.4354, 280.4844
736.9175, 386.2422
737.3996, 377.0469
737.8817, 225.6641
738.3638, 88.30469
738.8459, 39.57812
739.3281, 39.67188
739.8102, 55.78125
740.2923, 77.06250
740.7744, 134.7266
741.2565, 266.7656
741.7386, 395.6953
742.2208, 414.7266
742.7029, 314.2812
743.1850, 245.5312
743.6671, 239.4922
744.1492, 250.1797
744.6313, 202.4688
745.1135, 120.8750
745.5956, 65.81250
746.0777, 75.54688
746.5598, 93.29688
747.0419, 74.26562
747.5240, 39.75000
748.0062, 26.21094
748.4883, 88.06250
748.9704, 137.2812
749.4525, 154.0234
749.9346, 147.2422
750.4167, 158.8125
750.8989, 178.1328
751.3810, 214.1484
751.8631, 303.3438
752.3452, 395.1406
752.8273, 365.8516
753.3094, 231.5703
753.7916, 120.6172
754.2737, 107.1641
754.7558, 147.6484
755.2379, 252.4141
755.7200, 406.6797
756.2021, 461.3438
756.6843, 262.8203
757.1664, 62.32812
757.6485, 36.68750
758.1306, 31.80469
758.6127, 24.76562
759.0948, 154.0625
759.5770, 269.0781
760.0591, 302.5938
760.5412, 269.7109
761.0233, 231.0312
761.5054, 189.8594
761.9875, 138.8906
762.4697, 34.13281
762.9518, 61.39844
763.4339, 63.54688
763.9160, 73.71094
764.3981, 159.1641
764.8802, 62.11719
765.3624, 55.92188
765.8445, 68.78906
766.3266, 66.59375
766.8087, 207.0781
767.2908, 381.7422
767.7729, 494.2188
768.2551, 355.1016
768.7372, 24.70312
769.2193, 132.6250
769.7014, 31.98438
770.1835, 131.1875
770.6656, 194.6641
771.1477, 197.3125
771.6298, 192.7422
772.1119, 199.8750
772.5941, 196.5000
773.0762, 176.4375
773.5583, 142.6562
774.0404, 91.32812
774.5225, 8.304688
775.0046, 30.00781
775.4868, 74.49219
775.9689, 225.3047
776.4510, 241.4141
776.9331, 147.2500
777.4152, 93.38281
777.8973, 165.1875
778.3795, 242.9297
778.8616, 180.8750
779.3437, 37.22656
779.8258, 60.42969
780.3079, 3.031250
780.7900, 56.55469
781.2722, 22.17188
781.7543, 60.83594
782.2364, 69.00781
782.7185, 26.74219
783.2006, 112.4453
783.6827, 148.3906
784.1649, 146.2656
784.6470, 141.6172
785.1291, 137.6328
785.6112, 145.4375
786.0933, 193.3828
786.5754, 241.9062
787.0576, 242.3125
787.5397, 204.6250
788.0218, 185.3125
788.5039, 204.2734
788.9860, 245.1172
789.4681, 331.3438
789.9503, 451.1484
790.4324, 429.6250
790.9145, 217.8984
791.3966, 36.95312
791.8787, 35.06250
792.3608, 156.1562
792.8430, 186.3125
793.3251, 134.1562
793.8072, 92.88281
794.2893, 142.1797
794.7714, 217.5547
795.2535, 272.3047
795.7357, 302.9219
796.2178, 302.8281
796.6999, 242.5391
797.1820, 174.5625
797.6641, 120.7969
798.1462, 82.01562
798.6284, 49.00000
799.1105, 17.64844
799.5926, 11.39844
800.0747, 56.32812
800.5568, 137.5391
801.0389, 232.5234
801.5211, 338.8906
802.0032, 404.7266
802.4853, 347.9375
802.9674, 268.0234
803.4495, 261.0703
803.9316, 366.6094
804.4138, 395.1094
804.8959, 271.0938
805.3780, 142.5547
805.8601, 119.8984
806.3422, 220.3125
806.8243, 214.8047
807.3065, 85.66406
807.7886, 36.85156
808.2707, 10.37500
808.7528, 96.31250
809.2349, 162.7734
809.7170, 171.5312
810.1992, 166.1719
810.6813, 159.1797
811.1634, 155.8516
811.6455, 157.3984
812.1276, 153.1250
812.6097, 192.0156
813.0919, 307.3750
813.5740, 412.5000
814.0561, 412.8984
814.5382, 316.8672
815.0203, 271.9766
815.5024, 290.2266
815.9846, 326.9297
816.4667, 341.6562
816.9488, 342.6562
817.4309, 350.3438
817.9130, 379.8828
818.3951, 382.6875
818.8773, 313.7656
819.3594, 230.9062
819.8414, 176.7188
820.3235, 143.1797
820.8057, 165.9609
821.2878, 264.7656
821.7699, 386.3281
822.2520, 474.2656
822.7341, 528.7656
823.2162, 543.4844
823.6984, 518.6875
824.1805, 479.3828
824.6626, 447.5547
825.1447, 398.9844
825.6268, 298.0859
826.1089, 75.44531
826.5911, 51.94531
827.0732, 48.50781
827.5553, 27.54688
828.0374, 134.0391
828.5195, 276.8906
829.0016, 328.7031
829.4838, 268.5938
829.9659, 175.8359
830.4480, 135.2500
830.9301, 125.9297
831.4122, 104.1641
831.8943, 51.76562
832.3765, 31.25000
832.8586, 140.0781
833.3407, 263.7500
833.8228, 273.3750
834.3049, 78.18750
834.7870, 24.35156
835.2692, 22.36719
835.7513, 49.03906
836.2334, 199.3984
836.7155, 403.0312
837.1976, 474.4453
837.6797, 375.1875
838.1619, 261.1250
838.6440, 295.1562
839.1261, 367.2969
839.6082, 340.7500
840.0903, 146.1016
840.5724, 5.226563
841.0546, 18.47656
841.5367, 0.7421880
842.0188, 1.046875
842.5009, 23.03125
842.9830, 4.429688
843.4651, 93.02344
843.9473, 198.8906
844.4294, 282.7891
844.9115, 346.9844
845.3936, 421.9375
845.8757, 518.0547
846.3578, 576.5312
846.8400, 551.8828
847.3221, 484.5938
847.8042, 400.8594
848.2863, 289.5000
848.7684, 206.6953
849.2505, 149.9062
849.7327, 125.5000
850.2148, 157.2500
850.6969, 231.9297
851.1790, 277.1328
851.6611, 287.9375
852.1432, 266.9844
852.6254, 181.0859
853.1075, 84.64062
853.5896, 27.36719
854.0717, 13.54688
854.5538, 51.07812
855.0359, 227.0703
855.5181, 369.5625
856.0002, 364.5703
856.4823, 195.0703
856.9644, 102.8750
857.4465, 93.15625
857.9286, 121.3906
858.4108, 172.3125
858.8929, 225.7969
859.3750, 243.0703
859.8571, 222.5078
860.3392, 209.5000
860.8214, 238.7656
861.3035, 271.9844
861.7856, 279.8672
862.2677, 259.6172
862.7498, 279.5312
863.2319, 368.7891
863.7141, 414.2812
864.1962, 305.3750
864.6783, 99.74219
865.1604, 4.296875
865.6425, 10.36719
866.1246, 66.96094
866.6068, 192.7344
867.0889, 311.1875
867.5710, 345.4062
868.0531, 298.7891
868.5352, 318.8359
869.0173, 472.5312
869.4994, 605.0000
869.9815, 671.1875
870.4636, 668.8828
870.9457, 552.3438
871.4279, 325.8594
871.9100, 123.8438
872.3921, 22.99219
872.8742, 20.40625
873.3563, 49.44531
873.8384, 59.83594
874.3206, 34.30469
874.8027, 91.07031
875.2848, 185.4219
875.7669, 199.3125
876.2490, 159.2891
876.7311, 154.0156
877.2133, 184.0000
877.6954, 251.3359
878.1775, 388.5156
878.6596, 522.1641
879.1417, 510.0312
879.6238, 394.7656
880.1060, 283.0703
880.5881, 157.1328
881.0702, 112.6797
881.5523, 269.7031
882.0344, 513.1953
882.5165, 605.4375
882.9987, 497.8594
883.4808, 391.6328
883.9629, 319.4453
884.4450, 261.0469
884.9271, 184.6953
885.4092, 109.7578
885.8914, 80.57031
886.3735, 116.5781
886.8556, 183.3594
887.3377, 310.2969
887.8198, 434.6875
888.3019, 467.1328
888.7841, 311.9609
889.2662, 243.1797
889.7483, 308.5781
890.2304, 394.8672
890.7125, 330.2969
891.1946, 153.2734
891.6768, 108.0078
892.1589, 243.3828
892.6410, 377.5938
893.1231, 358.2969
893.6052, 269.5156
894.0873, 178.1719
894.5695, 69.49219
895.0516, 52.28906
895.5337, 207.0625
896.0158, 349.8047
896.4979, 321.5234
896.9800, 128.8203
897.4622, 43.68750
897.9443, 73.06250
898.4264, 150.2266
898.9085, 283.8906
899.3906, 403.5781
899.8727, 419.3594
900.3549, 324.1016
900.8370, 211.4141
901.3191, 16.84375
901.8012, 92.25781
902.2833, 21.21875
902.7654, 203.7656
903.2476, 345.4375
903.7297, 401.0625
904.2118, 419.3516
904.6939, 432.4062
905.1760, 420.1328
905.6581, 333.2188
906.1403, 192.5625
906.6224, 77.78125
907.1045, 19.36719
907.5866, 7.187500
908.0687, 1.757813
908.5508, 26.22656
909.0330, 52.87500
909.5151, 78.80469
909.9972, 97.58594
910.4793, 106.9375
910.9614, 108.5703
911.4435, 96.33594
911.9257, 79.65625
912.4078, 78.89844
912.8899, 124.6719
913.3720, 154.0078
913.8541, 125.9141
914.3362, 82.49219
914.8184, 75.59375
915.3005, 110.9375
915.7826, 161.8438
916.2647, 235.0312
916.7468, 298.4062
917.2289, 291.2031
917.7111, 249.9609
918.1932, 243.6875
918.6752, 294.9766
919.1573, 325.4766
919.6395, 283.3906
920.1216, 218.3672
920.6037, 166.6094
921.0858, 129.1016
921.5679, 95.38281
922.0500, 57.02344
922.5322, 58.53125
923.0143, 180.3516
923.4964, 353.5000
923.9785, 411.2578
924.4606, 357.9609
924.9427, 300.7266
925.4249, 296.2578
925.9070, 302.3594
926.3891, 287.7188
926.8712, 259.1406
927.3533, 287.2344
927.8354, 402.9062
928.3176, 443.9766
928.7997, 299.4922
929.2818, 88.98438
929.7639, 85.13281
930.2460, 230.0703
930.7281, 351.6797
931.2103, 361.9844
931.6924, 342.8750
932.1745, 305.1484
932.6566, 269.5859
933.1387, 274.5859
933.6208, 338.2578
934.1030, 379.5859
934.5851, 385.9688
935.0672, 369.6484
935.5493, 335.4688
936.0314, 293.5703
936.5135, 266.1328
936.9957, 265.0938
937.4778, 255.6562
937.9599, 204.6641
938.4420, 149.0547
938.9241, 119.6953
939.4063, 121.3984
939.8884, 130.4766
940.3705, 147.3125
940.8526, 170.2188
941.3347, 200.0781
941.8168, 234.6094
942.2990, 283.7344
942.7811, 342.7422
943.2632, 354.8203
943.7453, 229.6562
944.2274, 110.5938
944.7095, 82.64844
945.1917, 128.4766
945.6738, 136.1641
946.1559, 95.21094
946.6380, 73.31250
947.1201, 105.3828
947.6022, 162.3281
948.0844, 199.5312
948.5665, 220.2891
949.0486, 232.9141
949.5307, 243.2031
950.0128, 242.9609
950.4949, 214.1797
950.9771, 181.0938
951.4592, 177.3594
951.9413, 207.4922
952.4234, 247.1719
952.9055, 299.6172
953.3876, 337.4219
953.8698, 317.1953
954.3519, 265.4219
954.8340, 224.0156
955.3161, 203.7969
955.7982, 174.5000
956.2803, 67.67969
956.7625, 4.218750
957.2446, 75.42188
957.7267, 288.1016
958.2088, 422.7422
958.6909, 482.7188
959.1730, 461.8906
959.6552, 275.0547
960.1373, 68.16406
960.6194, 32.12500
961.1015, 137.9453
961.5836, 233.6094
962.0657, 277.8516
962.5479, 293.9453
963.0300, 284.8281
963.5121, 254.5781
963.9942, 206.3906
964.4763, 141.8594
964.9584, 88.78906
965.4406, 51.21094
965.9227, 40.42969
966.4048, 91.82031
966.8869, 167.6641
967.3690, 216.9766
967.8511, 226.2266
968.3332, 201.7344
968.8153, 100.7109
969.2974, 28.93750
969.7795, 119.7578
970.2617, 346.2969
970.7438, 471.5078
971.2259, 483.8516
971.7080, 434.4609
972.1901, 328.1250
972.6722, 202.1250
973.1544, 63.89844
973.6365, 81.10938
974.1186, 114.9453
974.6007, 33.71875
975.0828, 139.7109
975.5649, 97.33594
976.0471, 21.42188
976.5292, 4.476563
977.0113, 113.5781
977.4934, 198.4922
977.9755, 169.9688
978.4576, 122.5859
978.9398, 93.38281
979.4219, 80.45312
979.9040, 78.59375
980.3861, 86.00000
980.8682, 113.5781
981.3503, 169.4453
981.8325, 220.1641
982.3146, 226.0078
982.7967, 199.8594
983.2788, 153.1016
983.7609, 83.10938
984.2430, 58.96094
984.7252, 181.7500
985.2073, 295.5469
985.6894, 295.9766
986.1715, 183.2266
986.6536, 148.3672
987.1357, 199.3203
987.6179, 225.8672
988.1000, 134.7422
988.5821, 20.03906
989.0642, 12.10156
989.5463, 81.35156
990.0284, 154.9766
990.5106, 221.4844
990.9927, 275.7031
991.4748, 335.3516
991.9569, 366.1094
992.4390, 274.7344
992.9211, 73.58594
993.4033, 32.35156
993.8854, 210.4688
994.3675, 399.6094
994.8496, 380.9766
995.3317, 276.5859
995.8138, 201.0938
996.2960, 168.6328
996.7781, 186.6094
997.2602, 298.8438
997.7423, 361.1172
998.2244, 259.3984
998.7065, 60.14844
999.1887, 5.046875
999.6708, 39.10938
1000.153, 79.99219
1000.635, 47.57031
1001.117, 10.96875
1001.599, 1.023438
1002.081, 6.742188
1002.563, 24.83594
1003.046, 59.65625
1003.528, 74.86719
1004.010, 61.52344
1004.492, 41.66406
1004.974, 27.98438
1005.456, 32.25781
1005.938, 88.82812
1006.420, 217.1406
1006.903, 305.0859
1007.385, 289.8984
1007.867, 251.8516
1008.349, 220.3281
1008.831, 196.9766
1009.313, 207.1406
1009.795, 249.1328
1010.277, 277.1094
1010.759, 266.7266
1011.242, 229.6562
1011.724, 149.7109
1012.206, 52.32812
1012.688, 3.351563
1013.170, 17.13281
1013.652, 80.53906
1014.134, 227.0547
1014.616, 354.3672
1015.099, 260.7109
1015.581, 32.33594
1016.063, 55.06250
1016.545, 53.42969
1017.027, 175.9141
1017.509, 200.9531
1017.991, 210.2969
1018.473, 273.3828
1018.955, 390.0078
1019.438, 425.9453
1019.920, 372.5312
1020.402, 322.7266
1020.884, 310.8750
1021.366, 313.4297
1021.848, 289.4141
1022.330, 254.3672
1022.812, 244.1797
1023.294, 300.1094
1023.777, 343.1797
1024.259, 372.0000
1024.741, 374.7031
1025.223, 323.8203
1025.705, 228.0312
1026.187, 143.0625
1026.669, 72.87500
1027.151, 53.92188
1027.634, 179.6250
1028.116, 313.1953
1028.598, 328.9375
1029.080, 219.3906
1029.562, 183.5234
1030.044, 245.6875
1030.526, 290.7656
1031.008, 265.8047
1031.490, 208.5312
1031.973, 188.5625
1032.455, 196.6484
1032.937, 182.5078
1033.419, 81.34375
1033.901, 28.73438
1034.383, 101.5391
1034.865, 199.1094
1035.347, 220.8828
1035.829, 166.0156
1036.312, 150.0000
1036.794, 179.7422
1037.276, 197.1172
1037.758, 127.0781
1038.240, 48.73438
1038.722, 32.39062
1039.204, 76.56250
1039.686, 129.6094
1040.169, 200.5625
1040.651, 249.7891
1041.133, 273.4531
1041.615, 259.3516
1042.097, 121.9062
1042.579, 63.01562
1043.061, 94.33594
1043.543, 171.4375
1044.025, 360.0781
1044.508, 233.2812
1044.990, 53.07812
1045.472, 7.468750
1045.954, 103.5234
1046.436, 180.2344
1046.918, 239.0234
1047.400, 278.7656
1047.882, 320.5156
1048.365, 327.1094
1048.847, 215.8359
1049.329, 33.41406
1049.811, 31.53906
1050.293, 135.7188
1050.775, 191.4375
1051.257, 46.64844
1051.739, 137.7188
1052.221, 86.98438
1052.703, 101.2109
1053.186, 182.8906
1053.668, 106.0312
1054.150, 29.39844
1054.632, 15.41406
1055.114, 32.75000
1055.596, 73.43750
1056.078, 131.7891
1056.560, 149.1016
1057.043, 126.8359
1057.525, 116.4531
1058.007, 151.2656
1058.489, 194.1562
1058.971, 220.1719
1059.453, 228.8984
1059.935, 216.7578
1060.417, 160.3438
1060.900, 133.1562
1061.382, 142.6484
1061.864, 168.3047
1062.346, 199.4141
1062.828, 229.8125
1063.310, 249.4766
1063.792, 257.2422
1064.274, 247.2031
1064.756, 186.7578
1065.239, 143.8516
1065.721, 148.1484
1066.203, 179.7500
1066.685, 183.0625
1067.167, 162.9844
1067.649, 176.7891
1068.131, 249.8047
1068.613, 321.8359
1069.095, 360.6094
1069.578, 361.8281
1070.060, 306.6406
1070.542, 175.8047
1071.024, 103.5938
1071.506, 96.50000
1071.988, 117.5781
1072.470, 168.4375
1072.952, 217.5156
1073.435, 196.0234
1073.917, 124.4219
1074.399, 67.82031
1074.881, 1.031250
1075.363, 24.96094
1075.845, 237.7188
1076.327, 444.9609
1076.809, 349.2578
1077.292, 24.59375
1077.774, 113.1172
1078.256, 29.58594
1078.738, 84.64844
1079.220, 119.0859
1079.702, 131.2266
1080.184, 154.6719
1080.666, 185.5469
1081.148, 203.1328
1081.630, 205.7422
1082.113, 214.8906
1082.595, 245.1875
1083.077, 262.7891
1083.559, 197.0938
1084.041, 107.1328
1084.523, 75.70312
1085.005, 138.8125
1085.487, 205.6094
1085.970, 288.4688
1086.452, 339.4375
1086.934, 321.8984
1087.416, 251.9297
1087.898, 136.0000
1088.380, 3.625000
1088.862, 37.52344
1089.344, 189.5625
1089.827, 348.4062
1090.309, 311.1016
1090.791, 197.9297
1091.273, 145.0234
1091.755, 150.1016
1092.237, 193.8438
1092.719, 275.6016
1093.201, 325.3828
1093.683, 236.3828
1094.166, 144.0234
1094.648, 172.0938
1095.130, 295.6641
1095.612, 327.8750
1096.094, 250.6328
1096.576, 176.7109
1097.058, 129.1953
1097.540, 113.9922
1098.022, 173.0078
1098.505, 254.0234
1098.987, 279.0859
1099.469, 216.2656
1099.951, 162.2656
1100.433, 109.3125
1100.915, 87.00781
1101.397, 139.3203
1101.879, 225.2500
1102.361, 248.5703
1102.844, 218.2500
1103.326, 165.4141
1103.808, 60.17969
1104.290, 9.515625
1104.772, 1.960938
1105.254, 38.00781
1105.736, 30.11719
1106.218, 17.46094
1106.701, 28.82812
1107.183, 170.7812
1107.665, 259.5703
1108.147, 117.1562
1108.629, 32.53906
1109.111, 19.19531
1109.593, 102.3594
1110.075, 179.1641
1110.557, 211.5547
1111.040, 206.6328
1111.522, 155.5859
1112.004, 116.8359
1112.486, 196.7812
1112.968, 304.1250
1113.450, 323.3047
1113.932, 227.6328
1114.414, 147.4062
1114.896, 79.89844
1115.379, 54.32812
1115.861, 94.75781
1116.343, 160.5312
1116.825, 167.1016
1117.307, 140.1875
1117.789, 137.4141
1118.271, 188.8828
1118.753, 241.4453
1119.236, 303.7500
1119.718, 343.1875
1120.200, 322.0625
1120.682, 250.0625
1121.164, 179.0859
1121.646, 112.4219
1122.128, 62.47656
1122.610, 12.92188
1123.093, 7.750000
1123.575, 123.4922
1124.057, 264.9922
1124.539, 292.1406
1125.021, 202.6562
1125.503, 143.4609
1125.985, 128.2031
1126.467, 139.3906
1126.949, 178.8516
1127.432, 226.8438
1127.914, 280.7578
1128.396, 331.8125
1128.878, 332.0312
1129.360, 270.1641
1129.842, 220.5000
1130.324, 200.0391
1130.806, 198.7734
1131.288, 221.1094
1131.771, 246.6328
1132.253, 243.5547
1132.735, 205.9062
1133.217, 198.1172
1133.699, 237.0625
1134.181, 267.9531
1134.663, 261.6719
1135.145, 234.4609
1135.628, 212.7969
1136.110, 200.9531
1136.592, 176.3203
1137.074, 93.07031
1137.556, 70.32812
1138.038, 158.6094
1138.520, 252.7031
1139.002, 267.2500
1139.484, 220.0391
1139.967, 183.0625
1140.449, 160.1172
1140.931, 171.4062
1141.413, 259.7031
1141.895, 344.7031
1142.377, 410.6953
1142.859, 451.7422
1143.341, 452.8750
1143.823, 416.5391
1144.306, 379.6641
1144.788, 348.3047
1145.270, 322.7578
1145.752, 265.4062
1146.234, 248.3125
1146.716, 358.5859
1147.198, 542.1250
1147.680, 652.8359
1148.162, 691.0547
1148.645, 632.1250
1149.127, 452.7969
1149.609, 288.6172
1150.091, 282.0469
1150.573, 328.1484
1151.055, 331.6562
1151.537, 290.1719
1152.019, 313.6406
1152.502, 423.3594
1152.984, 464.1562
1153.466, 353.3438
1153.948, 210.4766
1154.430, 183.4531
1154.912, 214.8438
1155.394, 231.6875
1155.876, 221.0703
1156.359, 184.0625
1156.841, 99.72656
1157.323, 60.26562
1157.805, 150.6875
1158.287, 288.1250
1158.769, 342.2891
1159.251, 330.1406
1159.733, 287.5078
1160.215, 171.4297
1160.698, 109.5234
1161.180, 114.5547
1161.662, 153.8125
1162.144, 228.4844
1162.626, 308.1719
1163.108, 295.2344
1163.590, 206.5312
1164.072, 131.1953
1164.554, 96.35156
1165.037, 88.15625
1165.519, 105.2344
1166.001, 147.5547
1166.483, 235.9609
1166.965, 350.1641
1167.447, 407.9297
1167.929, 401.7031
1168.411, 367.0078
1168.894, 301.6484
1169.376, 233.2812
1169.858, 159.1016
1170.340, 99.06250
1170.822, 126.5078
1171.304, 214.7969
1171.786, 212.9531
1172.268, 85.07812
1172.750, 20.98438
1173.233, 16.31250
1173.715, 38.25000
1174.197, 119.9062
1174.679, 215.8125
1175.161, 308.0469
1175.643, 388.0703
1176.125, 361.2188
1176.607, 158.7969
1177.089, 12.61719
1177.572, 20.90625
1178.054, 108.8672
1178.536, 126.7891
1179.018, 79.45312
1179.500, 77.17188
1179.982, 117.8125
1180.464, 153.4531
1180.946, 169.7656
1181.429, 165.9922
1181.911, 124.0859
1182.393, 71.04688
1182.875, 32.29688
1183.357, 5.523438
1183.839, 29.44531
1184.321, 104.9453
1184.803, 159.0781
1185.286, 112.5625
1185.768, 58.78125
1186.250, 86.45312
1186.732, 152.4922
1187.214, 178.4609
1187.696, 146.9062
1188.178, 163.4609
1188.660, 239.6016
1189.142, 268.7500
1189.625, 73.90625
1190.107, 124.3516
1190.589, 63.67969
1191.071, 154.7109
1191.553, 219.0000
1192.035, 61.11719
1192.517, 5.539063
1192.999, 93.65625
1193.481, 221.2812
1193.964, 316.3672
1194.446, 380.0547
1194.928, 416.6094
1195.410, 422.5078
1195.892, 380.4062
1196.374, 275.8750
1196.856, 182.9297
1197.338, 112.2266
1197.820, 65.48438
1198.303, 51.11719
1198.785, 55.29688
1199.267, 72.51562
1199.749, 99.32812
1200.231, 82.23438
1200.713, 11.98438
1201.195, 21.58594
1201.677, 121.1484
1202.160, 288.2344
1202.642, 310.6094
1203.124, 262.0625
1203.606, 232.3828
1204.088, 237.5156
1204.570, 234.8125
1205.052, 225.5234
1205.534, 197.2734
1206.016, 137.5391
1206.499, 70.21875
1206.981, 6.265625
1207.463, 54.27344
1207.945, 0.7109380
1208.427, 215.7500
1208.909, 328.7188
1209.391, 319.0312
1209.873, 268.2500
1210.355, 193.1094
1210.838, 127.3047
1211.320, 141.0391
1211.802, 191.9844
1212.284, 209.7109
1212.766, 162.2891
1213.248, 123.2578
1213.730, 88.96094
1214.212, 73.15625
1214.695, 94.96094
1215.177, 130.8281
1215.659, 147.1016
1216.141, 151.2188
1216.623, 158.3516
1217.105, 183.8828
1217.587, 179.7656
1218.069, 134.7656
1218.552, 104.3906
1219.034, 162.4297
1219.516, 238.3984
1219.998, 226.4922
1220.480, 152.1641
1220.962, 76.82031
1221.444, 29.16406
1221.926, 21.52344
1222.408, 136.1406
1222.891, 274.6250
1223.373, 194.9062
1223.855, 48.75781
1224.337, 46.30469
1224.819, 146.4219
1225.301, 181.3984
1225.783, 106.2031
1226.265, 45.32812
1226.747, 7.718750
1227.230, 5.437500
1227.712, 4.593750
1228.194, 40.55469
1228.676, 142.9531
1229.158, 281.7734
1229.640, 311.8750
1230.122, 190.0547
1230.604, 83.35156
1231.087, 14.68750
1231.569, 14.46875
1232.051, 5.789063
1232.533, 54.46094
1233.015, 128.8594
1233.497, 216.1875
1233.979, 247.8125
1234.461, 213.9609
1234.943, 157.1484
1235.426, 79.73438
1235.908, 29.67188
1236.390, 102.2500
1236.872, 189.9766
1237.354, 170.0312
1237.836, 51.57031
1238.318, 0.7031250
1238.800, 21.81250
1239.282, 92.35156
1239.765, 223.3359
1240.247, 323.1172
1240.729, 272.8516
1241.211, 168.0391
1241.693, 79.55469
1242.175, 18.15625
1242.657, 36.27344
1243.139, 140.5781
1243.621, 206.9062
1244.104, 198.6016
1244.586, 166.6406
1245.068, 132.7266
1245.550, 114.2266
1246.032, 139.9531
1246.514, 198.5078
1246.996, 211.0703
1247.478, 178.0312
1247.961, 133.4297
1248.443, 100.6250
1248.925, 79.53125
1249.407, 44.42969
1249.889, 36.30469
1250.371, 104.5234
1250.853, 226.5391
1251.335, 231.4688
1251.818, 131.7188
1252.300, 52.09375
1252.782, 31.79688
1253.264, 35.52344
1253.746, 53.80469
1254.228, 87.49219
1254.710, 143.0156
1255.192, 207.9766
1255.674, 196.6172
1256.156, 125.5469
1256.639, 72.38281
1257.121, 85.28906
1257.603, 111.1719
1258.085, 147.5391
1258.567, 165.6250
1259.049, 136.2734
1259.531, 79.06250
1260.013, 85.96094
1260.496, 139.8516
1260.978, 185.0312
1261.460, 212.3438
1261.942, 200.9922
1262.424, 102.1094
1262.906, 32.98438
1263.388, 89.30469
1263.870, 204.1328
1264.353, 209.3750
1264.835, 135.5469
1265.317, 82.30469
1265.799, 89.24219
1266.281, 99.24219
1266.763, 109.9766
1267.245, 114.8984
1267.727, 95.10156
1268.209, 71.56250
1268.692, 109.4141
1269.174, 173.9141
1269.656, 176.1719
1270.138, 1.226563
1270.620, 21.23438
1271.102, 155.3906
1271.584, 310.0312
1272.066, 277.8750
1272.548, 164.4219
1273.031, 76.18750
1273.513, 22.75000
1273.995, 30.53906
1274.477, 139.8828
1274.959, 162.1875
1275.441, 83.32812
1275.923, 38.10938
1276.405, 166.8828
1276.888, 312.1484
1277.370, 312.9375
1277.852, 235.5391
1278.334, 181.8438
1278.816, 162.0000
1279.298, 117.5156
1279.780, 49.49219
1280.262, 16.61719
1280.745, 99.12500
1281.227, 180.1250
1281.709, 187.8594
1282.191, 152.6562
1282.673, 99.44531
1283.155, 28.57812
1283.637, 13.14844
1284.119, 49.14844
1284.601, 97.62500
1285.083, 156.4141
1285.566, 199.2578
1286.048, 201.9766
1286.530, 199.2500
1287.012, 223.8750
1287.494, 268.7969
1287.976, 307.8984
1288.458, 332.2031
1288.940, 317.2656
1289.422, 202.9062
1289.905, 112.9766
1290.387, 59.46094
1290.869, 41.00000
1291.351, 84.88281
1291.833, 151.2656
1292.315, 131.9297
1292.797, 54.78906
1293.279, 2.179688
1293.762, 33.39062
1294.244, 1.859375
1294.726, 125.9453
1295.208, 238.7812
1295.690, 249.7422
1296.172, 214.6562
1296.654, 193.5859
1297.136, 186.4375
1297.619, 198.9844
1298.101, 253.3047
1298.583, 234.9141
1299.065, 134.3047
1299.547, 46.07812
1300.029, 37.44531
1300.511, 59.50781
1300.993, 42.92969
1301.475, 14.03906
1301.958, 11.59375
1302.440, 37.57031
1302.922, 70.58594
1303.404, 109.0156
1303.886, 124.0312
1304.368, 80.55469
1304.850, 40.21094
1305.332, 0.0000000E+00
##END=



