##NAMES=Cuproiridsite
##RRUFFID=R070035
##IDEAL CHEMISTRY=Cu^2+^Ir^3+^_2_S^2-^_4_
##LOCALITY=Miass River, Urals, Russia
##OWNER=RRUFF
##SOURCE=Michael Scott
##DESCRIPTION=Iron-black metallic polished fragment embedded in epoxy
##STATUS=The identification of this mineral has been confirmed only by chemical analysis
##URL=rruff.info/R070035
##MEASURED CHEMISTRY=gray inclusion in the dark phase: (Cu_0.67_Ni_0.17_Fe_0.16_)_Σ=1_(Ir_1.94_Pt_0.04_Ru_0.02_)_Σ=2_S_4.00_ trace amounts of Os.
118.3625, 0.0000000E+00
118.8447, 90.61401
119.3268, 163.0283
119.8089, 199.8877
120.2910, 219.9121
120.7731, 145.6777
121.2552, 59.62793
121.7373, 8.843262
122.2195, 40.30615
122.7016, 42.54199
123.1837, 32.29053
123.6658, 29.75684
124.1479, 22.01465
124.6300, 7.017090
125.1122, 61.47656
125.5943, 134.3076
126.0764, 215.8291
126.5585, 306.4541
127.0406, 413.1523
127.5227, 540.7119
128.0049, 687.9521
128.4870, 854.1562
128.9691, 1034.442
129.4512, 1237.977
129.9333, 1500.172
130.4154, 1826.967
130.8976, 2165.295
131.3797, 2439.237
131.8618, 2658.163
132.3439, 2882.437
132.8260, 3153.202
133.3081, 3465.013
133.7903, 3736.179
134.2724, 3960.592
134.7545, 4161.801
135.2366, 4385.543
135.7187, 4633.853
136.2008, 4874.973
136.6829, 5096.215
137.1651, 5292.077
137.6472, 5482.377
138.1293, 5673.816
138.6114, 5857.422
139.0935, 6011.781
139.5756, 6127.660
140.0578, 6236.290
140.5399, 6370.624
141.0220, 6553.057
141.5041, 6688.719
141.9862, 6752.084
142.4683, 6742.312
142.9505, 6747.984
143.4326, 6779.035
143.9147, 6815.506
144.3968, 6828.002
144.8789, 6807.887
145.3610, 6782.883
145.8432, 6761.844
146.3253, 6746.424
146.8074, 6722.797
147.2895, 6673.109
147.7716, 6619.338
148.2537, 6605.900
148.7358, 6654.393
149.2180, 6717.740
149.7001, 6781.803
150.1822, 6811.830
150.6643, 6892.033
151.1464, 7047.574
151.6285, 7257.318
152.1107, 7455.707
152.5928, 7644.523
153.0749, 7817.361
153.5570, 7969.668
154.0391, 8074.221
154.5212, 8192.004
155.0034, 8348.160
155.4855, 8535.898
155.9676, 8692.354
156.4497, 8802.996
156.9318, 8878.785
157.4139, 8928.105
157.8961, 8934.357
158.3782, 8931.357
158.8603, 8932.363
159.3424, 8940.713
159.8245, 8931.352
160.3066, 8884.496
160.7887, 8818.113
161.2709, 8755.793
161.7530, 8705.719
162.2351, 8661.195
162.7172, 8622.051
163.1993, 8591.242
163.6814, 8552.479
164.1636, 8483.309
164.6457, 8400.559
165.1278, 8338.129
165.6099, 8342.297
166.0920, 8354.875
166.5741, 8326.859
167.0563, 8231.129
167.5384, 8133.119
168.0205, 8071.541
168.5026, 8042.691
168.9847, 8031.654
169.4668, 8037.520
169.9490, 8053.695
170.4311, 8073.059
170.9132, 8097.309
171.3953, 8119.984
171.8774, 8136.746
172.3595, 8146.902
172.8416, 8151.201
173.3238, 8151.111
173.8059, 8146.646
174.2880, 8138.668
174.7701, 8129.090
175.2522, 8113.533
175.7343, 8079.572
176.2165, 7999.094
176.6986, 7922.764
177.1807, 7893.746
177.6628, 7887.873
178.1449, 7849.389
178.6270, 7719.824
179.1092, 7550.672
179.5913, 7438.037
180.0734, 7391.938
180.5555, 7364.219
181.0376, 7305.057
181.5197, 7216.943
182.0019, 7124.031
182.4840, 7023.508
182.9661, 6926.414
183.4482, 6866.316
183.9303, 6855.785
184.4124, 6857.062
184.8945, 6822.797
185.3767, 6752.004
185.8588, 6661.598
186.3409, 6543.953
186.8230, 6409.539
187.3051, 6303.207
187.7872, 6236.914
188.2694, 6193.410
188.7515, 6141.309
189.2336, 6081.965
189.7157, 6018.781
190.1978, 5956.145
190.6799, 5893.672
191.1621, 5829.918
191.6442, 5758.219
192.1263, 5689.188
192.6084, 5660.234
193.0905, 5677.227
193.5726, 5694.000
194.0548, 5655.418
194.5369, 5562.102
195.0190, 5502.496
195.5011, 5520.480
195.9832, 5591.027
196.4653, 5579.582
196.9474, 5472.230
197.4296, 5330.406
197.9117, 5214.473
198.3938, 5125.020
198.8759, 5055.277
199.3580, 5011.441
199.8401, 4990.855
200.3223, 4948.887
200.8044, 4879.242
201.2865, 4801.797
201.7686, 4744.379
202.2507, 4711.250
202.7328, 4676.148
203.2150, 4631.840
203.6971, 4578.559
204.1792, 4508.629
204.6613, 4415.668
205.1434, 4314.879
205.6255, 4227.023
206.1077, 4149.223
206.5898, 4095.625
207.0719, 4084.422
207.5540, 4129.879
208.0361, 4135.816
208.5182, 4092.207
209.0004, 4016.023
209.4825, 3946.258
209.9646, 3888.539
210.4467, 3822.371
210.9288, 3730.441
211.4109, 3597.262
211.8931, 3505.180
212.3752, 3471.938
212.8573, 3476.633
213.3394, 3458.129
213.8215, 3405.250
214.3036, 3349.859
214.7858, 3309.836
215.2679, 3291.051
215.7500, 3271.902
216.2321, 3256.410
216.7142, 3239.242
217.1963, 3194.141
217.6785, 3102.328
218.1606, 3012.078
218.6427, 2961.883
219.1248, 2972.629
219.6069, 2963.801
220.0890, 2922.027
220.5712, 2850.352
221.0533, 2780.086
221.5354, 2708.883
222.0175, 2642.832
222.4996, 2586.711
222.9817, 2541.562
223.4638, 2501.867
223.9460, 2468.570
224.4281, 2442.527
224.9102, 2409.605
225.3923, 2366.125
225.8744, 2320.301
226.3565, 2279.117
226.8387, 2244.617
227.3208, 2213.258
227.8029, 2190.715
228.2850, 2176.879
228.7671, 2133.633
229.2492, 2041.070
229.7314, 1940.449
230.2135, 1876.039
230.6956, 1866.355
231.1777, 1864.059
231.6598, 1865.234
232.1419, 1872.004
232.6241, 1838.012
233.1062, 1739.465
233.5883, 1626.273
234.0704, 1558.301
234.5525, 1555.684
235.0346, 1552.363
235.5167, 1535.996
235.9989, 1510.191
236.4810, 1458.109
236.9631, 1348.496
237.4452, 1236.234
237.9273, 1201.910
238.4094, 1293.133
238.8916, 1383.531
239.3737, 1437.695
239.8558, 1449.551
240.3379, 1440.965
240.8200, 1408.867
241.3021, 1356.938
241.7843, 1289.953
242.2664, 1189.461
242.7485, 1107.430
243.2306, 1061.656
243.7127, 1058.613
244.1948, 1054.273
244.6770, 1044.027
245.1591, 1033.316
245.6412, 1037.820
246.1233, 1073.391
246.6054, 1096.926
247.0875, 1094.957
247.5696, 1062.402
248.0518, 1007.000
248.5339, 906.5039
249.0160, 792.9453
249.4981, 733.3906
249.9802, 761.1445
250.4623, 793.5508
250.9445, 796.2539
251.4266, 747.1953
251.9087, 729.2891
252.3908, 762.3633
252.8729, 817.2578
253.3550, 834.0078
253.8372, 807.6875
254.3193, 749.2148
254.8014, 649.1719
255.2835, 468.5703
255.7656, 370.1367
256.2477, 382.0898
256.7299, 463.1641
257.2120, 522.9922
257.6941, 566.6328
258.1762, 583.5352
258.6583, 560.8516
259.1404, 469.4570
259.6226, 414.0703
260.1047, 410.3672
260.5868, 438.5000
261.0689, 458.4336
261.5510, 479.4883
262.0331, 477.8320
262.5153, 432.8008
262.9974, 320.8242
263.4795, 234.7656
263.9616, 178.6016
264.4437, 149.6953
264.9258, 148.0898
265.4079, 195.8984
265.8900, 219.2305
266.3722, 160.5859
266.8543, 17.65625
267.3364, 100.6992
267.8185, 52.42969
268.3006, 73.59766
268.7827, 157.0742
269.2649, 194.0938
269.7470, 201.0117
270.2291, 171.6289
270.7112, 92.64844
271.1933, 71.44531
271.6754, 134.5156
272.1576, 231.3438
272.6397, 237.5430
273.1218, 131.3984
273.6039, 18.87109
274.0860, 45.31250
274.5681, 56.24609
275.0503, 68.13281
275.5324, 84.17969
276.0145, 98.99219
276.4966, 99.75391
276.9787, 84.32422
277.4608, 62.88281
277.9430, 35.54688
278.4251, 4.519531
278.9072, 6.542969
279.3893, 52.84375
279.8714, 112.2148
280.3535, 123.9883
280.8357, 84.47266
281.3178, 38.75781
281.7999, 5.031250
282.2820, 17.33594
282.7641, 21.71094
283.2462, 3.824219
283.7284, 24.46484
284.2105, 47.31250
284.6926, 64.64844
285.1747, 65.53125
285.6568, 30.27344
286.1389, 34.93750
286.6211, 68.18359
287.1032, 65.03906
287.5853, 34.53516
288.0674, 28.05078
288.5495, 120.7539
289.0316, 186.5938
289.5137, 168.1445
289.9958, 91.21484
290.4780, 79.92188
290.9601, 154.1367
291.4422, 243.9414
291.9243, 248.6797
292.4064, 179.1250
292.8885, 105.6914
293.3707, 58.34375
293.8528, 34.01953
294.3349, 20.16797
294.8170, 16.51953
295.2991, 25.54297
295.7813, 66.92969
296.2634, 129.6250
296.7455, 170.9570
297.2276, 164.9727
297.7097, 125.0195
298.1918, 67.39062
298.6740, 13.84375
299.1561, 74.27344
299.6382, 40.57031
300.1203, 55.55078
300.6024, 129.3008
301.0845, 136.4375
301.5667, 101.7148
302.0488, 38.34375
302.5309, 55.05078
303.0130, 124.8008
303.4951, 93.16797
303.9772, 0.1679690
304.4594, 74.84766
304.9415, 91.65625
305.4236, 77.77734
305.9057, 48.56250
306.3878, 5.226563
306.8699, 23.05469
307.3521, 0.9296880
307.8342, 49.66016
308.3163, 81.62109
308.7984, 70.32422
309.2805, 43.27344
309.7626, 18.38672
310.2448, 4.222656
310.7269, 30.85156
311.2090, 83.37109
311.6911, 136.5430
312.1732, 157.5391
312.6553, 111.0625
313.1375, 52.02734
313.6196, 4.175781
314.1017, 32.87500
314.5838, 63.63281
315.0659, 107.5000
315.5480, 137.5273
316.0301, 129.8516
316.5122, 37.24219
316.9944, 54.15625
317.4765, 123.5781
317.9586, 170.0469
318.4407, 184.1875
318.9228, 120.3594
319.4049, 49.13281
319.8871, 18.01562
320.3692, 77.58594
320.8513, 130.6328
321.3334, 141.7734
321.8155, 124.8438
322.2976, 135.6562
322.7798, 237.6328
323.2619, 331.4766
323.7440, 366.9609
324.2261, 294.3438
324.7082, 225.2188
325.1903, 163.2500
325.6725, 111.9922
326.1546, 77.32812
326.6367, 72.26562
327.1188, 72.08594
327.6009, 65.41406
328.0830, 30.60156
328.5652, 28.21875
329.0473, 74.27344
329.5294, 150.5156
330.0115, 221.2891
330.4936, 305.0703
330.9757, 361.3203
331.4579, 378.1016
331.9400, 342.6016
332.4221, 299.2031
332.9042, 246.1484
333.3863, 190.2500
333.8684, 134.3125
334.3506, 60.32031
334.8327, 26.82031
335.3148, 69.61719
335.7969, 200.2109
336.2790, 260.6875
336.7611, 224.5312
337.2433, 152.9609
337.7254, 121.4844
338.2075, 141.8438
338.6896, 164.8594
339.1717, 176.5625
339.6538, 178.5078
340.1359, 203.6172
340.6180, 257.3125
341.1002, 312.1016
341.5823, 340.2109
342.0644, 342.4922
342.5465, 327.3125
343.0286, 290.7812
343.5107, 242.3594
343.9929, 207.5938
344.4750, 185.3516
344.9571, 179.3125
345.4392, 198.6719
345.9213, 238.7422
346.4034, 277.7891
346.8856, 316.2891
347.3677, 344.8438
347.8498, 332.4453
348.3319, 280.3828
348.8140, 232.7969
349.2961, 227.3750
349.7783, 253.3047
350.2604, 282.8203
350.7425, 312.4688
351.2246, 336.9531
351.7067, 353.9688
352.1888, 363.3438
352.6710, 362.2422
353.1531, 329.8594
353.6352, 292.5625
354.1173, 289.4766
354.5994, 330.3438
355.0815, 380.1172
355.5637, 424.3125
356.0458, 457.7969
356.5279, 472.2734
357.0100, 441.4375
357.4921, 401.7656
357.9742, 386.2656
358.4564, 399.3594
358.9385, 391.6328
359.4206, 304.0391
359.9027, 194.7656
360.3848, 129.8828
360.8669, 156.0156
361.3491, 202.4453
361.8312, 242.4688
362.3133, 274.7812
362.7954, 309.1875
363.2775, 355.9062
363.7596, 405.2578
364.2417, 449.8594
364.7238, 505.5156
365.2060, 532.7734
365.6881, 516.1953
366.1702, 462.5078
366.6523, 404.0859
367.1344, 288.9609
367.6165, 211.1797
368.0987, 220.5000
368.5808, 449.8125
369.0629, 574.4688
369.5450, 535.7734
370.0271, 397.8516
370.5092, 321.6250
370.9914, 340.1484
371.4735, 373.0938
371.9556, 392.7812
372.4377, 395.5078
372.9198, 396.1719
373.4019, 400.2422
373.8841, 402.1875
374.3662, 391.4766
374.8483, 361.6484
375.3304, 334.5078
375.8125, 309.8594
376.2946, 289.3672
376.7768, 309.0469
377.2589, 378.0078
377.7410, 450.2891
378.2231, 476.9844
378.7052, 457.1484
379.1873, 432.3750
379.6695, 407.0703
380.1516, 385.7812
380.6337, 389.9141
381.1158, 419.1875
381.5979, 452.5781
382.0800, 475.0312
382.5622, 486.5625
383.0443, 481.6328
383.5264, 452.8281
384.0085, 421.5547
384.4906, 416.8984
384.9727, 435.8984
385.4549, 466.1562
385.9370, 513.2031
386.4191, 562.8438
386.9012, 602.2891
387.3833, 636.1328
387.8654, 631.3438
388.3475, 489.0625
388.8297, 288.8984
389.3118, 186.0703
389.7939, 375.3047
390.2760, 603.3047
390.7581, 659.9062
391.2402, 532.1250
391.7224, 407.2578
392.2045, 385.4297
392.6866, 412.5781
393.1687, 434.9531
393.6508, 422.0391
394.1329, 417.1484
394.6151, 442.2344
395.0972, 491.0703
395.5793, 521.1094
396.0614, 525.9062
396.5435, 509.1875
397.0256, 471.5312
397.5078, 355.9297
397.9899, 292.7891
398.4720, 318.5781
398.9541, 403.4219
399.4362, 472.0312
399.9183, 518.2344
400.4005, 554.1562
400.8826, 586.3672
401.3647, 621.9297
401.8468, 628.0078
402.3289, 597.9453
402.8110, 544.1797
403.2932, 478.5391
403.7753, 388.8125
404.2574, 323.5859
404.7395, 297.5859
405.2216, 308.6562
405.7037, 347.3125
406.1859, 427.4141
406.6680, 490.2031
407.1501, 458.6875
407.6322, 334.1562
408.1143, 276.7656
408.5964, 343.0078
409.0786, 465.7500
409.5607, 480.5312
410.0428, 389.5469
410.5249, 293.2344
411.0070, 268.9688
411.4891, 288.7891
411.9713, 280.2578
412.4534, 228.6797
412.9355, 175.4766
413.4176, 168.4062
413.8997, 198.0078
414.3818, 234.1562
414.8639, 271.3438
415.3460, 304.6484
415.8282, 331.0234
416.3103, 352.0156
416.7924, 358.6953
417.2745, 329.5391
417.7566, 286.6562
418.2387, 256.9844
418.7209, 267.1641
419.2030, 280.9062
419.6851, 285.5938
420.1672, 281.5234
420.6493, 267.1328
421.1314, 222.2109
421.6136, 181.3281
422.0957, 166.1172
422.5778, 195.4922
423.0599, 221.4297
423.5420, 224.9062
424.0241, 223.3516
424.5063, 254.4766
424.9884, 371.5859
425.4705, 461.0469
425.9526, 487.6875
426.4347, 444.0781
426.9168, 402.2500
427.3990, 364.1406
427.8811, 328.4922
428.3632, 284.5781
428.8453, 224.4219
429.3274, 202.1250
429.8095, 238.3359
430.2917, 319.4297
430.7738, 376.0312
431.2559, 407.3906
431.7380, 422.4219
432.2201, 433.5000
432.7022, 438.2266
433.1844, 389.3516
433.6665, 259.4141
434.1486, 129.5312
434.6307, 162.4688
435.1128, 328.3047
435.5949, 459.4062
436.0771, 432.1953
436.5592, 330.2109
437.0413, 298.3906
437.5234, 342.2891
438.0055, 388.2422
438.4876, 358.9453
438.9697, 302.0312
439.4518, 287.6797
439.9340, 395.0156
440.4161, 494.3516
440.8982, 469.6016
441.3803, 353.1406
441.8624, 283.3281
442.3445, 381.3516
442.8267, 509.0234
443.3088, 568.8906
443.7909, 516.3281
444.2730, 465.2188
444.7551, 451.4062
445.2372, 451.8438
445.7194, 429.3438
446.2015, 326.7109
446.6836, 250.8438
447.1657, 239.3203
447.6478, 306.7109
448.1299, 343.0391
448.6121, 315.9688
449.0942, 291.0234
449.5763, 330.0469
450.0584, 474.6406
450.5405, 557.7188
451.0226, 543.0859
451.5048, 462.1953
451.9869, 402.7188
452.4690, 365.4844
452.9511, 345.6094
453.4332, 343.8047
453.9153, 362.3281
454.3975, 405.7109
454.8796, 480.0156
455.3617, 551.1016
455.8438, 576.3359
456.3259, 562.3438
456.8080, 528.3516
457.2902, 472.0078
457.7723, 405.2422
458.2544, 338.3828
458.7365, 273.1250
459.2186, 226.3438
459.7007, 208.2109
460.1829, 215.7656
460.6650, 249.5234
461.1471, 321.9922
461.6292, 391.2188
462.1113, 433.7188
462.5934, 456.1953
463.0755, 463.7578
463.5576, 444.7891
464.0398, 430.9922
464.5219, 441.5391
465.0040, 481.8828
465.4861, 503.9531
465.9682, 509.4844
466.4503, 490.8984
466.9325, 438.9688
467.4146, 301.5781
467.8967, 202.4297
468.3788, 156.7578
468.8609, 158.0312
469.3430, 184.4141
469.8252, 253.4062
470.3073, 312.1953
470.7894, 332.5156
471.2715, 309.9141
471.7536, 291.5469
472.2357, 280.2891
472.7179, 267.1484
473.2000, 235.1875
473.6821, 185.2656
474.1642, 142.3594
474.6463, 105.8516
475.1284, 86.36719
475.6106, 126.1172
476.0927, 220.7266
476.5748, 306.6328
477.0569, 307.2812
477.5390, 269.3359
478.0211, 279.4297
478.5033, 372.3984
478.9854, 470.2734
479.4675, 525.4297
479.9496, 540.0703
480.4317, 518.3125
480.9138, 433.3047
481.3960, 335.1797
481.8781, 244.0312
482.3602, 161.2812
482.8423, 101.6797
483.3244, 90.79688
483.8065, 90.10938
484.2887, 72.76562
484.7708, 31.99219
485.2529, 68.48438
485.7350, 11.45312
486.2171, 157.5859
486.6992, 245.8359
487.1813, 250.6328
487.6635, 243.3125
488.1456, 243.3750
488.6277, 249.9609
489.1098, 275.4844
489.5919, 328.8047
490.0740, 380.6641
490.5562, 408.2031
491.0383, 410.4688
491.5204, 375.8984
492.0025, 291.0078
492.4846, 183.2656
492.9667, 97.45312
493.4489, 32.67969
493.9310, 12.02344
494.4131, 40.87500
494.8952, 48.68750
495.3773, 16.35156
495.8594, 62.03906
496.3416, 132.2734
496.8237, 135.3828
497.3058, 109.7734
497.7879, 110.5391
498.2700, 215.4219
498.7521, 291.0547
499.2343, 242.2344
499.7164, 102.7656
500.1985, 13.78906
500.6806, 40.39844
501.1627, 99.58594
501.6448, 155.4688
502.1270, 207.6562
502.6091, 255.2266
503.0912, 304.8906
503.5733, 346.1562
504.0554, 368.3906
504.5375, 383.3438
505.0197, 351.1172
505.5018, 246.3672
505.9839, 89.69531
506.4660, 21.82031
506.9481, 86.53906
507.4302, 112.8203
507.9124, 84.03906
508.3945, 8.960938
508.8766, 14.14062
509.3587, 31.66406
509.8408, 81.06250
510.3229, 37.00000
510.8051, 73.09375
511.2871, 159.9062
511.7693, 162.0781
512.2514, 150.8750
512.7335, 243.0312
513.2156, 409.0781
513.6978, 509.6250
514.1799, 373.8984
514.6620, 182.5312
515.1441, 93.89844
515.6262, 166.6172
516.1083, 226.2812
516.5905, 197.6016
517.0726, 129.5000
517.5547, 88.47656
518.0368, 114.0625
518.5189, 120.8750
519.0010, 74.10156
519.4832, 14.35156
519.9653, 40.21875
520.4474, 38.53906
520.9295, 116.5938
521.4116, 131.2656
521.8937, 65.84375
522.3759, 28.50000
522.8580, 24.62500
523.3401, 39.74219
523.8221, 45.44531
524.3043, 42.39844
524.7864, 79.66406
525.2685, 209.5703
525.7506, 356.0781
526.2327, 331.9297
526.7148, 160.5938
527.1970, 7.382813
527.6791, 7.523438
528.1612, 79.64844
528.6433, 123.6875
529.1254, 123.5391
529.6075, 117.5703
530.0897, 134.9609
530.5718, 157.9062
531.0539, 163.0703
531.5360, 126.9453
532.0181, 89.95312
532.5002, 70.60938
532.9824, 63.03906
533.4645, 37.54688
533.9466, 61.53906
534.4287, 125.9141
534.9108, 107.2500
535.3929, 20.33594
535.8751, 134.3828
536.3572, 250.5938
536.8393, 334.5625
537.3214, 335.8750
537.8035, 243.6016
538.2856, 167.8047
538.7678, 130.6797
539.2499, 122.6797
539.7320, 127.8750
540.2141, 144.4141
540.6962, 157.2500
541.1783, 152.1953
541.6605, 138.9219
542.1426, 132.9609
542.6247, 132.4062
543.1068, 131.9766
543.5889, 145.7969
544.0710, 156.5234
544.5532, 140.2031
545.0353, 58.20312
545.5174, 6.781250
545.9995, 12.04688
546.4816, 24.50000
546.9637, 58.96094
547.4459, 42.53906
547.9280, 62.03125
548.4101, 182.4453
548.8922, 420.8828
549.3743, 520.0312
549.8564, 412.0156
550.3386, 250.6328
550.8207, 147.5469
551.3028, 111.2891
551.7849, 88.29688
552.2670, 78.27344
552.7491, 74.46875
553.2313, 65.92969
553.7134, 53.60156
554.1955, 41.79688
554.6776, 29.00781
555.1597, 19.53906
555.6418, 30.19531
556.1240, 57.39062
556.6061, 70.02344
557.0882, 5.375000
557.5703, 65.25000
558.0524, 54.13281
558.5345, 80.04688
559.0167, 209.5625
559.4988, 286.5078
559.9809, 319.6719
560.4630, 319.0781
560.9451, 259.1094
561.4272, 196.7656
561.9094, 126.7500
562.3915, 58.36719
562.8736, 44.01562
563.3557, 126.8984
563.8378, 200.8203
564.3199, 208.7422
564.8021, 140.9453
565.2842, 94.30469
565.7663, 74.72656
566.2484, 74.93750
566.7305, 89.89062
567.2126, 113.1094
567.6948, 116.0781
568.1769, 92.74219
568.6590, 61.70312
569.1411, 54.09375
569.6232, 60.21875
570.1053, 46.28906
570.5875, 55.60156
571.0696, 149.9766
571.5517, 142.4531
572.0338, 34.02344
572.5159, 85.42969
572.9980, 241.8203
573.4801, 351.2578
573.9622, 334.1328
574.4443, 18.66406
574.9265, 132.3750
575.4086, 65.61719
575.8907, 384.8594
576.3728, 519.4531
576.8549, 377.1875
577.3370, 243.0312
577.8192, 174.2656
578.3013, 163.0391
578.7834, 161.0625
579.2655, 172.7344
579.7476, 165.4688
580.2297, 83.75000
580.7119, 37.12500
581.1940, 49.46094
581.6761, 60.24219
582.1582, 190.3906
582.6403, 253.2812
583.1224, 270.5156
583.6046, 275.8125
584.0867, 281.5547
584.5688, 274.0547
585.0509, 227.6562
585.5330, 162.8359
586.0151, 122.2891
586.4973, 135.6797
586.9794, 158.7188
587.4615, 179.0156
587.9436, 195.6562
