##NAMES=Cuproiridsite
##RRUFFID=R070035
##IDEAL CHEMISTRY=Cu^2+^Ir^3+^_2_S^2-^_4_
##LOCALITY=Miass River, Urals, Russia
##OWNER=RRUFF
##SOURCE=Michael Scott
##DESCRIPTION=Iron-black metallic polished fragment embedded in epoxy
##STATUS=The identification of this mineral has been confirmed only by chemical analysis
##URL=rruff.info/R070035
##MEASURED CHEMISTRY=gray inclusion in the dark phase: (Cu_0.67_Ni_0.17_Fe_0.16_)_Σ=1_(Ir_1.94_Pt_0.04_Ru_0.02_)_Σ=2_S_4.00_ trace amounts of Os.
138.1838, 0.0000000E+00
138.6659, 5.303955
139.1480, 4.095215
139.6301, 17.18896
140.1123, 74.17236
140.5944, 144.6252
141.0765, 222.3298
141.5586, 305.9470
142.0407, 394.8606
142.5228, 489.5144
143.0050, 588.4766
143.4871, 687.5486
143.9692, 789.2310
144.4513, 887.0984
144.9334, 990.7744
145.4155, 1088.075
145.8977, 1160.721
146.3798, 1195.347
146.8619, 1196.697
147.3440, 1200.795
147.8261, 1228.673
148.3082, 1235.326
148.7904, 1207.559
149.2725, 1152.664
149.7546, 1081.934
150.2367, 1001.175
150.7188, 911.7495
151.2010, 832.9436
151.6831, 765.8408
152.1652, 708.3337
152.6473, 660.9878
153.1294, 624.6794
153.6115, 597.9668
154.0937, 580.2202
154.5758, 571.1321
155.0579, 564.9980
155.5400, 567.7251
156.0221, 568.5796
156.5042, 565.0474
156.9864, 556.5425
157.4685, 544.0406
157.9506, 526.6997
158.4327, 503.8396
158.9148, 484.8109
159.3969, 471.8447
159.8791, 459.4884
160.3612, 446.6428
160.8433, 434.7886
161.3254, 426.0763
161.8075, 426.4441
162.2896, 435.8807
162.7718, 436.1461
163.2539, 411.1810
163.7360, 388.6165
164.2181, 381.1202
164.7002, 383.5216
165.1823, 386.2863
165.6645, 384.0636
166.1466, 378.3558
166.6287, 356.9240
167.1108, 293.9491
167.5929, 234.6095
168.0750, 202.1398
168.5572, 192.7371
169.0393, 192.3612
169.5214, 192.2858
170.0035, 191.7812
170.4856, 189.1737
170.9677, 187.5889
171.4499, 182.3892
171.9320, 169.1476
172.4141, 149.2859
172.8962, 129.4994
173.3783, 112.2421
173.8604, 98.47815
174.3426, 88.63049
174.8247, 86.43518
175.3068, 83.54041
175.7889, 74.05115
176.2710, 58.92749
176.7531, 44.20166
177.2353, 33.34265
177.7174, 26.63220
178.1995, 22.37024
178.6816, 22.67603
179.1637, 23.29175
179.6458, 20.32910
180.1280, 14.66528
180.6101, 12.05737
181.0922, 16.86792
181.5743, 26.48413
182.0564, 32.57251
182.5385, 35.28430
183.0207, 34.82568
183.5028, 30.55859
183.9849, 22.62134
184.4670, 12.37720
184.9491, 1.323486
185.4312, 15.72681
185.9134, 26.11047
186.3955, 33.31372
186.8776, 35.83167
187.3597, 28.45776
187.8418, 12.72900
188.3239, 2.944824
188.8061, 7.854919
189.2882, 21.62573
189.7703, 32.57318
190.2524, 40.89862
190.7345, 46.18121
191.2166, 47.67102
191.6988, 45.56976
192.1809, 40.85394
192.6630, 31.37781
193.1451, 21.40381
193.6272, 17.57947
194.1093, 22.06000
194.5915, 27.57080
195.0736, 27.75043
195.5557, 23.41217
196.0378, 15.25134
196.5199, 12.51807
197.0020, 11.65918
197.4842, 8.128662
197.9663, 1.408142
198.4484, 5.134827
198.9305, 9.040100
199.4126, 10.59460
199.8947, 11.75867
200.3769, 11.79608
200.8590, 13.10846
201.3411, 18.43182
201.8232, 28.18530
202.3053, 37.94739
202.7874, 44.92487
203.2696, 49.47272
203.7517, 53.47693
204.2338, 57.34088
204.7159, 60.68317
205.1980, 63.42896
205.6801, 65.56384
206.1623, 66.45367
206.6444, 63.06793
207.1265, 57.42206
207.6086, 59.00708
208.0907, 74.11987
208.5728, 89.68488
209.0550, 92.33978
209.5371, 84.04132
210.0192, 77.48468
210.5013, 80.57697
210.9834, 90.74664
211.4656, 100.5687
211.9477, 110.7464
212.4298, 117.6638
212.9119, 115.2110
213.3940, 106.4297
213.8761, 102.3759
214.3583, 111.7974
214.8404, 129.2447
215.3225, 141.6649
215.8046, 147.6231
216.2867, 150.1979
216.7688, 150.1542
217.2510, 148.4872
217.7331, 147.2862
218.2152, 146.7907
218.6973, 147.4779
219.1794, 150.7465
219.6615, 157.3699
220.1437, 163.9857
220.6258, 169.5916
221.1079, 173.7109
221.5900, 174.9046
222.0721, 170.5021
222.5542, 164.4537
223.0364, 162.3292
223.5185, 164.4952
224.0006, 168.8455
224.4827, 178.1344
224.9648, 187.8599
225.4469, 191.2491
225.9291, 184.9306
226.4112, 174.6961
226.8933, 165.3898
227.3754, 156.7647
227.8575, 152.2452
228.3396, 155.7101
228.8218, 163.1192
229.3039, 169.1000
229.7860, 172.3629
230.2681, 175.7873
230.7502, 184.6689
231.2323, 198.3804
231.7145, 204.0559
232.1966, 192.0448
232.6787, 174.1853
233.1608, 165.1245
233.6429, 166.2993
234.1250, 170.4818
234.6072, 174.4343
235.0893, 177.8013
235.5714, 178.2502
236.0535, 173.8457
236.5356, 168.1758
237.0177, 165.0687
237.4999, 164.4125
237.9820, 164.5659
238.4641, 165.5680
238.9462, 167.0695
239.4283, 167.1237
239.9104, 164.2759
240.3926, 161.9770
240.8747, 164.1091
241.3568, 169.9492
241.8389, 176.1700
242.3210, 182.9660
242.8031, 188.5256
243.2853, 189.6378
243.7674, 185.6520
244.2495, 180.3662
244.7316, 177.1936
245.2137, 176.1483
245.6958, 175.8125
246.1780, 175.2266
246.6601, 173.9528
247.1422, 172.3047
247.6243, 170.5424
248.1064, 167.0758
248.5885, 158.7306
249.0707, 148.4302
249.5528, 144.8374
250.0349, 155.7437
250.5170, 167.9604
250.9991, 170.3188
251.4812, 163.6444
251.9634, 156.1310
252.4455, 151.9677
252.9276, 150.3337
253.4097, 148.1743
253.8918, 145.9450
254.3739, 142.7283
254.8561, 137.1299
255.3382, 130.2560
255.8203, 124.9711
256.3024, 122.3997
256.7845, 121.3190
257.2667, 119.7650
257.7488, 117.3860
258.2309, 115.6159
258.7130, 114.5374
259.1951, 114.5251
259.6772, 117.3705
260.1594, 124.0499
260.6415, 129.8678
261.1236, 126.9072
261.6057, 112.5667
262.0878, 103.3513
262.5699, 104.4717
263.0521, 109.5899
263.5342, 113.5525
264.0163, 115.4893
264.4984, 115.0791
264.9805, 111.3483
265.4626, 103.7380
265.9448, 99.28839
266.4269, 98.49402
266.9090, 100.1635
267.3911, 105.0235
267.8732, 112.1263
268.3553, 118.4568
268.8375, 122.0858
269.3196, 123.0271
269.8017, 121.0604
270.2838, 113.6170
270.7659, 106.6109
271.2480, 101.1280
271.7302, 97.48938
272.2123, 96.79904
272.6944, 99.89001
273.1765, 105.0870
273.6586, 107.2113
274.1407, 103.1316
274.6229, 99.66629
275.1050, 98.20209
275.5871, 97.17676
276.0692, 94.62717
276.5513, 89.98834
277.0334, 84.63675
277.5156, 80.99249
277.9977, 81.31384
278.4798, 78.67026
278.9619, 67.03589
279.4440, 57.20178
279.9261, 58.31879
280.4083, 70.05191
280.8904, 84.08612
281.3725, 92.10568
281.8546, 93.79050
282.3367, 91.13547
282.8188, 78.53647
283.3010, 67.24667
283.7831, 62.11035
284.2652, 61.60464
284.7473, 61.51199
285.2294, 58.73413
285.7115, 53.83029
286.1937, 51.09833
286.6758, 52.58682
287.1579, 53.77426
287.6400, 52.90836
288.1221, 51.46631
288.6042, 51.49326
289.0864, 53.98267
289.5685, 57.77640
290.0506, 60.82275
290.5327, 63.93115
291.0148, 64.07449
291.4969, 57.71445
291.9791, 50.41583
292.4612, 46.67297
292.9433, 47.27087
293.4254, 48.88773
293.9075, 47.21249
294.3896, 41.78937
294.8718, 38.65921
295.3539, 39.18259
295.8360, 41.71307
296.3181, 46.09436
296.8002, 51.83829
297.2823, 57.12097
297.7645, 61.07230
298.2466, 63.63647
298.7287, 64.58075
299.2108, 63.61288
299.6929, 61.90125
300.1750, 59.48315
300.6572, 56.66464
301.1393, 54.08649
301.6214, 51.86823
302.1035, 50.23972
302.5856, 49.31451
303.0677, 49.17844
303.5499, 50.10605
304.0320, 52.63443
304.5141, 55.47000
304.9962, 56.50745
305.4783, 54.74905
305.9604, 53.85947
306.4426, 57.48569
306.9247, 64.09732
307.4068, 68.18140
307.8889, 67.76324
308.3710, 65.63855
308.8531, 65.72253
309.3353, 68.18158
309.8174, 67.13290
310.2995, 57.23688
310.7816, 44.93945
311.2637, 39.11926
311.7458, 41.03152
312.2280, 43.76364
312.7101, 40.31934
313.1922, 30.57022
313.6743, 26.53952
314.1564, 36.17862
314.6385, 44.35410
315.1207, 40.00845
315.6028, 27.26053
316.0849, 16.59528
316.5670, 13.08185
317.0491, 15.83722
317.5313, 16.51862
318.0134, 13.04745
318.4955, 10.26111
318.9776, 7.777588
319.4597, 6.670776
319.9418, 9.308899
320.4240, 16.25845
320.9061, 24.18463
321.3882, 27.51910
321.8703, 23.53906
322.3524, 21.11514
322.8345, 21.56174
323.3167, 22.18698
323.7988, 20.65594
324.2809, 17.52222
324.7630, 15.72202
325.2451, 18.50290
325.7272, 25.78717
326.2094, 28.14984
326.6915, 18.12573
327.1736, 11.41730
327.6557, 15.17410
328.1378, 23.75513
328.6199, 28.36380
329.1021, 24.32205
329.5842, 16.00946
330.0663, 13.57205
330.5484, 19.66919
331.0305, 24.14642
331.5126, 23.34552
331.9948, 20.91537
332.4769, 19.03537
332.9590, 18.13797
333.4411, 18.22443
333.9232, 20.02121
334.4053, 23.28491
334.8875, 24.98520
335.3696, 24.64621
335.8517, 22.82968
336.3338, 19.24149
336.8159, 14.44611
337.2980, 10.43774
337.7802, 7.968170
338.2623, 6.964478
338.7444, 8.000183
339.2265, 11.32495
339.7086, 12.90472
340.1907, 7.790344
340.6729, 0.4017330
341.1550, 1.443726
341.6371, 16.42719
342.1192, 31.18304
342.6013, 38.49969
343.0834, 39.24420
343.5656, 34.32007
344.0477, 23.04233
344.5298, 10.85449
345.0119, 7.306305
345.4940, 14.81271
345.9761, 19.90875
346.4583, 20.54623
346.9404, 18.84534
347.4225, 15.55283
347.9046, 11.16040
348.3867, 7.699463
348.8688, 7.227142
349.3510, 9.712860
349.8331, 10.14240
350.3152, 6.554932
350.7973, 3.458740
351.2794, 2.352905
351.7615, 2.507996
352.2437, 2.443878
352.7258, 1.489288
353.2079, 0.7554020
353.6900, 3.203461
354.1721, 13.03482
354.6542, 17.84006
355.1364, 15.16107
355.6185, 9.627472
356.1006, 2.886414
356.5827, 4.038635
357.0648, 9.303528
357.5469, 11.17017
358.0291, 9.657227
358.5112, 5.570892
358.9933, 5.981598
359.4754, 13.12994
359.9575, 8.135376
360.4396, 3.199005
360.9218, 11.55881
361.4039, 13.10126
361.8860, 10.08383
362.3681, 4.780731
362.8502, 3.219116
363.3323, 9.506714
363.8145, 13.52155
364.2966, 14.21103
364.7787, 9.135071
365.2608, 2.546417
365.7430, 11.49896
366.2251, 11.40033
366.7072, 5.300934
367.1893, 1.342346
367.6714, 8.072327
368.1535, 13.15665
368.6357, 14.77225
369.1178, 12.97855
369.5999, 10.11057
370.0820, 2.978271
370.5641, 2.202057
371.0462, 2.330444
371.5284, 12.43851
372.0105, 14.45798
372.4926, 0.4013670
372.9747, 20.88986
373.4568, 26.81818
373.9389, 1.157928
374.4211, 15.87878
374.9032, 17.46042
375.3853, 13.33997
375.8674, 10.81595
376.3495, 11.38748
376.8316, 13.53525
377.3138, 16.09476
377.7959, 19.25790
378.2780, 20.27121
378.7601, 16.48825
379.2422, 13.19882
379.7243, 12.09778
380.2065, 12.33136
380.6886, 12.08020
381.1707, 10.22037
381.6528, 8.508453
382.1349, 11.90024
382.6170, 23.02914
383.0992, 28.89908
383.5813, 20.36990
384.0634, 10.44931
384.5455, 8.533783
385.0276, 14.56668
385.5097, 20.78589
385.9919, 21.94592
386.4740, 19.39664
386.9561, 16.28766
387.4382, 12.25006
387.9203, 9.797943
388.4024, 12.73526
388.8846, 18.24017
389.3667, 19.21506
389.8488, 10.62292
390.3309, 2.664093
390.8130, 3.783264
391.2951, 10.78491
391.7773, 14.43311
392.2594, 11.12885
392.7415, 5.297424
393.2236, 4.125824
393.7057, 10.13986
394.1878, 12.90262
394.6700, 9.376221
395.1521, 4.574554
395.6342, 1.765198
396.1163, 0.8909910
396.5984, 0.9602360
397.0805, 1.384064
397.5627, 1.907104
398.0448, 0.7524110
398.5269, 4.897339
399.0090, 8.654114
399.4911, 9.707397
399.9732, 8.634003
400.4554, 4.814484
400.9375, 1.503265
401.4196, 6.994019
401.9017, 6.322174
402.3838, 1.375305
402.8659, 5.025116
403.3481, 1.134949
403.8302, 3.302063
404.3123, 4.024750
404.7944, 2.732208
405.2765, 3.420410
405.7586, 8.511261
406.2408, 15.47705
406.7229, 21.09766
407.2050, 25.37265
407.6871, 26.93845
408.1692, 24.26358
408.6513, 19.44644
409.1335, 15.36179
409.6156, 11.86032
410.0977, 9.994019
410.5798, 11.02862
411.0619, 13.48367
411.5440, 15.75409
412.0262, 17.58679
412.5083, 18.94846
412.9904, 19.48636
413.4725, 19.19455
413.9546, 20.58746
414.4367, 26.32083
414.9189, 30.20218
415.4010, 30.02701
415.8831, 27.60648
416.3652, 24.96500
416.8473, 22.72949
417.3294, 20.78784
417.8116, 19.25430
418.2937, 17.71478
418.7758, 17.51422
419.2579, 19.45334
419.7400, 22.04980
420.2221, 25.60052
420.7043, 29.55899
421.1864, 32.99106
421.6685, 35.76273
422.1506, 37.26706
422.6327, 35.96786
423.1148, 31.50061
423.5970, 26.10352
424.0791, 18.86301
424.5612, 13.01041
425.0433, 12.12738
425.5254, 16.32248
426.0075, 20.29953
426.4897, 22.26270
426.9718, 22.12213
427.4539, 18.37918
427.9360, 10.89465
428.4181, 5.071381
428.9002, 5.164337
429.3824, 10.25754
429.8645, 14.71536
430.3466, 19.22269
430.8287, 21.48291
431.3108, 21.13824
431.7929, 20.55518
432.2751, 19.78192
432.7572, 19.08798
433.2393, 18.18546
433.7214, 16.56750
434.2035, 13.89734
434.6856, 12.46042
435.1678, 14.50369
435.6499, 15.41278
436.1320, 12.77597
436.6141, 8.214813
437.0962, 4.227661
437.5783, 1.812683
438.0605, 1.112244
438.5426, 3.053223
439.0247, 8.105530
439.5068, 11.98810
439.9889, 13.81793
440.4710, 14.18860
440.9532, 12.68442
441.4353, 9.818390
441.9174, 8.714233
442.3995, 11.84106
442.8816, 16.80585
443.3637, 21.12924
443.8459, 24.73856
444.3280, 26.83749
444.8101, 26.67352
445.2922, 24.95288
445.7743, 23.53534
446.2564, 22.42105
446.7386, 21.60803
447.2207, 21.51276
447.7028, 21.42526
448.1849, 20.78992
448.6670, 19.62170
449.1491, 18.35168
449.6313, 17.25470
450.1134, 16.41629
450.5955, 16.58701
451.0776, 20.57544
451.5597, 21.70938
452.0418, 15.28986
452.5240, 7.637329
453.0061, 5.591980
453.4882, 10.50916
453.9703, 17.39572
454.4524, 21.44653
454.9345, 22.92731
455.4167, 24.44861
455.8988, 26.81897
456.3809, 27.43521
456.8630, 23.43210
457.3451, 17.00531
457.8272, 11.74338
458.3094, 7.606445
458.7915, 6.371765
459.2736, 12.01291
459.7557, 20.78708
460.2378, 22.97147
460.7199, 15.65469
461.2021, 5.437988
461.6842, 0.8434140
462.1663, 3.076233
462.6484, 2.176086
463.1305, 5.763214
463.6126, 12.73209
464.0948, 14.47192
464.5769, 12.76477
465.0590, 10.94052
465.5411, 10.51410
466.0232, 10.77112
466.5053, 10.00018
466.9875, 6.992767
467.4696, 7.381927
467.9517, 18.00699
468.4338, 26.08508
468.9159, 23.21136
469.3980, 12.71164
469.8802, 3.867340
470.3623, 0.9389950
470.8444, 2.050232
471.3265, 6.314484
471.8086, 13.51352
472.2907, 17.12521
472.7729, 13.58029
473.2550, 7.040863
473.7371, 4.372437
474.2192, 5.982910
474.7013, 5.569794
475.1834, 1.804321
475.6656, 8.626556
476.1477, 8.039032
476.6298, 1.267609
477.1119, 6.436249
477.5940, 12.24908
478.0761, 16.46286
478.5583, 20.16714
479.0404, 25.88550
479.5225, 26.27066
480.0046, 15.30075
480.4867, 4.453308
480.9688, 1.744141
481.4510, 6.173798
481.9331, 11.14169
482.4152, 11.99435
482.8973, 10.50494
483.3794, 11.86325
483.8615, 16.87991
484.3437, 19.99863
484.8258, 17.56290
485.3079, 13.64484
485.7900, 14.20172
486.2721, 19.80472
486.7542, 22.90579
487.2364, 18.10956
487.7185, 10.98306
488.2006, 7.279633
488.6827, 7.353333
489.1649, 10.43997
489.6470, 16.77747
490.1291, 24.44376
490.6112, 27.58640
491.0933, 21.76871
491.5754, 17.25287
492.0576, 14.36554
492.5397, 12.68777
493.0218, 12.57339
493.5039, 13.52670
493.9860, 13.90433
494.4681, 11.90640
494.9503, 8.734680
495.4324, 9.590698
495.9145, 16.22952
496.3966, 21.39606
496.8787, 21.81863
497.3608, 20.37494
497.8430, 19.87787
498.3251, 20.49377
498.8072, 20.89389
499.2893, 21.21625
499.7714, 20.59158
500.2535, 16.83655
500.7357, 10.32797
501.2178, 5.059509
501.6999, 3.176697
502.1820, 4.138885
502.6641, 6.496002
503.1462, 13.64185
503.6284, 16.84158
504.1105, 10.31674
504.5926, 4.223175
505.0747, 8.813538
505.5568, 21.32693
506.0389, 29.72256
506.5211, 24.61230
507.0032, 11.21405
507.4853, 6.325897
507.9674, 12.22141
508.4495, 18.82428
508.9316, 25.91068
509.4138, 31.14529
509.8959, 31.05692
510.3780, 25.63229
510.8601, 21.00876
511.3422, 20.67416
511.8243, 22.02737
512.3065, 22.26669
512.7886, 21.43790
513.2707, 20.59103
513.7528, 20.36545
514.2349, 19.98853
514.7170, 17.87119
515.1992, 12.87137
515.6813, 8.498871
516.1634, 2.876831
516.6455, 0.4449460
517.1276, 1.385223
517.6097, 7.240295
518.0919, 15.18271
518.5740, 24.73819
519.0561, 32.85083
519.5382, 31.15475
520.0203, 17.36490
520.5024, 9.737122
520.9846, 16.61865
521.4667, 24.78745
521.9488, 22.50208
522.4309, 12.60126
522.9130, 6.222015
523.3951, 8.787292
523.8773, 14.45459
524.3594, 20.90744
524.8415, 26.60535
525.3236, 26.12546
525.8057, 17.25677
526.2878, 6.083923
526.7700, 0.7213440
527.2521, 2.208984
527.7342, 3.953369
528.2163, 7.744019
528.6984, 9.883972
529.1805, 6.350616
529.6627, 1.339691
530.1448, 1.950653
530.6269, 10.56577
531.1090, 20.05777
531.5911, 19.45972
532.0732, 9.891602
532.5554, 6.587402
533.0375, 12.86414
533.5196, 19.12296
534.0017, 18.77451
534.4838, 15.13385
534.9659, 14.64502
535.4481, 20.55374
535.9302, 23.88437
536.4123, 16.11966
536.8944, 5.569214
537.3765, 4.361053
537.8586, 13.74313
538.3408, 23.37076
538.8229, 24.45828
539.3050, 18.32809
539.7871, 13.94333
540.2692, 10.75555
540.7513, 10.30627
541.2335, 16.17139
541.7156, 22.17432
542.1977, 22.75015
542.6798, 17.98511
543.1619, 12.58395
543.6440, 8.877411
544.1262, 7.158020
544.6083, 9.718994
545.0904, 16.71014
545.5725, 19.40350
546.0546, 12.19562
546.5367, 1.735199
547.0189, 0.4244690
547.5010, 7.263641
547.9831, 13.74100
548.4652, 19.14471
548.9473, 21.87546
549.4294, 19.34912
549.9116, 13.51959
550.3937, 8.102600
550.8758, 4.836914
551.3579, 3.564941
551.8400, 4.320374
552.3221, 7.423309
552.8043, 10.96167
553.2864, 17.39148
553.7685, 20.88306
554.2506, 16.43909
554.7327, 7.801056
555.2148, 1.748657
555.6970, 0.3001710
556.1791, 1.233063
556.6612, 3.734680
557.1433, 7.268555
557.6254, 11.43903
558.1075, 16.07504
558.5897, 18.60025
559.0718, 16.11719
559.5539, 9.481567
560.0360, 6.578461
560.5181, 9.680450
561.0002, 13.89249
561.4824, 21.55618
561.9645, 28.17795
562.4466, 28.76120
562.9287, 24.06943
563.4108, 19.51044
563.8929, 19.58383
564.3751, 22.14383
564.8572, 22.37781
565.3393, 20.23474
565.8214, 15.50577
566.3035, 5.783417
566.7856, 3.670044
567.2678, 4.669647
567.7499, 2.853333
568.2320, 9.337952
568.7141, 15.08429
569.1962, 18.04721
569.6783, 14.89444
570.1605, 8.567627
570.6426, 3.811707
571.1247, 2.466492
571.6068, 4.650513
572.0889, 12.56470
572.5710, 27.41693
573.0532, 32.07227
573.5353, 19.88339
574.0174, 7.913177
574.4995, 2.548676
574.9816, 1.878357
575.4637, 4.489410
575.9459, 10.85944
576.4280, 15.34503
576.9101, 13.62393
577.3922, 8.642487
577.8743, 3.605652
578.3564, 0.8851930
578.8386, 2.942963
579.3207, 1.129639
579.8028, 2.979736
580.2849, 4.922119
580.7670, 2.281097
581.2491, 1.924377
581.7313, 5.608276
582.2134, 9.593903
582.6955, 12.80576
583.1776, 14.67013
583.6597, 13.86301
584.1418, 8.961456
584.6240, 3.933563
585.1061, 4.712799
585.5882, 10.32690
586.0703, 17.15921
586.5524, 25.45609
587.0345, 29.47754
587.5167, 22.24072
587.9988, 5.797424
588.4809, 2.544128
588.9630, 3.177032
589.4451, 7.892853
589.9272, 7.171021
590.4094, 5.507935
590.8915, 7.708496
591.3736, 13.43369
591.8557, 18.90515
592.3378, 21.92285
592.8199, 21.99445
593.3021, 15.52664
593.7842, 0.8836670
594.2663, 5.594666
594.7484, 4.633972
595.2305, 18.12924
595.7126, 20.67038
596.1948, 13.90961
596.6769, 7.890106
597.1590, 3.592041
597.6411, 0.8469240
598.1232, 0.2871700
598.6053, 1.0773000E-02
599.0875, 1.917297
599.5696, 5.269257
600.0517, 8.910919
600.5338, 11.90329
601.0159, 14.14957
601.4980, 14.42197
601.9802, 11.47836
602.4623, 9.439514
602.9444, 10.84177
603.4265, 13.21735
603.9086, 13.18201
604.3907, 10.24878
604.8729, 7.835388
605.3550, 7.364960
605.8371, 7.775482
606.3192, 7.819366
606.8013, 8.042999
607.2834, 10.72491
