##NAMES=Cuspidine
##RRUFFID=R060049
##IDEAL CHEMISTRY=Ca_4_(Si_2_O_7_)F_2_
##LOCALITY=Ariccia, Rome, Italy
##OWNER=RRUFF
##SOURCE=University of Arizona Mineral Museum
##DESCRIPTION=White and colorless spear-shaped single crystal
##STATUS=The identification of this mineral is confirmed by single-crystal X-ray diffraction and chemical analysis.
##URL=rruff.info/R060049
##MEASURED CHEMISTRY=Ca_4.00_Si_2.00_O_7_F_2.00_
108.4348, 0.0000000E+00
108.9169, 15.19629
109.3990, 30.71436
109.8811, 10.86621
110.3632, 2.206421
110.8453, 1.770264
111.3275, 14.39160
111.8096, 28.50476
112.2917, 40.85852
112.7738, 57.62708
113.2559, 68.33398
113.7380, 92.55359
114.2202, 114.7965
114.7023, 135.1793
115.1844, 152.1230
115.6665, 162.0251
116.1486, 161.1285
116.6307, 150.2932
117.1129, 141.9744
117.5950, 136.4802
118.0771, 132.9014
118.5592, 129.4559
119.0413, 125.7776
119.5234, 126.2917
120.0056, 139.0842
120.4877, 160.0278
120.9698, 177.5333
121.4519, 187.0583
121.9340, 191.0942
122.4161, 193.4749
122.8982, 192.1134
123.3804, 192.9885
123.8625, 203.0142
124.3446, 219.7115
124.8267, 232.5276
125.3088, 228.4735
125.7909, 205.1692
126.2731, 195.8102
126.7552, 222.6929
127.2373, 252.8156
127.7194, 270.9121
128.2015, 274.1851
128.6837, 269.4086
129.1658, 266.1757
129.6479, 264.9709
130.1300, 265.5370
130.6121, 265.8711
131.0942, 267.4325
131.5764, 272.4939
132.0585, 282.2529
132.5406, 295.3019
133.0227, 305.9843
133.5048, 314.2865
133.9869, 315.2899
134.4691, 300.1637
134.9512, 286.6382
135.4333, 287.4944
135.9154, 308.3171
136.3975, 362.4270
136.8796, 391.6426
137.3618, 383.7703
137.8439, 376.0282
138.3260, 386.9799
138.8081, 401.0607
139.2902, 408.2424
139.7723, 403.9412
140.2545, 384.9493
140.7366, 369.7880
141.2187, 363.2766
141.7008, 366.6721
142.1829, 370.5942
142.6650, 365.6342
143.1472, 357.9583
143.6293, 356.5449
144.1114, 360.1713
144.5935, 358.3253
145.0756, 343.1578
145.5577, 318.8948
146.0399, 298.0457
146.5220, 281.8396
147.0041, 272.5286
147.4862, 271.9768
147.9683, 281.2869
148.4504, 289.8977
148.9326, 289.7283
149.4147, 278.8379
149.8968, 259.5382
150.3789, 219.9498
150.8610, 180.7531
151.3431, 152.2397
151.8252, 136.9156
152.3074, 130.3201
152.7895, 126.1434
153.2716, 125.2723
153.7537, 123.1282
154.2358, 121.1172
154.7179, 117.5840
155.2001, 110.2974
155.6822, 98.25806
156.1643, 82.73657
156.6464, 67.99536
157.1285, 45.40564
157.6106, 35.21277
158.0928, 51.08594
158.5749, 78.20203
159.0570, 97.16602
159.5391, 96.37036
160.0212, 77.07251
160.5033, 51.79651
160.9855, 1.800903
161.4676, 34.67896
161.9497, 35.87659
162.4318, 11.27161
162.9139, 10.92712
163.3960, 7.712402
163.8782, 22.00757
164.3603, 36.50427
164.8424, 23.20715
165.3245, 6.077393
165.8066, 0.1250000
166.2887, 2.666382
166.7709, 12.16675
167.2530, 27.52197
167.7351, 48.09851
168.2172, 56.10999
168.6993, 37.29871
169.1814, 9.173096
169.6636, 5.242188
170.1457, 0.2602540
170.6278, 8.705688
171.1099, 3.622437
171.5920, 12.72546
172.0741, 26.47192
172.5563, 34.17065
173.0384, 35.40100
173.5205, 27.20056
174.0026, 2.881592
174.4847, 22.37183
174.9668, 37.55017
175.4490, 42.91772
175.9311, 39.98108
176.4132, 24.30701
176.8953, 3.634155
177.3774, 21.94116
177.8595, 20.52490
178.3417, 12.73132
178.8238, 4.809814
179.3059, 2.259521
179.7880, 6.514526
180.2701, 4.865845
180.7522, 4.273804
181.2344, 12.81848
181.7165, 23.03101
182.1986, 30.12427
182.6807, 29.72314
183.1628, 20.82227
183.6449, 7.662354
184.1271, 3.646973
184.6092, 15.96802
185.0913, 19.72205
185.5734, 8.343018
186.0555, 7.444214
186.5376, 19.25049
187.0198, 23.65906
187.5019, 21.89282
187.9840, 16.77942
188.4661, 1.179932
188.9482, 9.908691
189.4303, 2.988159
189.9125, 12.28406
190.3946, 28.62793
190.8767, 42.79272
191.3588, 53.86096
191.8409, 57.72388
192.3230, 43.22168
192.8052, 33.83032
193.2873, 35.75696
193.7694, 45.51343
194.2515, 57.64514
194.7336, 69.76318
195.2157, 81.15808
195.6979, 84.34595
196.1800, 67.40967
196.6621, 56.19702
197.1442, 63.97083
197.6263, 86.27197
198.1084, 109.4182
198.5906, 125.3579
199.0727, 133.4661
199.5548, 135.1975
200.0369, 125.4500
200.5190, 114.3259
201.0011, 106.9292
201.4833, 103.4231
201.9654, 102.1460
202.4475, 100.9490
202.9296, 101.0544
203.4117, 108.2661
203.8938, 132.5845
204.3760, 158.0352
204.8581, 168.9565
205.3402, 164.0713
205.8223, 155.0964
206.3044, 148.5901
206.7865, 145.1003
207.2687, 147.1851
207.7508, 161.1868
208.2329, 178.7900
208.7150, 188.8135
209.1971, 189.7957
209.6792, 186.0801
210.1614, 175.0330
210.6435, 161.0071
211.1256, 155.8762
211.6077, 171.9893
212.0898, 199.0510
212.5719, 213.3442
213.0541, 208.8281
213.5362, 201.3735
214.0183, 201.2903
214.5004, 206.7427
214.9825, 213.7395
215.4646, 222.1140
215.9468, 231.1174
216.4289, 236.1882
216.9110, 235.2576
217.3931, 232.4780
217.8752, 231.1685
218.3573, 230.3171
218.8395, 226.8064
219.3216, 215.0203
219.8037, 197.9824
220.2858, 187.4448
220.7679, 182.8643
221.2500, 184.2468
221.7322, 193.7310
222.2143, 209.1865
222.6964, 224.2722
223.1785, 231.7839
223.6606, 230.5332
224.1427, 230.7764
224.6249, 234.5942
225.1070, 236.8997
225.5891, 235.4402
226.0712, 231.2024
226.5533, 227.0962
227.0354, 224.1816
227.5176, 220.7148
227.9997, 220.1196
228.4818, 228.9333
228.9639, 235.1543
229.4460, 230.8103
229.9281, 217.5327
230.4103, 203.9385
230.8924, 199.5767
231.3745, 207.2092
231.8566, 211.0344
232.3387, 208.3318
232.8208, 202.9666
233.3030, 194.2756
233.7851, 184.5059
234.2672, 179.5874
234.7493, 186.0754
235.2314, 205.6897
235.7135, 225.4241
236.1957, 257.7458
236.6778, 280.4690
237.1599, 274.4438
237.6420, 242.5176
238.1241, 206.6091
238.6062, 193.3430
239.0884, 213.9939
239.5705, 219.6965
240.0526, 195.6150
240.5347, 170.8115
241.0168, 165.8516
241.4989, 180.8396
241.9811, 198.7732
242.4632, 198.9614
242.9453, 172.9053
243.4274, 156.9756
243.9095, 157.9519
244.3916, 161.8354
244.8738, 158.6672
245.3559, 147.7334
245.8380, 136.5334
246.3201, 134.2014
246.8022, 145.4192
247.2843, 150.9302
247.7665, 143.5950
248.2486, 136.2307
248.7307, 140.6067
249.2128, 156.9329
249.6949, 173.7095
250.1770, 177.1274
250.6592, 161.2866
251.1413, 152.2817
251.6234, 151.4421
252.1055, 156.2854
252.5876, 168.1096
253.0697, 185.8352
253.5519, 202.2642
254.0340, 208.7341
254.5161, 201.8430
254.9982, 197.3511
255.4803, 191.9233
255.9624, 191.0164
256.4445, 202.5605
256.9267, 225.9307
257.4088, 248.1404
257.8909, 254.3958
258.3730, 239.7642
258.8551, 234.6685
259.3372, 241.6130
259.8194, 256.0476
260.3015, 279.9695
260.7836, 312.2463
261.2657, 338.2502
261.7478, 340.3711
262.2299, 313.5032
262.7121, 303.4275
263.1942, 322.0989
263.6763, 349.9277
264.1584, 372.9836
264.6405, 389.5159
265.1227, 401.9031
265.6048, 411.1934
266.0869, 417.2410
266.5690, 425.2454
267.0511, 438.4539
267.5332, 451.5518
268.0154, 459.7202
268.4975, 462.5942
268.9796, 463.9001
269.4617, 467.0623
269.9438, 471.7886
270.4259, 471.8499
270.9081, 457.1948
271.3902, 444.8091
271.8723, 455.0254
272.3544, 487.0581
272.8365, 510.8340
273.3186, 498.8865
273.8008, 454.5239
274.2829, 427.7026
274.7650, 427.3247
275.2471, 438.5750
275.7292, 458.3596
276.2113, 484.5146
276.6935, 497.5903
277.1756, 476.5681
277.6577, 429.1277
278.1398, 408.2700
278.6219, 437.4014
279.1040, 474.2437
279.5862, 491.6245
280.0683, 490.5237
280.5504, 480.6697
281.0325, 463.4602
281.5146, 442.9429
281.9967, 433.8525
282.4789, 442.0344
282.9610, 455.9382
283.4431, 473.0017
283.9252, 491.6514
284.4073, 502.0286
284.8894, 496.7988
285.3716, 480.2312
285.8537, 467.5862
286.3358, 462.0935
286.8179, 456.2974
287.3000, 444.4355
287.7821, 428.2148
288.2643, 414.4519
288.7464, 405.9507
289.2285, 402.3489
289.7106, 402.3828
290.1927, 408.4971
290.6748, 413.9702
291.1570, 416.3953
291.6391, 415.7021
292.1212, 411.7515
292.6033, 404.5535
293.0854, 393.7473
293.5675, 377.3540
294.0497, 351.1711
294.5318, 331.0432
295.0139, 326.6270
295.4960, 332.8215
295.9781, 338.0381
296.4602, 338.4282
296.9424, 337.7200
297.4245, 343.8770
297.9066, 359.9480
298.3887, 369.5657
298.8708, 362.9629
299.3529, 347.6819
299.8351, 337.4397
300.3172, 336.4321
300.7993, 336.8320
301.2814, 324.2537
301.7635, 297.1118
302.2456, 279.8289
302.7278, 285.6858
303.2099, 302.4380
303.6920, 314.1914
304.1741, 317.7710
304.6562, 316.3892
305.1383, 310.8242
305.6205, 299.9988
306.1026, 296.2205
306.5847, 304.9727
307.0668, 318.2744
307.5489, 329.2219
308.0310, 337.4089
308.5132, 342.9736
308.9953, 345.1252
309.4774, 343.3923
309.9595, 343.4841
310.4416, 346.2795
310.9237, 348.6631
311.4059, 347.3479
311.8880, 342.8052
312.3701, 338.3005
312.8522, 334.0500
313.3343, 331.2773
313.8164, 340.7944
314.2986, 380.3601
314.7807, 416.0146
315.2628, 424.1848
315.7449, 409.4907
316.2270, 394.0374
316.7091, 390.8833
317.1913, 398.0691
317.6734, 404.7898
318.1555, 417.2781
318.6376, 423.5620
319.1197, 413.9724
319.6018, 394.5920
320.0840, 379.3831
320.5661, 375.0884
321.0482, 379.5264
321.5303, 386.1514
322.0124, 400.2295
322.4945, 409.2207
322.9767, 406.8274
323.4588, 398.6318
323.9409, 391.4412
324.4230, 387.4558
324.9051, 388.6780
325.3872, 400.5891
325.8694, 437.2637
326.3515, 459.2554
326.8336, 455.6729
327.3157, 439.7041
327.7978, 420.5015
328.2799, 401.2417
328.7621, 388.7649
329.2442, 394.0894
329.7263, 429.1868
330.2084, 452.3069
330.6905, 456.5273
331.1726, 454.3296
331.6548, 454.0190
332.1369, 456.7534
332.6190, 459.4111
333.1011, 458.1611
333.5832, 451.1423
334.0653, 451.3237
334.5475, 458.6169
335.0296, 471.5515
335.5117, 494.7429
335.9938, 523.8931
336.4759, 549.1792
336.9580, 563.8638
337.4402, 567.8982
337.9223, 555.7795
338.4044, 507.1340
338.8865, 465.0085
339.3686, 441.0608
339.8507, 431.2231
340.3329, 427.6548
340.8150, 426.0735
341.2971, 426.8086
341.7792, 432.0142
342.2613, 461.6738
342.7434, 469.2520
343.2256, 430.3877
343.7077, 375.5488
344.1898, 339.9761
344.6719, 337.2642
345.1540, 350.0454
345.6361, 342.5376
346.1183, 301.7236
346.6004, 265.0352
347.0825, 234.1104
347.5646, 208.2310
348.0467, 187.6206
348.5288, 172.0479
349.0110, 159.7583
349.4931, 149.7808
349.9752, 143.8809
350.4573, 133.2246
350.9394, 111.8818
351.4215, 90.47412
351.9037, 75.39941
352.3858, 65.38525
352.8679, 53.76709
353.3500, 32.02881
353.8321, 0.7724610
354.3142, 18.27539
354.7964, 13.08496
355.2785, 9.851563
355.7606, 21.68311
356.2427, 42.80273
356.7248, 61.71045
357.2069, 72.72852
357.6891, 76.63232
358.1712, 73.12793
358.6533, 55.28613
359.1354, 45.77100
359.6175, 58.13623
360.0996, 81.49219
360.5818, 104.5371
361.0639, 123.9692
361.5460, 141.2437
362.0281, 159.9858
362.5102, 181.2334
362.9923, 195.1040
363.4745, 196.9688
363.9566, 190.2974
364.4387, 174.7124
364.9208, 148.0010
365.4029, 128.0923
365.8850, 133.1318
366.3672, 158.5664
366.8493, 180.1768
367.3314, 195.3042
367.8135, 201.0449
368.2956, 191.0796
368.7777, 166.8281
369.2599, 145.6118
369.7420, 138.2744
370.2241, 137.6343
370.7062, 131.0005
371.1883, 116.0835
371.6704, 99.84473
372.1526, 88.20020
372.6347, 80.22754
373.1168, 69.70459
373.5989, 58.50977
374.0810, 42.78711
374.5631, 12.68555
375.0453, 29.32568
375.5274, 60.51318
376.0095, 63.52344
376.4916, 46.60742
376.9737, 46.72314
377.4558, 70.17676
377.9380, 100.8491
378.4201, 136.6729
378.9022, 175.6318
379.3843, 213.8022
379.8664, 249.9258
380.3485, 283.2622
380.8307, 310.4814
381.3128, 322.1118
381.7949, 345.7100
382.2770, 400.5049
382.7591, 458.6416
383.2412, 487.0825
383.7234, 482.4180
384.2055, 472.5464
384.6876, 491.4243
385.1697, 548.9829
385.6518, 593.4990
386.1339, 614.2358
386.6161, 634.2222
387.0982, 667.1460
387.5803, 709.8755
388.0624, 748.9688
388.5445, 773.4575
389.0266, 786.0439
389.5088, 814.9736
389.9909, 875.6074
390.4730, 936.2041
390.9551, 997.7368
391.4372, 1053.827
391.9193, 1091.655
392.4015, 1104.831
392.8836, 1112.183
393.3657, 1159.258
393.8478, 1274.104
394.3299, 1357.685
394.8120, 1367.238
395.2942, 1363.592
395.7763, 1390.782
396.2584, 1453.981
396.7405, 1521.517
397.2226, 1559.425
397.7047, 1567.239
398.1869, 1583.004
398.6690, 1612.469
399.1511, 1646.830
399.6332, 1676.292
400.1153, 1705.156
400.5974, 1746.820
401.0796, 1824.903
401.5617, 1915.850
402.0438, 1959.229
402.5259, 1941.510
403.0080, 1930.012
403.4901, 1972.969
403.9723, 2042.327
404.4544, 2094.967
404.9365, 2115.577
405.4186, 2131.178
405.9007, 2167.503
406.3828, 2220.081
406.8650, 2263.121
407.3471, 2284.012
407.8292, 2295.463
408.3113, 2320.514
408.7934, 2362.171
409.2755, 2396.579
409.7577, 2412.226
410.2398, 2417.989
410.7219, 2423.002
411.2040, 2428.341
411.6861, 2437.630
412.1682, 2459.684
412.6504, 2499.061
413.1325, 2514.816
413.6146, 2495.875
414.0967, 2462.641
414.5788, 2417.824
415.0609, 2368.202
415.5431, 2328.233
416.0252, 2307.169
416.5073, 2303.547
416.9894, 2306.130
417.4715, 2320.193
417.9536, 2331.226
418.4358, 2346.296
418.9179, 2354.146
419.4000, 2338.562
419.8821, 2295.922
420.3642, 2243.090
420.8463, 2207.152
421.3285, 2196.859
421.8106, 2182.828
422.2927, 2158.596
422.7748, 2138.091
423.2569, 2126.241
423.7390, 2122.018
424.2212, 2122.896
424.7033, 2128.418
425.1854, 2138.592
425.6675, 2153.444
426.1496, 2175.516
426.6317, 2200.890
427.1139, 2233.084
427.5960, 2264.409
428.0781, 2285.138
428.5602, 2290.662
429.0423, 2289.208
429.5244, 2284.154
430.0066, 2274.773
430.4887, 2285.025
430.9708, 2329.822
431.4529, 2390.897
431.9350, 2449.823
432.4171, 2507.411
432.8993, 2554.599
433.3814, 2577.454
433.8635, 2589.283
434.3456, 2615.209
434.8277, 2659.191
435.3098, 2711.522
435.7920, 2770.693
436.2741, 2834.126
436.7562, 2875.899
437.2383, 2867.654
437.7204, 2862.741
438.2025, 2900.480
438.6847, 2968.392
439.1668, 3028.106
439.6489, 3060.136
440.1310, 3074.171
440.6131, 3096.372
441.0952, 3149.898
441.5774, 3178.832
442.0595, 3148.909
442.5416, 3112.085
443.0237, 3123.538
443.5058, 3188.298
443.9879, 3263.486
444.4701, 3300.246
444.9522, 3291.728
445.4343, 3292.249
445.9164, 3326.442
446.3985, 3344.595
446.8806, 3317.012
447.3628, 3263.220
447.8449, 3219.484
448.3270, 3205.866
448.8091, 3212.799
449.2912, 3222.306
449.7733, 3245.553
450.2555, 3239.434
450.7376, 3163.223
451.2197, 3071.740
451.7018, 3006.786
452.1839, 2975.310
452.6660, 2949.058
453.1482, 2900.651
453.6303, 2836.830
454.1124, 2793.498
454.5945, 2784.759
455.0766, 2774.229
455.5587, 2727.900
456.0409, 2654.910
456.5230, 2578.707
457.0051, 2505.724
457.4872, 2430.058
457.9693, 2341.003
458.4514, 2241.738
458.9336, 2153.874
459.4156, 2091.338
459.8978, 2042.162
460.3799, 1972.811
460.8620, 1868.627
461.3441, 1775.633
461.8262, 1705.047
462.3083, 1647.585
462.7905, 1597.555
463.2726, 1552.289
463.7547, 1505.412
464.2368, 1448.488
464.7189, 1378.951
465.2010, 1322.518
465.6832, 1296.257
466.1653, 1264.477
466.6474, 1202.027
467.1295, 1129.229
467.6116, 1083.646
468.0938, 1086.892
468.5759, 1112.160
469.0580, 1092.521
469.5401, 1000.489
470.0222, 941.8809
470.5043, 970.3828
470.9865, 1012.496
471.4686, 1021.354
471.9507, 994.4072
472.4328, 961.1338
472.9149, 936.4561
473.3970, 922.4258
473.8792, 930.6377
474.3613, 968.7842
474.8434, 1007.591
475.3255, 1027.902
475.8076, 1035.280
476.2897, 1040.342
476.7719, 1041.937
477.2540, 1045.068
477.7361, 1046.363
478.2182, 1051.227
478.7003, 1081.637
479.1824, 1149.966
479.6646, 1228.797
480.1467, 1272.983
480.6288, 1268.157
481.1109, 1274.294
481.5930, 1290.478
482.0751, 1321.416
482.5573, 1379.571
483.0394, 1458.272
483.5215, 1533.241
484.0036, 1586.763
484.4857, 1621.764
484.9678, 1657.750
485.4500, 1695.225
485.9321, 1732.881
486.4142, 1764.726
486.8963, 1799.598
487.3784, 1848.786
487.8605, 1913.992
488.3427, 1982.774
488.8248, 2040.066
489.3069, 2085.241
489.7890, 2133.665
490.2711, 2186.970
490.7532, 2242.826
491.2354, 2303.131
491.7175, 2364.941
492.1996, 2422.078
492.6817, 2470.497
493.1638, 2514.660
493.6459, 2556.656
494.1281, 2597.265
494.6102, 2647.992
495.0923, 2718.068
495.5744, 2794.592
496.0565, 2853.003
496.5386, 2889.849
497.0208, 2929.522
497.5029, 2977.922
497.9850, 3031.566
498.4671, 3085.397
498.9492, 3139.713
499.4313, 3203.324
499.9135, 3287.188
500.3956, 3387.339
500.8777, 3453.350
501.3598, 3464.249
501.8419, 3465.693
502.3240, 3454.516
502.8062, 3442.264
503.2883, 3441.867
503.7704, 3456.927
504.2525, 3479.403
504.7346, 3503.374
505.2167, 3531.912
505.6989, 3540.462
506.1810, 3515.871
506.6631, 3485.327
507.1452, 3467.963
507.6273, 3455.111
508.1094, 3423.909
508.5916, 3351.354
509.0737, 3271.377
509.5558, 3246.128
510.0379, 3272.745
510.5200, 3258.276
511.0021, 3154.424
511.4843, 3014.163
511.9664, 2919.479
512.4485, 2874.382
512.9306, 2829.435
513.4127, 2768.546
513.8948, 2704.117
514.3770, 2653.745
514.8591, 2615.560
515.3412, 2567.074
515.8233, 2488.925
516.3054, 2388.171
516.7875, 2308.432
517.2697, 2271.665
517.7518, 2229.233
518.2339, 2173.234
518.7160, 2110.364
519.1981, 2045.976
519.6802, 1981.229
520.1624, 1916.528
520.6445, 1852.818
521.1266, 1790.647
521.6087, 1723.938
522.0908, 1638.422
522.5729, 1571.273
523.0551, 1549.005
523.5372, 1550.626
524.0193, 1544.773
524.5014, 1523.050
524.9835, 1489.483
525.4656, 1441.657
525.9478, 1382.674
526.4299, 1329.741
526.9120, 1288.445
527.3941, 1252.471
527.8762, 1212.522
528.3583, 1166.817
528.8405, 1135.070
529.3226, 1133.383
529.8047, 1134.313
530.2868, 1115.044
530.7689, 1083.587
531.2510, 1067.525
531.7332, 1082.437
532.2153, 1107.319
532.6974, 1089.177
533.1795, 982.8022
533.6616, 918.2324
534.1437, 925.9204
534.6259, 947.7817
535.1080, 949.7363
535.5901, 932.2324
536.0722, 913.1108
536.5543, 903.0396
537.0364, 900.6699
537.5186, 909.5166
538.0007, 937.7476
538.4828, 949.7817
538.9649, 918.0200
539.4470, 870.6001
539.9291, 840.8003
540.4113, 833.6826
540.8934, 828.6792
541.3755, 816.2207
541.8576, 799.4849
542.3397, 784.1094
542.8218, 770.4561
543.3040, 754.1558
543.7861, 732.3604
544.2682, 705.1714
544.7503, 672.9751
545.2324, 623.3242
545.7145, 585.2622
546.1967, 577.1226
546.6788, 576.9951
547.1609, 555.8042
547.6430, 510.4517
548.1251, 468.1484
548.6072, 463.9146
549.0894, 499.3125
549.5715, 508.5894
550.0536, 474.7656
550.5357, 439.5215
551.0178, 419.1577
551.4999, 405.9722
551.9821, 388.8486
552.4642, 364.2197
552.9463, 339.4590
553.4284, 321.1572
553.9105, 308.0176
554.3926, 298.0186
554.8748, 292.9473
555.3569, 282.6553
555.8390, 251.4692
556.3211, 200.0229
556.8032, 172.1943
557.2853, 197.9854
557.7675, 216.3228
558.2496, 191.8325
558.7317, 142.5210
559.2138, 99.00879
559.6959, 72.66895
560.1780, 56.86572
560.6602, 42.83643
561.1423, 31.72510
561.6244, 18.15234
562.1065, 0.2758790
562.5886, 18.23389
563.0707, 35.81055
563.5529, 53.18311
564.0350, 73.48779
564.5171, 99.76660
564.9992, 123.8540
565.4813, 134.0322
565.9634, 130.9810
566.4456, 123.6968
566.9277, 111.9238
567.4098, 100.1250
567.8919, 91.60742
568.3740, 86.47559
568.8561, 89.73877
569.3383, 114.9204
569.8204, 137.0508
570.3025, 134.9912
570.7846, 117.4458
571.2667, 107.8296
571.7488, 116.0679
572.2310, 129.5479
572.7131, 123.4861
573.1952, 84.17627
573.6773, 62.79346
574.1594, 71.74487
574.6415, 85.23999
575.1237, 95.79346
575.6058, 102.0151
576.0879, 103.3086
576.5700, 98.98389
577.0521, 90.68921
577.5342, 78.58374
578.0164, 62.58569
578.4985, 54.08667
578.9806, 59.23511
579.4627, 67.56909
579.9448, 67.45239
580.4269, 59.95044
580.9091, 53.71484
581.3912, 49.06128
581.8733, 47.40552
582.3554, 54.54053
582.8375, 65.45630
583.3196, 66.38892
583.8018, 51.15674
584.2839, 30.10205
584.7660, 22.72339
585.2481, 39.22217
585.7302, 39.96069
586.2123, 10.48535
586.6945, 19.26343
587.1766, 39.81982
587.6587, 50.93237
588.1408, 51.79248
588.6229, 38.71411
589.1050, 25.96875
589.5872, 37.85913
590.0693, 73.31934
590.5514, 103.8279
591.0335, 124.4624
591.5156, 137.0308
591.9977, 140.3079
592.4799, 135.5979
592.9620, 132.0854
593.4441, 125.7893
593.9262, 126.1790
594.4083, 148.8464
594.8904, 180.6418
595.3726, 190.9360
595.8547, 169.4331
596.3368, 140.9399
596.8189, 143.7048
597.3010, 186.7842
597.7831, 217.5640
598.2653, 228.8281
598.7474, 234.4846
599.2295, 234.1572
599.7116, 232.3225
600.1937, 235.5891
600.6758, 246.9099
601.1580, 261.0405
601.6401, 274.8950
602.1222, 287.4167
602.6043, 291.6536
603.0864, 284.3901
603.5685, 276.9810
604.0507, 279.6123
604.5328, 291.3667
605.0149, 299.8579
605.4970, 296.6963
605.9791, 300.1077
606.4612, 325.9282
606.9434, 357.6499
607.4255, 370.0503
607.9076, 359.6455
608.3897, 348.6980
608.8718, 363.6006
609.3539, 403.4856
609.8361, 426.5813
610.3182, 423.7651
610.8003, 419.0269
611.2824, 422.6934
611.7645, 427.2815
612.2466, 422.1721
612.7288, 404.6443
613.2109, 391.3254
613.6930, 393.1926
614.1751, 406.7764
614.6572, 430.0505
615.1393, 462.2485
615.6215, 487.8442
616.1036, 496.8647
616.5857, 492.3799
617.0678, 485.3489
617.5499, 471.7595
618.0320, 461.3164
618.5142, 453.2671
618.9963, 449.4180
619.4784, 452.7771
619.9605, 461.8865
620.4426, 471.7361
620.9247, 479.0093
621.4069, 484.2437
621.8890, 488.3738
622.3711, 490.6177
622.8532, 494.6748
623.3353, 506.3521
623.8174, 516.9187
624.2996, 514.3772
624.7817, 500.0342
625.2638, 491.5764
625.7459, 497.6631
626.2280, 507.5793
626.7101, 512.8767
627.1923, 513.8228
627.6744, 515.6348
628.1565, 521.7148
628.6386, 528.7283
629.1207, 528.7070
629.6028, 517.6865
630.0850, 510.0764
630.5671, 508.2168
631.0492, 511.8975
631.5313, 521.9319
632.0134, 533.9185
632.4955, 544.0627
632.9777, 551.5566
633.4598, 556.0232
633.9419, 558.3750
634.4240, 556.8350
634.9061, 544.3777
635.3882, 518.5017
635.8704, 498.6030
636.3525, 501.0779
636.8346, 520.8533
637.3167, 530.7075
637.7988, 522.6670
638.2809, 515.1792
638.7631, 512.4844
639.2452, 512.8335
639.7273, 514.1677
640.2094, 516.1919
640.6915, 518.8191
641.1736, 521.4695
641.6558, 526.5347
642.1379, 544.1746
642.6200, 579.2703
643.1021, 599.4463
643.5842, 583.6680
644.0663, 564.1794
644.5485, 578.3269
645.0306, 624.3823
645.5127, 659.6790
645.9948, 663.3059
646.4769, 658.1550
646.9590, 660.6226
647.4412, 670.9041
647.9233, 685.1968
648.4054, 700.7373
648.8875, 718.0618
649.3696, 741.3232
649.8517, 773.7043
650.3339, 793.1572
650.8160, 781.7661
651.2981, 778.6963
651.7802, 812.5056
652.2623, 857.3899
652.7444, 872.1194
653.2266, 841.5977
653.7087, 806.4790
654.1908, 804.2651
654.6729, 820.2041
655.1550, 820.0002
655.6371, 799.4653
656.1193, 774.8938
656.6014, 756.5452
657.0835, 742.7087
657.5656, 727.9373
658.0477, 721.7766
658.5298, 701.3870
659.0120, 651.5293
659.4941, 600.0249
659.9762, 564.3232
660.4583, 543.6628
660.9404, 530.4431
661.4225, 522.1978
661.9047, 515.1040
662.3868, 502.1125
662.8689, 483.2571
663.3510, 462.8550
663.8331, 441.7207
664.3152, 420.5474
664.7974, 398.0906
665.2795, 374.5732
665.7616, 357.2944
666.2437, 347.6082
666.7258, 343.2090
667.2079, 351.7788
667.6901, 361.1160
668.1722, 352.6494
668.6543, 325.0930
669.1364, 296.6833
669.6185, 285.7751
670.1006, 288.5430
670.5828, 280.9590
671.0649, 258.6763
671.5470, 240.7214
672.0291, 237.2178
672.5112, 238.1423
672.9933, 230.3450
673.4755, 213.1440
673.9576, 201.1855
674.4397, 203.1213
674.9218, 207.7913
675.4039, 208.1433
675.8860, 203.9163
676.3682, 194.1870
676.8503, 178.7883
677.3324, 162.9656
677.8145, 155.1982
678.2966, 156.9043
678.7787, 155.8557
679.2609, 154.7112
679.7430, 146.6292
680.2251, 119.7197
680.7072, 89.09644
681.1893, 75.91748
681.6714, 85.56274
682.1536, 97.72314
682.6357, 102.8906
683.1178, 103.0051
683.5999, 101.2070
684.0820, 97.23120
684.5641, 86.88647
685.0463, 66.95117
685.5284, 43.04736
686.0105, 28.29321
686.4926, 24.73364
686.9747, 25.29321
687.4568, 35.36401
687.9390, 44.06592
688.4211, 48.17749
688.9032, 47.44995
689.3853, 40.88306
689.8674, 26.53003
690.3495, 12.32227
690.8317, 1.086670
691.3138, 4.376953
691.7959, 8.050049
692.2780, 38.82593
692.7601, 62.75488
693.2422, 61.61426
693.7244, 40.36646
694.2065, 17.54883
694.6886, 19.45557
695.1707, 36.58838
695.6528, 14.37280
696.1349, 9.767334
696.6171, 12.42920
697.0992, 2.004639
697.5813, 18.09888
698.0634, 30.51440
698.5455, 37.86279
699.0276, 36.24878
699.5098, 27.97168
699.9919, 22.00220
700.4740, 20.31519
700.9561, 17.08081
701.4382, 6.605469
701.9203, 9.747070
702.4025, 21.10425
702.8846, 27.89819
703.3667, 28.79346
703.8488, 20.08789
704.3309, 8.310791
704.8130, 6.159180
705.2952, 19.79663
705.7773, 22.82593
706.2594, 5.406982
706.7415, 18.54028
707.2236, 29.74268
707.7057, 29.58228
708.1879, 24.56299
708.6700, 14.79492
709.1521, 8.036865
709.6342, 12.05859
710.1163, 26.44019
710.5984, 41.18701
711.0806, 61.60352
711.5627, 75.40503
712.0448, 74.47778
712.5269, 70.79785
713.0090, 78.17188
713.4911, 94.21606
713.9733, 101.9771
714.4554, 85.96948
714.9375, 61.35425
715.4196, 52.48828
715.9017, 58.00244
716.3839, 68.64697
716.8660, 83.64136
717.3481, 95.85889
717.8302, 96.54199
718.3123, 85.75732
718.7944, 83.80957
719.2766, 100.0288
719.7587, 112.2561
720.2408, 116.0386
720.7229, 114.6641
721.2050, 106.1011
721.6871, 93.90625
722.1693, 92.21753
722.6514, 116.1631
723.1335, 149.5730
723.6156, 164.6467
724.0977, 163.6628
724.5798, 163.9373
725.0620, 170.2900
725.5441, 177.6445
726.0262, 181.4231
726.5083, 181.6184
726.9904, 177.2781
727.4725, 151.5188
727.9547, 143.2659
728.4368, 171.0825
728.9189, 210.1936
729.4010, 243.4001
729.8831, 266.9038
730.3652, 279.4111
730.8474, 277.0164
731.3295, 266.2747
731.8116, 252.0300
732.2937, 236.7634
732.7758, 234.7949
733.2579, 250.9189
733.7401, 271.6875
734.2222, 284.2429
734.7043, 288.7891
735.1864, 292.1833
735.6685, 299.4167
736.1506, 298.6453
736.6328, 276.4797
737.1149, 255.1133
737.5970, 256.1353
738.0791, 276.1133
738.5612, 291.5815
739.0433, 286.2192
739.5255, 276.6714
740.0076, 286.2168
740.4897, 307.2920
740.9718, 313.0283
741.4539, 297.2019
741.9360, 280.9695
742.4182, 285.2876
742.9003, 306.1121
743.3824, 308.0908
743.8645, 278.4080
744.3466, 251.9993
744.8287, 229.2739
745.3109, 214.4402
745.7930, 215.3303
746.2751, 227.3008
746.7572, 233.4014
747.2393, 220.9417
747.7214, 209.7424
748.2036, 224.6548
748.6857, 250.0288
749.1678, 251.3721
749.6499, 226.0815
750.1320, 201.7876
750.6141, 200.2947
751.0963, 215.3220
751.5784, 221.8054
752.0605, 215.1792
752.5426, 211.4780
753.0247, 216.5955
753.5068, 224.1885
753.9890, 231.5044
754.4711, 235.5771
754.9532, 229.5210
755.4353, 203.2161
755.9174, 181.1355
756.3995, 182.2371
756.8817, 191.6541
757.3638, 191.3650
757.8459, 180.4026
758.3280, 165.5049
758.8101, 150.3113
759.2922, 138.4165
759.7744, 137.8518
760.2565, 149.4094
760.7386, 164.3391
761.2207, 187.3105
761.7028, 202.4805
762.1849, 194.5525
762.6671, 172.4785
763.1492, 159.9104
763.6313, 162.7292
764.1134, 163.9199
764.5955, 153.4546
765.0776, 144.4509
765.5598, 151.6414
766.0419, 167.8765
766.5240, 174.6365
767.0061, 163.7620
767.4882, 146.7913
767.9703, 136.6694
768.4525, 133.0520
768.9346, 136.8071
769.4167, 149.3374
769.8988, 156.5469
770.3809, 148.5698
770.8630, 134.8127
771.3452, 134.5398
771.8273, 155.4629
772.3094, 167.5161
772.7915, 165.0366
773.2736, 160.4536
773.7557, 158.6750
774.2379, 157.8271
774.7200, 153.6863
775.2021, 145.5715
775.6842, 140.4963
776.1663, 148.0354
776.6484, 159.5447
777.1306, 159.4648
777.6127, 149.8303
778.0948, 141.9441
778.5769, 139.6982
779.0590, 142.8245
779.5411, 152.5261
780.0233, 169.1333
780.5054, 176.2258
780.9875, 166.8845
781.4696, 159.3777
781.9517, 160.5188
782.4338, 163.3191
782.9160, 160.9353
783.3981, 154.0491
783.8802, 150.7461
784.3623, 153.8931
784.8444, 161.3188
785.3265, 176.7891
785.8087, 193.4907
786.2908, 199.0112
786.7729, 192.7102
787.2550, 186.2219
787.7371, 189.4006
788.2192, 197.5476
788.7014, 195.7864
789.1835, 182.7141
789.6656, 174.5505
790.1477, 177.2590
790.6298, 178.0784
791.1119, 162.3650
791.5941, 136.2913
792.0762, 128.3127
792.5583, 154.7979
793.0404, 172.8384
793.5225, 166.3049
794.0046, 157.9419
794.4868, 167.7905
794.9689, 188.5444
795.4510, 201.0679
795.9331, 197.2009
796.4152, 184.4578
796.8973, 166.6321
797.3795, 146.7776
797.8616, 131.7253
798.3437, 122.0957
798.8258, 120.0293
799.3079, 127.4556
799.7900, 139.7461
800.2722, 148.5688
800.7543, 153.3225
801.2364, 157.8293
801.7185, 166.7891
802.2006, 168.8469
802.6827, 151.1863
803.1649, 130.7556
803.6470, 129.6255
804.1291, 149.8083
804.6112, 163.7388
805.0933, 156.2583
805.5754, 143.5796
806.0576, 133.8423
806.5397, 128.8025
807.0218, 132.8992
807.5039, 145.8608
807.9860, 159.5869
808.4681, 168.2368
808.9503, 170.7878
809.4324, 160.1960
809.9145, 135.1970
810.3966, 120.3433
810.8787, 123.2859
811.3608, 132.1880
811.8430, 139.0032
812.3251, 143.3086
812.8072, 141.5151
813.2893, 123.4722
813.7714, 114.1775
814.2535, 122.6904
814.7357, 135.0183
815.2178, 140.3613
815.6999, 140.6875
816.1820, 144.9988
816.6641, 158.6152
817.1462, 167.3142
817.6284, 152.8416
818.1105, 129.2117
818.5926, 120.7124
819.0747, 126.4912
819.5568, 132.1416
820.0389, 130.9751
820.5211, 126.2542
821.0032, 121.5830
821.4853, 116.4099
821.9674, 122.9631
822.4495, 149.0012
822.9316, 167.7302
823.4138, 166.0842
823.8959, 154.5999
824.3780, 146.3728
824.8601, 141.5564
825.3422, 136.6165
825.8243, 122.2583
826.3065, 118.1287
826.7886, 142.3660
827.2707, 173.6782
827.7528, 187.1860
828.2349, 183.1111
828.7170, 181.3262
829.1992, 196.6882
829.6813, 215.5703
830.1633, 216.7893
830.6454, 205.9668
831.1276, 201.6045
831.6097, 206.4438
832.0918, 216.4819
832.5739, 230.1130
833.0560, 245.5269
833.5381, 257.5359
834.0203, 266.9312
834.5024, 271.1492
834.9845, 264.5061
835.4666, 259.6929
835.9487, 269.0598
836.4308, 281.2295
836.9130, 276.7388
837.3951, 249.9612
837.8772, 233.4233
838.3593, 246.2224
838.8414, 260.3792
839.3235, 257.3914
839.8057, 245.3887
840.2878, 235.7688
840.7699, 231.9568
841.2520, 234.4104
841.7341, 248.8931
842.2162, 265.7141
842.6984, 264.2129
843.1805, 247.9573
843.6626, 234.5178
844.1447, 227.9741
844.6268, 226.8477
845.1089, 231.1316
845.5911, 238.6299
846.0732, 238.3794
846.5553, 225.5696
847.0374, 218.2139
847.5195, 221.3679
848.0016, 226.0208
848.4838, 227.9641
848.9659, 227.5208
849.4480, 225.1584
849.9301, 220.6895
850.4122, 214.9490
850.8943, 201.7542
851.3765, 193.5520
851.8586, 207.8274
852.3407, 230.0476
852.8228, 231.5234
853.3049, 205.9905
853.7870, 180.8225
854.2692, 183.8315
854.7513, 201.2732
855.2334, 209.0808
855.7155, 208.2876
856.1976, 201.7979
856.6797, 190.2593
857.1619, 182.5376
857.6440, 188.7188
858.1261, 204.1030
858.6082, 201.6011
859.0903, 173.2603
859.5724, 153.0161
860.0546, 150.7114
860.5367, 149.4170
861.0188, 132.6379
861.5009, 109.4863
861.9830, 104.2253
862.4651, 130.3586
862.9473, 142.4106
863.4294, 117.8118
863.9115, 91.23755
864.3936, 85.34766
864.8757, 90.85645
865.3578, 91.52441
865.8400, 83.19849
866.3221, 72.41797
866.8042, 60.71802
867.2863, 51.47510
867.7684, 52.81763
868.2505, 60.56396
868.7327, 60.33130
869.2148, 49.14062
869.6969, 39.15063
870.1790, 42.60303
870.6611, 26.36523
871.1432, 43.32471
871.6254, 8.866455
872.1075, 11.41956
872.5896, 9.490356
873.0717, 0.3691410
873.5538, 12.21973
874.0359, 23.83887
874.5181, 28.84412
875.0002, 23.43604
875.4823, 19.72375
875.9644, 18.70813
876.4465, 18.30408
876.9286, 18.03015
877.4108, 17.84802
877.8929, 17.92749
878.3750, 18.10291
878.8571, 17.13782
879.3392, 18.26135
879.8214, 14.47693
880.3035, 8.489258
880.7856, 36.50439
881.2677, 43.11609
881.7498, 27.93970
882.2319, 14.58997
882.7141, 20.16272
883.1962, 32.89844
883.6783, 29.26221
884.1604, 12.61707
884.6425, 5.374023
885.1246, 10.46411
885.6068, 18.71790
886.0889, 25.50720
886.5710, 31.49536
887.0531, 38.48108
887.5352, 47.53247
888.0173, 51.83606
888.4995, 50.48279
888.9816, 45.63281
889.4637, 34.24207
889.9458, 22.52454
890.4279, 15.99243
890.9100, 14.57251
891.3922, 16.75745
891.8743, 28.24927
892.3564, 35.77673
892.8385, 34.50928
893.3206, 28.07593
893.8027, 17.62939
894.2849, 4.986816
894.7670, 6.213745
895.2491, 14.29919
895.7312, 21.92932
896.2133, 30.90442
896.6954, 41.16150
897.1776, 50.97656
897.6597, 61.82727
898.1418, 79.89258
898.6239, 107.1602
899.1060, 135.3395
899.5881, 153.0383
900.0703, 164.9437
900.5524, 195.4120
901.0345, 245.3453
901.5166, 291.8746
901.9987, 329.3641
902.4808, 363.9764
902.9630, 398.5171
903.4451, 435.4513
903.9272, 485.5184
904.4093, 556.3101
904.8914, 625.1987
905.3735, 694.9108
905.8557, 758.4167
906.3378, 805.6066
906.8199, 848.4730
907.3020, 904.2449
907.7841, 975.7112
908.2662, 1047.361
908.7484, 1124.520
909.2305, 1191.029
909.7126, 1248.883
910.1947, 1285.497
910.6768, 1281.168
911.1589, 1239.894
911.6411, 1187.289
912.1232, 1135.837
912.6053, 1080.997
913.0874, 1020.614
913.5695, 952.7592
914.0516, 868.8149
914.5338, 772.4810
915.0159, 679.1503
915.4980, 595.9012
915.9801, 524.5647
916.4622, 473.3961
916.9443, 437.8191
917.4265, 382.9083
917.9086, 307.6152
918.3907, 245.6039
918.8728, 207.9747
919.3549, 180.0250
919.8370, 146.7349
920.3192, 110.4073
920.8013, 87.92676
921.2834, 85.08130
921.7655, 82.15881
922.2476, 78.74805
922.7297, 73.45190
923.2119, 63.25317
923.6940, 51.42651
924.1761, 44.44849
924.6582, 44.29785
925.1403, 41.07141
925.6224, 27.59155
926.1046, 17.61353
926.5867, 22.93372
927.0688, 30.98596
927.5509, 24.30835
928.0330, 4.778442
928.5151, 7.142334
928.9973, 2.571045
929.4794, 14.74573
929.9615, 14.38000
930.4436, 9.116211
930.9257, 7.025024
931.4078, 8.280151
931.8900, 11.08545
932.3721, 14.46887
932.8542, 18.80042
933.3363, 27.44104
933.8184, 36.43164
934.3005, 29.42664
934.7827, 10.71399
935.2648, 11.98291
935.7469, 41.99854
936.2290, 73.62781
936.7111, 82.65723
937.1932, 73.94910
937.6754, 61.94214
938.1575, 44.17175
938.6396, 38.37598
939.1217, 53.16602
939.6038, 64.39429
940.0859, 56.02405
940.5681, 37.27759
941.0502, 25.14331
941.5323, 19.54895
942.0144, 28.03638
942.4965, 68.17554
942.9786, 95.07812
943.4608, 88.32385
943.9429, 74.29907
944.4250, 77.13171
944.9071, 91.87842
945.3892, 94.20801
945.8713, 70.49609
946.3535, 53.34790
946.8356, 58.63184
947.3177, 66.52563
947.7998, 57.14990
948.2819, 42.56836
948.7640, 48.68921
949.2462, 80.72217
949.7283, 106.4895
950.2104, 103.5239
950.6925, 91.11304
951.1746, 83.79688
951.6567, 80.13110
952.1389, 77.01172
952.6210, 74.00757
953.1031, 72.84717
953.5852, 74.97144
954.0673, 77.42651
954.5494, 72.41138
955.0316, 65.40259
955.5137, 76.21167
955.9958, 101.8955
956.4779, 114.8230
956.9600, 104.7122
957.4421, 89.73975
957.9243, 90.92407
958.4064, 103.7358
958.8885, 106.1350
959.3706, 97.33545
959.8527, 91.45703
960.3348, 90.38232
960.8170, 95.42993
961.2991, 109.8115
961.7812, 127.4336
962.2633, 133.3340
962.7454, 124.6482
963.2275, 116.8440
963.7097, 106.5461
964.1918, 103.8523
964.6739, 117.3577
965.1560, 134.4092
965.6381, 140.4951
966.1202, 136.8557
966.6024, 139.5081
967.0845, 162.7773
967.5666, 171.3027
968.0487, 143.8914
968.5308, 119.3679
969.0129, 123.9712
969.4951, 143.8743
969.9772, 156.2556
970.4593, 157.3879
970.9414, 154.0093
971.4235, 141.5962
971.9056, 132.9944
972.3878, 139.1914
972.8699, 149.8657
973.3520, 153.6028
973.8341, 150.5422
974.3162, 146.7063
974.7983, 143.9734
975.2805, 143.5779
975.7626, 146.0068
976.2447, 151.5325
976.7268, 165.1833
977.2089, 181.3625
977.6910, 186.5059
978.1732, 177.5229
978.6553, 163.1765
979.1374, 146.7756
979.6195, 134.7749
980.1016, 145.0596
980.5837, 167.3130
981.0659, 168.7791
981.5480, 148.3042
982.0301, 129.2202
982.5122, 123.4536
982.9943, 123.5129
983.4764, 117.2869
983.9586, 107.0029
984.4407, 109.1355
984.9228, 123.4536
985.4049, 125.8804
985.8870, 108.9368
986.3691, 91.42603
986.8513, 90.96362
987.3334, 99.89111
987.8155, 91.60034
988.2976, 97.13354
988.7797, 109.3594
989.2618, 96.53320
989.7440, 125.8535
990.2261, 119.0696
990.7082, 99.84375
991.1903, 97.77734
991.6724, 112.3428
992.1545, 121.7529
992.6367, 126.1477
993.1188, 124.6812
993.6009, 110.5879
994.0830, 99.33203
994.5651, 103.5837
995.0472, 115.4727
995.5294, 118.1309
996.0115, 108.4912
996.4936, 103.2368
996.9757, 108.8652
997.4578, 111.5752
997.9399, 102.9463
998.4221, 93.45020
998.9042, 92.38672
999.3863, 98.50269
999.8684, 106.3164
1000.351, 119.9644
1000.833, 123.0730
1001.315, 94.90625
1001.797, 71.99121
1002.279, 85.82129
1002.761, 113.1094
1003.243, 119.8010
1003.725, 103.2827
1004.207, 87.66089
1004.690, 82.40283
1005.172, 82.33984
1005.654, 89.68384
1006.136, 96.38037
1006.618, 92.56299
1007.100, 81.81616
1007.582, 72.71631
1008.064, 67.98145
1008.547, 66.04102
1009.029, 66.60205
1009.511, 68.63184
1009.993, 74.77051
1010.475, 79.87061
1010.957, 71.42139
1011.439, 52.41919
1011.921, 40.00879
1012.403, 42.71094
1012.886, 54.94727
1013.368, 78.58325
1013.850, 103.4131
1014.332, 108.8494
1014.814, 99.19458
1015.296, 87.73926
1015.778, 78.62158
1016.260, 74.03857
1016.742, 75.87817
1017.225, 82.32739
1017.707, 93.81128
1018.189, 107.1406
1018.671, 110.1838
1019.153, 102.5793
1019.635, 87.60718
1020.117, 66.54346
1020.599, 48.95898
1021.082, 44.77124
1021.564, 51.66064
1022.046, 63.50635
1022.528, 79.92261
1023.010, 95.64966
1023.492, 109.9082
1023.974, 117.4387
1024.456, 115.2305
1024.938, 109.5825
1025.421, 109.1553
1025.903, 113.4863
1026.385, 119.1357
1026.867, 126.2561
1027.349, 131.6919
1027.831, 134.4473
1028.313, 139.0193
1028.795, 149.2083
1029.278, 161.1655
1029.760, 166.0940
1030.242, 163.1697
1030.724, 160.1299
1031.206, 156.5657
1031.688, 153.8394
1032.170, 150.9866
1032.652, 152.8247
1033.135, 165.9265
1033.617, 184.8740
1034.099, 190.8916
1034.581, 177.1562
1035.063, 171.6194
1035.545, 177.8855
1036.027, 185.8735
1036.509, 193.3660
1036.991, 199.0249
1037.474, 201.0388
1037.956, 199.7275
1038.438, 199.1252
1038.920, 199.8955
1039.402, 200.4319
1039.884, 200.1472
1040.366, 200.3220
1040.848, 204.4001
1041.330, 208.7991
1041.813, 203.4126
1042.295, 185.6123
1042.777, 180.2976
1043.259, 204.8848
1043.741, 218.6648
1044.223, 202.7485
1044.705, 189.1077
1045.187, 202.6172
1045.670, 229.5859
1046.152, 244.9219
1046.634, 246.0491
1047.116, 235.6296
1047.598, 192.9500
1048.080, 170.6724
1048.562, 198.6335
1049.044, 234.1118
1049.526, 244.7627
1050.009, 235.3599
1050.491, 229.1306
1050.973, 231.2200
1051.455, 231.0073
1051.937, 221.5845
1052.419, 217.7576
1052.901, 232.2783
1053.383, 244.1768
1053.865, 229.1096
1054.348, 198.4910
1054.830, 190.4683
1055.312, 221.9768
1055.794, 241.0576
1056.276, 225.9746
1056.758, 206.4260
1057.240, 191.7732
1057.722, 183.9751
1058.205, 186.0686
1058.687, 195.9319
1059.169, 205.7612
1059.651, 215.4395
1060.133, 220.6357
1060.615, 219.5867
1061.097, 214.1377
1061.579, 200.6697
1062.062, 186.4802
1062.544, 181.6931
1063.026, 185.4827
1063.508, 186.7761
1063.990, 178.0178
1064.472, 173.6523
1064.954, 184.4075
1065.436, 196.0745
1065.918, 199.2932
1066.401, 197.1265
1066.883, 194.4856
1067.365, 191.9888
1067.847, 187.7271
1068.329, 180.9736
1068.811, 172.1167
1069.293, 157.6333
1069.775, 144.9624
1070.257, 141.0911
1070.740, 142.6255
1071.222, 144.7690
1071.704, 146.1716
1072.186, 143.8169
1072.668, 134.7971
1073.150, 123.9497
1073.632, 110.8093
1074.114, 99.26880
1074.597, 95.18262
1075.079, 94.17285
1075.561, 84.56348
1076.043, 64.79932
1076.525, 56.96167
1077.007, 79.77148
1077.489, 105.1218
1077.971, 126.1404
1078.453, 137.2166
1078.936, 129.9473
1079.418, 110.1616
1079.900, 84.57642
1080.382, 54.94531
1080.864, 43.65356
1081.346, 86.20483
1081.828, 118.0615
1082.310, 90.61890
1082.792, 48.77832
1083.275, 30.58081
1083.757, 33.99707
1084.239, 50.67725
1084.721, 79.39453
1085.203, 92.40088
1085.685, 63.64233
1086.167, 33.26343
1086.649, 22.32520
1087.131, 20.53687
1087.614, 19.95312
1088.096, 19.25098
1088.578, 18.71558
1089.060, 18.61255
1089.542, 16.63696
1090.024, 4.129150
1090.506, 0.9689940
1090.988, 20.31592
1091.471, 45.43213
1091.953, 53.08521
1092.435, 46.17651
1092.917, 34.36475
1093.399, 18.95605
1093.881, 8.678467
1094.363, 8.726074
1094.845, 11.98169
1095.328, 18.40259
1095.810, 23.49072
1096.292, 22.39893
1096.774, 16.84790
1097.256, 12.20264
1097.738, 10.83301
1098.220, 4.939453
1098.702, 18.37793
1099.184, 34.64575
1099.667, 26.00146
1100.149, 11.92529
1100.631, 11.31982
1101.113, 19.09326
1101.595, 18.56494
1102.077, 4.201660
1102.559, 2.143555
1103.041, 15.13867
1103.523, 27.72168
1104.006, 17.80127
1104.488, 5.498047
1104.970, 8.684570
1105.452, 23.13770
1105.934, 39.07812
1106.416, 58.95508
1106.898, 58.14844
1107.380, 7.210938
1107.863, 30.88477
1108.345, 30.41797
1108.827, 16.39111
1109.309, 3.114746
1109.791, 18.94336
1110.273, 6.105469
1110.755, 49.31836
1111.237, 75.21631
1111.719, 37.12695
1112.202, 7.408203
1112.684, 0.5742190
1113.166, 9.693848
1113.648, 44.19238
1114.130, 96.63770
1114.612, 116.8281
1115.094, 94.98486
1115.576, 85.39600
1116.058, 93.81982
1116.541, 105.5347
1117.023, 119.9253
1117.505, 135.1577
1117.987, 154.1831
1118.469, 170.9395
1118.951, 169.7705
1119.433, 146.1138
1119.915, 137.0850
1120.398, 142.7930
1120.880, 163.8213
1121.362, 210.3662
1121.844, 255.8315
1122.326, 287.5264
1122.808, 303.7944
1123.290, 298.2334
1123.772, 268.6948
1124.255, 253.7939
1124.737, 253.7290
1125.219, 274.2612
1125.701, 326.2227
1126.183, 369.3931
1126.665, 383.3491
1127.147, 377.8188
1127.629, 367.8535
1128.111, 355.8130
1128.594, 357.0630
1129.076, 372.7192
1129.558, 383.2842
1130.040, 385.6226
1130.522, 388.4932
1131.004, 395.5225
1131.486, 398.6733
1131.968, 410.1597
1132.450, 410.8286
1132.933, 414.5781
1133.415, 422.5410
1133.897, 439.4766
1134.379, 465.1890
1134.861, 474.7925
1135.343, 450.6631
1135.825, 422.0327
1136.307, 411.8701
1136.790, 414.2852
1137.272, 417.6748
1137.754, 414.8672
1138.236, 394.3223
1138.718, 348.4268
1139.200, 294.8745
1139.682, 260.9819
1140.164, 238.0347
1140.646, 220.6572
1141.129, 219.5142
1141.611, 244.6333
1142.093, 276.6709
1142.575, 295.8936
1143.057, 300.3364
1143.539, 275.1890
1144.021, 223.3013
1144.503, 177.9326
1144.985, 164.1025
1145.468, 158.5542
1145.950, 132.3916
1146.432, 100.0435
1146.914, 78.12012
1147.396, 66.55029
1147.878, 66.63330
1148.360, 76.59961
1148.842, 86.25977
1149.325, 88.96680
1149.807, 85.83350
1150.289, 78.10498
1150.771, 66.96191
1151.253, 46.41504
1151.735, 26.74268
1152.217, 25.74365
1152.699, 39.66504
1153.182, 47.67383
1153.664, 43.40576
1154.146, 32.68115
1154.628, 6.331055
1155.110, 11.42334
1155.592, 11.35645
1156.074, 5.279785
1156.556, 54.74463
1157.038, 119.1450
1157.521, 147.9341
1158.003, 124.6885
1158.485, 101.7598
1158.967, 87.97998
1159.449, 77.28564
1159.931, 71.60791
1160.413, 69.60938
1160.895, 72.53174
1161.377, 74.19629
1161.860, 60.54102
1162.342, 33.42090
1162.824, 28.41797
1163.306, 60.23926
1163.788, 66.95508
1164.270, 43.11230
1164.752, 20.04004
1165.234, 9.932617
1165.717, 8.463867
1166.199, 9.687500
1166.681, 13.95508
1167.163, 19.45020
1167.645, 40.41211
1168.127, 53.34473
1168.609, 55.80859
1169.091, 53.51855
1169.573, 50.42676
1170.056, 40.47754
1170.538, 18.54102
1171.020, 0.0000000E+00
##END=



