##NAMES=Cylindrite
##RRUFFID=R050175
##IDEAL CHEMISTRY=FePb_3_Sn_4_Sb_2_S_14_
##LOCALITY=Poop√≥ Province, Oruro Department, Bolivia
##OWNER=RRUFF
##SOURCE=Marcus Origlieri
##DESCRIPTION=Gray tubular aggregates
##STATUS=The identification of this mineral has been confirmed only by chemical analysis
##URL=rruff.info/R050175
##MEASURED CHEMISTRY=Pb_3.05_Sn_4.25_Fe_0.84_Sb_1.87_S_14.00_
109.469, 0.000
109.951, 99.885
110.433, 39.779
110.915, 29.061
111.397, 27.590
111.879, 305.344
112.362, 848.322
112.844, 1587.184
113.326, 2425.146
113.808, 3358.818
114.290, 4361.971
114.772, 5420.496
115.254, 6620.133
115.736, 7742.287
116.218, 8756.258
116.701, 9651.900
117.183, 10388.633
117.665, 10987.672
118.147, 11400.500
118.629, 11594.594
119.111, 11444.090
119.593, 11148.301
120.075, 10802.029
120.558, 10405.213
121.040, 9947.666
121.522, 9362.238
122.004, 8715.684
122.486, 8115.992
122.968, 7613.521
123.450, 7179.605
123.932, 6776.043
124.414, 6387.705
124.897, 6070.578
125.379, 5872.555
125.861, 5789.959
126.343, 5807.453
126.825, 5946.014
127.307, 6176.449
127.789, 6443.543
128.271, 6730.520
128.753, 7052.551
129.236, 7452.324
129.718, 7928.008
130.200, 8404.350
130.682, 8814.871
131.164, 9165.062
131.646, 9510.582
132.128, 9886.340
132.610, 10265.555
133.093, 10575.230
133.575, 10815.496
134.057, 10986.527
134.539, 11088.188
135.021, 11118.984
135.503, 11097.715
135.985, 11012.854
136.467, 10862.266
136.949, 10738.443
137.432, 10662.590
137.914, 10587.441
138.396, 10397.975
138.878, 10062.742
139.360, 9720.145
139.842, 9452.242
140.324, 9283.691
140.806, 9093.242
141.288, 8861.789
141.771, 8603.094
142.253, 8379.215
142.735, 8186.352
143.217, 8038.152
143.699, 7951.156
144.181, 7951.195
144.663, 7961.008
145.145, 7967.523
145.628, 7968.039
146.110, 7991.465
146.592, 8050.941
147.074, 8121.203
147.556, 8171.926
148.038, 8193.578
148.520, 8204.742
149.002, 8211.898
149.484, 8227.359
149.967, 8202.754
150.449, 8111.000
150.931, 7982.297
151.413, 7871.590
151.895, 7816.805
152.377, 7751.148
152.859, 7652.297
153.342, 7495.789
153.824, 7349.023
154.306, 7238.520
154.788, 7149.574
155.270, 7031.316
155.752, 6863.727
156.234, 6677.406
156.716, 6489.898
157.198, 6257.957
157.680, 6072.488
158.163, 5970.230
158.645, 5941.988
159.127, 5909.660
159.609, 5854.531
160.091, 5786.898
160.573, 5713.887
161.055, 5593.793
161.538, 5497.719
162.020, 5471.973
162.502, 5522.949
162.984, 5562.730
163.466, 5542.809
163.948, 5491.328
164.430, 5443.410
164.912, 5439.922
165.394, 5424.672
165.876, 5356.340
166.359, 5220.762
166.841, 5076.516
167.323, 4882.551
167.805, 4708.258
168.287, 4560.094
168.769, 4461.203
169.251, 4382.109
169.733, 4301.703
170.216, 4224.988
170.698, 4130.941
171.180, 3990.785
171.662, 3815.613
172.144, 3646.738
172.626, 3503.789
173.108, 3382.883
173.590, 3279.637
174.072, 3204.363
174.555, 3133.027
175.037, 3029.242
175.519, 2897.711
176.001, 2781.668
176.483, 2730.102
176.965, 2716.656
177.447, 2690.355
177.929, 2615.312
178.412, 2527.465
178.894, 2486.105
179.376, 2492.477
179.858, 2500.113
180.340, 2463.879
180.822, 2392.312
181.304, 2312.836
181.786, 2231.734
182.268, 2151.172
182.751, 2068.480
183.233, 1979.797
183.715, 1911.570
184.197, 1921.309
184.679, 1994.051
185.161, 2040.734
185.643, 1988.957
186.125, 1871.746
186.607, 1805.340
187.090, 1811.293
187.572, 1833.883
188.054, 1778.211
188.536, 1647.605
189.018, 1513.480
189.500, 1421.773
189.982, 1367.129
190.464, 1318.527
190.947, 1279.891
191.429, 1236.422
191.911, 1140.980
192.393, 989.543
192.875, 854.379
193.357, 813.406
193.839, 859.375
194.321, 847.395
194.803, 731.703
195.286, 553.730
195.768, 453.793
196.250, 444.664
196.732, 446.570
197.214, 376.336
197.696, 229.449
198.178, 116.309
198.661, 68.250
199.143, 75.105
199.625, 80.180
200.107, 84.453
200.589, 85.508
201.071, 83.238
201.553, 79.066
202.035, 60.043
202.517, 14.598
202.999, 55.578
203.482, 104.949
203.964, 132.453
204.446, 146.004
204.928, 156.914
205.410, 168.047
205.892, 167.316
206.374, 148.137
206.857, 109.590
207.339, 71.617
207.821, 28.500
208.303, 5.223
208.785, 1.668
209.267, 48.891
209.749, 105.914
210.231, 151.504
210.713, 180.707
211.195, 215.031
211.678, 258.789
212.160, 302.859
212.642, 321.258
213.124, 295.965
213.606, 275.945
214.088, 293.324
214.570, 375.215
215.052, 423.836
215.535, 426.801
216.017, 389.195
216.499, 326.898
216.981, 228.910
217.463, 135.844
217.945, 76.586
218.427, 72.379
218.909, 54.004
219.391, 13.277
219.874, 44.496
220.356, 96.543
220.838, 141.668
221.320, 181.984
221.802, 220.836
222.284, 265.348
222.766, 287.406
223.248, 278.457
223.731, 244.996
224.213, 223.723
224.695, 217.211
225.177, 222.312
225.659, 234.531
226.141, 246.156
226.623, 283.137
227.105, 366.742
227.587, 490.410
228.070, 560.223
228.552, 540.438
229.034, 501.281
229.516, 505.043
229.998, 573.434
230.480, 644.672
230.962, 708.387
231.444, 760.520
231.926, 809.742
232.409, 861.711
232.891, 909.637
233.373, 948.051
233.855, 976.219
234.337, 993.051
234.819, 995.582
235.301, 982.852
235.783, 977.371
236.266, 983.398
236.748, 995.254
237.230, 1006.457
237.712, 1015.828
238.194, 1023.719
238.676, 1030.730
239.158, 1036.324
239.640, 1061.719
240.122, 1116.027
240.605, 1177.062
241.087, 1217.559
241.569, 1237.711
242.051, 1234.250
242.533, 1188.758
243.015, 1088.191
243.497, 1043.387
243.980, 1085.793
244.462, 1159.750
244.944, 1185.355
245.426, 1123.590
245.908, 1078.477
246.390, 1087.398
246.872, 1167.762
247.354, 1204.816
247.836, 1181.980
248.318, 1125.418
248.801, 1073.984
249.283, 1033.355
249.765, 985.750
250.247, 920.191
250.729, 828.227
251.211, 769.090
251.693, 774.770
252.176, 793.992
252.658, 734.969
253.140, 544.285
253.622, 378.926
254.104, 299.867
254.586, 338.590
255.068, 337.520
255.550, 282.191
256.032, 200.062
256.514, 137.449
256.997, 98.375
257.479, 71.449
257.961, 53.434
258.443, 45.586
258.925, 36.914
259.407, 22.656
259.889, 8.383
260.371, 2.445
260.854, 1.445
261.336, 10.758
261.818, 34.809
262.300, 78.523
262.782, 113.652
263.264, 140.523
263.746, 157.352
264.228, 158.820
264.711, 137.723
265.193, 117.754
265.675, 108.766
266.157, 114.195
266.639, 115.566
267.121, 116.531
267.603, 110.426
268.085, 78.855
268.567, 11.176
269.050, 45.883
269.532, 62.855
270.014, 27.109
270.496, 31.488
270.978, 98.461
271.460, 175.582
271.942, 144.652
272.424, 35.223
272.906, 170.172
273.389, 152.664
273.871, 43.043
274.353, 173.020
274.835, 227.336
275.317, 224.738
275.799, 185.945
276.281, 103.855
276.763, 28.258
277.246, 16.477
277.728, 28.332
278.210, 35.852
278.692, 35.312
279.174, 35.797
279.656, 55.957
280.138, 98.191
280.620, 135.754
281.103, 154.059
281.585, 153.121
282.067, 150.332
282.549, 141.574
283.031, 138.867
283.513, 173.812
283.995, 248.695
284.477, 298.664
284.959, 268.469
285.441, 171.723
285.924, 150.551
286.406, 225.871
286.888, 323.137
287.370, 312.414
287.852, 199.660
288.334, 121.039
288.816, 175.234
289.298, 326.645
289.781, 392.414
290.263, 357.348
290.745, 288.809
291.227, 274.754
291.709, 308.629
292.191, 345.689
292.673, 377.918
293.155, 398.373
293.638, 374.518
294.120, 300.029
294.602, 221.344
295.084, 142.754
295.566, 257.334
296.048, 325.600
296.530, 349.896
297.012, 197.787
297.494, 275.078
297.977, 262.553
298.459, 247.467
298.941, 358.631
299.423, 234.020
299.905, 341.912
300.387, 341.109
300.869, 383.959
301.351, 441.156
301.833, 512.201
302.316, 587.787
302.798, 667.213
303.280, 745.496
303.762, 810.133
304.244, 838.980
304.726, 855.988
305.208, 888.883
305.690, 937.240
306.172, 987.207
306.655, 1020.803
307.137, 1048.861
307.619, 1086.855
308.101, 1164.213
308.583, 1237.596
309.065, 1267.361
309.547, 1256.547
310.030, 1236.895
310.512, 1221.062
310.994, 1211.223
311.476, 1210.707
311.958, 1222.115
312.440, 1241.406
312.922, 1271.229
313.404, 1309.613
313.886, 1333.533
314.369, 1313.717
314.851, 1281.994
315.333, 1268.629
315.815, 1303.227
316.297, 1333.531
316.779, 1332.961
317.261, 1311.906
317.743, 1301.309
318.225, 1327.938
318.708, 1362.260
319.190, 1382.891
319.672, 1376.025
320.154, 1373.648
320.636, 1387.539
321.118, 1412.172
321.600, 1431.941
322.082, 1437.025
322.565, 1439.326
323.047, 1445.900
323.529, 1458.594
324.011, 1472.133
324.493, 1474.664
324.975, 1476.068
325.457, 1499.545
325.939, 1581.207
326.422, 1653.139
326.904, 1690.348
327.386, 1680.385
327.868, 1665.781
328.350, 1644.637
328.832, 1614.168
329.314, 1573.410
329.796, 1504.855
330.278, 1462.420
330.760, 1463.588
331.243, 1523.627
331.725, 1545.107
332.207, 1510.508
332.689, 1451.592
333.171, 1412.678
333.653, 1413.752
334.135, 1407.625
334.617, 1375.723
335.100, 1310.861
335.582, 1276.164
336.064, 1288.283
336.546, 1310.170
337.028, 1296.311
337.510, 1233.377
337.992, 1184.486
338.474, 1166.617
338.957, 1175.701
339.439, 1176.182
339.921, 1167.877
340.403, 1150.512
340.885, 1123.777
341.367, 1086.648
341.849, 1046.439
342.331, 1003.482
342.813, 956.504
343.296, 892.574
343.778, 809.887
344.260, 745.967
344.742, 752.854
345.224, 818.309
345.706, 829.174
346.188, 752.133
346.670, 638.707
347.152, 583.066
347.635, 581.322
348.117, 596.121
348.599, 610.723
349.081, 622.758
349.563, 622.643
350.045, 604.869
350.527, 583.344
351.009, 584.820
351.491, 600.516
351.974, 600.801
352.456, 553.160
352.938, 483.775
353.420, 440.559
353.902, 429.525
354.384, 415.775
354.866, 344.527
355.349, 251.523
355.831, 195.129
356.313, 251.551
356.795, 327.553
357.277, 334.000
357.759, 270.371
358.241, 199.561
358.723, 165.801
359.205, 147.744
359.688, 118.137
360.170, 36.561
360.652, 32.074
361.134, 45.939
361.616, 10.230
362.098, 17.141
362.580, 5.107
363.062, 34.383
363.544, 39.023
364.027, 28.453
364.509, 75.939
364.991, 70.316
365.473, 23.455
365.955, 11.949
366.437, 20.891
366.919, 21.566
367.401, 21.352
367.884, 12.961
368.366, 15.012
368.848, 45.549
369.330, 84.928
369.812, 90.953
370.294, 30.047
370.776, 27.109
371.258, 54.115
371.741, 37.750
372.223, 40.570
372.705, 88.658
373.187, 136.496
373.669, 103.852
374.151, 76.527
374.633, 183.285
375.115, 128.625
375.597, 86.244
376.079, 209.328
376.562, 223.188
377.044, 182.111
377.526, 123.807
378.008, 40.346
378.490, 6.680
378.972, 57.605
379.454, 161.953
379.936, 207.412
380.419, 189.197
380.901, 160.217
381.383, 165.297
381.865, 198.713
382.347, 222.191
382.829, 226.607
383.311, 226.902
383.793, 253.885
384.276, 303.238
384.758, 344.469
385.240, 349.994
385.722, 336.250
386.204, 332.660
386.686, 342.275
387.168, 358.377
387.650, 380.049
388.132, 402.242
388.615, 414.637
389.097, 380.467
389.579, 353.086
390.061, 397.201
390.543, 515.041
391.025, 616.686
391.507, 628.004
391.989, 601.287
392.471, 594.564
392.954, 655.010
393.436, 713.623
393.918, 742.262
394.400, 744.416
394.882, 738.014
395.364, 715.098
395.846, 696.223
396.328, 694.998
396.810, 737.457
397.293, 764.209
397.775, 743.984
398.257, 700.500
398.739, 694.828
399.221, 774.660
399.703, 852.598
400.185, 900.898
400.668, 911.191
401.150, 915.367
401.632, 911.883
402.114, 902.852
402.596, 887.727
403.078, 851.766
403.560, 841.010
404.042, 875.082
404.524, 951.680
405.007, 1008.045
405.489, 1040.896
405.971, 1061.627
406.453, 1073.312
406.935, 1072.922
407.417, 1096.971
407.899, 1160.260
408.381, 1243.480
408.863, 1293.008
409.346, 1307.449
409.828, 1316.893
410.310, 1344.592
410.792, 1384.084
411.274, 1404.615
411.756, 1398.531
412.238, 1391.365
412.720, 1422.186
413.203, 1480.311
413.685, 1530.389
414.167, 1542.107
414.649, 1544.953
415.131, 1585.965
415.613, 1666.168
416.095, 1733.158
416.577, 1735.402
417.060, 1705.523
417.542, 1686.613
418.024, 1704.768
418.506, 1723.100
418.988, 1723.592
419.470, 1711.238
419.952, 1694.719
420.434, 1660.240
420.916, 1630.768
421.398, 1625.289
421.881, 1669.221
422.363, 1704.984
422.845, 1716.207
423.327, 1709.926
423.809, 1701.936
424.291, 1672.852
424.773, 1666.102
425.255, 1708.836
425.738, 1821.590
426.220, 1876.338
426.702, 1841.822
427.184, 1770.158
427.666, 1706.965
428.148, 1641.162
428.630, 1625.793
429.112, 1693.697
429.595, 1820.193
430.077, 1853.074
430.559, 1766.479
431.041, 1664.336
431.523, 1602.822
432.005, 1576.471
432.487, 1589.336
432.969, 1667.400
433.451, 1769.654
433.934, 1799.725
434.416, 1760.523
434.898, 1723.369
435.380, 1734.342
435.862, 1770.906
436.344, 1778.020
436.826, 1756.219
437.308, 1729.494
437.790, 1713.484
438.273, 1705.775
438.755, 1705.086
439.237, 1723.037
439.719, 1736.629
440.201, 1716.727
440.683, 1670.436
441.165, 1631.201
441.647, 1624.518
442.129, 1628.303
442.612, 1618.607
443.094, 1572.064
443.576, 1559.068
444.058, 1658.727
444.540, 1797.396
445.022, 1858.174
445.504, 1713.152
445.987, 1584.869
446.469, 1557.207
446.951, 1652.705
447.433, 1692.680
447.915, 1632.545
448.397, 1550.852
448.879, 1506.062
449.361, 1518.113
449.843, 1526.959
450.326, 1528.439
450.808, 1525.434
451.290, 1518.848
451.772, 1511.014
452.254, 1493.305
452.736, 1453.248
453.218, 1387.803
453.700, 1349.871
454.182, 1345.781
454.665, 1355.092
455.147, 1342.246
455.629, 1310.684
456.111, 1302.541
456.593, 1354.195
457.075, 1428.604
457.557, 1442.729
458.039, 1398.578
458.522, 1333.535
459.004, 1250.879
459.486, 1175.318
459.968, 1144.535
460.450, 1184.117
460.932, 1235.234
461.414, 1253.137
461.896, 1248.109
462.379, 1242.438
462.861, 1265.281
463.343, 1274.240
463.825, 1229.723
464.307, 1121.102
464.789, 1048.414
465.271, 1083.154
465.753, 1144.717
466.235, 1162.406
466.717, 1065.639
467.200, 994.354
467.682, 973.205
468.164, 991.432
468.646, 1007.396
469.128, 1029.900
469.610, 1038.115
470.092, 1015.475
470.574, 944.541
471.057, 916.410
471.539, 946.418
472.021, 995.088
472.503, 1009.496
472.985, 986.096
473.467, 955.189
473.949, 927.400
474.431, 897.430
474.914, 835.877
475.396, 741.717
475.878, 666.266
476.360, 674.602
476.842, 731.938
477.324, 744.826
477.806, 691.000
478.288, 619.840
478.770, 570.928
479.253, 544.273
479.735, 539.066
480.217, 589.826
480.699, 637.156
481.181, 633.771
481.663, 575.607
482.145, 510.707
482.627, 446.398
483.109, 400.395
483.592, 387.250
484.074, 274.910
484.556, 399.619
485.038, 466.867
485.520, 479.746
486.002, 275.209
486.484, 351.543
486.966, 315.377
487.448, 274.648
487.931, 390.648
488.413, 217.975
488.895, 331.568
489.377, 330.957
489.859, 382.709
490.341, 321.324
490.823, 295.000
491.306, 286.164
491.788, 221.410
492.270, 212.703
492.752, 260.539
493.234, 302.117
493.716, 288.943
494.198, 241.152
494.680, 220.416
495.162, 232.537
495.645, 249.557
496.127, 244.254
496.609, 218.637
497.091, 183.691
497.573, 130.402
498.055, 85.887
498.537, 83.154
499.019, 110.701
499.501, 121.066
499.984, 67.504
500.466, 10.461
500.948, 10.391
501.430, 24.141
501.912, 55.014
502.394, 60.246
502.876, 58.207
503.358, 74.756
503.841, 145.268
504.323, 190.393
504.805, 188.225
505.287, 147.041
505.769, 123.605
506.251, 124.764
506.733, 116.645
507.215, 71.805
507.698, 13.301
508.180, 49.746
508.662, 24.936
509.144, 24.852
509.626, 47.732
510.108, 43.586
510.590, 33.463
511.072, 24.301
511.554, 19.076
512.036, 26.729
512.519, 45.139
513.001, 57.549
513.483, 40.398
513.965, 17.736
514.447, 23.205
514.929, 74.549
515.411, 104.859
515.893, 43.592
516.375, 51.211
516.858, 100.064
517.340, 36.213
517.822, 30.555
518.304, 68.004
518.786, 76.881
519.268, 90.381
519.750, 112.451
520.232, 136.982
520.715, 163.141
521.197, 197.941
521.679, 211.275
522.161, 191.326
522.643, 163.980
523.125, 173.738
523.607, 228.266
524.089, 258.213
524.571, 232.600
525.054, 176.180
525.536, 171.480
526.018, 217.533
526.500, 255.355
526.982, 222.875
527.464, 157.621
527.946, 142.795
528.429, 194.559
528.911, 249.873
529.393, 251.986
529.875, 221.617
530.357, 190.908
530.839, 151.920
531.321, 133.771
531.803, 158.543
532.286, 218.998
532.768, 148.471
533.250, 199.729
533.732, 221.473
534.214, 215.283
534.696, 97.400
535.178, 123.834
535.660, 92.486
536.142, 58.795
536.625, 73.811
537.107, 99.791
537.589, 103.572
538.071, 33.410
538.553, 72.766
539.035, 84.814
539.517, 5.441
539.999, 92.422
540.481, 106.605
540.964, 68.598
541.446, 49.447
541.928, 51.850
542.410, 62.436
542.892, 67.811
543.374, 72.494
543.856, 84.727
544.338, 109.738
544.820, 138.025
545.303, 168.721
545.785, 197.518
546.267, 214.201
546.749, 207.664
547.231, 194.275
547.713, 181.414
548.195, 170.414
548.677, 154.191
549.159, 122.736
549.642, 93.871
550.124, 82.408
550.606, 107.129
551.088, 104.141
551.570, 59.752
552.052, 5.367
552.534, 58.791
553.016, 104.168
553.499, 107.953
553.981, 31.301
554.463, 90.184
554.945, 126.834
555.427, 79.471
555.909, 16.779
556.391, 10.508
556.873, 16.146
557.356, 21.697
557.838, 29.439
558.320, 41.439
558.802, 68.008
559.284, 97.207
559.766, 111.643
560.248, 79.676
560.730, 56.875
561.213, 70.877
561.695, 115.629
562.177, 152.693
562.659, 198.133
563.141, 215.398
563.623, 183.361
564.105, 84.094
564.587, 7.414
565.069, 50.150
565.552, 78.670
566.034, 49.299
566.516, 44.158
566.998, 92.492
567.480, 65.680
567.962, 0.869
568.444, 38.295
568.926, 49.717
569.408, 56.586
569.891, 67.992
570.373, 82.723
570.855, 104.992
571.337, 133.779
571.819, 148.922
572.301, 113.463
572.783, 70.834
573.265, 67.359
573.747, 145.773
574.230, 189.857
574.712, 138.031
575.194, 45.266
575.676, 12.189
576.158, 14.754
576.640, 2.461
577.122, 27.645
577.604, 70.354
578.086, 85.545
578.569, 63.777
579.051, 40.682
579.533, 35.689
580.015, 48.818
580.497, 69.881
580.979, 99.498
581.461, 134.045
581.943, 174.768
582.426, 217.416
582.908, 250.037
583.390, 266.906
583.872, 276.396
584.354, 279.203
584.836, 280.428
585.318, 292.615
585.800, 341.012
586.282, 384.041
586.765, 389.330
587.247, 356.055
587.729, 345.988
588.211, 397.498
588.693, 455.164
589.175, 488.031
589.657, 483.453
590.140, 482.375
590.622, 480.027
591.104, 486.758
591.586, 528.406
592.068, 613.904
592.550, 658.646
593.032, 629.016
593.514, 562.758
593.996, 544.590
594.479, 569.859
594.961, 599.902
595.443, 608.158
595.925, 610.006
596.407, 625.287
596.889, 658.338
597.371, 692.947
597.853, 710.734
598.335, 721.176
598.818, 732.252
599.300, 741.684
599.782, 759.508
600.264, 801.930
600.746, 849.734
601.228, 872.186
601.710, 839.844
602.192, 831.338
602.674, 876.576
603.157, 956.461
603.639, 964.043
604.121, 880.883
604.603, 815.521
605.085, 852.094
605.567, 965.156
606.049, 1009.189
606.531, 979.330
607.013, 938.711
607.496, 949.180
607.978, 986.357
608.460, 1007.430
608.942, 997.057
609.424, 983.381
609.906, 978.586
610.388, 981.027
610.870, 990.535
611.353, 1031.230
611.835, 1060.998
612.317, 1059.057
612.799, 1027.801
613.281, 1003.207
613.763, 985.721
614.245, 972.887
614.727, 966.350
615.209, 966.885
615.692, 950.666
616.174, 890.145
616.656, 963.354
617.138, 1002.572
617.620, 1010.234
618.102, 895.729
618.584, 942.160
619.067, 924.012
619.549, 901.281
620.031, 965.969
620.513, 864.201
620.995, 924.566
621.477, 921.646
621.959, 953.393
622.441, 924.137
622.923, 915.914
623.406, 972.240
623.888, 992.984
624.370, 955.281
624.852, 989.322
625.334, 892.938
625.816, 925.678
626.298, 857.340
626.780, 846.443
627.263, 898.641
627.745, 929.188
628.227, 927.865
628.709, 914.551
629.191, 910.734
629.673, 917.180
630.155, 939.762
630.637, 1005.402
631.119, 1057.414
631.602, 1015.654
632.084, 911.010
632.566, 832.350
633.048, 834.607
633.530, 860.779
634.012, 888.414
634.494, 916.629
634.976, 945.502
635.458, 989.477
635.941, 1019.613
636.423, 1015.713
636.905, 960.301
637.387, 930.703
637.869, 932.848
638.351, 947.594
638.833, 955.072
639.315, 955.064
639.797, 945.811
640.280, 925.875
640.762, 898.947
641.244, 865.381
641.726, 829.053
642.208, 799.055
642.690, 791.494
643.172, 783.939
643.654, 752.057
644.137, 702.809
644.619, 676.842
645.101, 722.988
645.583, 766.090
646.065, 766.973
646.547, 717.330
647.029, 666.932
647.511, 609.836
647.994, 558.053
648.476, 521.414
648.958, 499.559
649.440, 485.219
649.922, 477.070
650.404, 474.361
650.886, 483.393
651.368, 497.830
651.851, 496.869
652.333, 464.955
652.815, 425.850
653.297, 399.621
653.779, 384.854
654.261, 377.633
654.743, 391.557
655.225, 399.400
655.707, 383.887
656.190, 344.928
656.672, 320.742
657.154, 323.908
657.636, 329.717
658.118, 325.068
658.600, 307.762
659.082, 297.068
659.564, 293.570
660.046, 293.049
660.529, 298.855
661.011, 305.764
661.493, 283.117
661.975, 216.119
662.457, 149.441
662.939, 128.500
663.421, 141.670
663.903, 167.859
664.385, 223.240
664.868, 266.283
665.350, 269.488
665.832, 245.189
666.314, 232.840
666.796, 258.385
667.278, 273.812
667.760, 263.459
668.242, 228.197
668.724, 192.016
669.207, 144.539
669.689, 125.078
670.171, 180.434
670.653, 293.186
671.135, 351.664
671.617, 348.197
672.099, 329.068
672.581, 346.912
673.064, 374.125
673.546, 362.887
674.028, 287.338
674.510, 218.396
674.992, 200.053
675.474, 209.496
675.956, 215.678
676.438, 218.254
676.920, 211.631
677.403, 182.604
677.885, 148.348
678.367, 160.445
678.849, 241.201
679.331, 287.441
679.813, 242.436
680.295, 143.676
680.778, 136.697
681.260, 217.158
681.742, 297.195
682.224, 318.838
682.706, 306.904
683.188, 277.529
683.670, 232.176
684.152, 224.377
684.634, 345.682
685.117, 474.117
685.599, 506.812
686.081, 361.605
686.563, 286.518
687.045, 341.400
687.527, 433.844
688.009, 472.809
688.491, 446.484
688.973, 416.871
689.456, 390.967
689.938, 366.275
690.420, 328.412
690.902, 284.094
691.384, 268.635
691.866, 306.840
692.348, 365.670
692.830, 419.900
693.312, 465.297
693.795, 490.119
694.277, 462.820
694.759, 437.656
695.241, 442.977
695.723, 478.451
696.205, 507.715
696.687, 529.754
697.169, 544.438
697.652, 550.729
698.134, 548.432
698.616, 545.918
699.098, 544.361
699.580, 539.148
700.062, 523.662
700.544, 501.525
701.026, 481.367
701.508, 462.746
701.991, 456.158
702.473, 480.924
702.955, 518.770
703.437, 547.656
703.919, 562.908
704.401, 566.404
704.883, 544.373
705.365, 515.270
705.847, 506.785
706.330, 522.389
706.812, 553.631
707.294, 609.893
707.776, 673.664
708.258, 692.039
708.740, 665.707
709.222, 641.988
709.705, 642.133
710.187, 656.405
710.669, 675.626
711.151, 696.396
711.633, 702.826
712.115, 662.160
712.597, 620.497
713.079, 619.688
713.561, 665.050
714.044, 688.760
714.526, 645.910
715.008, 607.586
715.490, 609.439
715.972, 661.032
716.454, 699.854
716.936, 723.404
717.418, 738.832
717.901, 762.722
718.383, 788.267
718.865, 765.852
719.347, 680.683
719.829, 604.399
720.311, 613.603
720.793, 674.245
721.275, 744.104
721.757, 833.180
722.240, 898.387
722.722, 912.504
723.204, 892.202
723.686, 866.655
724.168, 836.926
724.650, 807.570
725.132, 780.670
725.614, 755.397
726.096, 720.518
726.579, 675.156
727.061, 658.614
727.543, 709.086
728.025, 775.810
728.507, 757.562
728.989, 673.547
729.471, 601.860
729.953, 590.244
730.435, 598.435
730.918, 605.082
731.400, 609.321
731.882, 612.212
732.364, 612.411
732.846, 613.782
733.328, 620.132
733.810, 632.694
734.292, 634.398
734.775, 622.518
735.257, 596.904
735.739, 545.849
736.221, 484.534
736.703, 474.884
737.185, 525.267
737.667, 571.990
738.149, 547.841
738.631, 493.770
739.114, 460.023
739.596, 465.024
740.078, 477.181
740.560, 504.441
741.042, 522.514
741.524, 505.834
742.006, 428.259
742.489, 386.725
742.971, 388.425
743.453, 425.152
743.935, 507.826
744.417, 628.712
744.899, 705.621
745.381, 707.825
745.863, 674.408
746.345, 637.323
746.828, 595.653
747.310, 557.574
747.792, 527.077
748.274, 501.618
748.756, 490.556
749.238, 485.502
749.720, 453.404
750.202, 366.671
750.684, 296.113
751.167, 268.816
751.649, 276.093
752.131, 283.767
752.613, 291.283
753.095, 284.325
753.577, 248.057
754.059, 196.473
754.541, 141.460
755.023, 87.613
755.506, 69.970
755.988, 151.075
756.470, 236.481
756.952, 263.222
757.434, 219.654
757.916, 190.867
758.398, 186.244
758.880, 188.405
759.362, 190.674
759.845, 193.630
760.327, 188.988
760.809, 177.374
761.291, 162.170
761.773, 141.858
762.255, 119.582
762.737, 106.188
763.219, 104.972
763.702, 95.799
764.184, 37.655
764.666, 18.330
765.148, 21.601
765.630, 86.521
766.112, 144.995
766.594, 120.875
767.076, 67.475
767.558, 36.785
768.041, 32.972
768.523, 14.317
769.005, 31.713
769.487, 69.609
769.969, 33.328
770.451, 47.536
770.933, 97.817
771.416, 87.967
771.898, 62.767
772.380, 50.300
772.862, 41.952
773.344, 25.349
773.826, 23.898
774.308, 50.730
774.790, 39.073
775.272, 7.818
775.755, 9.107
776.237, 11.526
776.719, 1.739
777.201, 24.496
777.683, 54.468
778.165, 59.193
778.647, 47.363
779.129, 45.116
779.612, 85.424
780.094, 119.421
780.576, 109.795
781.058, 69.862
781.540, 39.079
782.022, 27.933
782.504, 24.626
782.986, 29.229
783.468, 40.162
783.951, 51.233
784.433, 63.789
784.915, 68.558
785.397, 56.919
785.879, 36.808
786.361, 24.793
786.843, 19.114
787.325, 12.535
787.807, 3.659
788.290, 18.423
788.772, 25.265
789.254, 24.520
789.736, 18.879
790.218, 4.768
790.700, 9.788
791.182, 27.008
791.664, 44.353
792.146, 28.243
792.629, 25.192
793.111, 70.481
793.593, 72.546
794.075, 49.380
794.557, 25.867
795.039, 4.694
795.521, 3.019
796.003, 63.350
796.485, 119.689
796.968, 119.778
797.450, 49.293
797.932, 22.991
798.414, 72.534
798.896, 120.392
799.378, 113.619
799.860, 52.634
800.343, 42.760
800.825, 86.918
801.307, 133.657
801.789, 149.773
802.271, 140.777
802.753, 103.687
803.235, 36.575
803.717, 4.245
804.199, 37.063
804.682, 90.940
805.164, 107.488
805.646, 76.436
806.128, 49.104
806.610, 20.134
807.092, 6.430
807.574, 37.716
808.056, 103.953
808.539, 121.880
809.021, 83.975
809.503, 45.155
809.985, 54.104
810.467, 86.135
810.949, 118.159
811.431, 146.824
811.913, 168.094
812.395, 170.783
812.878, 173.336
813.360, 192.356
813.842, 242.266
814.324, 245.062
814.806, 188.325
815.288, 126.604
815.770, 115.204
816.252, 141.781
816.734, 176.012
817.217, 216.825
817.699, 238.182
818.181, 194.770
818.663, 137.691
819.145, 117.900
819.627, 165.321
820.109, 196.091
820.591, 194.262
821.073, 186.062
821.556, 195.910
822.038, 226.590
822.520, 238.146
823.002, 225.739
823.484, 211.832
823.966, 221.417
824.448, 244.621
824.930, 265.165
825.413, 279.909
825.895, 294.221
826.377, 320.099
826.859, 339.675
827.341, 334.177
827.823, 293.037
828.305, 263.827
828.787, 242.139
829.269, 236.228
829.752, 265.927
830.234, 324.010
830.716, 358.830
831.198, 363.849
831.680, 354.441
832.162, 338.184
832.644, 321.997
833.127, 313.830
833.609, 317.902
834.091, 316.472
834.573, 289.765
835.055, 266.945
835.537, 271.474
836.019, 312.855
836.501, 347.589
836.983, 375.479
837.466, 386.843
837.948, 362.538
838.430, 321.534
838.912, 302.732
839.394, 312.755
839.876, 324.738
840.358, 315.666
840.840, 305.224
841.322, 313.883
841.805, 362.025
842.287, 375.646
842.769, 342.327
843.251, 298.045
843.733, 269.137
844.215, 254.413
844.697, 252.254
845.179, 263.796
845.661, 274.789
846.144, 261.467
846.626, 245.400
847.108, 256.898
847.590, 306.961
848.072, 338.622
848.554, 301.812
849.036, 200.539
849.518, 298.644
850.000, 348.770
850.483, 355.774
850.965, 179.718
851.447, 241.590
851.929, 207.244
852.411, 219.069
852.893, 186.704
853.375, 237.550
853.857, 285.746
854.340, 271.398
854.822, 172.557
855.304, 291.234
855.786, 355.057
856.268, 369.842
856.750, 185.153
857.232, 258.722
857.714, 227.268
858.196, 190.939
858.679, 299.815
859.161, 143.745
859.643, 251.090
860.125, 233.829
860.607, 216.495
861.089, 214.953
861.571, 228.730
862.054, 243.900
862.536, 251.137
863.018, 261.715
863.500, 272.460
863.982, 177.768
864.464, 275.526
864.946, 325.275
865.428, 331.818
865.910, 162.312
866.393, 222.776
866.875, 190.217
867.357, 152.578
867.839, 243.281
868.321, 98.707
868.803, 188.782
869.285, 185.796
869.767, 225.745
870.250, 173.026
870.732, 148.869
871.214, 217.473
871.696, 235.122
872.178, 172.105
872.660, 117.369
873.142, 150.792
873.624, 185.475
874.106, 198.761
874.589, 192.368
875.071, 145.115
875.553, 77.208
876.035, 52.387
876.517, 95.569
876.999, 139.593
877.481, 177.685
877.963, 204.666
878.445, 205.024
878.928, 181.364
879.410, 151.817
879.892, 116.348
880.374, 88.599
880.856, 80.024
881.338, 87.369
881.820, 105.823
882.302, 159.746
882.784, 189.771
883.267, 182.725
883.749, 156.694
884.231, 134.036
884.713, 114.705
885.195, 103.990
885.677, 102.693
886.159, 109.343
886.641, 136.204
887.123, 165.340
887.606, 167.082
888.088, 121.551
888.570, 81.612
889.052, 59.652
889.534, 51.457
890.016, 56.539
890.498, 79.057
890.981, 93.824
891.463, 99.451
891.945, 101.264
892.427, 106.214
892.909, 110.154
893.391, 102.420
893.873, 81.076
894.355, 65.618
894.837, 63.420
895.320, 72.420
895.802, 97.794
896.284, 142.701
896.766, 155.198
897.248, 127.182
897.730, 94.202
898.212, 77.277
898.694, 73.395
899.177, 83.773
899.659, 104.688
900.141, 107.130
900.623, 44.556
901.105, 14.178
901.587, 21.126
902.069, 19.902
902.551, 45.439
903.033, 49.719
903.516, 52.518
903.998, 64.124
904.480, 75.493
904.962, 47.220
905.444, 8.367
905.926, 35.548
906.408, 23.670
906.890, 86.452
907.372, 95.101
907.855, 69.580
908.337, 55.747
908.819, 63.583
909.301, 73.293
909.783, 81.865
910.265, 91.114
910.747, 115.263
911.229, 146.923
911.711, 131.469
912.194, 37.824
912.676, 45.085
913.158, 16.750
913.640, 57.875
914.122, 100.077
914.604, 64.027
915.086, 54.344
915.568, 88.215
916.050, 127.711
916.533, 138.959
917.015, 122.871
917.497, 99.926
917.979, 70.665
918.461, 46.178
918.943, 37.936
919.425, 37.831
919.907, 39.364
920.390, 42.134
920.872, 42.402
921.354, 32.298
921.836, 31.803
922.318, 56.832
922.800, 101.535
923.282, 102.676
923.764, 56.520
924.247, 115.754
924.729, 149.340
925.211, 158.638
925.693, 71.851
926.175, 109.056
926.657, 96.714
927.139, 82.315
927.621, 137.716
928.104, 64.831
928.586, 118.743
929.068, 122.200
929.550, 148.933
930.032, 125.171
930.514, 116.700
930.996, 158.630
931.478, 172.908
931.960, 143.667
932.443, 119.528
932.925, 101.101
933.407, 81.872
933.889, 58.229
934.371, 40.988
934.853, 45.614
935.335, 70.736
935.817, 83.181
936.299, 79.586
936.782, 67.789
937.264, 40.452
937.746, 17.447
938.228, 23.697
938.710, 65.401
939.192, 103.545
939.674, 136.083
940.156, 158.497
940.638, 165.273
941.121, 158.855
941.603, 159.082
942.085, 165.741
942.567, 174.587
943.049, 190.842
943.531, 201.816
944.013, 183.751
944.495, 149.291
944.978, 141.383
945.460, 200.327
945.942, 240.592
946.424, 241.617
946.906, 222.454
947.388, 223.761
947.870, 243.346
948.352, 263.113
948.834, 282.213
949.317, 289.215
949.799, 251.902
950.281, 206.694
950.763, 200.373
951.245, 282.384
951.727, 325.159
952.209, 311.168
952.692, 283.330
953.174, 279.683
953.656, 296.005
954.138, 305.905
954.620, 307.977
955.102, 314.054
955.584, 347.645
956.066, 377.687
956.548, 377.821
957.031, 345.104
957.513, 312.124
957.995, 267.157
958.477, 251.235
958.959, 298.926
959.441, 375.569
959.923, 361.263
960.405, 279.768
960.888, 233.896
961.370, 321.043
961.852, 401.153
962.334, 379.437
962.816, 301.096
963.298, 256.893
963.780, 256.804
964.262, 275.697
964.744, 318.925
965.227, 357.428
965.709, 346.065
966.191, 301.828
966.673, 265.330
967.155, 243.256
967.637, 227.764
968.119, 225.913
968.601, 220.400
969.083, 193.630
969.566, 142.049
970.048, 122.292
970.530, 139.104
971.012, 158.938
971.494, 158.578
971.976, 147.607
972.458, 144.640
972.940, 147.088
973.422, 144.453
973.905, 133.204
974.387, 113.463
974.869, 74.696
975.351, 32.483
975.833, 22.173
976.315, 45.557
976.797, 75.180
977.279, 111.950
977.761, 130.211
978.244, 62.018
978.726, 27.407
979.208, 37.721
979.690, 91.319
980.172, 183.548
980.654, 206.453
981.136, 194.086
981.619, 153.340
982.101, 87.416
982.583, 84.022
983.065, 140.826
983.547, 179.623
984.029, 121.261
984.511, 43.412
984.993, 2.833
985.475, 0.038
985.958, 19.705
986.440, 81.064
986.922, 123.289
987.404, 130.348
987.886, 110.872
988.368, 75.336
988.850, 30.385
989.332, 0.705
989.815, 12.889
990.297, 7.914
990.779, 33.476
991.261, 82.394
991.743, 103.994
992.225, 86.209
992.707, 65.227
993.189, 37.428
993.671, 19.254
994.154, 30.561
994.636, 57.065
995.118, 72.460
995.600, 76.230
996.082, 75.436
996.564, 65.910
997.046, 60.941
997.528, 67.012
998.010, 80.549
998.493, 92.830
998.975, 104.343
999.457, 106.460
999.939, 93.613
1000.421, 77.103
1000.903, 64.646
1001.385, 58.691
1001.867, 63.659
1002.349, 90.788
1002.832, 107.984
1003.314, 113.818
1003.796, 108.310
1004.278, 86.306
1004.760, 51.107
1005.242, 26.043
1005.724, 11.584
1006.206, 8.234
1006.689, 25.479
1007.171, 45.548
1007.653, 60.202
1008.135, 67.405
1008.617, 61.418
1009.099, 35.684
1009.581, 16.791
1010.063, 11.056
1010.545, 16.449
1011.028, 40.787
1011.510, 71.700
1011.992, 82.048
1012.474, 57.849
1012.956, 28.231
1013.438, 6.512
1013.920, 34.480
1014.402, 45.676
1014.885, 38.988
1015.367, 25.547
1015.849, 5.016
1016.331, 10.700
1016.813, 5.543
1017.295, 3.562
1017.777, 6.753
1018.259, 31.010
1018.741, 38.392
1019.224, 3.219
1019.706, 14.547
1020.188, 2.452
1020.670, 34.771
1021.152, 43.655
1021.634, 37.255
1022.116, 37.130
1022.598, 46.483
1023.081, 62.498
1023.563, 97.687
1024.045, 130.652
1024.527, 138.084
1025.009, 113.902
1025.491, 113.210
1025.973, 141.125
1026.455, 162.842
1026.938, 145.504
1027.420, 113.395
1027.902, 106.867
1028.384, 118.424
1028.866, 122.821
1029.348, 109.259
1029.830, 88.355
1030.312, 54.750
1030.794, 23.227
1031.276, 20.563
1031.759, 44.052
1032.241, 75.855
1032.723, 116.747
1033.205, 139.462
1033.687, 104.813
1034.169, 55.096
1034.651, 24.164
1035.133, 15.380
1035.616, 24.800
1036.098, 56.573
1036.580, 91.717
1037.062, 126.201
1037.544, 156.547
1038.026, 167.991
1038.508, 164.443
1038.990, 156.009
1039.473, 132.909
1039.955, 123.272
1040.437, 146.763
1040.919, 175.013
1041.401, 175.979
1041.883, 150.162
1042.365, 124.507
1042.847, 100.855
1043.329, 75.609
1043.812, 34.410
1044.294, 0.400
1044.776, 2.237
1045.258, 27.819
1045.740, 39.833
1046.222, 23.323
1046.704, 16.052
1047.186, 36.327
1047.668, 60.208
1048.151, 30.739
1048.633, 27.852
1049.115, 63.185
1049.597, 56.229
1050.079, 32.542
1050.561, 15.377
1051.043, 63.610
1051.525, 98.476
1052.008, 120.477
1052.490, 118.547
1052.972, 92.951
1053.454, 63.932
1053.936, 38.962
1054.418, 21.475
1054.900, 11.529
1055.382, 11.262
1055.865, 29.667
1056.347, 76.543
1056.829, 114.571
1057.311, 138.035
1057.793, 150.508
1058.275, 150.404
1058.757, 144.786
1059.239, 152.095
1059.721, 177.826
1060.203, 188.694
1060.686, 148.194
1061.168, 116.742
1061.650, 130.798
1062.132, 176.975
1062.614, 166.672
1063.096, 105.267
1063.578, 58.515
1064.060, 59.416
1064.543, 75.400
1065.025, 86.912
1065.507, 96.052
1065.989, 106.792
1066.471, 123.627
1066.953, 129.276
1067.435, 121.716
1067.917, 110.228
1068.400, 99.633
1068.882, 92.188
1069.364, 91.311
1069.846, 96.816
1070.328, 106.553
1070.810, 128.327
1071.292, 141.751
1071.774, 137.954
1072.256, 126.709
1072.739, 130.551
1073.221, 145.342
1073.703, 144.113
1074.185, 114.966
1074.667, 97.044
1075.149, 139.306
1075.631, 185.462
1076.113, 185.084
1076.596, 138.381
1077.078, 108.988
1077.560, 99.086
1078.042, 81.624
1078.524, 30.349
1079.006, 21.697
1079.488, 33.727
1079.970, 17.285
1080.453, 5.588
1080.935, 36.244
1081.417, 65.622
1081.899, 99.096
1082.381, 120.062
1082.863, 98.957
1083.345, 55.493
1083.827, 55.191
1084.309, 95.085
1084.792, 119.959
1085.274, 75.631
1085.756, 41.916
1086.238, 50.961
1086.720, 88.340
1087.202, 130.625
1087.684, 176.228
1088.166, 192.937
1088.648, 170.051
1089.131, 135.654
1089.613, 106.660
1090.095, 82.739
1090.577, 62.298
1091.059, 44.789
1091.541, 44.572
1092.023, 66.139
1092.505, 83.492
1092.988, 80.911
1093.470, 72.449
1093.952, 78.307
1094.434, 94.349
1094.916, 113.152
1095.398, 141.381
1095.880, 156.317
1096.362, 157.756
1096.844, 144.393
1097.327, 95.104
1097.809, 30.331
1098.291, 46.968
1098.773, 134.931
1099.255, 202.799
1099.737, 187.302
1100.219, 157.995
1100.701, 136.071
1101.183, 123.108
1101.666, 128.403
1102.148, 150.578
1102.630, 148.522
1103.112, 113.263
1103.594, 85.275
1104.076, 114.533
1104.558, 154.441
1105.040, 161.834
1105.523, 135.398
1106.005, 131.281
1106.487, 152.046
1106.969, 167.564
1107.451, 170.182
1107.933, 166.304
1108.415, 165.941
1108.897, 162.929
1109.380, 148.240
1109.862, 106.209
1110.344, 91.958
1110.826, 122.062
1111.308, 153.612
1111.790, 154.619
1112.272, 137.033
1112.754, 137.250
1113.236, 149.990
1113.719, 157.670
1114.201, 147.302
1114.683, 136.022
1115.165, 131.536
1115.647, 125.557
1116.129, 102.058
1116.611, 129.233
1117.093, 144.107
1117.575, 147.341
1118.058, 104.065
1118.540, 120.842
1119.022, 113.556
1119.504, 105.281
1119.986, 130.511
1120.468, 94.001
1120.950, 118.699
1121.432, 118.948
1121.915, 130.379
1122.397, 117.614
1122.879, 112.328
1123.361, 131.272
1123.843, 136.827
1124.325, 121.310
1124.807, 133.504
1125.289, 96.188
1125.771, 102.319
1126.254, 105.454
1126.736, 81.092
1127.218, 62.653
1127.700, 49.981
1128.182, 43.031
1128.664, 41.410
1129.146, 46.562
1129.628, 60.884
1130.110, 76.314
1130.593, 83.517
1131.075, 87.710
1131.557, 120.273
1132.039, 169.748
1132.521, 190.087
1133.003, 126.607
1133.485, 73.268
1133.967, 57.460
1134.450, 63.640
1134.932, 85.877
1135.414, 119.810
1135.896, 116.521
1136.378, 74.486
1136.860, 38.343
1137.342, 52.841
1137.824, 72.457
1138.307, 63.053
1138.789, 39.823
1139.271, 39.896
1139.753, 63.698
1140.235, 97.978
1140.717, 143.638
1141.199, 172.499
1141.681, 139.204
1142.163, 91.253
1142.646, 74.982
1143.128, 91.527
1143.610, 91.640
1144.092, 73.295
1144.574, 48.468
1145.056, 16.244
1145.538, 7.844
1146.020, 6.380
1146.502, 37.135
1146.985, 1.388
1147.467, 60.115
1147.949, 95.907
1148.431, 110.002
1148.913, 37.396
1149.395, 76.750
1149.877, 71.237
1150.359, 63.889
1150.842, 119.015
1151.324, 100.693
1151.806, 27.496
1152.288, 7.346
1152.770, 15.054
1153.252, 54.935
1153.734, 85.842
1154.216, 105.589
1154.698, 100.870
1155.181, 76.858
1155.663, 61.167
1156.145, 68.733
1156.627, 84.175
1157.109, 111.595
1157.591, 135.323
1158.073, 133.576
1158.555, 110.002
1159.037, 72.390
1159.520, 23.201
1160.002, 1.328
1160.484, 49.226
1160.966, 95.171
1161.448, 102.180
1161.930, 81.863
1162.412, 52.495
1162.894, 15.822
1163.377, 5.130
1163.859, 5.468
1164.341, 1.203
1164.823, 0.920
1165.305, 2.125
1165.787, 3.318
1166.269, 4.302
1166.751, 5.813
1167.234, 7.608
1167.716, 3.250
1168.198, 13.085
1168.680, 24.797
1169.162, 9.092
1169.644, 11.978
1170.126, 14.342
1170.608, 3.065
1171.090, 8.951
1171.573, 2.106
1172.055, 2.787
1172.537, 25.681
1173.019, 4.242
1173.501, 37.814
1173.983, 58.032
1174.465, 65.614
1174.947, 22.709
1175.430, 45.005
1175.912, 41.174
1176.394, 36.272
1176.876, 67.750
1177.358, 32.198
1177.840, 63.101
1178.322, 67.480
1178.804, 84.001
1179.286, 74.234
1179.769, 72.595
1180.251, 97.253
1180.733, 109.491
1181.215, 102.033
1181.697, 120.239
1182.179, 83.789
1182.661, 94.513
1183.143, 125.591
1183.625, 114.302
1184.108, 132.096
1184.590, 138.751
1185.072, 114.597
1185.554, 94.474
1186.036, 85.043
1186.518, 84.862
1187.000, 92.401
1187.482, 94.944
1187.965, 87.596
1188.447, 79.054
1188.929, 68.406
1189.411, 64.203
1189.893, 90.594
1190.375, 127.826
1190.857, 138.074
1191.339, 115.709
1191.822, 92.396
1192.304, 75.271
1192.786, 57.511
1193.268, 35.162
1193.750, 14.359
1194.232, 5.880
1194.714, 7.748
1195.196, 18.109
1195.678, 38.862
1196.161, 53.388
1196.643, 54.932
1197.125, 56.268
1197.607, 64.613
1198.089, 73.769
1198.571, 60.774
1199.053, 37.795
1199.535, 36.812
1200.017, 79.469
1200.500, 104.200
1200.982, 90.463
1201.464, 70.407
1201.946, 57.961
1202.428, 53.641
1202.910, 66.938
1203.392, 89.320
1203.874, 97.365
1204.357, 73.471
1204.839, 51.722
1205.321, 37.177
1205.803, 27.665
1206.285, 20.447
1206.767, 17.080
1207.249, 32.302
1207.731, 57.806
1208.214, 64.736
1208.696, 11.570
1209.178, 17.752
1209.660, 2.516
1210.142, 25.836
1210.624, 45.026
1211.106, 54.186
1211.588, 40.594
1212.070, 12.218
1212.552, 6.236
1213.035, 82.438
1213.517, 117.895
1213.999, 71.485
1214.481, 8.225
1214.963, 2.643
1215.445, 37.035
1215.927, 53.539
1216.409, 52.847
1216.892, 58.696
1217.374, 91.610
1217.856, 119.559
1218.338, 139.971
1218.820, 147.597
1219.302, 128.737
1219.784, 92.566
1220.266, 60.945
1220.749, 36.667
1221.231, 28.290
1221.713, 56.040
1222.195, 78.613
1222.677, 84.462
1223.159, 82.431
1223.641, 86.947
1224.123, 96.819
1224.605, 106.793
1225.088, 116.034
1225.570, 123.498
1226.052, 137.782
1226.534, 134.484
1227.016, 100.131
1227.498, 57.576
1227.980, 49.505
1228.462, 63.637
1228.944, 73.667
1229.427, 76.108
1229.909, 63.544
1230.391, 29.996
1230.873, 76.446
1231.355, 103.479
1231.837, 112.138
1232.319, 47.390
1232.801, 77.438
1233.284, 69.490
1233.766, 59.921
1234.248, 103.208
1234.730, 49.035
1235.212, 91.477
1235.694, 95.347
1236.176, 116.854
1236.658, 92.516
1237.141, 126.725
1237.623, 98.167
1238.105, 28.576
1238.587, 79.250
1239.069, 8.664
1239.551, 62.344
1240.033, 86.213
1240.515, 86.632
1240.997, 5.308
1241.479, 108.013
1241.962, 166.025
1242.444, 182.206
1242.926, 29.013
1243.408, 93.891
1243.890, 71.201
1244.372, 44.766
1244.854, 140.823
1245.336, 12.664
1245.819, 106.794
1246.301, 112.198
1246.783, 97.036
1247.265, 77.387
1247.747, 108.997
1248.229, 142.435
1248.711, 158.296
1249.193, 157.431
1249.676, 123.688
1250.158, 81.952
1250.640, 74.356
1251.122, 113.710
1251.604, 133.309
1252.086, 132.271
1252.568, 121.998
1253.050, 100.234
1253.532, 84.139
1254.015, 103.590
1254.497, 132.696
1254.979, 132.144
1255.461, 94.033
1255.943, 75.476
1256.425, 17.988
1256.907, 93.241
1257.389, 136.170
1257.871, 148.714
1258.354, 39.383
1258.836, 87.316
1259.318, 72.315
1259.800, 54.731
1260.282, 124.912
1260.764, 33.381
1261.246, 102.177
1261.728, 106.979
1262.211, 141.066
1262.693, 111.695
1263.175, 101.912
1263.657, 155.581
1264.139, 103.560
1264.621, 92.276
1265.103, 85.271
1265.585, 79.531
1266.068, 78.039
1266.550, 71.767
1267.032, 46.961
1267.514, 27.282
1267.996, 35.320
1268.478, 66.190
1268.960, 94.478
1269.442, 119.034
1269.924, 136.463
1270.407, 115.715
1270.889, 119.921
1271.371, 69.078
1271.853, 141.322
1272.335, 183.930
1272.817, 198.096
1273.299, 99.143
1273.781, 146.157
1274.264, 134.823
1274.746, 121.079
1275.228, 188.913
1275.710, 160.791
1276.192, 131.462
1276.674, 140.973
1277.156, 161.491
1277.638, 142.905
1278.120, 96.918
1278.603, 54.830
1279.085, 17.464
1279.567, 6.865
1280.049, 18.887
1280.531, 8.763
1281.013, 61.052
1281.495, 132.639
1281.977, 127.587
1282.459, 79.287
1282.942, 65.202
1283.424, 102.597
1283.906, 100.614
1284.388, 54.595
1284.870, 18.105
1285.352, 44.362
1285.834, 82.612
1286.316, 94.207
1286.799, 119.269
1287.281, 136.170
1287.763, 143.712
1288.245, 154.970
1288.727, 145.012
1289.209, 134.917
1289.691, 144.875
1290.173, 148.421
1290.656, 121.912
1291.138, 78.571
1291.620, 71.333
1292.102, 92.946
1292.584, 99.990
1293.066, 91.834
1293.548, 71.131
1294.030, 10.494
1294.512, 0.705
1294.995, 73.715
1295.477, 155.264
1295.959, 169.378
1296.441, 137.038
1296.923, 96.664
1297.405, 56.166
1297.887, 41.636
1298.369, 109.002
1298.851, 131.416
1299.334, 61.971
1299.816, 0.969
1300.298, 43.589
1300.780, 116.545
1301.262, 88.812
1301.744, 0.000
##END=



