##NAMES=Cylindrite
##RRUFFID=R050175
##IDEAL CHEMISTRY=FePb_3_Sn_4_Sb_2_S_14_
##LOCALITY=Poop√≥ Province, Oruro Department, Bolivia
##OWNER=RRUFF
##SOURCE=Marcus Origlieri
##DESCRIPTION=Gray tubular aggregates
##STATUS=The identification of this mineral has been confirmed only by chemical analysis
##URL=rruff.info/R050175
##MEASURED CHEMISTRY=Pb_3.05_Sn_4.25_Fe_0.84_Sb_1.87_S_14.00_
122.492, 0.000
122.974, 12.756
123.456, 23.639
123.939, 29.125
124.421, 32.052
124.903, 15.117
125.385, 2.577
125.867, 5.673
126.349, 6.668
126.831, 6.334
127.313, 20.411
127.796, 30.215
128.278, 37.752
128.760, 47.740
129.242, 63.133
129.724, 83.960
130.206, 112.357
130.688, 161.708
131.170, 208.215
131.652, 242.319
132.135, 258.598
132.617, 263.067
133.099, 257.163
133.581, 239.757
134.063, 216.368
134.545, 180.020
135.027, 144.579
135.509, 118.601
135.992, 101.977
136.474, 88.459
136.956, 71.226
137.438, 48.300
137.920, 28.843
138.402, 13.135
138.884, 0.303
139.366, 13.028
139.848, 26.672
140.331, 33.296
140.813, 23.715
141.295, 7.342
141.777, 43.358
142.259, 88.111
142.741, 135.596
143.223, 177.432
143.705, 211.569
144.188, 246.580
144.670, 295.213
145.152, 359.262
145.634, 428.613
146.116, 507.634
146.598, 589.389
147.080, 665.228
147.562, 733.351
148.044, 795.095
148.527, 851.524
149.009, 903.130
149.491, 951.393
149.973, 1000.300
150.455, 1046.195
150.937, 1082.018
151.419, 1105.483
151.901, 1119.127
152.383, 1125.826
152.866, 1125.164
153.348, 1123.532
153.830, 1124.924
154.312, 1127.280
154.794, 1125.797
155.276, 1119.548
155.758, 1107.634
156.240, 1087.758
156.723, 1058.240
157.205, 1030.049
157.687, 1007.706
158.169, 991.005
158.651, 979.446
159.133, 973.829
159.615, 972.779
160.097, 974.254
160.579, 978.938
161.062, 983.180
161.544, 986.354
162.026, 987.819
162.508, 982.887
162.990, 964.692
163.472, 943.858
163.954, 933.256
164.436, 934.386
164.919, 941.029
165.401, 948.657
165.883, 957.427
166.365, 969.923
166.847, 988.620
167.329, 1010.421
167.811, 1033.589
168.293, 1059.549
168.775, 1080.017
169.258, 1085.229
169.740, 1075.083
170.222, 1064.301
170.704, 1055.555
171.186, 1049.598
171.668, 1047.642
172.150, 1050.434
172.632, 1054.670
173.115, 1058.590
173.597, 1062.546
174.079, 1061.995
174.561, 1053.990
175.043, 1041.483
175.525, 1025.428
176.007, 1005.129
176.489, 985.826
176.971, 973.743
177.454, 969.677
177.936, 966.146
178.418, 958.033
178.900, 951.364
179.382, 952.065
179.864, 962.036
180.346, 969.102
180.828, 972.741
181.311, 973.737
181.793, 966.144
182.275, 930.690
182.757, 895.395
183.239, 883.421
183.721, 901.489
184.203, 928.978
184.685, 942.607
185.167, 940.580
185.650, 932.174
186.132, 910.244
186.614, 887.896
187.096, 874.908
187.578, 873.800
188.060, 877.685
188.542, 877.177
189.024, 870.079
189.507, 869.308
189.989, 883.160
190.471, 901.602
190.953, 922.238
191.435, 944.744
191.917, 959.412
192.399, 947.424
192.881, 900.009
193.363, 870.441
193.846, 888.519
194.328, 917.707
194.810, 936.986
195.292, 941.942
195.774, 939.087
196.256, 933.498
196.738, 923.526
197.220, 919.673
197.702, 930.776
198.185, 944.542
198.667, 955.561
199.149, 962.771
199.631, 964.798
200.113, 957.903
200.595, 939.737
201.077, 926.730
201.559, 922.522
202.042, 924.159
202.524, 935.176
203.006, 954.990
203.488, 970.495
203.970, 961.291
204.452, 921.937
204.934, 900.390
205.416, 926.136
205.898, 955.992
206.381, 963.422
206.863, 947.098
207.345, 928.129
207.827, 931.524
208.309, 960.261
208.791, 975.602
209.273, 964.040
209.755, 944.281
210.238, 922.267
210.720, 899.881
211.202, 882.576
211.684, 876.376
212.166, 881.469
212.648, 889.159
213.130, 904.439
213.612, 916.617
214.094, 919.665
214.577, 914.069
215.059, 904.104
215.541, 885.115
216.023, 858.264
216.505, 858.921
216.987, 917.651
217.469, 973.429
217.951, 988.060
218.434, 969.764
218.916, 952.791
219.398, 967.651
219.880, 1009.315
220.362, 1033.235
220.844, 1029.437
221.326, 1018.661
221.808, 1008.060
222.290, 999.260
222.773, 996.352
223.255, 1003.838
223.737, 1019.951
224.219, 1035.986
224.701, 1051.953
225.183, 1068.206
225.665, 1088.529
226.147, 1109.116
226.629, 1122.080
227.112, 1123.239
227.594, 1113.842
228.076, 1093.856
228.558, 1054.767
229.040, 1023.920
229.522, 1020.522
230.004, 1033.360
230.486, 1045.851
230.969, 1052.194
231.451, 1053.664
231.933, 1053.479
232.415, 1053.128
232.897, 1046.148
233.379, 1019.959
233.861, 987.702
234.343, 966.077
234.825, 962.571
235.307, 968.988
235.790, 976.357
236.272, 985.342
236.754, 991.025
237.236, 989.475
237.718, 983.817
238.200, 977.122
238.682, 968.955
239.165, 961.809
239.647, 960.283
240.129, 964.447
240.611, 964.204
241.093, 953.474
241.575, 937.324
242.057, 921.718
242.539, 905.649
243.021, 894.051
243.503, 896.293
243.986, 909.325
244.468, 910.725
244.950, 888.047
245.432, 855.996
245.914, 835.338
246.396, 827.684
246.878, 822.853
247.361, 817.487
247.843, 811.008
248.325, 801.546
248.807, 788.330
249.289, 772.403
249.771, 752.724
250.253, 728.779
250.735, 710.427
251.217, 706.746
251.699, 709.833
252.182, 704.823
252.664, 687.666
253.146, 667.956
253.628, 657.999
254.110, 657.452
254.592, 652.969
255.074, 641.779
255.556, 625.536
256.039, 602.522
256.521, 572.362
257.003, 547.490
257.485, 542.290
257.967, 557.155
258.449, 559.231
258.931, 541.897
259.413, 515.722
259.896, 483.558
260.378, 447.363
260.860, 417.151
261.342, 401.358
261.824, 398.734
262.306, 388.797
262.788, 363.896
263.270, 340.336
263.752, 328.292
264.235, 323.773
264.717, 314.697
265.199, 293.487
265.681, 263.397
266.163, 239.678
266.645, 225.412
267.127, 212.591
267.609, 201.696
268.091, 190.704
268.574, 175.950
269.056, 155.793
269.538, 132.798
270.020, 113.536
270.502, 103.752
270.984, 90.398
271.466, 68.903
271.948, 46.111
272.431, 27.864
272.913, 15.899
273.395, 9.483
273.877, 8.347
274.359, 18.575
274.841, 19.802
275.323, 6.726
275.805, 9.886
276.288, 23.837
276.770, 34.396
277.252, 44.027
277.734, 56.655
278.216, 74.416
278.698, 79.918
279.180, 62.767
279.662, 43.816
280.144, 26.861
280.626, 14.077
281.109, 9.119
281.591, 16.963
282.073, 35.341
282.555, 41.327
283.037, 26.155
283.519, 9.101
284.001, 6.236
284.483, 18.395
284.966, 25.680
285.448, 26.530
285.930, 28.713
286.412, 52.618
286.894, 111.838
287.376, 155.277
287.858, 153.490
288.340, 141.880
288.823, 152.366
289.305, 194.613
289.787, 247.532
290.269, 284.757
290.751, 304.751
291.233, 328.617
291.715, 365.311
292.197, 405.165
292.679, 437.339
293.162, 460.227
293.644, 487.558
294.126, 534.706
294.608, 597.686
295.090, 652.350
295.572, 692.021
296.054, 728.062
296.536, 768.429
297.018, 812.294
297.501, 859.621
297.983, 919.110
298.465, 980.182
298.947, 1019.944
299.429, 1033.430
299.911, 1050.762
300.393, 1102.194
300.875, 1176.685
301.358, 1230.578
301.840, 1247.752
302.322, 1252.057
302.804, 1255.613
303.286, 1259.773
303.768, 1273.446
304.250, 1306.207
304.732, 1349.318
305.215, 1372.227
305.697, 1367.574
306.179, 1355.890
306.661, 1344.112
307.143, 1328.914
307.625, 1301.988
308.107, 1259.876
308.589, 1214.329
309.071, 1187.439
309.553, 1194.024
310.036, 1190.327
310.518, 1170.048
311.000, 1142.864
311.482, 1116.246
311.964, 1090.764
312.446, 1063.259
312.928, 1029.290
313.410, 985.619
313.893, 954.381
314.375, 954.081
314.857, 945.578
315.339, 905.254
315.821, 842.768
316.303, 782.088
316.785, 739.174
317.267, 713.332
317.750, 694.390
318.232, 694.193
318.714, 686.093
319.196, 662.204
319.678, 629.332
320.160, 595.376
320.642, 563.606
321.124, 533.313
321.606, 502.557
322.089, 469.379
322.571, 441.375
323.053, 424.167
323.535, 409.311
324.017, 390.924
324.499, 368.419
324.981, 346.706
325.463, 332.548
325.945, 324.700
326.428, 309.445
326.910, 279.796
327.392, 250.846
327.874, 234.761
328.356, 228.322
328.838, 221.004
329.320, 208.546
329.802, 192.263
330.284, 172.421
330.767, 148.202
331.249, 127.846
331.731, 119.344
332.213, 118.215
332.695, 111.668
333.177, 94.469
333.659, 76.781
334.142, 67.161
334.624, 62.821
335.106, 53.986
335.588, 35.595
336.070, 12.917
336.552, 2.096
337.034, 6.834
337.516, 10.260
337.998, 13.332
338.480, 16.393
338.963, 20.284
339.445, 25.091
339.927, 29.690
340.409, 32.798
340.891, 34.511
341.373, 30.765
341.855, 10.288
342.337, 3.869
342.819, 6.485
343.302, 32.674
343.784, 51.210
344.266, 45.590
344.748, 21.252
345.230, 9.392
345.712, 23.427
346.194, 32.124
346.677, 26.506
347.159, 15.405
347.641, 7.577
348.123, 5.895
348.605, 8.667
349.087, 15.541
349.569, 28.811
350.051, 34.781
350.533, 23.858
351.016, 11.427
351.498, 6.571
351.980, 8.812
352.462, 11.886
352.944, 13.441
353.426, 12.570
353.908, 4.648
354.390, 13.507
354.872, 30.608
355.355, 37.555
355.837, 38.432
356.319, 39.899
356.801, 42.446
357.283, 47.023
357.765, 56.454
358.247, 69.686
358.729, 79.770
359.211, 83.243
359.694, 82.747
360.176, 84.376
360.658, 90.864
361.140, 92.166
361.622, 80.670
362.104, 64.736
362.586, 53.441
363.069, 48.785
363.551, 50.692
364.033, 60.487
364.515, 80.669
364.997, 92.214
365.479, 86.679
365.961, 82.128
366.443, 89.689
366.925, 104.836
367.408, 115.391
367.890, 113.402
368.372, 103.696
368.854, 106.564
369.336, 137.680
369.818, 156.260
370.300, 146.530
370.782, 129.723
371.264, 125.974
371.747, 139.456
372.229, 156.094
372.711, 156.424
373.193, 138.943
373.675, 136.110
374.157, 174.209
374.639, 160.002
375.121, 182.705
375.603, 196.377
376.086, 201.453
376.568, 172.610
377.050, 187.435
377.532, 184.742
378.014, 190.674
378.496, 182.474
378.978, 175.538
379.460, 171.244
379.943, 171.991
380.425, 180.124
380.907, 188.606
381.389, 192.442
381.871, 194.564
382.353, 202.486
382.835, 218.890
383.317, 235.127
383.799, 239.661
384.282, 228.079
384.764, 220.761
385.246, 218.677
385.728, 219.892
386.210, 225.775
386.692, 234.298
387.174, 240.539
387.656, 241.190
388.138, 236.728
388.621, 229.524
389.103, 211.961
389.585, 202.483
390.067, 207.746
390.549, 219.202
391.031, 229.860
391.513, 237.602
391.996, 242.827
392.478, 245.700
392.960, 246.078
393.442, 244.242
393.924, 235.016
394.406, 228.621
394.888, 234.720
395.370, 248.880
395.852, 258.089
396.335, 252.126
396.817, 240.553
397.299, 239.818
397.781, 250.612
398.263, 258.340
398.745, 255.787
399.227, 246.745
399.709, 238.904
400.191, 229.533
400.674, 225.265
401.156, 233.601
401.638, 246.567
402.120, 253.979
402.602, 254.450
403.084, 248.551
403.566, 234.091
404.048, 208.738
404.530, 197.311
405.013, 213.067
405.495, 227.625
405.977, 228.383
406.459, 218.541
406.941, 204.691
407.423, 189.527
407.905, 175.319
408.387, 168.282
408.870, 171.629
409.352, 175.222
409.834, 181.327
410.316, 184.110
410.798, 176.708
411.280, 160.476
411.762, 146.524
412.244, 148.116
412.727, 160.776
413.209, 160.680
413.691, 141.187
414.173, 123.706
414.655, 122.398
415.137, 131.283
415.619, 142.754
416.101, 159.469
416.583, 172.030
417.065, 170.928
417.548, 159.562
418.030, 147.623
418.512, 137.206
418.994, 130.448
419.476, 131.596
419.958, 144.326
420.440, 149.427
420.922, 136.931
421.405, 125.073
421.887, 128.891
422.369, 145.270
422.851, 160.991
423.333, 167.494
423.815, 165.585
424.297, 157.856
424.779, 133.784
425.262, 120.911
425.744, 132.229
426.226, 147.976
426.708, 151.550
427.190, 140.895
427.672, 125.844
428.154, 113.945
428.636, 105.195
429.118, 102.568
429.601, 110.358
430.083, 117.668
430.565, 118.221
431.047, 113.296
431.529, 104.816
432.011, 89.406
432.493, 76.599
432.975, 79.666
433.457, 94.070
433.940, 101.994
434.422, 95.865
434.904, 85.268
435.386, 83.875
435.868, 95.222
436.350, 102.079
436.832, 99.202
437.314, 95.050
437.797, 97.377
438.279, 104.242
438.761, 107.403
439.243, 101.167
439.725, 87.901
440.207, 77.403
440.689, 69.333
441.171, 65.081
441.654, 65.441
442.136, 68.410
442.618, 74.729
443.100, 83.493
443.582, 88.988
444.064, 81.249
444.546, 63.964
445.028, 62.254
445.510, 83.165
445.992, 103.660
446.475, 109.465
446.957, 105.641
447.439, 100.301
447.921, 95.830
448.403, 88.698
448.885, 68.927
449.367, 45.190
449.849, 41.683
450.332, 66.736
450.814, 98.058
451.296, 108.025
451.778, 91.173
452.260, 78.819
452.742, 73.577
453.224, 70.291
453.706, 67.253
454.189, 64.047
454.671, 59.424
455.153, 52.599
455.635, 47.209
456.117, 53.067
456.599, 77.101
457.081, 92.037
457.563, 88.701
458.045, 79.935
458.528, 69.100
459.010, 58.318
459.492, 53.203
459.974, 62.679
460.456, 77.815
460.938, 77.865
461.420, 61.514
461.902, 52.550
462.384, 67.300
462.867, 92.778
463.349, 99.617
463.831, 81.033
464.313, 64.530
464.795, 59.321
465.277, 59.174
465.759, 57.575
466.241, 53.731
466.724, 50.461
467.206, 50.373
467.688, 53.148
468.170, 54.311
468.652, 54.596
469.134, 51.957
469.616, 41.119
470.098, 30.039
470.581, 27.781
471.063, 36.081
471.545, 46.913
472.027, 53.182
472.509, 54.942
472.991, 52.435
473.473, 44.559
473.955, 34.851
474.437, 20.874
474.919, 7.055
475.402, 3.227
475.884, 18.468
476.366, 32.878
476.848, 29.991
477.330, 17.355
477.812, 12.033
478.294, 18.682
478.776, 31.131
479.259, 44.140
479.741, 59.489
480.223, 60.196
480.705, 30.506
481.187, 5.412
481.669, 0.820
482.151, 6.376
482.633, 19.710
483.116, 36.162
483.598, 50.299
484.080, 50.341
484.562, 33.284
485.044, 23.729
485.526, 29.222
486.008, 36.973
486.490, 38.349
486.972, 35.128
487.455, 32.975
487.937, 34.492
488.419, 37.262
488.901, 39.278
489.383, 40.523
489.865, 40.531
490.347, 38.730
490.829, 37.014
491.311, 37.947
491.794, 41.562
492.276, 48.286
492.758, 50.012
493.240, 40.345
493.722, 53.728
494.204, 61.542
494.686, 64.082
495.168, 45.530
495.651, 54.229
496.133, 52.017
496.615, 49.364
497.097, 55.909
497.579, 63.547
498.061, 67.946
498.543, 58.460
499.025, 38.105
499.508, 21.075
499.990, 14.064
500.472, 13.483
500.954, 16.189
501.436, 21.841
501.918, 29.720
502.400, 41.342
502.882, 50.724
503.364, 45.813
503.846, 17.203
504.329, 0.653
504.811, 1.118
505.293, 6.735
505.775, 4.110
506.257, 3.010
506.739, 0.475
507.221, 19.351
507.703, 45.697
508.186, 53.740
508.668, 37.626
509.150, 26.398
509.632, 28.824
510.114, 33.747
510.596, 34.475
511.078, 31.203
511.560, 26.301
512.042, 18.780
512.525, 11.457
513.007, 8.258
513.489, 8.510
513.971, 8.079
514.453, 4.819
514.935, 1.616
515.417, 3.829
515.899, 14.775
516.382, 22.570
516.864, 28.001
517.346, 29.692
517.828, 24.069
518.310, 14.257
518.792, 5.782
519.274, 1.248
519.756, 0.953
520.239, 8.011
520.721, 25.042
521.203, 32.822
521.685, 23.052
522.167, 9.179
522.649, 1.589
523.131, 8.406
523.613, 7.734
524.096, 8.738
524.578, 27.007
525.060, 35.207
525.542, 35.429
526.024, 33.621
526.506, 31.716
526.988, 29.637
527.470, 27.641
527.952, 26.953
528.435, 21.276
528.917, 2.530
529.399, 11.874
529.881, 12.677
530.363, 5.471
530.845, 0.297
531.327, 0.811
531.809, 0.182
532.291, 5.078
532.774, 15.065
533.256, 19.957
533.738, 16.284
534.220, 12.301
534.702, 17.821
535.184, 28.363
535.666, 28.694
536.148, 2.839
536.630, 16.673
537.113, 7.110
537.595, 15.741
538.077, 26.700
538.559, 20.464
539.041, 10.634
539.523, 12.274
540.005, 25.501
540.487, 28.722
540.969, 9.508
541.452, 2.538
541.934, 2.630
542.416, 16.114
542.898, 29.919
543.380, 42.258
543.862, 53.139
544.344, 65.913
544.826, 76.591
545.309, 73.620
545.791, 55.935
546.273, 38.302
546.755, 27.892
547.237, 24.097
547.719, 25.495
548.201, 38.609
548.683, 45.324
549.166, 37.652
549.648, 27.535
550.130, 23.779
550.612, 26.432
551.094, 31.334
551.576, 36.283
552.058, 40.294
552.540, 39.785
553.023, 33.361
553.505, 28.943
553.987, 29.959
554.469, 32.291
554.951, 31.820
555.433, 29.187
555.915, 27.539
556.397, 31.115
556.879, 33.178
557.362, 23.948
557.844, 8.806
558.326, 3.600
558.808, 14.320
559.290, 30.439
559.772, 36.758
560.254, 31.241
560.736, 25.894
561.218, 16.421
561.701, 11.905
562.183, 24.435
562.665, 40.134
563.147, 35.963
563.629, 3.230
564.111, 29.875
564.593, 34.728
565.075, 18.732
565.557, 4.202
566.040, 6.788
566.522, 13.317
567.004, 13.487
567.486, 8.942
567.968, 7.366
568.450, 10.521
568.932, 13.725
569.414, 14.747
569.896, 16.761
570.379, 26.190
570.861, 40.224
571.343, 46.709
571.825, 35.147
572.307, 12.893
572.789, 0.289
573.271, 1.259
573.753, 1.565
574.236, 4.708
574.718, 5.462
575.200, 4.667
575.682, 24.082
576.164, 35.953
576.646, 30.474
577.128, 21.919
577.610, 18.996
578.093, 20.190
578.575, 21.932
579.057, 23.042
579.539, 24.562
580.021, 28.296
580.503, 34.679
580.985, 38.198
581.467, 37.926
581.950, 36.069
582.432, 30.829
582.914, 25.729
583.396, 25.848
583.878, 32.639
584.360, 39.113
584.842, 38.726
585.324, 36.193
585.806, 41.344
586.289, 53.602
586.771, 61.230
587.253, 56.796
587.735, 44.267
588.217, 33.682
588.699, 23.061
589.181, 17.983
589.663, 20.034
590.145, 25.515
590.628, 36.552
591.110, 49.051
591.592, 54.285
592.074, 46.811
592.556, 34.712
593.038, 27.576
593.520, 24.717
594.002, 22.660
594.484, 20.624
594.967, 18.588
595.449, 15.412
595.931, 11.301
596.413, 9.827
596.895, 9.666
597.377, 13.445
597.859, 27.514
598.341, 41.873
598.823, 46.596
599.306, 41.525
599.788, 34.006
600.270, 28.314
600.752, 23.696
601.234, 18.980
601.716, 14.363
602.198, 6.643
602.680, 8.516
603.162, 22.369
603.645, 22.715
604.127, 9.923
604.609, 1.149
605.091, 11.301
605.573, 17.014
606.055, 12.232
606.537, 3.439
607.019, 0.713
607.502, 6.612
607.984, 15.627
608.466, 22.843
608.948, 28.020
609.430, 28.182
609.912, 21.914
610.394, 14.240
610.876, 3.979
611.359, 4.515
611.841, 5.411
612.323, 2.166
612.805, 11.716
613.287, 25.242
613.769, 36.073
614.251, 36.895
614.733, 30.537
615.216, 24.113
615.698, 20.603
616.180, 19.776
616.662, 22.634
617.144, 31.084
617.626, 33.244
618.108, 23.238
618.590, 15.631
619.072, 20.586
619.555, 30.276
620.037, 33.320
620.519, 26.830
621.001, 22.603
621.483, 27.178
621.965, 32.995
622.447, 31.422
622.929, 24.753
623.411, 20.519
623.894, 21.772
624.376, 26.757
624.858, 31.490
625.340, 35.349
625.822, 23.448
626.304, 36.416
626.786, 43.367
627.268, 45.003
627.750, 25.038
628.233, 34.877
628.715, 31.979
629.197, 27.809
629.679, 39.843
630.161, 21.543
630.643, 33.252
631.125, 32.930
631.607, 38.107
632.089, 31.337
632.572, 27.974
633.054, 36.411
633.536, 31.165
634.018, 28.949
634.500, 36.138
634.982, 41.124
635.464, 35.589
635.946, 23.752
636.429, 15.429
636.911, 14.447
637.393, 14.778
637.875, 11.407
638.357, 7.174
638.839, 7.536
639.321, 12.636
639.803, 17.600
640.286, 18.988
640.768, 17.735
641.250, 16.976
641.732, 17.387
642.214, 16.665
642.696, 12.485
643.178, 9.240
643.660, 10.653
644.143, 15.340
644.625, 18.267
645.107, 17.241
645.589, 15.545
646.071, 14.226
646.553, 14.213
647.035, 18.878
647.517, 27.666
647.999, 32.882
648.482, 28.026
648.964, 17.090
649.446, 14.812
649.928, 25.840
650.410, 33.161
650.892, 32.781
651.374, 30.285
651.856, 26.307
652.338, 22.843
652.821, 26.006
653.303, 44.241
653.785, 57.454
654.267, 47.475
654.749, 27.484
655.231, 17.632
655.713, 19.525
656.195, 21.472
656.677, 14.361
657.160, 3.490
657.642, 7.802
658.124, 34.645
658.606, 50.357
659.088, 42.649
659.570, 32.444
660.052, 33.481
660.534, 41.967
661.016, 49.441
661.499, 58.113
661.981, 62.117
662.463, 54.252
662.945, 41.492
663.427, 32.094
663.909, 26.917
664.391, 23.239
664.873, 19.285
665.356, 15.874
665.838, 14.290
666.320, 14.486
666.802, 17.276
667.284, 24.807
667.766, 31.692
668.248, 35.164
668.730, 35.119
669.213, 29.831
669.695, 12.327
670.177, 3.897
670.659, 20.053
671.141, 41.152
671.623, 49.160
672.105, 44.911
672.587, 37.573
673.070, 32.088
673.552, 26.649
674.034, 13.750
674.516, 6.053
674.998, 3.965
675.480, 31.117
675.962, 61.966
676.444, 64.383
676.926, 45.860
677.409, 27.220
677.891, 0.183
678.373, 9.616
678.855, 22.456
679.337, 53.153
679.819, 46.374
680.301, 17.217
680.783, 1.842
681.265, 15.259
681.748, 37.925
682.230, 50.008
682.712, 52.522
683.194, 48.103
683.676, 36.719
684.158, 21.280
684.640, 0.729
685.122, 18.776
685.604, 24.160
686.087, 9.440
686.569, 3.825
687.051, 18.502
687.533, 28.686
688.015, 30.641
688.497, 27.266
688.979, 21.015
689.461, 12.555
689.943, 7.579
690.426, 13.770
690.908, 24.189
691.390, 27.007
691.872, 23.288
692.354, 21.285
692.836, 24.382
693.318, 29.107
693.800, 30.759
694.283, 29.151
694.765, 26.161
695.247, 17.763
695.729, 14.272
696.211, 25.157
696.693, 37.631
697.175, 38.071
697.657, 26.159
698.140, 15.840
698.622, 14.664
699.104, 14.602
699.586, 5.239
700.068, 6.130
700.550, 2.686
701.032, 17.775
701.514, 38.337
701.997, 43.299
702.479, 35.661
702.961, 26.350
703.443, 13.604
703.925, 10.034
704.407, 24.415
704.889, 40.091
705.371, 39.184
705.853, 24.600
706.336, 18.082
706.818, 28.272
707.300, 36.436
707.782, 36.293
708.264, 33.222
708.746, 31.228
709.228, 31.005
709.710, 32.361
710.192, 35.374
710.675, 39.308
711.157, 45.018
711.639, 51.082
712.121, 49.109
712.603, 37.419
713.085, 27.157
713.567, 26.002
714.049, 31.295
714.531, 34.784
715.014, 36.391
715.496, 36.179
715.978, 30.322
716.460, 26.651
716.942, 30.763
717.424, 38.466
717.906, 43.231
718.388, 43.382
718.870, 41.916
719.353, 38.942
719.835, 36.412
720.317, 24.755
720.799, 36.794
721.281, 43.079
721.763, 43.918
722.245, 23.001
722.727, 30.148
723.210, 26.024
723.692, 21.430
724.174, 32.501
724.656, 14.712
725.138, 25.573
725.620, 25.009
726.102, 21.795
726.584, 19.929
727.067, 19.074
727.549, 21.506
728.031, 22.441
728.513, 17.747
728.995, 12.791
729.477, 14.407
729.959, 22.241
730.441, 30.573
730.924, 36.215
731.406, 39.574
731.888, 39.628
732.370, 36.870
732.852, 39.571
733.334, 49.900
733.816, 54.829
734.298, 43.876
734.780, 23.009
735.263, 13.321
735.745, 21.491
736.227, 24.270
736.709, 17.895
737.191, 11.559
737.673, 8.868
738.155, 9.403
738.637, 12.684
739.119, 20.191
739.602, 26.562
740.084, 27.245
740.566, 27.803
741.048, 36.638
741.530, 48.824
742.012, 50.790
742.494, 38.174
742.976, 22.434
743.458, 19.078
743.941, 26.821
744.423, 34.443
744.905, 41.640
745.387, 43.447
745.869, 36.644
746.351, 27.557
746.833, 22.036
747.315, 20.007
747.797, 25.925
748.280, 58.923
748.762, 74.226
749.244, 49.584
749.726, 18.803
750.208, 6.829
750.690, 11.720
751.172, 19.841
751.654, 29.613
752.137, 35.782
752.619, 29.018
753.101, 18.603
753.583, 21.255
754.065, 35.410
754.547, 45.618
755.029, 43.433
755.511, 34.486
755.994, 27.015
756.476, 21.014
756.958, 21.706
757.440, 31.679
757.922, 37.863
758.404, 31.171
758.886, 15.882
759.368, 31.939
759.851, 40.395
760.333, 41.658
760.815, 14.187
761.297, 23.767
761.779, 18.453
762.261, 12.599
762.743, 27.451
763.225, 4.156
763.707, 18.674
764.190, 15.303
764.672, 12.909
765.154, 13.338
765.636, 16.221
766.118, 21.745
766.600, 29.402
767.082, 36.417
767.564, 41.069
768.046, 43.038
768.529, 41.271
769.011, 35.606
769.493, 27.439
769.975, 15.372
770.457, 4.733
770.939, 2.758
771.421, 6.166
771.903, 2.827
772.385, 9.354
772.868, 20.675
773.350, 36.415
773.832, 44.689
774.314, 33.720
774.796, 16.828
775.278, 10.346
775.760, 15.956
776.242, 22.000
776.724, 20.640
777.207, 17.652
777.689, 19.690
778.171, 24.331
778.653, 25.800
779.135, 23.582
779.617, 22.747
780.099, 27.588
780.581, 34.349
781.064, 31.268
781.546, 17.316
782.028, 13.826
782.510, 25.524
782.992, 39.843
783.474, 52.695
783.956, 60.930
784.438, 56.184
784.920, 29.513
785.403, 15.569
785.885, 22.606
786.367, 31.410
786.849, 38.686
787.331, 42.887
787.813, 40.732
788.295, 32.866
788.778, 29.258
789.260, 38.535
789.742, 49.959
790.224, 56.958
790.706, 59.551
791.188, 56.667
791.670, 49.090
792.152, 40.402
792.634, 32.820
793.117, 26.302
793.599, 20.167
794.081, 14.881
794.563, 17.776
795.045, 30.807
795.527, 40.973
796.009, 41.583
796.491, 35.010
796.973, 24.272
797.456, 6.325
797.938, 1.102
798.420, 13.035
798.902, 22.464
799.384, 12.903
799.866, 1.099
800.348, 5.289
800.830, 24.194
801.312, 37.686
801.795, 37.429
802.277, 34.284
802.759, 32.957
803.241, 31.267
803.723, 24.938
804.205, 15.938
804.687, 11.396
805.169, 15.273
805.652, 21.881
806.134, 25.616
806.616, 26.834
807.098, 27.512
807.580, 27.130
808.062, 18.811
808.544, 0.877
809.026, 20.151
809.508, 22.198
809.991, 7.985
810.473, 0.311
810.955, 0.920
811.437, 1.558
811.919, 3.789
812.401, 7.017
812.883, 10.696
813.365, 14.907
813.847, 20.069
814.330, 29.049
814.812, 34.711
815.294, 34.050
815.776, 32.241
816.258, 32.859
816.740, 34.314
817.222, 33.090
817.705, 28.138
818.187, 23.586
818.669, 19.510
819.151, 18.874
819.633, 29.463
820.115, 44.161
820.597, 47.776
821.079, 38.046
821.561, 26.110
822.044, 20.409
822.526, 18.510
823.008, 14.089
823.490, 8.265
823.972, 9.641
824.454, 19.750
824.936, 31.532
825.418, 41.453
825.901, 48.208
826.383, 48.416
826.865, 40.375
827.347, 32.989
827.829, 25.049
828.311, 20.404
828.793, 22.011
829.275, 26.037
829.757, 28.006
830.240, 32.087
830.722, 30.692
831.204, 40.744
831.686, 48.553
832.168, 52.703
832.650, 52.053
833.132, 43.101
833.614, 29.638
834.096, 19.766
834.579, 16.221
835.061, 17.030
835.543, 24.329
836.025, 32.659
836.507, 36.693
836.989, 36.451
837.471, 31.556
837.953, 22.597
838.435, 15.088
838.918, 14.566
839.400, 18.747
839.882, 24.580
840.364, 30.985
840.846, 27.763
841.328, 12.706
841.810, 0.373
842.292, 1.824
842.774, 5.372
843.257, 6.333
843.739, 0.551
844.221, 2.301
844.703, 12.649
845.185, 24.012
845.667, 20.814
846.149, 12.599
846.631, 12.051
847.114, 19.880
847.596, 26.580
848.078, 37.431
848.560, 39.941
849.042, 22.427
849.524, 3.963
850.006, 1.373
850.488, 4.191
850.971, 13.608
851.453, 27.764
851.935, 36.079
852.417, 25.757
852.899, 14.464
853.381, 19.469
853.863, 34.075
854.345, 45.634
854.828, 50.581
855.310, 51.487
855.792, 50.048
856.274, 46.013
856.756, 35.881
857.238, 23.072
857.720, 16.877
858.202, 18.630
858.684, 27.096
859.167, 42.478
859.649, 57.530
860.131, 56.805
860.613, 41.172
861.095, 32.408
861.577, 31.586
862.059, 32.696
862.541, 33.941
863.023, 35.607
863.506, 39.295
863.988, 43.640
864.470, 41.864
864.952, 26.870
865.434, 22.808
865.916, 43.707
866.398, 62.261
866.880, 56.482
867.362, 38.666
867.845, 31.554
868.327, 38.520
868.809, 42.167
869.291, 36.080
869.773, 31.553
870.255, 34.997
870.737, 40.900
871.219, 44.681
871.701, 45.272
872.184, 41.228
872.666, 28.447
873.148, 17.463
873.630, 15.793
874.112, 18.203
874.594, 19.802
875.076, 20.530
875.558, 22.168
876.041, 25.225
876.523, 27.165
877.005, 24.543
877.487, 20.070
877.969, 17.178
878.451, 16.235
878.933, 20.804
879.415, 29.195
879.898, 34.077
880.380, 29.827
880.862, 20.467
881.344, 13.161
881.826, 7.853
882.308, 3.989
882.790, 1.575
883.272, 0.164
883.755, 1.945
884.237, 0.982
884.719, 7.156
885.201, 21.401
885.683, 29.134
886.165, 29.401
886.647, 25.945
887.129, 17.885
887.611, 8.561
888.094, 1.818
888.576, 11.147
889.058, 14.444
889.540, 11.034
890.022, 3.657
890.504, 13.854
890.986, 27.303
891.468, 31.756
891.950, 31.470
892.433, 27.916
892.915, 22.745
893.397, 22.875
893.879, 35.526
894.361, 43.171
894.843, 34.986
895.325, 25.679
895.807, 23.977
896.289, 28.968
896.772, 40.151
897.254, 56.662
897.736, 69.300
898.218, 76.835
898.700, 74.492
899.182, 47.673
899.664, 15.054
900.146, 4.307
900.628, 13.118
901.111, 20.996
901.593, 18.246
902.075, 15.689
902.557, 30.581
903.039, 27.673
903.521, 51.777
904.003, 39.025
904.485, 37.397
904.968, 51.863
905.450, 64.826
905.932, 62.055
906.414, 49.083
906.896, 34.570
907.378, 19.634
907.860, 13.865
908.342, 18.111
908.825, 21.740
909.307, 19.949
909.789, 17.101
910.271, 18.887
910.753, 24.853
911.235, 32.690
911.717, 43.939
912.199, 45.030
912.682, 29.549
913.164, 16.322
913.646, 19.829
914.128, 32.249
914.610, 34.372
915.092, 22.712
915.574, 18.550
916.056, 27.596
916.538, 32.589
917.021, 25.486
917.503, 16.280
917.985, 14.286
918.467, 18.186
918.949, 20.541
919.431, 23.965
919.913, 21.496
920.395, 3.614
920.877, 9.252
921.360, 4.565
921.842, 7.209
922.324, 13.516
922.806, 13.718
923.288, 13.627
923.770, 15.356
924.252, 15.540
924.734, 11.596
925.216, 7.316
925.699, 5.020
926.181, 4.634
926.663, 4.903
927.145, 5.401
927.627, 10.106
928.109, 27.340
928.591, 41.874
929.073, 42.955
929.555, 36.993
930.038, 28.071
930.520, 19.723
931.002, 20.231
931.484, 34.794
931.966, 47.894
932.448, 46.153
932.930, 38.431
933.412, 32.518
933.895, 28.731
934.377, 28.778
934.859, 31.311
935.341, 27.373
935.823, 7.865
936.305, 10.234
936.787, 0.714
937.269, 22.051
937.752, 30.434
938.234, 26.404
938.716, 24.499
939.198, 29.407
939.680, 35.778
940.162, 38.495
940.644, 39.764
941.126, 46.953
941.609, 56.489
942.091, 51.922
942.573, 33.613
943.055, 20.613
943.537, 22.856
944.019, 31.464
944.501, 37.999
944.983, 41.998
945.465, 34.680
945.948, 17.425
946.430, 18.772
946.912, 45.064
947.394, 59.790
947.876, 37.578
948.358, 1.826
948.840, 0.509
949.322, 29.744
949.804, 41.736
950.287, 33.429
950.769, 26.995
951.251, 28.468
951.733, 31.430
952.215, 30.922
952.697, 27.881
953.179, 24.325
953.661, 19.472
954.143, 19.954
954.626, 28.884
955.108, 31.371
955.590, 19.356
956.072, 6.052
956.554, 5.305
957.036, 14.616
957.518, 20.789
958.000, 23.389
958.482, 24.078
958.965, 22.679
959.447, 19.669
959.929, 13.818
960.411, 8.163
960.893, 6.789
961.375, 9.497
961.857, 11.642
962.339, 13.832
962.822, 14.024
963.304, 7.484
963.786, 5.397
964.268, 18.305
964.750, 35.577
965.232, 39.943
965.714, 29.954
966.196, 25.066
966.679, 28.576
967.161, 32.408
967.643, 41.508
968.125, 44.722
968.607, 30.105
969.089, 7.511
969.571, 6.856
970.053, 13.148
970.536, 6.940
971.018, 27.776
971.500, 53.492
971.982, 60.776
972.464, 57.389
972.946, 41.695
973.428, 21.208
973.910, 11.922
974.392, 17.172
974.875, 27.505
975.357, 51.659
975.839, 66.049
976.321, 54.523
976.803, 36.856
977.285, 28.715
977.767, 28.758
978.249, 30.099
978.731, 31.819
979.214, 35.129
979.696, 40.314
980.178, 42.834
980.660, 36.826
981.142, 30.908
981.624, 36.484
982.106, 50.056
982.588, 57.047
983.070, 53.209
983.553, 45.688
984.035, 31.487
984.517, 20.069
984.999, 15.028
985.481, 16.538
985.963, 28.917
986.445, 48.357
986.927, 59.739
987.409, 57.774
987.892, 49.854
988.374, 29.780
988.856, 14.317
989.338, 17.957
989.820, 29.985
990.302, 37.931
990.784, 40.286
991.266, 39.996
991.749, 38.310
992.231, 33.417
992.713, 17.640
993.195, 5.625
993.677, 11.973
994.159, 25.190
994.641, 31.784
995.123, 29.754
995.606, 25.242
996.088, 18.276
996.570, 13.572
997.052, 14.202
997.534, 16.970
998.016, 20.591
998.498, 24.181
998.980, 28.856
999.463, 33.369
999.945, 29.310
1000.427, 5.282
1000.909, 13.068
1001.391, 9.172
1001.873, 0.967
1002.355, 4.804
1002.837, 6.408
1003.319, 14.886
1003.802, 30.357
1004.284, 42.194
1004.766, 45.598
1005.248, 45.350
1005.730, 40.502
1006.212, 35.992
1006.694, 36.805
1007.176, 40.153
1007.658, 41.455
1008.141, 40.031
1008.623, 37.357
1009.105, 30.969
1009.587, 28.463
1010.069, 38.583
1010.551, 48.752
1011.033, 48.111
1011.515, 41.377
1011.997, 36.233
1012.480, 33.913
1012.962, 32.067
1013.444, 28.597
1013.926, 28.077
1014.408, 36.698
1014.890, 45.976
1015.372, 49.611
1015.854, 49.451
1016.337, 48.910
1016.819, 48.387
1017.301, 46.051
1017.783, 38.922
1018.265, 33.649
1018.747, 30.980
1019.229, 32.907
1019.711, 47.936
1020.193, 64.519
1020.676, 63.305
1021.158, 44.823
1021.640, 32.534
1022.122, 39.886
1022.604, 47.684
1023.086, 50.287
1023.568, 51.028
1024.050, 52.054
1024.533, 52.489
1025.015, 50.169
1025.497, 45.442
1025.979, 42.736
1026.461, 46.127
1026.943, 46.483
1027.425, 37.818
1027.907, 28.922
1028.390, 25.735
1028.872, 25.682
1029.354, 25.817
1029.836, 25.530
1030.318, 22.626
1030.800, 15.082
1031.282, 7.877
1031.764, 3.700
1032.246, 8.302
1032.729, 6.475
1033.211, 25.876
1033.693, 33.768
1034.175, 30.889
1034.657, 26.939
1035.139, 24.742
1035.621, 17.749
1036.103, 6.653
1036.585, 20.866
1037.068, 5.159
1037.550, 17.815
1038.032, 26.291
1038.514, 22.363
1038.996, 17.249
1039.478, 5.761
1039.960, 4.641
1040.442, 19.069
1040.925, 36.688
1041.407, 63.370
1041.889, 81.868
1042.371, 70.271
1042.853, 39.607
1043.335, 30.431
1043.817, 54.914
1044.299, 60.702
1044.781, 34.050
1045.264, 16.798
1045.746, 23.067
1046.228, 36.381
1046.710, 46.342
1047.192, 52.625
1047.674, 55.189
1048.156, 53.746
1048.638, 53.752
1049.120, 55.766
1049.603, 57.765
1050.085, 60.156
1050.567, 59.953
1051.049, 54.497
1051.531, 46.120
1052.013, 38.201
1052.495, 30.620
1052.977, 35.163
1053.460, 54.405
1053.942, 68.102
1054.424, 72.292
1054.906, 72.693
1055.388, 72.238
1055.870, 71.007
1056.352, 69.653
1056.834, 67.558
1057.317, 57.758
1057.799, 40.594
1058.281, 37.306
1058.763, 49.980
1059.245, 54.086
1059.727, 37.528
1060.209, 15.729
1060.691, 6.901
1061.173, 7.891
1061.656, 11.894
1062.138, 18.233
1062.620, 20.754
1063.102, 19.783
1063.584, 22.705
1064.066, 31.915
1064.548, 41.083
1065.030, 45.149
1065.512, 44.407
1065.995, 35.128
1066.477, 23.104
1066.959, 25.085
1067.441, 37.293
1067.923, 43.616
1068.405, 40.236
1068.887, 34.286
1069.369, 30.700
1069.852, 25.563
1070.334, 7.780
1070.816, 9.216
1071.298, 2.357
1071.780, 18.125
1072.262, 32.459
1072.744, 37.166
1073.226, 36.074
1073.708, 29.862
1074.191, 25.151
1074.673, 29.784
1075.155, 34.896
1075.637, 31.566
1076.119, 25.110
1076.601, 24.566
1077.083, 27.075
1077.565, 18.639
1078.047, 6.835
1078.530, 17.547
1079.012, 19.366
1079.494, 49.474
1079.976, 35.683
1080.458, 14.495
1080.940, 19.768
1081.422, 39.133
1081.904, 45.538
1082.386, 35.201
1082.869, 24.106
1083.351, 6.292
1083.833, 1.201
1084.315, 26.382
1084.797, 49.554
1085.279, 50.376
1085.761, 41.894
1086.243, 42.139
1086.726, 49.932
1087.208, 50.410
1087.690, 35.597
1088.172, 30.943
1088.654, 44.436
1089.136, 53.435
1089.618, 48.136
1090.100, 38.279
1090.583, 32.200
1091.065, 29.782
1091.547, 33.716
1092.029, 45.522
1092.511, 54.008
1092.993, 59.729
1093.475, 56.710
1093.957, 40.785
1094.439, 29.899
1094.922, 39.874
1095.404, 25.654
1095.886, 46.470
1096.368, 19.627
1096.850, 10.778
1097.332, 18.747
1097.814, 26.769
1098.296, 32.339
1098.778, 32.895
1099.261, 27.272
1099.743, 23.127
1100.225, 30.858
1100.707, 41.363
1101.189, 31.957
1101.671, 14.482
1102.153, 22.922
1102.635, 47.740
1103.118, 48.150
1103.600, 17.383
1104.082, 8.733
1104.564, 7.218
1105.046, 4.237
1105.528, 13.153
1106.010, 20.166
1106.492, 27.530
1106.974, 32.570
1107.457, 28.003
1107.939, 16.893
1108.421, 13.031
1108.903, 22.437
1109.385, 29.678
1109.867, 23.386
1110.349, 19.187
1110.831, 31.918
1111.313, 43.246
1111.796, 32.052
1112.278, 9.781
1112.760, 1.462
1113.242, 10.443
1113.724, 18.049
1114.206, 23.493
1114.688, 25.975
1115.170, 23.768
1115.653, 21.059
1116.135, 20.708
1116.617, 19.290
1117.099, 11.446
1117.581, 0.640
1118.063, 5.910
1118.545, 5.155
1119.027, 8.122
1119.510, 39.681
1119.992, 56.120
1120.474, 45.943
1120.956, 31.857
1121.438, 30.560
1121.920, 19.758
1122.402, 26.574
1122.884, 10.579
1123.366, 6.238
1123.849, 12.066
1124.331, 19.414
1124.813, 25.474
1125.295, 27.288
1125.777, 24.217
1126.259, 24.522
1126.741, 38.705
1127.223, 56.632
1127.705, 62.737
1128.188, 62.706
1128.670, 66.843
1129.152, 72.831
1129.634, 68.092
1130.116, 52.879
1130.598, 43.951
1131.080, 50.951
1131.562, 60.008
1132.045, 68.415
1132.527, 69.337
1133.009, 48.861
1133.491, 25.899
1133.973, 22.398
1134.455, 33.128
1134.937, 42.410
1135.419, 48.845
1135.901, 45.032
1136.384, 16.575
1136.866, 0.783
1137.348, 0.508
1137.830, 9.724
1138.312, 28.972
1138.794, 46.640
1139.276, 47.573
1139.758, 34.390
1140.240, 22.652
1140.723, 12.126
1141.205, 3.962
1141.687, 2.244
1142.169, 2.606
1142.651, 4.687
1143.133, 12.197
1143.615, 14.778
1144.097, 13.812
1144.580, 10.003
1145.062, 5.104
1145.544, 8.172
1146.026, 16.423
1146.508, 17.284
1146.990, 11.215
1147.472, 8.404
1147.954, 12.556
1148.437, 20.030
1148.919, 30.084
1149.401, 37.605
1149.883, 34.926
1150.365, 28.829
1150.847, 27.276
1151.329, 27.796
1151.811, 24.287
1152.293, 17.892
1152.776, 17.703
1153.258, 29.445
1153.740, 32.307
1154.222, 6.374
1154.704, 12.214
1155.186, 5.975
1155.668, 8.157
1156.150, 24.316
1156.632, 37.002
1157.115, 35.828
1157.597, 21.642
1158.079, 14.819
1158.561, 18.127
1159.043, 19.842
1159.525, 17.188
1160.007, 22.927
1160.489, 44.625
1160.972, 59.491
1161.454, 46.898
1161.936, 53.937
1162.418, 47.118
1162.900, 37.077
1163.382, 33.468
1163.864, 27.212
1164.346, 24.715
1164.828, 17.382
1165.311, 21.888
1165.793, 16.491
1166.275, 13.778
1166.757, 26.871
1167.239, 41.231
1167.721, 40.240
1168.203, 33.347
1168.685, 31.552
1169.167, 31.391
1169.650, 23.417
1170.132, 10.429
1170.614, 7.976
1171.096, 23.227
1171.578, 33.368
1172.060, 26.359
1172.542, 21.250
1173.024, 27.756
1173.507, 33.430
1173.989, 30.794
1174.471, 22.832
1174.953, 10.796
1175.435, 3.496
1175.917, 4.106
1176.399, 13.584
1176.881, 23.469
1177.364, 23.604
1177.846, 20.798
1178.328, 16.346
1178.810, 17.173
1179.292, 28.785
1179.774, 40.093
1180.256, 32.946
1180.738, 14.499
1181.220, 1.933
1181.703, 13.418
1182.185, 7.768
1182.667, 9.189
1183.149, 16.944
1183.631, 11.303
1184.113, 4.501
1184.595, 2.095
1185.077, 3.452
1185.559, 11.244
1186.042, 19.050
1186.524, 23.257
1187.006, 24.708
1187.488, 22.669
1187.970, 19.247
1188.452, 20.049
1188.934, 16.750
1189.416, 25.847
1189.899, 12.273
1190.381, 4.429
1190.863, 1.475
1191.345, 11.966
1191.827, 45.134
1192.309, 72.462
1192.791, 66.628
1193.273, 84.795
1193.755, 85.477
1194.238, 79.441
1194.720, 76.211
1195.202, 48.512
1195.684, 22.371
1196.166, 3.452
1196.648, 2.317
1197.130, 21.132
1197.612, 40.736
1198.094, 47.017
1198.577, 48.893
1199.059, 54.960
1199.541, 59.496
1200.023, 55.529
1200.505, 48.391
1200.987, 45.083
1201.469, 44.545
1201.951, 41.363
1202.434, 34.186
1202.916, 28.920
1203.398, 23.734
1203.880, 25.650
1204.362, 44.243
1204.844, 51.481
1205.326, 30.004
1205.808, 7.508
1206.291, 10.672
1206.773, 29.676
1207.255, 41.146
1207.737, 45.757
1208.219, 51.123
1208.701, 56.856
1209.183, 61.333
1209.665, 63.635
1210.147, 59.631
1210.630, 48.411
1211.112, 39.463
1211.594, 33.117
1212.076, 40.663
1212.558, 44.182
1213.040, 44.894
1213.522, 33.109
1214.004, 37.788
1214.486, 35.999
1214.969, 33.807
1215.451, 40.673
1215.933, 30.873
1216.415, 37.858
1216.897, 38.144
1217.379, 41.498
1217.861, 38.221
1218.343, 36.998
1218.826, 36.798
1219.308, 31.901
1219.790, 40.348
1220.272, 24.295
1220.754, 15.074
1221.236, 12.981
1221.718, 24.141
1222.200, 43.743
1222.682, 51.490
1223.165, 47.144
1223.647, 38.571
1224.129, 29.434
1224.611, 25.643
1225.093, 33.525
1225.575, 41.289
1226.057, 37.228
1226.539, 34.149
1227.021, 45.694
1227.504, 57.203
1227.986, 55.580
1228.468, 45.595
1228.950, 36.137
1229.432, 27.963
1229.914, 28.722
1230.396, 24.492
1230.878, 22.654
1231.361, 31.724
1231.843, 27.557
1232.325, 46.289
1232.807, 65.348
1233.289, 70.790
1233.771, 66.103
1234.253, 51.449
1234.735, 35.652
1235.218, 41.064
1235.700, 58.187
1236.182, 72.162
1236.664, 79.817
1237.146, 74.576
1237.628, 59.141
1238.110, 48.292
1238.592, 47.712
1239.074, 48.794
1239.557, 48.513
1240.039, 49.003
1240.521, 55.291
1241.003, 56.873
1241.485, 43.308
1241.967, 28.534
1242.449, 26.840
1242.931, 35.527
1243.413, 48.540
1243.896, 66.041
1244.378, 68.375
1244.860, 56.516
1245.342, 42.875
1245.824, 30.738
1246.306, 31.667
1246.788, 48.520
1247.270, 63.192
1247.753, 62.382
1248.235, 54.809
1248.717, 44.518
1249.199, 35.728
1249.681, 35.928
1250.163, 36.341
1250.645, 24.605
1251.127, 6.642
1251.609, 4.452
1252.092, 7.356
1252.574, 7.439
1253.056, 6.973
1253.538, 3.298
1254.020, 28.206
1254.502, 44.552
1254.984, 46.006
1255.466, 43.536
1255.948, 43.431
1256.431, 42.820
1256.913, 37.666
1257.395, 30.773
1257.877, 26.699
1258.359, 25.202
1258.841, 26.304
1259.323, 29.417
1259.805, 33.341
1260.288, 38.280
1260.770, 47.087
1261.252, 61.115
1261.734, 67.958
1262.216, 58.224
1262.698, 42.245
1263.180, 25.267
1263.662, 20.818
1264.145, 26.516
1264.627, 33.530
1265.109, 36.621
1265.591, 35.021
1266.073, 24.517
1266.555, 10.465
1267.037, 20.327
1267.519, 45.383
1268.001, 52.147
1268.484, 43.140
1268.966, 29.372
1269.448, 16.380
1269.930, 15.023
1270.412, 33.778
1270.894, 44.367
1271.376, 18.949
1271.858, 0.204
1272.340, 16.720
1272.823, 0.000
##END=



