##NAMES=Dadsonite
##RRUFFID=R060246
##IDEAL CHEMISTRY=Pb^2+^_23_Sb^3+^_25_S^2-^_60_Cl
##LOCALITY=St. Pons, Barconlette, Haute Alpes, France
##OWNER=RRUFF
##SOURCE=William W. Pinch
##DESCRIPTION=Black fibers, resembling steel wool, known as the 4-angstrom structure
##STATUS=The identification of this mineral has been made only by X-ray diffraction.
##URL=rruff.info/R060246
167.6309, 0.0000000E+00
168.1130, 3.247482
168.5951, 6.695389
169.0772, 6.850632
169.5593, 6.112106
170.0414, 6.562119
170.5236, 9.343048
171.0057, 12.06572
171.4878, 10.06083
171.9699, 4.902534
172.4520, 1.177170
172.9341, 2.302055
173.4163, 5.956161
173.8984, 15.20790
174.3805, 17.53416
174.8626, 19.68708
175.3447, 23.45187
175.8268, 28.18369
176.3090, 30.81995
176.7911, 27.46513
177.2732, 20.97480
177.7553, 16.18661
178.2374, 15.56249
178.7195, 15.73159
179.2017, 9.953735
179.6838, 0.9062580
180.1659, 7.862762
180.6480, 0.6879120
181.1301, 18.41680
181.6122, 30.56908
182.0944, 31.35388
182.5765, 25.51143
183.0586, 20.09007
183.5407, 15.17560
184.0228, 10.92496
184.5049, 7.092056
184.9871, 3.952072
185.4692, 2.797829
185.9513, 5.191734
186.4334, 9.368782
186.9155, 10.76534
187.3976, 9.156357
187.8798, 7.324074
188.3619, 8.804367
188.8440, 13.01106
189.3261, 16.04375
189.8082, 16.09193
190.2903, 13.98685
190.7725, 12.77851
191.2546, 12.57416
191.7367, 12.61493
192.2188, 11.46967
192.7009, 9.255096
193.1830, 8.494286
193.6652, 10.75369
194.1473, 15.49195
194.6294, 19.60303
195.1115, 23.36267
195.5936, 25.63046
196.0757, 23.83920
196.5579, 17.81700
197.0400, 12.79997
197.5221, 11.24405
198.0042, 12.90664
198.4863, 14.01776
198.9684, 14.32227
199.4506, 14.63828
199.9327, 17.14174
200.4148, 22.37086
200.8969, 25.09982
201.3790, 21.81082
201.8611, 12.20138
202.3433, 5.741089
202.8254, 2.448425
203.3075, 2.221298
203.7896, 6.535179
204.2717, 16.87079
204.7538, 24.36728
205.2360, 23.34355
205.7181, 12.26904
206.2002, 7.200150
206.6823, 9.510201
207.1644, 16.13480
207.6465, 22.50678
208.1287, 29.52531
208.6108, 33.02351
209.0929, 29.47883
209.5750, 16.63464
210.0571, 9.152046
210.5392, 8.214249
211.0214, 11.52322
211.5035, 14.93677
211.9856, 19.05194
212.4677, 21.57874
212.9498, 21.03022
213.4319, 16.51251
213.9140, 12.47249
214.3962, 8.156075
214.8783, 4.839752
215.3604, 6.380341
215.8425, 15.34811
216.3246, 23.40342
216.8067, 26.49931
217.2889, 23.15244
217.7710, 19.60399
218.2531, 15.00842
218.7352, 10.73843
219.2173, 10.68030
219.6994, 17.42560
220.1816, 23.43136
220.6637, 24.88596
221.1458, 19.53178
221.6279, 16.14349
222.1100, 15.16871
222.5921, 16.07748
223.0743, 17.65162
223.5564, 20.34070
224.0385, 22.89638
224.5206, 24.76078
225.0027, 26.00905
225.4848, 26.36267
225.9670, 25.52804
226.4491, 23.94996
226.9312, 22.84323
227.4133, 22.66035
227.8954, 22.22112
228.3775, 20.77802
228.8597, 17.27878
229.3418, 15.44949
229.8239, 15.87450
230.3060, 17.71059
230.7881, 18.70094
231.2702, 18.03769
231.7524, 17.84473
232.2345, 19.42851
232.7166, 24.56676
233.1987, 27.32325
233.6808, 26.82851
234.1629, 24.08749
234.6451, 21.86600
235.1272, 20.12204
235.6093, 19.01788
236.0914, 18.82380
236.5735, 20.48927
237.0556, 20.80394
237.5378, 18.85558
238.0199, 15.36872
238.5020, 14.07135
238.9841, 15.55447
239.4662, 17.01952
239.9483, 17.32455
240.4305, 16.29532
240.9126, 14.40395
241.3947, 10.90214
241.8768, 6.766457
242.3589, 4.378159
242.8410, 3.982529
243.3232, 4.945145
243.8053, 7.487480
244.2874, 13.58685
244.7695, 16.13281
245.2516, 12.73955
245.7337, 6.740929
246.2159, 6.009537
246.6980, 13.92857
247.1801, 21.81091
247.6622, 26.35602
248.1443, 26.69606
248.6264, 26.07642
249.1086, 24.21196
249.5907, 21.53120
250.0728, 18.69427
250.5549, 14.84773
251.0370, 12.29862
251.5191, 12.46616
252.0013, 16.93202
252.4834, 18.59837
252.9655, 15.98769
253.4476, 11.45330
253.9297, 9.270958
254.4118, 9.824959
254.8940, 12.10259
255.3761, 16.78708
255.8582, 25.85587
256.3403, 28.82549
256.8224, 22.68800
257.3046, 12.77102
257.7867, 8.315590
258.2688, 11.53153
258.7509, 15.50463
259.2330, 18.35141
259.7151, 20.25450
260.1973, 19.82909
260.6794, 16.00770
261.1615, 10.91953
261.6436, 7.862213
262.1257, 7.566467
262.6078, 7.430466
263.0900, 6.466484
263.5721, 4.444626
264.0542, 3.896080
264.5363, 5.387947
265.0184, 7.660728
265.5005, 8.914886
265.9827, 8.459167
266.4648, 9.037659
266.9469, 11.98082
267.4290, 17.37128
267.9111, 20.70559
268.3932, 21.71709
268.8754, 21.03573
269.3575, 19.07073
269.8396, 15.39265
270.3217, 11.89326
270.8038, 8.857246
271.2859, 6.290695
271.7681, 4.884773
272.2502, 4.738861
272.7323, 5.543793
273.2144, 7.414551
273.6965, 10.76335
274.1786, 12.94466
274.6608, 13.09777
275.1429, 11.53549
275.6250, 10.31511
276.1071, 9.246490
276.5892, 9.057472
277.0714, 11.21992
277.5535, 16.22569
278.0356, 19.05590
278.5177, 18.33850
278.9998, 14.85970
279.4819, 11.26509
279.9641, 7.119751
280.4462, 4.523788
280.9283, 6.410286
281.4104, 12.99100
281.8925, 16.76827
282.3746, 15.97505
282.8568, 12.12940
283.3389, 9.410660
283.8210, 7.918533
284.3031, 6.771118
284.7852, 5.516533
285.2673, 4.150452
285.7495, 2.171295
286.2316, 0.8936310
286.7137, 4.011627
287.1958, 4.849693
287.6779, 3.359657
288.1600, 1.131340
288.6422, 1.704254
289.1243, 4.812637
289.6064, 5.231415
290.0885, 2.047562
290.5706, 2.170029
291.0527, 3.105927
291.5349, 0.9384840
292.0170, 1.720894
292.4991, 3.103554
292.9812, 3.767120
293.4633, 6.023544
293.9454, 10.31855
294.4276, 14.87930
294.9097, 17.89166
295.3918, 19.35214
295.8739, 18.98312
296.3560, 14.81462
296.8381, 8.700783
297.3203, 5.299713
297.8024, 4.938766
298.2845, 6.040825
298.7666, 7.381577
299.2487, 8.908638
299.7308, 10.49345
300.2130, 12.05179
300.6951, 13.64793
301.1772, 15.63144
301.6593, 18.00433
302.1414, 19.96711
302.6235, 21.04565
303.1057, 21.13667
303.5878, 19.80386
304.0699, 14.73323
304.5520, 9.883774
305.0341, 11.07162
305.5162, 17.61716
305.9984, 23.80282
306.4805, 25.55685
306.9626, 24.51900
307.4447, 22.18926
307.9268, 17.60748
308.4089, 14.03421
308.8911, 15.29990
309.3732, 20.38768
309.8553, 25.11687
310.3374, 27.36788
310.8195, 27.89767
311.3016, 27.18002
311.7838, 24.69079
312.2659, 22.32759
312.7480, 21.39857
313.2301, 21.85336
313.7122, 22.55051
314.1943, 23.53918
314.6765, 24.68546
315.1586, 25.94220
315.6407, 27.49420
316.1228, 28.46812
316.6049, 27.61187
317.0870, 26.03101
317.5692, 25.56667
318.0513, 26.95057
318.5334, 29.35156
319.0155, 32.96676
319.4976, 38.22472
319.9797, 42.15300
320.4619, 43.16357
320.9440, 42.55340
321.4261, 41.77451
321.9082, 40.96861
322.3903, 40.24351
322.8724, 40.02816
323.3546, 40.36330
323.8367, 39.56744
324.3188, 34.70431
324.8009, 29.89368
325.2830, 28.36388
325.7651, 35.62710
326.2473, 41.10442
326.7294, 41.98946
327.2115, 39.00986
327.6936, 38.16978
328.1757, 42.20554
328.6578, 46.71868
329.1400, 49.60483
329.6221, 51.69051
330.1042, 51.00720
330.5863, 45.10591
331.0684, 36.39992
331.5505, 32.08001
332.0327, 35.89378
332.5148, 39.63761
332.9969, 39.73613
333.4790, 33.91100
333.9611, 30.93243
334.4432, 32.50798
334.9254, 35.88895
335.4075, 36.30294
335.8896, 32.43965
336.3717, 28.22752
336.8538, 24.69911
337.3359, 21.79337
337.8180, 19.95424
338.3001, 19.35674
338.7823, 19.57588
339.2644, 20.67770
339.7465, 23.16359
340.2286, 23.66355
340.7107, 20.84422
341.1928, 15.34311
341.6750, 11.81969
342.1571, 10.41651
342.6392, 10.14241
343.1213, 11.30338
343.6034, 13.96953
344.0855, 14.46242
344.5677, 11.27244
345.0498, 5.867085
345.5319, 2.705395
346.0140, 1.897316
346.4961, 2.176292
346.9782, 3.329430
347.4604, 5.052856
347.9425, 5.474476
348.4246, 4.013885
348.9067, 2.300949
349.3888, 3.234840
349.8709, 6.314426
350.3531, 8.917213
350.8352, 9.956429
351.3173, 9.571602
351.7994, 7.458031
352.2815, 3.451794
352.7636, 0.3704720
353.2458, 2.097256
353.7279, 2.132729
354.2100, 1.307110
354.6921, 0.7220950
355.1742, 2.893078
355.6563, 3.979336
356.1385, 4.098194
356.6206, 4.372139
357.1027, 6.685928
357.5848, 9.163406
358.0669, 9.378078
358.5490, 5.020451
359.0312, 0.7703130
359.5133, 1.4530000E-03
359.9954, 1.808052
360.4775, 3.409508
360.9596, 2.858795
361.4417, 2.038189
361.9239, 2.575649
362.4060, 5.608814
362.8881, 7.379402
363.3702, 4.832687
363.8523, 0.4486690
364.3344, 1.966625
364.8166, 0.1865390
365.2987, 3.198776
365.7808, 6.015476
366.2629, 8.512955
366.7450, 9.779297
367.2271, 8.126900
367.7093, 5.979576
368.1914, 5.446835
368.6735, 10.71165
369.1556, 13.10039
369.6377, 9.136524
370.1198, 8.6349003E-02
370.6020, 4.568108
371.0841, 1.160248
371.5662, 4.025928
372.0483, 7.914261
372.5304, 11.01040
373.0125, 11.80348
373.4947, 9.145157
373.9768, 4.549919
374.4589, 1.436260
374.9410, 4.4346001E-02
375.4231, 0.3502580
375.9052, 0.4745520
376.3874, 2.543396
376.8695, 5.189095
377.3516, 9.075565
377.8337, 12.46288
378.3158, 12.73540
378.7979, 9.406757
379.2801, 6.688740
379.7622, 6.195335
380.2443, 7.156372
380.7264, 5.267185
381.2085, 9.1739995E-03
381.6906, 4.447580
382.1728, 3.353813
382.6549, 2.295513
383.1370, 5.930252
383.6191, 5.765106
384.1012, 4.372976
384.5833, 7.418898
385.0655, 14.06247
385.5476, 18.13175
386.0297, 13.16374
386.5118, 3.945238
386.9939, 0.5723480
387.4760, 0.7556780
387.9582, 3.984898
388.4403, 6.416025
388.9224, 7.989656
389.4045, 8.589907
389.8866, 7.367983
390.3687, 5.723629
390.8509, 4.221581
391.3330, 3.012897
391.8151, 3.572664
392.2972, 9.614784
392.7793, 16.54968
393.2614, 19.77725
393.7436, 15.61555
394.2257, 11.08988
394.7078, 9.622974
395.1899, 10.09767
395.6720, 9.589962
396.1541, 4.756422
396.6363, 0.6546550
397.1184, 0.3682670
397.6005, 6.142723
398.0826, 9.623985
398.5647, 7.026096
399.0468, 2.332001
399.5290, 0.3775840
400.0111, 6.673193
400.4932, 10.07564
400.9753, 6.861755
401.4574, 2.937775
401.9395, 7.980982
402.4217, 6.106838
402.9038, 1.849541
403.3859, 2.103380
403.8680, 6.399376
404.3501, 8.697201
404.8322, 8.039457
405.3144, 5.649925
405.7965, 4.968300
406.2786, 6.552252
406.7607, 7.968666
407.2428, 7.891518
407.7249, 6.251179
408.2071, 5.375586
408.6892, 5.341116
409.1713, 6.130461
409.6534, 7.988771
410.1355, 10.94675
410.6176, 11.83070
411.0998, 8.422623
411.5819, 3.178452
412.0640, 2.485266
412.5461, 6.217878
413.0282, 10.03398
413.5103, 10.21214
413.9925, 8.162786
414.4746, 6.818308
414.9567, 6.785164
415.4388, 7.163918
415.9209, 6.305195
416.4030, 5.058380
416.8852, 5.504015
417.3673, 11.35143
417.8494, 17.60769
418.3315, 19.45092
418.8136, 16.53506
419.2957, 13.53699
419.7779, 13.68140
420.2600, 14.80592
420.7421, 14.73832
421.2242, 11.91794
421.7063, 8.757586
422.1884, 4.978390
422.6706, 1.413031
423.1527, 0.1001490
423.6348, 3.251417
424.1169, 6.801369
424.5990, 8.160152
425.0811, 5.327591
425.5633, 4.514015
426.0454, 8.271032
426.5275, 13.16330
427.0096, 14.67538
427.4917, 9.728947
427.9738, 6.006565
428.4560, 5.456247
428.9381, 8.361120
429.4202, 9.490705
429.9023, 7.382713
430.3844, 5.744698
430.8665, 8.115238
431.3487, 15.60786
431.8308, 20.12666
432.3129, 20.48638
432.7950, 18.09872
433.2771, 15.33946
433.7592, 12.24267
434.2414, 10.28860
434.7235, 10.41232
435.2056, 12.22806
435.6877, 14.94572
436.1698, 18.76044
436.6519, 21.07596
437.1341, 16.63209
437.6162, 8.515488
438.0983, 5.222103
438.5804, 11.52941
439.0625, 19.91891
439.5446, 21.90980
440.0268, 18.89532
440.5089, 14.92150
440.9910, 9.525177
441.4731, 5.275074
441.9552, 5.361237
442.4373, 11.09512
442.9195, 15.84963
443.4016, 15.47765
443.8837, 12.48616
444.3658, 9.890930
444.8479, 7.549128
445.3300, 6.746950
445.8122, 8.567869
446.2943, 12.59634
446.7764, 15.86798
447.2585, 17.85707
447.7406, 19.04443
448.2227, 19.65620
448.7049, 19.72340
449.1870, 19.16836
449.6691, 17.95189
450.1512, 16.18433
450.6333, 13.82864
451.1154, 10.15147
451.5976, 7.427952
452.0797, 6.387550
452.5618, 6.932610
453.0439, 8.062273
453.5260, 10.11347
454.0081, 11.62450
454.4903, 10.85661
454.9724, 7.941158
455.4545, 6.102261
455.9366, 5.584816
456.4187, 6.235987
456.9008, 9.022100
457.3830, 13.44614
457.8651, 15.81436
458.3472, 11.72319
458.8293, 5.032028
459.3114, 3.189745
459.7935, 6.229164
460.2757, 9.507912
460.7578, 7.411913
461.2399, 3.607826
461.7220, 3.619482
462.2041, 11.59935
462.6862, 18.99588
463.1684, 19.44827
463.6505, 15.08694
464.1326, 10.82066
464.6147, 8.995667
465.0968, 7.445570
465.5789, 4.407829
466.0611, 0.7538510
466.5432, 3.364697
467.0253, 0.3901580
467.5074, 5.568457
467.9895, 8.010162
468.4716, 4.542313
468.9538, 2.063776
469.4359, 0.8424570
469.9180, 0.8979000
470.4001, 2.509453
470.8822, 6.488626
471.3643, 10.50521
471.8465, 14.06357
472.3286, 17.38122
472.8107, 17.54203
473.2928, 13.73323
473.7749, 8.785862
474.2570, 5.682997
474.7392, 4.426556
475.2213, 4.515051
475.7034, 6.175793
476.1855, 8.078098
476.6676, 7.822546
477.1497, 5.852289
477.6319, 4.704111
478.1140, 7.107704
478.5961, 10.93385
479.0782, 12.44305
479.5603, 11.27302
480.0424, 9.361214
480.5246, 7.050486
481.0067, 5.262285
481.4888, 5.550638
481.9709, 9.972532
482.4530, 14.49176
482.9352, 17.34426
483.4173, 18.67012
483.8994, 18.95887
484.3815, 17.07415
484.8636, 15.09303
485.3457, 14.32399
485.8279, 15.35446
486.3100, 15.67658
486.7921, 13.93615
487.2742, 12.03611
487.7563, 11.70692
488.2384, 14.09839
488.7206, 16.11212
489.2027, 17.31769
489.6848, 17.90073
490.1669, 18.95003
490.6490, 21.31031
491.1311, 21.50792
491.6133, 15.89228
492.0954, 4.621195
492.5775, 1.410206
493.0596, 7.802267
493.5417, 15.81896
494.0238, 15.57168
494.5060, 8.936586
494.9881, 4.848177
495.4702, 6.514380
495.9523, 10.20828
496.4344, 10.10440
496.9165, 7.269991
497.3987, 5.767525
497.8808, 10.18887
498.3629, 15.61517
498.8450, 17.04676
499.3271, 13.98485
499.8092, 10.07210
500.2914, 5.903475
500.7735, 2.457508
501.2556, 0.5638500
501.7377, 1.131704
502.2198, 2.467354
502.7019, 4.935722
503.1841, 7.953070
503.6662, 9.950367
504.1483, 9.838083
504.6304, 9.754353
505.1125, 10.48853
505.5946, 12.18567
506.0768, 12.83258
506.5589, 12.13125
507.0410, 10.81180
507.5231, 9.272720
508.0052, 7.390606
508.4873, 6.087851
508.9695, 5.429287
509.4516, 5.488279
509.9337, 6.644329
510.4158, 8.850595
510.8979, 11.20483
511.3800, 14.44305
511.8622, 17.22220
512.3443, 15.22472
512.8264, 8.759928
513.3085, 3.279877
513.7906, 3.920948
514.2728, 7.661829
514.7549, 10.66380
515.2370, 12.16824
515.7191, 12.95599
516.2012, 13.11255
516.6833, 12.94974
517.1655, 12.95466
517.6476, 14.39895
518.1297, 14.95547
518.6118, 13.25890
519.0939, 9.538925
519.5760, 6.568056
520.0582, 5.265863
520.5403, 4.293713
521.0224, 3.050972
521.5045, 1.178244
521.9866, 1.5205000E-02
522.4688, 0.7918210
522.9509, 0.5976280
523.4330, 1.875519
523.9151, 7.307198
524.3972, 10.74271
524.8793, 11.15364
525.3615, 9.371214
525.8436, 7.574875
526.3257, 5.772844
526.8078, 4.823269
527.2899, 5.816950
527.7720, 7.783257
528.2542, 8.765635
528.7363, 8.666933
529.2184, 7.870253
529.7005, 5.947052
530.1826, 3.767982
530.6647, 2.716064
531.1469, 4.370184
531.6290, 5.239832
532.1111, 1.659830
532.5932, 3.989772
533.0753, 6.849558
533.5574, 3.231093
534.0396, 1.184809
534.5217, 4.632961
535.0038, 6.959286
535.4859, 9.072990
535.9680, 11.49191
536.4501, 13.20720
536.9323, 13.44489
537.4144, 11.33339
537.8965, 10.35198
538.3786, 11.14707
538.8607, 12.42685
539.3428, 11.65811
539.8250, 8.837357
540.3071, 5.667015
540.7892, 2.195276
541.2713, 0.9436590
541.7534, 1.739698
542.2355, 0.3554170
542.7177, 1.492680
543.1998, 2.622379
543.6819, 3.663086
544.1640, 5.763338
544.6461, 9.176556
545.1282, 11.55416
545.6104, 9.453114
546.0925, 6.100140
546.5746, 5.282942
547.0567, 10.89379
547.5388, 15.18465
548.0209, 14.22575
548.5031, 10.14913
548.9852, 7.639503
549.4673, 8.616310
549.9494, 9.964870
550.4315, 11.37573
550.9136, 12.84977
551.3958, 12.33795
551.8779, 8.864431
552.3600, 5.246264
552.8421, 2.932484
553.3242, 1.943531
553.8063, 1.371578
554.2885, 1.065769
554.7706, 1.659813
555.2527, 4.571375
555.7348, 9.393629
556.2169, 13.78930
556.6990, 17.74592
557.1812, 19.98018
557.6633, 16.92994
558.1454, 10.04449
558.6275, 4.758442
559.1096, 5.807394
559.5917, 8.652887
560.0739, 9.749924
560.5560, 8.834124
561.0381, 7.321321
561.5202, 4.780338
562.0023, 2.495026
562.4844, 1.404375
562.9666, 1.602903
563.4487, 3.175907
563.9308, 7.974207
564.4129, 13.31600
564.8950, 14.73676
565.3771, 10.08986
565.8593, 6.365711
566.3414, 5.385927
566.8235, 6.493483
567.3056, 6.456608
567.7877, 5.048180
568.2698, 4.159285
568.7520, 5.360744
569.2341, 8.054144
569.7162, 10.11605
570.1983, 11.47104
570.6804, 12.12634
571.1625, 11.76112
571.6447, 10.76742
572.1268, 9.839278
572.6089, 9.366260
573.0910, 8.491121
573.5731, 5.752941
574.0552, 2.375403
574.5374, 0.4384180
575.0195, 2.140277
575.5016, 3.876170
575.9837, 4.052811
576.4658, 2.903311
576.9479, 3.732789
577.4301, 9.194378
577.9122, 13.55335
578.3943, 13.94440
578.8764, 9.401829
579.3585, 6.349537
579.8406, 5.143040
580.3228, 4.598495
580.8049, 3.162113
581.2870, 0.9792960
581.7691, 0.8402080
582.2512, 3.973562
582.7333, 7.566462
583.2155, 6.586956
583.6975, 2.399984
584.1796, 0.7550170
584.6617, 0.8799620
585.1439, 0.9036240
585.6260, 5.304440
586.1081, 11.39490
586.5902, 14.53796
587.0723, 8.729856
587.5544, 2.357333
588.0366, 0.7186570
588.5187, 5.806623
589.0008, 9.353472
589.4829, 9.700179
589.9650, 8.593538
590.4471, 6.877461
590.9293, 3.857766
591.4114, 2.516365
591.8935, 3.488171
592.3756, 5.402339
592.8577, 5.888140
593.3398, 4.826939
593.8220, 4.430000
594.3041, 6.127253
594.7862, 8.405852
595.2683, 6.553705
595.7504, 1.278631
596.2325, 2.344476
596.7147, 0.7565970
597.1968, 6.237047
597.6789, 8.956597
598.1610, 8.559748
598.6431, 7.967478
599.1252, 10.21001
599.6074, 12.21568
600.0895, 11.24845
600.5716, 3.296449
601.0537, 1.689040
601.5358, 0.4276460
602.0179, 3.923059
602.5001, 7.537991
602.9822, 10.60461
603.4643, 12.52076
603.9464, 13.27290
604.4285, 12.78520
604.9106, 10.12037
605.3928, 4.942645
605.8749, 0.8389990
606.3570, 2.4313999E-02
606.8391, 1.537549
607.3212, 3.486166
607.8033, 5.752365
608.2855, 6.728489
608.7676, 3.728935
609.2497, 0.6947410
609.7318, 3.203041
610.2139, 3.094857
610.6960, 2.128963
611.1782, 0.8716400
611.6603, 0.5881960
612.1424, 2.172802
612.6245, 4.149416
613.1066, 5.883121
613.5887, 7.339042
614.0709, 8.498492
614.5530, 9.330879
615.0351, 9.777205
615.5172, 10.21034
615.9993, 10.56696
616.4814, 10.57759
616.9636, 9.256179
617.4457, 6.384296
617.9278, 4.660654
618.4099, 7.485250
618.8920, 12.63691
619.3741, 13.24253
619.8563, 8.997522
620.3384, 4.861006
620.8205, 5.864773
621.3026, 8.894817
621.7847, 9.959094
622.2668, 7.371437
622.7490, 5.136765
623.2311, 4.978097
623.7132, 6.181328
624.1953, 7.833710
624.6774, 12.00716
625.1595, 13.78063
625.6417, 11.11197
626.1238, 5.905166
626.6059, 3.887663
627.0880, 6.311819
627.5701, 8.005497
628.0522, 6.394820
628.5344, 2.573667
629.0165, 2.836799
629.4986, 7.180906
629.9807, 11.22096
630.4628, 11.73001
630.9449, 9.768621
631.4271, 6.406345
631.9092, 1.609182
632.3913, 1.324656
632.8734, 2.122216
633.3555, 7.616699
633.8376, 10.55104
634.3198, 8.302473
634.8019, 6.566518
635.2840, 7.787688
635.7661, 10.03350
636.2482, 10.56186
636.7303, 8.113643
637.2125, 5.960825
637.6946, 4.583289
638.1767, 3.763113
638.6588, 2.653942
639.1409, 1.058914
639.6230, 0.5134270
640.1052, 1.973186
640.5873, 4.807194
641.0694, 7.230297
641.5515, 9.274864
642.0336, 11.03787
642.5157, 13.64610
642.9979, 15.55068
643.4800, 13.64557
643.9621, 7.423857
644.4442, 3.666700
644.9263, 9.316527
645.4084, 16.64108
645.8906, 19.25612
646.3727, 12.21274
646.8548, 7.210079
647.3369, 5.762632
647.8190, 6.067429
648.3011, 6.043802
648.7833, 5.461560
649.2654, 5.379176
649.7475, 6.139858
650.2296, 7.256927
650.7117, 7.231440
651.1938, 6.258410
651.6760, 6.784199
652.1581, 11.42491
652.6402, 16.87105
653.1223, 18.13242
653.6044, 15.74476
654.0865, 11.87985
654.5687, 5.586924
655.0508, 0.6779720
655.5329, 0.7660390
656.0150, 1.857614
656.4971, 5.152638
656.9792, 10.96540
657.4614, 15.05248
657.9435, 14.51923
658.4256, 7.011633
658.9077, 3.311229
659.3898, 4.917501
659.8719, 8.109450
660.3541, 8.787409
660.8362, 7.085787
661.3183, 6.506104
661.8004, 7.672716
662.2825, 9.739156
662.7646, 12.36066
663.2468, 15.00984
663.7289, 16.30334
664.2110, 14.62902
664.6931, 12.84960
665.1752, 14.25213
665.6573, 17.06353
666.1395, 17.11949
666.6216, 9.303919
667.1037, 2.489141
667.5858, 0.1437960
668.0679, 0.9835270
668.5500, 2.218190
669.0322, 3.568030
669.5143, 5.059666
669.9964, 6.969835
670.4785, 9.197556
670.9606, 10.18102
671.4427, 9.921209
671.9249, 8.354808
672.4070, 3.025476
672.8891, 3.193695
673.3712, 2.860832
673.8533, 5.331242
674.3354, 13.26904
674.8176, 15.43998
675.2997, 14.26027
675.7818, 11.56342
676.2639, 5.546371
676.7460, 2.528664
677.2281, 7.687668
677.7103, 15.00225
678.1924, 16.81560
678.6745, 9.634410
679.1566, 4.548387
679.6387, 3.116988
680.1208, 4.426410
680.6030, 7.394168
681.0851, 11.95601
681.5672, 14.75754
682.0493, 13.84757
682.5314, 11.71001
683.0135, 11.93801
683.4957, 14.48479
683.9778, 16.96529
684.4599, 19.93389
684.9420, 20.86548
685.4241, 15.79370
685.9063, 5.451198
686.3884, 0.3587110
686.8705, 5.419140
687.3526, 12.29873
687.8347, 15.82310
688.3168, 15.64637
688.7990, 13.97808
689.2811, 9.882749
689.7632, 6.318603
690.2453, 6.240674
690.7274, 9.428945
691.2095, 10.43665
691.6917, 8.648535
692.1738, 6.722551
692.6559, 8.315596
693.1380, 11.49502
693.6201, 12.79554
694.1022, 10.81867
694.5844, 8.577975
695.0665, 7.944761
695.5486, 8.017286
696.0307, 7.637744
696.5128, 4.656061
696.9949, 3.827449
697.4771, 7.584224
697.9592, 12.86332
698.4413, 12.76630
698.9234, 5.443862
699.4055, 0.2086470
699.8876, 0.1122820
700.3698, 2.842340
700.8519, 6.157431
701.3340, 9.526659
701.8161, 10.75725
702.2982, 6.332889
702.7803, 0.7719180
703.2625, 1.289317
703.7446, 0.1190600
704.2267, 2.743060
704.7088, 9.686479
705.1909, 15.46809
705.6730, 16.30165
706.1552, 11.45893
706.6373, 9.861526
707.1194, 13.85661
707.6015, 17.86982
708.0836, 18.73317
708.5657, 16.29358
709.0479, 13.53901
709.5300, 10.27880
710.0121, 7.884468
710.4942, 9.217182
710.9763, 12.14930
711.4584, 10.14456
711.9406, 1.388569
712.4227, 4.260191
712.9048, 4.961319
713.3869, 18.74934
713.8690, 26.35269
714.3511, 22.10332
714.8333, 17.17754
715.3154, 13.14118
715.7975, 9.682214
716.2796, 5.990218
716.7617, 0.5530070
717.2438, 0.1225170
717.7260, 7.346840
718.2081, 17.03726
718.6902, 18.71214
719.1723, 13.55861
719.6544, 10.95400
720.1365, 15.13408
720.6187, 21.09405
721.1008, 23.38578
721.5829, 22.84105
722.0650, 21.46627
722.5471, 19.96658
723.0292, 17.95855
723.5114, 14.41506
723.9935, 10.04225
724.4756, 7.909363
724.9577, 9.268677
725.4398, 11.12796
725.9219, 13.29085
726.4041, 15.00438
726.8862, 14.30539
727.3683, 10.89605
727.8504, 8.436441
728.3325, 10.72380
728.8146, 14.86354
729.2968, 13.49068
729.7789, 7.277727
730.2610, 2.530090
730.7431, 5.496521
731.2252, 9.604948
731.7073, 9.038521
732.1895, 2.526188
732.6716, 0.8348860
733.1537, 3.028184
733.6358, 8.449649
734.1179, 13.01386
734.6000, 16.43065
735.0822, 17.59059
735.5643, 16.25031
736.0464, 14.21424
736.5285, 12.63166
737.0106, 11.66313
737.4927, 13.03032
737.9749, 17.37598
738.4570, 19.26694
738.9391, 9.238937
739.4212, 3.674275
739.9033, 8.390292
740.3854, 1.258821
740.8676, 9.586184
741.3497, 11.67205
741.8318, 10.60019
742.3139, 9.511765
742.7960, 8.076797
743.2781, 7.377587
743.7603, 7.253891
744.2424, 8.215672
744.7245, 12.87846
745.2066, 20.31613
745.6887, 23.02927
746.1708, 18.12145
746.6530, 10.83138
747.1351, 5.777408
747.6172, 2.884165
748.0993, 2.097239
748.5814, 5.417632
749.0635, 8.500073
749.5457, 9.470975
750.0278, 9.257062
750.5099, 9.855896
750.9920, 11.95421
751.4741, 13.70080
751.9562, 14.87075
752.4384, 15.39999
752.9205, 14.53462
753.4026, 12.33831
753.8847, 11.50825
754.3668, 14.09505
754.8489, 17.47249
755.3311, 18.12514
755.8132, 16.42222
756.2953, 13.42712
756.7774, 6.074704
757.2595, 0.9920350
757.7416, 3.532264
758.2238, 12.05868
758.7059, 16.11076
759.1880, 11.82622
759.6701, 8.673714
760.1522, 10.01598
760.6343, 14.73294
761.1165, 16.95160
761.5986, 16.78737
762.0807, 15.27961
762.5628, 11.41168
763.0449, 7.223227
763.5270, 7.249940
764.0092, 10.65992
764.4913, 12.97685
764.9734, 10.02702
765.4555, 6.660196
765.9376, 6.363771
766.4197, 9.277578
766.9019, 10.17083
767.3840, 7.054387
767.8661, 4.652747
768.3482, 4.719158
768.8303, 6.965451
769.3124, 9.101400
769.7946, 11.17641
770.2767, 12.25255
770.7588, 12.25034
771.2409, 11.32487
771.7230, 9.643551
772.2051, 7.352216
772.6873, 6.639200
773.1694, 10.70902
773.6515, 15.33534
774.1336, 17.91863
774.6157, 18.08099
775.0978, 16.36232
775.5800, 11.46019
776.0621, 6.642175
776.5442, 3.417284
777.0263, 1.735127
777.5084, 4.066394
777.9905, 10.96272
778.4727, 16.65038
778.9548, 14.18126
779.4369, 7.813419
779.9190, 5.169807
780.4011, 7.171935
780.8832, 9.719493
781.3654, 12.26740
781.8475, 13.19892
782.3296, 10.33220
782.8117, 0.5275160
783.2938, 3.098263
783.7759, 2.670939
784.2581, 10.14962
784.7402, 13.43914
785.2223, 12.58676
785.7044, 11.56665
786.1865, 10.54792
786.6686, 9.851014
787.1508, 10.45912
787.6329, 11.34229
788.1150, 10.54987
788.5971, 7.447477
789.0792, 4.999012
789.5613, 6.168877
790.0435, 7.548531
790.5256, 5.729411
791.0077, 2.030579
791.4898, 5.054488
791.9719, 1.720035
792.4540, 3.694778
792.9362, 7.594611
793.4183, 10.07524
793.9004, 11.56487
794.3825, 12.07858
794.8646, 11.89996
795.3467, 10.83319
795.8289, 9.442731
796.3110, 8.515078
796.7931, 8.237518
797.2752, 7.841820
797.7573, 6.014017
798.2394, 5.661879
798.7216, 8.272852
799.2037, 16.51320
799.6858, 20.17109
800.1679, 17.89148
800.6500, 14.09910
801.1321, 13.80937
801.6143, 16.03540
802.0964, 15.48371
802.5785, 11.32503
803.0606, 6.740869
803.5427, 3.514009
804.0248, 1.959755
804.5070, 2.859147
804.9891, 7.611150
805.4712, 10.89217
805.9533, 10.26803
806.4354, 8.742869
806.9175, 8.471600
807.3997, 9.819440
807.8818, 10.85184
808.3639, 11.48467
808.8460, 11.91936
809.3281, 12.73364
809.8102, 13.47345
810.2924, 12.47708
810.7745, 9.259393
811.2566, 6.820216
811.7387, 8.843286
812.2208, 11.67186
812.7029, 11.82997
813.1851, 7.438933
813.6672, 4.044738
814.1493, 2.144942
814.6314, 1.007195
815.1135, 0.2291490
815.5956, 1.609863
816.0778, 0.4307750
816.5599, 3.748807
817.0420, 8.005524
817.5241, 9.849698
818.0062, 9.799668
818.4883, 7.899893
818.9705, 3.753759
819.4526, 1.567259
819.9347, 4.467114
820.4168, 9.215717
820.8989, 14.19653
821.3810, 20.46230
821.8632, 21.60593
822.3453, 15.70219
822.8274, 8.878246
823.3095, 7.020789
823.7916, 8.882923
824.2737, 6.894968
824.7559, 0.6512940
825.2380, 4.559452
825.7201, 3.926797
826.2022, 0.4257630
826.6843, 3.621231
827.1664, 8.111505
827.6486, 11.21992
828.1307, 11.19561
828.6128, 10.94521
829.0949, 11.99780
829.5770, 14.48060
830.0591, 16.59785
830.5413, 18.61231
831.0234, 18.53247
831.5055, 12.28890
831.9876, 3.754760
832.4697, 0.8977220
832.9518, 3.820282
833.4340, 8.577682
833.9161, 16.55449
834.3982, 22.54919
834.8803, 22.20694
835.3624, 14.73367
835.8445, 9.425397
836.3267, 6.407674
836.8088, 5.357396
837.2909, 6.630296
837.7730, 9.819865
838.2551, 13.27468
838.7372, 16.85905
839.2194, 18.38619
839.7015, 14.53787
840.1836, 9.340174
840.6657, 7.037714
841.1478, 7.006918
841.6299, 6.524271
842.1121, 1.299711
842.5942, 1.300027
843.0763, 2.542572
843.5584, 11.18408
844.0405, 14.83589
844.5226, 12.79374
845.0048, 10.87949
845.4869, 12.34709
845.9690, 14.94329
846.4511, 13.70897
846.9332, 9.695422
847.4153, 6.361910
847.8975, 5.709228
848.3796, 5.815436
848.8617, 5.469043
849.3438, 4.967984
849.8259, 5.886786
850.3080, 9.286939
850.7902, 11.49448
851.2723, 11.69294
851.7544, 10.30496
852.2365, 7.113164
852.7186, 2.724264
853.2007, 0.9768400
853.6829, 4.845188
854.1650, 9.249272
854.6471, 8.826445
855.1292, 6.098623
855.6113, 5.306294
856.0934, 11.15177
856.5756, 14.14488
857.0577, 11.71592
857.5398, 7.242033
858.0219, 5.671151
858.5040, 7.161188
858.9861, 8.931206
859.4683, 10.86645
859.9504, 12.00075
860.4325, 9.987420
860.9146, 6.615911
861.3967, 4.990372
861.8788, 6.259883
862.3610, 8.266404
862.8431, 11.41602
863.3252, 14.14905
863.8073, 14.90977
864.2894, 12.79682
864.7715, 11.57091
865.2537, 11.47181
865.7358, 11.66556
866.2179, 11.47106
866.7000, 10.89522
867.1821, 9.650626
867.6642, 7.648204
868.1464, 6.374707
868.6285, 7.419259
869.1106, 9.128227
869.5927, 10.49305
870.0748, 11.56702
870.5569, 11.09886
871.0391, 8.493803
871.5212, 5.441731
872.0033, 2.457843
872.4854, 0.2424930
872.9675, 0.8907690
873.4496, 0.3734650
873.9318, 2.867587
874.4139, 8.347748
874.8960, 12.90876
875.3781, 12.08569
875.8602, 6.507436
876.3423, 2.043922
876.8245, 0.2487820
877.3066, 0.6045270
877.7887, 1.845136
878.2708, 6.056343
878.7529, 7.260264
879.2350, 5.452234
879.7172, 4.028678
880.1993, 4.673539
880.6814, 6.202343
881.1635, 7.622105
881.6456, 8.688823
882.1277, 8.861087
882.6099, 7.064968
883.0920, 4.981286
883.5741, 3.140680
884.0562, 1.959498
884.5383, 1.613642
885.0204, 2.119669
885.5026, 3.149826
885.9847, 4.561920
886.4668, 6.728248
886.9489, 12.58465
887.4310, 19.13636
887.9131, 19.21264
888.3953, 7.970797
888.8774, 0.9745590
889.3595, 0.4756240
889.8416, 5.780238
890.3237, 8.640311
890.8058, 7.955562
891.2880, 7.713242
891.7701, 8.141375
892.2522, 8.305102
892.7343, 6.925566
893.2164, 4.930511
893.6985, 4.195613
894.1807, 5.322362
894.6628, 7.237056
895.1449, 10.73109
895.6270, 13.54131
896.1091, 13.89974
896.5912, 11.51228
897.0734, 9.094697
897.5555, 6.339340
898.0376, 4.378084
898.5197, 4.187788
899.0018, 5.091078
899.4839, 4.485096
899.9661, 2.631685
900.4482, 1.008193
900.9303, 7.5975999E-02
901.4124, 0.1552270
901.8945, 2.283473
902.3766, 5.682388
902.8588, 7.880619
903.3409, 8.795977
903.8230, 8.020189
904.3051, 4.567540
904.7872, 0.4434860
905.2693, 5.3360000E-02
905.7515, 2.564360
906.2336, 5.312591
906.7157, 7.712225
907.1978, 9.086890
907.6799, 7.038801
908.1620, 4.435019
908.6442, 4.944178
909.1263, 13.09533
909.6084, 17.55930
910.0905, 17.07934
910.5726, 14.22016
911.0547, 10.19302
911.5369, 5.340710
912.0190, 4.274208
912.5011, 7.559221
912.9832, 10.52670
913.4653, 9.783197
913.9474, 7.241137
914.4296, 4.198170
914.9117, 1.090153
915.3938, 0.9128940
915.8759, 1.767199
916.3580, 0.6400770
916.8401, 3.600337
917.3223, 10.09195
917.8044, 13.66182
918.2865, 14.41052
918.7686, 14.47860
919.2507, 15.14347
919.7328, 15.52518
920.2150, 14.71267
920.6971, 12.93913
921.1792, 10.76957
921.6613, 6.185770
922.1434, 4.309498
922.6255, 6.936459
923.1077, 11.56175
923.5898, 14.30433
924.0719, 15.14584
924.5540, 13.48682
925.0361, 8.455474
925.5182, 4.027103
926.0004, 5.423275
926.4825, 9.092957
926.9646, 10.57497
927.4467, 7.956173
927.9288, 6.182294
928.4109, 5.908462
928.8931, 6.449174
929.3752, 7.815203
929.8573, 9.959898
930.3394, 9.932806
930.8215, 7.721027
931.3036, 5.709278
931.7858, 6.340187
932.2679, 7.502073
932.7500, 6.291822
933.2321, 3.179927
933.7142, 1.777868
934.1964, 4.449957
934.6785, 6.792753
935.1606, 7.306554
935.6427, 6.988957
936.1248, 9.438999
936.6069, 14.34851
937.0891, 17.55439
937.5712, 17.71203
938.0533, 15.64654
938.5354, 9.583625
939.0175, 2.680170
939.4996, 0.3096900
939.9818, 6.519227
940.4639, 10.12320
940.9460, 8.909181
941.4281, 5.870700
941.9102, 3.093125
942.3923, 0.8476030
942.8745, 2.569449
943.3566, 8.649583
943.8387, 14.46079
944.3208, 16.24982
944.8029, 16.04330
945.2850, 15.47990
945.7672, 14.71656
946.2493, 12.86068
946.7314, 8.941948
947.2135, 5.654598
947.6956, 4.147838
948.1777, 3.946288
948.6599, 3.867530
949.1420, 3.804907
949.6241, 2.620968
950.1062, 3.309242
950.5883, 7.072402
951.0704, 9.6974000E-02
951.5526, 11.74625
952.0347, 16.81285
952.5168, 10.00755
952.9989, 5.029828
953.4810, 2.704829
953.9631, 2.820639
954.4453, 6.802485
954.9274, 13.08283
955.4095, 15.67427
955.8916, 13.53167
956.3737, 11.05244
956.8558, 11.29702
957.3380, 12.19484
957.8201, 12.37292
958.3022, 11.74977
958.7843, 9.775763
959.2664, 5.307625
959.7485, 3.217614
960.2307, 7.162929
960.7128, 14.27135
961.1949, 18.18178
961.6770, 19.34881
962.1591, 19.33033
962.6412, 17.44021
963.1234, 16.13005
963.6055, 17.01819
964.0876, 18.88739
964.5697, 19.87299
965.0518, 20.07181
965.5339, 18.50761
966.0161, 14.53488
966.4982, 10.71264
966.9803, 11.19161
967.4624, 13.49691
967.9445, 13.31584
968.4266, 9.739455
968.9088, 5.855076
969.3909, 0.4753370
969.8730, 2.550782
970.3551, 0.5004770
970.8372, 8.926609
971.3193, 8.773952
971.8015, 0.3297980
972.2836, 7.022023
972.7657, 2.169684
973.2478, 5.911419
973.7299, 7.234724
974.2120, 4.093283
974.6942, 1.879843
975.1763, 1.487555
975.6584, 3.428200
976.1405, 9.595048
976.6226, 16.07963
977.1047, 16.47753
977.5869, 11.41285
978.0690, 7.315219
978.5511, 4.998696
979.0332, 4.660232
979.5153, 8.874405
979.9974, 13.52384
980.4796, 14.24939
980.9617, 9.875596
981.4438, 7.556849
981.9259, 8.141011
982.4080, 9.443818
982.8901, 10.67066
983.3723, 11.77432
983.8544, 12.44429
984.3365, 12.81514
984.8186, 13.44549
985.3007, 16.54659
985.7828, 17.82857
986.2650, 12.59531
986.7471, 5.212617
987.2292, 3.544180
987.7113, 10.38829
988.1934, 12.28711
988.6755, 7.129673
989.1577, 0.6966630
989.6398, 0.6107790
990.1219, 1.237721
990.6040, 3.117735
991.0861, 4.667248
991.5682, 6.419280
992.0504, 9.526360
992.5325, 11.84166
993.0146, 12.11924
993.4967, 10.80825
993.9788, 10.25475
994.4609, 10.45825
994.9431, 11.79208
995.4252, 15.56153
995.9073, 18.78621
996.3894, 17.55061
996.8715, 13.76151
997.3536, 10.49699
997.8358, 8.673432
998.3179, 7.506306
998.8000, 7.401046
999.2821, 7.256528
999.7642, 5.433389
1000.246, 2.470920
1000.728, 1.879954
1001.211, 3.720443
1001.693, 5.214125
1002.175, 3.788512
1002.657, 2.070759
1003.139, 1.998177
1003.621, 3.436501
1004.103, 4.020244
1004.585, 3.737267
1005.068, 2.986700
1005.550, 1.713064
1006.032, 0.3377490
1006.514, 0.8887440
1006.996, 1.633846
1007.478, 1.136147
1007.960, 1.064684
1008.442, 3.055471
1008.924, 5.637534
1009.407, 7.445007
1009.889, 7.294171
1010.371, 5.048248
1010.853, 5.788779
1011.335, 9.564033
1011.817, 11.98084
1012.299, 8.138791
1012.781, 3.261947
1013.263, 2.235027
1013.746, 4.259565
1014.228, 6.204911
1014.710, 7.911915
1015.192, 8.886455
1015.674, 8.895167
1016.156, 8.390473
1016.638, 8.214345
1017.120, 8.096105
1017.603, 6.800564
1018.085, 3.860144
1018.567, 1.949912
1019.049, 3.583918
1019.531, 6.019242
1020.013, 7.479695
1020.495, 7.966504
1020.977, 7.881798
1021.459, 7.079594
1021.942, 7.076727
1022.424, 9.368109
1022.906, 11.92345
1023.388, 11.45004
1023.870, 9.256330
1024.352, 7.902685
1024.834, 10.48436
1025.316, 10.35250
1025.799, 5.208908
1026.281, 0.3494290
1026.763, 1.664037
1027.245, 0.8732470
1027.727, 5.838567
1028.209, 13.32681
1028.691, 18.23079
1029.173, 14.78811
1029.656, 9.684400
1030.138, 6.952674
1030.620, 7.031301
1031.102, 6.921714
1031.584, 6.106613
1032.066, 6.483773
1032.548, 8.891934
1033.030, 11.79312
1033.512, 13.44470
1033.995, 13.79960
1034.477, 12.36682
1034.959, 8.262953
1035.441, 5.382150
1035.923, 5.702813
1036.405, 6.283174
1036.887, 5.223431
1037.369, 2.819777
1037.851, 3.298437
1038.334, 6.288518
1038.816, 8.363720
1039.298, 6.075199
1039.780, 3.746987
1040.262, 5.171484
1040.744, 8.369996
1041.226, 9.122646
1041.708, 5.709795
1042.191, 4.975096
1042.673, 8.105818
1043.155, 11.24794
1043.637, 9.315932
1044.119, 5.156856
1044.601, 3.869860
1045.083, 5.702425
1045.565, 7.463859
1046.047, 8.141352
1046.530, 7.919938
1047.012, 6.357191
1047.494, 4.402403
1047.976, 5.525344
1048.458, 9.318323
1048.940, 12.56741
1049.422, 14.89464
1049.904, 15.22923
1050.386, 10.71941
1050.869, 5.072095
1051.351, 2.224073
1051.833, 2.777089
1052.315, 3.350692
1052.797, 3.941351
1053.279, 4.581433
1053.761, 5.546741
1054.243, 6.416368
1054.726, 6.528899
1055.208, 5.951906
1055.690, 4.864254
1056.172, 2.333772
1056.654, 0.6530780
1057.136, 9.0430997E-02
1057.618, 0.2983480
1058.100, 2.935626
1058.583, 7.204842
1059.065, 8.913391
1059.547, 7.774676
1060.029, 5.520881
1060.511, 1.236109
1060.993, 1.765538
1061.475, 0.2718950
1061.957, 4.462128
1062.439, 7.094663
1062.922, 7.386079
1063.404, 6.833124
1063.886, 5.390553
1064.368, 4.403479
1064.850, 6.544913
1065.332, 9.904128
1065.814, 11.74646
1066.296, 11.02747
1066.778, 10.57848
1067.261, 11.16405
1067.743, 11.12341
1068.225, 8.825280
1068.707, 5.623081
1069.189, 7.252882
1069.671, 12.20566
1070.153, 14.98690
1070.635, 10.77390
1071.118, 7.145788
1071.600, 8.222311
1072.082, 10.70982
1072.564, 11.16753
1073.046, 9.336254
1073.528, 8.537447
1074.010, 8.873425
1074.492, 10.43627
1074.974, 15.84697
1075.457, 20.36975
1075.939, 18.21001
1076.421, 11.23322
1076.903, 7.691595
1077.385, 9.560475
1077.867, 10.55013
1078.349, 9.158897
1078.831, 7.889112
1079.313, 11.43701
1079.796, 16.94360
1080.278, 18.70880
1080.760, 15.74817
1081.242, 13.77637
1081.724, 17.59822
1082.206, 19.44112
1082.688, 15.14739
1083.170, 6.652922
1083.652, 2.347154
1084.135, 1.624966
1084.617, 1.561422
1085.099, 1.060009
1085.581, 2.004808
1086.063, 7.682914
1086.545, 13.85735
1087.027, 16.66318
1087.509, 15.74605
1087.992, 14.53677
1088.474, 12.99322
1088.956, 11.78503
1089.438, 11.79442
1089.920, 11.93311
1090.402, 10.55368
1090.884, 8.517656
1091.366, 7.774248
1091.849, 10.39055
1092.331, 10.51861
1092.813, 7.220231
1093.295, 3.190235
1093.777, 0.5149390
1094.259, 0.7154550
1094.741, 0.4260030
1095.223, 3.534120
1095.705, 5.610411
1096.188, 3.968930
1096.670, 3.029789
1097.152, 4.236613
1097.634, 6.399053
1098.116, 7.370794
1098.598, 7.337799
1099.080, 7.493057
1099.562, 8.124112
1100.044, 7.898071
1100.527, 5.040080
1101.009, 1.817233
1101.491, 0.3649000
1101.973, 1.593197
1102.455, 2.605889
1102.937, 3.471687
1103.419, 1.885189
1103.901, 4.277339
1104.384, 9.737668
1104.866, 7.092135
1105.348, 1.559134
1105.830, 0.7536510
1106.312, 1.400143
1106.794, 6.063388
1107.276, 14.80433
1107.758, 20.43573
1108.240, 17.21407
1108.723, 9.718786
1109.205, 4.818000
1109.687, 2.377419
1110.169, 1.391553
1110.651, 1.978194
1111.133, 3.325655
1111.615, 6.040926
1112.097, 8.466351
1112.579, 8.642387
1113.062, 7.292927
1113.544, 7.516099
1114.026, 9.033876
1114.508, 9.470778
1114.990, 5.028513
1115.472, 2.491480
1115.954, 6.193461
1116.436, 11.74287
1116.919, 11.87634
1117.401, 7.035429
1117.883, 4.050065
1118.365, 3.670484
1118.847, 5.407655
1119.329, 12.95571
1119.811, 19.19612
1120.293, 17.04398
1120.776, 9.093280
1121.258, 6.628563
1121.740, 10.38473
1122.222, 12.73295
1122.704, 11.78996
1123.186, 9.458330
1123.668, 6.348022
1124.150, 3.788474
1124.632, 3.508503
1125.115, 6.030814
1125.597, 8.136534
1126.079, 9.758438
1126.561, 11.11805
1127.043, 12.56447
1127.525, 13.37142
1128.007, 11.71011
1128.489, 8.773898
1128.971, 6.499036
1129.454, 5.075987
1129.936, 5.428543
1130.418, 8.790248
1130.900, 11.48256
1131.382, 10.48872
1131.864, 7.591232
1132.346, 8.975766
1132.828, 13.09334
1133.311, 15.02512
1133.793, 10.48523
1134.275, 6.669577
1134.757, 5.315832
1135.239, 5.033691
1135.721, 4.638883
1136.203, 4.236955
1136.685, 4.465219
1137.167, 5.408811
1137.650, 7.625173
1138.132, 16.43393
1138.614, 20.94905
1139.096, 10.08255
1139.578, 4.802491
1140.060, 6.633458
1140.542, 4.790705
1141.024, 10.87214
1141.506, 10.04366
1141.989, 8.703008
1142.471, 13.59624
1142.953, 17.91369
1143.435, 15.28471
1143.917, 8.104937
1144.399, 5.033433
1144.881, 6.679306
1145.363, 7.991407
1145.846, 8.036861
1146.328, 8.020350
1146.810, 10.35652
1147.292, 12.33505
1147.774, 10.09693
1148.256, 3.699669
1148.738, 1.987457
1149.220, 6.545111
1149.703, 9.858767
1150.185, 9.543340
1150.667, 8.116473
1151.149, 9.222669
1151.631, 11.14193
1152.113, 11.15657
1152.595, 8.545477
1153.077, 7.421697
1153.559, 8.865047
1154.042, 9.417233
1154.524, 6.881052
1155.006, 3.858898
1155.488, 6.279953
1155.970, 11.52689
1156.452, 13.99792
1156.934, 10.38087
1157.416, 10.51155
1157.898, 18.48460
1158.381, 24.41609
1158.863, 21.53282
1159.345, 13.39407
1159.827, 9.486065
1160.309, 9.024592
1160.791, 10.07329
1161.273, 13.99994
1161.755, 16.04370
1162.238, 14.60371
1162.720, 11.71555
1163.202, 8.259273
1163.684, 4.497246
1164.166, 2.155463
1164.648, 1.054435
1165.130, 0.7148790
1165.612, 2.327697
1166.094, 2.780567
1166.577, 0.2252570
1167.059, 3.508191
1167.541, 3.580325
1168.023, 0.8617460
1168.505, 0.7815420
1168.987, 1.357272
1169.469, 1.970479
1169.951, 3.304982
1170.433, 4.779027
1170.916, 6.923822
1171.398, 8.551834
1171.880, 7.577174
1172.362, 4.178422
1172.844, 2.133876
1173.326, 1.717185
1173.808, 1.682000
1174.290, 0.8752980
1174.773, 0.5103440
1175.255, 1.073898
1175.737, 2.684919
1176.219, 6.654735
1176.701, 13.04486
1177.183, 14.70629
1177.665, 10.50144
1178.147, 5.914016
1178.630, 4.566735
1179.112, 5.051002
1179.594, 6.935811
1180.076, 9.814927
1180.558, 13.20780
1181.040, 17.30630
1181.522, 18.10600
1182.004, 14.40324
1182.486, 10.38176
1182.969, 10.12680
1183.451, 10.82996
1183.933, 9.362196
1184.415, 6.400504
1184.897, 8.216858
1185.379, 15.40434
1185.861, 18.67670
1186.343, 14.83554
1186.825, 9.722879
1187.308, 8.039885
1187.790, 8.579109
1188.272, 11.52964
1188.754, 16.53713
1189.236, 16.36332
1189.718, 10.31986
1190.200, 5.475741
1190.682, 4.057983
1191.165, 4.948036
1191.647, 7.832903
1192.129, 11.31993
1192.611, 14.38954
1193.093, 16.99127
1193.575, 15.91020
1194.057, 10.16467
1194.539, 8.481991
1195.021, 16.60236
1195.504, 25.41969
1195.986, 23.99026
1196.468, 17.43457
1196.950, 11.62028
1197.432, 6.462606
1197.914, 5.543138
1198.396, 10.35338
1198.878, 13.23341
1199.360, 9.009854
1199.843, 2.970592
1200.325, 1.202982
1200.807, 2.056065
1201.289, 3.390319
1201.771, 5.012362
1202.253, 7.083474
1202.735, 9.894441
1203.217, 11.45791
1203.700, 9.626398
1204.182, 7.209996
1204.664, 8.426232
1205.146, 10.89172
1205.628, 10.31193
1206.110, 4.341407
1206.592, 2.336606
1207.074, 4.795212
1207.557, 7.971107
1208.039, 10.16569
1208.521, 11.16206
1209.003, 9.184808
1209.485, 6.306939
1209.967, 6.688814
1210.449, 12.44909
1210.931, 16.15584
1211.413, 17.81727
1211.896, 17.47455
1212.378, 13.67057
1212.860, 9.208393
1213.342, 7.007818
1213.824, 6.439131
1214.306, 6.394166
1214.788, 7.161241
1215.270, 6.881474
1215.752, 5.216591
1216.235, 4.093561
1216.717, 5.358922
1217.199, 7.556999
1217.681, 9.713300
1218.163, 11.57435
1218.645, 12.65682
1219.127, 13.17381
1219.609, 11.58407
1220.092, 7.456421
1220.574, 4.684209
1221.056, 8.626713
1221.538, 13.26805
1222.020, 11.68090
1222.502, 6.793526
1222.984, 5.960351
1223.466, 10.58423
1223.948, 13.59496
1224.431, 14.58864
1224.913, 13.33430
1225.395, 7.412654
1225.877, 2.014860
1226.359, 1.776782
1226.841, 5.018932
1227.323, 7.208621
1227.805, 8.105965
1228.287, 9.785059
1228.770, 12.48740
1229.252, 14.00429
1229.734, 11.26544
1230.216, 7.941021
1230.698, 7.055962
1231.180, 7.526504
1231.662, 6.551033
1232.144, 3.946251
1232.627, 2.265330
1233.109, 1.717251
1233.591, 2.358093
1234.073, 5.718918
1234.555, 8.766061
1235.037, 9.026149
1235.519, 7.780050
1236.001, 7.595229
1236.484, 8.481130
1236.966, 7.853935
1237.448, 5.493455
1237.930, 3.220805
1238.412, 0.7296910
1238.894, 0.3547590
1239.376, 5.775574
1239.858, 12.88491
1240.340, 14.96849
1240.823, 12.34907
1241.305, 7.621638
1241.787, 1.270394
1242.269, 1.294879
1242.751, 8.419094
1243.233, 16.66682
1243.715, 16.84525
1244.197, 12.79950
1244.679, 9.720744
1245.162, 7.507604
1245.644, 5.773321
1246.126, 4.525021
1246.608, 3.533002
1247.090, 3.184075
1247.572, 2.290950
1248.054, 0.2544820
1248.536, 2.505605
1249.019, 1.080590
1249.501, 3.091878
1249.983, 7.933257
1250.465, 12.98518
1250.947, 15.80823
1251.429, 13.70353
1251.911, 11.24924
1252.393, 8.969875
1252.875, 7.535227
1253.358, 8.310537
1253.840, 10.46501
1254.322, 13.27150
1254.804, 16.16132
1255.286, 14.97366
1255.768, 3.780666
1256.250, 3.051532
1256.732, 2.483203
1257.214, 0.9003360
1257.697, 2.249058
1258.179, 2.253232
1258.661, 1.095254
1259.143, 0.6911580
1259.625, 0.2409010
1260.107, 5.239592
1260.589, 10.56217
1261.071, 16.23194
1261.554, 19.80071
1262.036, 17.15507
1262.518, 12.03235
1263.000, 7.734622
1263.482, 4.859730
1263.964, 5.012061
1264.446, 9.408798
1264.928, 11.14380
1265.411, 9.129845
1265.893, 6.117748
1266.375, 3.838850
1266.857, 2.287984
1267.339, 1.108782
1267.821, 0.7958840
1268.303, 2.875212
1268.785, 7.630456
1269.267, 11.53758
1269.750, 14.24739
1270.232, 14.74453
1270.714, 10.58856
1271.196, 5.705446
1271.678, 2.057697
1272.160, 0.2841750
1272.642, 1.007790
1273.124, 0.2906750
1273.606, 1.954199
1274.089, 5.444223
1274.571, 8.337122
1275.053, 9.310265
1275.535, 9.680117
1276.017, 9.358013
1276.499, 9.224301
1276.981, 9.828571
1277.463, 10.74682
1277.946, 10.54481
1278.428, 9.373648
1278.910, 8.918197
1279.392, 10.23652
1279.874, 11.64935
1280.356, 14.08454
1280.838, 16.21896
1281.320, 15.32808
1281.802, 12.70031
1282.285, 9.784286
1282.767, 6.909714
1283.249, 5.264154
1283.731, 5.159909
1284.213, 6.685066
1284.695, 10.43668
1285.177, 13.56719
1285.659, 12.13411
1286.141, 9.596545
1286.624, 11.20064
1287.106, 15.12406
1287.588, 15.62105
1288.070, 10.75676
1288.552, 7.546268
1289.034, 6.215394
1289.516, 5.619194
1289.998, 4.592732
1290.481, 4.448468
1290.963, 8.374667
1291.445, 12.80437
1291.927, 11.02244
1292.409, 2.340183
1292.891, 0.1776210
1293.373, 4.457284
1293.855, 9.270254
1294.338, 12.05210
1294.820, 13.33701
1295.302, 12.70744
1295.784, 11.17879
1296.266, 8.803311
1296.748, 6.054320
1297.230, 7.693923
1297.712, 12.46581
1298.194, 14.71741
1298.677, 8.827239
1299.159, 5.348013
1299.641, 7.136686
1300.123, 9.015523
1300.605, 5.962548
1301.087, 0.7866020
1301.569, 0.1254530
1302.051, 2.334504
1302.533, 1.597985
1303.016, 0.0000000E+00
##END=



