##NAMES=Davidite-(La)
##RRUFFID=R070698
##IDEAL CHEMISTRY=La^3+^(Y^3+^,U^4+^)Fe^3+^_2_(Ti^4+^,Fe^3+^,Cr^3+^,V^5+^)_18_(O,OH,F)_38_
##LOCALITY=Pandora prospect, Covered Wells, Quijotoa District, Quijotoa Mts, Pima County, Arizona, USA
##OWNER=RRUFF
##SOURCE=Michael Scott
##DESCRIPTION=Black submetallic massive
##STATUS=The identification of this mineral is confirmed by single-crystal X-ray diffraction and chemical analysis.
##URL=rruff.info/R070698
##MEASURED CHEMISTRY=(La_0.48_Ce_0.35_Nd_0.03_Pr_0.01_Ca_0.13_)_∑=1.00_(U_0.32_Y_0.23_Sc_0.07_Ca_0.07_Th_0.05_)_∑=0.74_Fe_2_(Ti_12.42_Fe_4.24_Mg_0.29_Cr_0.25_Al_0.18_Zr_0.07_Mn_0.05_)_∑=17.50_O_38_
154.4830, 0.0000000E+00
154.9651, 6.807434
155.4472, 11.08844
155.9293, 9.709106
156.4115, 3.048767
156.8936, 0.3657530
157.3757, 0.3198240
157.8578, 2.326904
158.3399, 11.74875
158.8221, 21.11993
159.3042, 26.06616
159.7863, 19.34036
160.2684, 14.08258
160.7505, 15.40750
161.2326, 22.61249
161.7148, 30.19312
162.1969, 38.92233
162.6790, 45.75659
163.1611, 47.67612
163.6432, 37.93405
164.1253, 27.65631
164.6075, 22.80264
165.0896, 23.58701
165.5717, 26.07449
166.0538, 29.43695
166.5359, 32.88699
167.0180, 35.31769
167.5002, 35.56802
167.9823, 35.09485
168.4644, 35.13538
168.9465, 35.90686
169.4286, 36.31342
169.9107, 35.47870
170.3929, 33.65894
170.8750, 31.48807
171.3571, 26.93747
171.8392, 23.24878
172.3213, 25.32913
172.8034, 35.62335
173.2856, 45.55835
173.7677, 47.07156
174.2498, 41.46393
174.7319, 33.23090
175.2140, 21.23499
175.6961, 9.203491
176.1783, 2.937134
176.6604, 3.873474
177.1425, 10.29660
177.6246, 24.84097
178.1067, 45.61319
178.5888, 61.27295
179.0710, 60.03641
179.5531, 47.46039
180.0352, 35.26987
180.5173, 25.49936
180.9994, 18.32162
181.4815, 14.41330
181.9637, 13.71878
182.4458, 15.43561
182.9279, 20.62128
183.4100, 28.12610
183.8921, 33.71307
184.3742, 36.66666
184.8564, 37.41092
185.3385, 34.92264
185.8206, 30.02280
186.3027, 26.44266
186.7848, 29.81805
187.2669, 39.05505
187.7491, 46.48828
188.2312, 48.07944
188.7133, 44.52103
189.1954, 40.38803
189.6775, 35.53046
190.1596, 30.86929
190.6418, 27.40237
191.1239, 25.13953
191.6060, 23.71658
192.0881, 23.45276
192.5702, 24.15109
193.0524, 23.89893
193.5345, 22.43698
194.0166, 20.69809
194.4987, 20.29279
194.9808, 21.31143
195.4629, 22.30185
195.9451, 22.46750
196.4272, 21.83585
196.9093, 21.38870
197.3914, 21.04700
197.8735, 21.06299
198.3556, 22.94733
198.8378, 26.94794
199.3199, 28.97516
199.8020, 24.78058
200.2841, 13.62604
200.7662, 8.299072
201.2483, 10.99414
201.7305, 18.57690
202.2126, 23.83072
202.6947, 26.35281
203.1768, 27.07721
203.6589, 26.04422
204.1410, 22.96518
204.6232, 20.51767
205.1053, 19.03400
205.5874, 18.32785
206.0695, 17.82928
206.5516, 17.66254
207.0337, 17.37704
207.5159, 16.48489
207.9980, 14.74106
208.4801, 13.74313
208.9622, 14.21829
209.4443, 15.57919
209.9264, 14.37558
210.4086, 9.138977
210.8907, 4.279633
211.3728, 4.202118
211.8549, 11.30161
212.3370, 14.81100
212.8191, 11.95456
213.3013, 3.694885
213.7834, 2.348419
214.2655, 6.504181
214.7476, 7.931091
215.2297, 5.171326
215.7118, 3.497498
216.1940, 11.91861
216.6761, 19.77438
217.1582, 26.95822
217.6403, 29.63882
218.1224, 26.33151
218.6045, 20.47177
219.0867, 15.16629
219.5688, 10.60834
220.0509, 6.045929
220.5330, 0.1896360
221.0151, 7.201294
221.4972, 7.159729
221.9794, 4.715393
222.4615, 19.10794
222.9436, 25.95462
223.4257, 22.26767
223.9078, 17.00000
224.3899, 11.77173
224.8721, 6.373047
225.3542, 2.759369
225.8363, 0.5234680
226.3184, 0.4192200
226.8005, 3.991730
227.2827, 14.14157
227.7648, 22.38837
228.2469, 26.55084
228.7290, 26.29675
229.2111, 24.01352
229.6932, 17.09286
230.1754, 10.27606
230.6575, 10.64114
231.1396, 23.70862
231.6217, 34.14020
232.1038, 37.02417
232.5859, 30.63885
233.0681, 25.96472
233.5502, 23.63794
234.0323, 22.57239
234.5144, 20.86630
234.9965, 16.67538
235.4786, 15.11536
235.9608, 19.24380
236.4429, 31.72473
236.9250, 36.80075
237.4071, 30.45425
237.8892, 19.14334
238.3713, 13.17990
238.8535, 15.00317
239.3356, 18.16867
239.8177, 21.49606
240.2998, 26.28842
240.7819, 25.67795
241.2640, 16.18692
241.7462, 3.311096
242.2283, 3.212677
242.7104, 7.0708998E-02
243.1925, 4.011658
243.6746, 5.277588
244.1567, 2.348755
244.6389, 2.325836
245.1210, 7.449402
245.6031, 14.14365
246.0852, 15.42691
246.5673, 7.314575
247.0494, 0.6261900
247.5316, 8.4380999E-02
248.0137, 8.904358
248.4958, 12.61847
248.9779, 8.552460
249.4600, 0.8562320
249.9421, 2.679413
250.4243, 0.7454530
250.9064, 2.985046
251.3885, 8.079742
251.8706, 16.48401
252.3527, 19.23199
252.8348, 13.53308
253.3170, 3.921631
253.7991, 1.069916
254.2812, 0.4064940
254.7633, 3.024231
255.2454, 9.462738
255.7275, 21.33688
256.2097, 26.37906
256.6918, 21.36026
257.1739, 11.67017
257.6560, 7.385437
258.1381, 10.35776
258.6202, 14.95520
259.1024, 19.52930
259.5845, 24.42401
260.0666, 27.62537
260.5487, 28.79947
261.0308, 28.52231
261.5129, 27.90286
261.9951, 27.09598
262.4772, 25.57788
262.9593, 23.02585
263.4414, 19.18210
263.9235, 15.20703
264.4056, 10.36453
264.8878, 6.043365
265.3699, 4.972412
265.8520, 8.210419
266.3341, 11.65186
266.8162, 13.50214
267.2983, 13.29886
267.7805, 14.76587
268.2626, 19.09116
268.7447, 23.74182
269.2268, 23.36673
269.7089, 16.11386
270.1910, 10.52301
270.6732, 11.24969
271.1553, 19.43204
271.6374, 21.89844
272.1195, 16.67947
272.6016, 8.444489
273.0837, 5.311432
273.5659, 8.296051
274.0480, 11.21371
274.5301, 11.43021
275.0122, 8.804688
275.4943, 7.556061
275.9764, 7.948639
276.4586, 9.221130
276.9407, 10.30862
277.4228, 11.16687
277.9049, 12.12854
278.3870, 14.26022
278.8691, 17.24432
279.3513, 15.59039
279.8334, 7.840637
280.3155, 0.9769900
280.7976, 2.901093
281.2798, 2.458740
281.7619, 8.071136
282.2440, 11.89029
282.7261, 13.95633
283.2082, 13.34985
283.6903, 9.324829
284.1725, 5.375427
284.6546, 6.860626
285.1367, 13.52484
285.6188, 19.00861
286.1009, 20.46619
286.5830, 18.86319
287.0652, 18.31860
287.5473, 18.93210
288.0294, 20.02502
288.5115, 21.15753
288.9936, 22.26178
289.4757, 22.70761
289.9579, 21.79666
290.4400, 20.20041
290.9221, 20.52325
291.4042, 23.00357
291.8863, 24.45999
292.3684, 19.58536
292.8506, 10.20059
293.3327, 4.080414
293.8148, 4.910736
294.2969, 9.751495
294.7790, 13.12320
295.2611, 15.03485
295.7433, 16.51151
296.2254, 19.62210
296.7075, 23.17194
297.1896, 23.46701
297.6717, 17.38586
298.1538, 9.324097
298.6360, 6.414154
299.1181, 8.288605
299.6002, 10.94028
300.0823, 10.54614
300.5644, 8.679626
301.0465, 7.419434
301.5287, 7.452972
302.0108, 8.253815
302.4929, 9.749084
302.9750, 11.62885
303.4571, 12.74500
303.9392, 12.30039
304.4214, 11.11075
304.9035, 9.840027
305.3856, 8.091217
305.8677, 7.242950
306.3498, 9.173950
306.8319, 13.22729
307.3141, 17.14325
307.7962, 19.82309
308.2783, 21.58893
308.7604, 22.38235
309.2425, 21.81973
309.7246, 21.43356
310.2068, 22.27176
310.6889, 23.86612
311.1710, 24.42200
311.6531, 21.35394
312.1352, 17.94974
312.6173, 17.10181
313.0995, 20.99545
313.5816, 23.85437
314.0637, 20.87561
314.5458, 15.22495
315.0279, 11.85025
315.5100, 14.03738
315.9922, 17.95157
316.4743, 22.22839
316.9564, 27.35315
317.4385, 30.15155
317.9206, 28.10001
318.4027, 23.42926
318.8849, 19.25662
319.3670, 16.50269
319.8491, 14.31396
320.3312, 11.58569
320.8133, 7.549713
321.2954, 7.268402
321.7776, 15.58618
322.2597, 26.64062
322.7418, 34.18286
323.2239, 36.57965
323.7060, 36.11884
324.1881, 31.16302
324.6703, 20.93265
325.1524, 16.12155
325.6345, 22.91135
326.1166, 32.57123
326.5987, 38.11697
327.0808, 34.89990
327.5630, 33.03668
328.0451, 35.66180
328.5272, 42.31671
329.0093, 42.59659
329.4914, 30.39984
329.9735, 17.37183
330.4557, 11.36896
330.9378, 17.25507
331.4199, 21.78149
331.9020, 24.15097
332.3841, 24.42615
332.8662, 22.64368
333.3484, 17.66891
333.8305, 12.38156
334.3126, 8.414642
334.7947, 6.393494
335.2768, 3.664063
335.7589, 0.7838130
336.2411, 5.519958
336.7232, 6.457825
337.2053, 2.259247
337.6874, 1.845764
338.1695, 2.494415
338.6516, 1.181732
339.1338, 0.3833620
339.6159, 6.466339
340.0980, 15.25992
340.5801, 18.54544
341.0622, 15.84723
341.5443, 12.63226
342.0265, 10.22467
342.5086, 8.550568
342.9907, 9.326050
343.4728, 13.08511
343.9549, 17.16922
344.4370, 17.66779
344.9192, 14.98776
345.4013, 13.02798
345.8834, 13.25055
346.3655, 15.15994
346.8476, 18.78333
347.3297, 24.26013
347.8119, 27.33646
348.2940, 20.59503
348.7761, 7.724701
349.2582, 0.2143860
349.7403, 3.543396
350.2225, 11.24182
350.7046, 13.74652
351.1867, 11.72107
351.6688, 10.10260
352.1509, 13.73892
352.6331, 19.72653
353.1152, 23.62381
353.5973, 23.94598
354.0794, 22.89032
354.5615, 23.13757
355.0436, 23.77539
355.5258, 22.02786
356.0079, 11.65515
356.4900, 0.8435670
356.9721, 1.909973
357.4542, 7.395203
357.9363, 15.60645
358.4185, 13.84830
358.9006, 6.162201
359.3827, 0.4590450
359.8648, 5.050476
360.3469, 6.482819
360.8290, 2.428314
361.3112, 8.472046
361.7933, 16.18329
362.2754, 14.23267
362.7575, 8.745667
363.2396, 6.371094
363.7217, 13.06772
364.2039, 18.58884
364.6860, 20.23041
365.1681, 17.89111
365.6502, 14.18924
366.1323, 6.170258
366.6144, 1.177704
367.0966, 4.397400
367.5787, 0.2583620
368.0608, 4.670441
368.5429, 9.807678
369.0250, 14.77908
369.5071, 14.42661
369.9893, 2.381409
370.4714, 7.591858
370.9535, 7.938843
371.4356, 7.822906
371.9177, 18.33774
372.3998, 21.97433
372.8820, 20.92734
373.3641, 19.59598
373.8462, 17.47055
374.3283, 16.41232
374.8104, 18.19635
375.2925, 23.44846
375.7747, 23.11975
376.2568, 14.85297
376.7389, 5.670471
377.2210, 7.263672
377.7031, 20.65594
378.1852, 29.82849
378.6674, 28.07098
379.1495, 18.28766
379.6316, 12.83487
380.1137, 12.01782
380.5958, 13.17090
381.0779, 14.73373
381.5601, 16.45697
382.0422, 16.80103
382.5243, 14.75952
383.0064, 12.05627
383.4885, 12.43192
383.9706, 15.36667
384.4528, 16.99750
384.9349, 11.49979
385.4170, 3.793030
385.8991, 2.920990
386.3812, 11.94971
386.8633, 22.25876
387.3455, 26.44058
387.8276, 25.78326
388.3097, 23.25845
388.7918, 18.01474
389.2739, 13.00690
389.7560, 10.71759
390.2382, 11.45999
390.7203, 13.47537
391.2024, 16.55719
391.6845, 20.12253
392.1666, 23.54471
392.6487, 28.56229
393.1309, 31.53793
393.6130, 29.38608
394.0951, 22.47845
394.5772, 17.66733
395.0593, 18.97729
395.5414, 21.83722
396.0236, 23.27676
396.5057, 23.58633
396.9878, 21.67136
397.4699, 15.10037
397.9520, 5.786224
398.4341, 0.4001460
398.9163, 3.625824
399.3984, 3.492981
399.8805, 1.278015
400.3626, 14.28604
400.8447, 20.86276
401.3268, 17.70169
401.8090, 10.54379
402.2911, 7.397583
402.7732, 9.286224
403.2553, 12.70657
403.7374, 17.53006
404.2195, 23.54880
404.7017, 26.89957
405.1838, 27.32227
405.6659, 25.76328
406.1480, 22.50827
406.6301, 17.51123
407.1122, 12.96606
407.5944, 9.120575
408.0765, 6.203064
408.5586, 4.718536
409.0407, 4.657623
409.5228, 6.320496
410.0049, 12.00247
410.4871, 19.58896
410.9692, 22.80060
411.4513, 20.48352
411.9334, 15.87299
412.4155, 10.47446
412.8976, 5.416229
413.3798, 4.034546
413.8619, 11.69128
414.3440, 21.48642
414.8261, 26.27884
415.3082, 26.21564
415.7903, 23.86508
416.2725, 18.68292
416.7546, 13.08633
417.2367, 9.684906
417.7188, 10.83221
418.2009, 12.54034
418.6830, 13.88913
419.1652, 14.69537
419.6473, 14.23328
420.1294, 9.975647
420.6115, 6.137360
421.0937, 5.451813
421.5758, 10.90591
422.0579, 13.84726
422.5400, 10.16934
423.0221, 3.935272
423.5042, 1.793182
423.9864, 8.260254
424.4685, 13.91312
424.9506, 16.98975
425.4327, 17.89233
425.9148, 16.21396
426.3969, 9.812164
426.8791, 3.205200
427.3612, 0.5731200
427.8433, 3.103210
428.3254, 5.584045
428.8075, 8.573853
429.2896, 11.82092
429.7718, 10.74362
430.2539, 4.095367
430.7360, 0.3583680
431.2181, 4.604065
431.7002, 17.96301
432.1823, 23.71072
432.6645, 19.68961
433.1466, 12.60608
433.6287, 12.42111
434.1108, 17.71735
434.5929, 21.43033
435.0750, 19.31189
435.5572, 14.27060
436.0393, 11.17526
436.5214, 9.987671
437.0035, 9.758759
437.4856, 8.855225
437.9677, 8.709839
438.4499, 12.02441
438.9320, 22.60880
439.4141, 31.48019
439.8962, 30.43546
440.3783, 22.50769
440.8604, 15.48752
441.3426, 13.75516
441.8247, 13.42694
442.3068, 11.61224
442.7889, 7.516785
443.2710, 5.136139
443.7531, 7.814484
444.2353, 11.85837
444.7174, 13.23160
445.1995, 6.011566
445.6816, 1.933014
446.1637, 4.174133
446.6458, 12.07101
447.1280, 19.16379
447.6101, 27.17252
448.0922, 33.43591
448.5743, 35.53326
449.0564, 30.83658
449.5385, 29.39566
450.0207, 33.99167
450.5028, 40.03043
450.9849, 37.34299
451.4670, 23.87207
451.9491, 12.30954
452.4312, 8.606140
452.9134, 11.52536
453.3955, 10.08859
453.8776, 3.499634
454.3597, 1.767059
454.8418, 2.711639
455.3239, 14.54855
455.8061, 23.74808
456.2882, 28.13403
456.7703, 28.70905
457.2524, 26.29126
457.7345, 21.60339
458.2166, 16.70511
458.6988, 10.07578
459.1809, 5.052856
459.6630, 7.904816
460.1451, 21.00485
460.6272, 31.43579
461.1093, 27.45468
461.5915, 17.12115
462.0736, 10.51114
462.5557, 13.79465
463.0378, 18.60989
463.5199, 22.79657
464.0020, 25.84863
464.4842, 27.97968
464.9663, 30.82977
465.4484, 32.11371
465.9305, 30.38300
466.4126, 22.41742
466.8947, 17.07339
467.3769, 16.03189
467.8590, 16.88498
468.3411, 15.25516
468.8232, 8.565826
469.3053, 4.688538
469.7874, 6.655365
470.2696, 14.03503
470.7517, 18.72360
471.2338, 20.30081
471.7159, 20.69708
472.1980, 21.40097
472.6801, 22.42462
473.1623, 22.55066
473.6444, 21.28384
474.1265, 19.67624
474.6086, 19.58591
475.0907, 20.85336
475.5728, 22.44635
476.0550, 23.16208
476.5371, 24.09326
477.0192, 28.80850
477.5013, 37.54953
477.9834, 42.70328
478.4655, 33.92365
478.9477, 19.39398
479.4298, 10.10934
479.9119, 12.93658
480.3940, 17.05563
480.8761, 16.41296
481.3582, 12.55646
481.8404, 9.934143
482.3225, 10.83563
482.8046, 12.61008
483.2867, 14.09467
483.7688, 15.08499
484.2509, 16.21808
484.7331, 18.04959
485.2152, 19.69928
485.6973, 20.43408
486.1794, 20.01361
486.6615, 18.94385
487.1436, 16.36780
487.6258, 13.14035
488.1079, 14.07590
488.5900, 20.90680
489.0721, 27.08533
489.5542, 29.11761
490.0363, 27.00894
490.5185, 22.13940
491.0006, 13.75281
491.4827, 5.375061
491.9648, 1.605499
492.4470, 1.994751
492.9291, 4.430725
493.4112, 9.157288
493.8933, 14.66434
494.3754, 19.48138
494.8575, 23.36990
495.3397, 24.53989
495.8218, 18.46964
496.3039, 10.69391
496.7860, 8.250122
497.2681, 13.79996
497.7502, 17.88934
498.2324, 12.67752
498.7145, 3.773651
499.1966, 1.292328
499.6787, 3.109985
500.1608, 8.297455
500.6429, 11.53308
501.1251, 12.92197
501.6072, 15.20752
502.0893, 21.57578
502.5714, 26.27130
503.0535, 26.54672
503.5356, 21.25226
504.0178, 13.73053
504.4999, 1.417725
504.9820, 10.69711
505.4641, 14.63223
505.9462, 9.181152
506.4283, 1.667206
506.9105, 6.745819
507.3926, 15.39130
507.8747, 22.03043
508.3568, 26.72131
508.8389, 28.48819
509.3210, 24.39362
509.8032, 16.86087
510.2853, 12.57370
510.7674, 12.57269
511.2495, 14.94476
511.7316, 19.52933
512.2137, 24.87451
512.6959, 28.32700
513.1780, 28.70551
513.6601, 26.69238
514.1422, 21.59711
514.6243, 13.93298
515.1064, 7.064301
515.5886, 0.9469910
516.0707, 5.484131
516.5528, 2.675934
517.0349, 13.96899
517.5170, 25.41388
517.9991, 27.59854
518.4813, 24.43723
518.9634, 20.83887
519.4455, 15.54495
519.9276, 10.03207
520.4097, 2.856598
520.8918, 4.697601
521.3740, 3.014374
521.8561, 10.97162
522.3382, 24.04880
522.8203, 25.77612
523.3024, 17.00891
523.7845, 13.60013
524.2667, 17.44873
524.7488, 22.67709
525.2309, 20.90002
525.7130, 14.20511
526.1951, 10.09418
526.6772, 13.72153
527.1594, 18.71420
527.6415, 16.25616
528.1236, 8.052551
528.6057, 1.537506
529.0878, 2.3529001E-02
529.5699, 2.432709
530.0521, 9.912872
530.5342, 24.64566
531.0163, 34.99896
531.4984, 34.15750
531.9805, 28.47983
532.4626, 24.74454
532.9448, 24.31375
533.4269, 25.42496
533.9090, 29.72885
534.3911, 35.63443
534.8732, 36.21045
535.3553, 28.20071
535.8375, 21.57913
536.3196, 20.63251
536.8017, 25.81671
537.2838, 26.77905
537.7659, 22.56558
538.2480, 17.30609
538.7302, 16.16235
539.2123, 18.37280
539.6944, 18.49548
540.1765, 14.65018
540.6586, 9.498871
541.1407, 5.576752
541.6229, 3.217377
542.1050, 3.511200
542.5871, 9.351837
543.0692, 16.60092
543.5513, 20.82986
544.0334, 21.81433
544.5156, 24.35736
544.9977, 36.50113
545.4798, 47.79514
545.9619, 49.32205
546.4440, 29.03491
546.9261, 14.39548
547.4083, 12.31564
547.8904, 17.61548
548.3725, 21.20648
548.8546, 23.64386
549.3367, 23.32059
549.8188, 18.36014
550.3010, 9.531799
550.7831, 5.942780
551.2652, 8.605865
551.7473, 13.08426
552.2294, 17.52417
552.7115, 21.71967
553.1937, 20.60913
553.6758, 12.54187
554.1579, 4.946625
554.6400, 9.415955
555.1221, 22.08035
555.6042, 31.74222
556.0864, 33.30057
556.5685, 31.37555
557.0506, 29.43262
557.5327, 27.71817
558.0148, 25.98450
558.4969, 23.23929
558.9791, 21.12039
559.4612, 21.02679
559.9433, 23.64523
560.4254, 25.48935
560.9075, 25.74301
561.3896, 25.07080
561.8718, 24.05493
562.3539, 22.21075
562.8360, 20.05063
563.3181, 18.17761
563.8002, 17.08896
564.2823, 17.02271
564.7645, 18.09103
565.2466, 17.77249
565.7287, 13.26309
566.2108, 6.569885
566.6929, 9.422485
567.1750, 22.37125
567.6572, 33.94839
568.1393, 31.94495
568.6214, 21.94839
569.1035, 15.16852
569.5856, 13.70789
570.0677, 13.90799
570.5499, 13.14133
571.0320, 11.92383
571.5141, 11.06873
571.9962, 10.94275
572.4783, 11.16541
572.9604, 10.92032
573.4426, 10.47836
573.9247, 11.94013
574.4068, 23.04828
574.8889, 30.12720
575.3710, 24.83926
575.8531, 2.298737
576.3353, 5.348724
576.8174, 8.858032
577.2995, 27.73676
577.7816, 33.95340
578.2637, 26.00256
578.7458, 20.69379
579.2280, 21.89465
579.7101, 25.79346
580.1922, 24.75018
580.6743, 19.50705
581.1564, 14.20224
581.6385, 9.301178
582.1207, 5.971710
582.6028, 6.843201
583.0849, 11.42435
583.5670, 15.91727
584.0491, 17.55856
584.5313, 18.48883
585.0134, 20.84000
585.4955, 26.09271
585.9776, 28.92535
586.4597, 24.67090
586.9418, 18.59198
587.4240, 17.04022
587.9061, 25.30640
588.3882, 29.81683
588.8703, 27.60092
589.3524, 21.12051
589.8345, 17.81860
590.3167, 18.71085
590.7988, 19.67908
591.2809, 19.93256
591.7630, 19.15356
592.2451, 12.88568
592.7272, 0.7751160
593.2094, 8.173798
593.6915, 3.165588
594.1736, 9.858978
594.6557, 19.58493
595.1378, 24.44644
595.6199, 26.48718
596.1021, 24.88611
596.5842, 21.99335
597.0663, 21.16010
597.5485, 26.91672
598.0306, 31.31177
598.5127, 30.63745
598.9948, 26.16772
599.4769, 23.60358
599.9590, 25.47681
600.4412, 27.21198
600.9233, 27.16229
601.4054, 25.65149
601.8875, 23.61218
602.3696, 20.95502
602.8517, 18.01425
603.3339, 14.87903
603.8160, 11.59280
604.2981, 8.982056
604.7802, 7.044250
605.2623, 6.212006
605.7444, 8.400024
606.2266, 12.27371
606.7087, 14.64340
607.1908, 14.47421
607.6729, 13.14603
608.1550, 11.44989
608.6371, 9.431183
609.1193, 7.224823
609.6014, 2.409729
610.0835, 0.4489750
610.5656, 2.235870
611.0477, 11.82556
611.5298, 17.59512
612.0120, 17.62012
612.4941, 15.30643
612.9762, 12.32104
613.4583, 7.825073
613.9404, 6.066132
614.4225, 8.135895
614.9047, 11.37888
615.3868, 11.90274
615.8689, 9.892090
616.3510, 7.449005
616.8331, 4.218048
617.3152, 2.133972
617.7974, 6.505463
618.2795, 15.28174
618.7616, 20.75458
619.2437, 13.68536
619.7258, 5.401276
620.2079, 6.063721
620.6901, 16.08084
621.1722, 23.02917
621.6543, 20.96283
622.1364, 15.56024
622.6185, 10.06744
623.1006, 2.975952
623.5828, 0.2418820
624.0649, 2.237762
624.5470, 6.917389
625.0291, 9.751404
625.5112, 10.51562
625.9933, 10.45358
626.4755, 9.359772
626.9576, 8.135101
627.4397, 7.922913
627.9218, 8.933228
628.4039, 12.76572
628.8860, 25.89807
629.3682, 39.34250
629.8503, 37.22086
630.3324, 21.76636
630.8145, 9.925781
631.2966, 17.06485
631.7787, 27.63956
632.2609, 29.82352
632.7430, 19.43228
633.2251, 11.22217
633.7072, 8.388519
634.1893, 8.376648
634.6714, 10.58499
635.1536, 17.00674
635.6357, 19.80563
636.1178, 17.49088
636.5999, 12.25916
637.0820, 7.690552
637.5641, 3.799500
638.0463, 0.7221070
638.5284, 1.697144
639.0105, 3.135284
639.4926, 2.783386
639.9747, 0.7861940
640.4568, 1.961182
640.9390, 6.114075
641.4211, 10.01962
641.9032, 11.69760
642.3853, 11.01047
642.8674, 10.81680
643.3495, 11.43314
643.8317, 13.49475
644.3138, 17.71597
644.7959, 26.50461
645.2780, 33.23596
645.7601, 40.01498
646.2422, 42.90894
646.7244, 34.39279
647.2065, 10.54901
647.6886, 3.434296
648.1707, 1.151306
648.6528, 10.49014
649.1349, 21.27304
649.6171, 30.35275
650.0992, 32.25696
650.5813, 15.87241
651.0634, 4.307281
651.5455, 7.130493
652.0276, 4.658630
652.5098, 16.30219
652.9919, 20.02484
653.4740, 21.23035
653.9561, 23.41891
654.4382, 27.38950
654.9203, 29.55139
655.4025, 31.02429
655.8846, 29.32065
656.3667, 21.32156
656.8488, 1.964203
657.3309, 8.237671
657.8130, 7.273529
658.2952, 0.4307250
658.7773, 12.51120
659.2594, 28.03854
659.7415, 33.45471
660.2236, 21.30652
660.7057, 3.986694
661.1879, 0.5462650
661.6700, 6.707703
662.1521, 10.60236
662.6342, 1.804749
663.1163, 7.059967
663.5984, 7.686310
664.0806, 0.7342530
664.5627, 6.769714
665.0448, 17.82208
665.5269, 24.47815
666.0090, 21.61469
666.4911, 7.053223
666.9733, 0.1378780
667.4554, 2.286804
667.9375, 7.473877
668.4196, 10.07690
668.9017, 10.14233
669.3839, 11.82062
669.8660, 15.85400
670.3481, 19.74451
670.8302, 20.22620
671.3123, 18.38861
671.7944, 16.57562
672.2766, 15.64105
672.7587, 14.72949
673.2408, 12.42670
673.7229, 9.839661
674.2050, 9.087036
674.6871, 13.84106
675.1693, 17.11273
675.6514, 14.94122
676.1335, 9.129150
676.6156, 10.29681
677.0977, 22.76318
677.5798, 32.27710
678.0620, 30.87274
678.5441, 20.03577
679.0262, 15.22711
679.5083, 16.78601
679.9904, 18.16693
680.4725, 11.08441
680.9547, 1.154602
681.4368, 5.4016002E-02
681.9189, 10.07904
682.4010, 18.71387
682.8831, 13.59790
683.3652, 4.372498
683.8474, 0.9963990
684.3295, 10.61426
684.8116, 18.32745
685.2937, 20.86725
685.7758, 20.85742
686.2579, 21.60480
686.7401, 23.72375
687.2222, 24.86664
687.7043, 24.42938
688.1864, 22.93958
688.6685, 21.47607
689.1506, 20.05249
689.6328, 18.85388
690.1149, 17.18292
690.5970, 16.28571
691.0791, 18.88947
691.5612, 24.32623
692.0433, 29.10144
692.5255, 32.29230
693.0076, 33.55835
693.4897, 31.60114
693.9718, 25.90088
694.4539, 22.88910
694.9360, 27.82471
695.4182, 31.55792
695.9003, 27.34375
696.3824, 10.54816
696.8645, 7.427917
697.3466, 22.37018
697.8287, 39.91681
698.3109, 42.26086
698.7930, 31.86609
699.2751, 21.63666
699.7572, 13.32092
700.2393, 7.701538
700.7214, 5.789673
701.2036, 7.139160
701.6857, 11.10693
702.1678, 22.14417
702.6499, 30.29486
703.1320, 30.08057
703.6141, 24.27478
704.0963, 19.71222
704.5784, 15.40350
705.0605, 14.64502
705.5426, 19.69391
706.0247, 28.84082
706.5068, 32.39142
706.9890, 29.74292
707.4711, 25.84192
707.9532, 23.26868
708.4353, 21.31372
708.9174, 17.14545
709.3995, 11.18591
709.8817, 7.342896
710.3638, 9.178467
710.8459, 12.72876
711.3280, 14.97467
711.8101, 15.69110
712.2922, 14.22382
712.7744, 5.984253
713.2565, 1.207092
713.7386, 2.054443
714.2207, 6.098022
714.7028, 14.23065
715.1849, 22.96857
715.6671, 30.01929
716.1492, 32.25946
716.6313, 29.62878
717.1134, 25.95514
717.5955, 21.70081
718.0776, 17.27081
718.5598, 12.26721
719.0419, 7.620972
719.5240, 5.193787
720.0061, 7.120605
720.4882, 9.580994
720.9703, 9.885742
721.4525, 9.486023
721.9346, 11.37280
722.4167, 18.79169
722.8988, 24.07788
723.3809, 26.11121
723.8630, 24.93176
724.3452, 18.94604
724.8273, 6.929321
725.3094, 0.9998170
725.7915, 2.125549
726.2736, 11.99469
726.7557, 18.45093
727.2379, 21.57709
727.7200, 22.03033
728.2021, 16.09247
728.6842, 10.60596
729.1663, 12.74463
729.6484, 23.35553
730.1306, 31.30823
730.6127, 33.89044
731.0948, 32.36676
731.5769, 26.45380
732.0590, 13.48578
732.5411, 7.518921
733.0233, 10.01257
733.5054, 16.23346
733.9875, 24.79602
734.4696, 34.44012
734.9517, 33.60522
735.4338, 19.45288
735.9160, 4.332031
736.3981, 0.8242190
736.8802, 4.438354
737.3623, 9.032288
737.8444, 14.91565
738.3266, 17.77148
738.8087, 11.47546
739.2908, 2.694702
739.7729, 1.669312
740.2551, 15.38068
740.7372, 24.49933
741.2193, 25.66425
741.7014, 22.05969
742.1835, 19.67194
742.6656, 18.51495
743.1478, 19.35858
743.6299, 23.72144
744.1120, 28.61951
744.5941, 29.16772
745.0762, 26.23724
745.5583, 22.53979
746.0405, 17.09064
746.5226, 13.43628
747.0047, 15.29285
747.4868, 21.40869
747.9689, 24.42218
748.4510, 21.75043
748.9332, 17.97656
749.4153, 13.50415
749.8974, 8.727173
750.3795, 8.954468
750.8616, 14.86444
751.3438, 20.47723
751.8259, 21.78271
752.3080, 20.14508
752.7901, 17.90967
753.2722, 14.91852
753.7543, 13.16766
754.2365, 13.47046
754.7186, 15.89142
755.2007, 22.09473
755.6828, 33.87549
756.1649, 39.74890
756.6470, 33.02148
757.1292, 23.76801
757.6113, 17.80066
758.0934, 15.94562
758.5755, 13.24042
759.0576, 8.965576
759.5397, 6.158447
760.0219, 10.36359
760.5040, 18.74023
760.9861, 20.98340
761.4682, 14.25055
761.9503, 8.156616
762.4324, 12.62915
762.9146, 21.10468
763.3967, 25.56061
763.8788, 21.66614
764.3609, 17.77985
764.8430, 14.21246
765.3251, 11.93573
765.8073, 12.55353
766.2894, 17.14606
766.7715, 20.22079
767.2536, 20.61160
767.7357, 19.92313
768.2178, 20.91223
768.7000, 23.20963
769.1821, 25.31659
769.6642, 27.03931
770.1463, 27.94965
770.6284, 27.08716
771.1105, 25.21210
771.5927, 23.81378
772.0748, 24.09442
772.5569, 24.12631
773.0390, 24.19379
773.5211, 23.59470
774.0032, 19.25372
774.4854, 8.795135
774.9675, 4.417206
775.4496, 12.62360
775.9317, 26.24112
776.4138, 23.71198
776.8959, 8.418030
777.3781, 1.419189
777.8602, 10.05429
778.3423, 25.97028
778.8244, 32.41132
779.3065, 30.99136
779.7886, 29.32672
780.2708, 31.97031
780.7529, 32.34924
781.2350, 26.25531
781.7171, 15.01379
782.1992, 9.802063
782.6813, 11.81601
783.1635, 15.33514
783.6456, 18.76880
784.1277, 21.28806
784.6098, 18.57626
785.0919, 11.32190
785.5740, 6.199097
786.0562, 9.821686
786.5383, 15.79758
787.0204, 18.58002
787.5025, 17.51630
787.9846, 16.73584
788.4667, 17.43872
788.9489, 18.40155
789.4310, 19.02319
789.9131, 19.24036
790.3952, 20.44336
790.8773, 22.79312
791.3594, 25.15884
791.8416, 26.59238
792.3237, 27.37894
792.8058, 29.51755
793.2879, 33.02194
793.7700, 32.62329
794.2521, 16.84991
794.7343, 0.8879090
795.2164, 0.2876590
795.6985, 22.50375
796.1806, 33.20465
796.6627, 20.41470
797.1448, 4.919739
797.6270, 0.3974000
798.1091, 8.666962
798.5912, 15.37250
799.0733, 20.66595
799.5554, 23.31982
800.0375, 20.73239
800.5197, 14.96429
801.0018, 9.211395
801.4839, 3.567719
801.9660, 1.319366
802.4481, 7.851288
802.9302, 16.55161
803.4124, 21.85727
803.8945, 21.79456
804.3766, 20.62369
804.8587, 17.35623
805.3408, 14.32175
805.8229, 14.25543
806.3051, 17.15497
806.7872, 17.60324
807.2693, 14.89938
807.7514, 11.17868
808.2335, 8.617615
808.7156, 6.459717
809.1978, 2.962952
809.6799, 3.490875
810.1620, 6.935486
810.6441, 2.164917
811.1262, 5.388733
811.6083, 10.40262
812.0905, 13.80661
812.5726, 12.62717
813.0547, 4.033173
813.5368, 3.773010
814.0189, 2.671661
814.5010, 19.97891
814.9832, 26.63052
815.4653, 17.65060
815.9474, 6.840607
816.4295, 7.644348
816.9116, 14.28040
817.3937, 19.51859
817.8759, 22.51999
818.3580, 22.15787
818.8401, 15.17664
819.3222, 6.755066
819.8043, 1.120514
820.2864, 2.087250
820.7686, 0.2747190
821.2507, 10.04617
821.7328, 20.67273
822.2149, 23.52985
822.6970, 20.45953
823.1791, 14.83755
823.6613, 5.411255
824.1434, 0.4956050
824.6255, 11.69644
825.1076, 27.72842
825.5897, 35.87384
826.0718, 24.90741
826.5540, 19.17267
827.0361, 21.60974
827.5182, 25.92236
828.0003, 23.70499
828.4824, 15.27780
828.9645, 9.884338
829.4467, 9.822662
829.9288, 11.45706
830.4109, 11.48752
830.8930, 10.09555
831.3751, 7.108887
831.8572, 0.8223270
832.3394, 3.141083
832.8215, 0.8526310
833.3036, 3.723633
833.7857, 5.836700
834.2678, 3.692627
834.7499, 5.066406
835.2321, 11.83939
835.7142, 18.99847
836.1963, 19.87924
836.6784, 15.66431
837.1605, 9.641327
837.6426, 1.439301
838.1248, 3.312378
838.6069, 4.543457
839.0890, 15.95911
839.5711, 20.23566
840.0532, 6.315918
840.5353, 2.206848
841.0175, 16.04056
841.4996, 33.32007
841.9817, 39.19547
842.4638, 33.36227
842.9459, 23.83817
843.4280, 10.55557
843.9102, 1.288940
844.3923, 3.305420
844.8744, 0.5564580
845.3565, 4.417877
845.8386, 7.594910
846.3207, 8.854401
846.8029, 5.446686
847.2850, 1.456238
847.7671, 0.6419070
848.2492, 4.869537
848.7313, 6.738739
849.2134, 5.262085
849.6956, 4.004364
850.1777, 7.741333
850.6598, 14.72290
851.1419, 19.03842
851.6240, 19.98218
852.1061, 18.34009
852.5883, 12.43637
853.0704, 5.631500
853.5525, 0.7926640
854.0346, 1.757477
854.5167, 1.673309
854.9988, 3.263000
855.4810, 7.960632
855.9631, 8.184723
856.4452, 3.834930
856.9273, 1.271332
857.4094, 0.6348880
857.8915, 1.918030
858.3737, 7.196686
858.8558, 13.35840
859.3379, 15.79474
859.8200, 13.65826
860.3021, 12.30817
860.7842, 16.70593
861.2664, 19.78851
861.7485, 16.66486
862.2306, 6.335632
862.7127, 1.929626
863.1948, 3.910492
863.6769, 6.797363
864.1591, 6.551697
864.6412, 4.673035
865.1233, 5.360321
865.6054, 8.231842
866.0875, 10.05011
866.5696, 8.615723
867.0518, 5.710449
867.5339, 1.041595
868.0160, 5.570099
868.4981, 6.463745
868.9802, 0.9649660
869.4623, 7.970734
869.9445, 9.606079
870.4266, 7.513062
870.9087, 11.29224
871.3908, 19.95642
871.8729, 24.18890
872.3550, 10.72223
872.8372, 3.741547
873.3193, 2.018524
873.8014, 12.77866
874.2835, 21.23666
874.7656, 10.92136
875.2477, 3.511444
875.7299, 5.822876
876.2120, 14.81534
876.6941, 18.10831
877.1762, 15.71136
877.6583, 14.07199
878.1404, 17.24713
878.6226, 21.41306
879.1047, 20.17737
879.5869, 15.23322
880.0690, 12.32187
880.5511, 14.68311
881.0332, 18.22794
881.5153, 23.66040
881.9974, 28.91953
882.4796, 29.03189
882.9617, 22.83255
883.4438, 18.39774
883.9259, 18.62820
884.4080, 19.50900
884.8901, 12.04944
885.3723, 0.4515080
885.8544, 5.213593
886.3365, 1.948822
886.8186, 10.10526
887.3007, 15.76312
887.7828, 18.55945
888.2650, 17.47427
888.7471, 9.341278
889.2292, 6.909637
889.7113, 13.30768
890.1934, 20.75436
890.6755, 17.74155
891.1577, 7.771271
891.6398, 2.370911
892.1219, 4.508301
892.6040, 7.459991
893.0861, 5.922516
893.5682, 3.334656
894.0504, 3.095520
894.5325, 7.141602
895.0146, 9.554321
895.4967, 9.237823
895.9788, 9.117615
896.4609, 13.67249
896.9431, 21.45053
897.4252, 23.22662
897.9073, 18.46091
898.3894, 13.93069
898.8715, 17.64450
899.3536, 21.74677
899.8358, 17.30402
900.3179, 2.183136
900.8000, 4.497772
901.2821, 5.381073
901.7642, 14.44827
902.2463, 13.89197
902.7285, 5.718384
903.2106, 2.872894
903.6927, 5.183807
904.1748, 7.707977
904.6569, 6.440186
905.1390, 4.548370
905.6212, 5.738464
906.1033, 9.290710
906.5854, 11.71176
907.0675, 10.31549
907.5496, 9.787689
908.0317, 11.44403
908.5139, 14.58023
908.9960, 18.10095
909.4781, 22.18030
909.9602, 22.20676
910.4423, 13.82184
910.9244, 4.899506
911.4066, 4.934692
911.8887, 10.99969
912.3708, 18.10355
912.8529, 27.31921
913.3350, 34.13309
913.8171, 38.65747
914.2993, 39.72498
914.7814, 33.95432
915.2635, 20.52502
915.7456, 11.38184
916.2277, 8.428802
916.7098, 8.867828
917.1920, 11.79721
917.6741, 15.13727
918.1562, 15.60229
918.6383, 11.89926
919.1204, 7.597809
919.6025, 0.3286130
920.0847, 4.224701
920.5668, 0.5736080
921.0489, 13.71860
921.5310, 17.27386
922.0131, 8.672852
922.4952, 1.087280
922.9774, 8.402985
923.4595, 21.94370
923.9416, 29.57278
924.4237, 30.94006
924.9058, 28.78079
925.3879, 17.46970
925.8701, 8.987488
926.3522, 10.72897
926.8343, 21.35095
927.3164, 24.52902
927.7985, 19.47989
928.2806, 14.38898
928.7628, 12.37268
929.2449, 13.40463
929.7270, 20.01651
930.2091, 29.67142
930.6912, 35.29321
931.1733, 31.22705
931.6555, 27.28210
932.1376, 26.52640
932.6197, 27.17551
933.1018, 26.00656
933.5839, 22.68213
934.0660, 20.95105
934.5482, 22.30002
935.0303, 22.87616
935.5124, 14.73358
935.9945, 3.106354
936.4766, 2.365814
936.9587, 2.518280
937.4409, 7.881653
937.9230, 11.83878
938.4051, 14.07196
938.8872, 13.60190
939.3693, 9.287781
939.8514, 9.991333
940.3336, 16.46475
940.8157, 22.42593
941.2978, 22.27679
941.7799, 18.52805
942.2620, 13.92657
942.7441, 8.858124
943.2263, 5.207153
943.7084, 4.406555
944.1905, 5.032440
944.6726, 5.734772
945.1547, 6.695923
945.6368, 10.66202
946.1190, 17.98965
946.6011, 22.65527
947.0832, 20.58594
947.5653, 15.93579
948.0474, 14.09277
948.5295, 14.00766
949.0117, 13.23288
949.4938, 7.063293
949.9759, 5.280182
950.4580, 11.78683
950.9401, 21.71396
951.4222, 28.51926
951.9044, 32.29944
952.3865, 31.59735
952.8686, 25.41776
953.3507, 18.01065
953.8328, 10.82446
954.3149, 6.646210
954.7971, 11.80646
955.2792, 31.98801
955.7613, 40.25601
956.2434, 24.39944
956.7255, 6.693085
957.2076, 0.5423890
957.6898, 5.639587
958.1719, 11.69168
958.6540, 18.43881
959.1361, 24.03513
959.6182, 27.27246
960.1003, 27.33884
960.5825, 20.61182
961.0646, 8.929993
961.5467, 3.325806
962.0288, 10.08990
962.5109, 16.67010
962.9930, 20.91089
963.4752, 22.47729
963.9573, 18.61960
964.4394, 10.40210
964.9215, 4.485992
965.4036, 4.046875
965.8857, 4.634674
966.3679, 1.104248
966.8500, 2.927795
967.3321, 2.584167
967.8142, 5.225891
968.2963, 13.88577
968.7784, 25.58502
969.2606, 33.39719
969.7427, 26.00281
970.2248, 8.581909
970.7069, 0.9486080
971.1890, 4.526062
971.6711, 9.530029
972.1533, 10.10223
972.6354, 9.478119
973.1175, 9.751343
973.5996, 10.98938
974.0817, 11.93668
974.5638, 12.79575
975.0460, 12.55325
975.5281, 9.651489
976.0102, 6.411591
976.4923, 8.888794
976.9744, 15.25769
977.4565, 20.10852
977.9387, 19.13440
978.4208, 18.85959
978.9029, 23.45706
979.3850, 28.68900
979.8671, 29.10449
980.3492, 24.07718
980.8314, 16.21967
981.3135, 4.590179
981.7956, 5.103943
982.2777, 6.305969
982.7598, 1.923187
983.2419, 7.054749
983.7241, 21.85895
984.2062, 28.77228
984.6883, 12.46313
985.1704, 1.103302
985.6525, 1.612366
986.1346, 18.48157
986.6168, 26.24249
987.0989, 25.15759
987.5810, 23.17139
988.0631, 25.03979
988.5452, 27.93930
989.0273, 29.69357
989.5095, 30.33527
989.9916, 29.89618
990.4737, 27.24197
990.9558, 25.43466
991.4379, 25.41299
991.9200, 25.57031
992.4022, 22.49313
992.8843, 17.24072
993.3664, 14.78128
993.8485, 16.45203
994.3306, 17.67709
994.8127, 14.20496
995.2949, 10.51724
995.7770, 10.91934
996.2591, 16.28644
996.7412, 21.29065
997.2233, 26.48215
997.7054, 29.08997
998.1876, 25.96280
998.6697, 19.63474
999.1518, 15.76227
999.6339, 13.75717
1000.116, 11.21243
1000.598, 3.147064
1001.080, 1.113037
1001.562, 4.461975
1002.044, 14.52753
1002.527, 19.83685
1003.009, 20.10480
1003.491, 18.79300
1003.973, 16.10986
1004.455, 13.72855
1004.937, 13.63034
1005.419, 14.91742
1005.901, 17.02527
1006.384, 20.75766
1006.866, 21.10950
1007.348, 15.64859
1007.830, 9.736847
1008.312, 6.342560
1008.794, 5.102692
1009.276, 4.011627
1009.758, 3.131195
1010.240, 2.918579
1010.723, 5.696960
1011.205, 7.199188
1011.687, 1.300171
1012.169, 7.590729
1012.651, 6.927155
1013.133, 8.608002
1013.615, 17.97485
1014.097, 16.70328
1014.580, 11.88821
1015.062, 13.67908
1015.544, 19.09290
1016.026, 22.23364
1016.508, 21.90259
1016.990, 19.67270
1017.472, 12.64462
1017.954, 7.304504
1018.436, 8.060455
1018.919, 14.52228
1019.401, 18.72830
1019.883, 20.74561
1020.365, 20.85419
1020.847, 18.22925
1021.329, 14.60428
1021.811, 10.05862
1022.293, 5.985107
1022.776, 5.821045
1023.258, 13.21365
1023.740, 19.78854
1024.222, 24.85254
1024.704, 28.35178
1025.186, 31.11960
1025.668, 32.92850
1026.150, 31.45834
1026.632, 26.21143
1027.115, 20.31305
1027.597, 14.12463
1028.079, 9.247650
1028.561, 7.005615
1029.043, 7.329437
1029.525, 7.859253
1030.007, 8.624329
1030.489, 8.960022
1030.972, 7.389526
1031.454, 6.561798
1031.936, 13.61682
1032.418, 23.83289
1032.900, 27.02917
1033.382, 10.61441
1033.864, 0.4631650
1034.346, 1.228241
1034.828, 6.210571
1035.311, 8.143738
1035.793, 7.547638
1036.275, 7.329193
1036.757, 7.718018
1037.239, 9.728394
1037.721, 19.16931
1038.203, 26.12701
1038.685, 20.07401
1039.167, 2.919983
1039.650, 4.547791
1040.132, 4.2571999E-02
1040.614, 6.191559
1041.096, 10.35556
1041.578, 13.41455
1042.060, 18.09271
1042.542, 22.50909
1043.024, 22.74802
1043.507, 15.06979
1043.989, 8.813812
1044.471, 4.698151
1044.953, 3.433899
1045.435, 6.587891
1045.917, 13.70926
1046.399, 19.36105
1046.881, 23.40494
1047.364, 25.76917
1047.846, 27.60965
1048.328, 26.64117
1048.810, 17.67130
1049.292, 4.085907
1049.774, 0.8728330
1050.256, 12.53772
1050.738, 18.41721
1051.220, 13.20947
1051.703, 3.894531
1052.185, 1.515808
1052.667, 3.249786
1053.149, 0.7974850
1053.631, 7.099701
1054.113, 13.63336
1054.595, 18.11578
1055.077, 19.32880
1055.559, 14.63181
1056.042, 5.721832
1056.524, 5.613007
1057.006, 13.21844
1057.488, 19.64651
1057.970, 19.82159
1058.452, 17.51611
1058.934, 12.86514
1059.416, 8.126251
1059.899, 7.650299
1060.381, 13.57483
1060.863, 15.37964
1061.345, 11.07916
1061.827, 7.473358
1062.309, 15.84286
1062.791, 27.31070
1063.273, 25.64319
1063.755, 9.979462
1064.238, 1.264465
1064.720, 13.26666
1065.202, 22.40118
1065.684, 20.52667
1066.166, 12.03802
1066.648, 8.817749
1067.130, 10.08704
1067.612, 12.56104
1068.094, 16.32538
1068.577, 18.35361
1069.059, 15.01031
1069.541, 10.24332
1070.023, 7.943939
1070.505, 8.179871
1070.987, 9.211731
1071.469, 10.95078
1071.951, 12.60312
1072.434, 13.85742
1072.916, 14.57022
1073.398, 12.51712
1073.880, 9.796814
1074.362, 13.02539
1074.844, 33.89517
1075.326, 41.86249
1075.808, 29.39740
1076.291, 10.45917
1076.773, 3.768433
1077.255, 5.597595
1077.737, 9.074280
1078.219, 13.37753
1078.701, 16.72733
1079.183, 16.99139
1079.665, 17.31073
1080.147, 20.30576
1080.630, 24.82755
1081.112, 22.06641
1081.594, 12.43494
1082.076, 8.974121
1082.558, 20.22873
1083.040, 32.49280
1083.522, 32.22876
1084.004, 26.09448
1084.486, 22.99350
1084.969, 24.72266
1085.451, 27.84085
1085.933, 32.68527
1086.415, 35.20450
1086.897, 30.81021
1087.379, 22.90195
1087.861, 16.20947
1088.343, 11.17139
1088.826, 9.014832
1089.308, 14.69745
1089.790, 16.85452
1090.272, 11.91156
1090.754, 4.669159
1091.236, 2.977844
1091.718, 5.696228
1092.200, 7.760559
1092.682, 8.401306
1093.165, 8.565430
1093.647, 7.875549
1094.129, 7.821747
1094.611, 9.973114
1095.093, 13.77795
1095.575, 15.00421
1096.057, 13.53659
1096.539, 12.07327
1097.022, 10.63962
1097.504, 11.38242
1097.986, 21.77313
1098.468, 34.10254
1098.950, 37.04379
1099.432, 23.17896
1099.914, 15.96457
1100.396, 17.10773
1100.879, 19.70755
1101.361, 18.47897
1101.843, 15.45584
1102.325, 13.98593
1102.807, 14.16162
1103.289, 16.14905
1103.771, 22.57388
1104.253, 27.42145
1104.735, 29.97440
1105.218, 30.34277
1105.700, 28.00867
1106.182, 23.49213
1106.664, 19.25674
1107.146, 15.52454
1107.628, 12.16541
1108.110, 7.966705
1108.592, 5.222351
1109.074, 5.455231
1109.557, 8.155945
1110.039, 12.06763
1110.521, 17.22437
1111.003, 21.09735
1111.485, 22.61349
1111.967, 23.01617
1112.449, 24.25372
1112.931, 24.53894
1113.414, 20.67432
1113.896, 10.37753
1114.378, 8.140991
1114.860, 15.92368
1115.342, 23.20422
1115.824, 23.45316
1116.306, 20.13098
1116.788, 17.85254
1117.271, 16.44537
1117.753, 15.63528
1118.235, 14.76260
1118.717, 15.37057
1119.199, 18.22522
1119.681, 21.36450
1120.163, 22.68365
1120.645, 22.57962
1121.127, 22.49701
1121.609, 22.34259
1122.092, 20.65244
1122.574, 15.27731
1123.056, 9.829407
1123.538, 4.141357
1124.020, 8.0048002E-02
1124.502, 3.258911
1124.984, 12.46970
1125.466, 17.40930
1125.949, 16.01529
1126.431, 11.55643
1126.913, 0.3441470
1127.395, 7.945160
1127.877, 3.374634
1128.359, 11.73157
1128.841, 19.03207
1129.323, 18.26175
1129.806, 14.23517
1130.288, 7.439972
1130.770, 0.8670350
1131.252, 3.248566
1131.734, 4.909088
1132.216, 3.247223
1132.698, 4.075287
1133.180, 4.802734
1133.662, 3.269318
1134.145, 8.618652
1134.627, 1.156403
1135.109, 11.71869
1135.591, 20.86819
1136.073, 25.77179
1136.555, 24.87164
1137.037, 9.700806
1137.519, 1.042908
1138.001, 1.671692
1138.484, 5.709869
1138.966, 7.503082
1139.448, 7.885895
1139.930, 8.476807
1140.412, 9.479095
1140.894, 11.50522
1141.376, 19.90231
1141.858, 22.00919
1142.341, 10.57446
1142.823, 4.355011
1143.305, 1.356476
1143.787, 14.97568
1144.269, 23.76324
1144.751, 21.13638
1145.233, 15.26703
1145.715, 6.388611
1146.198, 0.1277770
1146.680, 0.1497800
1147.162, 4.406647
1147.644, 8.967102
1148.126, 13.51279
1148.608, 17.69397
1149.090, 21.91513
1149.572, 24.56473
1150.054, 23.86755
1150.536, 21.37494
1151.019, 17.89227
1151.501, 13.16052
1151.983, 13.43210
1152.465, 19.01303
1152.947, 22.00378
1153.429, 15.29636
1153.911, 7.301453
1154.393, 6.494354
1154.876, 9.861938
1155.358, 12.40271
1155.840, 14.18677
1156.322, 12.82458
1156.804, 7.730164
1157.286, 4.273834
1157.768, 10.15860
1158.250, 18.93979
1158.733, 22.58170
1159.215, 21.84927
1159.697, 20.61768
1160.179, 19.96857
1160.661, 17.23203
1161.143, 10.64328
1161.625, 6.506683
1162.107, 16.92267
1162.589, 32.50873
1163.072, 35.84467
1163.554, 26.44409
1164.036, 19.33551
1164.518, 19.74741
1165.000, 20.24710
1165.482, 19.17108
1165.964, 17.23038
1166.446, 15.90027
1166.928, 14.68762
1167.411, 11.55780
1167.893, 5.358215
1168.375, 3.231293
1168.857, 11.01709
1169.339, 19.10944
1169.821, 24.39645
1170.303, 27.07153
1170.785, 26.45654
1171.268, 23.38467
1171.750, 20.47446
1172.232, 18.33600
1172.714, 17.06766
1173.196, 19.04852
1173.678, 19.51770
1174.160, 14.56647
1174.642, 5.406708
1175.125, 0.8316350
1175.607, 3.858307
1176.089, 1.357330
1176.571, 11.81427
1177.053, 23.98514
1177.535, 32.47302
1178.017, 35.91599
1178.499, 31.18817
1178.981, 18.39520
1179.464, 8.971222
1179.946, 3.197113
1180.428, 3.162750
1180.910, 17.04111
1181.392, 29.47903
1181.874, 31.65015
1182.356, 27.49707
1182.838, 21.61765
1183.320, 13.74133
1183.803, 12.75284
1184.285, 19.59271
1184.767, 24.27338
1185.249, 12.99408
1185.731, 2.832947
1186.213, 8.015381
1186.695, 22.66910
1187.177, 31.27618
1187.660, 33.76648
1188.142, 29.68643
1188.624, 18.01096
1189.106, 7.384003
1189.588, 6.347900
1190.070, 9.453308
1190.552, 13.39581
1191.034, 17.36047
1191.516, 19.37100
1191.999, 19.34134
1192.481, 17.40204
1192.963, 12.16525
1193.445, 7.782379
1193.927, 9.722229
1194.409, 13.84961
1194.891, 16.49658
1195.373, 17.35605
1195.855, 14.45099
1196.338, 6.838196
1196.820, 3.912506
1197.302, 10.95975
1197.784, 20.81104
1198.266, 29.50769
1198.748, 34.29892
1199.230, 29.36304
1199.712, 11.44638
1200.195, 4.228577
1200.677, 8.829926
1201.159, 14.20911
1201.641, 13.68518
1202.123, 11.20642
1202.605, 9.621765
1203.087, 9.942474
1203.569, 14.76227
1204.052, 28.84903
1204.534, 31.56223
1205.016, 20.85156
1205.498, 11.65189
1205.980, 16.79843
1206.462, 26.97983
1206.944, 33.52942
1207.426, 36.42603
1207.908, 35.01840
1208.391, 27.67245
1208.873, 21.24463
1209.355, 15.82706
1209.837, 12.05890
1210.319, 11.63028
1210.801, 12.27475
1211.283, 11.06494
1211.765, 8.677338
1212.247, 8.186707
1212.730, 11.65005
1213.212, 10.11377
1213.694, 1.317139
1214.176, 6.049225
1214.658, 1.345337
1215.140, 7.723663
1215.622, 13.80783
1216.104, 16.25052
1216.587, 13.91620
1217.069, 3.231628
1217.551, 1.119446
1218.033, 4.276703
1218.515, 11.78802
1218.997, 11.41235
1219.479, 9.479065
1219.961, 15.31323
1220.443, 28.44980
1220.926, 33.06705
1221.408, 26.41522
1221.890, 19.72195
1222.372, 15.07675
1222.854, 13.39352
1223.336, 18.13403
1223.818, 23.62753
1224.300, 21.94427
1224.782, 11.82367
1225.265, 4.456207
1225.747, 0.1331180
1226.229, 2.069336
1226.711, 1.643738
1227.193, 2.182343
1227.675, 16.32602
1228.157, 31.29437
1228.639, 34.04715
1229.122, 21.85806
1229.604, 14.12576
1230.086, 11.18274
1230.568, 10.42566
1231.050, 11.70584
1231.532, 12.96420
1232.014, 12.24750
1232.496, 9.885406
1232.979, 4.559326
1233.461, 5.018158
1233.943, 3.016602
1234.425, 12.14743
1234.907, 22.76273
1235.389, 18.06735
1235.871, 9.347015
1236.353, 7.210083
1236.835, 8.099304
1237.318, 7.129547
1237.800, 3.520233
1238.282, 2.058685
1238.764, 2.786469
1239.246, 5.486572
1239.728, 11.13312
1240.210, 16.64493
1240.692, 20.79129
1241.175, 22.14258
1241.657, 17.61560
1242.139, 5.040588
1242.621, 3.229156
1243.103, 12.28149
1243.585, 19.37607
1244.067, 12.77487
1244.549, 5.835785
1245.031, 9.399994
1245.514, 17.21524
1245.996, 20.23465
1246.478, 18.00970
1246.960, 16.42661
1247.442, 15.59964
1247.924, 15.94528
1248.406, 18.90970
1248.888, 21.81888
1249.370, 23.82651
1249.853, 24.45981
1250.335, 22.03696
1250.817, 16.80231
1251.299, 17.95566
1251.781, 25.18857
1252.263, 28.29755
1252.745, 14.90448
1253.227, 3.196991
1253.710, 2.843536
1254.192, 7.275970
1254.674, 8.509430
1255.156, 7.142181
1255.638, 7.886597
1256.120, 10.78995
1256.602, 12.92206
1257.084, 11.49149
1257.567, 10.36273
1258.049, 8.849182
1258.531, 10.32214
1259.013, 20.27896
1259.495, 34.81863
1259.977, 39.70663
1260.459, 34.32227
1260.941, 26.53625
1261.423, 13.96896
1261.906, 8.417877
1262.388, 14.98263
1262.870, 25.16135
1263.352, 26.96811
1263.834, 22.49493
1264.316, 14.93588
1264.798, 5.606720
1265.280, 3.974060
1265.762, 22.26562
1266.245, 32.92752
1266.727, 29.75125
1267.209, 20.41321
1267.691, 11.90051
1268.173, 6.578735
1268.655, 4.418304
1269.137, 5.434601
1269.619, 9.461334
1270.102, 18.46451
1270.584, 24.33334
1271.066, 24.98608
1271.548, 23.24060
1272.030, 23.61624
1272.512, 22.95734
1272.994, 14.77448
1273.476, 7.8704998E-02
1273.958, 4.765167
1274.441, 3.328796
1274.923, 10.65176
1275.405, 14.19324
1275.887, 16.30893
1276.369, 20.88605
1276.851, 24.11404
1277.333, 20.18274
1277.815, 10.82791
1278.297, 8.749237
1278.780, 14.51559
1279.262, 14.14285
1279.744, 2.934082
1280.226, 5.260925
1280.708, 5.376984
1281.190, 19.01733
1281.672, 24.12961
1282.154, 22.77728
1282.637, 22.21292
1283.119, 22.26398
1283.601, 20.45718
1284.083, 15.59650
1284.565, 13.80685
1285.047, 25.90042
1285.529, 33.45444
1286.011, 25.01874
1286.494, 8.025055
1286.976, 4.554840
1287.458, 10.71600
1287.940, 11.68472
1288.422, 6.399628
1288.904, 4.615509
1289.386, 14.73883
1289.868, 23.12527
1290.350, 24.49298
1290.833, 20.81146
1291.315, 25.03436
1291.797, 31.67505
1292.279, 33.00897
1292.761, 26.89655
1293.243, 22.09103
1293.725, 19.44806
1294.207, 19.07059
1294.689, 22.48535
1295.172, 24.81290
1295.654, 14.43396
1296.136, 1.085876
1296.618, 1.874939
1297.100, 8.507599
1297.582, 20.15756
1298.064, 34.30585
1298.546, 42.17404
1299.029, 36.55139
1299.511, 28.79355
1299.993, 16.97632
1300.475, 6.088013
1300.957, 0.0000000E+00
##END=



