##NAMES=Davidite-(La)
##RRUFFID=R070697
##IDEAL CHEMISTRY=La^3+^(Y^3+^,U^4+^)Fe^3+^_2_(Ti^4+^,Fe^3+^,Cr^3+^,V^5+^)_18_(O,OH,F)_38_
##LOCALITY=Pandora prospect, Covered Wells, Quijotoa District, Quijotoa Mts, Pima County, Arizona, USA
##OWNER=RRUFF
##SOURCE=Michael Scott
##DESCRIPTION=Small black fragments embedded in epoxy
##STATUS=The identification of this mineral is not yet confirmed.
##URL=rruff.info/R070697
158.8221, 0.0000000E+00
159.3042, 9.570679
159.7863, 20.64673
160.2684, 27.58582
160.7505, 24.68945
161.2326, 12.54822
161.7148, 6.546265
162.1969, 26.95642
162.6790, 48.61426
163.1611, 59.50146
163.6432, 44.93616
164.1253, 25.72473
164.6075, 10.91919
165.0896, 0.7772220
165.5717, 4.194946
166.0538, 0.4414060
166.5359, 9.664795
167.0180, 16.30225
167.5002, 13.39587
167.9823, 9.338135
168.4644, 10.86536
168.9465, 18.98682
169.4286, 29.06030
169.9107, 41.58716
170.3929, 53.69128
170.8750, 59.62329
171.3571, 50.58655
171.8392, 36.52759
172.3213, 28.33728
172.8034, 28.54504
173.2856, 31.84583
173.7677, 34.39197
174.2498, 36.25208
174.7319, 37.61646
175.2140, 38.83472
175.6961, 39.66357
176.1783, 39.79419
176.6604, 39.34302
177.1425, 37.92615
177.6246, 33.79272
178.1067, 27.57629
178.5888, 22.97998
179.0710, 23.90405
179.5531, 28.43555
180.0352, 32.33203
180.5173, 33.88000
180.9994, 34.88916
181.4815, 41.04675
181.9637, 52.09460
182.4458, 58.38782
182.9279, 45.46460
183.4100, 19.24585
183.8921, 1.971069
184.3742, 1.734375
184.8564, 16.05518
185.3385, 32.53113
185.8206, 48.33569
186.3027, 62.06702
186.7848, 66.47449
187.2669, 63.17444
187.7491, 63.24463
188.2312, 74.80334
188.7133, 92.89807
189.1954, 97.96350
189.6775, 88.43506
190.1596, 72.87109
190.6418, 60.55347
191.1239, 52.51025
191.6060, 49.42407
192.0881, 42.45581
192.5702, 36.28076
193.0524, 34.17078
193.5345, 37.80151
194.0166, 43.39563
194.4987, 46.92627
194.9808, 48.92383
195.4629, 49.39453
195.9451, 47.45093
196.4272, 43.14331
196.9093, 40.27283
197.3914, 40.14429
197.8735, 40.85461
198.3556, 44.14160
198.8378, 50.98608
199.3199, 58.26233
199.8020, 64.20422
200.2841, 68.65430
200.7662, 74.87866
201.2483, 85.10315
201.7305, 91.62476
202.2126, 93.33887
202.6947, 89.84839
203.1768, 83.02246
203.6589, 72.24634
204.1410, 56.42627
204.6232, 45.49426
205.1053, 41.66919
205.5874, 42.71301
206.0695, 41.19263
206.5516, 36.55029
207.0337, 30.80676
207.5159, 24.55505
207.9980, 17.17200
208.4801, 13.24683
208.9622, 15.26355
209.4443, 21.13647
209.9264, 19.09497
210.4086, 4.984985
210.8907, 8.721191
211.3728, 10.82678
211.8549, 3.048096
212.3370, 13.23682
212.8191, 15.51172
213.3013, 11.13538
213.7834, 11.57642
214.2655, 19.31616
214.7476, 27.89832
215.2297, 31.42029
215.7118, 28.20264
216.1940, 24.53577
216.6761, 21.18311
217.1582, 17.99170
217.6403, 17.78137
218.1224, 22.60266
218.6045, 27.65723
219.0867, 27.04443
219.5688, 15.91882
220.0509, 11.04810
220.5330, 19.07764
221.0151, 40.60254
221.4972, 51.03735
221.9794, 47.49182
222.4615, 36.21558
222.9436, 21.73157
223.4257, 2.922119
223.9078, 16.33289
224.3899, 10.78748
224.8721, 15.77295
225.3542, 35.71436
225.8363, 50.18127
226.3184, 57.14697
226.8005, 52.49695
227.2827, 27.96106
227.7648, 7.672974
228.2469, 1.694580
228.7290, 1.212769
229.2111, 4.607300
229.6932, 8.200317
230.1754, 12.47131
230.6575, 18.60864
231.1396, 29.05505
231.6217, 36.93127
232.1038, 39.96802
232.5859, 37.30432
233.0681, 34.52100
233.5502, 32.43872
234.0323, 29.67078
234.5144, 23.44409
234.9965, 9.886841
235.4786, 0.4742430
235.9608, 3.964600
236.4429, 0.8928220
236.9250, 5.806519
237.4071, 10.21277
237.8892, 15.00012
238.3713, 22.41296
238.8535, 36.91016
239.3356, 46.49597
239.8177, 46.10840
240.2998, 32.24951
240.7819, 22.00061
241.2640, 17.12854
241.7462, 14.60901
242.2283, 8.352783
242.7104, 7.582397
243.1925, 17.24927
243.6746, 13.18982
244.1567, 11.24536
244.6389, 26.33154
245.1210, 28.06360
245.6031, 22.84473
246.0852, 22.22375
246.5673, 29.52869
247.0494, 35.74084
247.5316, 37.13574
248.0137, 31.55347
248.4958, 28.32544
248.9779, 27.25610
249.4600, 28.66431
249.9421, 33.98022
250.4243, 46.66711
250.9064, 57.10754
251.3885, 61.02197
251.8706, 55.65857
252.3527, 53.05322
252.8348, 54.12134
253.3170, 57.36804
253.7991, 60.90137
254.2812, 67.58130
254.7633, 68.94348
255.2454, 59.78491
255.7275, 35.31897
256.2097, 18.42578
256.6918, 10.34436
257.1739, 9.157715
257.6560, 12.25671
258.1381, 22.18970
258.6202, 31.17737
259.1024, 36.32703
259.5845, 37.00366
260.0666, 36.15332
260.5487, 33.03821
261.0308, 28.96008
261.5129, 25.30811
261.9951, 20.21716
262.4772, 20.16235
262.9593, 29.92578
263.4414, 53.44116
263.9235, 67.63770
264.4056, 69.32251
264.8878, 64.80640
265.3699, 66.55640
265.8520, 78.34021
266.3341, 85.53723
266.8162, 80.03369
267.2983, 58.55054
267.7805, 46.30029
268.2626, 45.66797
268.7447, 50.76050
269.2268, 53.06213
269.7089, 52.64331
270.1910, 53.07556
270.6732, 57.61938
271.1553, 67.46045
271.6374, 67.13879
272.1195, 53.05225
272.6016, 34.11853
273.0837, 26.20544
273.5659, 31.69360
274.0480, 37.95520
274.5301, 38.34619
275.0122, 32.82007
275.4943, 29.76550
275.9764, 29.92358
276.4586, 31.15991
276.9407, 29.43286
277.4228, 24.26343
277.9049, 21.41064
278.3870, 23.69702
278.8691, 30.99438
279.3513, 37.60168
279.8334, 43.33435
280.3155, 48.84473
280.7976, 57.07397
281.2798, 67.76672
281.7619, 71.25671
282.2440, 61.40503
282.7261, 41.52039
283.2082, 30.74548
283.6903, 30.06567
284.1725, 34.87939
284.6546, 42.70142
285.1367, 53.14014
285.6188, 57.18726
286.1009, 46.77429
286.5830, 27.22119
287.0652, 19.92468
287.5473, 26.04736
288.0294, 37.48621
288.5115, 48.18018
288.9936, 57.62341
289.4757, 61.29175
289.9579, 55.14246
290.4400, 42.80615
290.9221, 32.95215
291.4042, 25.44653
291.8863, 22.09021
292.3684, 27.81921
292.8506, 40.28186
293.3327, 49.14636
293.8148, 50.78467
294.2969, 48.04358
294.7790, 43.95325
295.2611, 38.32141
295.7433, 34.10486
296.2254, 35.20874
296.7075, 40.07886
297.1896, 44.18774
297.6717, 45.69116
298.1538, 46.32727
298.6360, 49.89392
299.1181, 56.01855
299.6002, 59.89478
300.0823, 52.89575
300.5644, 40.82971
301.0465, 37.41809
301.5287, 53.39697
302.0108, 73.26001
302.4929, 75.97327
302.9750, 63.75146
303.4571, 49.14160
303.9392, 36.80981
304.4214, 28.26721
304.9035, 26.36768
305.3856, 35.77832
305.8677, 45.64612
306.3498, 44.55005
306.8319, 35.26526
307.3141, 27.55371
307.7962, 28.36865
308.2783, 33.21741
308.7604, 37.74097
309.2425, 41.70581
309.7246, 44.46912
310.2068, 46.13586
310.6889, 46.34229
311.1710, 44.19800
311.6531, 32.69128
312.1352, 22.67896
312.6173, 25.04114
313.0995, 47.68799
313.5816, 64.45532
314.0637, 57.93823
314.5458, 37.35474
315.0279, 20.07703
315.5100, 13.75769
315.9922, 11.74109
316.4743, 10.36218
316.9564, 8.632080
317.4385, 9.883789
317.9206, 19.37622
318.4027, 31.56860
318.8849, 38.72070
319.3670, 30.49951
319.8491, 24.14746
320.3312, 28.33716
320.8133, 46.32764
321.2954, 58.73303
321.7776, 59.70117
322.2597, 54.16760
322.7418, 47.39160
323.2239, 37.28760
323.7060, 28.84387
324.1881, 24.09717
324.6703, 23.50549
325.1524, 21.34082
325.6345, 10.64111
326.1166, 1.736450
326.5987, 3.021851
327.0808, 32.72620
327.5630, 51.09961
328.0451, 48.21436
328.5272, 25.39014
329.0093, 11.69312
329.4914, 15.48950
329.9735, 21.11377
330.4557, 17.25623
330.9378, 9.216187
331.4199, 21.53040
331.9020, 9.891357
332.3841, 19.21069
332.8662, 33.35291
333.3484, 25.92822
333.8305, 13.35181
334.3126, 3.532471
334.7947, 4.108765
335.2768, 6.379883
335.7589, 0.8114010
336.2411, 8.945068
336.7232, 13.05359
337.2053, 9.320557
337.6874, 6.266846
338.1695, 9.414185
338.6516, 20.08691
339.1338, 24.52625
339.6159, 20.93689
340.0980, 13.48633
340.5801, 8.763184
341.0622, 6.820313
341.5443, 6.737671
342.0265, 8.113281
342.5086, 10.96851
342.9907, 16.85303
343.4728, 26.72925
343.9549, 35.65283
344.4370, 34.45312
344.9192, 24.50269
345.4013, 20.06091
345.8834, 31.22461
346.3655, 50.28564
346.8476, 54.97729
347.3297, 44.93726
347.8119, 31.27966
348.2940, 23.88367
348.7761, 21.18713
349.2582, 18.72339
349.7403, 15.34143
350.2225, 11.40125
350.7046, 6.717896
351.1867, 1.495239
351.6688, 2.424683
352.1509, 4.583496
352.6331, 4.380249
353.1152, 0.4283450
353.5973, 9.061768
354.0794, 19.57239
354.5615, 29.69543
355.0436, 38.08423
355.5258, 40.63623
356.0079, 28.46582
356.4900, 13.14917
356.9721, 5.644775
357.4542, 9.817993
357.9363, 14.39612
358.4185, 11.13916
358.9006, 4.219849
359.3827, 0.8491210
359.8648, 7.299072
360.3469, 15.27222
360.8290, 19.93127
361.3112, 20.21692
361.7933, 22.08618
362.2754, 32.69275
362.7575, 43.92114
363.2396, 46.96631
363.7217, 31.34863
364.2039, 15.80493
364.6860, 3.682739
365.1681, 4.900024
365.6502, 7.671265
366.1323, 1.280151
366.6144, 12.64636
367.0966, 20.00781
367.5787, 16.40625
368.0608, 17.09094
368.5429, 26.70850
369.0250, 42.56140
369.5071, 50.46704
369.9893, 46.06323
370.4714, 38.80896
370.9535, 32.65942
371.4356, 26.29626
371.9177, 24.77185
372.3998, 31.44519
372.8820, 41.32288
373.3641, 42.50720
373.8462, 31.95874
374.3283, 20.59387
374.8104, 12.09192
375.2925, 6.310547
375.7747, 4.395508
376.2568, 6.634155
376.7389, 12.12244
377.2210, 21.11169
377.7031, 34.03223
378.1852, 44.29260
378.6674, 50.30237
379.1495, 52.05261
379.6316, 47.87488
380.1137, 37.10278
380.5958, 26.79675
381.0779, 24.94019
381.5601, 29.83618
382.0422, 33.31750
382.5243, 33.69946
383.0064, 31.66479
383.4885, 25.88269
383.9706, 17.24683
384.4528, 12.74170
384.9349, 22.20984
385.4170, 37.59937
385.8991, 45.61938
386.3812, 43.61475
386.8633, 36.53784
387.3455, 23.84729
387.8276, 9.401978
388.3097, 1.885986
388.7918, 10.90955
389.2739, 24.62549
389.7560, 37.04968
390.2382, 47.84167
390.7203, 51.51306
391.2024, 38.48816
391.6845, 19.15063
392.1666, 5.301636
392.6487, 0.9818120
393.1309, 2.705566
393.6130, 14.31714
394.0951, 34.14026
394.5772, 45.47070
395.0593, 34.48157
395.5414, 19.73767
396.0236, 12.96338
396.5057, 27.84387
396.9878, 36.41052
397.4699, 31.64563
397.9520, 18.08887
398.4341, 10.06323
398.9163, 10.67493
399.3984, 13.66260
399.8805, 17.82849
400.3626, 25.80652
400.8447, 26.18054
401.3268, 12.17200
401.8090, 4.426636
402.2911, 4.804932
402.7732, 19.64478
403.2553, 37.50244
403.7374, 37.78418
404.2195, 21.82300
404.7017, 14.24792
405.1838, 16.53394
405.6659, 23.29688
406.1480, 32.89624
406.6301, 45.45947
407.1122, 47.31787
407.5944, 31.90686
408.0765, 8.437744
408.5586, 0.4283450
409.0407, 5.117798
409.5228, 16.54297
410.0049, 33.63025
410.4871, 52.36145
410.9692, 59.58435
411.4513, 51.79736
411.9334, 40.75671
412.4155, 41.66663
412.8976, 50.51941
413.3798, 55.74988
413.8619, 49.20129
414.3440, 38.13538
414.8261, 29.72095
415.3082, 24.10999
415.7903, 19.30029
416.2725, 12.88611
416.7546, 6.890015
417.2367, 3.569580
417.7188, 6.326782
418.2009, 9.046753
418.6830, 6.430664
419.1652, 0.7868650
419.6473, 0.6995850
420.1294, 14.96790
420.6115, 31.18213
421.0937, 43.38379
421.5758, 48.92444
422.0579, 52.66907
422.5400, 55.13342
423.0221, 55.87048
423.5042, 53.39832
423.9864, 43.55530
424.4685, 36.00195
424.9506, 31.38757
425.4327, 30.01233
425.9148, 36.19604
426.3969, 58.40784
426.8791, 78.53564
427.3612, 77.24451
427.8433, 43.53430
428.3254, 24.00598
428.8075, 29.78174
429.2896, 52.39355
429.7718, 62.87024
430.2539, 59.82373
430.7360, 52.44421
431.2181, 43.10999
431.7002, 32.97925
432.1823, 34.21277
432.6645, 50.64844
433.1466, 69.21167
433.6287, 68.28479
434.1108, 51.61609
434.5929, 37.70374
435.0750, 34.98608
435.5572, 39.40759
436.0393, 45.79773
436.5214, 53.98169
437.0035, 59.88733
437.4856, 60.77319
437.9677, 57.22290
438.4499, 48.86963
438.9320, 31.71082
439.4141, 17.34546
439.8962, 16.36328
440.3783, 24.85266
440.8604, 32.68042
441.3426, 31.68359
441.8247, 31.51758
442.3068, 39.91455
442.7889, 60.98669
443.2710, 74.86804
443.7531, 70.92822
444.2353, 59.18811
444.7174, 50.60413
445.1995, 48.41064
445.6816, 47.86328
446.1637, 50.91309
446.6458, 56.69202
447.1280, 54.10925
447.6101, 33.05188
448.0922, 14.70923
448.5743, 12.98975
449.0564, 38.93152
449.5385, 50.47827
450.0207, 40.28809
450.5028, 21.03552
450.9849, 19.05420
451.4670, 38.51794
451.9491, 54.03284
452.4312, 53.81165
452.9134, 40.26843
453.3955, 32.06213
453.8776, 29.59399
454.3597, 30.69580
454.8418, 35.71033
455.3239, 43.29688
455.8061, 46.60596
456.2882, 41.75781
456.7703, 35.64648
457.2524, 41.84827
457.7345, 56.73364
458.2166, 65.52588
458.6988, 49.55408
459.1809, 27.76599
459.6630, 24.32678
460.1451, 44.69421
460.6272, 61.43164
461.1093, 52.84973
461.5915, 31.64258
462.0736, 13.70227
462.5557, 4.950684
463.0378, 0.3112790
463.5199, 3.572754
464.0020, 4.894897
464.4842, 4.451050
464.9663, 3.942261
465.4484, 0.3720700
465.9305, 8.470215
466.4126, 29.26965
466.8947, 43.39246
467.3769, 49.41711
467.8590, 49.52271
468.3411, 46.85352
468.8232, 40.20264
469.3053, 32.98853
469.7874, 23.72668
470.2696, 12.99585
470.7517, 17.21362
471.2338, 41.95837
471.7159, 64.75854
472.1980, 61.90808
472.6801, 34.16406
473.1623, 14.24902
473.6444, 6.953613
474.1265, 7.801270
474.6086, 12.52441
475.0907, 20.72388
475.5728, 29.47449
476.0550, 42.67139
476.5371, 53.37378
477.0192, 48.22607
477.5013, 27.11841
477.9834, 5.456665
478.4655, 7.570190
478.9477, 13.24438
479.4298, 12.61108
479.9119, 0.3103030
480.3940, 11.47131
480.8761, 9.256714
481.3582, 1.078613
481.8404, 4.370361
482.3225, 12.72388
482.8046, 31.06018
483.2867, 42.42944
483.7688, 45.44958
484.2509, 43.83875
484.7331, 32.27271
485.2152, 19.12366
485.6973, 12.18054
486.1794, 15.28284
486.6615, 18.26953
487.1436, 21.02893
487.6258, 22.67126
488.1079, 16.40979
488.5900, 2.928955
489.0721, 15.67908
489.5542, 4.718750
490.0363, 30.35095
490.5185, 44.16650
491.0006, 31.60913
491.4827, 10.62842
491.9648, 5.090454
492.4470, 12.31360
492.9291, 17.85950
493.4112, 15.99023
493.8933, 10.42090
494.3754, 4.596558
494.8575, 0.8448490
495.3397, 1.523071
495.8218, 10.10669
496.3039, 25.76807
496.7860, 36.98706
497.2681, 42.94385
497.7502, 43.43066
498.2324, 32.99597
498.7145, 18.57434
499.1966, 9.387329
499.6787, 13.92297
500.1608, 18.39575
500.6429, 16.76404
501.1251, 9.642090
501.6072, 8.234619
502.0893, 22.10254
502.5714, 34.04199
503.0535, 35.04126
503.5356, 17.57629
504.0178, 7.541870
504.4999, 7.909790
504.9820, 13.11646
505.4641, 14.02112
505.9462, 9.226440
506.4283, 7.609619
506.9105, 13.05652
507.3926, 23.33447
507.8747, 29.68066
508.3568, 31.95776
508.8389, 32.23438
509.3210, 32.91589
509.8032, 33.02893
510.2853, 28.12317
510.7674, 14.90845
511.2495, 3.016113
511.7316, 3.280396
512.2137, 11.93286
512.6959, 21.35413
513.1780, 28.93481
513.6601, 35.47168
514.1422, 43.42590
514.6243, 51.89966
515.1064, 54.87891
515.5886, 38.30774
516.0707, 23.70789
516.5528, 26.96704
517.0349, 67.27905
517.5170, 89.45996
517.9991, 74.17285
518.4813, 43.31519
518.9634, 23.97192
519.4455, 20.46216
519.9276, 21.44470
520.4097, 27.03491
520.8918, 35.72900
521.3740, 37.53735
521.8561, 31.14404
522.3382, 22.83752
522.8203, 14.19751
523.3024, 5.868774
523.7845, 7.931641
524.2667, 23.46594
524.7488, 39.63782
525.2309, 38.79419
525.7130, 25.09888
526.1951, 12.96509
526.6772, 6.626343
527.1594, 4.884033
527.6415, 9.322632
528.1236, 18.22302
528.6057, 24.09558
529.0878, 20.50671
529.5699, 13.60913
530.0521, 6.778809
530.5342, 0.7687990
531.0163, 2.909424
531.4984, 10.74292
531.9805, 27.16553
532.4626, 32.57861
532.9448, 7.500977
533.4269, 7.396240
533.9090, 4.349976
534.3911, 12.51428
534.8732, 28.21472
535.3553, 46.47241
535.8375, 56.59680
536.3196, 49.12476
536.8017, 22.70020
537.2838, 12.54590
537.7659, 22.04614
538.2480, 39.02661
538.7302, 55.67554
539.2123, 70.46265
539.6944, 71.06665
540.1765, 49.66638
540.6586, 23.82288
541.1407, 22.32568
541.6229, 38.85437
542.1050, 50.60669
542.5871, 35.75439
543.0692, 16.92297
543.5513, 16.91113
544.0334, 36.76270
544.5156, 55.72559
544.9977, 66.15552
545.4798, 70.53674
545.9619, 70.48486
546.4440, 64.53723
546.9261, 55.51123
547.4083, 40.02588
547.8904, 24.09424
548.3725, 19.23938
548.8546, 34.60022
549.3367, 45.81396
549.8188, 45.53101
550.3010, 35.06445
550.7831, 28.22827
551.2652, 25.41943
551.7473, 25.20178
552.2294, 26.25891
552.7115, 28.63196
553.1937, 31.98425
553.6758, 37.09094
554.1579, 41.31836
554.6400, 41.13574
555.1221, 37.60901
555.6042, 33.78308
556.0864, 30.48425
556.5685, 27.79785
557.0506, 24.93726
557.5327, 22.10156
558.0148, 20.65088
558.4969, 19.24622
558.9791, 20.99866
559.4612, 30.97070
559.9433, 53.32129
560.4254, 64.84717
560.9075, 47.26392
561.3896, 24.98364
561.8718, 20.03296
562.3539, 49.96521
562.8360, 67.46216
563.3181, 65.61426
563.8002, 50.71533
564.2823, 36.03027
564.7645, 21.29810
565.2466, 12.17371
565.7287, 13.24463
566.2108, 21.33533
566.6929, 18.50842
567.1750, 4.565674
567.6572, 5.925903
568.1393, 6.608032
568.6214, 30.24548
569.1035, 38.50415
569.5856, 24.24597
570.0677, 8.212891
570.5499, 7.743896
571.0320, 16.98645
571.5141, 25.01978
571.9962, 30.00220
572.4783, 32.17554
572.9604, 29.10864
573.4426, 22.37524
573.9247, 20.23584
574.4068, 27.75305
574.8889, 35.76038
575.3710, 40.61035
575.8531, 42.60339
576.3353, 44.37585
576.8174, 46.79236
577.2995, 47.68054
577.7816, 44.32373
578.2637, 36.29126
578.7458, 28.30237
579.2280, 20.30908
579.7101, 13.98413
580.1922, 12.72400
580.6743, 16.01379
581.1564, 21.03943
581.6385, 30.05103
582.1207, 38.48315
582.6028, 38.17139
583.0849, 30.23254
583.5670, 23.36560
584.0491, 23.86877
584.5313, 26.64575
585.0134, 27.11401
585.4955, 22.76062
585.9776, 22.54993
586.4597, 35.16394
586.9418, 50.29089
587.4240, 55.80322
587.9061, 44.24084
588.3882, 34.85266
588.8703, 29.92371
589.3524, 29.12122
589.8345, 28.32092
590.3167, 26.90173
590.7988, 27.58948
591.2809, 33.07361
591.7630, 42.28064
592.2451, 43.67114
592.7272, 36.40601
593.2094, 28.90845
593.6915, 28.29517
594.1736, 32.45386
594.6557, 38.66541
595.1378, 47.61438
595.6199, 53.12537
596.1021, 45.52869
596.5842, 32.76758
597.0663, 26.14685
597.5485, 35.89270
598.0306, 45.65491
598.5127, 52.32556
598.9948, 55.26685
599.4769, 51.89148
599.9590, 34.16675
600.4412, 19.81946
600.9233, 16.19800
601.4054, 24.29407
601.8875, 26.19958
602.3696, 18.31628
602.8517, 11.68164
603.3339, 20.41553
603.8160, 43.28711
604.2981, 57.31836
604.7802, 59.08704
605.2623, 54.73145
605.7444, 51.73499
606.2266, 49.84351
606.7087, 48.10168
607.1908, 48.11829
607.6729, 45.49268
608.1550, 31.65479
608.6371, 11.71545
609.1193, 2.666260
609.6014, 23.20471
610.0835, 43.37830
610.5656, 48.90833
611.0477, 36.48938
611.5298, 29.46423
612.0120, 34.44067
612.4941, 39.27478
612.9762, 34.49463
613.4583, 15.24792
613.9404, 4.266113
614.4225, 3.660767
614.9047, 9.528198
615.3868, 19.09656
615.8689, 31.79370
616.3510, 38.54358
616.8331, 34.75159
617.3152, 26.24463
617.7974, 22.02112
618.2795, 20.60022
618.7616, 18.67871
619.2437, 12.34424
619.7258, 6.839722
620.2079, 8.443115
620.6901, 17.29163
621.1722, 20.87817
621.6543, 7.704102
622.1364, 7.151855
622.6185, 13.64880
623.1006, 8.289307
623.5828, 1.033813
624.0649, 10.43372
624.5470, 21.70020
625.0291, 26.28809
625.5112, 22.16711
625.9933, 22.14221
626.4755, 30.26270
626.9576, 39.83728
627.4397, 32.73401
627.9218, 11.58862
628.4039, 2.649536
628.8860, 9.147095
629.3682, 29.20923
629.8503, 32.51575
630.3324, 20.80396
630.8145, 7.608398
631.2966, 4.942627
631.7787, 12.01929
632.2609, 7.954712
632.7430, 11.93127
633.2251, 27.18188
633.7072, 32.88623
634.1893, 32.73523
634.6714, 29.15991
635.1536, 18.78967
635.6357, 12.61597
636.1178, 12.43225
636.5999, 15.79541
637.0820, 18.33850
637.5641, 19.95288
638.0463, 22.66357
638.5284, 28.62634
639.0105, 34.86292
639.4926, 33.56299
639.9747, 26.19019
640.4568, 21.25037
640.9390, 27.43970
641.4211, 36.08826
641.9032, 38.56616
642.3853, 34.26892
642.8674, 30.17346
643.3495, 32.50488
643.8317, 33.70264
644.3138, 27.67957
644.7959, 5.028931
645.2780, 7.601318
645.7601, 6.398193
646.2422, 1.461670
646.7244, 8.110474
647.2065, 13.33606
647.6886, 18.23828
648.1707, 23.18921
648.6528, 27.57422
649.1349, 31.10876
649.6171, 33.39417
650.0992, 32.11755
650.5813, 22.32983
651.0634, 10.78577
651.5455, 5.111572
652.0276, 4.928223
652.5098, 8.517578
652.9919, 21.65417
653.4740, 33.07556
653.9561, 33.85693
654.4382, 20.64331
654.9203, 12.22144
655.4025, 13.37781
655.8846, 17.97314
656.3667, 22.65869
656.8488, 28.78223
657.3309, 31.01501
657.8130, 29.25073
658.2952, 23.48877
658.7773, 9.559326
659.2594, 11.23206
659.7415, 20.42712
660.2236, 8.501709
660.7057, 9.302490
661.1879, 9.319946
661.6700, 2.912354
662.1521, 11.90942
662.6342, 5.916992
663.1163, 2.036499
663.5984, 2.348511
664.0806, 3.831909
664.5627, 5.618042
665.0448, 10.15906
665.5269, 21.00476
666.0090, 13.03333
666.4911, 19.08667
666.9733, 27.82263
667.4554, 3.305542
667.9375, 26.36255
668.4196, 37.48535
668.9017, 30.68933
669.3839, 25.40503
669.8660, 23.67297
670.3481, 22.26697
670.8302, 14.20935
671.3123, 3.926270
671.7944, 1.588013
672.2766, 16.05029
672.7587, 30.85742
673.2408, 36.78882
673.7229, 34.92871
674.2050, 27.71094
674.6871, 2.134644
675.1693, 13.85706
675.6514, 8.474487
676.1335, 13.86804
676.6156, 31.43054
677.0977, 44.89111
677.5798, 51.59631
678.0620, 47.36475
678.5441, 34.06799
679.0262, 32.10498
679.5083, 42.14185
679.9904, 49.95142
680.4725, 40.05432
680.9547, 23.01880
681.4368, 17.65222
681.9189, 27.16309
682.4010, 37.97192
682.8831, 43.39185
683.3652, 44.48230
683.8474, 41.98547
684.3295, 33.22021
684.8116, 25.38440
685.2937, 18.53699
685.7758, 13.60669
686.2579, 11.84338
686.7401, 15.46521
687.2222, 19.26831
687.7043, 22.49805
688.1864, 25.28760
688.6685, 26.99170
689.1506, 27.31616
689.6328, 29.98877
690.1149, 40.83533
690.5970, 53.78271
691.0791, 57.73340
691.5612, 53.88525
692.0433, 48.35046
692.5255, 44.08362
693.0076, 39.37756
693.4897, 31.24463
693.9718, 18.69312
694.4539, 13.41907
694.9360, 24.73560
695.4182, 36.49573
695.9003, 39.44373
696.3824, 30.48108
696.8645, 25.87732
697.3466, 26.40015
697.8287, 29.26855
698.3109, 31.34473
698.7930, 33.05469
699.2751, 37.65442
699.7572, 46.91687
700.2393, 54.55334
700.7214, 53.16040
701.2036, 45.78455
701.6857, 37.38257
702.1678, 24.73364
702.6499, 17.18347
703.1320, 22.39197
703.6141, 35.25269
704.0963, 41.65210
704.5784, 38.61047
705.0605, 31.40906
705.5426, 18.07288
706.0247, 1.635864
706.5068, 2.660889
706.9890, 6.439575
707.4711, 16.80420
707.9532, 21.12915
708.4353, 22.33167
708.9174, 27.62427
709.3995, 36.83862
709.8817, 48.34119
710.3638, 68.91248
710.8459, 86.05408
711.3280, 85.72534
711.8101, 64.36426
712.2922, 45.44775
712.7744, 32.58179
713.2565, 26.68250
713.7386, 28.87500
714.2207, 45.07227
714.7028, 53.32300
715.1849, 50.71387
715.6671, 45.34741
716.1492, 47.36487
716.6313, 55.94128
717.1134, 60.61963
717.5955, 59.47327
718.0776, 56.12500
718.5598, 51.17346
719.0419, 45.93713
719.5240, 43.64368
720.0061, 45.97351
720.4882, 50.97583
720.9703, 60.20374
721.4525, 70.76111
721.9346, 76.57239
722.4167, 75.98962
722.8988, 71.94421
723.3809, 62.04529
723.8630, 49.05786
724.3452, 44.35474
724.8273, 49.54321
725.3094, 56.60034
725.7915, 61.33447
726.2736, 62.97327
726.7557, 57.58765
727.2379, 46.18262
727.7200, 36.67212
728.2021, 36.82275
728.6842, 39.18140
729.1663, 36.76343
729.6484, 28.82690
730.1306, 23.20850
730.6127, 22.00916
731.0948, 24.00598
731.5769, 29.29395
732.0590, 39.93396
732.5411, 45.03699
733.0233, 42.97241
733.5054, 38.19250
733.9875, 31.15601
734.4696, 22.97180
734.9517, 26.02893
735.4338, 43.35779
735.9160, 61.83044
736.3981, 67.99329
736.8802, 66.72339
737.3623, 65.31628
737.8444, 66.91199
738.3266, 66.27112
738.8087, 57.83228
739.2908, 47.12183
739.7729, 42.68567
740.2551, 50.47791
740.7372, 53.87354
741.2193, 49.41650
741.7014, 40.88379
742.1835, 35.27930
742.6656, 32.64197
743.1478, 34.75037
743.6299, 45.76880
744.1120, 57.32275
744.5941, 52.61267
745.0762, 36.73157
745.5583, 25.30542
746.0405, 31.75574
746.5226, 39.59961
747.0047, 36.76025
747.4868, 25.98474
747.9689, 24.59558
748.4510, 44.55798
748.9332, 61.33093
749.4153, 67.12805
749.8974, 62.63562
750.3795, 52.61243
750.8616, 34.96777
751.3438, 27.93213
751.8259, 57.00818
752.3080, 102.3064
752.7901, 111.9091
753.2722, 86.31787
753.7543, 59.94592
754.2365, 56.71631
754.7186, 61.51001
755.2007, 62.66504
755.6828, 58.08228
756.1649, 54.19495
756.6470, 49.38586
757.1292, 47.90686
757.6113, 52.83105
758.0934, 65.50159
758.5755, 80.25208
759.0576, 99.29297
759.5397, 113.3738
760.0219, 109.0020
760.5040, 91.62695
760.9861, 79.13379
761.4682, 75.23694
761.9503, 71.83167
762.4324, 55.86938
762.9146, 39.57410
763.3967, 38.41895
763.8788, 73.52173
764.3609, 95.48206
764.8430, 87.89380
765.3251, 67.82654
765.8073, 52.18665
766.2894, 39.42859
766.7715, 38.76746
767.2536, 54.93628
767.7357, 77.31177
768.2178, 88.91321
768.7000, 91.28601
769.1821, 90.58496
769.6642, 88.17761
770.1463, 84.49243
770.6284, 77.81873
771.1105, 70.40405
771.5927, 66.59229
772.0748, 72.73804
772.5569, 76.81421
773.0390, 75.55420
773.5211, 70.41150
774.0032, 64.47351
774.4854, 57.18420
774.9675, 51.16748
775.4496, 47.20129
775.9317, 45.01575
776.4138, 44.53613
776.8959, 45.47485
777.3781, 46.16797
777.8602, 46.18103
778.3423, 45.23267
778.8244, 41.56885
779.3065, 36.30713
779.7886, 34.10254
780.2708, 37.06799
780.7529, 42.89075
781.2350, 53.35046
781.7171, 67.16626
782.1992, 70.25623
782.6813, 58.83972
783.1635, 47.74304
783.6456, 44.28015
784.1277, 47.42175
784.6098, 51.89807
785.0919, 57.34509
785.5740, 61.54114
786.0562, 63.80029
786.5383, 63.40088
787.0204, 56.27356
787.5025, 42.39160
787.9846, 38.11572
788.4667, 64.26550
788.9489, 84.19250
789.4310, 78.37512
789.9131, 44.54297
790.3952, 31.58533
790.8773, 43.50671
791.3594, 58.18872
791.8416, 58.44897
792.3237, 48.84729
792.8058, 39.60962
793.2879, 31.25513
793.7700, 27.75635
794.2521, 36.40576
794.7343, 47.97437
795.2164, 55.28748
795.6985, 57.32214
796.1806, 55.31726
796.6627, 43.66199
797.1448, 34.51697
797.6270, 37.73047
798.1091, 55.78833
798.5912, 64.94971
799.0733, 63.79761
799.5554, 60.86072
800.0375, 66.38281
800.5197, 75.99622
801.0018, 80.07300
801.4839, 76.76379
801.9660, 71.00183
802.4481, 62.34998
802.9302, 54.54187
803.4124, 50.98962
803.8945, 54.64417
804.3766, 58.73450
804.8587, 64.24316
805.3408, 70.40405
805.8229, 75.41260
806.3051, 79.61633
806.7872, 76.81592
807.2693, 65.17151
807.7514, 54.19275
808.2335, 57.82117
808.7156, 67.53613
809.1978, 67.51147
809.6799, 51.37183
810.1620, 36.93726
810.6441, 29.84143
811.1262, 28.91394
811.6083, 33.58911
812.0905, 48.04443
812.5726, 58.19507
813.0547, 63.64307
813.5368, 64.90967
814.0189, 60.11072
814.5010, 50.73938
814.9832, 45.68823
815.4653, 46.85181
815.9474, 50.38452
816.4295, 55.73706
816.9116, 60.08618
817.3937, 59.58777
817.8759, 50.80603
818.3580, 42.08252
818.8401, 33.86389
819.3222, 27.35754
819.8043, 23.08374
820.2864, 19.88171
820.7686, 26.52686
821.2507, 46.97656
821.7328, 67.68945
822.2149, 69.67578
822.6970, 58.00916
823.1791, 44.50989
823.6613, 31.15479
824.1434, 20.12378
824.6255, 13.89612
825.1076, 10.44092
825.5897, 7.575317
826.0718, 2.0508001E-02
826.5540, 1.095215
827.0361, 16.56055
827.5182, 34.34460
828.0003, 39.35693
828.4824, 31.83557
828.9645, 25.35803
829.4467, 22.14807
829.9288, 22.18494
830.4109, 33.07068
830.8930, 47.49036
831.3751, 52.06567
831.8572, 38.51514
832.3394, 26.07996
832.8215, 22.41846
833.3036, 23.11572
833.7857, 22.01941
834.2678, 15.44556
834.7499, 16.63586
835.2321, 30.50208
835.7142, 45.13098
836.1963, 41.27136
836.6784, 24.81519
837.1605, 20.25757
837.6426, 35.99988
838.1248, 47.83679
838.6069, 26.25842
839.0890, 4.402649
839.5711, 15.59454
840.0532, 19.01923
840.5353, 34.04852
841.0175, 10.34723
841.4996, 18.27228
841.9817, 12.12720
842.4638, 30.85913
842.9459, 57.10968
843.4280, 60.38611
843.9102, 54.34509
844.3923, 49.97906
844.8744, 46.70264
845.3565, 46.51550
845.8386, 52.76544
846.3207, 53.64038
846.8029, 36.06604
847.2850, 15.95306
847.7671, 8.333618
848.2492, 19.66064
848.7313, 27.92352
849.2134, 33.01404
849.6956, 35.33093
850.1777, 34.78680
850.6598, 31.77411
851.1419, 26.86798
851.6240, 19.83026
852.1061, 14.57465
852.5883, 16.22638
853.0704, 18.74243
853.5525, 16.68506
854.0346, 6.517029
854.5167, 1.373230
854.9988, 4.617432
855.4810, 9.486633
855.9631, 11.81995
856.4452, 11.57361
856.9273, 7.335815
857.4094, 1.252319
857.8915, 8.906738
858.3737, 10.21735
858.8558, 8.128784
859.3379, 7.413330
859.8200, 9.069580
860.3021, 5.491211
860.7842, 19.82397
861.2664, 38.83813
861.7485, 31.68530
862.2306, 6.343933
862.7127, 20.36151
863.1948, 6.237427
863.6769, 12.65326
864.1591, 22.32172
864.6412, 23.93970
865.1233, 17.24072
865.6054, 3.141724
866.0875, 6.555725
866.5696, 1.390869
867.0518, 7.486206
867.5339, 13.17401
868.0160, 14.93219
868.4981, 18.07050
868.9802, 24.96832
869.4623, 28.18683
869.9445, 21.55792
870.4266, 8.498230
870.9087, 6.027527
871.3908, 13.25500
871.8729, 21.20471
872.3550, 26.35522
872.8372, 28.39343
873.3193, 25.10193
873.8014, 17.65839
874.2835, 12.85986
874.7656, 14.98633
875.2477, 16.47791
875.7299, 13.68231
876.2120, 9.238525
876.6941, 16.93701
877.1762, 36.68945
877.6583, 48.10016
878.1404, 36.37823
878.6226, 17.76062
879.1047, 15.58490
879.5869, 23.92908
880.0690, 27.43719
880.5511, 12.12811
881.0332, 0.6637570
881.5153, 0.7939450
881.9974, 8.591370
882.4796, 18.43988
882.9617, 32.13275
883.4438, 36.41589
883.9259, 24.65765
884.4080, 9.054932
884.8901, 13.70642
885.3723, 29.41150
885.8544, 33.42242
886.3365, 5.729797
886.8186, 15.15741
887.3007, 4.175110
887.7828, 20.48102
888.2650, 33.35706
888.7471, 30.73236
889.2292, 24.27026
889.7113, 13.35883
890.1934, 2.255859
890.6755, 5.786682
891.1577, 9.612122
891.6398, 3.250244
892.1219, 17.11230
892.6040, 33.96344
893.0861, 29.40747
893.5682, 18.38300
894.0504, 15.62054
894.5325, 28.46912
895.0146, 36.10376
895.4967, 37.63947
895.9788, 35.48236
896.4609, 29.97522
896.9431, 21.96405
897.4252, 17.11047
897.9073, 16.86401
898.3894, 19.21826
898.8715, 26.01215
899.3536, 29.83081
899.8358, 23.29968
900.3179, 4.647522
900.8000, 8.107666
901.2821, 13.81384
901.7642, 12.12408
902.2463, 1.411804
902.7285, 23.46753
903.2106, 25.68488
903.6927, 8.873108
904.1748, 5.197876
904.6569, 0.7411500
905.1390, 10.99323
905.6212, 20.38397
906.1033, 27.29761
906.5854, 32.82062
907.0675, 37.58972
907.5496, 40.51251
908.0317, 42.16290
908.5139, 41.50049
908.9960, 31.34698
909.4781, 11.68817
909.9602, 3.409790
910.4423, 18.67792
910.9244, 41.01453
911.4066, 54.10150
911.8887, 59.15668
912.3708, 58.40668
912.8529, 45.67004
913.3350, 35.94751
913.8171, 33.29871
914.2993, 33.92853
914.7814, 33.07953
915.2635, 30.52271
915.7456, 27.25684
916.2277, 23.48706
916.7098, 20.86133
917.1920, 21.95142
917.6741, 24.73273
918.1562, 26.84351
918.6383, 27.96808
919.1204, 28.12622
919.6025, 23.60101
920.0847, 20.88184
920.5668, 25.77655
921.0489, 42.33563
921.5310, 50.89874
922.0131, 50.31470
922.4952, 46.82898
922.9774, 45.70953
923.4595, 44.76147
923.9416, 38.25195
924.4237, 27.44275
924.9058, 21.53302
925.3879, 28.49097
925.8701, 36.17090
926.3522, 38.34717
926.8343, 36.25482
927.3164, 41.77356
927.7985, 56.31488
928.2806, 65.66559
928.7628, 60.61652
929.2449, 49.09906
929.7270, 40.97009
930.2091, 36.49390
930.6912, 36.02850
931.1733, 42.69519
931.6555, 50.10425
932.1376, 60.29028
932.6197, 68.31140
933.1018, 63.30939
933.5839, 42.70380
934.0660, 28.32965
934.5482, 24.79565
935.0303, 26.65601
935.5124, 29.25830
935.9945, 31.81201
936.4766, 32.89716
936.9587, 33.08209
937.4409, 32.50793
937.9230, 29.83185
938.4051, 27.40942
938.8872, 27.22156
939.3693, 30.58624
939.8514, 30.56146
940.3336, 26.26062
940.8157, 23.49780
941.2978, 28.99969
941.7799, 38.22955
942.2620, 44.75708
942.7441, 48.48102
943.2263, 51.18689
943.7084, 54.72717
944.1905, 55.35040
944.6726, 50.11426
945.1547, 41.78900
945.6368, 35.65955
946.1190, 30.81934
946.6011, 27.84283
947.0832, 27.29187
947.5653, 28.23199
948.0474, 31.91333
948.5295, 35.67590
949.0117, 33.84875
949.4938, 15.59821
949.9759, 4.953430
950.4580, 9.172363
950.9401, 19.49878
951.4222, 22.13983
951.9044, 16.95612
952.3865, 15.64496
952.8686, 20.51440
953.3507, 26.63519
953.8328, 32.10321
954.3149, 34.08044
954.7971, 26.41925
955.2792, 2.712219
955.7613, 9.381897
956.2434, 0.8963010
956.7255, 15.74677
957.2076, 25.95850
957.6898, 31.44476
958.1719, 27.96307
958.6540, 15.37018
959.1361, 8.268188
959.6182, 24.49500
960.1003, 45.87598
960.5825, 53.94250
961.0646, 49.89868
961.5467, 47.70245
962.0288, 53.44592
962.5109, 55.65283
962.9930, 50.53888
963.4752, 40.91522
963.9573, 33.11285
964.4394, 27.40106
964.9215, 25.51123
965.4036, 29.26611
965.8857, 34.50366
966.3679, 39.67444
966.8500, 43.52271
967.3321, 44.21967
967.8142, 41.78644
968.2963, 35.30206
968.7784, 21.21527
969.2606, 9.440735
969.7427, 14.20068
970.2248, 30.01379
970.7069, 36.68036
971.1890, 32.69324
971.6711, 25.68549
972.1533, 16.15393
972.6354, 9.061096
973.1175, 9.010559
973.5996, 15.91205
974.0817, 22.19354
974.5638, 28.88898
975.0460, 31.03668
975.5281, 24.47687
976.0102, 14.00427
976.4923, 9.390991
976.9744, 9.468628
977.4565, 10.79053
977.9387, 11.58643
978.4208, 13.82629
978.9029, 21.17535
979.3850, 28.81744
979.8671, 29.30475
980.3492, 20.75720
980.8314, 16.23401
981.3135, 17.49133
981.7956, 21.34143
982.2777, 26.48712
982.7598, 30.97675
983.2419, 30.31500
983.7241, 22.52802
984.2062, 20.72467
984.6883, 38.12622
985.1704, 52.85138
985.6525, 54.45874
986.1346, 43.98969
986.6168, 33.51184
987.0989, 23.15845
987.5810, 16.77216
988.0631, 18.66577
988.5452, 23.81726
989.0273, 27.81036
989.5095, 31.27362
989.9916, 36.04700
990.4737, 49.37610
990.9558, 52.47528
991.4379, 40.44257
991.9200, 21.07593
992.4022, 2.457336
992.8843, 13.35474
993.3664, 16.50848
993.8485, 3.522034
994.3306, 11.76556
994.8127, 24.49524
995.2949, 32.13513
995.7770, 30.06232
996.2591, 17.02301
996.7412, 11.68396
997.2233, 14.06665
997.7054, 18.41589
998.1876, 19.18835
998.6697, 19.48468
999.1518, 30.30127
999.6339, 47.87830
1000.116, 57.67786
1000.598, 47.10205
1001.080, 33.50134
1001.562, 19.44812
1002.044, 7.941895
1002.527, 4.799255
1003.009, 10.41187
1003.491, 19.77020
1003.973, 32.86969
1004.455, 45.12836
1004.937, 51.70685
1005.419, 54.12396
1005.901, 54.04883
1006.384, 51.67645
1006.866, 46.97638
1007.348, 38.94775
1007.830, 30.08002
1008.312, 20.68103
1008.794, 11.70203
1009.276, 8.805847
1009.758, 11.68964
1010.240, 17.92529
1010.723, 33.60358
1011.205, 44.86707
1011.687, 34.29871
1012.169, 13.43164
1012.651, 15.24957
1013.133, 53.19562
1013.615, 73.73773
1014.097, 67.81561
1014.580, 49.67761
1015.062, 34.85138
1015.544, 23.74939
1016.026, 17.04285
1016.508, 14.78741
1016.990, 17.60071
1017.472, 35.50104
1017.954, 49.36194
1018.436, 46.15521
1018.919, 27.00531
1019.401, 15.80029
1019.883, 12.54742
1020.365, 13.58832
1020.847, 20.32965
1021.329, 27.49939
1021.811, 30.73364
1022.293, 30.18140
1022.776, 26.13464
1023.258, 14.06952
1023.740, 6.275757
1024.222, 4.483276
1024.704, 6.437378
1025.186, 10.72583
1025.668, 16.90869
1026.150, 19.20490
1026.632, 17.11017
1027.115, 15.01831
1027.597, 16.09460
1028.079, 17.69104
1028.561, 17.23016
1029.043, 14.88354
1029.525, 16.72540
1030.007, 23.34753
1030.489, 28.81995
1030.972, 30.50848
1031.454, 29.50562
1031.936, 24.29877
1032.418, 17.93701
1032.900, 16.98505
1033.382, 28.75702
1033.864, 39.10718
1034.346, 48.54987
1034.828, 53.64886
1035.311, 47.37695
1035.793, 32.07599
1036.275, 24.13177
1036.757, 24.86084
1037.239, 27.44830
1037.721, 24.24475
1038.203, 23.51398
1038.685, 37.02472
1039.167, 61.61243
1039.650, 63.14594
1040.132, 34.60291
1040.614, 14.56946
1041.096, 20.30829
1041.578, 34.42554
1042.060, 26.14484
1042.542, 6.673828
1043.024, 2.831360
1043.507, 8.549316
1043.989, 21.44861
1044.471, 34.52246
1044.953, 45.55762
1045.435, 52.89520
1045.917, 56.65820
1046.399, 58.33545
1046.881, 57.87909
1047.364, 54.52728
1047.846, 43.77655
1048.328, 33.63739
1048.810, 30.07788
1049.292, 32.12036
1049.774, 33.84961
1050.256, 34.74280
1050.738, 36.88513
1051.220, 42.98352
1051.703, 47.66357
1052.185, 38.92883
1052.667, 22.30450
1053.149, 4.433472
1053.631, 16.90631
1054.113, 21.90332
1054.595, 11.34583
1055.077, 43.29980
1055.559, 54.25964
1056.042, 46.39789
1056.524, 30.57648
1057.006, 8.415588
1057.488, 6.880737
1057.970, 4.789307
1058.452, 3.006714
1058.934, 12.18866
1059.416, 21.18781
1059.899, 26.73187
1060.381, 27.33691
1060.863, 31.39819
1061.345, 41.32996
1061.827, 47.36914
1062.309, 32.68530
1062.791, 11.05737
1063.273, 6.006348
1063.755, 18.96118
1064.238, 25.69177
1064.720, 12.01349
1065.202, 1.231628
1065.684, 1.317566
1066.166, 8.076538
1066.648, 8.770020
1067.130, 5.190613
1067.612, 6.529602
1068.094, 19.14868
1068.577, 29.01849
1069.059, 22.46576
1069.541, 12.72882
1070.023, 13.77411
1070.505, 28.92627
1070.987, 35.79584
1071.469, 33.82782
1071.951, 29.88660
1072.434, 27.94641
1072.916, 27.21240
1073.398, 27.77155
1073.880, 28.80676
1074.362, 27.57782
1074.844, 22.06689
1075.326, 16.46564
1075.808, 10.78656
1076.291, 5.988220
1076.773, 1.890686
1077.255, 0.3977660
1077.737, 7.819702
1078.219, 24.29626
1078.701, 35.80408
1079.183, 32.64941
1079.665, 24.70099
1080.147, 15.34186
1080.630, 5.410828
1081.112, 5.784851
1081.594, 15.96863
1082.076, 18.89783
1082.558, 2.285400
1083.040, 12.65833
1083.522, 3.393066
1084.004, 17.44165
1084.486, 33.03040
1084.969, 40.62091
1085.451, 46.80829
1085.933, 52.26660
1086.415, 53.46161
1086.897, 43.94110
1087.379, 30.19507
1087.861, 22.88861
1088.343, 21.61041
1088.826, 23.47168
1089.308, 34.04932
1089.790, 38.23364
1090.272, 30.70367
1090.754, 19.00964
1091.236, 15.94092
1091.718, 19.35895
1092.200, 18.27362
1092.682, 10.58636
1093.165, 5.581116
1093.647, 10.30780
1094.129, 18.59210
1094.611, 28.61609
1095.093, 39.23151
1095.575, 40.96198
1096.057, 33.36157
1096.539, 28.27747
1097.022, 31.84698
1097.504, 37.50592
1097.986, 37.16760
1098.468, 32.38348
1098.950, 26.50677
1099.432, 17.60956
1099.914, 14.34112
1100.396, 17.82898
1100.879, 23.27527
1101.361, 29.39807
1101.843, 34.40723
1102.325, 33.84595
1102.807, 29.04846
1103.289, 25.40228
1103.771, 27.03857
1104.253, 27.00122
1104.735, 23.23334
1105.218, 18.29187
1105.700, 15.85913
1106.182, 15.47284
1106.664, 14.34265
1107.146, 12.11847
1107.628, 12.97583
1108.110, 22.64923
1108.592, 31.41467
1109.074, 33.98755
1109.557, 31.81805
1110.039, 30.18970
1110.521, 29.09796
1111.003, 27.41541
1111.485, 23.26984
1111.967, 20.25696
1112.449, 25.00598
1112.931, 31.51257
1113.414, 33.85199
1113.896, 29.90216
1114.378, 31.41437
1114.860, 40.56116
1115.342, 45.10730
1115.824, 32.88745
1116.306, 17.35760
1116.788, 24.28271
1117.271, 44.43469
1117.753, 55.51868
1118.235, 39.23444
1118.717, 31.32910
1119.199, 38.61462
1119.681, 45.94934
1120.163, 32.86224
1120.645, 8.574036
1121.127, 1.716736
1121.609, 12.08417
1122.092, 24.68225
1122.574, 37.03979
1123.056, 43.88141
1123.538, 42.05896
1124.020, 35.51483
1124.502, 32.20013
1124.984, 31.54968
1125.466, 28.07227
1125.949, 20.34924
1126.431, 14.10443
1126.913, 13.36053
1127.395, 15.65283
1127.877, 20.17926
1128.359, 26.39270
1128.841, 31.00037
1129.323, 33.99982
1129.806, 35.62244
1130.288, 36.18518
1130.770, 34.94104
1131.252, 29.73474
1131.734, 22.90234
1132.216, 17.70612
1132.698, 15.20715
1133.180, 11.61023
1133.662, 6.795410
1134.145, 1.423401
1134.627, 8.521851
1135.109, 15.88947
1135.591, 2.090515
1136.073, 23.22681
1136.555, 35.19489
1137.037, 10.00684
1137.519, 3.195679
1138.001, 1.143188
1138.484, 12.25977
1138.966, 21.45404
1139.448, 28.18024
1139.930, 29.90302
1140.412, 26.98505
1140.894, 23.07623
1141.376, 22.03394
1141.858, 19.67261
1142.341, 12.76971
1142.823, 6.010864
1143.305, 10.16315
1143.787, 22.42303
1144.269, 29.72333
1144.751, 29.47815
1145.233, 28.82684
1145.715, 32.15735
1146.198, 36.02167
1146.680, 39.75208
1147.162, 42.35309
1147.644, 36.55084
1148.126, 23.27142
1148.608, 16.15405
1149.090, 22.25128
1149.572, 27.99915
1150.054, 19.24982
1150.536, 8.608704
1151.019, 8.012756
1151.501, 18.75110
1151.983, 24.68146
1152.465, 25.77222
1152.947, 23.89838
1153.429, 19.59607
1153.911, 13.32739
1154.393, 0.6260990
1154.876, 14.26270
1155.358, 11.35858
1155.840, 17.21985
1156.322, 34.78577
1156.804, 39.48425
1157.286, 39.70984
1157.768, 44.23016
1158.250, 46.75952
1158.733, 34.83990
1159.215, 13.82092
1159.697, 2.428467
1160.179, 10.18311
1160.661, 13.38336
1161.143, 7.884216
1161.625, 1.316589
1162.107, 2.600037
1162.589, 8.764526
1163.072, 17.67462
1163.554, 28.35352
1164.036, 29.63049
1164.518, 9.203186
1165.000, 4.811035
1165.482, 5.577087
1165.964, 3.041504
1166.446, 20.95264
1166.928, 41.19806
1167.411, 45.75262
1167.893, 28.62897
1168.375, 15.73291
1168.857, 18.44446
1169.339, 23.27924
1169.821, 25.13800
1170.303, 25.65887
1170.785, 32.58588
1171.268, 42.50562
1171.750, 42.83008
1172.232, 23.56866
1172.714, 10.14313
1173.196, 23.25793
1173.678, 34.76282
1174.160, 22.73712
1174.642, 6.489990
1175.125, 4.370972
1175.607, 22.97729
1176.089, 41.65234
1176.571, 25.19226
1177.053, 10.61200
1177.535, 17.97803
1178.017, 32.00806
1178.499, 39.62653
1178.981, 40.90222
1179.464, 38.20154
1179.946, 31.78406
1180.428, 25.44452
1180.910, 20.50201
1181.392, 17.44269
1181.874, 16.95782
1182.356, 18.31256
1182.838, 21.09564
1183.320, 24.68011
1183.803, 27.09631
1184.285, 28.11432
1184.767, 30.14532
1185.249, 38.45996
1185.731, 45.15918
1186.213, 42.23956
1186.695, 33.65784
1187.177, 31.83795
1187.660, 37.58087
1188.142, 36.19611
1188.624, 24.25000
1189.106, 13.66852
1189.588, 18.09265
1190.070, 25.69342
1190.552, 26.02563
1191.034, 19.99304
1191.516, 18.07874
1191.999, 20.99280
1192.481, 19.18341
1192.963, 8.464966
1193.445, 1.434387
1193.927, 13.57397
1194.409, 30.92688
1194.891, 39.07727
1195.373, 36.59717
1195.855, 35.76398
1196.338, 36.64746
1196.820, 36.60181
1197.302, 34.53198
1197.784, 31.33557
1198.266, 25.02802
1198.748, 19.74609
1199.230, 22.41840
1199.712, 35.90222
1200.195, 41.11987
1200.677, 36.93866
1201.159, 32.38605
1201.641, 33.50195
1202.123, 35.10675
1202.605, 30.02521
1203.087, 21.81769
1203.569, 16.21552
1204.052, 14.15088
1204.534, 13.60175
1205.016, 14.64722
1205.498, 16.75537
1205.980, 23.38055
1206.462, 27.82581
1206.944, 17.66205
1207.426, 9.5092997E-02
1207.908, 7.723389
1208.391, 3.258118
1208.873, 7.891785
1209.355, 27.01361
1209.837, 45.33655
1210.319, 57.03485
1210.801, 62.55829
1211.283, 58.76544
1211.765, 48.81152
1212.247, 43.98053
1212.730, 47.54175
1213.212, 45.59192
1213.694, 36.01324
1214.176, 26.54492
1214.658, 29.56201
1215.140, 34.16925
1215.622, 24.03247
1216.104, 2.362549
1216.587, 7.258911
1217.069, 0.7114870
1217.551, 7.974854
1218.033, 17.20453
1218.515, 25.53748
1218.997, 32.29486
1219.479, 36.61829
1219.961, 35.29144
1220.443, 29.10889
1220.926, 31.87634
1221.408, 48.76636
1221.890, 54.03040
1222.372, 38.96307
1222.854, 19.49146
1223.336, 14.25061
1223.818, 17.22577
1224.300, 22.44635
1224.782, 29.20898
1225.265, 29.10022
1225.747, 19.09955
1226.229, 18.80640
1226.711, 39.04028
1227.193, 58.07550
1227.675, 41.29150
1228.157, 13.12164
1228.639, 4.160950
1229.122, 19.75867
1229.604, 30.92883
1230.086, 37.70404
1230.568, 39.65607
1231.050, 34.39532
1231.532, 29.49072
1232.014, 34.97272
1232.496, 42.79773
1232.979, 44.04456
1233.461, 37.64209
1233.943, 29.67767
1234.425, 19.44916
1234.907, 15.98834
1235.389, 28.68317
1235.871, 41.67645
1236.353, 33.71112
1236.835, 19.71808
1237.318, 21.64734
1237.800, 43.50140
1238.282, 54.95166
1238.764, 55.89252
1239.246, 47.25922
1239.728, 17.99890
1240.210, 6.039978
1240.692, 7.701782
1241.175, 34.39960
1241.657, 38.12201
1242.139, 12.54919
1242.621, 3.593140
1243.103, 11.22278
1243.585, 20.08478
1244.067, 19.93115
1244.549, 18.69775
1245.031, 22.20581
1245.514, 27.71381
1245.996, 31.26428
1246.478, 32.71649
1246.960, 34.69373
1247.442, 37.22845
1247.924, 38.61462
1248.406, 38.44312
1248.888, 36.04932
1249.370, 26.33038
1249.853, 17.11938
1250.335, 21.89899
1250.817, 39.78424
1251.299, 40.04651
1251.781, 22.89130
1252.263, 11.29993
1252.745, 28.35938
1253.227, 43.54608
1253.710, 39.72876
1254.192, 28.57190
1254.674, 28.79163
1255.156, 37.36298
1255.638, 39.38617
1256.120, 34.31293
1256.602, 27.13464
1257.084, 16.10291
1257.567, 9.236938
1258.049, 8.879761
1258.531, 12.80078
1259.013, 22.38770
1259.495, 35.06683
1259.977, 46.10730
1260.459, 54.42053
1260.941, 53.43921
1261.423, 27.93024
1261.906, 9.208496
1262.388, 3.885864
1262.870, 8.543762
1263.352, 26.62158
1263.834, 48.36633
1264.316, 44.37762
1264.798, 15.22406
1265.280, 0.8490600
1265.762, 26.29657
1266.245, 46.77075
1266.727, 54.71509
1267.209, 54.34052
1267.691, 48.78418
1268.173, 40.10602
1268.655, 30.19867
1269.137, 19.58502
1269.619, 14.55304
1270.102, 16.62360
1270.584, 19.35736
1271.066, 19.96674
1271.548, 21.74072
1272.030, 31.78229
1272.512, 43.37103
1272.994, 48.01251
1273.476, 45.25122
1273.958, 43.14606
1274.441, 42.33600
1274.923, 39.94904
1275.405, 34.80292
1275.887, 30.55493
1276.369, 33.11914
1276.851, 36.78192
1277.333, 35.40497
1277.815, 29.73425
1278.297, 25.88397
1278.780, 23.86108
1279.262, 23.83942
1279.744, 25.62665
1280.226, 30.89600
1280.708, 46.51880
1281.190, 61.11005
1281.672, 68.01715
1282.154, 67.08612
1282.637, 51.44055
1283.119, 23.89246
1283.601, 12.80084
1284.083, 26.57440
1284.565, 37.95660
1285.047, 22.41760
1285.529, 9.683228
1286.011, 16.22467
1286.494, 34.17615
1286.976, 44.59698
1287.458, 47.16980
1287.940, 37.21997
1288.422, 11.36536
1288.904, 6.108276
1289.386, 1.516541
1289.868, 7.804749
1290.350, 18.71857
1290.833, 27.89990
1291.315, 25.72522
1291.797, 17.68011
1292.279, 14.59863
1292.761, 18.85046
1293.243, 24.85028
1293.725, 33.68451
1294.207, 39.08453
1294.689, 30.31262
1295.172, 25.03937
1295.654, 13.44788
1296.136, 1.831238
1296.618, 2.9724000E-02
1297.100, 10.20758
1297.582, 19.91962
1298.064, 27.13123
1298.546, 24.78027
1299.029, 12.91248
1299.511, 0.0000000E+00
##END=



