##NAMES=Davidite-(La)
##RRUFFID=R070698
##IDEAL CHEMISTRY=La^3+^(Y^3+^,U^4+^)Fe^3+^_2_(Ti^4+^,Fe^3+^,Cr^3+^,V^5+^)_18_(O,OH,F)_38_
##LOCALITY=Pandora prospect, Covered Wells, Quijotoa District, Quijotoa Mts, Pima County, Arizona, USA
##OWNER=RRUFF
##SOURCE=Michael Scott
##DESCRIPTION=Black submetallic massive
##STATUS=The identification of this mineral is confirmed by single-crystal X-ray diffraction and chemical analysis.
##URL=rruff.info/R070698
##MEASURED CHEMISTRY=(La_0.48_Ce_0.35_Nd_0.03_Pr_0.01_Ca_0.13_)_∑=1.00_(U_0.32_Y_0.23_Sc_0.07_Ca_0.07_Th_0.05_)_∑=0.74_Fe_2_(Ti_12.42_Fe_4.24_Mg_0.29_Cr_0.25_Al_0.18_Zr_0.07_Mn_0.05_)_∑=17.50_O_38_
157.1782, 0.0000000E+00
157.6603, 2.929581
158.1424, 4.896317
158.6245, 6.751144
159.1066, 3.062424
159.5887, 0.3044280
160.0709, 7.4447997E-02
160.5530, 3.043625
161.0351, 7.529572
161.5172, 12.94060
161.9993, 21.40253
162.4814, 40.07195
162.9636, 62.50281
163.4457, 76.47070
163.9278, 73.44910
164.4099, 60.55701
164.8920, 49.93372
165.3741, 41.27933
165.8563, 34.36436
166.3384, 28.47589
166.8205, 28.31425
167.3026, 28.80950
167.7847, 37.86256
168.2668, 51.36597
168.7490, 58.38348
169.2311, 57.49982
169.7132, 53.11552
170.1953, 45.17960
170.6774, 35.75199
171.1595, 28.03104
171.6417, 23.47023
172.1238, 21.38191
172.6059, 21.33370
173.0880, 24.11113
173.5701, 25.70905
174.0522, 27.84000
174.5344, 29.51809
175.0165, 27.10811
175.4986, 16.44064
175.9807, 1.416397
176.4628, 3.402031
176.9449, 9.696991
177.4271, 21.90981
177.9092, 22.91045
178.3913, 18.37370
178.8734, 16.95707
179.3555, 16.49611
179.8376, 17.16194
180.3197, 17.25502
180.8019, 16.80952
181.2840, 17.88519
181.7661, 18.29016
182.2482, 17.62364
182.7303, 21.78204
183.2124, 35.24573
183.6946, 53.87234
184.1767, 67.10950
184.6588, 63.52299
185.1409, 59.77246
185.6230, 59.94812
186.1051, 61.51252
186.5873, 60.85278
187.0694, 61.07525
187.5515, 58.12005
188.0336, 49.71763
188.5157, 28.23389
188.9978, 14.81590
189.4800, 17.78506
189.9621, 27.04115
190.4442, 32.51553
190.9263, 29.69887
191.4084, 21.54917
191.8905, 15.94304
192.3727, 14.53495
192.8548, 13.59701
193.3369, 10.55116
193.8190, 8.329504
194.3011, 10.92773
194.7832, 20.22989
195.2654, 32.41059
195.7475, 39.74674
196.2296, 40.12907
196.7117, 39.56403
197.1938, 39.03431
197.6759, 38.36992
198.1581, 37.98780
198.6402, 37.71317
199.1223, 36.18911
199.6044, 28.89777
200.0865, 7.142914
200.5686, 2.720131
201.0508, 6.936771
201.5329, 23.68458
202.0150, 41.18774
202.4971, 56.68427
202.9792, 66.46956
203.4613, 62.33606
203.9435, 33.28101
204.4256, 15.59572
204.9077, 17.24739
205.3898, 24.48832
205.8719, 29.26051
206.3540, 29.63499
206.8362, 27.43709
207.3183, 24.54887
207.8004, 20.07049
208.2825, 17.49230
208.7646, 20.68270
209.2467, 22.55795
209.7289, 16.86096
210.2110, 4.207857
210.6931, 8.179465
211.1752, 10.79027
211.6573, 0.5525360
212.1395, 6.349506
212.6216, 2.144547
213.1037, 3.391108
213.5858, 5.769270
214.0679, 5.202129
214.5500, 5.153339
215.0322, 8.327272
215.5143, 5.211585
215.9964, 9.228251
216.4785, 4.769493
216.9606, 12.35359
217.4427, 18.72667
217.9249, 15.84520
218.4070, 10.11981
218.8891, 6.676534
219.3712, 5.578716
219.8533, 4.279480
220.3354, 0.3144060
220.8176, 0.6243560
221.2997, 2.218556
221.7818, 9.152815
222.2639, 15.62996
222.7460, 19.27002
223.2281, 20.09070
223.7103, 17.53577
224.1924, 4.117518
224.6745, 13.64629
225.1566, 8.964128
225.6387, 13.25589
226.1208, 21.35198
226.6030, 18.10843
227.0851, 6.824752
227.5672, 14.21478
228.0493, 13.83953
228.5314, 11.08670
229.0135, 11.29066
229.4957, 18.07312
229.9778, 24.24393
230.4599, 29.80117
230.9420, 33.37515
231.4241, 31.00582
231.9062, 18.15285
232.3884, 15.28509
232.8705, 27.01986
233.3526, 34.92793
233.8347, 34.54593
234.3168, 24.54702
234.7989, 13.47099
235.2811, 26.32899
235.7632, 36.51619
236.2453, 43.74186
236.7274, 46.92703
237.2095, 48.95919
237.6916, 52.69671
238.1738, 58.15538
238.6559, 61.58941
239.1380, 57.09497
239.6201, 41.56155
240.1022, 29.58356
240.5843, 21.14479
241.0665, 16.85120
241.5486, 19.11172
242.0307, 26.80722
242.5128, 35.22487
242.9949, 39.91583
243.4770, 39.95087
243.9592, 40.26891
244.4413, 44.02593
244.9234, 45.53051
245.4055, 40.46375
245.8876, 31.11769
246.3697, 23.35074
246.8519, 21.58238
247.3340, 25.35608
247.8161, 29.87216
248.2982, 37.66131
248.7803, 42.43991
249.2624, 40.28477
249.7446, 34.31983
250.2267, 29.63782
250.7088, 29.47066
251.1909, 31.92127
251.6730, 31.03366
252.1551, 24.07101
252.6373, 19.70607
253.1194, 23.61040
253.6015, 30.02847
254.0836, 32.29732
254.5657, 27.47875
255.0478, 19.78995
255.5300, 15.88379
256.0121, 16.53034
256.4942, 18.12436
256.9763, 21.09049
257.4584, 23.76328
257.9406, 24.63942
258.4227, 23.17632
258.9048, 21.35057
259.3869, 19.34440
259.8690, 16.76958
260.3511, 16.45955
260.8333, 20.44906
261.3154, 25.87386
261.7975, 31.95432
262.2796, 38.23537
262.7617, 41.56348
263.2438, 37.30492
263.7260, 27.13595
264.2081, 21.28921
264.6902, 22.56384
265.1723, 25.68967
265.6544, 27.06353
266.1365, 27.03339
266.6187, 26.66124
267.1008, 25.82382
267.5829, 25.04492
268.0650, 25.86869
268.5471, 28.56599
269.0292, 30.69824
269.5114, 28.61616
269.9935, 24.39754
270.4756, 23.59856
270.9577, 30.14093
271.4398, 38.37872
271.9219, 41.89855
272.4041, 40.56348
272.8862, 37.74674
273.3683, 35.46067
273.8504, 32.91865
274.3325, 29.08305
274.8146, 22.02248
275.2968, 17.34349
275.7789, 21.36105
276.2610, 31.79913
276.7431, 39.35579
277.2252, 40.35150
277.7073, 37.51102
278.1895, 35.47190
278.6716, 34.79433
279.1537, 32.86547
279.6358, 27.02069
280.1179, 19.52961
280.6000, 14.48881
281.0822, 12.90797
281.5643, 12.95832
282.0464, 12.17826
282.5285, 10.23908
283.0106, 10.47497
283.4927, 17.21745
283.9749, 23.60876
284.4570, 22.00297
284.9391, 12.26903
285.4212, 4.079813
285.9033, 8.747050
286.3854, 7.656104
286.8676, 2.865294
287.3497, 16.29408
287.8318, 27.66912
288.3139, 26.31732
288.7960, 16.75739
289.2781, 12.32243
289.7603, 21.42866
290.2424, 39.16587
290.7245, 45.46140
291.2066, 33.06501
291.6887, 19.85809
292.1708, 4.676390
292.6530, 9.739452
293.1351, 12.40373
293.6172, 3.306844
294.0993, 12.25681
294.5814, 19.20171
295.0635, 14.15182
295.5457, 11.05259
296.0278, 11.70691
296.5099, 12.87970
296.9920, 11.60198
297.4741, 7.993991
297.9562, 5.113829
298.4384, 6.823884
298.9205, 14.52575
299.4026, 16.51238
299.8847, 3.939143
300.3668, 4.039826
300.8489, 1.229273
301.3311, 7.965647
301.8131, 17.61954
302.2953, 20.15619
302.7774, 16.98163
303.2595, 15.11297
303.7416, 13.87673
304.2237, 15.20554
304.7058, 24.12535
305.1880, 33.61778
305.6701, 34.27628
306.1522, 22.43481
306.6343, 6.874129
307.1164, 3.617302
307.5985, 17.61540
308.0807, 26.15468
308.5628, 18.01052
309.0449, 8.496022
309.5270, 7.067350
310.0091, 13.88979
310.4912, 22.08886
310.9734, 24.75480
311.4555, 22.59769
311.9376, 24.98083
312.4197, 37.32732
312.9018, 47.01885
313.3839, 45.13302
313.8661, 34.96270
314.3482, 24.39847
314.8303, 16.48243
315.3124, 10.55039
315.7945, 5.171682
316.2766, 4.0149000E-02
316.7588, 2.929475
317.2409, 1.603962
317.7230, 2.260845
318.2051, 6.066364
318.6872, 10.09015
319.1693, 13.39176
319.6515, 14.49412
320.1336, 13.93226
320.6157, 14.30708
321.0978, 16.89615
321.5799, 20.15397
322.0620, 20.79594
322.5442, 18.11618
323.0263, 18.16704
323.5084, 27.74196
323.9905, 38.76792
324.4726, 39.39459
324.9547, 27.67017
325.4369, 12.37416
325.9190, 0.6298570
326.4011, 3.164081
326.8832, 2.079755
327.3653, 3.923990
327.8474, 16.26336
328.3296, 19.86120
328.8117, 16.73783
329.2938, 13.81817
329.7759, 15.15442
330.2580, 20.03599
330.7401, 24.45144
331.2223, 29.31933
331.7044, 32.96698
332.1865, 35.04517
332.6686, 35.90430
333.1507, 35.53786
333.6328, 34.10865
334.1150, 32.44972
334.5971, 32.09117
335.0792, 34.39185
335.5613, 34.21496
336.0434, 27.87700
336.5255, 22.59870
337.0077, 23.33914
337.4898, 29.16102
337.9719, 34.40587
338.4540, 35.22437
338.9361, 32.15237
339.4182, 29.39259
339.9004, 27.78911
340.3825, 25.13651
340.8646, 17.37137
341.3467, 9.654533
341.8288, 9.783909
342.3109, 21.94548
342.7931, 36.93243
343.2752, 39.85095
343.7573, 29.14059
344.2394, 18.58757
344.7215, 9.589443
345.2036, 3.945260
345.6858, 4.116695
346.1679, 9.981421
346.6500, 14.72616
347.1321, 11.34155
347.6142, 3.614933
348.0963, 3.035274
348.5785, 12.98416
349.0606, 24.03553
349.5427, 29.45571
350.0248, 29.31887
350.5069, 24.80670
350.9890, 12.70459
351.4712, 2.280373
351.9533, 1.630853
352.4354, 8.954589
352.9175, 16.78160
353.3996, 21.97811
353.8817, 25.07635
354.3639, 27.10767
354.8460, 27.09006
355.3281, 28.22552
355.8102, 35.62138
356.2923, 42.59972
356.7744, 37.70480
357.2566, 19.39562
357.7387, 1.238506
358.2208, 1.039120
358.7029, 17.03847
359.1850, 30.25616
359.6671, 39.45083
360.1493, 43.26662
360.6314, 38.44170
361.1135, 27.85767
361.5956, 17.01345
362.0777, 8.988762
362.5598, 3.480771
363.0420, 0.7033440
363.5241, 3.912735
364.0062, 5.015280
364.4883, 1.487032
364.9704, 2.408814
365.4525, 2.166803
365.9347, 2.793906
366.4168, 6.528438
366.8989, 6.855080
367.3810, 4.4647999E-02
367.8631, 7.555141
368.3452, 18.29776
368.8274, 26.01265
369.3095, 26.16714
369.7916, 21.14869
370.2737, 16.73464
370.7558, 16.14878
371.2379, 17.28141
371.7201, 16.46957
372.2022, 13.53313
372.6843, 10.48214
373.1664, 6.947786
373.6485, 4.687421
374.1306, 6.351057
374.6128, 12.96763
375.0949, 20.00398
375.5770, 25.69572
376.0591, 29.89642
376.5412, 32.56268
377.0233, 33.75164
377.5055, 32.68891
377.9876, 27.61959
378.4697, 17.99057
378.9518, 11.69103
379.4339, 9.358759
379.9160, 9.908134
380.3982, 14.60952
380.8803, 21.86107
381.3624, 28.23057
381.8445, 31.80264
382.3266, 32.20515
382.8087, 29.50666
383.2909, 19.00654
383.7730, 11.46630
384.2551, 7.985704
384.7372, 6.815693
385.2193, 7.856226
385.7014, 10.16637
386.1836, 11.33297
386.6657, 7.852268
387.1478, 0.5871700
387.6299, 3.212483
388.1120, 6.479519
388.5941, 14.71859
389.0763, 16.48475
389.5584, 13.74043
390.0405, 9.699275
390.5226, 5.065393
391.0047, 1.391377
391.4868, 1.855581
391.9690, 6.988756
392.4511, 11.30506
392.9332, 14.37725
393.4153, 14.97374
393.8974, 10.32878
394.3795, 0.5294180
394.8617, 5.825032
395.3438, 1.133456
395.8259, 8.785740
396.3080, 12.27576
396.7901, 8.228985
397.2722, 4.757482
397.7544, 8.114429
398.2365, 16.86187
398.7186, 22.64543
399.2007, 25.62558
399.6828, 25.54255
400.1649, 20.15917
400.6471, 12.12801
401.1292, 5.462635
401.6113, 1.449070
402.0934, 0.1040670
402.5755, 0.6361390
403.0576, 4.427095
403.5398, 8.365660
404.0219, 15.88628
404.5040, 20.42558
404.9861, 17.29358
405.4682, 8.309128
405.9503, 2.820590
406.4325, 3.805851
406.9146, 13.89940
407.3967, 10.00118
407.8788, 8.019633
408.3609, 28.48118
408.8430, 32.04634
409.3252, 27.73948
409.8073, 19.47531
410.2894, 8.762991
410.7715, 1.794159
411.2536, 7.066857
411.7357, 21.65335
412.2179, 29.74639
412.7000, 28.31802
413.1821, 25.19770
413.6642, 27.01903
414.1463, 30.91189
414.6284, 30.67650
415.1106, 21.52956
415.5927, 12.40040
416.0748, 11.42188
416.5569, 16.26806
417.0390, 17.95465
417.5211, 13.20409
418.0033, 6.059026
418.4854, 2.422534
418.9675, 3.540450
419.4496, 4.164121
419.9317, 2.944054
420.4138, 2.170773
420.8960, 4.168306
421.3781, 7.980756
421.8602, 10.47597
422.3423, 9.535146
422.8244, 6.430152
423.3065, 7.419409
423.7887, 17.15024
424.2708, 23.34123
424.7529, 24.46856
425.2350, 22.94079
425.7171, 18.48886
426.1992, 12.20502
426.6814, 7.288625
427.1635, 8.411657
427.6456, 14.76211
428.1277, 15.97280
428.6098, 9.351093
429.0919, 2.742567
429.5741, 0.3565650
430.0562, 0.4865300
430.5383, 0.7620190
431.0204, 0.4547910
431.5025, 0.5445000
431.9846, 2.568104
432.4668, 6.023295
432.9489, 7.459908
433.4310, 4.907697
433.9131, 2.743731
434.3952, 6.875722
434.8773, 18.19001
435.3595, 26.12350
435.8416, 29.60733
436.3237, 29.99623
436.8058, 27.72820
437.2879, 23.06738
437.7701, 15.59458
438.2522, 4.687006
438.7343, 0.9460030
439.2164, 5.101826
439.6985, 2.767983
440.1806, 1.139957
440.6628, 2.030833
441.1449, 9.379128
441.6270, 10.04360
442.1091, 5.085517
442.5912, 0.2401520
443.0733, 2.557491
443.5555, 1.972051
444.0376, 2.562122
444.5197, 14.06039
445.0018, 20.97692
445.4839, 11.71129
445.9660, 0.4321760
446.4482, 0.9942720
446.9303, 13.43439
447.4124, 26.47926
447.8945, 25.51910
448.3766, 16.57601
448.8587, 12.96898
449.3409, 16.81701
449.8230, 20.38486
450.3051, 16.81463
450.7872, 7.118515
451.2693, 2.013081
451.7514, 5.900066
452.2336, 8.863453
452.7157, 3.591719
453.1978, 2.840261
453.6799, 0.8804670
454.1620, 17.20169
454.6441, 34.77192
455.1263, 37.68919
455.6084, 22.04258
456.0905, 14.59053
456.5726, 25.29593
457.0547, 33.30246
457.5368, 28.24940
458.0190, 17.33508
458.5011, 13.41889
458.9832, 22.55235
459.4653, 36.59776
459.9474, 44.80429
460.4295, 47.16833
460.9117, 45.96066
461.3938, 40.39150
461.8759, 32.89700
462.3580, 24.99932
462.8401, 17.10224
463.3222, 10.00332
463.8044, 1.253953
464.2865, 2.619816
464.7686, 1.860433
465.2507, 16.75131
465.7328, 27.77432
466.2149, 27.85451
466.6971, 21.48594
467.1792, 17.29735
467.6613, 16.56231
468.1434, 15.43791
468.6255, 13.60678
469.1076, 11.66865
469.5898, 9.770835
470.0719, 8.087289
470.5540, 6.936385
471.0361, 6.509523
471.5182, 7.169554
472.0003, 9.151592
472.4825, 13.44630
472.9646, 14.77607
473.4467, 6.034588
473.9288, 1.562331
474.4109, 0.6648510
474.8930, 12.18770
475.3752, 23.61817
475.8573, 31.54292
476.3394, 35.18473
476.8215, 30.03653
477.3036, 15.92985
477.7857, 7.804769
478.2679, 16.10145
478.7500, 32.65840
479.2321, 36.81625
479.7142, 23.74982
480.1963, 12.59597
480.6784, 7.919800
481.1606, 6.070924
481.6427, 2.615836
482.1248, 1.861646
482.6069, 2.093691
483.0890, 6.557907
483.5711, 21.97381
484.0533, 32.65034
484.5354, 38.02973
485.0175, 39.14741
485.4996, 33.11127
485.9817, 25.60470
486.4638, 21.14343
486.9460, 20.14313
487.4281, 20.36312
487.9102, 21.01978
488.3923, 20.86710
488.8744, 16.39301
489.3565, 6.421926
489.8387, 1.047785
490.3208, 1.865595
490.8029, 2.512379
491.2850, 8.539161
491.7671, 16.64774
492.2492, 25.12131
492.7314, 38.16753
493.2135, 48.52527
493.6956, 44.72530
494.1777, 27.61286
494.6598, 10.26625
495.1419, 2.418927
495.6241, 3.058674
496.1062, 5.602116
496.5883, 13.01275
497.0704, 17.90159
497.5525, 18.96096
498.0346, 17.69450
498.5168, 14.81159
498.9989, 10.60054
499.4810, 7.366175
499.9631, 5.573694
500.4452, 4.996930
500.9273, 8.566116
501.4095, 18.25995
501.8916, 24.89481
502.3737, 22.62391
502.8558, 15.51773
503.3379, 9.855909
503.8200, 5.510870
504.3022, 3.202292
504.7843, 3.040756
505.2664, 5.289458
505.7485, 12.74467
506.2306, 24.29835
506.7127, 32.48785
507.1949, 32.07881
507.6770, 24.75159
508.1591, 17.62679
508.6412, 5.806647
509.1233, 1.789337
509.6054, 13.44402
510.0876, 27.22734
510.5697, 33.92781
511.0518, 32.70776
511.5339, 28.04606
512.0161, 22.06598
512.4982, 14.77457
512.9803, 4.529122
513.4624, 4.232176
513.9445, 12.49561
514.4266, 8.215854
514.9088, 2.313640
515.3909, 5.648448
515.8730, 13.78201
516.3551, 19.04029
516.8372, 19.42146
517.3193, 17.80533
517.8015, 17.17915
518.2836, 17.13999
518.7657, 14.72652
519.2478, 7.989920
519.7299, 0.2769230
520.2120, 3.075866
520.6942, 4.268144
521.1763, 8.133127
521.6584, 4.704731
522.1405, 1.373227
522.6226, 1.603658
523.1047, 6.392670
523.5869, 16.85453
524.0690, 35.47923
524.5511, 54.54106
525.0332, 59.31586
525.5153, 49.89466
525.9974, 40.61933
526.4796, 35.10409
526.9617, 30.70113
527.4438, 23.28507
527.9259, 13.37660
528.4080, 4.508896
528.8901, 0.5246020
529.3723, 5.662868
529.8544, 4.524338
530.3365, 2.163885
530.8186, 6.547336
531.3007, 19.90992
531.7828, 31.27938
532.2650, 33.95992
532.7471, 26.14526
533.2292, 20.28374
533.7113, 15.08722
534.1934, 13.58296
534.6755, 21.19585
535.1577, 31.23973
535.6398, 33.58771
536.1219, 24.66405
536.6040, 14.58672
537.0861, 14.36245
537.5682, 20.62539
538.0504, 21.65775
538.5325, 15.42050
539.0146, 9.134827
539.4967, 7.906850
539.9788, 10.64330
540.4609, 13.03115
540.9431, 16.98487
541.4252, 18.55912
541.9073, 14.10728
542.3894, 9.327384
542.8715, 11.20531
543.3536, 18.73681
543.8358, 22.89578
544.3179, 14.50413
544.8000, 1.644248
545.2821, 2.608096
545.7642, 18.93470
546.2463, 35.59014
546.7285, 38.24897
547.2106, 34.83718
547.6927, 30.05630
548.1748, 24.46836
548.6569, 18.96041
549.1390, 12.19181
549.6211, 6.346942
550.1032, 4.654694
550.5853, 6.315081
551.0674, 7.761014
551.5496, 7.556664
552.0317, 6.702888
552.5138, 6.940813
552.9959, 9.607547
553.4780, 8.717991
553.9601, 2.058297
554.4423, 3.0879000E-02
554.9244, 2.224396
555.4065, 10.51290
555.8886, 15.13643
556.3707, 6.316841
556.8528, 4.045351
557.3350, 3.200315
557.8171, 2.164719
558.2992, 7.975546
558.7813, 9.538473
559.2634, 10.40634
559.7455, 13.55218
560.2277, 17.65104
560.7098, 18.43172
561.1919, 12.83340
561.6740, 9.220901
562.1561, 12.61883
562.6382, 17.83276
563.1204, 17.90383
563.6025, 13.37464
564.0846, 11.52066
564.5667, 18.28158
565.0488, 30.76315
565.5309, 37.68190
566.0131, 37.91798
566.4952, 35.38427
566.9773, 26.21717
567.4594, 18.14783
567.9415, 18.20062
568.4236, 24.37646
568.9058, 26.79054
569.3879, 16.54297
569.8700, 4.971760
570.3521, 4.369726
570.8342, 12.20670
571.3163, 20.57578
571.7985, 27.71421
572.2806, 31.64880
572.7627, 28.22527
573.2448, 15.94538
573.7269, 9.379297
574.2090, 13.34801
574.6912, 16.88505
575.1733, 16.02689
575.6554, 13.97019
576.1375, 15.74323
576.6196, 21.90092
577.1017, 26.02923
577.5839, 19.00208
578.0660, 5.056392
578.5481, 1.909025
579.0302, 11.05511
579.5123, 15.05051
579.9944, 1.853729
580.4766, 4.841952
580.9587, 7.586264
581.4408, 3.037983
581.9229, 12.28850
582.4050, 27.24779
582.8871, 35.20903
583.3693, 25.56908
583.8514, 6.164963
584.3335, 5.694292
584.8156, 1.969656
585.2977, 8.709910
585.7798, 12.68746
586.2620, 9.295503
586.7441, 6.347291
587.2262, 4.386635
587.7083, 3.291963
588.1904, 1.690284
588.6725, 1.437156
589.1547, 5.957439
589.6368, 18.70800
590.1189, 28.43625
590.6010, 26.85389
591.0831, 20.76962
591.5652, 19.55381
592.0474, 23.22025
592.5295, 24.85995
593.0116, 19.28615
593.4937, 10.24658
593.9758, 10.17740
594.4579, 24.89200
594.9401, 34.74308
595.4222, 36.47062
595.9043, 34.30351
596.3864, 27.41490
596.8685, 18.29095
597.3506, 13.34156
597.8328, 18.04303
598.3149, 21.57236
598.7970, 8.755370
599.2791, 2.102491
599.7612, 5.408961
600.2433, 4.974815
600.7255, 6.668878
601.2076, 19.17002
601.6897, 27.56768
602.1718, 30.53699
602.6539, 18.04582
603.1360, 13.58865
603.6182, 30.09184
604.1003, 46.72976
604.5824, 45.21554
605.0645, 28.42288
605.5466, 13.98320
606.0287, 12.77235
606.5109, 18.26970
606.9930, 22.50952
607.4751, 25.17551
607.9572, 22.56808
608.4393, 12.39664
608.9214, 2.023994
609.4036, 1.220758
609.8857, 2.719871
610.3678, 7.900447
610.8499, 18.88111
611.3320, 25.22299
611.8141, 19.22605
612.2963, 10.39231
612.7784, 9.444391
613.2605, 16.85221
613.7426, 25.45296
614.2247, 30.64262
614.7068, 32.32129
615.1890, 31.08712
615.6711, 27.23637
616.1532, 23.91878
616.6353, 22.30522
617.1174, 21.29997
617.5995, 18.64182
618.0817, 14.28885
618.5638, 15.37003
619.0459, 28.03149
619.5280, 39.37429
620.0101, 45.70333
620.4922, 47.26873
620.9744, 42.12058
621.4565, 31.43464
621.9386, 23.12096
622.4207, 26.08932
622.9028, 36.56303
623.3849, 38.32405
623.8671, 30.32460
624.3492, 20.68851
624.8313, 8.358941
625.3134, 0.2791320
625.7955, 4.939043
626.2776, 22.98906
626.7598, 35.40576
627.2419, 37.06699
627.7240, 35.68524
628.2061, 33.18114
628.6882, 31.13162
629.1703, 30.93733
629.6525, 32.83388
630.1346, 35.57862
630.6167, 38.06749
631.0988, 40.16478
631.5809, 41.19357
632.0630, 41.19569
632.5452, 39.81746
633.0273, 35.51856
633.5094, 31.16470
633.9915, 30.06124
634.4736, 32.04327
634.9557, 34.52198
635.4379, 39.15876
635.9200, 43.10120
636.4021, 42.12720
636.8842, 39.06507
637.3663, 38.03439
637.8484, 39.63021
638.3306, 39.49671
638.8127, 33.40245
639.2948, 23.95900
639.7769, 24.33014
640.2590, 39.37197
640.7411, 47.33034
641.2233, 37.42708
641.7054, 22.22233
642.1875, 13.91080
642.6696, 12.60309
643.1517, 13.00417
643.6339, 16.27394
644.1160, 18.41138
644.5981, 15.94832
645.0802, 11.43715
645.5623, 8.062369
646.0444, 6.869828
646.5266, 8.739740
647.0087, 15.43501
647.4908, 25.31666
647.9729, 29.52187
648.4550, 25.65514
648.9371, 26.15502
649.4193, 38.98354
649.9014, 52.00599
650.3835, 51.58703
650.8656, 39.84575
651.3477, 31.66120
651.8298, 32.83657
652.3120, 34.54921
652.7941, 30.12903
653.2762, 24.43154
653.7583, 25.78278
654.2404, 33.95597
654.7225, 38.60172
655.2047, 29.57436
655.6868, 13.06573
656.1689, 13.15422
656.6510, 34.53859
657.1331, 41.64240
657.6152, 18.75003
658.0974, 5.534988
658.5795, 1.375069
659.0616, 1.656538
659.5437, 14.14421
660.0258, 29.30644
660.5079, 36.95558
660.9901, 25.86910
661.4722, 10.50006
661.9543, 7.254764
662.4364, 15.88110
662.9185, 25.24027
663.4006, 28.25482
663.8828, 26.87475
664.3649, 26.16371
664.8470, 26.18960
665.3291, 24.18945
665.8112, 18.55511
666.2933, 13.59223
666.7755, 12.31652
667.2576, 14.37730
667.7397, 18.11621
668.2218, 26.30485
668.7039, 31.55315
669.1860, 31.01954
669.6682, 28.19382
670.1503, 24.26000
670.6324, 20.51958
671.1145, 20.25806
671.5966, 25.69010
672.0787, 30.77321
672.5609, 23.15907
673.0430, 5.811108
673.5251, 2.326062
674.0072, 17.34047
674.4893, 31.95223
674.9714, 34.90921
675.4536, 29.92825
675.9357, 26.49608
676.4178, 25.56251
676.8999, 24.07168
677.3820, 21.65478
677.8641, 18.95795
678.3463, 17.08022
678.8284, 14.93094
679.3105, 9.163238
679.7926, 1.257186
680.2747, 2.520902
680.7568, 7.1944997E-02
681.2390, 15.84029
681.7211, 17.62752
682.2032, 5.268666
682.6853, 5.167844
683.1674, 3.729908
683.6495, 2.635484
684.1317, 5.691434
684.6138, 20.59347
685.0959, 25.30901
685.5780, 6.474376
686.0601, 4.038076
686.5422, 2.550729
687.0244, 8.235412
687.5065, 16.07200
687.9886, 19.49592
688.4707, 20.89630
688.9528, 21.22043
689.4349, 20.53073
689.9171, 17.40131
690.3992, 13.32210
690.8813, 15.24134
691.3634, 24.45252
691.8455, 28.58566
692.3276, 12.52701
692.8098, 9.754871
693.2919, 20.63076
693.7740, 1.388845
694.2561, 9.495480
694.7382, 17.63507
695.2203, 18.63606
695.7025, 8.376575
696.1846, 1.496676
696.6667, 3.391733
697.1488, 8.244252
697.6309, 27.68074
698.1130, 27.17703
698.5952, 17.89915
699.0773, 13.46855
699.5594, 14.93652
700.0415, 16.84776
700.5236, 15.64337
701.0057, 13.99263
701.4879, 19.85915
701.9700, 34.10493
702.4521, 36.38306
702.9342, 19.83097
703.4163, 4.411697
703.8984, 2.177082
704.3806, 8.773472
704.8627, 13.39791
705.3448, 14.61399
705.8269, 18.32706
706.3090, 28.34779
706.7911, 37.62031
707.2733, 44.39660
707.7554, 46.51056
708.2375, 38.20001
708.7196, 18.46052
709.2017, 0.1786630
709.6838, 2.769372
710.1660, 1.330499
710.6481, 14.75305
711.1302, 34.76051
711.6123, 46.99202
712.0944, 45.52895
712.5765, 37.97123
713.0587, 33.92522
713.5408, 33.84140
714.0229, 28.50156
714.5050, 7.804224
714.9871, 2.785685
715.4692, 2.073609
715.9514, 13.36738
716.4335, 22.09203
716.9156, 27.24538
717.3977, 27.36752
717.8798, 18.17338
718.3619, 9.683208
718.8441, 13.43273
719.3262, 21.92008
719.8083, 19.64515
720.2904, 6.657333
720.7725, 1.817983
721.2546, 5.117054
721.7368, 20.43134
722.2189, 26.91244
722.7010, 23.19291
723.1831, 19.49044
723.6652, 15.14781
724.1473, 13.76728
724.6295, 20.69111
725.1116, 30.63823
725.5937, 32.03039
726.0758, 21.33678
726.5579, 14.35207
727.0400, 17.73068
727.5222, 21.71248
728.0043, 19.11651
728.4864, 13.66709
728.9685, 12.43916
729.4506, 17.00434
729.9327, 21.93174
730.4149, 21.44179
730.8970, 18.17741
731.3791, 18.12330
731.8612, 21.04984
732.3433, 25.81947
732.8254, 32.80070
733.3076, 36.74332
733.7897, 31.29983
734.2718, 17.45934
734.7539, 7.951276
735.2360, 3.196407
735.7181, 2.143220
736.2003, 7.514008
736.6824, 13.73601
737.1645, 17.32705
737.6466, 18.91056
738.1287, 20.87040
738.6108, 24.90397
739.0930, 28.13484
739.5751, 29.77535
740.0572, 29.34400
740.5393, 23.56487
741.0214, 15.08407
741.5035, 11.67025
741.9857, 16.71114
742.4678, 24.92066
742.9499, 31.27882
743.4320, 35.45852
743.9141, 30.91635
744.3962, 15.73430
744.8784, 5.140427
745.3605, 6.211928
745.8426, 12.30927
746.3247, 14.95882
746.8068, 13.92023
747.2889, 11.32051
747.7711, 2.656015
748.2532, 1.708889
748.7353, 5.442163
749.2174, 14.32987
749.6995, 13.38056
750.1816, 5.108467
750.6638, 3.565761
751.1459, 20.96161
751.6280, 39.13267
752.1101, 36.29810
752.5922, 21.40747
753.0743, 11.38874
753.5565, 7.896812
754.0386, 4.053924
754.5207, 4.202042
755.0028, 2.903737
755.4849, 0.6555400
755.9670, 4.157177
756.4492, 13.45144
756.9313, 17.07750
757.4134, 17.54250
757.8955, 12.89980
758.3776, 7.940476
758.8597, 12.92275
759.3419, 29.82917
759.8240, 35.12159
760.3061, 15.80711
760.7882, 2.137493
761.2703, 4.2091001E-02
761.7524, 0.5270270
762.2346, 0.2073050
762.7167, 1.478197
763.1988, 4.290696
763.6809, 2.854012
764.1630, 10.03145
764.6451, 11.79576
765.1273, 10.24489
765.6094, 10.50801
766.0915, 13.24954
766.5736, 17.34874
767.0557, 22.42928
767.5378, 26.59527
768.0200, 26.16354
768.5021, 19.99095
768.9842, 14.11362
769.4663, 8.185968
769.9484, 3.500105
770.4305, 0.5258860
770.9127, 0.8036470
771.3948, 0.7948430
771.8769, 0.4498230
772.3590, 3.908877
772.8411, 15.45959
773.3232, 22.27272
773.8054, 11.51420
774.2875, 1.882476
774.7696, 1.973519
775.2517, 20.05057
775.7338, 31.69051
776.2159, 22.90997
776.6981, 8.259569
777.1802, 4.080167
777.6623, 6.476542
778.1444, 6.442793
778.6265, 3.022349
779.1086, 0.1407760
779.5908, 0.3447680
780.0729, 0.7798610
780.5550, 2.004026
781.0371, 3.199980
781.5192, 6.283434
782.0013, 11.15362
782.4835, 16.31388
782.9656, 22.85857
783.4477, 27.64447
783.9298, 24.47100
784.4119, 13.01882
784.8940, 8.353186
785.3762, 19.08274
785.8583, 26.35194
786.3404, 21.24345
786.8225, 13.66405
787.3046, 11.34879
787.7867, 14.50819
788.2689, 21.46098
788.7510, 33.85417
789.2331, 42.23430
789.7152, 33.52811
790.1973, 17.97499
790.6794, 13.36802
791.1616, 18.80555
791.6437, 22.89759
792.1258, 20.73454
792.6079, 15.38064
793.0900, 10.07353
793.5721, 5.095358
794.0543, 3.660542
794.5364, 6.439432
795.0185, 8.250028
795.5006, 6.801344
795.9827, 5.733686
796.4648, 9.779243
796.9470, 18.01288
797.4291, 20.38545
797.9112, 12.05871
798.3933, 4.726004
798.8754, 3.177682
799.3575, 1.594784
799.8397, 2.303218
800.3218, 21.99523
800.8039, 30.76144
801.2860, 23.03412
801.7681, 15.49449
802.2502, 17.47439
802.7324, 22.42419
803.2145, 25.21666
803.6966, 26.22818
804.1787, 27.05154
804.6608, 28.24489
805.1429, 28.24502
805.6251, 24.86464
806.1072, 19.82793
806.5893, 16.03287
807.0714, 13.61726
807.5535, 16.07544
808.0356, 25.11691
808.5178, 31.45753
808.9999, 26.51244
809.4820, 16.22562
809.9641, 13.70828
810.4462, 21.94035
810.9283, 28.57088
811.4105, 34.93817
811.8926, 36.88128
812.3747, 29.57544
812.8568, 18.82774
813.3389, 9.440022
813.8210, 1.833062
814.3032, 0.9437500
814.7853, 14.32954
815.2674, 25.57636
815.7495, 28.19423
816.2316, 26.97019
816.7137, 24.99435
817.1959, 23.29513
817.6780, 23.08757
818.1601, 25.16013
818.6422, 27.43031
819.1243, 27.92380
819.6064, 27.97024
820.0886, 30.18464
820.5707, 34.18218
821.0528, 37.45355
821.5349, 39.15949
822.0170, 38.39328
822.4991, 33.09692
822.9813, 25.19089
823.4634, 23.81371
823.9455, 29.40977
824.4276, 32.92532
824.9097, 32.20342
825.3918, 29.69148
825.8740, 26.79453
826.3561, 23.92303
826.8382, 20.18228
827.3203, 12.84508
827.8024, 11.10207
828.2845, 20.48195
828.7667, 28.64452
829.2488, 31.57456
829.7309, 30.87633
830.2130, 28.16073
830.6951, 23.59192
831.1772, 17.16053
831.6594, 0.2626040
832.1415, 1.577518
832.6236, 11.90286
833.1057, 37.94741
833.5878, 44.96762
834.0699, 35.26639
834.5521, 24.80932
835.0342, 20.19389
835.5163, 19.40332
835.9984, 23.62974
836.4805, 28.79947
836.9626, 27.95954
837.4448, 21.77203
837.9269, 12.30532
838.4090, 0.7825410
838.8911, 1.071744
839.3732, 2.424679
839.8553, 19.53173
840.3375, 21.43105
840.8196, 7.695517
841.3017, 4.015678
841.7838, 17.34021
842.2659, 28.60996
842.7480, 23.81791
843.2302, 9.645653
843.7123, 3.084688
844.1944, 6.717662
844.6765, 9.495575
845.1586, 12.60482
845.6407, 13.02115
846.1229, 6.503564
846.6050, 0.9217050
847.0871, 2.746811
847.5692, 2.319331
848.0513, 2.479551
848.5334, 17.97351
849.0156, 26.82690
849.4977, 15.95253
849.9798, 3.120520
850.4619, 5.965034
850.9440, 18.09373
851.4261, 22.46977
851.9083, 13.39103
852.3904, 4.851182
852.8725, 7.597845
853.3546, 13.86405
853.8367, 16.61049
854.3188, 16.35357
854.8010, 14.32273
855.2831, 11.01906
855.7652, 6.922202
856.2473, 1.980050
856.7294, 2.477479
857.2115, 2.664669
857.6937, 1.171453
858.1758, 2.786458
858.6579, 8.248774
859.1400, 14.34395
859.6221, 21.03753
860.1042, 25.60617
860.5864, 23.69305
861.0685, 15.51778
861.5506, 7.460675
862.0327, 1.805114
862.5148, 1.021210
862.9969, 1.473444
863.4791, 9.837908
863.9612, 15.22203
864.4433, 16.97754
864.9254, 11.98672
865.4075, 3.158437
865.8896, 11.06435
866.3718, 2.765339
866.8539, 18.18081
867.3360, 11.30777
867.8181, 2.031763
868.3002, 2.024467
868.7823, 11.44459
869.2645, 19.91097
869.7466, 16.22580
870.2287, 9.752980
870.7108, 0.1970020
871.1929, 1.526588
871.6750, 0.5887380
872.1572, 2.568781
872.6393, 8.368147
873.1214, 8.821666
873.6035, 8.188597
874.0856, 8.608115
874.5677, 10.26855
875.0499, 15.44303
875.5320, 21.45417
876.0141, 22.38830
876.4962, 17.61244
876.9783, 10.68603
877.4604, 3.390433
877.9426, 2.393133
878.4247, 2.783443
878.9068, 1.012516
879.3889, 5.307807
879.8710, 9.568616
880.3531, 11.47251
880.8353, 10.03844
881.3174, 5.658216
881.7995, 2.601032
882.2816, 6.582512
882.7637, 5.259715
883.2458, 3.356474
883.7280, 15.00010
884.2101, 20.59174
884.6922, 22.44101
885.1743, 20.51072
885.6564, 17.45295
886.1385, 20.01004
886.6207, 31.17225
887.1028, 34.07190
887.5849, 22.36919
888.0670, 12.59915
888.5491, 8.645773
889.0313, 8.725541
889.5134, 12.73187
889.9955, 19.79042
890.4776, 25.95431
890.9597, 28.28245
891.4418, 31.23917
891.9240, 37.45660
892.4061, 42.77156
892.8882, 45.37844
893.3703, 45.42989
893.8524, 43.13622
894.3345, 38.59023
894.8167, 32.31249
895.2988, 21.20899
895.7809, 12.47805
896.2630, 10.32684
896.7451, 11.81853
897.2272, 17.23163
897.7094, 23.86142
898.1915, 26.06923
898.6736, 21.79636
899.1557, 18.61443
899.6378, 25.45743
900.1199, 34.43493
900.6021, 35.58008
901.0842, 31.29314
901.5663, 25.54925
902.0484, 20.05916
902.5305, 18.42951
903.0126, 23.47821
903.4948, 30.02139
903.9769, 31.01045
904.4590, 27.10766
904.9411, 18.81403
905.4232, 7.458910
905.9053, 1.373918
906.3875, 1.481081
906.8696, 3.523281
907.3517, 9.315729
907.8338, 28.35256
908.3159, 33.08341
908.7980, 23.41069
909.2802, 13.67395
909.7623, 4.697389
910.2444, 1.095219
910.7265, 6.119267
911.2086, 14.75079
911.6907, 19.91100
912.1729, 21.65776
912.6550, 23.63048
913.1371, 27.50848
913.6192, 26.52835
914.1013, 15.81291
914.5834, 6.601298
915.0656, 6.861259
915.5477, 14.17209
916.0298, 23.25399
916.5119, 36.80842
916.9940, 41.27293
917.4761, 27.27086
917.9583, 17.43748
918.4404, 21.28835
918.9225, 27.49751
919.4046, 25.56569
919.8867, 18.06080
920.3688, 16.53191
920.8510, 26.41199
921.3331, 33.44355
921.8152, 36.81946
922.2973, 35.38571
922.7794, 24.30289
923.2615, 10.81003
923.7437, 3.087965
924.2258, 3.479522
924.7079, 7.840570
925.1900, 20.14812
925.6721, 27.31663
926.1542, 18.99456
926.6364, 9.434252
927.1185, 11.24891
927.6006, 18.73632
928.0827, 19.41600
928.5648, 11.31069
929.0469, 6.324540
929.5291, 16.37881
930.0112, 27.05910
930.4933, 24.92748
930.9754, 18.26112
931.4575, 17.13859
931.9396, 20.90907
932.4218, 24.82060
932.9039, 27.06168
933.3860, 27.17723
933.8681, 22.66474
934.3502, 17.49443
934.8323, 17.87390
935.3145, 21.08940
935.7966, 21.34755
936.2787, 18.51425
936.7608, 15.11247
937.2429, 11.87338
937.7250, 10.88893
938.2072, 16.82936
938.6893, 26.05486
939.1714, 30.60897
939.6535, 30.46998
940.1356, 26.97535
940.6177, 21.26733
941.0999, 15.48734
941.5820, 9.633469
942.0641, 5.805970
942.5462, 9.571596
943.0283, 19.11476
943.5104, 25.51529
943.9926, 28.41153
944.4747, 27.42276
944.9568, 22.32937
945.4389, 17.22082
945.9210, 16.32321
946.4031, 16.75295
946.8853, 8.218272
947.3674, 1.520191
947.8495, 9.684006
948.3316, 7.024766
948.8137, 9.6951000E-02
949.2958, 1.618698
949.7780, 10.74086
950.2601, 16.52358
950.7422, 19.24461
951.2243, 19.96583
951.7064, 17.98308
952.1885, 17.80313
952.6707, 20.48870
953.1528, 22.49727
953.6349, 22.05152
954.1170, 20.48544
954.5991, 19.37037
955.0812, 18.44539
955.5634, 16.64617
956.0455, 13.65799
956.5276, 10.43871
957.0097, 5.927298
957.4918, 3.840745
957.9739, 7.464332
958.4561, 13.21495
958.9382, 15.26577
959.4203, 13.40093
959.9024, 10.51311
960.3845, 2.708726
960.8666, 2.168250
961.3488, 16.46468
961.8309, 30.36851
962.3130, 34.46584
962.7951, 31.95664
963.2772, 28.92693
963.7593, 25.28920
964.2415, 20.30791
964.7236, 10.46267
965.2057, 5.625058
965.6878, 11.34564
966.1699, 17.61371
966.6520, 17.80539
967.1342, 13.91582
967.6163, 9.973890
968.0984, 5.203095
968.5805, 4.195883
969.0626, 13.65339
969.5447, 18.10306
970.0269, 7.317823
970.5090, 4.106998
970.9911, 2.891047
971.4732, 6.235355
971.9553, 9.494909
972.4374, 3.267688
972.9196, 0.3664140
973.4017, 2.523178
973.8838, 5.402482
974.3659, 5.374345
974.8480, 4.820295
975.3301, 5.013742
975.8123, 6.536750
976.2944, 11.64987
976.7765, 23.37062
977.2586, 29.67738
977.7407, 23.76271
978.2228, 16.86448
978.7050, 15.66796
979.1871, 14.47587
979.6692, 3.829975
980.1513, 3.741732
980.6334, 8.593310
981.1155, 3.272494
981.5977, 8.896062
982.0798, 13.93368
982.5619, 15.89340
983.0440, 15.44245
983.5261, 14.03412
984.0082, 13.65952
984.4904, 13.72129
984.9725, 11.28771
985.4546, 4.337032
985.9367, 1.378259
986.4188, 3.384056
986.9009, 4.118994
987.3831, 3.337698
987.8652, 3.023708
988.3473, 4.127996
988.8294, 1.650169
989.3115, 3.084361
989.7936, 11.94069
990.2758, 17.46688
990.7579, 12.98466
991.2400, 8.112541
991.7221, 9.680492
992.2042, 13.98487
992.6863, 17.14021
993.1685, 18.33984
993.6506, 16.72411
994.1327, 10.05127
994.6148, 6.276618
995.0969, 12.13846
995.5790, 18.67427
996.0612, 19.12410
996.5433, 17.07540
997.0254, 18.47467
997.5075, 22.48175
997.9896, 21.92315
998.4717, 12.01944
998.9539, 4.398561
999.4360, 6.288782
999.9181, 10.32074
1000.400, 12.62815
1000.882, 13.18467
1001.364, 11.58421
1001.847, 8.426123
1002.329, 5.670342
1002.811, 3.557814
1003.293, 3.275269
1003.775, 7.778913
1004.257, 11.70287
1004.739, 8.511448
1005.221, 3.891251
1005.703, 7.871972
1006.186, 19.00745
1006.668, 25.35934
1007.150, 21.96129
1007.632, 15.77536
1008.114, 5.788307
1008.596, 1.073767
1009.078, 2.200519
1009.560, 9.596724
1010.043, 15.76958
1010.525, 18.83642
1011.007, 14.77210
1011.489, 1.560436
1011.971, 1.662014
1012.453, 8.691837
1012.935, 27.26086
1013.417, 30.12245
1013.899, 24.59587
1014.382, 15.98013
1014.864, 7.390238
1015.346, 5.653077
1015.828, 15.01190
1016.310, 21.07329
1016.792, 15.55287
1017.274, 8.506216
1017.756, 2.597725
1018.239, 7.9291999E-02
1018.721, 5.831440
1019.203, 16.63099
1019.685, 22.32577
1020.167, 19.39265
1020.649, 17.74944
1021.131, 25.04976
1021.613, 28.36861
1022.095, 15.27870
1022.578, 1.812409
1023.060, 5.946548
1023.542, 21.64553
1024.024, 31.34363
1024.506, 31.37226
1024.988, 28.39300
1025.470, 18.44311
1025.952, 13.18749
1026.435, 24.29483
1026.917, 35.16851
1027.399, 28.92299
1027.881, 13.12030
1028.363, 4.922862
1028.845, 7.712160
1029.327, 12.42055
1029.809, 21.13460
1030.292, 25.81485
1030.774, 20.75709
1031.256, 14.62130
1031.738, 11.57629
1032.220, 12.12077
1032.702, 18.80875
1033.184, 32.76396
1033.666, 38.70020
1034.148, 27.69808
1034.630, 19.36359
1035.113, 18.59189
1035.595, 19.36482
1036.077, 18.91161
1036.559, 17.66679
1037.041, 16.55662
1037.523, 15.61371
1038.005, 12.77529
1038.487, 1.989432
1038.970, 0.4342630
1039.452, 17.48915
1039.934, 32.09693
1040.416, 34.04015
1040.898, 29.82241
1041.380, 26.73204
1041.862, 24.60212
1042.344, 21.23118
1042.826, 13.65229
1043.309, 11.76686
1043.791, 19.53650
1044.273, 25.84771
1044.755, 26.09233
1045.237, 24.40771
1045.719, 25.45931
1046.201, 27.90062
1046.683, 25.05759
1047.166, 12.70571
1047.648, 10.50893
1048.130, 24.30471
1048.612, 30.87124
1049.094, 19.60959
1049.576, 7.551927
1050.058, 9.982746
1050.540, 20.54238
1051.022, 20.43876
1051.505, 7.274117
1051.987, 8.914136
1052.469, 29.41096
1052.951, 37.41089
1053.433, 23.25883
1053.915, 8.753295
1054.397, 7.577059
1054.879, 13.94715
1055.361, 18.88365
1055.844, 22.04831
1056.326, 17.56962
1056.808, 5.475027
1057.290, 0.5523890
1057.772, 1.827013
1058.254, 10.93532
1058.736, 26.69450
1059.218, 39.04025
1059.701, 32.02825
1060.183, 13.02952
1060.665, 7.571391
1061.147, 13.29810
1061.629, 18.06990
1062.111, 20.47755
1062.593, 22.86919
1063.075, 26.02061
1063.557, 25.13675
1064.040, 12.71801
1064.522, 0.6669470
1065.004, 11.25535
1065.486, 35.02390
1065.968, 34.89245
1066.450, 15.07786
1066.932, 1.249517
1067.414, 3.175892
1067.896, 3.638513
1068.379, 1.302790
1068.861, 6.046042
1069.343, 11.71289
1069.825, 15.62541
1070.307, 16.63368
1070.789, 16.29824
1071.271, 19.62027
1071.753, 25.49019
1072.236, 25.64951
1072.718, 15.55255
1073.200, 5.194469
1073.682, 1.000901
1074.164, 0.6114260
1074.646, 3.677962
1075.128, 7.551308
1075.610, 8.596018
1076.093, 7.508251
1076.575, 8.246596
1077.057, 12.03240
1077.539, 10.86628
1078.021, 3.546341
1078.503, 9.149374
1078.985, 3.351366
1079.467, 2.937770
1079.949, 3.980958
1080.432, 7.954802
1080.914, 10.11256
1081.396, 11.14990
1081.878, 13.25669
1082.360, 19.28717
1082.842, 22.64477
1083.324, 20.79031
1083.806, 17.90950
1084.288, 14.67194
1084.771, 12.25299
1085.253, 11.38049
1085.735, 12.32914
1086.217, 17.09891
1086.699, 29.83569
1087.181, 35.14280
1087.663, 30.60084
1088.145, 22.95790
1088.628, 10.95733
1089.110, 1.944403
1089.592, 1.966935
1090.074, 8.280087
1090.556, 15.62116
1091.038, 24.07667
1091.520, 29.36539
1092.002, 31.61446
1092.484, 28.39018
1092.967, 18.13065
1093.449, 10.57133
1093.931, 10.63548
1094.413, 16.54218
1094.895, 27.72044
1095.377, 40.81822
1095.859, 41.93494
1096.341, 32.67339
1096.823, 24.84228
1097.306, 19.41872
1097.788, 14.50053
1098.270, 9.556664
1098.752, 7.040828
1099.234, 9.320988
1099.716, 13.44104
1100.198, 14.80892
1100.680, 14.77985
1101.163, 16.17251
1101.645, 18.41080
1102.127, 20.58667
1102.609, 21.75632
1103.091, 18.78871
1103.573, 9.932588
1104.055, 1.878669
1104.537, 1.705379
1105.020, 3.279809
1105.502, 1.861727
1105.984, 2.639518
1106.466, 3.823803
1106.948, 20.73837
1107.430, 23.38556
1107.912, 8.408811
1108.394, 0.6791630
1108.876, 12.39323
1109.359, 22.97945
1109.841, 23.22730
1110.323, 17.91166
1110.805, 2.779835
1111.287, 3.079284
1111.769, 0.1524520
1112.251, 8.245334
1112.733, 17.09002
1113.215, 12.04465
1113.698, 9.680637
1114.180, 13.15795
1114.662, 15.88309
1115.144, 15.54844
1115.626, 13.85599
1116.108, 11.85022
1116.590, 10.44176
1117.072, 11.18036
1117.555, 14.09762
1118.037, 14.32222
1118.519, 10.91080
1119.001, 10.66896
1119.483, 15.22972
1119.965, 16.69918
1120.447, 11.02139
1120.929, 6.304869
1121.411, 11.41980
1121.894, 22.38520
1122.376, 31.20634
1122.858, 36.74957
1123.340, 29.75434
1123.822, 12.65284
1124.304, 2.802836
1124.786, 5.737636
1125.268, 3.576962
1125.750, 7.168358
1126.233, 26.81125
1126.715, 28.35949
1127.197, 21.60853
1127.679, 20.04081
1128.161, 21.02770
1128.643, 20.25539
1129.125, 17.93456
1129.607, 16.57093
1130.090, 16.52397
1130.572, 14.22192
1131.054, 3.581443
1131.536, 2.043233
1132.018, 10.90684
1132.500, 23.87788
1132.982, 22.65419
1133.464, 15.31086
1133.947, 10.31036
1134.429, 8.719869
1134.911, 11.61242
1135.393, 22.26154
1135.875, 26.28748
1136.357, 17.90801
1136.839, 9.715682
1137.321, 0.3504260
1137.803, 3.515543
1138.286, 6.749399
1138.768, 22.62839
1139.250, 30.45349
1139.732, 30.83455
1140.214, 29.67793
1140.696, 27.03788
1141.178, 21.57665
1141.660, 12.71848
1142.142, 6.697590
1142.625, 5.626840
1143.107, 5.927742
1143.589, 4.790387
1144.071, 3.711094
1144.553, 6.311527
1145.035, 10.83776
1145.517, 11.45518
1145.999, 0.3397000
1146.482, 9.752641
1146.964, 15.46533
1147.446, 17.04737
1147.928, 2.130629
1148.410, 8.516889
1148.892, 6.356337
1149.374, 3.844537
1149.856, 13.21799
1150.339, 0.6886400
1150.821, 9.879105
1151.303, 10.39285
1151.785, 14.87272
1152.267, 10.76111
1152.749, 9.301781
1153.231, 16.43456
1153.713, 18.82053
1154.195, 13.83365
1154.677, 18.93151
1155.160, 6.245371
1155.642, 8.836577
1156.124, 18.05639
1156.606, 13.37621
1157.088, 18.25140
1157.570, 19.48591
1158.052, 4.176777
1158.534, 17.62220
1159.017, 18.62531
1159.499, 6.853277
1159.981, 19.30805
1160.463, 9.294108
1160.945, 7.297940
1161.427, 11.33554
1161.909, 9.080043
1162.391, 16.75741
1162.874, 14.86842
1163.356, 11.96282
1163.838, 12.64220
1164.320, 12.86934
1164.802, 18.86397
1165.284, 17.06667
1165.766, 4.715703
1166.248, 2.851279
1166.730, 4.420081
1167.213, 16.09956
1167.695, 26.26911
1168.177, 31.66241
1168.659, 23.35033
1169.141, 12.29148
1169.623, 17.64067
1170.105, 32.88895
1170.587, 33.74002
1171.069, 13.99649
1171.552, 1.520104
1172.034, 4.330850
1172.516, 6.176158
1172.998, 2.229701
1173.480, 6.895863
1173.962, 11.31171
1174.444, 12.38054
1174.926, 10.48289
1175.409, 7.198342
1175.891, 8.522039
1176.373, 14.64360
1176.855, 17.65875
1177.337, 19.98165
1177.819, 21.91689
1178.301, 23.68707
1178.783, 20.63347
1179.266, 10.46227
1179.748, 0.7309970
1180.230, 0.7631860
1180.712, 3.433608
1181.194, 11.43429
1181.676, 19.45910
1182.158, 20.89648
1182.640, 17.02741
1183.122, 7.781587
1183.604, 2.744127
1184.087, 0.9971800
1184.569, 7.381859
1185.051, 17.56297
1185.533, 18.14207
1186.015, 16.26374
1186.497, 12.65551
1186.979, 10.11899
1187.461, 10.24499
1187.944, 12.75353
1188.426, 18.04350
1188.908, 25.08445
1189.390, 26.69866
1189.872, 19.84078
1190.354, 19.47738
1190.836, 27.95281
1191.318, 32.20398
1191.801, 28.92688
1192.283, 23.45325
1192.765, 18.43888
1193.247, 15.32024
1193.729, 16.37876
1194.211, 20.27324
1194.693, 25.20312
1195.175, 30.09796
1195.657, 32.25698
1196.140, 31.62738
1196.622, 27.56072
1197.104, 21.04317
1197.586, 15.64950
1198.068, 14.79639
1198.550, 16.55258
1199.032, 22.83222
1199.514, 28.14462
1199.996, 28.06348
1200.479, 24.18653
1200.961, 26.23711
1201.443, 28.07552
1201.925, 18.62429
1202.407, 0.3280780
1202.889, 1.738198
1203.371, 2.274470
1203.853, 9.384817
1204.336, 14.32404
1204.818, 17.58370
1205.300, 18.13207
1205.782, 19.93912
1206.264, 23.93673
1206.746, 27.90284
1207.228, 21.65301
1207.710, 10.53583
1208.193, 8.948455
1208.675, 13.57679
1209.157, 15.26570
1209.639, 14.25376
1210.121, 13.09878
1210.603, 11.87898
1211.085, 7.755550
1211.567, 0.5329840
1212.049, 0.4124190
1212.531, 1.006538
1213.014, 5.674538
1213.496, 12.03985
1213.978, 17.50730
1214.460, 21.34013
1214.942, 24.42678
1215.424, 28.12870
1215.906, 29.82628
1216.388, 29.80585
1216.871, 24.94839
1217.353, 21.85210
1217.835, 21.29472
1218.317, 18.83026
1218.799, 13.59394
1219.281, 8.466932
1219.763, 4.324434
1220.245, 0.9745110
1220.728, 7.850307
1221.210, 17.51996
1221.692, 14.95608
1222.174, 6.543300
1222.656, 5.369827
1223.138, 8.390471
1223.620, 9.727900
1224.102, 8.467906
1224.584, 5.535723
1225.067, 1.514790
1225.549, 0.2619460
1226.031, 1.301779
1226.513, 3.408920
1226.995, 3.482941
1227.477, 2.762767
1227.959, 0.0000000E+00
##END=



