##NAMES=Devilline
##RRUFFID=R060126
##IDEAL CHEMISTRY=CaCu^2+^_4_(S^6+^O_4_)_2_(OH)_6_&#183;3H_2_O
##LOCALITY=Herrengrund, Hungary
##OWNER=RRUFF
##SOURCE=University of Arizona Mineral Museum
##DESCRIPTION=Greenish-blue pseudohexagonal crystals
##STATUS=The identification of this mineral has been confirmed only by single crystal X-ray diffraction.
##URL=rruff.info/R060126
150.3615, 0.0000000E+00
150.8436, 8.8422999E-02
151.3257, 0.1434400
151.8078, 0.1639600
152.2899, 2.3879999E-02
152.7720, 0.1116310
153.2542, 7.8914002E-02
153.7363, 4.0803999E-02
154.2184, 0.1139000
154.7005, 1.4477000E-02
155.1826, 5.9333000E-02
155.6647, 5.1516000E-02
156.1469, 0.1898420
156.6290, 0.2773600
157.1111, 0.3248430
157.5932, 0.3426110
158.0753, 0.3294880
158.5574, 0.2147610
159.0396, 0.3050130
159.5217, 0.3536410
160.0038, 0.3629000
160.4859, 0.2174020
160.9680, 0.2705480
161.4501, 0.2445570
161.9323, 0.2174750
162.4144, 0.4146570
162.8965, 0.4280860
163.3786, 0.2483580
163.8607, 0.1503520
164.3428, 0.2182190
164.8250, 0.2980110
165.3071, 0.2681810
165.7892, 0.1540370
166.2713, 5.9980000E-03
166.7534, 5.6226000E-02
167.2355, 0.3505790
167.7177, 0.5577300
168.1998, 0.6115510
168.6819, 0.5733590
169.1640, 0.5013170
169.6461, 0.3960920
170.1282, 0.2994050
170.6104, 0.2850800
171.0925, 0.3425950
171.5746, 0.3857340
172.0567, 0.3359380
172.5388, 0.2077390
173.0209, 0.1314880
173.5031, 0.1457740
173.9852, 0.1966430
174.4673, 0.2434080
174.9494, 0.2843780
175.4315, 0.3063550
175.9136, 0.2956080
176.3958, 0.2536070
176.8779, 0.2030860
177.3600, 0.1145920
177.8421, 4.6877000E-02
178.3242, 5.5008002E-02
178.8063, 0.1318320
179.2885, 0.2032220
179.7706, 0.1729080
180.2527, 2.2590000E-03
180.7348, 0.1004760
181.2169, 6.7529000E-02
181.6990, 4.8980000E-03
182.1812, 3.9652001E-02
182.6633, 5.6185000E-02
183.1454, 5.7684001E-02
183.6275, 5.9987001E-02
184.1096, 5.4776002E-02
184.5917, 7.0288002E-02
185.0738, 0.1297390
185.5560, 0.1906920
186.0381, 0.2332080
186.5202, 0.1736930
187.0023, 0.2784610
187.4844, 0.3432700
187.9665, 0.3684060
188.4487, 0.2394750
188.9308, 0.3096400
189.4129, 0.2999140
189.8950, 0.2875250
190.3771, 0.3882770
190.8592, 0.2818700
191.3414, 0.3780430
191.8235, 0.1781800
192.3056, 3.3769000E-02
192.7877, 4.1232999E-02
193.2698, 5.6127001E-02
193.7519, 1.0297000E-02
194.2341, 0.1046370
194.7162, 0.2521050
195.1983, 0.3608600
195.6804, 0.4424020
196.1625, 0.4775290
196.6446, 0.4340930
197.1268, 0.3396840
197.6089, 0.2509680
198.0910, 0.1774330
198.5731, 0.1342070
199.0552, 0.1502930
199.5373, 0.2352320
200.0195, 0.3168250
200.5016, 0.3688740
200.9837, 0.3892060
201.4658, 0.3586800
201.9479, 0.2244460
202.4300, 8.4666997E-02
202.9122, 5.9154000E-02
203.3943, 0.1597550
203.8764, 0.2690790
204.3585, 0.2733990
204.8406, 0.1736490
205.3227, 0.1285330
205.8048, 0.2364550
206.2870, 0.3689120
206.7691, 0.4382920
207.2512, 0.4344330
207.7333, 0.3909600
208.2154, 0.3166700
208.6975, 0.1886150
209.1797, 0.1526690
209.6618, 0.3622780
210.1439, 0.5856660
210.6260, 0.6901050
211.1081, 0.6557580
211.5902, 0.5574100
212.0724, 0.4938980
212.5545, 0.4857740
213.0366, 0.4464270
213.5187, 0.3154520
214.0008, 0.1898450
214.4829, 0.1296020
214.9651, 0.1460400
215.4472, 0.2078400
215.9293, 0.2748730
216.4114, 0.3613000
216.8935, 0.4211350
217.3756, 0.4519280
217.8578, 0.4639830
218.3399, 0.4642150
218.8220, 0.4554100
219.3041, 0.4356760
219.7862, 0.4030280
220.2683, 0.3539830
220.7505, 0.3091910
221.2326, 0.2674680
221.7147, 0.2299550
222.1968, 0.1972830
222.6789, 0.1696780
223.1610, 0.1457940
223.6432, 0.1193390
224.1253, 5.5709999E-02
224.6074, 7.3072001E-02
225.0895, 0.2828770
225.5716, 0.5092000
226.0537, 0.5693040
226.5358, 0.4248790
227.0180, 0.2108080
227.5001, 0.1199420
227.9822, 0.2083710
228.4643, 0.2456690
228.9464, 0.1594940
229.4285, 4.2884000E-02
229.9107, 1.1296000E-02
230.3928, 1.7262001E-02
230.8749, 0.1103320
231.3570, 0.2836360
231.8391, 0.5562800
232.3212, 0.7121480
232.8034, 0.6359180
233.2855, 0.4551490
233.7676, 0.3171820
234.2497, 0.2455480
234.7318, 0.2319560
235.2139, 0.3040230
235.6961, 0.4488160
236.1782, 0.5546240
236.6603, 0.6014090
237.1424, 0.5901280
237.6245, 0.4973240
238.1066, 0.2900980
238.5888, 8.8977002E-02
239.0709, 2.8496001E-02
239.5530, 7.9239003E-02
240.0351, 0.1663370
240.5172, 0.2996860
240.9993, 0.4459270
241.4815, 0.5314910
241.9636, 0.5255300
242.4457, 0.5156360
242.9278, 0.6043730
243.4099, 0.7387630
243.8920, 0.8002710
244.3742, 0.6874420
244.8563, 0.4757030
245.3384, 0.3431390
245.8205, 0.3197890
246.3026, 0.3101100
246.7847, 0.2389460
247.2668, 0.1467450
247.7490, 0.1055010
248.2311, 0.1782600
248.7132, 0.3077640
249.1953, 0.3424970
249.6774, 0.2283170
250.1595, 0.1272470
250.6417, 8.9694001E-02
251.1238, 0.1070460
251.6059, 0.1840740
252.0880, 0.3412750
252.5701, 0.5286470
253.0522, 0.6263530
253.5344, 0.6174640
254.0165, 0.5420890
254.4986, 0.3362960
254.9807, 0.1107090
255.4628, 1.4110000E-03
255.9449, 6.9131002E-02
256.4271, 0.2428560
256.9092, 0.3329650
257.3913, 0.2918980
257.8734, 0.2528780
258.3555, 0.2367350
258.8376, 0.2380940
259.3198, 0.2580520
259.8019, 0.2975900
260.2840, 0.3428310
260.7661, 0.3660770
261.2482, 0.3573920
261.7303, 0.3362090
262.2125, 0.2759140
262.6946, 0.2208840
263.1767, 0.2191330
263.6588, 0.2832420
264.1409, 0.3626570
264.6230, 0.3610650
265.1052, 0.1903020
265.5873, 0.1161010
266.0694, 0.2451470
266.5515, 0.3964670
267.0336, 0.4156490
267.5157, 0.2779500
267.9979, 9.4077997E-02
268.4800, 3.3137999E-02
268.9621, 0.1692340
269.4442, 0.2729580
269.9263, 0.3547420
270.4084, 0.4040780
270.8906, 0.4043020
271.3727, 0.3584810
271.8548, 0.2903920
272.3369, 0.2247610
272.8190, 0.1530100
273.3011, 0.1178640
273.7833, 0.1642540
274.2654, 0.2029120
274.7475, 0.1674090
275.2296, 6.6688001E-02
275.7117, 3.7009001E-02
276.1938, 8.5513003E-02
276.6760, 7.8270003E-02
277.1581, 1.0402000E-02
277.6402, 0.2071730
278.1223, 0.3901710
278.6044, 0.4330060
279.0865, 0.3581170
279.5686, 0.2618540
280.0508, 0.2229870
280.5329, 0.2434300
281.0150, 0.2303240
281.4971, 0.1256210
281.9792, 5.2365001E-02
282.4613, 7.1184002E-02
282.9435, 0.1598400
283.4256, 0.2663230
283.9077, 0.3628190
284.3898, 0.4454820
284.8719, 0.4701950
285.3540, 0.3709180
285.8362, 0.2980900
286.3183, 0.3089470
286.8004, 0.3718220
287.2825, 0.4315540
287.7646, 0.4622880
288.2467, 0.4655310
288.7289, 0.4385650
289.2110, 0.3573810
289.6931, 0.2776020
290.1752, 0.1957240
290.6573, 0.1255380
291.1394, 8.5755996E-02
291.6216, 8.3370000E-02
292.1037, 0.1161060
292.5858, 0.1876150
293.0679, 0.3493960
293.5500, 0.4492590
294.0321, 0.4444260
294.5143, 0.3823820
294.9964, 0.2998520
295.4785, 0.2070650
295.9606, 0.1330940
296.4427, 0.1289240
296.9248, 0.2398830
297.4070, 0.2785610
297.8891, 0.1530650
298.3712, 3.2180001E-03
298.8533, 3.4575999E-02
299.3354, 5.5994000E-02
299.8175, 0.1806310
300.2997, 0.2415360
300.7818, 0.2233810
301.2639, 0.2493810
301.7460, 0.3788760
302.2281, 0.5055770
302.7102, 0.5643730
303.1924, 0.5515070
303.6745, 0.4830440
304.1566, 0.3493490
304.6387, 0.1611840
305.1208, 7.9336002E-02
305.6029, 0.1714810
306.0851, 0.2934330
306.5672, 0.4061460
307.0493, 0.4940190
307.5314, 0.4971900
308.0135, 0.3539110
308.4956, 0.1223810
308.9778, 6.4338997E-02
309.4599, 0.3426730
309.9420, 0.5605230
310.4241, 0.5612190
310.9062, 0.4208620
311.3883, 0.2739480
311.8705, 0.1689690
312.3526, 0.1068190
312.8347, 9.9866003E-02
313.3168, 0.1640750
313.7989, 0.2329490
314.2810, 0.3263350
314.7632, 0.4060450
315.2453, 0.4108160
315.7274, 0.3215110
316.2095, 0.1930000
316.6916, 9.6288003E-02
317.1737, 3.6435001E-02
317.6559, 1.4420000E-02
318.1380, 7.7722996E-02
318.6201, 0.1213820
319.1022, 9.7668000E-02
319.5843, 5.0909999E-03
320.0664, 8.3691999E-02
320.5485, 8.3930999E-02
321.0306, 1.2810000E-02
321.5128, 5.2260002E-03
321.9949, 0.3013650
322.4770, 0.5759810
322.9591, 0.5926470
323.4412, 0.3730220
323.9233, 0.1599530
324.4055, 0.1041350
324.8876, 0.1917880
325.3697, 0.3036250
325.8518, 0.5116120
326.3339, 0.6629280
326.8160, 0.6879480
327.2982, 0.6154190
327.7803, 0.4921930
328.2624, 0.3289750
328.7445, 0.1620920
329.2266, 0.1134320
329.7087, 0.2536570
330.1909, 0.3720670
330.6730, 0.4235060
331.1551, 0.4339990
331.6372, 0.4367910
332.1193, 0.4415970
332.6014, 0.4380420
333.0836, 0.4102880
333.5657, 0.3497530
334.0478, 0.2766510
334.5299, 0.1658460
335.0120, 6.9338001E-02
335.4941, 2.2128999E-02
335.9763, 2.8255999E-02
336.4584, 7.6876000E-02
336.9405, 0.1725670
337.4226, 0.3240320
337.9047, 0.3764410
338.3868, 0.2307900
338.8690, 9.1271996E-02
339.3511, 8.8045999E-02
339.8332, 0.1853490
340.3153, 0.2537200
340.7974, 0.2029810
341.2795, 6.0913000E-02
341.7617, 1.0517000E-02
342.2438, 0.1555480
342.7259, 0.2558250
343.2080, 0.2132870
343.6901, 0.1033350
344.1722, 4.9479999E-02
344.6544, 0.1042610
345.1365, 0.2073390
345.6186, 0.2315700
346.1007, 6.8838000E-02
346.5828, 7.6489998E-03
347.0649, 7.9637997E-02
347.5471, 0.2098200
348.0292, 0.2677810
348.5113, 0.2360920
348.9934, 0.1893500
349.4755, 0.2233700
349.9576, 0.3753160
350.4398, 0.4512860
350.9219, 0.4236020
351.4040, 0.3587460
351.8861, 0.2633640
352.3682, 0.1570880
352.8503, 8.1656002E-02
353.3325, 7.2568998E-02
353.8146, 0.1247940
354.2967, 0.1594170
354.7788, 7.8648999E-02
355.2609, 9.1132998E-02
355.7430, 0.3031690
356.2252, 0.3285260
356.7073, 0.3096230
357.1894, 0.2528890
357.6715, 3.8911000E-02
358.1536, 2.9149000E-02
358.6357, 0.2775430
359.1179, 0.4409900
359.5999, 0.4680870
360.0821, 0.4298590
360.5642, 0.3735210
361.0463, 0.3134100
361.5284, 0.2481320
362.0105, 0.1691980
362.4926, 5.9675001E-02
362.9748, 4.2659999E-03
363.4569, 1.3586000E-02
363.9390, 3.3360001E-02
364.4211, 0.2471410
364.9032, 0.5477570
365.3853, 0.7217520
365.8675, 0.5747570
366.3496, 0.1575230
366.8317, 3.5819001E-02
367.3138, 0.1987410
367.7959, 0.4114930
368.2780, 0.5361730
368.7602, 0.5736460
369.2423, 0.4993080
369.7244, 0.2967550
370.2065, 6.3056998E-02
370.6886, 1.2674000E-02
371.1707, 0.2496350
371.6529, 0.4075690
372.1350, 0.3998330
372.6171, 0.3279050
373.0992, 0.2245230
373.5813, 0.1088230
374.0634, 3.1263001E-02
374.5456, 7.5951003E-02
375.0277, 0.2520430
375.5098, 0.3391780
375.9919, 0.2534510
376.4740, 0.1558070
376.9561, 0.1245820
377.4383, 0.1475300
377.9204, 0.1796360
378.4025, 0.2116160
378.8846, 0.2269260
379.3667, 0.1595380
379.8488, 5.6471001E-02
380.3310, 0.1840170
380.8131, 1.0852000E-02
381.2952, 0.2461180
381.7773, 0.3452780
382.2594, 0.1997990
382.7415, 8.3379997E-03
383.2237, 2.4822000E-02
383.7058, 0.2474300
384.1879, 0.3631850
384.6700, 0.2238910
385.1521, 2.5962999E-02
385.6342, 6.0518000E-02
386.1164, 3.7957001E-02
386.5985, 2.7275000E-02
387.0806, 0.1350670
387.5627, 0.2616190
388.0448, 0.3347570
388.5269, 0.3534560
389.0091, 0.3397670
389.4912, 0.2853640
389.9733, 0.2095530
390.4554, 0.1553960
390.9375, 0.1297930
391.4196, 0.1306000
391.9018, 0.1728000
392.3839, 0.2503670
392.8660, 0.3039220
393.3481, 0.2989000
393.8302, 0.2627790
394.3123, 0.2548170
394.7945, 0.2893570
395.2766, 0.3036170
395.7587, 0.2544150
396.2408, 0.1735730
396.7229, 0.1107080
397.2050, 7.5384997E-02
397.6872, 6.8797000E-02
398.1693, 0.1055240
398.6514, 0.1914380
399.1335, 0.2299420
399.6156, 0.1361360
400.0977, 5.9571002E-02
400.5798, 0.1450200
401.0620, 0.3585100
401.5441, 0.5327580
402.0262, 0.5599260
402.5083, 0.4693600
402.9904, 0.4034010
403.4725, 0.3847170
403.9547, 0.3584030
404.4368, 0.2874790
404.9189, 0.2143780
405.4010, 0.1956420
405.8831, 0.2474730
406.3652, 0.3323150
406.8474, 0.4019460
407.3295, 0.4765460
407.8116, 0.4656260
408.2937, 0.2675780
408.7758, 8.4114999E-02
409.2579, 5.3266000E-02
409.7401, 0.1446380
410.2222, 0.2284070
410.7043, 0.2038570
411.1864, 8.9029998E-02
411.6685, 4.3290999E-02
412.1506, 0.1437250
412.6328, 0.2212790
413.1149, 0.2586050
413.5970, 0.2578670
414.0791, 0.1975700
414.5612, 8.0628999E-02
415.0433, 2.9984999E-02
415.5255, 1.1624000E-02
416.0076, 0.2818800
416.4897, 0.4411890
416.9718, 0.3801830
417.4539, 0.2769780
417.9360, 0.1912520
418.4182, 0.1327560
418.9003, 0.1024880
419.3824, 0.1040750
419.8645, 0.1337540
420.3466, 0.1781190
420.8287, 0.2466590
421.3109, 0.3076240
421.7930, 0.3692930
422.2751, 0.4110230
422.7572, 0.4003920
423.2393, 0.3210830
423.7214, 0.2246870
424.2036, 0.1649250
424.6857, 0.1376080
425.1678, 0.1194090
425.6499, 9.1885000E-02
426.1320, 8.0830999E-02
426.6141, 0.1288890
427.0963, 0.2252660
427.5784, 0.2824070
428.0605, 0.2155060
428.5426, 0.1062110
429.0247, 9.2327997E-02
429.5068, 0.1834970
429.9890, 0.2876790
430.4711, 0.3574890
430.9532, 0.3922770
431.4353, 0.4069190
431.9174, 0.4297360
432.3995, 0.3900940
432.8817, 9.2519000E-02
433.3638, 0.1877790
433.8459, 0.2381960
434.3280, 0.2475750
434.8101, 9.6992999E-02
435.2922, 0.1530050
435.7744, 0.1262220
436.2565, 9.6043997E-02
436.7386, 0.1811360
437.2207, 5.3828001E-02
437.7028, 0.1331590
438.1849, 0.1204290
438.6671, 0.1570390
439.1492, 0.1114080
439.6313, 9.1505997E-02
440.1134, 0.1549340
440.5955, 0.1719810
441.0776, 0.1166210
441.5598, 0.1568000
442.0418, 0.2156420
442.5240, 0.3042210
443.0061, 0.3041930
443.4882, 0.2363280
443.9703, 0.1186700
444.4524, 8.3329000E-02
444.9345, 0.1690560
445.4167, 2.5762999E-02
445.8988, 0.1239520
446.3809, 0.2166640
446.8630, 0.2553030
447.3451, 0.2497680
447.8272, 0.1935590
448.3094, 0.1251760
448.7915, 0.1607860
449.2736, 0.3587500
449.7557, 0.4932290
450.2378, 0.4461710
450.7199, 0.3576080
451.2021, 0.3512420
451.6842, 0.4322230
452.1663, 0.4610870
452.6484, 0.1771530
453.1305, 0.2938650
453.6126, 0.3682600
454.0948, 0.4026100
454.5769, 0.2769710
455.0590, 0.3579210
455.5411, 0.3560810
456.0232, 0.4431160
456.5053, 0.3313390
456.9875, 0.1887920
457.4696, 0.1428270
457.9517, 0.1747620
458.4338, 0.1960200
458.9159, 0.1731170
459.3980, 0.1348570
459.8802, 0.1267770
460.3623, 0.1508310
460.8444, 0.1723430
461.3265, 0.1936040
461.8086, 0.2039570
462.2907, 0.1715820
462.7729, 0.1082780
463.2550, 8.3630003E-02
463.7371, 0.1480380
464.2192, 0.2147460
464.7013, 0.3109800
465.1834, 0.3648960
465.6656, 0.3787660
466.1477, 0.2326480
466.6298, 0.2931220
467.1119, 0.2707870
467.5940, 0.1703880
468.0761, 0.1187350
468.5583, 0.1247060
469.0404, 0.1992220
469.5225, 0.2614650
470.0046, 0.3636480
470.4867, 0.3978090
470.9688, 0.2347770
471.4510, 1.1080001E-03
471.9331, 8.2392998E-02
472.4152, 0.1000880
472.8973, 0.4040640
473.3794, 0.5728000
473.8615, 0.5867760
474.3437, 0.5349120
474.8258, 0.3430240
475.3079, 0.1623450
475.7900, 9.2312999E-02
476.2721, 0.1260130
476.7542, 0.1893910
477.2364, 0.2665250
477.7185, 0.3359940
478.2006, 0.3396500
478.6827, 0.2673590
479.1648, 0.1881040
479.6469, 0.1280120
480.1291, 8.7990001E-02
480.6112, 6.7658000E-02
481.0933, 6.9498003E-02
481.5754, 8.4100999E-02
482.0575, 0.1199230
482.5396, 0.1623410
483.0217, 0.1837020
483.5038, 0.1782700
483.9860, 0.1573830
484.4681, 0.1287620
484.9502, 9.2116997E-02
485.4323, 6.1018001E-02
485.9144, 3.3450001E-03
486.3965, 1.5540000E-02
486.8787, 6.0727999E-02
487.3608, 0.1901640
487.8429, 0.3108610
488.3250, 0.3982240
488.8071, 0.4308800
489.2892, 0.3586380
489.7714, 9.5852003E-02
490.2535, 6.0577001E-02
490.7356, 6.0662001E-02
491.2177, 1.9789999E-02
491.6998, 2.2082999E-02
492.1819, 5.5989999E-02
492.6641, 7.8231998E-02
493.1462, 8.5262999E-02
493.6283, 8.1432998E-02
494.1104, 7.8083999E-02
494.5925, 7.2853997E-02
495.0746, 7.4569002E-02
495.5568, 8.7848999E-02
496.0389, 0.1071820
496.5210, 0.1299280
497.0031, 0.1554950
497.4852, 0.1830220
497.9673, 0.2046010
498.4495, 0.2355640
498.9316, 0.3017130
499.4137, 0.4166050
499.8958, 0.5005640
500.3779, 0.4928600
500.8600, 0.4254110
501.3422, 0.3697960
501.8243, 0.3265640
502.3064, 0.2962770
502.7885, 0.3004280
503.2706, 0.3286890
503.7527, 0.3174330
504.2349, 0.2522170
504.7170, 0.1945180
505.1991, 0.2093480
505.6812, 0.3020900
506.1633, 0.3705590
506.6454, 0.4235510
507.1276, 0.4459200
507.6097, 0.4056000
508.0918, 0.3386620
508.5739, 0.3055280
509.0560, 0.3274180
509.5381, 0.3670810
510.0203, 0.3645990
510.5024, 0.3084530
510.9845, 0.2495200
511.4666, 0.1498550
511.9487, 8.5391998E-02
512.4308, 0.1285050
512.9130, 0.2240050
513.3951, 0.2498030
513.8772, 0.1246770
514.3593, 4.1478999E-02
514.8414, 1.7431000E-02
515.3235, 0.2315930
515.8057, 0.4029240
516.2878, 0.3785740
516.7699, 0.3027040
517.2520, 0.3095370
517.7341, 0.3859350
518.2162, 0.4287120
518.6984, 0.3739540
519.1805, 0.2738280
519.6626, 0.1788150
520.1447, 9.2776000E-02
520.6268, 5.1578999E-02
521.1089, 8.6823002E-02
521.5911, 0.1601770
522.0732, 0.1804070
522.5553, 0.1325960
523.0374, 8.7847002E-02
523.5195, 3.8107999E-02
524.0016, 1.0028000E-02
524.4838, 4.1352998E-02
524.9659, 0.1232400
525.4480, 0.2097040
525.9301, 0.2701510
526.4122, 0.3037700
526.8943, 0.3055880
527.3765, 0.2523150
527.8586, 0.1986670
528.3407, 0.1328710
528.8228, 7.9474002E-02
529.3049, 7.0928000E-02
529.7870, 9.8137997E-02
530.2692, 0.1288290
530.7513, 0.1172820
531.2334, 7.1695000E-02
531.7155, 3.5705999E-02
532.1976, 1.6360000E-03
532.6797, 3.1200000E-03
533.1619, 6.4048000E-02
533.6440, 0.1673040
534.1261, 0.2979080
534.6082, 0.4654320
535.0903, 0.5711270
535.5724, 0.4904760
536.0546, 0.3147020
536.5367, 0.2599010
537.0188, 0.3613820
537.5009, 0.4527630
537.9830, 0.3925390
538.4651, 0.2187450
538.9473, 0.1489550
539.4294, 0.2987310
539.9115, 0.3970170
540.3936, 0.3005770
540.8757, 0.1432680
541.3578, 0.1083280
541.8400, 0.2218270
542.3221, 0.3557650
542.8042, 0.3759200
543.2863, 0.2800700
543.7684, 0.2085660
544.2505, 0.1734360
544.7326, 0.1504480
545.2147, 0.1369740
545.6968, 0.1309790
546.1790, 0.1236470
546.6611, 0.1147260
547.1432, 0.1353900
547.6253, 0.2354970
548.1074, 0.3906380
548.5895, 0.4485490
549.0717, 0.3755940
549.5538, 0.2708520
550.0359, 0.1262920
550.5180, 4.6700002E-03
551.0001, 3.7000000E-02
551.4822, 0.3312320
551.9644, 0.5677770
552.4465, 0.4629400
552.9286, 0.1740850
553.4107, 5.1167000E-02
553.8928, 0.1651730
554.3749, 0.3001170
554.8571, 0.2482470
555.3392, 1.7410999E-02
555.8213, 0.1179510
556.3034, 0.1096280
556.7855, 8.0381997E-02
557.2676, 6.0780998E-02
557.7498, 3.7872002E-02
558.2319, 7.9509998E-03
558.7140, 7.9774000E-02
559.1961, 0.1611510
559.6782, 0.2366860
560.1603, 0.3060810
560.6425, 0.3627710
561.1246, 0.3852210
561.6067, 0.4266970
562.0888, 0.5646300
562.5709, 0.6987020
563.0530, 0.6918120
563.5352, 0.5067380
564.0173, 0.3055330
564.4994, 0.2282810
564.9815, 0.2460320
565.4636, 0.2701490
565.9457, 0.2953790
566.4279, 0.3092490
566.9100, 0.2903120
567.3921, 0.2559060
567.8742, 0.2679100
568.3563, 0.3767020
568.8384, 0.4479040
569.3206, 0.4085900
569.8027, 0.3206530
570.2848, 0.2532580
570.7669, 0.2192940
571.2490, 0.2015950
571.7311, 0.1845430
572.2133, 0.1692310
572.6954, 0.1850230
573.1775, 0.2667960
573.6596, 0.3291340
574.1417, 0.3654930
574.6238, 0.3763820
575.1060, 0.3512550
575.5881, 0.2956530
576.0702, 0.2430020
576.5523, 0.2254910
577.0344, 0.2327390
577.5165, 0.2241370
577.9987, 0.1951680
578.4808, 0.1692810
578.9629, 0.1471020
579.4450, 0.1408780
579.9271, 0.1777820
580.4092, 0.2691030
580.8914, 0.3252950
581.3735, 0.2798020
581.8556, 0.2026240
582.3377, 0.1651160
582.8198, 0.1726460
583.3019, 0.2183340
583.7841, 0.3037160
584.2662, 0.3946120
584.7483, 0.3821100
585.2304, 0.1088390
585.7125, 4.9029998E-03
586.1946, 0.1985980
586.6768, 0.4116340
587.1589, 0.4193660
587.6410, 0.2716960
588.1231, 0.1455180
588.6052, 0.1452660
589.0873, 0.2181440
589.5695, 0.2605170
590.0516, 0.2708290
590.5337, 0.2575110
591.0158, 0.1992430
591.4979, 0.1452700
591.9800, 0.1322850
592.4622, 0.1561830
592.9443, 0.2025260
593.4264, 0.3225410
593.9085, 0.4132950
594.3906, 0.3178180
594.8727, 0.1230220
595.3549, 0.1155460
595.8370, 0.3998300
596.3191, 0.7090790
596.8012, 0.6918300
597.2833, 0.2750610
597.7654, 5.0512999E-02
598.2476, 0.1449840
598.7297, 0.2542860
599.2118, 0.2976740
599.6939, 0.2962050
600.1760, 0.2735580
600.6581, 0.2405220
601.1403, 0.2190600
601.6224, 0.2492490
602.1045, 0.3271260
602.5866, 0.3577310
603.0687, 0.3386210
603.5508, 0.2762730
604.0330, 8.5620001E-02
604.5151, 0.1089070
604.9972, 0.1152950
605.4793, 0.1304600
605.9614, 0.3475570
606.4435, 0.3673750
606.9257, 0.2894140
607.4078, 0.2572390
607.8899, 0.2792670
608.3720, 0.2728660
608.8541, 0.1899750
609.3362, 6.3965999E-02
609.8184, 1.5950000E-03
610.3005, 7.3717996E-02
610.7826, 0.1049690
611.2647, 4.3528002E-02
611.7468, 1.1997000E-02
612.2289, 1.5667001E-02
612.7111, 0.1041080
613.1932, 0.1792560
613.6753, 0.1899240
614.1574, 0.1706960
614.6395, 0.1726500
615.1216, 0.1961610
615.6038, 0.2259280
616.0859, 0.2856720
616.5680, 0.3206200
617.0501, 0.2492390
617.5322, 0.1115450
618.0143, 4.4819999E-02
618.4965, 0.1314470
618.9786, 0.2365230
619.4607, 0.2951830
619.9428, 0.3120230
620.4249, 0.2684320
620.9070, 0.1666160
621.3892, 0.1084950
621.8713, 0.2199450
622.3534, 0.4967190
622.8355, 0.5914270
623.3176, 0.2831320
623.7997, 7.4197002E-02
624.2819, 9.6275002E-02
624.7640, 0.2094680
625.2461, 0.3143340
625.7282, 0.3841080
626.2103, 0.4040750
626.6924, 0.3362310
627.1745, 0.2199110
627.6566, 0.1606380
628.1387, 0.1633130
628.6208, 0.1479650
629.1030, 6.4860001E-02
629.5851, 2.7275000E-02
630.0672, 2.3100000E-02
630.5493, 8.2130000E-02
631.0314, 0.1579700
631.5135, 0.1762510
631.9957, 0.1685980
632.4778, 0.1428620
632.9599, 0.1086180
633.4420, 7.9839997E-02
633.9241, 6.2201001E-02
634.4063, 5.4892998E-02
634.8884, 4.9991000E-02
635.3705, 4.0298000E-02
635.8526, 0.1012450
636.3347, 0.3292700
636.8168, 0.4901530
637.2990, 0.4692420
637.7811, 0.3606640
638.2632, 0.2762050
638.7453, 0.2400100
639.2274, 0.2009420
639.7095, 9.4823003E-02
640.1917, 2.6392000E-02
640.6738, 5.6958001E-02
641.1559, 6.4460002E-03
641.6380, 7.2797000E-02
642.1201, 9.0042002E-02
642.6022, 8.5487001E-02
643.0844, 0.1239680
643.5665, 0.2442320
644.0486, 0.3258630
644.5307, 0.3354120
645.0128, 0.3378050
645.4949, 0.3937300
645.9771, 0.4654190
646.4592, 0.4579790
646.9413, 0.3266470
647.4234, 0.1768540
647.9055, 0.1791380
648.3876, 0.3296250
648.8698, 0.4291750
649.3519, 0.4463260
649.8340, 0.4482650
650.3161, 0.4889210
650.7982, 0.5384040
651.2803, 0.5301420
651.7625, 0.4321380
652.2446, 0.3478910
652.7267, 0.3483760
653.2088, 0.3639410
653.6909, 0.2882290
654.1730, 0.1410070
654.6552, 5.7783000E-02
655.1373, 0.1285300
655.6194, 0.2811520
656.1015, 0.3143760
656.5836, 0.1393870
657.0657, 7.4809998E-02
657.5479, 0.2878020
658.0300, 0.4699280
658.5121, 0.4575260
658.9942, 0.3224700
659.4763, 0.2150930
659.9584, 0.1854810
660.4406, 0.1931280
660.9227, 0.2280890
661.4048, 0.2694660
661.8869, 0.2484610
662.3690, 0.1468090
662.8511, 5.7328001E-02
663.3333, 5.6285001E-02
663.8154, 0.1108110
664.2975, 0.1138630
664.7796, 4.7129001E-02
665.2617, 9.9399999E-02
665.7438, 5.7788000E-02
666.2260, 0.2431860
666.7081, 0.3576540
667.1902, 0.3938150
667.6723, 0.3586650
668.1544, 0.2444600
668.6365, 0.1160770
669.1187, 8.4583998E-02
669.6008, 0.1444840
670.0829, 0.1934670
670.5650, 0.2243200
671.0471, 0.2167270
671.5292, 0.1138100
672.0114, 2.6892999E-02
672.4935, 4.0640000E-02
672.9756, 0.1745670
673.4577, 0.3112750
673.9398, 0.2101600
674.4219, 4.9265001E-02
674.9041, 3.9530001E-03
675.3862, 5.4170001E-02
675.8683, 0.1573980
676.3504, 0.2725370
676.8325, 0.3690380
677.3146, 0.3541180
677.7968, 0.1899930
678.2789, 0.1021580
678.7610, 0.1676060
679.2431, 0.2437190
679.7252, 0.2259660
680.2073, 0.1606010
680.6895, 0.1514970
681.1716, 0.2574260
681.6537, 0.3280260
682.1358, 0.2032230
682.6179, 2.5675001E-02
683.1000, 3.4882002E-02
683.5822, 0.2283540
684.0643, 0.4068830
684.5464, 0.4409700
685.0285, 0.3603530
685.5106, 0.2567220
685.9927, 8.8012002E-02
686.4749, 6.3669998E-03
686.9570, 0.1111960
687.4391, 0.2099140
687.9212, 0.2021580
688.4033, 0.1362150
688.8854, 0.1094080
689.3676, 0.1622940
689.8497, 0.2173510
690.3318, 0.1841810
690.8139, 0.1109510
691.2960, 0.1010560
691.7781, 0.1646350
692.2603, 0.2696480
692.7424, 0.4149130
693.2245, 0.5571890
693.7066, 0.5767080
694.1887, 0.3628150
694.6708, 0.2493660
695.1530, 0.2966770
695.6351, 0.3746370
696.1172, 0.4355020
696.5993, 0.4793690
697.0814, 0.5296750
697.5635, 0.5977240
698.0457, 0.6116280
698.5278, 0.4420500
699.0099, 0.1672180
699.4920, 2.6704000E-02
699.9741, 4.3667000E-02
700.4562, 0.1080430
700.9384, 0.1800810
701.4205, 0.2417440
701.9026, 0.2473590
702.3847, 0.1539940
702.8668, 0.1202850
703.3489, 0.1948880
703.8311, 0.2811550
704.3132, 0.3396310
704.7953, 0.3748740
705.2774, 0.3977520
705.7595, 0.4122490
706.2416, 0.4229280
706.7238, 0.4407470
707.2059, 0.4595550
707.6880, 0.4538770
708.1701, 0.4238090
708.6522, 0.3585930
709.1343, 0.2274680
709.6164, 8.9511000E-02
710.0985, 4.6128001E-02
710.5806, 0.1112050
711.0627, 0.1613760
711.5449, 0.1581920
712.0270, 0.1746430
712.5091, 0.3153270
712.9912, 0.4791950
713.4733, 0.4942100
713.9554, 0.3363730
714.4376, 0.1686610
714.9197, 0.1557400
715.4018, 0.2550530
715.8839, 0.2932390
716.3660, 0.2591110
716.8481, 0.2502070
717.3303, 0.3204980
717.8124, 0.3945840
718.2945, 0.3745080
718.7766, 0.2680630
719.2587, 0.1803660
719.7408, 6.8429001E-02
720.2230, 3.8052000E-02
720.7051, 0.2238860
721.1872, 0.4607940
721.6693, 0.5433570
722.1514, 0.4580720
722.6335, 0.3359310
723.1157, 0.2712970
723.5978, 0.2590470
724.0799, 0.2706360
724.5620, 0.3132960
725.0441, 0.2930600
725.5262, 0.1404730
726.0084, 1.4525000E-02
726.4905, 8.8527001E-02
726.9726, 0.3030560
727.4547, 0.4257260
727.9368, 0.4402770
728.4189, 0.3699360
728.9011, 0.1075470
729.3832, 0.1538250
729.8653, 0.2185000
730.3474, 0.1056980
730.8295, 6.9935001E-02
731.3116, 0.2466270
731.7938, 0.3937580
732.2759, 0.4385000
732.7580, 0.3779720
733.2401, 0.3689240
733.7222, 0.4494080
734.2043, 0.5105360
734.6865, 0.4759680
735.1686, 0.3852690
735.6507, 0.3332840
736.1328, 0.3124450
736.6149, 0.3109930
737.0970, 0.3470600
737.5792, 0.3944650
738.0613, 0.4448840
738.5434, 0.4879240
739.0255, 0.5176310
739.5076, 0.5295340
739.9897, 0.4954100
740.4719, 0.3498070
740.9540, 0.1181180
741.4361, 2.3778999E-02
741.9182, 7.4438997E-02
742.4003, 2.5912000E-02
742.8824, 0.1969180
743.3646, 0.4384450
743.8467, 0.4470850
744.3288, 0.2185230
744.8109, 0.1181830
745.2930, 0.3422760
745.7751, 0.5037460
746.2573, 0.3659780
746.7394, 0.1249150
747.2215, 1.8327000E-02
747.7036, 7.3167004E-02
748.1857, 0.1653690
748.6678, 0.2084070
749.1500, 0.2185120
749.6321, 0.2280270
750.1142, 0.2369830
750.5963, 0.2510400
751.0784, 0.2762070
751.5605, 0.2894650
752.0427, 0.2492630
752.5248, 0.1792230
753.0069, 0.2115730
753.4890, 0.4891950
753.9711, 0.6386100
754.4532, 0.5243940
754.9354, 0.3454270
755.4175, 0.2101060
755.8996, 0.1326570
756.3817, 0.1191290
756.8638, 0.1762720
757.3459, 0.2360900
757.8281, 0.2031330
758.3102, 0.1044020
758.7923, 4.0367998E-02
759.2744, 1.7410999E-02
759.7565, 2.6397999E-02
760.2386, 7.1649998E-02
760.7208, 0.1309600
761.2029, 0.1671950
761.6850, 0.1777650
762.1671, 0.1746430
762.6492, 0.1124140
763.1313, 9.1876000E-02
763.6135, 0.1873910
764.0956, 0.3144660
764.5777, 0.3818600
765.0598, 0.3799870
765.5419, 0.3688550
766.0240, 0.3962610
766.5062, 0.4283650
766.9883, 0.4283320
767.4704, 0.3924480
767.9525, 0.2718480
768.4346, 4.9325000E-02
768.9167, 0.1058680
769.3989, 2.2657000E-02
769.8810, 0.2480430
770.3631, 0.3847260
770.8452, 0.2664970
771.3273, 0.2350770
771.8094, 0.4271150
772.2916, 0.5975690
772.7737, 0.5804940
773.2558, 0.4504890
773.7379, 0.3791510
774.2200, 0.4292790
774.7021, 0.4755100
775.1843, 0.4162040
775.6664, 0.3157870
776.1485, 0.2489730
776.6306, 0.2236130
777.1127, 0.2471760
777.5948, 0.3242650
778.0770, 0.4164540
778.5591, 0.4649460
779.0412, 0.4677180
779.5233, 0.4757690
780.0054, 0.5076380
780.4875, 0.5040280
780.9697, 0.3868310
781.4518, 0.2711450
781.9339, 0.2798560
782.4160, 0.4049500
782.8981, 0.5327450
783.3802, 0.7143540
783.8624, 0.8022860
784.3445, 0.6227470
784.8266, 0.3611550
785.3087, 0.2830890
785.7908, 0.3886130
786.2729, 0.4730400
786.7551, 0.3957790
787.2372, 0.2282610
787.7193, 0.1414750
788.2014, 0.1460110
788.6835, 0.1699960
789.1656, 0.1993730
789.6478, 0.2374510
790.1299, 0.2959560
790.6120, 0.3584970
791.0941, 0.3910170
791.5762, 0.4129140
792.0583, 0.3494740
792.5404, 6.3928001E-02
793.0225, 0.1627420
793.5046, 0.1820040
793.9868, 7.2241999E-02
794.4689, 7.9397000E-02
794.9510, 0.2419860
795.4331, 0.3750290
795.9152, 0.4663630
796.3973, 0.4967100
796.8795, 0.3808640
797.3616, 0.1599920
797.8437, 4.3625001E-02
798.3258, 8.4363997E-02
798.8079, 0.2110420
799.2900, 0.3812230
799.7722, 0.5661940
800.2543, 0.5938640
800.7364, 0.3220310
801.2185, 0.1814230
801.7006, 0.3477910
802.1827, 0.5094590
802.6649, 0.4868840
803.1470, 0.3681810
803.6291, 0.3327880
804.1112, 0.4370710
804.5933, 0.5115820
805.0754, 0.4321560
805.5576, 0.3140670
806.0397, 0.2541820
806.5218, 0.2531650
807.0039, 0.3135370
807.4860, 0.4292530
807.9681, 0.5270650
808.4503, 0.5148760
808.9324, 0.4172700
809.4145, 0.3783420
809.8966, 0.4156630
810.3787, 0.3916280
810.8608, 0.2278710
811.3430, 7.7817000E-02
811.8251, 0.1084660
812.3072, 0.2858810
812.7893, 0.3670320
813.2714, 0.2810190
813.7535, 0.2060350
814.2357, 0.1640930
814.7178, 0.1434890
815.1999, 0.1373010
815.6820, 0.1464550
816.1641, 0.1799310
816.6462, 0.2412600
817.1284, 0.3018580
817.6105, 0.3396920
818.0926, 0.3574390
818.5747, 0.3703840
819.0568, 0.3723660
819.5389, 0.3071120
820.0211, 0.1499790
820.5032, 3.9909999E-03
820.9853, 4.2413998E-02
821.4674, 2.7241999E-02
821.9495, 9.0269998E-02
822.4316, 0.1444450
822.9138, 0.1983740
823.3959, 0.2707170
823.8780, 0.3253100
824.3601, 0.3391580
824.8422, 0.3172730
825.3243, 0.2642000
825.8065, 0.1452590
826.2886, 8.6041003E-02
826.7707, 0.1784430
827.2528, 0.3060170
827.7349, 0.3652650
828.2170, 0.3658760
828.6992, 0.3345280
829.1813, 0.2844740
829.6634, 0.2522540
830.1455, 0.3010330
830.6276, 0.3940000
831.1097, 0.3953390
831.5919, 0.3067400
832.0740, 0.2154050
832.5561, 0.1367830
833.0382, 0.1060030
833.5203, 0.1785350
834.0024, 0.3296730
834.4846, 0.3742430
834.9667, 0.2061140
835.4488, 8.4803000E-02
835.9309, 2.6312999E-02
836.4130, 1.0807000E-02
836.8951, 4.7431000E-02
837.3773, 0.1135620
837.8594, 0.1721130
838.3415, 0.2144710
838.8236, 0.2545960
839.3057, 0.3300570
839.7878, 0.3811780
840.2700, 0.3104560
840.7521, 0.1787960
841.2342, 0.1272340
841.7163, 0.1874690
842.1984, 0.2748660
842.6805, 0.3113420
843.1627, 0.3171680
843.6448, 0.3548330
844.1269, 0.4250480
844.6090, 0.5006600
845.0911, 0.5889380
845.5732, 0.6371220
846.0554, 0.5986740
846.5375, 0.4994610
847.0196, 0.4110160
847.5017, 0.3254350
847.9838, 0.2709130
848.4659, 0.2639750
848.9481, 0.2674920
849.4302, 0.2712410
849.9123, 0.2753650
850.3944, 0.2828010
850.8765, 0.2834470
851.3586, 0.2779880
851.8408, 0.2718310
852.3229, 0.2619190
852.8050, 0.2291950
853.2871, 0.1949400
853.7692, 0.2020830
854.2513, 0.2501680
854.7335, 0.3063130
855.2156, 0.3519170
855.6977, 0.3767220
856.1798, 0.3576350
856.6619, 0.2956880
857.1440, 0.2026280
857.6262, 5.6588002E-02
858.1083, 1.3518000E-02
858.5904, 0.1763740
859.0725, 0.4015850
859.5546, 0.4958970
860.0367, 0.4497830
860.5189, 0.3801650
861.0010, 0.2071460
861.4831, 0.1202300
861.9652, 0.2306770
862.4473, 0.3668510
862.9294, 0.4006750
863.4116, 0.3503450
863.8937, 0.2920520
864.3758, 0.2444090
864.8579, 0.2074750
865.3400, 0.1992410
865.8221, 0.1886150
866.3043, 0.1082020
866.7864, 2.1740000E-03
867.2685, 2.1514000E-02
867.7506, 8.4903002E-02
868.2327, 0.2235170
868.7148, 0.3068530
869.1970, 0.3385170
869.6791, 0.3137450
870.1612, 0.2325380
870.6433, 0.1881930
871.1254, 0.2111730
871.6075, 0.2505860
872.0897, 0.2665830
872.5718, 0.2672280
873.0539, 0.2545730
873.5360, 0.2222050
874.0181, 0.1912640
874.5002, 0.1171300
874.9823, 9.7593002E-02
875.4644, 0.2117720
875.9465, 0.3687420
876.4286, 0.4751600
876.9108, 0.5209850
877.3929, 0.5242110
877.8750, 0.4445780
878.3571, 0.3772940
878.8392, 0.4056180
879.3214, 0.4567390
879.8035, 0.4267230
880.2856, 0.3280970
880.7677, 0.2457950
881.2498, 0.2232370
881.7319, 0.2195920
882.2141, 0.1936400
882.6962, 0.1463000
883.1783, 5.5151999E-02
883.6604, 6.7447998E-02
884.1425, 0.1270270
884.6246, 8.1275001E-02
885.1068, 1.4312000E-02
885.5889, 8.7419003E-02
886.0710, 0.1483730
886.5531, 0.1906040
887.0352, 0.2082870
887.5173, 0.2230110
887.9995, 0.2269070
888.4816, 0.2437080
888.9637, 0.3138220
889.4458, 0.3993140
889.9279, 0.4262900
890.4100, 0.3900950
890.8922, 0.3085470
891.3743, 7.0239998E-02
891.8564, 8.0980003E-02
892.3385, 2.3488000E-02
892.8206, 0.2379790
893.3027, 0.4323460
893.7849, 0.5702260
894.2670, 0.6085050
894.7491, 0.4846800
895.2312, 0.3442690
895.7133, 0.3398570
896.1954, 0.3991180
896.6776, 0.3964590
897.1597, 0.3394530
897.6418, 0.3173630
898.1239, 0.3677090
898.6060, 0.4306940
899.0881, 0.4344960
899.5703, 0.3858150
900.0524, 0.2954750
900.5345, 0.1570200
901.0166, 0.1263590
901.4987, 0.2664370
901.9808, 0.4196550
902.4630, 0.4682100
902.9451, 0.4254720
903.4272, 0.3303780
903.9093, 0.1198170
904.3914, 3.5150000E-03
904.8735, 4.9603000E-02
905.3557, 0.1059930
905.8378, 0.1194270
906.3199, 0.1166150
906.8020, 0.1225890
907.2841, 0.1393540
907.7662, 0.1685380
908.2484, 0.2019360
908.7305, 0.2587070
909.2126, 0.3964930
909.6947, 0.5203260
910.1768, 0.5262100
910.6589, 0.4463220
911.1411, 0.3818220
911.6232, 0.3712390
912.1053, 0.3537190
912.5874, 0.2497840
913.0695, 0.1228950
913.5516, 8.7402999E-02
914.0338, 0.1139270
914.5159, 9.4272003E-02
914.9980, 8.9689996E-03
915.4801, 5.6988999E-02
915.9622, 3.3512000E-02
916.4443, 4.1510001E-02
916.9265, 7.5787000E-02
917.4086, 6.9527999E-02
917.8907, 8.2227997E-02
918.3728, 0.1243460
918.8549, 0.1461760
919.3370, 0.1165940
919.8192, 7.5152002E-02
920.3013, 7.7505000E-02
920.7834, 0.1248810
921.2655, 0.1678740
921.7476, 0.2123670
922.2297, 0.2422250
922.7119, 0.2314320
923.1940, 0.2290860
923.6761, 0.2797950
924.1582, 0.3548240
924.6403, 0.3986730
925.1224, 0.4076740
925.6046, 0.3803730
926.0867, 0.2577880
926.5688, 0.1464710
927.0509, 0.1417040
927.5330, 0.1661450
928.0151, 8.2038000E-02
928.4973, 7.8245997E-02
928.9794, 0.1011510
929.4615, 0.1715400
929.9436, 0.4590840
930.4257, 0.5116530
930.9078, 0.4301760
931.3900, 0.3115530
931.8721, 0.1995520
932.3542, 0.2017340
932.8363, 0.3458780
933.3184, 0.5154870
933.8005, 0.6027480
934.2827, 0.6209430
934.7648, 0.5996170
935.2469, 0.5402600
935.7290, 0.4378890
936.2111, 0.2882300
936.6932, 0.1914860
937.1754, 0.2173050
937.6575, 0.2942680
938.1396, 0.2889130
938.6217, 0.1937440
939.1038, 0.1006600
939.5859, 2.0432999E-02
940.0681, 4.9856000E-02
940.5502, 0.1245200
941.0323, 0.2840660
941.5144, 0.1916470
941.9965, 7.4206002E-02
942.4786, 0.1618290
942.9608, 5.4979000E-02
943.4429, 0.1802260
943.9250, 0.1005690
944.4071, 4.2151999E-02
944.8892, 0.1508490
945.3713, 0.2935880
945.8535, 0.2871920
946.3356, 0.1484330
946.8177, 8.4701002E-02
947.2998, 0.2207700
947.7819, 0.3365990
948.2640, 0.2973810
948.7462, 0.2114220
949.2283, 0.1557360
949.7104, 0.1371320
950.1925, 0.1909040
950.6746, 0.3106520
951.1567, 0.3771280
951.6389, 0.2098430
952.1210, 1.6920000E-02
952.6031, 0.1436270
953.0852, 0.4277330
953.5673, 0.4732710
954.0494, 0.2726920
954.5316, 0.1404880
955.0137, 0.2491680
955.4958, 0.4196500
955.9779, 0.3596800
956.4600, 0.1313710
956.9421, 5.2753001E-02
957.4242, 0.1194620
957.9063, 0.2033450
958.3884, 0.2736380
958.8705, 0.3383010
959.3527, 0.4123040
959.8348, 0.4675670
960.3169, 0.3928410
960.7990, 0.1349200
961.2811, 4.2826001E-02
961.7632, 0.1676780
962.2454, 0.3404630
962.7275, 0.5538450
963.2096, 0.7094160
963.6917, 0.6720300
964.1738, 0.4631680
964.6559, 0.3214140
965.1381, 0.3062650
965.6202, 0.2627880
966.1023, 0.1004850
966.5844, 7.2720000E-03
967.0665, 0.1313380
967.5486, 0.3351250
968.0308, 0.4342530
968.5129, 0.4170370
968.9950, 0.3905810
969.4771, 0.3534310
969.9592, 0.3418790
970.4413, 0.3993130
970.9235, 0.4592010
971.4056, 0.4692370
971.8877, 0.4392160
972.3698, 0.3904620
972.8519, 0.3285110
973.3340, 0.2776400
973.8162, 0.2646970
974.2983, 0.2690710
974.7804, 0.2672600
975.2625, 0.2717600
975.7446, 0.3144390
976.2267, 0.3824360
976.7089, 0.4246150
977.1910, 0.4189430
977.6731, 0.3861600
978.1552, 0.3468780
978.6373, 0.3033860
979.1194, 0.2502840
979.6016, 0.1958680
980.0837, 0.1703610
980.5658, 0.1770650
981.0479, 0.1944270
981.5300, 0.2116400
982.0121, 0.2069980
982.4943, 0.1058380
982.9764, 5.5530000E-02
983.4585, 5.1507998E-02
983.9406, 0.1144750
984.4227, 0.2412180
984.9048, 0.2668980
985.3870, 0.2301260
985.8691, 0.1531860
986.3512, 6.0281001E-02
986.8333, 5.8370002E-02
987.3154, 0.1714200
987.7975, 0.2653050
988.2797, 0.3393320
988.7618, 0.3660220
989.2439, 0.3129240
989.7260, 0.2543750
990.2081, 0.2854700
990.6902, 0.3926380
991.1724, 0.4472410
991.6545, 0.4363750
992.1366, 0.3986250
992.6187, 0.2861950
993.1008, 0.2243630
993.5829, 0.3210880
994.0651, 0.4649920
994.5472, 0.4819570
995.0293, 0.3686160
995.5114, 0.3375090
995.9935, 0.5352640
996.4756, 0.6051330
996.9578, 0.3590050
997.4399, 0.1215910
997.9220, 9.7197004E-02
998.4041, 0.1979340
998.8862, 0.2642860
999.3683, 0.2777020
999.8505, 0.3129330
1000.333, 0.4387690
1000.815, 0.5411230
1001.297, 0.5734940
1001.779, 0.5406570
1002.261, 0.4127240
1002.743, 0.2337500
1003.225, 6.6113003E-02
1003.707, 7.5386003E-02
1004.190, 0.1249150
1004.672, 1.2469999E-03
1005.154, 0.1700410
1005.636, 0.3721880
1006.118, 0.5290740
1006.600, 0.5316940
1007.082, 0.4123000
1007.564, 0.2668960
1008.046, 0.1289780
1008.529, 4.4381000E-02
1009.011, 7.5676002E-02
1009.493, 0.1549310
1009.975, 0.2107550
1010.457, 0.2586050
1010.939, 0.3462570
1011.421, 0.4590390
1011.903, 0.5131350
1012.385, 0.4659970
1012.868, 0.3958400
1013.350, 0.3935650
1013.832, 0.4233900
1014.314, 0.4126170
1014.796, 0.3768100
1015.278, 0.3763090
1015.760, 0.4127270
1016.242, 0.4194720
1016.725, 0.3563360
1017.207, 0.2583590
1017.689, 0.1523920
1018.171, 5.6549001E-02
1018.653, 5.2790001E-02
1019.135, 0.1213130
1019.617, 0.2223030
1020.099, 0.3414400
1020.581, 0.3939230
1021.064, 0.3146060
1021.546, 0.1752860
1022.028, 9.4098002E-02
1022.510, 7.2259001E-02
1022.992, 0.1468930
1023.474, 0.3209700
1023.956, 0.4411130
1024.438, 0.4717820
1024.921, 0.4396910
1025.403, 0.3427970
1025.885, 0.2279870
1026.367, 0.1984730
1026.849, 0.2604730
1027.331, 0.3172720
1027.813, 0.3775080
1028.295, 0.3689860
1028.777, 0.2431480
1029.260, 0.1490400
1029.742, 0.2219970
1030.224, 0.3965240
1030.706, 0.4897860
1031.188, 0.4920970
1031.670, 0.4484430
1032.152, 0.3336500
1032.634, 0.2499120
1033.116, 0.2454250
1033.599, 0.2373890
1034.081, 0.1264360
1034.563, 2.2822000E-02
1035.045, 8.7350002E-03
1035.527, 0.3134310
1036.009, 0.4747090
1036.491, 0.4304110
1036.973, 0.3601500
1037.456, 0.3006090
1037.938, 0.2478020
1038.420, 0.2070770
1038.902, 0.1704090
1039.384, 0.1001160
1039.866, 3.7994001E-02
1040.348, 0.1034740
1040.830, 9.2890002E-02
1041.313, 2.0686001E-02
1041.795, 0.2282410
1042.277, 0.4331930
1042.759, 0.3395450
1043.241, 6.5072000E-02
1043.723, 6.3390001E-03
1044.205, 0.2330520
1044.687, 0.3875710
1045.169, 0.3989850
1045.651, 0.3791710
1046.134, 0.3540550
1046.616, 0.3167710
1047.098, 0.2332280
1047.580, 0.1295790
1048.062, 6.8056002E-02
1048.544, 4.9291998E-02
1049.026, 8.8473998E-02
1049.508, 0.2874260
1049.991, 0.4156530
1050.473, 0.3247510
1050.955, 0.1957740
1051.437, 0.1983770
1051.919, 0.2853080
1052.401, 0.3047200
1052.883, 0.2197020
1053.365, 0.1389280
1053.848, 6.6022001E-02
1054.330, 2.5602000E-02
1054.812, 5.4908000E-02
1055.294, 9.6307002E-02
1055.776, 8.8280998E-02
1056.258, 5.4412998E-02
1056.740, 6.5549999E-02
1057.222, 0.1433690
1057.704, 0.2041560
1058.187, 0.2231510
1058.669, 0.2220930
1059.151, 0.1787260
1059.633, 0.1465560
1060.115, 0.1332890
1060.597, 0.2458120
1061.079, 0.3160090
1061.561, 0.3407510
1062.043, 0.2023920
1062.526, 0.2784540
1063.008, 0.2724570
1063.490, 0.2630610
1063.972, 0.3689320
1064.454, 0.2624000
1064.936, 0.4839790
1065.418, 0.5616260
1065.900, 0.5706200
1066.383, 0.5534170
1066.865, 0.5292620
1067.347, 0.4790750
1067.829, 0.3607950
1068.311, 0.2428420
1068.793, 0.1678560
1069.275, 0.1448270
1069.757, 0.2001660
1070.240, 0.3329860
1070.722, 0.4290240
1071.204, 0.4329330
1071.686, 0.3999900
1072.168, 0.3198520
1072.650, 0.2477740
1073.132, 0.2309600
1073.614, 0.2540580
1074.096, 0.3140280
1074.578, 0.3952750
1075.061, 0.3814730
1075.543, 0.1076410
1076.025, 8.4737003E-02
1076.507, 5.0785001E-02
1076.989, 0.2506390
1077.471, 0.3403510
1077.953, 0.3358290
1078.435, 0.2480910
1078.918, 0.1060660
1079.400, 4.4941999E-02
1079.882, 0.1748970
1080.364, 0.2667380
1080.846, 0.1706710
1081.328, 3.9271001E-02
1081.810, 6.4544998E-02
1082.292, 0.1048430
1082.774, 3.8650001E-03
1083.257, 0.2059930
1083.739, 0.3603760
1084.221, 0.4066200
1084.703, 0.3853090
1085.185, 0.2449840
1085.667, 0.1206490
1086.149, 0.1368510
1086.631, 0.1937310
1087.114, 0.1485250
1087.596, 2.9888000E-02
1088.078, 1.4065000E-02
1088.560, 7.2402000E-02
1089.042, 0.1696410
1089.524, 0.2749750
1090.006, 0.3220310
1090.488, 0.1916200
1090.970, 4.9720999E-02
1091.453, 9.9054001E-02
1091.935, 0.2741050
1092.417, 0.3596750
1092.899, 0.2996610
1093.381, 0.2807690
1093.863, 0.4842830
1094.345, 0.5997280
1094.827, 0.3950190
1095.309, 0.1217590
1095.792, 1.7401000E-02
1096.274, 3.6773000E-02
1096.756, 1.8681999E-02
1097.238, 0.1400230
1097.720, 0.2358280
1098.202, 0.2806110
1098.684, 0.2961360
1099.166, 0.2774810
1099.649, 0.2481040
1100.131, 0.2285240
1100.613, 0.2021340
1101.095, 0.1656790
1101.577, 0.1203330
1102.059, 0.1018080
1102.541, 0.1593950
1103.023, 0.1741900
1103.505, 4.3412998E-02
1103.988, 5.1165000E-02
1104.470, 3.9894000E-02
1104.952, 0.1837380
1105.434, 0.2183050
1105.916, 0.1556530
1106.398, 0.1079750
1106.880, 5.9811000E-02
1107.362, 0.1040220
1107.844, 0.4063270
1108.327, 0.6132880
1108.809, 0.4713660
1109.291, 0.2719700
1109.773, 0.3461380
1110.255, 0.5896300
1110.737, 0.6586140
1111.219, 0.4720740
1111.701, 0.3385090
1112.184, 0.2724240
1112.666, 0.2716200
1113.148, 0.4800520
1113.630, 0.6072290
1114.112, 0.2824380
1114.594, 0.3687000
1115.076, 0.4126400
1115.558, 0.4165370
1116.041, 0.2604210
1116.523, 0.3109210
1117.005, 0.2786260
1117.487, 0.2429360
1117.969, 0.3225130
1118.451, 0.1897130
1118.933, 0.2675180
1119.415, 0.2613550
1119.897, 0.3003480
1120.380, 0.2523040
1120.862, 0.2270100
1121.344, 0.2850490
1121.826, 0.2969440
1122.308, 0.2363330
1122.790, 0.2710570
1123.272, 0.1354430
1123.754, 0.1493030
1124.236, 0.3925220
1124.719, 0.4618430
1125.201, 0.3241400
1125.683, 0.2520810
1126.165, 0.2678780
1126.647, 0.2555080
1127.129, 0.1676490
1127.611, 0.1176870
1128.093, 0.1927790
1128.576, 0.3345070
1129.058, 0.4467050
1129.540, 0.5262260
1130.022, 0.4859130
1130.504, 0.3098610
1130.986, 0.2113740
1131.468, 0.2299460
1131.950, 0.2582080
1132.432, 0.2481520
1132.915, 0.2172460
1133.397, 0.1856240
1133.879, 0.1463870
1134.361, 8.6534001E-02
1134.843, 9.1909999E-03
1135.325, 4.9275000E-02
1135.807, 0.2064440
1136.289, 0.2835390
1136.771, 0.2192390
1137.254, 0.1733170
1137.736, 0.2827050
1138.218, 0.4501460
1138.700, 0.5094690
1139.182, 0.4774530
1139.664, 0.3710120
1140.146, 0.2207930
1140.628, 0.1473360
1141.111, 0.1640320
1141.593, 0.2508680
1142.075, 0.3965480
1142.557, 0.5276390
1143.039, 0.5646600
1143.521, 0.5291440
1144.003, 0.4165890
1144.485, 0.2763650
1144.968, 0.2171860
1145.450, 0.2278660
1145.932, 0.2299750
1146.414, 0.2024800
1146.896, 0.1864720
1147.378, 0.2167520
1147.860, 0.2593330
1148.342, 0.2907290
1148.824, 0.3085120
1149.307, 0.3012780
1149.789, 0.2823520
1150.271, 0.2944640
1150.753, 0.3232080
1151.235, 0.2669880
1151.717, 5.1663999E-02
1152.199, 9.3051001E-02
1152.681, 3.6940999E-02
1153.163, 0.1950690
1153.646, 0.2189370
1154.128, 0.1867320
1154.610, 0.1629050
1155.092, 0.1590890
1155.574, 0.2005580
1156.056, 0.2952060
1156.538, 0.3016160
1157.020, 2.4592999E-02
1157.503, 0.1221150
1157.985, 0.1376850
1158.467, 0.3818470
1158.949, 0.3019160
1159.431, 0.1086380
1159.913, 0.1030540
1160.395, 0.2686390
1160.877, 0.3587260
1161.359, 0.3338760
1161.842, 0.2799960
1162.324, 0.1206130
1162.806, 6.7310996E-02
1163.288, 0.2694390
1163.770, 0.4773930
1164.252, 0.5157290
1164.734, 0.4197770
1165.216, 0.2379420
1165.698, 5.0087001E-02
1166.181, 0.1256210
1166.663, 8.7094001E-02
1167.145, 0.2290080
1167.627, 0.2392420
1168.109, 0.2166730
1168.591, 0.2003960
1169.073, 0.1996200
1169.555, 0.2314750
1170.037, 0.2787730
1170.520, 0.2696370
1171.002, 0.2059750
1171.484, 0.1555070
1171.966, 0.1223460
1172.448, 0.1512390
1172.930, 0.2524630
1173.412, 0.3210730
1173.894, 0.2835740
1174.377, 0.2068800
1174.859, 0.1994820
1175.341, 0.2270670
1175.823, 0.1967500
1176.305, 0.1222190
1176.787, 8.6359996E-03
1177.269, 0.1007270
1177.751, 4.1575000E-02
1178.234, 0.2225440
1178.716, 0.4297820
1179.198, 0.3504780
1179.680, 0.1859800
1180.162, 0.1415070
1180.644, 0.1529500
1181.126, 0.1569620
1181.608, 0.1462530
1182.090, 0.1064800
1182.573, 4.9382001E-02
1183.055, 1.3810000E-02
1183.537, 1.0022000E-02
1184.019, 5.9965000E-02
1184.501, 0.2566180
1184.983, 0.4075810
1185.465, 0.3514270
1185.947, 0.2545260
1186.429, 0.2916200
1186.912, 0.3801270
1187.394, 0.3328260
1187.876, 0.1393010
1188.358, 1.9693000E-02
1188.840, 1.2149000E-02
1189.322, 6.5330997E-02
1189.804, 0.4535530
1190.286, 0.6867430
1190.769, 0.4535150
1191.251, 0.1686930
1191.733, 0.2050800
1192.215, 0.4429910
1192.697, 0.5769340
1193.179, 0.6001200
1193.661, 0.5702420
1194.143, 0.4756080
1194.625, 0.3620250
1195.108, 0.2183030
1195.590, 0.1409830
1196.072, 0.1908510
1196.554, 0.2674730
1197.036, 0.2559960
1197.518, 0.1803350
1198.000, 9.6970998E-02
1198.482, 1.3151000E-02
1198.964, 1.5059000E-02
1199.447, 1.6074000E-02
1199.929, 0.1480290
1200.411, 0.3725740
1200.893, 0.5183560
1201.375, 0.4840600
1201.857, 0.3933150
1202.339, 0.3932390
1202.821, 0.4242050
1203.304, 0.3724490
1203.786, 0.2905780
1204.268, 0.2869710
1204.750, 0.3338060
1205.232, 0.3198090
1205.714, 0.2353290
1206.196, 0.2105570
1206.678, 0.3434290
1207.161, 0.4475890
1207.643, 0.3648540
1208.125, 0.2615850
1208.607, 0.2496170
1209.089, 0.2804600
1209.571, 0.3355100
1210.053, 0.3702170
1210.535, 0.2884770
1211.017, 5.7137001E-02
1211.500, 3.6467999E-02
1211.982, 0.1938040
1212.464, 0.3401090
1212.946, 0.3094420
1213.428, 0.2363220
1213.910, 0.1453600
1214.392, 5.8828998E-02
1214.874, 2.4842000E-02
1215.356, 7.9562001E-02
1215.839, 3.8314000E-02
1216.321, 0.3566550
1216.803, 0.4795620
1217.285, 0.3732270
1217.767, 0.2954920
1218.249, 0.2909120
1218.731, 0.3103720
1219.213, 0.3346810
1219.696, 0.3231650
1220.178, 0.2108390
1220.660, 7.9934001E-02
1221.142, 0.1690680
1221.624, 0.3911900
1222.106, 0.4497190
1222.588, 0.3699450
1223.070, 0.2794830
1223.552, 0.2062900
1224.035, 0.1361730
1224.517, 7.5552002E-02
1224.999, 6.7521997E-02
1225.481, 0.2211810
1225.963, 0.3721820
1226.445, 0.3648060
1226.927, 0.2897420
1227.409, 0.2139010
1227.891, 0.1558100
1228.374, 0.1307570
1228.856, 0.1378460
1229.338, 0.1621470
1229.820, 0.2020440
1230.302, 0.2487340
1230.784, 0.3343440
1231.266, 0.3792140
1231.748, 0.3632750
1232.231, 0.2802970
1232.713, 9.1059998E-02
1233.195, 9.9904999E-02
1233.677, 0.1257300
1234.159, 4.4500001E-04
1234.641, 0.1816180
1235.123, 0.4628390
1235.605, 0.5703470
1236.088, 0.4662610
1236.570, 0.3680250
1237.052, 0.3318340
1237.534, 0.3023780
1238.016, 0.2404130
1238.498, 0.1894120
1238.980, 0.2157890
1239.462, 0.2849200
1239.944, 0.3024760
1240.427, 0.2845560
1240.909, 0.2796040
1241.391, 0.2851360
1241.873, 0.2746110
1242.355, 0.2450760
1242.837, 0.2168900
1243.319, 0.2042270
1243.801, 0.2025520
1244.283, 0.1740190
1244.766, 0.1972550
1245.248, 0.4571310
1245.730, 0.6847920
1246.212, 0.5234270
1246.694, 0.1800010
1247.176, 4.1416001E-02
1247.658, 0.1335010
1248.140, 0.2149060
1248.622, 0.2677590
1249.105, 0.2677010
1249.587, 0.1766760
1250.069, 0.1062500
1250.551, 6.0399000E-02
1251.033, 7.6665998E-02
1251.515, 0.2414540
1251.997, 0.4354810
1252.479, 0.4978290
1252.962, 0.3835000
1253.444, 0.4709010
1253.926, 0.5159850
1254.408, 0.5210280
1254.890, 0.3660830
1255.372, 0.4178470
1255.854, 0.3868810
1256.336, 0.3524810
1256.818, 0.4923850
1257.301, 0.4963540
1257.783, 0.4247590
1258.265, 0.3281700
1258.747, 0.2653540
1259.229, 0.2296460
1259.711, 0.2143260
1260.193, 0.1890990
1260.675, 0.2131730
1261.157, 0.2548240
1261.640, 0.3037720
1262.122, 0.3665050
1262.604, 0.3881740
1263.086, 0.3113600
1263.568, 0.2478320
1264.050, 0.2391170
1264.532, 0.2469620
1265.014, 0.2264150
1265.497, 0.2329930
1265.979, 0.3570320
1266.461, 0.5548060
1266.943, 0.6413380
1267.425, 0.6078310
1267.907, 0.5119980
1268.389, 0.3442910
1268.871, 0.2165320
1269.354, 0.1484770
1269.836, 0.1212960
1270.318, 0.1265930
1270.800, 0.1389790
1271.282, 0.1288010
1271.764, 0.1260090
1272.246, 0.2151420
1272.728, 0.3202280
1273.210, 0.2809170
1273.693, 0.1698960
1274.175, 0.1227200
1274.657, 0.1426790
1275.139, 0.1614240
1275.621, 0.1628670
1276.103, 0.2239610
1276.585, 0.4433110
1277.067, 0.6176840
1277.549, 0.6648830
1278.032, 0.6724340
1278.514, 0.7266150
1278.996, 0.7114100
1279.478, 0.4361540
1279.960, 9.0066001E-02
1280.442, 7.6787002E-02
1280.924, 0.3803470
1281.406, 0.4625200
1281.889, 0.2900460
1282.371, 0.1250620
1282.853, 2.0771001E-02
1283.335, 2.8465999E-02
1283.817, 0.3196500
1284.299, 0.5274350
1284.781, 0.3612970
1285.263, 0.1313470
1285.745, 8.5979998E-03
1286.228, 0.0000000E+00
##END=



