##NAMES=Diaoyudaoite
##RRUFFID=R050182
##IDEAL CHEMISTRY=NaAl_11_O_17_
##LOCALITY=Port Elizabeth, Essex County, New Jersey, USA
##OWNER=RRUFF
##SOURCE=Marcus Origlieri
##DESCRIPTION=Colorless crystal fragments
##STATUS=The identification of this mineral is confirmed by single-crystal X-ray diffraction and chemical analysis.
##URL=rruff.info/R050182
##MEASURED CHEMISTRY=(Na_1.21_Ca_0.06_)(Al_0.99_[box]_0.01_)_11_O_17_
108.3935, 56486.03
108.8757, 56465.66
109.3578, 56464.54
109.8399, 56499.41
110.3220, 56586.90
110.8041, 56672.74
111.2862, 56762.54
111.7684, 56846.25
112.2505, 56914.74
112.7326, 56965.11
113.2147, 57000.35
113.6968, 57026.28
114.1789, 57047.30
114.6611, 57051.26
115.1432, 57023.51
115.6253, 56975.98
116.1074, 56931.46
116.5895, 56897.40
117.0716, 56875.69
117.5538, 56869.00
118.0359, 56885.23
118.5180, 56901.43
119.0001, 56898.37
119.4822, 56875.30
119.9643, 56853.35
120.4465, 56844.74
120.9286, 56842.59
121.4107, 56838.50
121.8928, 56825.31
122.3749, 56813.62
122.8570, 56827.22
123.3392, 56882.73
123.8213, 56932.47
124.3034, 56948.51
124.7855, 56951.09
125.2676, 56970.45
125.7497, 57031.61
126.2319, 57129.36
126.7140, 57188.25
127.1961, 57179.46
127.6782, 57153.93
128.1603, 57114.55
128.6424, 57066.76
129.1246, 57018.02
129.6067, 56974.35
130.0888, 56935.60
130.5709, 56906.39
131.0530, 56876.95
131.5351, 56861.88
132.0173, 56877.20
132.4994, 56922.15
132.9815, 56974.56
133.4636, 57005.00
133.9457, 57002.21
134.4278, 57016.22
134.9100, 57061.58
135.3921, 57120.54
135.8742, 57173.02
136.3563, 57213.70
136.8384, 57246.02
137.3205, 57272.83
137.8027, 57293.86
138.2848, 57314.94
138.7669, 57344.50
139.2490, 57377.91
139.7311, 57397.86
140.2132, 57402.38
140.6954, 57385.38
141.1775, 57337.02
141.6596, 57253.34
142.1417, 57170.82
142.6238, 57126.46
143.1059, 57125.39
143.5881, 57129.05
144.0702, 57119.64
144.5523, 57116.40
145.0344, 57136.79
145.5165, 57186.64
145.9986, 57250.36
146.4807, 57299.55
146.9629, 57328.04
147.4450, 57352.29
147.9271, 57361.96
148.4092, 57374.38
148.8913, 57415.81
149.3734, 57500.41
149.8556, 57606.90
150.3377, 57650.51
150.8198, 57550.36
151.3019, 57466.48
151.7840, 57417.47
152.2661, 57396.13
152.7483, 57391.53
153.2304, 57398.52
153.7125, 57415.43
154.1946, 57418.45
154.6767, 57398.55
155.1588, 57377.46
155.6410, 57361.95
156.1231, 57352.18
156.6052, 57345.74
157.0873, 57338.77
157.5694, 57333.91
158.0515, 57347.09
158.5337, 57391.96
159.0158, 57445.05
159.4979, 57494.02
159.9800, 57538.50
160.4621, 57566.38
160.9442, 57555.36
161.4264, 57517.59
161.9085, 57488.86
162.3906, 57495.80
162.8727, 57511.88
163.3548, 57486.04
163.8369, 57398.43
164.3191, 57311.32
164.8012, 57274.96
165.2833, 57271.88
165.7654, 57266.21
166.2475, 57237.98
166.7296, 57190.64
167.2118, 57139.00
167.6939, 57062.87
168.1760, 57010.06
168.6581, 57011.58
169.1402, 57054.43
169.6223, 57104.58
170.1045, 57136.14
170.5866, 57148.29
171.0687, 57151.58
171.5508, 57116.82
172.0329, 57097.96
172.5150, 57131.92
172.9972, 57207.55
173.4793, 57279.80
173.9614, 57298.13
174.4435, 57244.97
174.9256, 57195.80
175.4077, 57152.06
175.8899, 57109.64
176.3720, 57067.55
176.8541, 57024.93
177.3362, 56979.75
177.8183, 56928.44
178.3004, 56860.34
178.7826, 56812.98
179.2647, 56802.27
179.7468, 56801.36
180.2289, 56783.23
180.7110, 56742.07
181.1931, 56700.05
181.6752, 56695.81
182.1574, 56749.51
182.6395, 56781.88
183.1216, 56768.48
183.6037, 56734.36
184.0858, 56713.06
184.5679, 56715.48
185.0501, 56729.09
185.5322, 56735.95
186.0143, 56737.65
186.4964, 56731.32
186.9785, 56708.58
187.4606, 56676.61
187.9428, 56655.93
188.4249, 56659.65
188.9070, 56664.95
189.3891, 56639.95
189.8712, 56582.64
190.3533, 56526.63
190.8355, 56491.49
191.3176, 56475.65
191.7997, 56470.34
192.2818, 56487.98
192.7639, 56501.54
193.2460, 56479.58
193.7282, 56419.75
194.2103, 56366.73
194.6924, 56374.16
195.1745, 56451.13
195.6566, 56500.86
196.1387, 56470.64
196.6209, 56428.07
197.1030, 56410.98
197.5851, 56425.24
198.0672, 56450.42
198.5493, 56463.62
199.0314, 56466.05
199.5136, 56452.13
199.9957, 56416.28
200.4778, 56369.42
200.9599, 56311.25
201.4420, 56243.92
201.9241, 56180.30
202.4063, 56142.08
202.8884, 56144.67
203.3705, 56143.90
203.8526, 56135.09
204.3347, 56124.31
204.8168, 56113.56
205.2990, 56104.19
205.7811, 56099.53
206.2632, 56105.86
206.7453, 56123.42
207.2274, 56153.29
207.7095, 56210.80
208.1917, 56271.69
208.6738, 56311.08
209.1559, 56320.71
209.6380, 56313.70
210.1201, 56316.65
210.6022, 56342.34
211.0844, 56358.55
211.5665, 56375.61
212.0486, 56378.29
212.5307, 56342.49
213.0128, 56258.31
213.4949, 56148.77
213.9771, 56058.05
214.4592, 55982.03
214.9413, 55932.31
215.4234, 55928.87
215.9055, 55950.22
216.3876, 55964.74
216.8698, 55962.54
217.3519, 55947.52
217.8340, 55921.59
218.3161, 55879.91
218.7982, 55849.73
219.2803, 55840.60
219.7625, 55849.66
220.2446, 55874.29
220.7267, 55920.96
221.2088, 55970.00
221.6909, 55993.00
222.1730, 55989.66
222.6552, 55974.75
223.1373, 55949.93
223.6194, 55917.84
224.1015, 55890.06
224.5836, 55876.70
225.0657, 55857.83
225.5479, 55806.99
226.0300, 55722.93
226.5121, 55644.19
226.9942, 55596.66
227.4763, 55577.13
227.9584, 55562.55
228.4406, 55554.64
228.9227, 55543.89
229.4048, 55519.87
229.8869, 55483.57
230.3690, 55450.07
230.8511, 55425.86
231.3333, 55411.49
231.8154, 55422.11
232.2975, 55487.18
232.7796, 55553.46
233.2617, 55587.34
233.7438, 55590.33
234.2260, 55585.98
234.7081, 55601.58
235.1902, 55640.19
235.6723, 55650.20
236.1544, 55612.84
236.6365, 55555.39
237.1187, 55476.29
237.6008, 55383.06
238.0829, 55298.16
238.5650, 55244.55
239.0471, 55225.75
239.5292, 55210.38
240.0114, 55213.77
240.4935, 55206.98
240.9756, 55168.79
241.4577, 55106.65
241.9398, 55047.65
242.4219, 55017.06
242.9041, 55018.02
243.3862, 55026.76
243.8683, 55051.92
244.3504, 55077.87
244.8325, 55105.09
245.3146, 55129.53
245.7968, 55142.96
246.2789, 55137.23
246.7610, 55111.00
247.2431, 55079.61
247.7252, 55038.81
248.2073, 54997.79
248.6895, 54962.64
249.1716, 54930.68
249.6537, 54893.50
250.1358, 54841.86
250.6179, 54773.25
251.1000, 54726.65
251.5822, 54718.49
252.0643, 54711.43
252.5464, 54685.86
253.0285, 54648.48
253.5106, 54619.97
253.9927, 54616.51
254.4748, 54637.65
254.9570, 54655.00
255.4391, 54670.21
255.9212, 54680.31
256.4033, 54680.64
256.8854, 54674.62
257.3676, 54671.66
257.8497, 54679.74
258.3318, 54696.86
258.8139, 54694.62
259.2960, 54670.50
259.7781, 54636.29
260.2603, 54595.80
260.7424, 54548.77
261.2245, 54492.79
261.7066, 54426.21
262.1887, 54350.84
262.6708, 54275.26
263.1530, 54182.96
263.6351, 54108.29
264.1172, 54070.37
264.5993, 54057.84
265.0814, 54043.90
265.5635, 54013.34
266.0457, 53976.11
266.5278, 53966.61
267.0099, 53994.05
267.4920, 54025.97
267.9741, 54062.95
268.4562, 54096.45
268.9384, 54104.46
269.4204, 54072.56
269.9026, 54021.96
270.3847, 54003.29
270.8668, 54029.45
271.3489, 54042.50
271.8310, 54012.02
272.3131, 53957.44
272.7953, 53919.46
273.2774, 53915.55
273.7595, 53919.31
274.2416, 53882.48
274.7237, 53802.73
275.2058, 53725.59
275.6880, 53655.96
276.1701, 53599.49
276.6522, 53571.00
277.1343, 53578.50
277.6164, 53598.44
278.0985, 53606.45
278.5807, 53604.33
279.0628, 53585.57
279.5449, 53520.23
280.0270, 53445.48
280.5091, 53427.73
280.9912, 53486.54
281.4734, 53558.97
281.9555, 53579.10
282.4376, 53558.93
282.9197, 53542.73
283.4018, 53564.49
283.8839, 53586.45
284.3661, 53545.95
284.8482, 53429.74
285.3303, 53311.43
285.8124, 53250.75
286.2945, 53231.62
286.7766, 53218.07
287.2588, 53213.26
287.7409, 53204.70
288.2230, 53170.72
288.7051, 53108.30
289.1872, 53056.00
289.6693, 53047.73
290.1515, 53062.46
290.6336, 53062.11
291.1157, 53033.09
291.5978, 52997.42
292.0799, 52974.98
292.5620, 52965.84
293.0442, 52964.31
293.5263, 52973.54
294.0084, 52986.31
294.4905, 52994.18
294.9726, 52998.15
295.4547, 52992.53
295.9369, 52964.63
296.4190, 52916.82
296.9011, 52884.43
297.3832, 52897.69
297.8653, 52912.54
298.3474, 52872.49
298.8296, 52770.03
299.3117, 52673.08
299.7938, 52640.59
300.2759, 52658.73
300.7580, 52650.48
301.2401, 52582.94
301.7223, 52507.98
302.2044, 52474.95
302.6865, 52479.76
303.1686, 52491.12
303.6507, 52489.39
304.1328, 52480.69
304.6150, 52486.25
305.0971, 52513.73
305.5792, 52544.79
306.0613, 52574.38
306.5434, 52598.18
307.0255, 52601.02
307.5077, 52564.38
307.9898, 52504.82
308.4719, 52457.18
308.9540, 52425.81
309.4361, 52393.87
309.9182, 52352.41
310.4004, 52303.57
310.8825, 52247.37
311.3646, 52174.70
311.8467, 52103.59
312.3288, 52066.57
312.8109, 52069.86
313.2931, 52065.64
313.7752, 52015.64
314.2573, 51953.32
314.7394, 51917.24
315.2215, 51917.52
315.7036, 51935.93
316.1858, 51961.95
316.6679, 51995.38
317.1500, 52017.38
317.6321, 52020.23
318.1142, 52009.01
318.5963, 51989.17
319.0785, 51960.63
319.5606, 51926.95
320.0427, 51887.96
320.5248, 51844.72
321.0069, 51805.36
321.4890, 51773.17
321.9712, 51742.74
322.4533, 51711.86
322.9354, 51679.64
323.4175, 51640.67
323.8996, 51586.32
324.3817, 51523.12
324.8639, 51467.87
325.3460, 51420.98
325.8281, 51384.33
326.3102, 51364.59
326.7923, 51356.07
327.2744, 51346.91
327.7566, 51324.77
328.2387, 51303.92
328.7208, 51311.71
329.2029, 51353.85
329.6850, 51392.32
330.1671, 51410.00
330.6493, 51409.10
331.1314, 51391.00
331.6135, 51353.14
332.0956, 51302.39
332.5777, 51239.29
333.0598, 51164.62
333.5420, 51097.51
334.0241, 51048.58
334.5062, 51009.01
334.9883, 50964.49
335.4704, 50913.03
335.9525, 50865.84
336.4347, 50832.39
336.9168, 50809.84
337.3989, 50787.37
337.8810, 50761.09
338.3631, 50737.12
338.8452, 50722.90
339.3274, 50717.67
339.8094, 50713.11
340.2916, 50704.20
340.7737, 50694.66
341.2558, 50692.82
341.7379, 50701.66
342.2200, 50709.62
342.7021, 50708.30
343.1843, 50698.66
343.6664, 50681.91
344.1485, 50651.68
344.6306, 50618.50
345.1127, 50597.38
345.5948, 50587.72
346.0770, 50566.48
346.5591, 50515.81
347.0412, 50445.08
347.5233, 50382.54
348.0054, 50323.44
348.4875, 50279.00
348.9697, 50260.61
349.4518, 50263.00
349.9339, 50270.79
350.4160, 50280.93
350.8981, 50289.66
351.3802, 50289.76
351.8624, 50280.37
352.3445, 50270.19
352.8266, 50261.42
353.3087, 50253.88
353.7908, 50251.15
354.2729, 50255.48
354.7551, 50251.68
355.2372, 50214.71
355.7193, 50143.75
356.2014, 50101.66
356.6835, 50131.87
357.1656, 50166.91
357.6478, 50146.81
358.1299, 50072.76
358.6120, 49987.25
359.0941, 49916.94
359.5762, 49860.88
360.0583, 49806.63
360.5405, 49737.44
361.0226, 49686.51
361.5047, 49683.07
361.9868, 49707.22
362.4689, 49711.00
362.9510, 49670.03
363.4332, 49608.09
363.9153, 49584.94
364.3974, 49624.13
364.8795, 49651.98
365.3616, 49654.56
365.8438, 49643.12
366.3259, 49624.82
366.8080, 49602.39
367.2901, 49586.42
367.7722, 49593.38
368.2543, 49635.57
368.7365, 49644.77
369.2186, 49612.09
369.7007, 49557.65
370.1828, 49480.10
370.6649, 49388.79
371.1470, 49309.14
371.6292, 49262.17
372.1113, 49243.95
372.5934, 49203.76
373.0755, 49107.61
373.5576, 49030.74
374.0397, 49001.75
374.5219, 48998.82
375.0040, 48991.47
375.4861, 48966.53
375.9682, 48932.27
376.4503, 48905.77
376.9324, 48884.84
377.4146, 48876.78
377.8967, 48894.50
378.3788, 48914.50
378.8609, 48920.92
379.3430, 48910.93
379.8251, 48889.28
380.3073, 48857.47
380.7894, 48810.66
381.2715, 48786.90
381.7536, 48818.96
382.2357, 48840.59
382.7178, 48834.40
383.2000, 48800.28
383.6821, 48738.43
384.1642, 48644.87
384.6463, 48531.14
385.1284, 48442.24
385.6105, 48380.14
386.0927, 48343.23
386.5748, 48334.66
387.0569, 48344.83
387.5390, 48373.91
388.0211, 48420.66
388.5032, 48461.02
388.9854, 48454.39
389.4675, 48389.02
389.9496, 48343.05
390.4317, 48338.76
390.9138, 48345.98
391.3959, 48364.11
391.8781, 48384.35
392.3602, 48380.51
392.8423, 48318.57
393.3244, 48214.12
393.8065, 48148.02
394.2886, 48143.32
394.7708, 48132.06
395.2529, 48072.56
395.7350, 47989.73
396.2171, 47914.87
396.6992, 47853.97
397.1813, 47812.52
397.6635, 47807.80
398.1456, 47842.01
398.6277, 47859.55
399.1098, 47832.87
399.5919, 47789.72
400.0740, 47755.46
400.5562, 47730.16
401.0383, 47722.66
401.5204, 47753.54
402.0025, 47804.95
402.4846, 47832.55
402.9667, 47829.37
403.4489, 47805.68
403.9310, 47763.28
404.4131, 47706.07
404.8952, 47646.71
405.3773, 47573.13
405.8594, 47508.88
406.3416, 47486.64
406.8237, 47499.80
407.3058, 47501.22
407.7879, 47466.35
408.2700, 47405.86
408.7521, 47344.72
409.2343, 47276.70
409.7164, 47222.32
410.1985, 47188.65
410.6806, 47172.45
411.1627, 47173.68
411.6448, 47192.27
412.1269, 47215.18
412.6090, 47226.38
413.0912, 47222.20
413.5733, 47223.75
414.0554, 47239.61
414.5375, 47252.70
415.0196, 47252.90
415.5017, 47241.26
415.9839, 47225.42
416.4660, 47211.33
416.9481, 47194.53
417.4302, 47153.86
417.9123, 47067.63
418.3944, 46982.98
418.8766, 46895.03
419.3587, 46815.04
419.8408, 46753.14
420.3229, 46712.63
420.8050, 46692.10
421.2871, 46695.71
421.7693, 46740.26
422.2514, 46746.27
422.7335, 46677.20
423.2156, 46607.70
423.6977, 46565.39
424.1798, 46547.75
424.6620, 46544.75
425.1441, 46553.86
425.6262, 46567.27
426.1083, 46551.70
426.5904, 46485.90
427.0725, 46432.01
427.5547, 46405.84
428.0368, 46395.57
428.5189, 46400.16
429.0010, 46417.85
429.4831, 46423.09
429.9652, 46374.87
430.4474, 46273.05
430.9295, 46206.50
431.4116, 46213.91
431.8937, 46218.70
432.3758, 46164.79
432.8579, 46069.62
433.3401, 45981.93
433.8222, 45914.80
434.3043, 45872.15
434.7864, 45871.08
435.2685, 45916.11
435.7506, 45949.67
436.2328, 45939.28
436.7149, 45905.60
437.1970, 45882.10
437.6791, 45870.03
438.1612, 45866.40
438.6433, 45880.19
439.1255, 45899.95
439.6076, 45901.07
440.0897, 45878.09
440.5718, 45840.88
441.0539, 45796.85
441.5360, 45746.19
442.0182, 45695.56
442.5003, 45633.04
442.9824, 45581.73
443.4645, 45574.23
443.9466, 45593.56
444.4287, 45582.33
444.9109, 45506.53
445.3930, 45395.14
445.8751, 45325.75
446.3572, 45335.16
446.8393, 45331.82
447.3214, 45295.63
447.8036, 45254.77
448.2857, 45236.75
448.7678, 45243.13
449.2499, 45252.97
449.7320, 45244.23
450.2141, 45215.34
450.6963, 45200.38
451.1784, 45219.07
451.6605, 45230.40
452.1426, 45219.04
452.6247, 45196.21
453.1068, 45181.50
453.5890, 45183.50
454.0711, 45185.16
454.5532, 45150.01
455.0353, 45062.20
455.5174, 44992.80
455.9995, 44975.12
456.4817, 44957.87
456.9638, 44904.01
457.4459, 44823.01
457.9280, 44760.14
458.4101, 44757.86
458.8922, 44793.63
459.3744, 44791.51
459.8565, 44736.75
460.3386, 44691.29
460.8207, 44690.58
461.3028, 44713.15
461.7849, 44737.97
462.2671, 44763.89
462.7492, 44784.61
463.2313, 44801.63
463.7134, 44810.38
464.1955, 44794.27
464.6776, 44746.77
465.1598, 44684.75
465.6419, 44621.73
466.1240, 44558.37
466.6061, 44496.64
467.0882, 44432.77
467.5703, 44374.48
468.0525, 44330.77
468.5346, 44297.82
469.0167, 44260.63
469.4988, 44210.48
469.9809, 44156.29
470.4630, 44119.47
470.9452, 44118.21
471.4273, 44101.73
471.9094, 44045.41
472.3915, 43988.83
472.8736, 43969.19
473.3557, 43984.59
473.8379, 44005.45
474.3200, 44008.41
474.8021, 43993.69
475.2842, 43964.05
475.7663, 43896.51
476.2484, 43842.76
476.7306, 43821.14
477.2127, 43812.23
477.6948, 43798.72
478.1769, 43774.75
478.6590, 43738.88
479.1411, 43686.36
479.6233, 43615.38
480.1054, 43546.80
480.5875, 43481.91
481.0696, 43419.33
481.5517, 43352.48
482.0338, 43287.46
482.5159, 43237.41
482.9980, 43213.18
483.4802, 43199.57
483.9623, 43176.12
484.4444, 43142.85
484.9265, 43107.27
485.4086, 43065.87
485.8907, 43030.02
486.3729, 43016.66
486.8550, 43026.54
487.3371, 43034.20
487.8192, 43040.89
488.3013, 43035.52
488.7834, 42995.25
489.2656, 42921.91
489.7477, 42855.44
490.2298, 42823.98
490.7119, 42818.47
491.1940, 42795.16
491.6761, 42736.64
492.1583, 42686.36
492.6404, 42664.26
493.1225, 42647.95
493.6046, 42608.25
494.0867, 42541.75
494.5688, 42471.47
495.0510, 42421.75
495.5331, 42393.46
496.0152, 42373.91
496.4973, 42369.68
496.9794, 42367.21
497.4615, 42367.60
497.9437, 42366.35
498.4258, 42357.20
498.9079, 42337.77
499.3900, 42313.14
499.8721, 42293.75
500.3542, 42282.45
500.8364, 42254.14
501.3185, 42194.68
501.8006, 42129.92
502.2827, 42070.91
502.7648, 42018.38
503.2469, 41973.18
503.7291, 41944.68
504.2112, 41915.11
504.6933, 41850.52
505.1754, 41752.83
505.6575, 41675.92
506.1396, 41644.86
506.6218, 41637.16
507.1039, 41619.81
507.5860, 41592.08
508.0681, 41568.70
508.5502, 41554.58
509.0323, 41546.27
509.5145, 41546.43
509.9966, 41551.80
510.4787, 41543.32
510.9608, 41505.53
511.4429, 41448.96
511.9250, 41417.16
512.4072, 41445.08
512.8893, 41451.08
513.3714, 41423.43
513.8535, 41375.99
514.3356, 41309.28
514.8177, 41230.90
515.2999, 41165.71
515.7820, 41141.52
516.2641, 41153.60
516.7462, 41136.30
517.2283, 41071.54
517.7104, 41003.11
518.1926, 40935.01
518.6747, 40872.61
519.1568, 40822.17
519.6389, 40785.26
520.1210, 40755.81
520.6031, 40726.95
521.0853, 40700.00
521.5674, 40684.72
522.0495, 40686.12
522.5316, 40689.47
523.0137, 40689.68
523.4958, 40684.16
523.9780, 40666.44
524.4601, 40634.61
524.9422, 40591.68
525.4243, 40527.09
525.9064, 40453.78
526.3885, 40404.57
526.8707, 40388.54
527.3528, 40389.72
527.8349, 40396.66
528.3170, 40412.87
528.7991, 40389.82
529.2813, 40289.46
529.7634, 40193.88
530.2455, 40140.73
530.7276, 40114.60
531.2097, 40085.45
531.6918, 40041.73
532.1740, 39997.59
532.6561, 39980.04
533.1382, 40003.86
533.6203, 40004.00
534.1024, 39941.91
534.5845, 39893.36
535.0667, 39901.09
535.5488, 39940.91
536.0309, 39963.42
536.5130, 39943.80
536.9951, 39904.14
537.4772, 39883.04
537.9594, 39881.35
538.4415, 39850.76
538.9236, 39767.46
539.4057, 39669.69
539.8878, 39584.66
540.3699, 39513.33
540.8521, 39463.29
541.3342, 39456.73
541.8163, 39456.36
542.2984, 39424.03
542.7805, 39368.37
543.2626, 39326.79
543.7448, 39317.38
544.2269, 39317.93
544.7090, 39287.36
545.1911, 39200.43
545.6732, 39150.88
546.1553, 39166.17
546.6375, 39192.53
547.1196, 39200.88
547.6017, 39195.08
548.0838, 39192.73
548.5659, 39204.00
549.0480, 39217.65
549.5302, 39206.16
550.0123, 39160.10
550.4944, 39116.71
550.9765, 39083.25
551.4586, 39049.98
551.9407, 39015.89
552.4229, 38978.11
552.9050, 38928.62
553.3871, 38855.26
553.8692, 38776.99
554.3513, 38725.52
554.8334, 38700.33
555.3156, 38676.00
555.7977, 38640.93
556.2798, 38608.02
556.7619, 38599.25
557.2440, 38614.06
557.7261, 38623.20
558.2083, 38619.29
558.6904, 38609.38
559.1725, 38598.20
559.6546, 38585.79
560.1367, 38572.37
560.6188, 38558.73
561.1010, 38539.94
561.5831, 38504.68
562.0652, 38438.48
562.5473, 38388.59
563.0294, 38374.77
563.5115, 38355.93
563.9937, 38305.13
564.4758, 38233.62
564.9579, 38168.91
565.4400, 38126.05
565.9221, 38093.70
566.4042, 38045.27
566.8864, 37975.80
567.3685, 37933.03
567.8506, 37942.16
568.3327, 37960.61
568.8148, 37953.84
569.2969, 37927.78
569.7791, 37904.80
570.2612, 37887.36
570.7433, 37880.14
571.2254, 37898.36
571.7075, 37932.34
572.1896, 37945.71
572.6718, 37924.92
573.1539, 37888.23
573.6360, 37861.95
574.1181, 37852.90
574.6002, 37815.67
575.0823, 37719.02
575.5645, 37629.47
576.0466, 37586.15
576.5287, 37566.44
577.0108, 37525.62
577.4929, 37447.52
577.9750, 37365.91
578.4572, 37339.30
578.9393, 37380.32
579.4214, 37390.14
579.9035, 37341.97
580.3856, 37294.61
580.8677, 37277.19
581.3499, 37276.75
581.8320, 37274.33
582.3141, 37266.13
582.7962, 37249.11
583.2783, 37215.02
583.7604, 37169.73
584.2426, 37130.73
584.7247, 37100.76
585.2068, 37080.35
585.6889, 37073.22
586.1710, 37077.41
586.6531, 37074.26
587.1352, 37069.05
587.6173, 37050.44
588.0994, 37005.62
588.5815, 36950.60
589.0637, 36900.64
589.5458, 36860.01
590.0279, 36828.87
590.5100, 36808.91
590.9921, 36798.80
591.4742, 36784.36
591.9564, 36763.98
592.4385, 36741.42
592.9206, 36715.84
593.4027, 36689.77
593.8848, 36668.88
594.3669, 36652.48
594.8491, 36628.09
595.3312, 36576.98
595.8133, 36515.19
596.2954, 36478.32
596.7775, 36467.78
597.2596, 36460.63
597.7418, 36447.82
598.2239, 36430.92
598.7060, 36412.55
599.1881, 36393.28
599.6702, 36371.57
600.1523, 36351.63
600.6345, 36325.41
601.1166, 36281.45
601.5987, 36225.68
602.0808, 36174.96
602.5629, 36137.86
603.0450, 36108.86
603.5272, 36074.76
604.0093, 36030.43
604.4914, 35995.61
604.9735, 35973.18
605.4556, 35958.34
605.9377, 35953.98
606.4199, 35955.18
606.9020, 35951.91
607.3841, 35938.47
607.8662, 35924.52
608.3483, 35930.64
608.8304, 35947.84
609.3126, 35927.91
609.7947, 35854.20
610.2768, 35778.56
610.7589, 35750.39
611.2410, 35764.95
611.7231, 35760.13
612.2053, 35729.56
612.6874, 35688.93
613.1695, 35640.07
613.6516, 35585.24
614.1337, 35522.88
614.6158, 35455.43
615.0980, 35392.83
615.5801, 35343.70
616.0622, 35307.33
616.5443, 35276.33
617.0264, 35249.34
617.5085, 35230.86
617.9907, 35226.94
618.4728, 35228.12
618.9549, 35227.09
619.4370, 35223.63
619.9191, 35222.45
620.4012, 35228.01
620.8834, 35235.87
621.3655, 35248.00
621.8476, 35260.64
622.3297, 35242.95
622.8118, 35176.80
623.2939, 35092.74
623.7761, 35036.95
624.2582, 35018.55
624.7403, 34992.61
625.2224, 34952.80
625.7045, 34912.46
626.1866, 34876.48
626.6688, 34844.65
627.1509, 34820.51
627.6330, 34804.12
628.1151, 34781.12
628.5972, 34722.07
629.0793, 34626.82
629.5615, 34575.71
630.0436, 34589.52
630.5257, 34606.62
631.0078, 34595.58
631.4899, 34571.59
631.9720, 34552.02
632.4542, 34539.49
632.9363, 34526.95
633.4184, 34511.70
633.9005, 34494.00
634.3826, 34474.20
634.8647, 34452.24
635.3469, 34427.42
635.8290, 34398.73
636.3111, 34368.20
636.7932, 34341.96
637.2753, 34329.54
637.7574, 34301.05
638.2396, 34233.30
638.7217, 34174.48
639.2038, 34156.96
639.6859, 34164.84
640.1680, 34167.45
640.6501, 34152.79
641.1323, 34122.93
641.6144, 34067.14
642.0965, 33992.43
642.5786, 33959.01
643.0607, 33986.27
643.5428, 34014.69
644.0250, 33999.32
644.5071, 33951.86
644.9892, 33919.03
645.4713, 33914.13
645.9534, 33900.09
646.4355, 33855.53
646.9177, 33804.17
647.3998, 33772.39
647.8819, 33758.45
648.3640, 33744.19
648.8461, 33718.96
649.3282, 33679.96
649.8104, 33614.50
650.2925, 33508.87
650.7746, 33420.41
651.2567, 33358.62
651.7388, 33313.14
652.2209, 33278.01
652.7031, 33254.05
653.1852, 33245.04
653.6673, 33258.77
654.1494, 33274.94
654.6315, 33275.85
655.1136, 33266.18
655.5958, 33257.77
656.0779, 33252.68
656.5600, 33243.54
657.0421, 33222.48
657.5242, 33192.07
658.0063, 33171.95
658.4885, 33180.62
658.9706, 33174.33
659.4527, 33141.25
659.9348, 33099.99
660.4169, 33063.33
660.8990, 33031.28
661.3812, 32998.64
661.8633, 32964.15
662.3454, 32924.12
662.8275, 32870.74
663.3096, 32804.45
663.7917, 32734.03
664.2739, 32656.02
664.7560, 32587.67
665.2381, 32544.54
665.7202, 32525.82
666.2023, 32518.60
666.6844, 32535.46
667.1666, 32548.26
667.6487, 32541.55
668.1308, 32530.21
668.6129, 32536.96
669.0950, 32559.16
669.5771, 32570.22
670.0593, 32549.31
670.5414, 32503.72
671.0235, 32454.37
671.5056, 32397.09
671.9877, 32350.82
672.4698, 32326.04
672.9520, 32305.49
673.4341, 32279.21
673.9162, 32246.95
674.3983, 32207.78
674.8804, 32152.74
675.3625, 32102.59
675.8447, 32070.70
676.3268, 32053.27
676.8089, 32050.86
677.2910, 32060.88
677.7731, 32060.44
678.2552, 32028.88
678.7374, 31972.46
679.2195, 31925.20
679.7016, 31885.07
680.1837, 31858.34
680.6658, 31849.05
681.1479, 31848.85
681.6301, 31862.90
682.1122, 31882.03
682.5943, 31882.49
683.0764, 31851.07
683.5585, 31802.59
684.0406, 31740.46
684.5228, 31673.64
685.0049, 31642.54
685.4870, 31657.11
685.9691, 31666.22
686.4512, 31625.31
686.9333, 31544.44
687.4155, 31484.79
687.8976, 31457.48
688.3797, 31436.78
688.8618, 31436.97
689.3439, 31430.51
689.8260, 31386.49
690.3082, 31319.17
690.7903, 31269.76
691.2724, 31260.63
691.7545, 31274.01
692.2366, 31291.21
692.7188, 31310.48
693.2009, 31316.28
693.6830, 31304.92
694.1651, 31286.72
694.6472, 31274.66
695.1293, 31260.56
695.6115, 31209.18
696.0936, 31080.34
696.5757, 30988.59
697.0578, 30978.43
697.5399, 30989.81
698.0220, 30982.51
698.5042, 30955.56
698.9863, 30921.60
699.4684, 30887.14
699.9505, 30848.36
700.4326, 30793.59
700.9147, 30723.09
701.3969, 30671.13
701.8790, 30639.94
702.3611, 30629.67
702.8432, 30659.59
703.3253, 30703.91
703.8074, 30699.67
704.2896, 30620.14
704.7717, 30570.06
705.2538, 30611.91
705.7359, 30665.31
706.2180, 30657.72
706.7001, 30605.47
707.1823, 30565.00
707.6644, 30561.24
708.1465, 30567.59
708.6286, 30537.75
709.1107, 30468.58
709.5928, 30427.19
710.0750, 30428.69
710.5571, 30426.42
711.0392, 30397.42
711.5213, 30353.49
712.0034, 30307.46
712.4855, 30259.51
712.9677, 30215.15
713.4498, 30178.90
713.9319, 30144.65
714.4140, 30103.31
714.8961, 30060.80
715.3782, 30032.09
715.8604, 30022.18
716.3425, 30020.67
716.8246, 30016.63
717.3067, 30010.12
717.7888, 29993.90
718.2709, 29961.05
718.7531, 29934.16
719.2352, 29928.64
719.7173, 29926.28
720.1994, 29913.46
720.6815, 29889.34
721.1636, 29852.48
721.6458, 29793.14
722.1279, 29729.57
722.6100, 29670.80
723.0921, 29618.38
723.5742, 29575.99
724.0563, 29543.92
724.5385, 29517.17
725.0206, 29491.56
725.5027, 29466.67
725.9848, 29439.02
726.4669, 29401.66
726.9490, 29379.58
727.4312, 29390.55
727.9132, 29405.73
728.3953, 29414.79
728.8774, 29412.89
729.3596, 29382.53
729.8417, 29290.09
730.3238, 29216.67
730.8059, 29242.07
731.2880, 29303.03
731.7701, 29301.43
732.2523, 29233.23
732.7344, 29158.63
733.2165, 29117.41
733.6986, 29096.82
734.1807, 29062.59
734.6628, 29009.23
735.1450, 28964.54
735.6271, 28934.83
736.1092, 28908.24
736.5913, 28875.91
737.0734, 28843.62
737.5555, 28822.40
738.0377, 28817.09
738.5198, 28808.19
739.0019, 28778.57
739.4840, 28746.44
739.9661, 28735.46
740.4482, 28739.54
740.9304, 28735.43
741.4125, 28713.16
741.8946, 28682.20
742.3767, 28655.05
742.8588, 28631.73
743.3409, 28613.10
743.8231, 28606.54
744.3052, 28589.75
744.7873, 28544.38
745.2694, 28492.10
745.7515, 28460.39
746.2336, 28448.28
746.7158, 28414.23
747.1979, 28314.56
747.6800, 28220.04
748.1621, 28184.26
748.6442, 28185.14
749.1263, 28188.98
749.6085, 28186.60
750.0906, 28178.96
750.5727, 28166.04
751.0548, 28149.76
751.5369, 28140.63
752.0190, 28144.66
752.5012, 28127.29
752.9833, 28062.98
753.4654, 28001.81
753.9475, 27992.24
754.4296, 28014.69
754.9117, 28019.05
755.3939, 27994.79
755.8760, 27960.87
756.3581, 27917.14
756.8402, 27871.98
757.3223, 27834.24
757.8044, 27802.38
758.2866, 27766.56
758.7687, 27721.60
759.2508, 27679.24
759.7329, 27664.74
760.2150, 27676.85
760.6971, 27656.94
761.1793, 27589.89
761.6614, 27537.63
762.1435, 27538.69
762.6256, 27562.40
763.1077, 27559.30
763.5898, 27528.10
764.0720, 27492.13
764.5541, 27441.18
765.0362, 27400.81
765.5183, 27388.91
766.0004, 27392.38
766.4825, 27399.58
766.9647, 27404.57
767.4468, 27395.86
767.9289, 27360.27
768.4110, 27309.10
768.8931, 27269.92
769.3752, 27242.23
769.8574, 27205.56
770.3395, 27151.71
770.8216, 27100.08
771.3037, 27066.98
771.7858, 27049.90
772.2679, 27033.67
772.7501, 27013.76
773.2322, 27000.98
773.7143, 27009.11
774.1964, 27012.30
774.6785, 26982.65
775.1606, 26937.80
775.6428, 26920.26
776.1249, 26947.78
776.6070, 26973.85
777.0891, 26943.83
777.5712, 26882.91
778.0533, 26851.45
778.5355, 26849.87
779.0176, 26840.08
779.4997, 26805.06
779.9818, 26758.87
780.4639, 26722.09
780.9460, 26696.32
781.4282, 26664.37
781.9103, 26620.40
782.3924, 26578.37
782.8745, 26535.92
783.3566, 26500.39
783.8387, 26482.91
784.3209, 26479.73
784.8030, 26470.73
785.2851, 26442.43
785.7672, 26413.01
786.2493, 26398.31
786.7314, 26392.03
787.2136, 26383.38
787.6957, 26370.95
788.1778, 26359.07
788.6599, 26350.84
789.1420, 26343.21
789.6241, 26329.84
790.1063, 26310.86
790.5884, 26283.74
791.0705, 26242.82
791.5526, 26203.37
792.0347, 26171.19
792.5168, 26145.75
792.9990, 26131.18
793.4811, 26131.19
793.9632, 26113.53
794.4453, 26048.34
794.9274, 25986.58
795.4095, 25968.62
795.8917, 25970.61
796.3738, 25954.59
796.8559, 25913.73
797.3380, 25865.64
797.8201, 25822.06
798.3022, 25785.02
798.7844, 25761.86
799.2665, 25752.04
799.7486, 25740.51
800.2307, 25723.28
800.7128, 25707.13
801.1949, 25697.23
801.6771, 25692.06
802.1592, 25686.36
802.6413, 25680.42
803.1234, 25672.87
803.6055, 25672.26
804.0876, 25660.99
804.5698, 25624.67
805.0519, 25574.16
805.5340, 25522.25
806.0161, 25472.58
806.4982, 25437.40
806.9803, 25437.23
807.4625, 25449.18
807.9446, 25442.04
808.4267, 25418.78
808.9088, 25390.83
809.3909, 25361.75
809.8730, 25333.01
810.3552, 25305.65
810.8373, 25279.93
811.3194, 25256.50
811.8015, 25232.42
812.2836, 25219.93
812.7657, 25237.49
813.2479, 25246.76
813.7300, 25216.47
814.2121, 25161.90
814.6942, 25113.83
815.1763, 25072.89
815.6584, 25045.62
816.1406, 25052.14
816.6227, 25056.73
817.1048, 25027.95
817.5869, 24976.39
818.0690, 24923.48
818.5511, 24877.02
819.0333, 24837.72
819.5154, 24807.66
819.9975, 24784.65
820.4796, 24764.28
820.9617, 24746.37
821.4438, 24722.58
821.9260, 24688.91
822.4081, 24656.44
822.8902, 24635.30
823.3723, 24623.98
823.8544, 24613.34
824.3365, 24602.61
824.8187, 24593.76
825.3008, 24585.86
825.7829, 24580.87
826.2650, 24586.28
826.7471, 24593.14
827.2292, 24585.81
827.7114, 24560.08
828.1935, 24529.21
828.6756, 24500.48
829.1577, 24470.98
829.6398, 24437.92
830.1219, 24401.52
830.6041, 24358.55
831.0862, 24309.90
831.5683, 24269.78
832.0504, 24253.17
832.5325, 24253.69
833.0146, 24248.56
833.4968, 24237.61
833.9789, 24221.48
834.4610, 24199.13
834.9431, 24173.34
835.4252, 24142.02
835.9073, 24109.60
836.3895, 24090.09
836.8716, 24086.60
837.3537, 24086.03
837.8358, 24098.76
838.3179, 24101.74
838.8000, 24073.73
839.2822, 24034.27
839.7643, 24013.52
840.2464, 24014.59
840.7285, 24008.17
841.2106, 23967.96
841.6927, 23917.51
842.1749, 23888.97
842.6570, 23873.09
843.1391, 23843.66
843.6212, 23796.81
844.1033, 23747.00
844.5854, 23704.28
845.0676, 23667.06
845.5497, 23631.32
846.0318, 23595.63
846.5139, 23571.07
846.9960, 23564.74
847.4781, 23554.41
847.9603, 23520.42
848.4424, 23483.56
848.9245, 23482.67
849.4066, 23521.28
849.8887, 23530.02
850.3708, 23469.44
850.8530, 23416.84
851.3351, 23407.72
851.8172, 23414.16
852.2993, 23413.31
852.7814, 23400.80
853.2635, 23375.94
853.7457, 23335.67
854.2278, 23293.40
854.7099, 23264.47
855.1920, 23243.16
855.6741, 23216.56
856.1563, 23184.49
856.6384, 23154.10
857.1205, 23128.44
857.6026, 23105.10
858.0847, 23080.60
858.5668, 23055.09
859.0490, 23031.38
859.5311, 23006.53
860.0132, 22992.97
860.4953, 23003.44
860.9774, 23013.62
861.4595, 22997.54
861.9417, 22963.56
862.4238, 22943.78
862.9059, 22948.34
863.3880, 22949.84
863.8701, 22942.60
864.3522, 22931.47
864.8344, 22921.88
865.3165, 22909.66
865.7986, 22886.22
866.2807, 22850.18
866.7628, 22811.80
867.2449, 22776.51
867.7271, 22744.79
868.2092, 22720.69
868.6913, 22700.15
869.1733, 22668.97
869.6555, 22625.75
870.1376, 22585.86
870.6197, 22560.63
871.1018, 22546.01
871.5839, 22533.25
872.0660, 22522.70
872.5482, 22511.94
873.0303, 22504.65
873.5124, 22485.32
873.9945, 22438.05
874.4766, 22384.21
874.9587, 22356.03
875.4409, 22356.18
875.9230, 22354.72
876.4051, 22360.65
876.8872, 22352.87
877.3693, 22316.35
877.8514, 22273.16
878.3336, 22241.30
878.8157, 22217.85
879.2978, 22190.56
879.7799, 22154.54
880.2620, 22118.23
880.7441, 22083.42
881.2263, 22054.73
881.7084, 22042.82
882.1905, 22041.24
882.6726, 22031.28
883.1547, 22007.93
883.6368, 21982.81
884.1190, 21966.21
884.6011, 21956.90
885.0832, 21954.97
885.5653, 21960.23
886.0474, 21953.75
886.5295, 21930.71
887.0117, 21904.84
887.4938, 21883.94
887.9759, 21867.20
888.4580, 21854.01
888.9401, 21849.24
889.4222, 21829.53
889.9044, 21779.02
890.3865, 21734.91
890.8686, 21712.59
891.3507, 21695.59
891.8328, 21670.74
892.3149, 21637.84
892.7971, 21599.82
893.2792, 21551.55
893.7613, 21508.54
894.2434, 21481.60
894.7255, 21459.16
895.2076, 21425.84
895.6898, 21389.27
896.1719, 21371.39
896.6540, 21378.01
897.1361, 21385.38
897.6182, 21370.82
898.1003, 21342.88
898.5825, 21310.67
899.0646, 21278.24
899.5467, 21267.63
900.0288, 21282.13
900.5109, 21296.21
900.9930, 21291.90
901.4752, 21272.77
901.9573, 21245.17
902.4394, 21207.16
902.9215, 21176.00
903.4036, 21154.71
903.8857, 21132.88
904.3679, 21108.45
904.8500, 21079.15
905.3321, 21038.92
905.8142, 20988.10
906.2963, 20949.32
906.7784, 20932.07
907.2606, 20913.33
907.7427, 20883.06
908.2248, 20857.74
908.7069, 20853.43
909.1890, 20859.97
909.6711, 20856.25
910.1533, 20836.69
910.6354, 20820.87
911.1175, 20825.37
911.5996, 20830.57
912.0817, 20817.92
912.5638, 20796.26
913.0460, 20784.00
913.5281, 20780.03
914.0102, 20763.65
914.4923, 20720.37
914.9744, 20666.66
915.4565, 20623.52
915.9387, 20589.66
916.4208, 20562.92
916.9029, 20542.44
917.3850, 20519.84
917.8671, 20491.65
918.3492, 20462.13
918.8314, 20434.72
919.3135, 20410.63
919.7956, 20399.20
920.2777, 20404.61
920.7598, 20405.47
921.2419, 20399.81
921.7241, 20386.89
922.2062, 20362.16
922.6883, 20332.20
923.1704, 20311.36
923.6525, 20302.79
924.1346, 20291.22
924.6168, 20278.50
925.0989, 20260.31
925.5810, 20225.24
926.0631, 20192.46
926.5452, 20186.47
927.0273, 20197.82
927.5095, 20190.45
927.9916, 20147.78
928.4737, 20105.39
928.9558, 20082.45
929.4379, 20065.42
929.9200, 20043.46
930.4022, 20018.46
930.8843, 19993.11
931.3664, 19969.48
931.8485, 19953.84
932.3306, 19954.69
932.8127, 19959.02
933.2949, 19944.04
933.7770, 19918.92
934.2591, 19911.30
934.7412, 19920.89
935.2233, 19923.28
935.7054, 19906.81
936.1876, 19880.79
936.6697, 19856.91
937.1518, 19834.85
937.6339, 19811.66
938.1160, 19786.52
938.5981, 19769.24
939.0803, 19765.01
939.5624, 19756.95
940.0445, 19730.84
940.5266, 19694.61
941.0087, 19670.53
941.4908, 19666.59
941.9730, 19646.15
942.4551, 19590.43
942.9372, 19546.89
943.4193, 19541.29
943.9014, 19544.38
944.3835, 19530.04
944.8657, 19502.20
945.3478, 19480.76
945.8299, 19467.43
946.3120, 19461.58
946.7941, 19471.72
947.2762, 19479.96
947.7584, 19474.98
948.2405, 19461.56
948.7226, 19447.22
949.2047, 19433.10
949.6868, 19415.96
950.1689, 19389.69
950.6511, 19366.03
951.1332, 19363.69
951.6153, 19362.83
952.0974, 19335.23
952.5795, 19285.36
953.0616, 19232.12
953.5438, 19183.06
954.0259, 19140.12
954.5080, 19102.63
954.9901, 19074.25
955.4722, 19067.41
955.9543, 19076.28
956.4365, 19078.16
956.9186, 19069.54
957.4007, 19060.58
957.8828, 19057.58
958.3649, 19056.68
958.8470, 19050.22
959.3292, 19038.59
959.8113, 19032.53
960.2934, 19033.10
960.7755, 19031.21
961.2576, 19026.31
961.7397, 19010.83
962.2219, 18976.13
962.7040, 18927.51
963.1861, 18883.98
963.6682, 18846.01
964.1503, 18811.41
964.6324, 18778.52
965.1146, 18752.10
965.5967, 18737.21
966.0788, 18726.72
966.5609, 18714.69
967.0430, 18700.85
967.5251, 18682.57
968.0073, 18652.31
968.4894, 18629.40
968.9715, 18623.32
969.4536, 18616.90
969.9357, 18597.49
970.4178, 18574.63
970.9000, 18562.70
971.3821, 18562.50
971.8642, 18561.84
972.3463, 18558.60
972.8284, 18551.27
973.3105, 18538.48
973.7927, 18521.93
974.2748, 18504.26
974.7569, 18483.72
975.2390, 18453.03
975.7211, 18411.23
976.2032, 18375.45
976.6854, 18365.76
977.1675, 18359.88
977.6496, 18332.18
978.1317, 18291.89
978.6138, 18247.90
979.0959, 18206.85
979.5781, 18188.06
980.0602, 18200.20
980.5423, 18220.86
981.0244, 18227.89
981.5065, 18222.88
981.9886, 18204.19
982.4708, 18176.21
982.9529, 18162.38
983.4350, 18165.83
983.9171, 18163.04
984.3992, 18139.04
984.8813, 18103.30
985.3635, 18072.20
985.8456, 18045.36
986.3277, 18013.07
986.8098, 17975.04
987.2919, 17935.66
987.7740, 17893.79
988.2562, 17864.05
988.7383, 17861.52
989.2204, 17873.31
989.7025, 17860.76
990.1846, 17814.14
990.6667, 17794.77
991.1489, 17818.67
991.6310, 17825.93
992.1131, 17786.46
992.5952, 17741.96
993.0773, 17734.94
993.5594, 17755.21
994.0416, 17755.99
994.5237, 17720.74
995.0058, 17700.82
995.4879, 17712.99
995.9700, 17719.49
996.4521, 17706.60
996.9343, 17684.74
997.4164, 17660.96
997.8985, 17636.73
998.3806, 17618.22
998.8627, 17612.25
999.3448, 17600.44
999.8270, 17577.79
1000.309, 17550.71
1000.791, 17517.80
1001.273, 17485.21
1001.755, 17462.26
1002.238, 17447.83
1002.720, 17430.29
1003.202, 17404.11
1003.684, 17377.24
1004.166, 17345.73
1004.648, 17321.92
1005.130, 17326.07
1005.612, 17339.85
1006.094, 17327.77
1006.577, 17288.87
1007.059, 17265.37
1007.541, 17293.48
1008.023, 17317.79
1008.505, 17285.48
1008.987, 17233.82
1009.469, 17202.84
1009.951, 17191.15
1010.433, 17191.82
1010.916, 17199.81
1011.398, 17198.40
1011.880, 17172.62
1012.362, 17137.21
1012.844, 17109.37
1013.326, 17084.85
1013.808, 17053.29
1014.290, 17017.54
1014.773, 16990.71
1015.255, 16976.82
1015.737, 16966.47
1016.219, 16952.19
1016.701, 16934.57
1017.183, 16907.10
1017.665, 16878.08
1018.147, 16883.42
1018.629, 16919.77
1019.112, 16939.81
1019.594, 16924.75
1020.076, 16896.88
1020.558, 16878.65
1021.040, 16866.84
1021.522, 16849.63
1022.004, 16828.65
1022.486, 16826.08
1022.969, 16843.70
1023.451, 16828.02
1023.933, 16751.80
1024.415, 16671.39
1024.897, 16657.32
1025.379, 16692.08
1025.861, 16688.18
1026.343, 16642.97
1026.825, 16612.90
1027.308, 16606.57
1027.790, 16596.28
1028.272, 16567.39
1028.754, 16535.46
1029.236, 16520.53
1029.718, 16520.73
1030.200, 16521.20
1030.682, 16522.36
1031.165, 16522.57
1031.647, 16522.51
1032.129, 16518.89
1032.611, 16509.18
1033.093, 16497.23
1033.575, 16489.28
1034.057, 16484.34
1034.539, 16467.18
1035.021, 16430.39
1035.504, 16401.05
1035.986, 16382.54
1036.468, 16369.72
1036.950, 16365.07
1037.432, 16359.14
1037.914, 16336.70
1038.396, 16299.04
1038.878, 16275.95
1039.360, 16281.98
1039.843, 16273.46
1040.325, 16231.86
1040.807, 16197.86
1041.289, 16194.81
1041.771, 16204.12
1042.253, 16204.23
1042.735, 16195.53
1043.217, 16185.75
1043.700, 16174.98
1044.182, 16163.14
1044.664, 16153.18
1045.146, 16138.81
1045.628, 16113.84
1046.110, 16085.78
1046.592, 16065.82
1047.074, 16052.30
1047.557, 16028.29
1048.039, 15979.45
1048.521, 15941.69
1049.003, 15927.68
1049.485, 15914.59
1049.967, 15887.74
1050.449, 15859.98
1050.931, 15850.91
1051.413, 15856.35
1051.896, 15846.40
1052.378, 15803.31
1052.860, 15771.40
1053.342, 15765.73
1053.824, 15764.89
1054.306, 15760.28
1054.788, 15754.25
1055.270, 15753.56
1055.752, 15754.89
1056.235, 15740.16
1056.717, 15690.07
1057.199, 15664.87
1057.681, 15716.32
1058.163, 15753.79
1058.645, 15716.85
1059.127, 15654.52
1059.609, 15617.90
1060.092, 15605.45
1060.574, 15594.73
1061.056, 15583.59
1061.538, 15562.88
1062.020, 15521.95
1062.502, 15479.91
1062.984, 15439.40
1063.466, 15408.23
1063.948, 15399.25
1064.431, 15405.51
1064.913, 15406.13
1065.395, 15395.25
1065.877, 15383.97
1066.359, 15372.87
1066.841, 15366.88
1067.323, 15375.61
1067.805, 15384.73
1068.287, 15381.26
1068.770, 15366.15
1069.252, 15342.38
1069.734, 15309.62
1070.216, 15284.98
1070.698, 15288.98
1071.180, 15285.87
1071.662, 15248.70
1072.144, 15203.33
1072.627, 15172.80
1073.109, 15153.46
1073.591, 15132.70
1074.073, 15107.97
1074.555, 15088.49
1075.037, 15085.92
1075.519, 15079.53
1076.001, 15052.25
1076.484, 15023.21
1076.966, 15007.73
1077.448, 15003.06
1077.930, 15006.43
1078.412, 15015.16
1078.894, 15012.75
1079.376, 14986.34
1079.858, 14957.07
1080.340, 14927.28
1080.823, 14906.25
1081.305, 14911.19
1081.787, 14924.36
1082.269, 14917.95
1082.751, 14891.02
1083.233, 14864.28
1083.715, 14843.01
1084.197, 14828.86
1084.679, 14836.35
1085.161, 14836.67
1085.644, 14800.48
1086.126, 14751.36
1086.608, 14716.42
1087.090, 14698.37
1087.572, 14692.55
1088.054, 14702.42
1088.536, 14704.78
1089.018, 14680.20
1089.501, 14656.11
1089.983, 14651.34
1090.465, 14653.79
1090.947, 14654.63
1091.429, 14649.86
1091.911, 14631.47
1092.393, 14595.53
1092.875, 14563.06
1093.358, 14539.64
1093.840, 14524.64
1094.322, 14525.56
1094.804, 14527.66
1095.286, 14518.55
1095.768, 14500.34
1096.250, 14478.22
1096.732, 14453.09
1097.214, 14429.38
1097.697, 14408.98
1098.179, 14389.68
1098.661, 14372.33
1099.143, 14354.00
1099.625, 14328.33
1100.107, 14302.67
1100.589, 14291.34
1101.071, 14293.53
1101.553, 14287.21
1102.036, 14255.29
1102.518, 14234.47
1103.000, 14246.85
1103.482, 14258.44
1103.964, 14247.74
1104.446, 14228.85
1104.928, 14222.47
1105.410, 14224.24
1105.893, 14206.69
1106.375, 14151.33
1106.857, 14116.39
1107.339, 14131.84
1107.821, 14144.60
1108.303, 14135.31
1108.785, 14114.91
1109.267, 14088.84
1109.750, 14060.25
1110.232, 14034.85
1110.714, 14012.33
1111.196, 13997.00
1111.678, 14003.50
1112.160, 13997.15
1112.642, 13956.82
1113.124, 13916.28
1113.606, 13899.34
1114.089, 13893.64
1114.571, 13874.48
1115.053, 13840.26
1115.535, 13829.08
1116.017, 13863.84
1116.499, 13884.43
1116.981, 13885.07
1117.463, 13874.48
1117.945, 13852.35
1118.428, 13823.94
1118.910, 13791.29
1119.392, 13757.01
1119.874, 13737.01
1120.356, 13741.42
1120.838, 13733.76
1121.320, 13704.55
1121.802, 13682.82
1122.285, 13681.75
1122.767, 13682.12
1123.249, 13667.81
1123.731, 13645.20
1124.213, 13631.20
1124.695, 13628.20
1125.177, 13610.16
1125.659, 13567.26
1126.141, 13544.00
1126.624, 13553.90
1127.106, 13567.63
1127.588, 13570.38
1128.070, 13564.94
1128.552, 13554.34
1129.034, 13539.33
1129.516, 13527.33
1129.998, 13518.85
1130.480, 13508.21
1130.963, 13495.09
1131.445, 13478.19
1131.927, 13456.69
1132.409, 13432.39
1132.891, 13406.25
1133.373, 13380.73
1133.855, 13363.03
1134.337, 13352.93
1134.820, 13348.09
1135.302, 13348.09
1135.784, 13335.78
1136.266, 13307.29
1136.748, 13278.45
1137.230, 13258.64
1137.712, 13247.96
1138.194, 13251.16
1138.677, 13261.32
1139.159, 13251.34
1139.641, 13226.17
1140.123, 13206.01
1140.605, 13194.27
1141.087, 13195.98
1141.569, 13211.92
1142.051, 13222.28
1142.533, 13207.07
1143.016, 13180.08
1143.498, 13164.58
1143.980, 13153.52
1144.462, 13128.83
1144.944, 13095.63
1145.426, 13072.57
1145.908, 13061.84
1146.390, 13049.02
1146.872, 13025.70
1147.355, 13000.51
1147.837, 12976.72
1148.319, 12960.19
1148.801, 12962.93
1149.283, 12974.62
1149.765, 12982.14
1150.247, 12983.02
1150.729, 12975.47
1151.212, 12959.48
1151.694, 12945.54
1152.176, 12942.69
1152.658, 12940.03
1153.140, 12933.99
1153.622, 12921.83
1154.104, 12894.10
1154.586, 12862.61
1155.068, 12845.54
1155.551, 12843.22
1156.033, 12843.87
1156.515, 12850.19
1156.997, 12841.24
1157.479, 12795.36
1157.961, 12751.36
1158.443, 12725.86
1158.925, 12711.23
1159.407, 12705.83
1159.890, 12703.95
1160.372, 12693.18
1160.854, 12671.11
1161.336, 12652.31
1161.818, 12630.02
1162.300, 12623.20
1162.782, 12652.23
1163.264, 12674.08
1163.747, 12667.14
1164.229, 12646.06
1164.711, 12622.61
1165.193, 12599.56
1165.675, 12595.19
1166.157, 12623.74
1166.639, 12622.26
1167.121, 12578.56
1167.604, 12541.75
1168.086, 12526.19
1168.568, 12514.30
1169.050, 12493.18
1169.532, 12471.47
1170.014, 12466.08
1170.496, 12474.64
1170.978, 12471.72
1171.460, 12457.22
1171.943, 12434.64
1172.425, 12404.21
1172.907, 12376.68
1173.389, 12356.21
1173.871, 12342.53
1174.353, 12335.43
1174.835, 12334.87
1175.317, 12346.65
1175.799, 12363.79
1176.282, 12358.15
1176.764, 12335.74
1177.246, 12324.12
1177.728, 12326.08
1178.210, 12323.50
1178.692, 12307.84
1179.174, 12289.95
1179.656, 12279.53
1180.139, 12273.93
1180.621, 12278.27
1181.103, 12279.40
1181.585, 12250.80
1182.067, 12205.06
1182.549, 12170.31
1183.031, 12152.61
1183.513, 12147.04
1183.995, 12156.30
1184.478, 12159.16
1184.960, 12135.13
1185.442, 12110.10
1185.924, 12104.93
1186.406, 12104.48
1186.888, 12087.09
1187.370, 12063.17
1187.852, 12064.54
1188.334, 12097.13
1188.817, 12106.58
1189.299, 12055.86
1189.781, 12021.23
1190.263, 12028.58
1190.745, 12039.11
1191.227, 12040.25
1191.709, 12032.14
1192.191, 12011.74
1192.674, 11982.69
1193.156, 11957.23
1193.638, 11933.79
1194.120, 11922.69
1194.602, 11930.76
1195.084, 11927.61
1195.566, 11903.36
1196.048, 11884.40
1196.531, 11886.85
1197.013, 11894.15
1197.495, 11885.49
1197.977, 11864.25
1198.459, 11840.52
1198.941, 11815.14
1199.423, 11798.13
1199.905, 11789.62
1200.387, 11784.76
1200.870, 11781.94
1201.352, 11776.88
1201.834, 11766.86
1202.316, 11755.94
1202.798, 11752.10
1203.280, 11748.11
1203.762, 11725.06
1204.244, 11695.09
1204.726, 11683.67
1205.209, 11686.39
1205.691, 11686.31
1206.173, 11678.22
1206.655, 11662.81
1207.137, 11640.22
1207.619, 11610.93
1208.101, 11564.78
1208.583, 11524.09
1209.066, 11507.00
1209.548, 11502.56
1210.030, 11505.46
1210.512, 11508.92
1210.994, 11498.13
1211.476, 11471.04
1211.958, 11455.56
1212.440, 11469.02
1212.922, 11475.97
1213.405, 11469.88
1213.887, 11458.28
1214.369, 11436.44
1214.851, 11418.99
1215.333, 11424.99
1215.815, 11440.18
1216.297, 11425.51
1216.779, 11377.21
1217.261, 11355.83
1217.744, 11370.40
1218.226, 11359.13
1218.708, 11309.31
1219.190, 11269.77
1219.672, 11262.78
1220.154, 11258.66
1220.636, 11227.16
1221.118, 11185.98
1221.600, 11178.09
1222.083, 11192.42
1222.565, 11184.46
1223.047, 11160.40
1223.529, 11147.64
1224.011, 11147.98
1224.493, 11146.50
1224.975, 11137.33
1225.457, 11126.69
1225.940, 11118.01
1226.422, 11112.31
1226.904, 11115.62
1227.386, 11117.50
1227.868, 11107.15
1228.350, 11087.94
1228.832, 11059.23
1229.314, 11027.83
1229.797, 11014.80
1230.279, 11028.18
1230.761, 11028.81
1231.243, 10995.87
1231.725, 10963.53
1232.207, 10934.53
1232.689, 10915.06
1233.171, 10913.89
1233.653, 10919.05
1234.135, 10920.83
1234.618, 10918.52
1235.100, 10908.31
1235.582, 10887.65
1236.064, 10877.14
1236.546, 10878.92
1237.028, 10880.33
1237.510, 10879.87
1237.992, 10873.47
1238.475, 10858.55
1238.957, 10844.34
1239.439, 10841.34
1239.921, 10842.80
1240.403, 10834.88
1240.885, 10819.35
1241.367, 10801.03
1241.849, 10780.17
1242.332, 10754.29
1242.814, 10725.79
1243.296, 10704.59
1243.778, 10694.21
1244.260, 10687.92
1244.742, 10684.19
1245.224, 10677.47
1245.706, 10655.47
1246.188, 10637.37
1246.671, 10645.52
1247.153, 10662.08
1247.635, 10668.10
1248.117, 10661.62
1248.599, 10639.32
1249.081, 10596.47
1249.563, 10575.63
1250.045, 10606.42
1250.527, 10618.01
1251.010, 10591.65
1251.492, 10567.97
1251.974, 10562.93
1252.456, 10565.34
1252.938, 10568.42
1253.420, 10567.03
1253.902, 10546.55
1254.384, 10509.11
1254.867, 10487.90
1255.349, 10482.06
1255.831, 10475.45
1256.313, 10465.90
1256.795, 10452.07
1257.277, 10433.98
1257.759, 10415.94
1258.241, 10400.88
1258.724, 10388.17
1259.206, 10374.65
1259.688, 10365.30
1260.170, 10370.12
1260.652, 10380.78
1261.134, 10387.87
1261.616, 10389.76
1262.098, 10386.75
1262.580, 10378.58
1263.063, 10361.61
1263.545, 10325.18
1264.027, 10304.74
1264.509, 10329.06
1264.991, 10344.05
1265.473, 10326.14
1265.955, 10298.91
1266.437, 10273.44
1266.919, 10250.93
1267.402, 10233.52
1267.884, 10220.56
1268.366, 10208.23
1268.848, 10196.84
1269.330, 10180.21
1269.812, 10157.34
1270.294, 10156.51
1270.776, 10182.92
1271.259, 10198.81
1271.741, 10185.19
1272.223, 10159.99
1272.705, 10137.62
1273.187, 10123.19
1273.669, 10130.45
##END=



