##NAMES=Djerfisherite
##RRUFFID=R070390
##IDEAL CHEMISTRY=K_6_(Fe,Cu,Ni)_25_S_26_Cl
##LOCALITY=Noril'sk, Putoran Mts, Taymyrskiy Autonomous Okrug, Eastern-Siberian Region, Russia
##OWNER=RRUFF
##SOURCE=Michael Scott
##DESCRIPTION=Grey metallic blebs in a prepared polished slab
##STATUS=The identification of this mineral is not yet confirmed.
##URL=rruff.info/R070390
139.0553, 0.0000000E+00
139.5374, 0.1091000
140.0195, 5.247650
140.5016, 14.93759
140.9837, 21.71747
141.4658, 22.71689
141.9480, 24.76328
142.4301, 34.19009
142.9122, 57.83792
143.3943, 72.50348
143.8764, 74.01636
144.3585, 62.62466
144.8407, 50.15436
145.3228, 31.12729
145.8049, 11.32681
146.2870, 3.075562
146.7691, 18.71857
147.2512, 29.79028
147.7334, 29.20200
148.2155, 13.11148
148.6976, 2.617218
149.1797, 1.420959
149.6618, 4.758728
150.1439, 6.329681
150.6261, 3.588928
151.1082, 6.569183
151.5903, 5.686554
152.0724, 48.03696
152.5545, 72.35464
153.0366, 60.42090
153.5188, 28.53137
154.0009, 8.799927
154.4830, 16.24304
154.9651, 28.78674
155.4472, 36.88190
155.9293, 37.79227
156.4115, 36.37796
156.8936, 29.89511
157.3757, 20.87497
157.8578, 17.91983
158.3399, 30.74426
158.8221, 46.26813
159.3042, 56.05911
159.7863, 51.27908
160.2684, 47.14929
160.7505, 49.21844
161.2326, 56.82614
161.7148, 64.77405
162.1969, 74.24036
162.6790, 81.72766
163.1611, 83.78592
163.6432, 71.94196
164.1253, 60.27002
164.6075, 56.98862
165.0896, 62.42914
165.5717, 69.06232
166.0538, 75.01349
166.5359, 79.10623
167.0180, 79.73914
167.5002, 72.33240
167.9823, 63.66391
168.4644, 59.22290
168.9465, 59.87643
169.4286, 61.53156
169.9107, 61.57864
170.3929, 60.44067
170.8750, 58.99896
171.3571, 55.82962
171.8392, 53.40994
172.3213, 55.71368
172.8034, 64.91135
173.2856, 73.23685
173.7677, 72.99362
174.2498, 65.61667
174.7319, 56.11920
175.2140, 41.97791
175.6961, 28.86234
176.1783, 26.87085
176.6604, 41.18204
177.1425, 61.13550
177.6246, 76.83221
178.1067, 87.82913
178.5888, 92.24405
179.0710, 83.65930
179.5531, 67.41406
180.0352, 55.45972
180.5173, 51.50250
180.9994, 52.41928
181.4815, 54.62271
181.9637, 58.05099
182.4458, 60.31540
182.9279, 57.42416
183.4100, 51.13171
183.8921, 48.19278
184.3742, 52.07007
184.8564, 59.86035
185.3385, 65.33829
185.8206, 68.55887
186.3027, 69.32141
186.7848, 64.89468
187.2669, 56.38016
187.7491, 52.13326
188.2312, 58.41084
188.7133, 71.34714
189.1954, 75.92697
189.6775, 71.07343
190.1596, 62.49953
190.6418, 56.54024
191.1239, 52.49681
191.6060, 50.05563
192.0881, 50.97827
192.5702, 54.45950
193.0524, 51.66306
193.5345, 40.25488
194.0166, 28.31007
194.4987, 32.36391
194.9808, 52.37466
195.4629, 68.82193
195.9451, 69.77612
196.4272, 56.64439
196.9093, 48.80353
197.3914, 49.04254
197.8735, 54.09381
198.3556, 58.47072
198.8378, 62.22525
199.3199, 64.90753
199.8020, 66.44220
200.2841, 66.87238
200.7662, 64.85239
201.2483, 59.13177
201.7305, 51.98929
202.2126, 50.15239
202.6947, 55.31097
203.1768, 59.43497
203.6589, 56.49826
204.1410, 45.15475
204.6232, 36.46457
205.1053, 31.43837
205.5874, 29.66933
206.0695, 30.24200
206.5516, 33.77658
207.0337, 38.02454
207.5159, 41.62042
207.9980, 44.48245
208.4801, 46.95778
208.9622, 50.11740
209.4443, 53.31996
209.9264, 49.47836
210.4086, 34.61621
210.8907, 20.66682
211.3728, 18.15897
211.8549, 30.91377
212.3370, 42.36514
212.8191, 51.81232
213.3013, 58.47418
213.7834, 54.52174
214.2655, 33.81183
214.7476, 12.37143
215.2297, 5.373657
215.7118, 17.28033
216.1940, 30.04497
216.6761, 42.90404
217.1582, 55.57523
217.6403, 58.57407
218.1224, 47.65977
218.6045, 32.71939
219.0867, 23.50520
219.5688, 22.84589
220.0509, 21.21269
220.5330, 15.36366
221.0151, 4.992798
221.4972, 1.725006
221.9794, 9.068848
222.4615, 19.55443
222.9436, 25.25058
223.4257, 24.38118
223.9078, 22.24188
224.3899, 19.81381
224.8721, 16.98973
225.3542, 14.73500
225.8363, 12.37903
226.3184, 11.35637
226.8005, 13.87195
227.2827, 22.06866
227.7648, 29.85034
228.2469, 36.80084
228.7290, 43.71826
229.2111, 42.51495
229.6932, 26.70953
230.1754, 8.053116
230.6575, 3.373001
231.1396, 23.14075
231.6217, 38.19363
232.1038, 38.60722
232.5859, 20.24338
233.0681, 10.10124
233.5502, 12.15842
234.0323, 19.46559
234.5144, 21.64462
234.9965, 14.84494
235.4786, 9.463120
235.9608, 9.612854
236.4429, 17.51236
236.9250, 20.12079
237.4071, 13.51062
237.8892, 4.032501
238.3713, 2.443771
238.8535, 14.22983
239.3356, 24.77489
239.8177, 29.56148
240.2998, 27.75656
240.7819, 22.82231
241.2640, 11.76825
241.7462, 0.7602690
242.2283, 6.568344
242.7104, 2.667953
243.1925, 3.040619
243.6746, 8.240021
244.1567, 12.99332
244.6389, 17.34454
245.1210, 22.74809
245.6031, 26.90631
246.0852, 24.55046
246.5673, 9.713165
247.0494, 1.364380
247.5316, 0.9387660
248.0137, 17.54469
248.4958, 25.21236
248.9779, 15.75284
249.4600, 1.863907
249.9421, 9.962616
250.4243, 4.212173
250.9064, 3.269180
251.3885, 8.682953
251.8706, 12.51830
252.3527, 11.99922
252.8348, 3.559448
253.3170, 7.134613
253.7991, 8.235367
254.2812, 5.820618
254.7633, 18.81494
255.2454, 24.08391
255.7275, 18.96773
256.2097, 15.84435
256.6918, 15.29155
257.1739, 16.41129
257.6560, 17.29224
258.1381, 17.09979
258.6202, 18.30264
259.1024, 22.98935
259.5845, 33.38239
260.0666, 37.30196
260.5487, 31.94354
261.0308, 22.22885
261.5129, 16.89786
261.9951, 16.92998
262.4772, 19.17079
262.9593, 23.42703
263.4414, 31.07782
263.9235, 33.76244
264.4056, 29.41344
264.8878, 22.04124
265.3699, 19.11589
265.8520, 22.40491
266.3341, 25.01459
266.8162, 23.71976
267.2983, 17.62003
267.7805, 13.71538
268.2626, 12.91330
268.7447, 13.34277
269.2268, 11.16498
269.7089, 5.176437
270.1910, 0.9447170
270.6732, 1.908081
271.1553, 9.060699
271.6374, 10.64217
272.1195, 4.388107
272.6016, 4.118576
273.0837, 4.904282
273.5659, 3.491180
274.0480, 12.09439
274.5301, 17.59634
275.0122, 19.87520
275.4943, 21.20641
275.9764, 21.59018
276.4586, 21.05446
276.9407, 18.81427
277.4228, 14.47569
277.9049, 11.77594
278.3870, 13.77669
278.8691, 20.07063
279.3513, 20.10133
279.8334, 12.11708
280.3155, 2.345993
280.7976, 0.4779210
281.2798, 6.946548
281.7619, 11.53499
282.2440, 8.938370
282.7261, 0.4547270
283.2082, 4.181961
283.6903, 4.809845
284.1725, 2.197723
284.6546, 4.520447
285.1367, 15.06047
285.6188, 23.34828
286.1009, 27.48647
286.5830, 27.65002
287.0652, 22.98534
287.5473, 12.68011
288.0294, 2.666275
288.5115, 1.000397
288.9936, 6.620850
289.4757, 10.60715
289.9579, 7.871994
290.4400, 1.921219
290.9221, 3.734253
291.4042, 13.85718
291.8863, 24.92911
292.3684, 29.20699
292.8506, 27.92448
293.3327, 26.63263
293.8148, 27.98245
294.2969, 29.87802
294.7790, 27.47618
295.2611, 20.75128
295.7433, 13.63522
296.2254, 9.321915
296.7075, 7.234802
297.1896, 5.913208
297.6717, 4.989014
298.1538, 4.461685
298.6360, 3.866898
299.1181, 3.320557
299.6002, 4.256546
300.0823, 9.360138
300.5644, 16.79984
301.0465, 21.88133
301.5287, 22.80135
302.0108, 21.45241
302.4929, 19.55774
302.9750, 16.97977
303.4571, 14.25389
303.9392, 12.00153
304.4214, 9.965103
304.9035, 6.692551
305.3856, 0.2931670
305.8677, 4.532669
306.3498, 1.844223
306.8319, 6.456238
307.3141, 13.54605
307.7962, 14.85561
308.2783, 13.53670
308.7604, 10.89499
309.2425, 5.001022
309.7246, 2.083710
310.2068, 9.676376
310.6889, 23.63106
311.1710, 33.34253
311.6531, 32.21312
312.1352, 27.34822
312.6173, 22.72775
313.0995, 19.18817
313.5816, 15.91597
314.0637, 9.609909
314.5458, 3.316071
315.0279, 2.543671
315.5100, 16.19482
315.9922, 30.80502
316.4743, 39.18858
316.9564, 39.65797
317.4385, 37.44980
317.9206, 31.84230
318.4027, 25.14317
318.8849, 20.60858
319.3670, 19.45319
319.8491, 20.30597
320.3312, 23.08473
320.8133, 28.15746
321.2954, 33.46069
321.7776, 40.94737
322.2597, 47.60928
322.7418, 50.33945
323.2239, 43.93950
323.7060, 38.55571
324.1881, 37.38942
324.6703, 41.61279
325.1524, 43.40990
325.6345, 38.03659
326.1166, 32.44412
326.5987, 32.03175
327.0808, 46.77167
327.5630, 55.59146
328.0451, 53.27045
328.5272, 40.52699
329.0093, 32.52721
329.4914, 33.97469
329.9735, 36.03868
330.4557, 32.08743
330.9378, 15.42351
331.4199, 5.907959
331.9020, 7.763885
332.3841, 18.02971
332.8662, 21.68275
333.3484, 14.41362
333.8305, 7.016296
334.3126, 6.166641
334.7947, 15.19061
335.2768, 20.26158
335.7589, 19.35867
336.2411, 14.86078
336.7232, 12.57072
337.2053, 12.75241
337.6874, 14.43550
338.1695, 18.08534
338.6516, 24.23070
339.1338, 26.80386
339.6159, 24.40361
340.0980, 20.29405
340.5801, 21.27861
341.0622, 27.46208
341.5443, 31.08084
342.0265, 28.04005
342.5086, 19.49202
342.9907, 15.81863
343.4728, 17.86856
343.9549, 21.51163
344.4370, 21.50984
344.9192, 18.22229
345.4013, 14.88968
345.8834, 11.44879
346.3655, 8.927155
346.8476, 13.93541
347.3297, 26.81789
347.8119, 38.26340
348.2940, 37.26537
348.7761, 27.45779
349.2582, 19.42619
349.7403, 15.65810
350.2225, 15.32173
350.7046, 18.70560
351.1867, 25.32147
351.6688, 31.17439
352.1509, 34.29144
352.6331, 34.59334
353.1152, 31.25957
353.5973, 22.03267
354.0794, 13.04558
354.5615, 10.16412
355.0436, 12.11267
355.5258, 15.00070
356.0079, 15.88490
356.4900, 17.21814
356.9721, 22.82704
357.4542, 36.09636
357.9363, 44.23663
358.4185, 35.51643
358.9006, 17.25374
359.3827, 2.119171
359.8648, 5.735611
360.3469, 8.570770
360.8290, 5.861649
361.3112, 3.431030
361.7933, 10.77887
362.2754, 10.96201
362.7575, 8.781906
363.2396, 9.339554
363.7217, 18.32692
364.2039, 25.78574
364.6860, 29.21146
365.1681, 28.26053
365.6502, 24.92462
366.1323, 15.80852
366.6144, 6.549942
367.0966, 0.9886320
367.5787, 0.7671660
368.0608, 1.483444
368.5429, 12.06941
369.0250, 28.02795
369.5071, 33.53056
369.9893, 20.48196
370.4714, 6.408798
370.9535, 2.1240000E-02
371.4356, 5.367966
371.9177, 9.189606
372.3998, 10.25935
372.8820, 10.25987
373.3641, 13.79237
373.8462, 23.26797
374.3283, 29.78038
374.8104, 28.79375
375.2925, 19.51193
375.7747, 11.51137
376.2568, 4.206329
376.7389, 0.8009340
377.2210, 3.3172999E-02
377.7031, 6.987778
378.1852, 12.99557
378.6674, 16.43794
379.1495, 17.07356
379.6316, 11.86118
380.1137, 7.3850001E-03
380.5958, 10.10588
381.0779, 7.382523
381.5601, 5.159439
382.0422, 11.73759
382.5243, 6.429581
383.0064, 3.265366
383.4885, 4.435593
383.9706, 1.994614
384.4528, 9.282776
384.9349, 12.24825
385.4170, 13.25870
385.8991, 17.03687
386.3812, 25.46588
386.8633, 32.95880
387.3455, 32.98680
387.8276, 28.04172
388.3097, 23.81184
388.7918, 24.84236
389.2739, 26.65648
389.7560, 25.24080
390.2382, 20.00278
390.7203, 15.11400
391.2024, 10.89476
391.6845, 8.895569
392.1666, 10.94283
392.6487, 26.31601
393.1309, 37.78073
393.6130, 35.37709
394.0951, 20.44458
394.5772, 9.226547
395.0593, 8.814133
395.5414, 11.54819
396.0236, 12.65170
396.5057, 10.78410
396.9878, 8.066208
397.4699, 1.385651
397.9520, 6.437729
398.4341, 6.369614
398.9163, 10.71606
399.3984, 26.24481
399.8805, 33.21008
400.3626, 28.64413
400.8447, 24.27464
401.3268, 20.42967
401.8090, 16.54489
402.2911, 10.87285
402.7732, 1.016281
403.2553, 4.111801
403.7374, 1.170227
404.2195, 9.389877
404.7017, 20.07042
405.1838, 31.69060
405.6659, 41.20651
406.1480, 45.78116
406.6301, 45.41963
407.1122, 41.76859
407.5944, 33.63148
408.0765, 23.89461
408.5586, 19.64879
409.0407, 20.80061
409.5228, 24.25461
410.0049, 30.06445
410.4871, 36.61687
410.9692, 39.07394
411.4513, 36.49234
411.9334, 31.62091
412.4155, 25.01715
412.8976, 18.24414
413.3798, 15.86520
413.8619, 25.87320
414.3440, 37.80075
414.8261, 39.15523
415.3082, 29.72528
415.7903, 20.51151
416.2725, 18.40816
416.7546, 20.56897
417.2367, 23.69458
417.7188, 26.03427
418.2009, 29.40733
418.6830, 38.12187
419.1652, 50.01106
419.6473, 55.22554
420.1294, 43.28532
420.6115, 29.23276
421.0937, 21.70972
421.5758, 26.42555
422.0579, 28.12001
422.5400, 21.70844
423.0221, 11.74962
423.5042, 5.557800
423.9864, 3.392822
424.4685, 5.094711
424.9506, 13.01871
425.4327, 28.09567
425.9148, 35.16885
426.3969, 29.96249
426.8791, 21.48830
427.3612, 17.89070
427.8433, 21.13557
428.3254, 23.00690
428.8075, 21.92464
429.2896, 18.96025
429.7718, 16.50458
430.2539, 14.19995
430.7360, 14.07701
431.2181, 20.06448
431.7002, 31.28265
432.1823, 33.40691
432.6645, 23.94098
433.1466, 11.31912
433.6287, 7.945831
434.1108, 12.09485
434.5929, 15.25961
435.0750, 13.06641
435.5572, 8.400879
436.0393, 5.602951
436.5214, 4.660843
437.0035, 5.694183
437.4856, 11.09833
437.9677, 17.75291
438.4499, 20.63058
438.9320, 17.96114
439.4141, 14.87151
439.8962, 14.38055
440.3783, 15.57318
440.8604, 15.91978
441.3426, 13.85393
441.8247, 11.84302
442.3068, 11.05460
442.7889, 12.05841
443.2710, 12.08328
443.7531, 7.844757
444.2353, 3.249405
444.7174, 2.546478
445.1995, 11.67012
445.6816, 18.89592
446.1637, 20.77586
446.6458, 18.02394
447.1280, 18.77264
447.6101, 26.23763
448.0922, 33.67404
448.5743, 37.23247
449.0564, 35.60616
449.5385, 33.60741
450.0207, 31.37753
450.5028, 28.83537
450.9849, 25.69189
451.4670, 21.89101
451.9491, 18.16014
452.4312, 14.57890
452.9134, 11.32037
453.3955, 9.357697
453.8776, 8.598907
454.3597, 9.777878
454.8418, 15.74055
455.3239, 24.81590
455.8061, 29.28497
456.2882, 27.11685
456.7703, 21.80519
457.2524, 14.90010
457.7345, 7.455368
458.2166, 4.024231
458.6988, 10.52394
459.1809, 20.31184
459.6630, 26.70073
460.1451, 29.92363
460.6272, 29.37054
461.1093, 19.75612
461.5915, 7.816193
462.0736, 1.494919
462.5557, 5.233643
463.0378, 13.06616
463.5199, 27.13678
464.0020, 45.38722
464.4842, 56.11058
464.9663, 54.17509
465.4484, 46.95525
465.9305, 37.79895
466.4126, 22.69852
466.8947, 12.91429
467.3769, 10.74443
467.8590, 12.88759
468.3411, 13.90994
468.8232, 12.70621
469.3053, 12.62778
469.7874, 14.91124
470.2696, 19.39372
470.7517, 23.00204
471.2338, 25.53087
471.7159, 27.79150
472.1980, 31.58536
472.6801, 36.45752
473.1623, 37.45895
473.6444, 33.23471
474.1265, 27.36916
474.6086, 25.67780
475.0907, 27.86046
475.5728, 31.97336
476.0550, 38.87006
476.5371, 46.41103
477.0192, 51.61606
477.5013, 54.43872
477.9834, 53.93504
478.4655, 45.65504
478.9477, 34.74344
479.4298, 28.14941
479.9119, 30.34100
480.3940, 34.16574
480.8761, 35.95253
481.3582, 36.43629
481.8404, 37.70839
482.3225, 43.54207
482.8046, 47.76472
483.2867, 46.32579
483.7688, 35.85304
484.2509, 30.27492
484.7331, 35.04910
485.2152, 43.04491
485.6973, 47.71631
486.1794, 47.14513
486.6615, 46.42322
487.1436, 45.72054
487.6258, 45.37903
488.1079, 47.98605
488.5900, 55.48453
489.0721, 60.48233
489.5542, 57.69092
490.0363, 47.02965
490.5185, 37.41890
491.0006, 28.41177
491.4827, 22.97937
491.9648, 29.00909
492.4470, 43.84561
492.9291, 52.44354
493.4112, 46.36380
493.8933, 33.98448
494.3754, 28.14650
494.8575, 27.97687
495.3397, 28.32999
495.8218, 25.65118
496.3039, 21.77922
496.7860, 7.710175
497.2681, 21.21184
497.7502, 28.60005
498.2324, 30.20345
498.7145, 8.696609
499.1966, 17.03590
499.6787, 13.41534
500.1608, 9.304611
500.6429, 21.84511
501.1251, 3.702820
501.6072, 15.97978
502.0893, 16.11426
502.5714, 21.80638
503.0535, 15.46468
503.5356, 12.84023
504.0178, 22.25377
504.4999, 25.00215
504.9820, 17.27640
505.4641, 23.32372
505.9462, 4.764069
506.4283, 7.797852
506.9105, 20.14835
507.3926, 13.02895
507.8747, 19.29759
508.3568, 20.46754
508.8389, 1.533798
509.3210, 16.76212
509.8032, 17.63071
510.2853, 0.6053160
510.7674, 17.52107
511.2495, 2.963120
511.7316, 0.3604580
512.2137, 13.62355
512.6959, 19.81497
513.1780, 20.14705
513.6601, 17.65578
514.1422, 13.49924
514.6243, 7.925262
515.1064, 2.704819
515.5886, 5.558517
516.0707, 11.53896
516.5528, 10.64565
517.0349, 3.353195
517.5170, 12.30751
517.9991, 10.64696
518.4813, 4.516006
518.9634, 1.750412
519.4455, 5.285614
519.9276, 6.366440
520.4097, 1.305008
520.8918, 8.120956
521.3740, 9.569733
521.8561, 0.8270110
522.3382, 8.561447
522.8203, 11.88956
523.3024, 9.540909
523.7845, 8.668808
524.2667, 9.846375
524.7488, 11.80508
525.2309, 12.84042
525.7130, 13.33263
526.1951, 14.66728
526.6772, 18.37579
527.1594, 22.17773
527.6415, 24.29637
528.1236, 24.45908
528.6057, 21.43414
529.0878, 7.319366
529.5699, 5.508621
530.0521, 5.472641
530.5342, 12.43254
531.0163, 26.96919
531.4984, 29.97543
531.9805, 26.88794
532.4626, 23.53351
532.9448, 20.89786
533.4269, 17.63898
533.9090, 11.89917
534.3911, 5.239700
534.8732, 4.521973
535.3553, 13.07178
535.8375, 21.36734
536.3196, 25.19243
536.8017, 24.42336
537.2838, 22.80115
537.7659, 20.19106
538.2480, 17.11694
538.7302, 13.46722
539.2123, 9.518478
539.6944, 7.627670
540.1765, 8.898193
540.6586, 11.35007
541.1407, 12.33784
541.6229, 12.15697
542.1050, 11.89214
542.5871, 11.55542
543.0692, 11.76805
543.5513, 12.24142
544.0334, 13.00520
544.5156, 17.24492
544.9977, 34.94717
545.4798, 51.85666
545.9619, 55.96275
546.4440, 33.28979
546.9261, 15.22247
547.4083, 7.702988
547.8904, 7.129288
548.3725, 7.012054
548.8546, 6.055496
549.3367, 7.979355
549.8188, 15.05296
550.3010, 26.53340
550.7831, 31.50562
551.2652, 28.09479
551.7473, 24.56470
552.2294, 28.34137
552.7115, 38.20665
553.1937, 41.72668
553.6758, 36.81352
554.1579, 30.54652
554.6400, 34.32037
555.1221, 44.36687
555.6042, 49.33269
556.0864, 41.81665
556.5685, 30.93886
557.0506, 23.91710
557.5327, 20.59686
558.0148, 20.59526
558.4969, 26.86575
558.9791, 34.04768
559.4612, 39.85036
559.9433, 44.78864
560.4254, 44.29242
560.9075, 30.86465
561.3896, 15.37460
561.8718, 7.228592
562.3539, 10.18394
562.8360, 14.45747
563.3181, 20.16333
563.8002, 26.24428
564.2823, 30.28624
564.7645, 32.37442
565.2466, 31.68552
565.7287, 25.91313
566.2108, 16.94034
566.6929, 15.98268
567.1750, 23.57773
567.6572, 30.26021
568.1393, 25.67790
568.6214, 14.86742
569.1035, 8.198944
569.5856, 7.770767
570.0677, 9.317535
570.5499, 11.05502
571.0320, 12.00995
571.5141, 10.67047
571.9962, 1.491440
572.4783, 5.122070
572.9604, 3.237335
573.4426, 5.176025
573.9247, 11.54515
574.4068, 16.41977
574.8889, 18.45976
575.3710, 14.01779
575.8531, 0.2288970
576.3353, 2.082962
576.8174, 14.58084
577.2995, 34.57906
577.7816, 43.20389
578.2637, 39.42661
578.7458, 33.80284
579.2280, 27.95074
579.7101, 22.74739
580.1922, 17.82896
580.6743, 13.26454
581.1564, 9.832870
581.6385, 8.002106
582.1207, 7.443008
582.6028, 7.571808
583.0849, 8.488892
583.5670, 10.97055
584.0491, 15.54208
584.5313, 21.82480
585.0134, 30.70766
585.4955, 44.69751
585.9776, 53.36525
586.4597, 50.25455
586.9418, 41.96085
587.4240, 35.67087
587.9061, 34.89520
588.3882, 32.21515
588.8703, 25.15892
589.3524, 15.65103
589.8345, 8.839645
590.3167, 4.369003
590.7988, 4.263702
591.2809, 12.84912
591.7630, 27.02277
592.2451, 27.58525
592.7272, 13.97017
593.2094, 0.5743260
593.6915, 2.175995
594.1736, 11.94989
594.6557, 15.87553
595.1378, 10.04570
595.6199, 5.092209
596.1021, 12.61543
596.5842, 25.07739
597.0663, 31.75117
597.5485, 22.32869
598.0306, 13.56735
598.5127, 10.73883
598.9948, 12.97385
599.4769, 16.31258
599.9590, 24.17917
600.4412, 28.59285
600.9233, 25.20161
601.4054, 13.07196
601.8875, 8.536575
602.3696, 14.04170
602.8517, 21.23117
603.3339, 22.54036
603.8160, 18.48178
604.2981, 15.74202
604.7802, 15.49182
605.2623, 15.24846
605.7444, 9.589691
606.2266, 1.215012
606.7087, 2.144562
607.1908, 8.099625
607.6729, 18.56467
608.1550, 16.67523
608.6371, 5.869125
609.1193, 2.743759
609.6014, 3.125153
610.0835, 1.581482
610.5656, 1.481354
611.0477, 3.604660
611.5298, 2.444458
612.0120, 5.290222
612.4941, 13.19913
612.9762, 16.73904
613.4583, 14.50591
613.9404, 12.66852
614.4225, 10.94295
614.9047, 10.61720
615.3868, 16.15311
615.8689, 26.72314
616.3510, 29.92842
616.8331, 18.44891
617.3152, 2.639145
617.7974, 0.1741640
618.2795, 7.050201
618.7616, 12.61404
619.2437, 6.439590
619.7258, 1.136307
620.2079, 1.818634
620.6901, 4.799637
621.1722, 11.50844
621.6543, 18.81837
622.1364, 23.30556
622.6185, 21.75821
623.1006, 8.239136
623.5828, 1.964233
624.0649, 6.360626
624.5470, 14.85875
625.0291, 20.02664
625.5112, 21.65512
625.9933, 20.63628
626.4755, 16.03682
626.9576, 10.31837
627.4397, 8.868225
627.9218, 11.26875
628.4039, 14.33138
628.8860, 18.55528
629.3682, 21.45316
629.8503, 17.70036
630.3324, 7.946609
630.8145, 0.5019840
631.2966, 0.7068940
631.7787, 4.024826
632.2609, 8.178314
632.7430, 13.80635
633.2251, 16.49199
633.7072, 10.34854
634.1893, 3.874619
634.6714, 5.144501
635.1536, 20.53409
635.6357, 28.78288
636.1178, 26.48643
636.5999, 18.50359
637.0820, 11.85791
637.5641, 5.912430
638.0463, 4.219177
638.5284, 10.17120
639.0105, 18.90756
639.4926, 19.40121
639.9747, 13.07417
640.4568, 8.169159
640.9390, 11.82793
641.4211, 17.84595
641.9032, 21.27057
642.3853, 20.33995
642.8674, 17.80437
643.3495, 12.74623
643.8317, 8.248108
644.3138, 6.298676
644.7959, 6.774323
645.2780, 9.361801
645.7601, 17.02167
646.2422, 24.19547
646.7244, 22.46504
647.2065, 8.875336
647.6886, 2.549805
648.1707, 9.075394
648.6528, 21.40068
649.1349, 25.88016
649.6171, 23.18503
650.0992, 18.30859
650.5813, 10.00687
651.0634, 3.012299
651.5455, 5.649734
652.0276, 16.00555
652.5098, 23.67386
652.9919, 19.43846
653.4740, 13.64012
653.9561, 13.05348
654.4382, 19.28528
654.9203, 24.98032
655.4025, 31.45969
655.8846, 35.33334
656.3667, 33.25818
656.8488, 21.42697
657.3309, 15.52965
657.8130, 17.42459
658.2952, 22.87318
658.7773, 27.06584
659.2594, 29.91458
659.7415, 29.65239
660.2236, 24.84222
660.7057, 18.33633
661.1879, 14.22232
661.6700, 11.79803
662.1521, 9.159500
662.6342, 3.538147
663.1163, 0.9950560
663.5984, 1.345627
664.0806, 2.085190
664.5627, 5.476486
665.0448, 8.968597
665.5269, 11.47916
666.0090, 12.18994
666.4911, 10.62900
666.9733, 10.91464
667.4554, 14.24892
667.9375, 17.52361
668.4196, 17.33250
668.9017, 13.76816
669.3839, 13.40324
669.8660, 17.32092
670.3481, 22.20206
670.8302, 25.38725
671.3123, 26.63153
671.7944, 24.89384
672.2766, 16.91144
672.7587, 10.68936
673.2408, 13.35468
673.7229, 21.28862
674.2050, 27.44466
674.6871, 30.61926
675.1693, 30.92200
675.6514, 26.18643
676.1335, 18.00299
676.6156, 15.14619
677.0977, 20.24434
677.5798, 24.62717
678.0620, 24.00493
678.5441, 19.10849
679.0262, 15.94632
679.5083, 14.55690
679.9904, 13.84290
680.4725, 13.44061
680.9547, 12.95255
681.4368, 11.49524
681.9189, 8.883743
682.4010, 6.237106
682.8831, 2.220383
683.3652, 0.4063260
683.8474, 1.595795
684.3295, 14.94739
684.8116, 23.42799
685.2937, 21.27318
685.7758, 14.59644
686.2579, 11.50569
686.7401, 14.19878
687.2222, 13.85965
687.7043, 6.834259
688.1864, 2.127594
688.6685, 0.9987790
689.1506, 15.30135
689.6328, 25.96545
690.1149, 22.95050
690.5970, 14.73669
691.0791, 15.30353
691.5612, 22.86322
692.0433, 28.20236
692.5255, 25.07841
693.0076, 18.61861
693.4897, 9.334167
693.9718, 3.591583
694.4539, 6.370178
694.9360, 14.64429
695.4182, 35.24725
695.9003, 41.33189
696.3824, 27.70929
696.8645, 22.78889
697.3466, 30.01654
697.8287, 36.90123
698.3109, 24.93214
698.7930, 1.012573
699.2751, 13.11717
699.7572, 3.618591
700.2393, 10.04771
700.7214, 7.491959
701.2036, 2.899246
701.6857, 7.018158
702.1678, 8.169250
702.6499, 21.12180
703.1320, 19.11444
703.6141, 9.071793
704.0963, 9.129211
704.5784, 32.85942
705.0605, 46.90092
705.5426, 40.01093
706.0247, 18.28369
706.5068, 10.62965
706.9890, 18.74167
707.4711, 26.30209
707.9532, 23.07224
708.4353, 13.49339
708.9174, 9.576920
709.3995, 10.77060
709.8817, 11.87195
710.3638, 7.767960
710.8459, 2.991531
711.3280, 2.029648
711.8101, 5.799225
712.2922, 9.133652
712.7744, 10.62733
713.2565, 11.15535
713.7386, 11.25446
714.2207, 10.43449
714.7028, 10.58972
715.1849, 12.17241
715.6671, 13.94588
716.1492, 14.33530
716.6313, 13.48117
717.1134, 13.21611
717.5955, 14.03120
718.0776, 14.94214
718.5598, 14.79562
719.0419, 13.85657
719.5240, 12.60269
720.0061, 10.69432
720.4882, 9.209763
720.9703, 10.27414
721.4525, 12.73077
721.9346, 13.96707
722.4167, 13.36554
722.8988, 11.58496
723.3809, 8.034561
723.8630, 3.460098
724.3452, 0.5095210
724.8273, 0.9521790
725.3094, 0.2322540
725.7915, 5.820709
726.2736, 14.01616
726.7557, 21.01291
727.2379, 26.69289
727.7200, 30.12856
728.2021, 28.57799
728.6842, 26.04884
729.1663, 26.61818
729.6484, 30.75249
730.1306, 32.57864
730.6127, 27.27385
731.0948, 21.81789
731.5769, 20.12115
732.0590, 23.10185
732.5411, 25.98940
733.0233, 28.76401
733.5054, 31.49013
733.9875, 36.15982
734.4696, 41.71521
734.9517, 38.35146
735.4338, 23.52612
735.9160, 8.569504
736.3981, 5.794556
736.8802, 10.06850
737.3623, 15.05150
737.8444, 18.26550
738.3266, 19.00653
738.8087, 18.00459
739.2908, 16.02628
739.7729, 14.21980
740.2551, 13.05675
740.7372, 10.94083
741.2193, 5.989044
741.7014, 1.413559
742.1835, 5.846786
742.6656, 19.39743
743.1478, 30.02068
743.6299, 33.53513
744.1120, 32.53970
744.5941, 29.56159
745.0762, 25.32323
745.5583, 21.91740
746.0405, 20.62767
746.5226, 20.25295
747.0047, 21.30785
747.4868, 23.02189
747.9689, 20.94514
748.4510, 10.16577
748.9332, 1.250092
749.4153, 2.346176
749.8974, 0.9630280
750.3795, 1.583214
750.8616, 5.476372
751.3438, 9.036743
751.8259, 9.307579
752.3080, 8.652802
752.7901, 15.74689
753.2722, 29.19277
753.7543, 38.97938
754.2365, 34.68456
754.7186, 27.35012
755.2007, 27.20626
755.6828, 37.61235
756.1649, 42.52199
756.6470, 32.76881
757.1292, 20.48809
757.6113, 14.79491
758.0934, 16.84440
758.5755, 18.22805
759.0576, 18.75403
759.5397, 18.35052
760.0219, 17.15534
760.5040, 15.25916
760.9861, 14.72669
761.4682, 16.19593
761.9503, 17.29977
762.4324, 14.27958
762.9146, 10.64512
763.3967, 10.76864
763.8788, 19.65575
764.3609, 25.89836
764.8430, 26.84337
765.3251, 24.62498
765.8073, 20.46257
766.2894, 12.49115
766.7715, 10.90742
767.2536, 19.37740
767.7357, 30.57867
768.2178, 30.64814
768.7000, 22.25230
769.1821, 16.74516
769.6642, 19.37322
770.1463, 23.57265
770.6284, 23.53188
771.1105, 21.00867
771.5927, 19.39522
772.0748, 18.95565
772.5569, 20.57518
773.0390, 27.37631
773.5211, 35.80680
774.0032, 35.14349
774.4854, 21.70148
774.9675, 13.72302
775.4496, 19.83357
775.9317, 32.11589
776.4138, 26.49808
776.8959, 6.955368
777.3781, 5.205971
777.8602, 10.88004
778.3423, 31.28761
778.8244, 33.30527
779.3065, 21.37510
779.7886, 15.22499
780.2708, 30.59056
780.7529, 42.29018
781.2350, 40.80721
781.7171, 27.72897
782.1992, 17.06709
782.6813, 8.260155
783.1635, 4.399437
783.6456, 10.09460
784.1277, 21.37860
784.6098, 24.46747
785.0919, 20.08031
785.5740, 15.57110
786.0562, 15.40415
786.5383, 17.32384
787.0204, 20.90530
787.5025, 26.07713
787.9846, 27.39983
788.4667, 15.07061
788.9489, 6.556549
789.4310, 11.27748
789.9131, 30.36705
790.3952, 40.13467
790.8773, 39.42891
791.3594, 34.40650
791.8416, 26.85501
792.3237, 18.85857
792.8058, 18.73065
793.2879, 26.64247
793.7700, 29.70219
794.2521, 8.148262
794.7343, 14.77004
795.2164, 16.71104
795.6985, 11.55103
796.1806, 29.85075
796.6627, 28.38562
797.1448, 22.37503
797.6270, 21.98598
798.1091, 28.57567
798.5912, 28.63400
799.0733, 20.90271
799.5554, 12.90980
800.0375, 14.11302
800.5197, 19.84184
801.0018, 20.54342
801.4839, 14.32582
801.9660, 8.228310
802.4481, 4.288437
802.9302, 3.714699
803.4124, 8.353134
803.8945, 23.84736
804.3766, 32.00163
804.8587, 29.75806
805.3408, 24.19786
805.8229, 22.19370
806.3051, 23.70522
806.7872, 21.42372
807.2693, 13.87221
807.7514, 6.942596
808.2335, 9.136932
808.7156, 14.68529
809.1978, 13.84017
809.6799, 1.840942
810.1620, 7.318985
810.6441, 5.652405
811.1262, 0.4144590
811.6083, 4.776802
812.0905, 7.818748
812.5726, 7.053612
813.0547, 0.1119690
813.5368, 6.150742
814.0189, 0.6940990
814.5010, 13.78570
814.9832, 19.76384
815.4653, 12.52543
815.9474, 5.747543
816.4295, 15.79034
816.9116, 32.15228
817.3937, 41.59149
817.8759, 37.77162
818.3580, 32.86296
818.8401, 28.88892
819.3222, 25.18050
819.8043, 20.42341
820.2864, 13.41473
820.7686, 11.79619
821.2507, 17.60084
821.7328, 24.83844
822.2149, 25.06906
822.6970, 20.60641
823.1791, 16.89787
823.6613, 14.73486
824.1434, 15.05688
824.6255, 20.90017
825.1076, 28.50079
825.5897, 33.58487
826.0718, 35.00696
826.5540, 34.25497
827.0361, 30.80574
827.5182, 25.82074
828.0003, 19.08709
828.4824, 11.20380
828.9645, 10.71721
829.4467, 20.44099
829.9288, 31.12785
830.4109, 30.81034
830.8930, 24.41739
831.3751, 19.45162
831.8572, 18.20337
832.3394, 17.79761
832.8215, 16.90790
833.3036, 16.58543
833.7857, 18.09576
834.2678, 22.42294
834.7499, 25.77302
835.2321, 27.64293
835.7142, 28.53622
836.1963, 27.09530
836.6784, 23.84138
837.1605, 20.40073
837.6426, 16.79799
838.1248, 14.48244
838.6069, 15.15238
839.0890, 17.46191
839.5711, 19.90716
840.0532, 21.72025
840.5353, 24.78690
841.0175, 31.54243
841.4996, 37.17009
841.9817, 35.60797
842.4638, 26.48345
842.9459, 20.00793
843.4280, 17.53252
843.9102, 15.72282
844.3923, 8.947037
844.8744, 1.011757
845.3565, 1.424461
845.8386, 4.123688
846.3207, 10.64563
846.8029, 15.34235
847.2850, 19.78021
847.7671, 25.84543
848.2492, 36.47626
848.7313, 40.34068
849.2134, 35.06033
849.6956, 27.48856
850.1777, 27.24475
850.6598, 31.86342
851.1419, 31.88034
851.6240, 25.68626
852.1061, 19.95915
852.5883, 20.76408
853.0704, 23.01114
853.5525, 21.24700
854.0346, 9.068932
854.5167, 6.054901
854.9988, 19.46228
855.4810, 33.98593
855.9631, 38.35281
856.4452, 32.39600
856.9273, 26.15111
857.4094, 19.67804
857.8915, 15.53848
858.3737, 17.21144
858.8558, 21.98711
859.3379, 27.41981
859.8200, 33.39151
860.3021, 36.48392
860.7842, 33.21561
861.2664, 28.44017
861.7485, 24.01239
862.2306, 19.40985
862.7127, 21.84543
863.1948, 33.39545
863.6769, 42.92697
864.1591, 40.58595
864.6412, 30.83519
865.1233, 23.72241
865.6054, 19.46399
866.0875, 16.77376
866.5696, 14.01790
867.0518, 13.24748
867.5339, 16.85820
868.0160, 24.81111
868.4981, 30.94591
868.9802, 35.25122
869.4623, 34.84937
869.9445, 26.94804
870.4266, 14.10750
870.9087, 8.968842
871.3908, 10.55731
871.8729, 13.21556
872.3550, 10.02649
872.8372, 8.154709
873.3193, 17.23819
873.8014, 34.62596
874.2835, 44.50180
874.7656, 36.40637
875.2477, 28.47226
875.7299, 25.49304
876.2120, 26.00294
876.6941, 23.66512
877.1762, 18.49706
877.6583, 14.65292
878.1404, 14.23094
878.6226, 15.83008
879.1047, 17.62323
879.5869, 19.93486
880.0690, 23.63788
880.5511, 34.47261
881.0332, 40.41071
881.5153, 34.63930
881.9974, 23.19327
882.4796, 16.26213
882.9617, 14.62967
883.4438, 15.79121
883.9259, 20.96031
884.4080, 24.94728
884.8901, 15.43564
885.3723, 1.466217
885.8544, 11.39484
886.3365, 7.179947
886.8186, 1.449921
887.3007, 14.76144
887.7828, 28.06209
888.2650, 34.59644
888.7471, 31.59477
889.2292, 29.26172
889.7113, 29.03035
890.1934, 28.26469
890.6755, 20.85316
891.1577, 10.00955
891.6398, 7.032135
892.1219, 15.72015
892.6040, 23.64250
893.0861, 19.70508
893.5682, 12.30658
894.0504, 9.356110
894.5325, 13.36105
895.0146, 18.84476
895.4967, 27.27458
895.9788, 34.46146
896.4609, 36.48627
896.9431, 33.96523
897.4252, 29.40833
897.9073, 22.89948
898.3894, 18.60417
898.8715, 23.42877
899.3536, 29.05682
899.8358, 26.40164
900.3179, 13.55403
900.8000, 8.304855
901.2821, 19.37115
901.7642, 27.64473
902.2463, 21.28635
902.7285, 3.689453
903.2106, 3.900848
903.6927, 21.46063
904.1748, 35.59943
904.6569, 31.24937
905.1390, 19.24774
905.6212, 6.190033
906.1033, 5.792725
906.5854, 9.533951
907.0675, 4.693756
907.5496, 18.80003
908.0317, 30.27905
908.5139, 37.98553
908.9960, 36.31017
909.4781, 25.43301
909.9602, 17.26640
910.4423, 16.58595
910.9244, 18.75758
911.4066, 18.52309
911.8887, 17.03415
912.3708, 16.37456
912.8529, 19.07294
913.3350, 20.21701
913.8171, 16.98943
914.2993, 13.21048
914.7814, 15.29309
915.2635, 24.03645
915.7456, 27.46594
916.2277, 23.19978
916.7098, 16.31296
917.1920, 9.263306
917.6741, 4.760300
918.1562, 8.834412
918.6383, 26.75349
919.1204, 38.25404
919.6025, 30.12114
920.0847, 19.22282
920.5668, 18.06946
921.0489, 29.28818
921.5310, 28.87468
922.0131, 15.12917
922.4952, 3.897964
922.9774, 12.72833
923.4595, 29.94691
923.9416, 40.02708
924.4237, 41.83124
924.9058, 36.08762
925.3879, 8.709732
925.8701, 11.01131
926.3522, 7.951431
926.8343, 14.35829
927.3164, 27.33232
927.7985, 30.57468
928.2806, 29.33762
928.7628, 23.56400
929.2449, 17.61493
929.7270, 21.57916
930.2091, 31.10271
930.6912, 34.49347
931.1733, 15.61804
931.6555, 3.249664
932.1376, 13.04381
932.6197, 31.64920
933.1018, 35.54597
933.5839, 22.12540
934.0660, 13.67278
934.5482, 14.87651
935.0303, 19.98906
935.5124, 23.83467
935.9945, 25.72192
936.4766, 23.94865
936.9587, 16.40855
937.4409, 10.01097
937.9230, 8.092926
938.4051, 7.282684
938.8872, 3.540390
939.3693, 5.536926
939.8514, 0.2120360
940.3336, 21.75101
940.8157, 41.30853
941.2978, 39.30142
941.7799, 26.63803
942.2620, 18.59532
942.7441, 4.988007
943.2263, 18.72954
943.7084, 25.73470
944.1905, 27.21986
944.6726, 6.101028
945.1547, 14.84267
945.6368, 11.62440
946.1190, 7.915817
946.6011, 20.85855
947.0832, 3.118515
947.5653, 15.83461
948.0474, 16.37166
948.5295, 22.46585
949.0117, 16.52626
949.4938, 14.30377
949.9759, 24.11951
950.4580, 27.26997
950.9401, 19.94585
951.4222, 26.39474
951.9044, 8.236359
952.3865, 11.67160
952.8686, 24.42358
953.3507, 17.70569
953.8328, 24.37575
954.3149, 14.36273
954.7971, 20.41656
955.2792, 34.79033
955.7613, 41.96515
956.2434, 35.78133
956.7255, 26.59283
957.2076, 19.39902
957.6898, 14.25584
958.1719, 14.59525
958.6540, 20.34331
959.1361, 26.21533
959.6182, 30.47974
960.1003, 31.76752
960.5825, 27.30904
961.0646, 18.15712
961.5467, 10.50023
962.0288, 4.543045
962.5109, 1.775146
962.9930, 3.307098
963.4752, 7.672272
963.9573, 12.08966
964.4394, 16.22086
964.9215, 17.83440
965.4036, 14.47090
965.8857, 9.168243
966.3679, 2.009476
966.8500, 4.616119
967.3321, 7.456039
967.8142, 3.137878
968.2963, 0.4309390
968.7784, 0.1016240
969.2606, 4.8126001E-02
969.7427, 0.9958950
970.2248, 2.689209
970.7069, 3.700272
971.1890, 3.943268
971.6711, 5.907516
972.1533, 14.76920
972.6354, 22.93097
973.1175, 24.14508
973.5996, 18.43460
974.0817, 14.56889
974.5638, 12.17776
975.0460, 13.42824
975.5281, 22.27501
976.0102, 32.51276
976.4923, 27.39182
976.9744, 12.26967
977.4565, 2.883408
977.9387, 11.39859
978.4208, 20.61156
978.9029, 25.02583
979.3850, 26.43918
979.8671, 27.43582
980.3492, 28.40558
980.8314, 25.26868
981.3135, 16.19516
981.7956, 9.235992
982.2777, 18.74104
982.7598, 33.44377
983.2419, 35.69347
983.7241, 20.54463
984.2062, 6.991714
984.6883, 1.479858
985.1704, 4.678772
985.6525, 0.2402800
986.1346, 10.67581
986.6168, 14.39355
987.0989, 11.18420
987.5810, 9.808044
988.0631, 19.16032
988.5452, 28.50240
989.0273, 25.36081
989.5095, 13.99243
989.9916, 5.228119
990.4737, 1.092819
990.9558, 6.4896002E-02
991.4379, 12.52405
991.9200, 27.49916
992.4022, 28.55223
992.8843, 19.01221
993.3664, 13.67657
993.8485, 15.83693
994.3306, 19.28377
994.8127, 17.80077
995.2949, 16.04167
995.7770, 18.84782
996.2591, 27.64743
996.7412, 31.23332
997.2233, 28.23172
997.7054, 23.81171
998.1876, 19.37505
998.6697, 15.48612
999.1518, 14.08656
999.6339, 14.55986
1000.116, 14.41454
1000.598, 9.742340
1001.080, 7.564697
1001.562, 13.04825
1002.044, 21.25388
1002.527, 23.10912
1003.009, 18.20087
1003.491, 12.15292
1003.973, 5.493286
1004.455, 0.3787380
1004.937, 1.436478
1005.419, 0.1416170
1005.901, 6.969589
1006.384, 22.41759
1006.866, 29.19818
1007.348, 20.23712
1007.830, 10.55028
1008.312, 9.601746
1008.794, 15.35403
1009.276, 15.07103
1009.758, 9.424622
1010.240, 4.056732
1010.723, 1.029572
1011.205, 0.5335080
1011.687, 3.776947
1012.169, 9.619415
1012.651, 15.06248
1013.133, 20.51796
1013.615, 24.14587
1014.097, 25.44772
1014.580, 25.44972
1015.062, 25.00966
1015.544, 24.45262
1016.026, 24.83948
1016.508, 26.80925
1016.990, 26.99089
1017.472, 22.39053
1017.954, 17.05641
1018.436, 12.91547
1018.919, 10.48915
1019.401, 10.60513
1019.883, 12.63147
1020.365, 14.79520
1020.847, 18.17084
1021.329, 20.19885
1021.811, 16.01962
1022.293, 8.644791
1022.776, 5.452118
1023.258, 9.354584
1023.740, 15.66716
1024.222, 25.83809
1024.704, 34.88348
1025.186, 35.49144
1025.668, 29.88853
1026.150, 23.08978
1026.632, 15.42473
1027.115, 10.08647
1027.597, 10.74696
1028.079, 12.96632
1028.561, 13.41476
1029.043, 12.17560
1029.525, 14.25749
1030.007, 20.45126
1030.489, 22.73279
1030.972, 13.03749
1031.454, 2.329575
1031.936, 10.70016
1032.418, 29.20731
1032.900, 38.58589
1033.382, 22.61806
1033.864, 11.62415
1034.346, 10.45900
1034.828, 12.86700
1035.311, 11.88457
1035.793, 8.113785
1036.275, 4.380539
1036.757, 1.319168
1037.239, 2.680145
1037.721, 20.67741
1038.203, 37.00810
1038.685, 34.38934
1039.167, 15.25882
1039.650, 8.968277
1040.132, 18.92033
1040.614, 27.07167
1041.096, 26.87660
1041.578, 22.40413
1042.060, 18.36833
1042.542, 15.13625
1043.024, 13.67894
1043.507, 17.53975
1043.989, 17.14919
1044.471, 4.451935
1044.953, 5.673752
1045.435, 1.434967
1045.917, 23.87625
1046.399, 36.38202
1046.881, 38.77904
1047.364, 37.87827
1047.846, 37.16762
1048.328, 35.88765
1048.810, 33.16582
1049.292, 29.39485
1049.774, 26.99734
1050.256, 27.56993
1050.738, 22.65817
1051.220, 7.789658
1051.703, 6.290924
1052.185, 4.1290000E-02
1052.667, 16.96428
1053.149, 29.04539
1053.631, 32.87163
1054.113, 32.81598
1054.595, 28.38776
1055.077, 22.02623
1055.559, 13.23386
1056.042, 3.278091
1056.524, 1.728302
1057.006, 7.737411
1057.488, 14.18813
1057.970, 18.94815
1058.452, 21.18938
1058.934, 18.30307
1059.416, 13.17532
1059.899, 11.08524
1060.381, 12.12978
1060.863, 16.94016
1061.345, 26.60286
1061.827, 35.68262
1062.309, 39.26680
1062.791, 38.38435
1063.273, 32.92369
1063.755, 23.07043
1064.238, 16.49139
1064.720, 18.82648
1065.202, 19.90005
1065.684, 15.68045
1066.166, 9.008179
1066.648, 7.663727
1067.130, 11.12201
1067.612, 17.62080
1068.094, 29.28523
1068.577, 37.37379
1069.059, 34.10803
1069.541, 26.37550
1070.023, 20.15019
1070.505, 14.74350
1070.987, 17.75693
1071.469, 30.44910
1071.951, 39.64139
1072.434, 32.12975
1072.916, 19.17010
1073.398, 13.09570
1073.880, 12.89117
1074.362, 14.79762
1074.844, 23.98785
1075.326, 24.20874
1075.808, 9.731567
1076.291, 7.825546
1076.773, 12.31592
1077.255, 6.665741
1077.737, 3.272354
1078.219, 17.01457
1078.701, 25.57570
1079.183, 17.11494
1079.665, 9.637680
1080.147, 14.28683
1080.630, 27.83748
1081.112, 28.63991
1081.594, 17.28094
1082.076, 12.56737
1082.558, 25.62169
1083.040, 40.18867
1083.522, 40.79419
1084.004, 34.49278
1084.486, 30.41980
1084.969, 28.92722
1085.451, 32.60953
1085.933, 43.66179
1086.415, 51.51709
1086.897, 45.21484
1087.379, 31.83667
1087.861, 22.31902
1088.343, 16.54086
1088.826, 14.06148
1089.308, 19.71124
1089.790, 21.75702
1090.272, 15.36772
1090.754, 7.770676
1091.236, 13.58466
1091.718, 28.81995
1092.200, 34.33978
1092.682, 26.82771
1093.165, 16.28018
1093.647, 2.120636
1094.129, 6.586441
1094.611, 1.349258
1095.093, 14.98369
1095.575, 23.33496
1096.057, 23.45210
1096.539, 21.34264
1097.022, 17.47736
1097.504, 15.82137
1097.986, 23.80046
1098.468, 35.15913
1098.950, 40.96436
1099.432, 37.64015
1099.914, 34.84218
1100.396, 32.91515
1100.879, 30.55450
1101.361, 24.28992
1101.843, 18.12367
1102.325, 24.38493
1102.807, 38.19496
1103.289, 42.67407
1103.771, 15.33374
1104.253, 5.0537001E-02
1104.735, 9.086975
1105.218, 26.42545
1105.700, 29.56410
1106.182, 21.17175
1106.664, 12.95006
1107.146, 6.078949
1107.628, 1.323959
1108.110, 1.285278
1108.592, 1.273331
1109.074, 1.490677
1109.557, 6.687012
1110.039, 17.47479
1110.521, 33.76810
1111.003, 43.22874
1111.485, 40.25023
1111.967, 33.63054
1112.449, 32.09839
1112.931, 31.02657
1113.414, 23.33704
1113.896, 4.970993
1114.378, 0.6195680
1114.860, 13.44366
1115.342, 26.58191
1115.824, 30.92949
1116.306, 29.40385
1116.788, 22.90695
1117.271, 14.59459
1117.753, 11.44656
1118.235, 21.36827
1118.717, 28.24112
1119.199, 30.62300
1119.681, 30.65678
1120.163, 31.25992
1120.645, 31.10266
1121.127, 24.05673
1121.609, 10.93121
1122.092, 1.745850
1122.574, 3.640564
1123.056, 7.753677
1123.538, 11.74030
1124.020, 15.49860
1124.502, 19.93340
1124.984, 24.48677
1125.466, 22.66194
1125.949, 12.24330
1126.431, 4.902603
1126.913, 11.69492
1127.395, 22.21097
1127.877, 29.95348
1128.359, 35.81868
1128.841, 38.27330
1129.323, 37.32719
1129.806, 31.05624
1130.288, 15.17326
1130.770, 0.9379580
1131.252, 2.637527
1131.734, 11.57518
1132.216, 16.45360
1132.698, 15.06665
1133.180, 12.04976
1133.662, 6.250229
1134.145, 3.350998
1134.627, 9.761429
1135.109, 20.76555
1135.591, 30.67337
1136.073, 37.82103
1136.555, 38.57278
1137.037, 23.07608
1137.519, 15.12688
1138.001, 18.70073
1138.484, 24.57327
1138.966, 21.62152
1139.448, 13.96141
1139.930, 12.28090
1140.412, 16.50078
1140.894, 20.30186
1141.376, 23.10066
1141.858, 22.07732
1142.341, 14.52817
1142.823, 5.149475
1143.305, 4.118195
1143.787, 9.112686
1144.269, 8.634796
1144.751, 0.1481630
1145.233, 6.798462
1145.715, 7.528137
1146.198, 4.093979
1146.680, 3.967468
1147.162, 14.74660
1147.644, 17.79700
1148.126, 13.77486
1148.608, 11.63960
1149.090, 15.00122
1149.572, 18.92453
1150.054, 21.66737
1150.536, 21.70909
1151.019, 15.81477
1151.501, 2.986252
1151.983, 0.8272090
1152.465, 10.56351
1152.947, 20.04593
1153.429, 21.77205
1153.911, 21.28326
1154.393, 24.84961
1154.876, 29.50468
1155.358, 29.66019
1155.840, 23.56021
1156.322, 17.13603
1156.804, 9.880768
1157.286, 5.674088
1157.768, 8.901382
1158.250, 16.09279
1158.733, 25.34967
1159.215, 34.99303
1159.697, 39.33075
1160.179, 35.94284
1160.661, 30.13705
1161.143, 20.71463
1161.625, 14.13522
1162.107, 21.05598
1162.589, 34.38618
1163.072, 43.21182
1163.554, 46.56511
1164.036, 44.38837
1164.518, 30.80666
1165.000, 21.90802
1165.482, 22.80103
1165.964, 28.03473
1166.446, 29.97115
1166.928, 28.58308
1167.411, 21.28346
1167.893, 5.858856
1168.375, 2.176422
1168.857, 7.732208
1169.339, 19.43890
1169.821, 27.94615
1170.303, 33.18150
1170.785, 35.12080
1171.268, 33.64478
1171.750, 27.15071
1172.232, 10.58951
1172.714, 0.9959720
1173.196, 12.59920
1173.678, 26.37347
1174.160, 31.08623
1174.642, 28.00287
1175.125, 22.85295
1175.607, 16.54471
1176.089, 14.38606
1176.571, 22.69136
1177.053, 30.59663
1177.535, 35.99718
1178.017, 36.54811
1178.499, 27.28198
1178.981, 8.679947
1179.464, 0.3355100
1179.946, 1.661942
1180.428, 8.018173
1180.910, 24.76137
1181.392, 38.16670
1181.874, 37.57619
1182.356, 30.72211
1182.838, 30.19185
1183.320, 36.34518
1183.803, 38.23781
1184.285, 35.00848
1184.767, 26.85048
1185.249, 2.904938
1185.731, 15.57140
1186.213, 7.305695
1186.695, 17.60060
1187.177, 31.05011
1187.660, 32.57217
1188.142, 28.25786
1188.624, 18.12770
1189.106, 9.815369
1189.588, 10.16183
1190.070, 14.85326
1190.552, 23.09937
1191.034, 33.24155
1191.516, 35.44992
1191.999, 28.99384
1192.481, 20.32257
1192.963, 9.617905
1193.445, 2.360077
1193.927, 8.397964
1194.409, 17.68851
1194.891, 17.92693
1195.373, 8.105850
1195.855, 10.34575
1196.338, 26.53935
1196.820, 38.07179
1197.302, 35.68910
1197.784, 29.71574
1198.266, 33.84100
1198.748, 39.78998
1199.230, 34.62169
1199.712, 13.54784
1200.195, 7.666428
1200.677, 19.27075
1201.159, 29.85419
1201.641, 27.35956
1202.123, 21.55870
1202.605, 23.18158
1203.087, 28.88193
1203.569, 34.87350
1204.052, 43.94551
1204.534, 43.09566
1205.016, 30.27448
1205.498, 17.47256
1205.980, 11.67233
1206.462, 11.29724
1206.944, 17.53685
1207.426, 27.24530
1207.908, 32.85760
1208.391, 32.33318
1208.873, 32.44434
1209.355, 33.85410
1209.837, 33.71948
1210.319, 28.70601
1210.801, 21.64917
1211.283, 13.67082
1211.765, 6.421417
1212.247, 6.305145
1212.730, 17.15836
1213.212, 22.68924
1213.694, 20.24776
1214.176, 16.98296
1214.658, 20.41344
1215.140, 26.43706
1215.622, 32.50247
1216.104, 37.27429
1216.587, 33.88586
1217.069, 16.87761
1217.551, 9.269623
1218.033, 16.28459
1218.515, 27.03937
1218.997, 31.40652
1219.479, 31.47223
1219.961, 28.25174
1220.443, 22.28203
1220.926, 18.73534
1221.408, 18.44537
1221.890, 18.21284
1222.372, 17.48288
1222.854, 15.97163
1223.336, 11.00508
1223.818, 6.531937
1224.300, 9.119049
1224.782, 19.69348
1225.265, 20.83521
1225.747, 9.945297
1226.229, 1.702698
1226.711, 1.240356
1227.193, 4.988892
1227.675, 12.30039
1228.157, 19.48947
1228.639, 21.57985
1229.122, 17.56195
1229.604, 13.51248
1230.086, 8.956009
1230.568, 7.646942
1231.050, 12.35532
1231.532, 18.34149
1232.014, 20.82112
1232.496, 21.04436
1232.979, 19.94785
1233.461, 17.22949
1233.943, 18.97603
1234.425, 26.07121
1234.907, 28.35927
1235.389, 18.64534
1235.871, 5.949234
1236.353, 4.569580
1236.835, 10.80698
1237.318, 8.409271
1237.800, 4.169617
1238.282, 11.31313
1238.764, 12.63260
1239.246, 14.53398
1239.728, 22.68143
1240.210, 30.04733
1240.692, 31.36392
1241.175, 27.67247
1241.657, 18.98714
1242.139, 2.846985
1242.621, 0.8510280
1243.103, 13.09175
1243.585, 23.44919
1244.067, 23.25804
1244.549, 20.89594
1245.031, 20.13725
1245.514, 20.85995
1245.996, 23.17474
1246.478, 27.49217
1246.960, 28.70691
1247.442, 26.86804
1247.924, 23.82251
1248.406, 19.62419
1248.888, 15.84784
1249.370, 12.58751
1249.853, 10.77838
1250.335, 12.43422
1250.817, 17.35440
1251.299, 19.34918
1251.781, 18.42677
1252.263, 17.30035
1252.745, 18.32690
1253.227, 19.03062
1253.710, 17.61917
1254.192, 15.87480
1254.674, 16.31638
1255.156, 18.57201
1255.638, 20.79211
1256.120, 22.83112
1256.602, 24.51538
1257.084, 25.77914
1257.567, 26.53845
1258.049, 26.34425
1258.531, 26.20296
1259.013, 29.65056
1259.495, 34.28755
1259.977, 28.08989
1260.459, 11.68146
1260.941, 1.745041
1261.423, 11.32426
1261.906, 21.75946
1262.388, 30.57021
1262.870, 35.53159
1263.352, 31.01884
1263.834, 20.86452
1264.316, 12.25772
1264.798, 6.312042
1265.280, 6.581802
1265.762, 21.65378
1266.245, 30.37201
1266.727, 27.62856
1267.209, 20.45903
1267.691, 18.02739
1268.173, 17.97122
1268.655, 14.90323
1269.137, 8.848373
1269.619, 10.40314
1270.102, 25.58534
1270.584, 33.50618
1271.066, 27.92429
1271.548, 20.19904
1272.030, 29.95715
1272.512, 42.21570
1272.994, 35.16023
1273.476, 9.131104
1273.958, 3.299332
1274.441, 0.3307950
1274.923, 4.684753
1275.405, 8.811325
1275.887, 12.05150
1276.369, 15.43095
1276.851, 18.32478
1277.333, 20.70114
1277.815, 22.20076
1278.297, 19.10248
1278.780, 11.11807
1279.262, 4.503601
1279.744, 0.5058140
1280.226, 0.3878020
1280.708, 5.045197
1281.190, 11.16728
1281.672, 14.28406
1282.154, 14.68069
1282.637, 12.13551
1283.119, 7.148254
1283.601, 4.139664
1284.083, 3.798447
1284.565, 7.115829
1285.047, 20.87665
1285.529, 31.14520
1286.011, 29.42317
1286.494, 21.03546
1286.976, 23.20668
1287.458, 31.76421
1287.940, 30.73616
1288.422, 15.08630
1288.904, 5.091019
1289.386, 13.43143
1289.868, 22.08234
1290.350, 25.63472
1290.833, 25.64674
1291.315, 23.71014
1291.797, 20.99266
1292.279, 20.03638
1292.761, 21.56584
1293.243, 21.56549
1293.725, 20.43680
1294.207, 20.93776
1294.689, 25.46465
1295.172, 29.26309
1295.654, 21.50439
1296.136, 10.78458
1296.618, 10.13222
1297.100, 22.40816
1297.582, 29.96042
1298.064, 32.34593
1298.546, 33.12715
1299.029, 33.53665
1299.511, 32.31258
1299.993, 27.60809
1300.475, 21.03271
1300.957, 11.93323
1301.439, 1.800659
1301.921, 2.706833
1302.403, 14.09789
1302.885, 18.24620
1303.368, 7.881561
1303.850, 0.3156740
1304.332, 11.27020
1304.814, 22.63113
1305.296, 20.26440
1305.778, 8.744293
1306.260, 3.753967
1306.742, 3.983749
1307.224, 4.895218
1307.707, 5.672485
1308.189, 5.042633
1308.671, 0.8467560
1309.153, 0.4759520
1309.635, 4.773727
1310.117, 13.01004
1310.599, 9.138351
1311.081, 3.774246
1311.564, 0.0000000E+00
##END=



