##NAMES=Djerfisherite
##RRUFFID=R070390
##IDEAL CHEMISTRY=K_6_(Fe,Cu,Ni)_25_S_26_Cl
##LOCALITY=Noril'sk, Putoran Mts, Taymyrskiy Autonomous Okrug, Eastern-Siberian Region, Russia
##OWNER=RRUFF
##SOURCE=Michael Scott
##DESCRIPTION=Grey metallic blebs in a prepared polished slab
##STATUS=The identification of this mineral is not yet confirmed.
##URL=rruff.info/R070390
159.1066, 0.0000000E+00
159.5887, 4.773926
160.0709, 0.4501950
160.5530, 0.3229980
161.0351, 11.23804
161.5172, 32.26392
161.9993, 62.99719
162.4814, 116.5022
162.9636, 179.1372
163.4457, 225.8333
163.9278, 245.0663
164.4099, 242.8379
164.8920, 226.5809
165.3741, 188.7040
165.8563, 153.2350
166.3384, 138.0441
166.8205, 137.0027
167.3026, 139.2098
167.7847, 136.8297
168.2668, 129.0179
168.7490, 118.6614
169.2311, 104.2483
169.7132, 99.16272
170.1953, 116.9636
170.6774, 138.3265
171.1595, 150.3656
171.6417, 150.3530
172.1238, 141.2181
172.6059, 133.7510
173.0880, 133.1434
173.5701, 125.6897
174.0522, 100.5372
174.5344, 66.69043
175.0165, 39.22217
175.4986, 27.17346
175.9807, 26.60889
176.4628, 30.10815
176.9449, 41.49304
177.4271, 49.95386
177.9092, 52.80304
178.3913, 51.48022
178.8734, 46.22223
179.3555, 35.74817
179.8376, 23.97266
180.3197, 10.09088
180.8019, 2.010742
181.2840, 8.114502
181.7661, 4.079956
182.2482, 4.700195
182.7303, 12.15277
183.2124, 15.44733
183.6946, 16.98523
184.1767, 21.83405
184.6588, 31.93994
185.1409, 44.40167
185.6230, 58.60706
186.1051, 71.83746
186.5873, 83.38727
187.0694, 94.65002
187.5515, 104.9390
188.0336, 102.5277
188.5157, 72.05298
188.9978, 49.85486
189.4800, 50.17334
189.9621, 59.17212
190.4442, 63.51825
190.9263, 57.19928
191.4084, 44.93158
191.8905, 37.93097
192.3727, 38.75580
192.8548, 40.33472
193.3369, 41.80688
193.8190, 42.84131
194.3011, 43.82727
194.7832, 45.02753
195.2654, 46.69281
195.7475, 49.52545
196.2296, 57.73975
196.7117, 58.78632
197.1938, 47.03479
197.6759, 30.83832
198.1581, 16.66461
198.6402, 6.822571
199.1223, 0.3543700
199.6044, 5.425293
200.0865, 13.48804
200.5686, 13.04211
201.0508, 2.067322
201.5329, 20.89636
202.0150, 36.30670
202.4971, 45.93774
202.9792, 50.23322
203.4613, 48.84766
203.9435, 36.75018
204.4256, 29.85284
204.9077, 31.77423
205.3898, 36.24847
205.8719, 40.13678
206.3540, 42.24097
206.8362, 42.24664
207.3183, 39.11664
207.8004, 30.45428
208.2825, 24.90076
208.7646, 26.29150
209.2467, 27.52423
209.7289, 23.51251
210.2110, 14.14331
210.6931, 3.867310
211.1752, 2.195313
211.6573, 3.274109
212.1395, 3.483276
212.6216, 2.444275
213.1037, 1.167297
213.5858, 0.8126220
214.0679, 2.923706
214.5500, 3.674500
215.0322, 1.112854
215.5143, 5.575867
215.9964, 10.72986
216.4785, 13.45880
216.9606, 11.25381
217.4427, 8.452423
217.9249, 5.340271
218.4070, 2.588074
218.8891, 1.198273
219.3712, 1.311127
219.8533, 1.573242
220.3354, 11.78174
220.8176, 20.92599
221.2997, 26.81406
221.7818, 29.86209
222.2639, 31.21078
222.7460, 31.50049
223.2281, 30.79395
223.7103, 30.28290
224.1924, 29.52490
224.6745, 29.47174
225.1566, 31.53943
225.6387, 34.16382
226.1208, 34.50650
226.6030, 30.52286
227.0851, 24.01605
227.5672, 22.83032
228.0493, 32.53662
228.5314, 40.18109
229.0135, 43.89172
229.4957, 44.43149
229.9778, 42.00775
230.4599, 36.57449
230.9420, 29.94867
231.4241, 26.79474
231.9062, 29.71762
232.3884, 31.58801
232.8705, 30.60400
233.3526, 28.84735
233.8347, 28.18152
234.3168, 29.24655
234.7989, 31.38965
235.2811, 33.11099
235.7632, 33.35367
236.2453, 35.73471
236.7274, 42.99332
237.2095, 50.36240
237.6916, 53.72983
238.1738, 52.72824
238.6559, 50.93164
239.1380, 54.59805
239.6201, 67.78738
240.1022, 74.32898
240.5843, 64.26532
241.0665, 54.48267
241.5486, 54.04587
242.0307, 62.58954
242.5128, 73.29816
242.9949, 80.13669
243.4770, 82.95715
243.9592, 83.62341
244.4413, 79.43994
244.9234, 75.47845
245.4055, 74.08783
245.8876, 74.45212
246.3697, 74.09039
246.8519, 70.36404
247.3340, 64.18207
247.8161, 63.16171
248.2982, 72.46112
248.7803, 79.95023
249.2624, 80.24265
249.7446, 76.30048
250.2267, 72.92651
250.7088, 72.60510
251.1909, 74.55649
251.6730, 76.19095
252.1551, 76.27493
252.6373, 78.62622
253.1194, 88.00211
253.6015, 98.61575
254.0836, 103.9365
254.5657, 101.1415
255.0478, 93.60660
255.5300, 85.75775
256.0121, 76.78888
256.4942, 70.52521
256.9763, 70.92570
257.4584, 72.68433
257.9406, 71.97150
258.4227, 68.52631
258.9048, 64.92451
259.3869, 61.61412
259.8690, 58.25809
260.3511, 57.46399
260.8333, 63.70062
261.3154, 68.88959
261.7975, 65.55484
262.2796, 54.12440
262.7617, 43.63559
263.2438, 42.11676
263.7260, 47.74112
264.2081, 49.39265
264.6902, 43.06364
265.1723, 37.08224
265.6544, 38.37274
266.1365, 45.12137
266.6187, 51.38574
267.1008, 53.57974
267.5829, 53.43193
268.0650, 55.03601
268.5471, 59.19958
269.0292, 62.41428
269.5114, 60.90935
269.9935, 57.24155
270.4756, 55.82648
270.9577, 58.55029
271.4398, 63.39392
271.9219, 69.11609
272.4041, 75.78600
272.8862, 79.91222
273.3683, 78.79938
273.8504, 73.81934
274.3325, 67.66730
274.8146, 58.83298
275.2968, 52.70584
275.7789, 55.31639
276.2610, 64.36327
276.7431, 70.12103
277.2252, 68.21045
277.7073, 62.65041
278.1895, 60.55318
278.6716, 63.00133
279.1537, 63.13704
279.6358, 56.47360
280.1179, 46.30869
280.6000, 37.87357
281.0822, 32.13147
281.5643, 29.15363
282.0464, 30.04314
282.5285, 35.21976
283.0106, 38.90746
283.4927, 39.69470
283.9749, 39.20619
284.4570, 38.20511
284.9391, 36.92430
285.4212, 36.92711
285.9033, 40.23947
286.3854, 46.63928
286.8676, 49.26273
287.3497, 45.17213
287.8318, 40.49773
288.3139, 38.24741
288.7960, 37.79744
289.2781, 37.11551
289.7603, 34.97975
290.2424, 32.01460
290.7245, 30.97400
291.2066, 34.37140
291.6887, 36.41315
292.1708, 36.03748
292.6530, 33.94624
293.1351, 30.12268
293.6172, 24.61926
294.0993, 19.54689
294.5814, 18.93283
295.0635, 27.26082
295.5457, 31.55025
296.0278, 28.40776
296.5099, 23.90625
296.9920, 22.41739
297.4741, 24.37202
297.9562, 27.41742
298.4384, 29.14319
298.9205, 29.38478
299.4026, 29.47238
299.8847, 30.50667
300.3668, 30.39771
300.8489, 26.52132
301.3310, 20.88374
301.8131, 17.87761
302.2953, 20.72185
302.7774, 28.13322
303.2595, 33.48178
303.7416, 35.58376
304.2237, 37.26588
304.7058, 38.93761
305.1880, 40.70116
305.6701, 42.91965
306.1522, 45.70039
306.6343, 47.97113
307.1164, 47.56967
307.5985, 43.99475
308.0807, 39.60078
308.5628, 31.88104
309.0449, 25.75665
309.5270, 24.88063
310.0091, 29.03354
310.4912, 34.48509
310.9734, 38.48997
311.4555, 41.10275
311.9376, 42.52299
312.4197, 42.24524
312.9018, 41.37469
313.3839, 40.45815
313.8661, 39.48172
314.3482, 38.49307
314.8303, 37.94337
315.3124, 37.76715
315.7945, 37.11618
316.2766, 35.58919
316.7588, 34.30997
317.2409, 33.93526
317.7230, 34.23331
318.2051, 35.05576
318.6872, 37.30830
319.1693, 38.55888
319.6515, 35.60628
320.1336, 29.53595
320.6157, 25.51263
321.0978, 25.79312
321.5799, 28.22250
322.0620, 29.79427
322.5442, 30.80202
323.0263, 29.82545
323.5084, 24.26103
323.9905, 17.48012
324.4726, 13.96533
324.9547, 14.43336
325.4369, 16.70844
325.9190, 19.18672
326.4011, 21.93614
326.8832, 23.00673
327.3653, 20.89240
327.8474, 18.40123
328.3296, 17.68622
328.8117, 18.09528
329.2938, 17.06638
329.7759, 12.74643
330.2580, 6.424469
330.7401, 4.074875
331.2223, 11.23958
331.7044, 15.44957
332.1865, 13.29460
332.6686, 8.520874
333.1507, 4.608841
333.6328, 2.823151
334.1150, 3.211273
334.5971, 6.085541
335.0792, 12.60698
335.5613, 18.34457
336.0434, 24.85968
336.5255, 29.42509
337.0077, 29.74916
337.4898, 26.55128
337.9719, 22.41599
338.4540, 19.22450
338.9361, 16.91768
339.4182, 14.91512
339.9004, 13.55418
340.3825, 12.07727
340.8646, 8.780975
341.3467, 5.732101
341.8288, 6.032501
342.3109, 11.25470
342.7931, 18.20676
343.2752, 21.97034
343.7573, 22.08813
344.2394, 22.46239
344.7215, 24.80798
345.2036, 27.20297
345.6858, 28.49359
346.1679, 28.56522
346.6500, 26.73967
347.1321, 21.10550
347.6142, 13.35944
348.0963, 8.440125
348.5785, 7.394165
349.0606, 7.441132
349.5427, 5.688950
350.0248, 3.167175
350.5069, 3.237030
350.9890, 10.20184
351.4712, 17.01390
351.9533, 16.67683
352.4354, 10.52745
352.9175, 5.556656
353.3996, 5.050964
353.8817, 7.872772
354.3639, 10.98682
354.8460, 14.18977
355.3281, 17.20993
355.8102, 22.27841
356.2923, 26.44998
356.7744, 24.88953
357.2566, 16.92625
357.7387, 7.868652
358.2208, 3.992294
358.7029, 5.907730
359.1850, 7.376404
359.6671, 9.970871
360.1493, 11.19374
360.6314, 9.130478
361.1135, 4.844681
361.5956, 0.3610690
362.0777, 3.296890
362.5598, 5.736954
363.0420, 5.359756
363.5241, 0.1887360
364.0062, 4.837936
364.4883, 9.272949
364.9704, 11.78362
365.4525, 9.476685
365.9347, 2.345459
366.4168, 4.735687
366.8989, 5.997864
367.3810, 1.114304
367.8631, 4.841553
368.3452, 15.55499
368.8274, 22.41273
369.3095, 18.51163
369.7916, 7.730377
370.2737, 0.4023590
370.7558, 0.5415190
371.2379, 5.051544
371.7201, 2.216980
372.2022, 9.117310
372.6843, 16.51120
373.1664, 12.95387
373.6485, 3.264694
374.1306, 5.733749
374.6128, 14.79356
375.0949, 19.74048
375.5770, 14.95518
376.0591, 5.059830
376.5412, 0.3335420
377.0233, 1.033905
377.5055, 4.530518
377.9876, 5.453018
378.4697, 3.437210
378.9518, 2.696732
379.4339, 3.506927
379.9160, 5.408234
380.3982, 9.614975
380.8803, 14.82474
381.3624, 17.41571
381.8445, 15.23862
382.3266, 9.788345
382.8087, 5.481750
383.2909, 2.570419
383.7730, 0.7060090
384.2551, 0.7015380
384.7372, 0.7219700
385.2193, 2.253448
385.7014, 7.969574
386.1836, 13.89313
386.6657, 17.55846
387.1478, 18.91982
387.6299, 18.44653
388.1120, 14.36618
388.5941, 10.41168
389.0763, 7.619385
389.5584, 5.820404
390.0405, 4.813065
390.5226, 4.643478
391.0047, 4.785156
391.4868, 4.394592
391.9690, 3.435394
392.4511, 2.372116
392.9332, 0.9916380
393.4153, 9.5261000E-02
393.8974, 0.4606930
394.3795, 9.8205999E-02
394.8617, 0.9937900
395.3438, 2.296814
395.8259, 4.498306
396.3080, 10.33212
396.7901, 20.38005
397.2722, 27.42555
397.7544, 25.36000
398.2365, 15.83293
398.7186, 8.954910
399.2007, 5.754272
399.6828, 4.041733
400.1649, 4.223846
400.6471, 5.075882
401.1292, 4.105301
401.6113, 0.4773710
402.0934, 3.684921
402.5755, 5.265549
403.0576, 3.495193
403.5398, 1.253540
404.0219, 2.702118
404.5040, 5.941437
404.9861, 6.785858
405.4682, 5.853912
405.9503, 4.832291
406.4325, 4.843826
406.9146, 5.525955
407.3967, 5.426666
407.8788, 3.657791
408.3609, 2.969315
408.8430, 5.698227
409.3252, 8.465271
409.8073, 8.209229
410.2894, 4.603653
410.7715, 0.3899230
411.2536, 3.278717
411.7357, 5.863647
412.2179, 3.465775
412.7000, 6.508759
413.1821, 15.78110
413.6642, 18.44379
414.1463, 16.30493
414.6284, 11.94250
415.1106, 2.715256
415.5927, 4.828903
416.0748, 4.308762
416.5569, 2.008484
417.0390, 7.076859
417.5211, 8.469299
418.0033, 7.810364
418.4854, 7.083389
418.9675, 5.528900
419.4496, 6.830109
419.9317, 15.31133
420.4138, 23.10127
420.8960, 24.22188
421.3781, 20.00327
421.8602, 15.22661
422.3423, 12.98514
422.8244, 12.78821
423.3065, 12.54828
423.7887, 11.70288
424.2708, 11.55020
424.7529, 12.82069
425.2350, 14.78177
425.7171, 16.85359
426.1992, 18.76678
426.6814, 19.93645
427.1635, 19.29230
427.6456, 17.06374
428.1277, 16.25101
428.6098, 17.84827
429.0919, 19.10149
429.5741, 17.28818
430.0562, 14.15977
430.5383, 13.27071
431.0204, 17.19786
431.5025, 21.80333
431.9846, 22.52011
432.4668, 20.32146
432.9489, 19.06654
433.4310, 19.68149
433.9131, 21.76051
434.3952, 25.71123
434.8773, 32.01012
435.3595, 34.65120
435.8416, 31.23546
436.3237, 25.89021
436.8058, 19.08780
437.2879, 12.42261
437.7701, 9.703827
438.2522, 13.12923
438.7343, 20.07184
439.2164, 23.74863
439.6985, 21.24139
440.1806, 20.94659
440.6628, 27.49677
441.1449, 33.01894
441.6270, 30.78497
442.1091, 22.15352
442.5912, 14.19800
443.0733, 12.88454
443.5555, 16.20937
444.0376, 15.86874
444.5197, 9.673294
445.0018, 5.967804
445.4839, 10.67996
445.9660, 18.08420
446.4482, 22.76318
446.9303, 23.86703
447.4124, 23.63869
447.8945, 22.72887
448.3766, 21.59216
448.8587, 21.54042
449.3409, 22.85956
449.8230, 23.61128
450.3051, 21.99545
450.7872, 18.29524
451.2693, 15.67079
451.7514, 15.37120
452.2336, 14.66870
452.7157, 11.41179
453.1978, 7.655655
453.6799, 6.790924
454.1620, 9.641602
454.6441, 13.62665
455.1263, 15.21176
455.6084, 13.65523
456.0905, 13.92236
456.5726, 19.09868
457.0547, 22.96829
457.5368, 22.44551
458.0190, 19.64722
458.5011, 18.11569
458.9832, 19.43329
459.4653, 22.16064
459.9474, 25.28539
460.4295, 29.03296
460.9117, 29.73535
461.3938, 25.12865
461.8759, 19.46722
462.3580, 16.04027
462.8401, 14.41983
463.3222, 14.04308
463.8044, 15.82401
464.2865, 18.35141
464.7686, 20.78488
465.2507, 22.95786
465.7328, 24.33006
466.2149, 24.82755
466.6971, 24.23055
467.1792, 24.08054
467.6613, 25.27519
468.1434, 24.91930
468.6255, 20.05812
469.1076, 16.01460
469.5898, 17.60826
470.0719, 23.44032
470.5540, 28.39995
471.0361, 28.99727
471.5182, 26.71240
472.0003, 25.45602
472.4825, 25.84602
472.9646, 16.89159
473.4467, 26.12573
473.9288, 31.08272
474.4109, 32.27734
474.8930, 17.36487
475.3752, 23.25938
475.8573, 20.81534
476.3394, 18.02928
476.8215, 26.85204
477.3036, 14.28293
477.7857, 22.92212
478.2679, 23.09625
478.7500, 28.68436
479.2321, 33.11047
479.7142, 34.69997
480.1963, 34.47643
480.6784, 31.70540
481.1606, 27.82268
481.6427, 23.21048
482.1248, 18.50252
482.6069, 15.68159
483.0890, 16.42769
483.5711, 20.04601
484.0533, 22.78705
484.5354, 25.08574
485.0175, 25.64954
485.4996, 22.75793
485.9817, 19.37238
486.4638, 18.07880
486.9460, 19.00691
487.4281, 20.20013
487.9102, 20.32118
488.3923, 19.52202
488.8744, 17.81245
489.3565, 14.81595
489.8387, 13.24617
490.3208, 15.67296
490.8029, 19.78456
491.2850, 20.48401
491.7671, 16.19054
492.2492, 13.06779
492.7314, 15.31473
493.2135, 18.65863
493.6956, 17.04845
494.1777, 10.67010
494.6598, 5.863281
495.1419, 8.126633
495.6241, 15.61040
496.1062, 16.35822
496.5883, 0.4767000
497.0704, 8.149200
497.5525, 0.8779910
498.0346, 9.856491
498.5168, 12.98532
498.9989, 7.898956
499.4810, 2.503433
499.9631, 3.605316
500.4452, 9.615921
500.9273, 14.86682
501.4095, 19.62015
501.8916, 22.54178
502.3737, 22.69470
502.8558, 20.77036
503.3379, 17.64619
503.8200, 12.77643
504.3022, 9.144455
504.7843, 8.215073
505.2664, 8.921967
505.7485, 10.24535
506.2306, 12.03857
506.7127, 14.67740
507.1949, 18.85065
507.6770, 23.49004
508.1591, 23.74263
508.6412, 14.68877
509.1233, 8.282791
509.6054, 5.788605
510.0876, 5.563232
510.5697, 7.676102
511.0518, 11.15680
511.5339, 13.17122
512.0161, 10.90773
512.4982, 6.222519
512.9803, 4.436859
513.4624, 6.062714
513.9445, 7.627075
514.4266, 8.448639
514.9088, 8.128265
515.3909, 5.591888
515.8730, 0.5236660
516.3551, 2.745117
516.8372, 1.838730
517.3193, 0.6155240
517.8015, 2.918320
518.2836, 4.651520
518.7657, 4.460205
519.2478, 1.257202
519.7299, 2.631439
520.2120, 1.327682
520.6942, 9.597626
521.1763, 17.30092
521.6584, 23.50948
522.1405, 25.34547
522.6226, 16.22171
523.1047, 1.851212
523.5869, 4.453308
524.0690, 6.071442
524.5511, 23.39638
525.0332, 30.32306
525.5153, 26.91182
525.9974, 22.84715
526.4796, 20.45905
526.9617, 18.10275
527.4438, 13.39243
527.9259, 6.694748
528.4080, 1.290543
528.8901, 3.043396
529.3723, 5.301010
529.8544, 4.397873
530.3365, 1.090790
530.8186, 3.742691
531.3007, 9.739685
531.7828, 15.46498
532.2650, 18.92448
532.7471, 19.90315
533.2292, 20.08008
533.7113, 19.00903
534.1934, 17.58087
534.6755, 15.27307
535.1577, 13.07703
535.6398, 12.66360
536.1219, 14.70229
536.6040, 16.69472
537.0861, 15.23943
537.5682, 11.81700
538.0504, 12.12357
538.5325, 17.42604
539.0146, 21.61919
539.4967, 19.49095
539.9788, 12.89571
540.4609, 10.06367
540.9431, 15.27013
541.4252, 18.32292
541.9073, 14.99013
542.3894, 9.996292
542.8715, 8.043884
543.3536, 9.346588
543.8358, 11.01413
544.3179, 10.66582
544.8000, 8.898560
545.2821, 8.343216
545.7642, 9.284088
546.2463, 10.71326
546.7285, 13.94662
547.2106, 16.39680
547.6926, 15.17259
548.1747, 10.61314
548.6569, 7.222595
549.1390, 7.371078
549.6211, 9.407639
550.1032, 12.87099
550.5853, 16.94682
551.0674, 17.77031
551.5496, 13.39969
552.0317, 7.278366
552.5138, 5.508331
552.9959, 9.902878
553.4780, 13.07478
553.9601, 15.32004
554.4423, 16.16846
554.9244, 14.18172
555.4065, 11.45091
555.8886, 9.434128
556.3707, 8.619614
556.8528, 8.333878
557.3350, 6.947144
557.8171, 4.966644
558.2992, 7.098419
558.7813, 15.36069
559.2634, 22.69476
559.7455, 24.21532
560.2277, 21.15266
560.7098, 17.95160
561.1919, 13.61476
561.6740, 10.93449
562.1561, 11.90250
562.6382, 14.27911
563.1204, 16.38901
563.6025, 17.63060
564.0846, 16.84126
564.5667, 12.71394
565.0488, 6.693909
565.5309, 4.951645
566.0131, 10.09213
566.4952, 12.91644
566.9773, 8.947495
567.4594, 4.536514
567.9415, 4.218063
568.4236, 7.173935
568.9058, 9.344971
569.3879, 8.073364
569.8700, 6.389709
570.3521, 7.475098
570.8342, 10.74164
571.3163, 14.90518
571.7985, 19.79649
572.2806, 22.98868
572.7627, 20.85934
573.2448, 12.37718
573.7269, 8.226639
574.2090, 12.04103
574.6912, 15.60347
575.1733, 17.03044
575.6554, 17.05232
576.1375, 16.58820
576.6196, 15.84737
577.1017, 14.54721
577.5839, 11.44345
578.0660, 7.769287
578.5481, 7.996811
579.0302, 12.69595
579.5123, 14.19208
579.9944, 6.523148
580.4766, 4.220718
580.9587, 4.991158
581.4408, 6.772949
581.9229, 15.02272
582.4050, 15.28844
582.8871, 12.50696
583.3693, 7.838562
583.8514, 3.003326
584.3335, 1.213760
584.8156, 3.989532
585.2977, 8.586670
585.7798, 10.53227
586.2620, 9.457672
586.7441, 8.826508
587.2262, 8.398834
587.7083, 8.871033
588.1904, 12.51256
588.6725, 16.81749
589.1547, 16.84367
589.6368, 9.776733
590.1189, 4.068848
590.6010, 4.021439
591.0831, 7.489609
591.5652, 13.87291
592.0474, 21.77942
592.5295, 25.39362
593.0116, 20.22998
593.4937, 9.811142
593.9758, 5.212906
594.4579, 9.056671
594.9401, 12.48544
595.4222, 17.00710
595.9043, 18.85483
596.3864, 12.87250
596.8685, 2.719711
597.3506, 2.051636
597.8328, 4.289078
598.3149, 12.81232
598.7970, 15.62372
599.2791, 14.12862
599.7612, 12.30780
600.2433, 10.89862
600.7255, 11.05530
601.2076, 14.49989
601.6897, 20.34512
602.1718, 21.27533
602.6539, 8.866699
603.1360, 3.156937
603.6182, 12.07896
604.1003, 23.05014
604.5824, 27.03152
605.0645, 24.04552
605.5466, 18.61826
606.0287, 12.22942
606.5109, 6.301620
606.9930, 3.516769
607.4751, 3.473083
607.9572, 2.586319
608.4393, 0.4629670
608.9214, 2.805801
609.4036, 1.118134
609.8857, 4.635193
610.3678, 8.474350
610.8499, 9.340347
611.3320, 9.797379
611.8141, 10.08078
612.2963, 10.45813
612.7784, 11.64053
613.2605, 13.36211
613.7426, 13.93965
614.2247, 11.10329
614.7068, 7.056763
615.1890, 8.011032
615.6711, 14.22087
616.1532, 19.65297
616.6353, 23.03636
617.1174, 24.09938
617.5995, 21.64816
618.0817, 15.58754
618.5638, 11.24013
619.0459, 9.113251
619.5280, 8.378586
620.0101, 9.697342
620.4922, 11.75003
620.9744, 13.01314
621.4565, 13.16948
621.9386, 12.77318
622.4207, 12.37799
622.9028, 11.79332
623.3849, 10.19347
623.8671, 7.556854
624.3492, 4.668777
624.8313, 1.041595
625.3134, 1.802322
625.7955, 1.499420
626.2776, 1.780060
626.7598, 4.835693
627.2419, 7.911819
627.7240, 9.904465
628.2061, 9.592453
628.6882, 8.112045
629.1703, 6.766205
629.6525, 6.023407
630.1346, 6.338058
630.6167, 8.803268
631.0988, 12.60670
631.5809, 12.57074
632.0630, 7.327774
632.5452, 3.684723
633.0273, 4.285492
633.5094, 6.844376
633.9915, 9.294159
634.4736, 11.63454
634.9557, 12.61966
635.4379, 11.12186
635.9200, 9.115372
636.4021, 6.535034
636.8842, 4.754669
637.3663, 6.625641
637.8484, 12.32440
638.3306, 16.79056
638.8127, 14.77750
639.2948, 8.374512
639.7769, 8.050613
640.2590, 16.46529
640.7411, 21.25127
641.2233, 16.04164
641.7054, 8.437225
642.1875, 7.495010
642.6696, 12.55881
643.1517, 14.13924
643.6339, 5.026840
644.1160, 2.427475
644.5981, 1.403229
645.0802, 10.12456
645.5623, 12.97333
646.0444, 8.224243
646.5266, 3.279831
647.0087, 5.694046
647.4908, 13.26384
647.9729, 14.28252
648.4550, 5.937988
648.9371, 2.939697
649.4193, 14.24846
649.9014, 26.46025
650.3835, 24.37793
650.8656, 10.37663
651.3477, 1.258820
651.8298, 3.849442
652.3120, 7.301392
652.7941, 5.575592
653.2762, 2.117981
653.7583, 2.558289
654.2404, 7.069061
654.7225, 10.19737
655.2047, 6.793060
655.6868, 0.3034060
656.1689, 2.598175
656.6510, 0.8447880
657.1331, 3.594910
657.6152, 4.408203
658.0974, 4.407791
658.5795, 4.006317
659.0616, 3.486450
659.5437, 4.256897
660.0258, 7.651657
660.5079, 10.85205
660.9901, 13.84346
661.4722, 15.57362
661.9543, 13.81551
662.4364, 9.345001
662.9185, 5.960129
663.4006, 6.445007
663.8828, 8.802811
664.3649, 8.351074
664.8470, 4.952164
665.3291, 3.119110
665.8112, 4.191299
666.2933, 5.218750
666.7755, 3.276474
667.2576, 0.3130800
667.7397, 0.8337860
668.2218, 4.771713
668.7039, 8.153519
669.1860, 5.654327
669.6682, 2.031860
670.1503, 0.4217990
670.6324, 1.040421
671.1145, 3.652283
671.5966, 8.428162
672.0787, 13.05669
672.5609, 13.54862
673.0430, 10.61751
673.5251, 9.767670
674.0072, 11.95615
674.4893, 13.56680
674.9714, 12.32799
675.4536, 9.123688
675.9357, 6.938400
676.4178, 5.554535
676.8999, 5.714523
677.3820, 8.268509
677.8641, 11.53102
678.3463, 16.42699
678.8284, 20.81357
679.3105, 20.88670
679.7926, 15.44435
680.2747, 8.534897
680.7568, 2.518692
681.2390, 1.777710
681.7211, 0.9090880
682.2032, 4.863068
682.6853, 8.227676
683.1674, 5.321182
683.6495, 0.6700900
684.1317, 1.645935
684.6138, 9.915329
685.0959, 14.31061
685.5780, 11.57944
686.0601, 8.873489
686.5422, 6.468521
687.0244, 5.792740
687.5065, 10.05127
687.9886, 18.80388
688.4707, 24.49887
688.9528, 21.25186
689.4349, 14.09219
689.9171, 6.361938
690.3992, 0.5001830
690.8813, 0.9415590
691.3634, 6.349442
691.8455, 13.93390
692.3276, 14.10486
692.8098, 7.775589
693.2919, 2.766907
693.7740, 1.291168
694.2561, 3.183823
694.7382, 1.380783
695.2203, 1.590454
695.7025, 4.190521
696.1846, 6.341919
696.6667, 8.454849
697.1488, 10.72610
697.6309, 12.79343
698.1130, 15.27142
698.5952, 16.96556
699.0773, 16.02702
699.5594, 12.65157
700.0415, 8.231171
700.5236, 3.368271
701.0057, 0.7452550
701.4879, 1.042099
701.9700, 2.550522
702.4521, 5.004471
702.9342, 5.267303
703.4163, 5.349014
703.8984, 6.414581
704.3806, 8.101425
704.8627, 10.15561
705.3448, 13.33473
705.8269, 14.78185
706.3090, 13.29863
706.7911, 10.86882
707.2733, 7.591049
707.7554, 4.559952
708.2375, 3.802109
708.7196, 5.807877
709.2017, 8.102051
709.6838, 7.880188
710.1660, 6.298111
710.6481, 6.763794
711.1302, 9.143997
711.6123, 10.49820
712.0944, 9.769241
712.5765, 7.579681
713.0587, 4.227661
713.5408, 0.5096440
714.0229, 2.347229
714.5050, 0.7335510
714.9871, 4.602036
715.4692, 10.11850
715.9514, 14.99919
716.4335, 17.48978
716.9156, 17.60995
717.3977, 16.11075
717.8798, 11.94620
718.3619, 8.201736
718.8441, 8.130371
719.3262, 9.835007
719.8083, 9.570343
720.2904, 7.257416
720.7725, 6.323486
721.2546, 9.345490
721.7368, 14.07782
722.2189, 14.38205
722.7010, 9.171753
723.1831, 7.437225
723.6652, 11.88118
724.1473, 15.82208
724.6295, 15.06410
725.1116, 11.42781
725.5937, 8.616837
726.0758, 6.669113
726.5579, 5.768570
727.0400, 6.116440
727.5222, 7.351471
728.0043, 9.879913
728.4864, 12.91016
728.9685, 15.45673
729.4506, 17.16539
729.9327, 17.80653
730.4149, 17.47997
730.8970, 15.80165
731.3791, 10.18526
731.8612, 1.457626
732.3433, 2.355133
732.8254, 1.668350
733.3076, 7.923370
733.7897, 10.92349
734.2718, 10.82701
734.7539, 9.765488
735.2360, 6.624680
735.7181, 4.380890
736.2003, 4.072021
736.6824, 4.060074
737.1645, 2.214355
737.6466, 0.1091610
738.1287, 1.191452
738.6108, 9.134750
739.0930, 16.41321
739.5751, 19.35670
740.0572, 19.14639
740.5393, 15.26689
741.0214, 9.158569
741.5035, 4.563812
741.9857, 3.278870
742.4678, 4.145142
742.9499, 6.656311
743.4320, 10.46318
743.9141, 9.909683
744.3962, 3.856445
744.8784, 0.6382600
745.3605, 0.7150880
745.8426, 1.844238
746.3247, 5.123825
746.8068, 9.449936
747.2889, 12.00336
747.7711, 11.96576
748.2532, 11.54640
748.7353, 11.82687
749.2174, 11.59529
749.6995, 8.558090
750.1816, 3.652023
750.6638, 1.180710
751.1459, 4.711105
751.6280, 8.401474
752.1101, 5.019638
752.5922, 1.176300
753.0743, 1.712433
753.5565, 3.505219
754.0386, 7.922897
754.5207, 7.561264
755.0028, 5.150192
755.4849, 6.285049
755.9670, 11.46327
756.4492, 15.84470
756.9313, 20.09450
757.4134, 21.43948
757.8955, 16.46637
758.3776, 9.591843
758.8597, 8.682556
759.3419, 14.68695
759.8240, 16.22629
760.3061, 7.612366
760.7882, 3.7839999E-03
761.2703, 1.992294
761.7524, 1.174377
762.2346, 0.7212980
762.7167, 0.7991490
763.1988, 0.6044620
763.6809, 5.597183
764.1630, 10.82347
764.6451, 11.97546
765.1273, 10.42735
765.6094, 9.523941
766.0915, 9.708893
766.5736, 9.958374
767.0557, 9.608002
767.5378, 9.094025
768.0200, 9.599518
768.5021, 11.50374
768.9842, 12.06627
769.4663, 10.87579
769.9484, 9.131165
770.4305, 6.206955
770.9127, 3.546646
771.3948, 4.590118
771.8769, 9.753860
772.3590, 12.08054
772.8411, 7.999405
773.3232, 3.962463
773.8054, 2.408890
774.2875, 2.177719
774.7696, 1.959702
775.2517, 1.686218
775.7338, 2.029236
776.2159, 3.288605
776.6981, 5.464661
777.1802, 10.17078
777.6623, 15.40498
778.1444, 15.72595
778.6265, 11.06757
779.1086, 6.114258
779.5908, 3.420822
780.0729, 2.489273
780.5550, 2.535080
781.0371, 3.603226
781.5192, 5.273575
782.0013, 7.716583
782.4835, 10.50255
782.9656, 14.99165
783.4477, 18.68156
783.9298, 16.28246
784.4119, 7.014526
784.8940, 1.211075
785.3762, 1.958298
785.8583, 3.095520
786.3404, 2.711014
786.8225, 2.249908
787.3046, 3.709976
787.7867, 6.308136
788.2689, 6.787369
788.7510, 2.732178
789.2331, 0.3028410
789.7152, 4.566818
790.1973, 12.23759
790.6794, 14.60994
791.1616, 12.04247
791.6437, 9.527023
792.1258, 9.203445
792.6079, 10.08025
793.0900, 10.91801
793.5721, 11.73776
794.0543, 13.39438
794.5364, 16.55629
795.0185, 15.70807
795.5006, 7.300064
795.9827, 1.416519
796.4648, 3.072693
796.9470, 1.649216
797.4291, 5.446335
797.9112, 8.157867
798.3933, 10.11903
798.8754, 10.36128
799.3575, 10.82870
799.8397, 13.37077
800.3218, 16.72751
800.8039, 18.49600
801.2860, 18.03935
801.7681, 16.59216
802.2502, 14.82460
802.7324, 12.24960
803.2145, 6.685852
803.6966, 0.6254730
804.1787, 1.031235
804.6608, 2.636459
805.1429, 8.399887
805.6251, 14.68068
806.1072, 19.70692
806.5893, 18.11073
807.0714, 10.99907
807.5535, 7.177750
808.0356, 8.299484
808.5178, 9.830475
808.9999, 8.464020
809.4820, 6.111557
809.9641, 8.386230
810.4462, 18.32539
810.9283, 21.11072
811.4105, 11.61513
811.8926, 3.571686
812.3747, 4.005783
812.8568, 7.452652
813.3389, 6.755859
813.8210, 1.902420
814.3032, 1.173187
814.7853, 11.02657
815.2674, 18.49548
815.7495, 17.07976
816.2316, 12.99309
816.7137, 11.87543
817.1959, 13.35945
817.6780, 14.25613
818.1601, 13.18459
818.6422, 11.44525
819.1243, 9.113785
819.6064, 7.399780
820.0886, 8.598846
820.5707, 12.40875
821.0528, 15.61072
821.5349, 16.85052
822.0170, 16.60797
822.4991, 14.34044
822.9813, 11.01501
823.4634, 11.21542
823.9455, 15.14087
824.4276, 18.84868
824.9097, 21.97614
825.3918, 22.87019
825.8740, 19.86163
826.3561, 13.96829
826.8382, 8.250854
827.3203, 0.1690980
827.8024, 1.614868
828.2845, 12.36275
828.7667, 22.93117
829.2488, 19.96158
829.7309, 12.02374
830.2130, 10.02739
830.6951, 14.57083
831.1772, 16.19666
831.6594, 9.013458
832.1415, 3.151215
832.6236, 3.593948
833.1057, 6.732635
833.5878, 9.217484
834.0699, 10.75630
834.5521, 12.16278
835.0342, 13.75931
835.5163, 15.54269
835.9984, 18.31386
836.4805, 20.84558
836.9626, 21.08453
837.4448, 19.20299
837.9269, 15.75639
838.4090, 11.07983
838.8911, 7.085052
839.3732, 6.333603
839.8553, 7.424133
840.3375, 3.676605
840.8196, 5.107391
841.3017, 7.655579
841.7838, 1.021698
842.2659, 7.577011
842.7480, 14.03650
843.2302, 18.11258
843.7123, 18.88786
844.1944, 14.84761
844.6765, 12.66113
845.1586, 14.35019
845.6407, 14.88039
846.1229, 10.87904
846.6050, 6.108475
847.0871, 3.375092
847.5692, 2.978500
848.0513, 6.283585
848.5334, 20.50923
849.0156, 29.02867
849.4977, 22.46661
849.9798, 12.64894
850.4619, 7.866898
850.9440, 7.553726
851.4261, 9.195404
851.9083, 12.19221
852.3904, 14.45212
852.8725, 13.90614
853.3546, 12.54610
853.8367, 12.72630
854.3188, 13.52322
854.8010, 12.63632
855.2831, 9.775436
855.7652, 8.105713
856.2473, 10.29515
856.7294, 13.97696
857.2115, 14.46187
857.6937, 12.69672
858.1758, 13.77896
858.6579, 18.00388
859.1400, 19.34535
859.6221, 14.56653
860.1042, 8.893784
860.5864, 10.69745
861.0685, 19.48608
861.5506, 20.65192
862.0327, 11.06282
862.5148, 6.216583
862.9969, 11.01015
863.4791, 18.13879
863.9612, 23.16750
864.4433, 25.66182
864.9254, 23.68883
865.4075, 13.11731
865.8896, 6.708481
866.3718, 6.022644
866.8539, 7.411682
867.3360, 11.72252
867.8181, 16.10823
868.3002, 16.54089
868.7823, 13.19836
869.2645, 11.83101
869.7466, 16.63425
870.2287, 20.11984
870.7108, 17.26721
871.1929, 13.67416
871.6750, 15.90373
872.1572, 21.26398
872.6393, 21.88731
873.1214, 14.91663
873.6035, 8.860764
874.0856, 10.45520
874.5677, 15.66939
875.0499, 22.72723
875.5320, 28.92334
876.0141, 29.45703
876.4962, 23.85245
876.9783, 14.83792
877.4604, 3.208267
877.9426, 6.521805
878.4247, 5.384674
878.9068, 3.920853
879.3889, 12.87697
879.8710, 20.58080
880.3531, 22.48598
880.8353, 15.98500
881.3174, 7.288300
881.7995, 3.816940
882.2816, 4.781235
882.7637, 5.070984
883.2458, 4.414993
883.7280, 5.257172
884.2101, 8.344574
884.6922, 11.90608
885.1743, 15.13210
885.6564, 17.49852
886.1385, 18.03392
886.6207, 16.09238
887.1028, 14.41745
887.5849, 14.09016
888.0670, 12.23709
888.5491, 5.567184
889.0313, 0.6769410
889.5134, 2.095108
889.9955, 0.7529910
890.4776, 5.478104
890.9597, 14.92487
891.4418, 20.76222
891.9240, 19.45557
892.4061, 16.91652
892.8882, 15.56915
893.3703, 15.27777
893.8524, 16.58900
894.3345, 19.16924
894.8167, 18.89735
895.2988, 10.39319
895.7809, 3.171616
896.2630, 2.290421
896.7451, 5.225204
897.2272, 12.05086
897.7094, 19.93884
898.1915, 22.27272
898.6736, 16.25629
899.1557, 9.681747
899.6378, 10.19321
900.1199, 12.97026
900.6021, 11.37160
901.0842, 7.798157
901.5663, 8.265121
902.0484, 13.05888
902.5305, 17.35614
903.0126, 18.19353
903.4948, 16.77150
903.9769, 14.23938
904.4590, 10.95609
904.9411, 8.004837
905.4232, 5.440872
905.9053, 2.596039
906.3875, 0.7172700
906.8696, 0.8905790
907.3517, 6.572739
907.8338, 18.14058
908.3159, 21.42635
908.7980, 16.35423
909.2802, 14.05354
909.7623, 16.10486
910.2444, 17.39607
910.7265, 14.91022
911.2086, 11.68042
911.6907, 12.69170
912.1729, 17.83113
912.6550, 17.78412
913.1371, 9.952240
913.6192, 5.378281
914.1013, 7.316345
914.5834, 10.28558
915.0656, 10.92935
915.5477, 9.937775
916.0298, 8.425507
916.5119, 4.981277
916.9940, 6.467697
917.4761, 19.01601
917.9583, 27.79745
918.4404, 28.54655
918.9225, 25.04361
919.4046, 17.13582
919.8867, 7.228516
920.3688, 4.318192
920.8510, 13.48019
921.3331, 19.78316
921.8152, 19.67287
922.2973, 17.91684
922.7794, 15.46725
923.2615, 13.38045
923.7437, 12.71231
924.2258, 13.50403
924.7079, 15.32712
925.1900, 19.99835
925.6721, 22.47169
926.1542, 19.26389
926.6364, 14.38655
927.1185, 10.12874
927.6006, 6.912964
928.0827, 4.469543
928.5648, 2.932983
929.0469, 3.988922
929.5291, 11.37675
930.0112, 18.45120
930.4933, 21.54518
930.9754, 20.61899
931.4575, 12.23695
931.9396, 0.6092830
932.4218, 2.292038
932.9039, 7.655563
933.3860, 18.03304
933.8681, 16.09889
934.3502, 10.23212
934.8323, 12.84868
935.3145, 19.28957
935.7966, 18.89003
936.2787, 11.81499
936.7608, 3.871887
937.2429, 2.631393
937.7250, 5.990372
938.2072, 2.453217
938.6893, 5.097946
939.1714, 11.25484
939.6535, 15.42697
940.1356, 14.84795
940.6177, 9.450439
941.0999, 4.609390
941.5820, 4.200287
942.0641, 6.034225
942.5462, 6.122406
943.0283, 4.917358
943.5104, 5.189178
943.9926, 6.851913
944.4747, 6.553238
944.9568, 3.170410
945.4389, 1.653748
945.9210, 7.288055
946.4031, 16.11317
946.8853, 15.58379
947.3674, 5.788879
947.8495, 0.7999420
948.3316, 1.656815
948.8137, 3.667160
949.2958, 5.030396
949.7780, 7.082153
950.2601, 11.77339
950.7422, 18.11194
951.2243, 20.48018
951.7064, 18.24121
952.1885, 16.08588
952.6707, 14.40692
953.1528, 12.92387
953.6349, 11.29704
954.1170, 10.33513
954.5991, 11.69731
955.0812, 15.05397
955.5634, 14.73296
956.0455, 8.761108
956.5276, 5.605072
957.0097, 6.971634
957.4918, 9.888885
957.9739, 14.20705
958.4561, 17.46880
958.9382, 14.73346
959.4203, 5.223083
959.9024, 0.8730770
960.3845, 4.228500
960.8666, 7.749649
961.3488, 11.30551
961.8309, 13.39189
962.3130, 11.36909
962.7951, 8.149323
963.2772, 10.64407
963.7593, 21.38017
964.2415, 24.14903
964.7236, 10.70695
965.2057, 1.535019
965.6878, 3.758331
966.1699, 7.459961
966.6520, 5.528534
967.1342, 0.5894470
967.6163, 1.603821
968.0984, 0.9959110
968.5805, 2.686798
969.0626, 16.35162
969.5447, 23.87039
970.0269, 14.96530
970.5090, 4.133957
970.9911, 3.259537
971.4732, 9.142868
971.9553, 12.57997
972.4374, 12.12886
972.9196, 10.99208
973.4017, 8.541031
973.8838, 6.823120
974.3659, 7.247665
974.8480, 8.140182
975.3301, 7.942291
975.8123, 6.937347
976.2944, 6.038651
976.7765, 4.840088
977.2586, 5.595154
977.7407, 12.60106
978.2228, 17.04172
978.7050, 11.77260
979.1871, 4.629120
979.6692, 4.091995
980.1513, 8.776413
980.6334, 11.63260
981.1155, 10.69481
981.5977, 9.317307
982.0798, 8.248795
982.5619, 7.269836
983.0440, 6.549637
983.5261, 5.642899
984.0082, 3.161087
984.4904, 1.9866999E-02
984.9725, 0.2875980
985.4546, 4.583206
985.9367, 8.697388
986.4188, 10.59892
986.9009, 10.02248
987.3831, 3.430374
987.8652, 3.248016
988.3473, 1.605774
988.8294, 6.843445
989.3115, 12.50328
989.7936, 11.41780
990.2758, 10.34639
990.7579, 15.33406
991.2400, 18.23299
991.7221, 9.598267
992.2042, 1.238708
992.6863, 1.265472
993.1685, 8.219574
993.6506, 14.86568
994.1327, 13.41356
994.6148, 12.16620
995.0969, 15.97160
995.5790, 19.59709
996.0612, 19.12302
996.5433, 17.25853
997.0254, 18.32227
997.5075, 21.70473
997.9896, 22.39391
998.4717, 17.88809
998.9539, 12.93460
999.4360, 8.354904
999.9181, 5.527618
1000.400, 6.593048
1000.882, 9.254807
1001.364, 10.85416
1001.847, 11.16243
1002.329, 11.04788
1002.811, 10.79596
1003.293, 10.19334
1003.775, 8.800034
1004.257, 7.386948
1004.739, 6.441757
1005.221, 5.863953
1005.703, 5.740112
1006.186, 5.849594
1006.668, 5.398010
1007.150, 3.884369
1007.632, 2.601563
1008.114, 1.172638
1008.596, 1.233521
1009.078, 4.770508
1009.560, 9.792480
1010.043, 15.84117
1010.525, 21.13437
1011.007, 19.81125
1011.489, 7.570923
1011.971, 2.019180
1012.453, 1.886612
1012.935, 1.175400
1013.417, 4.672379
1013.899, 0.8397980
1014.382, 9.100983
1014.864, 14.76262
1015.346, 16.61385
1015.828, 2.596207
1016.310, 8.922318
1016.792, 6.906250
1017.274, 4.548386
1017.756, 13.79962
1018.239, 1.659439
1018.721, 10.72679
1019.203, 11.32843
1019.685, 15.80478
1020.167, 11.89114
1020.649, 10.56909
1021.131, 17.63986
1021.613, 20.06363
1022.095, 15.18527
1022.578, 19.91002
1023.060, 7.478485
1023.542, 10.10164
1024.024, 19.22028
1024.506, 14.76462
1024.988, 19.64285
1025.470, 6.082245
1025.952, 1.168213
1026.435, 4.528534
1026.917, 9.589859
1027.399, 11.94069
1027.881, 11.62183
1028.363, 8.355835
1028.845, 1.218643
1029.327, 0.9493560
1029.809, 9.911194
1030.292, 16.96425
1030.774, 12.69308
1031.256, 6.219208
1031.738, 1.526794
1032.220, 0.1121980
1032.702, 4.417786
1033.184, 16.00237
1033.666, 23.77966
1034.148, 26.18433
1034.630, 25.37297
1035.113, 17.94260
1035.595, 11.44304
1036.077, 10.92426
1036.559, 13.43710
1037.041, 15.32233
1037.523, 16.26492
1038.005, 14.98439
1038.487, 7.986313
1038.970, 4.572128
1039.452, 7.652405
1039.934, 11.32410
1040.416, 13.61794
1040.898, 14.69455
1041.380, 14.93166
1041.862, 14.22578
1042.344, 11.10597
1042.826, 2.697815
1043.309, 1.729568
1043.791, 1.201706
1044.273, 2.258499
1044.755, 9.563492
1045.237, 17.30119
1045.719, 22.28957
1046.201, 24.79092
1046.683, 24.57378
1047.166, 20.73297
1047.648, 16.76971
1048.130, 11.35719
1048.612, 8.939148
1049.094, 11.90375
1049.576, 15.31517
1050.058, 14.62810
1050.540, 11.75291
1051.022, 12.04169
1051.505, 15.47365
1051.987, 19.05394
1052.469, 23.18556
1052.951, 24.24356
1053.433, 20.72784
1053.915, 17.93591
1054.397, 19.94191
1054.879, 22.99442
1055.361, 19.15273
1055.844, 9.418274
1056.326, 6.526428
1056.808, 10.42459
1057.290, 12.10745
1057.772, 10.01001
1058.254, 8.862579
1058.736, 11.31125
1059.218, 13.85471
1059.701, 11.40128
1060.183, 5.712250
1060.665, 1.809311
1061.147, 1.6630000E-03
1061.629, 3.587631
1062.111, 11.96393
1062.593, 17.58308
1063.075, 17.56731
1063.557, 15.24486
1064.040, 13.52286
1064.522, 12.07434
1065.004, 9.793274
1065.486, 7.511612
1065.968, 7.925003
1066.450, 10.28410
1066.932, 10.53836
1067.414, 8.276352
1067.896, 9.299866
1068.379, 18.82631
1068.861, 28.40363
1069.343, 28.81502
1069.825, 23.04434
1070.307, 11.43512
1070.789, 1.207016
1071.271, 4.796890
1071.753, 2.7802000E-02
1072.236, 2.324722
1072.718, 3.297592
1073.200, 7.186508
1073.682, 0.6201930
1074.164, 9.970612
1074.646, 12.14679
1075.128, 11.07805
1075.610, 11.63065
1076.093, 13.56561
1076.575, 14.60065
1077.057, 14.12976
1077.539, 12.98111
1078.021, 10.53783
1078.503, 8.785904
1078.985, 7.552444
1079.467, 8.480209
1079.949, 15.73236
1080.432, 24.39392
1080.914, 25.05603
1081.396, 17.23497
1081.878, 12.90283
1082.360, 18.47585
1082.842, 21.08669
1083.324, 15.70340
1083.806, 10.68982
1084.288, 11.22098
1084.771, 12.94122
1085.253, 9.889099
1085.735, 3.628448
1086.217, 2.127914
1086.699, 7.780167
1087.181, 11.95694
1087.663, 15.73309
1088.145, 15.51245
1088.628, 7.078323
1089.110, 0.8668980
1089.592, 6.288834
1090.074, 16.94026
1090.556, 18.21686
1091.038, 9.598587
1091.520, 6.862579
1092.002, 11.06010
1092.484, 15.15858
1092.967, 18.58769
1093.449, 17.08798
1093.931, 7.416718
1094.413, 2.106796
1094.895, 0.2301330
1095.377, 9.645081
1095.859, 16.10004
1096.341, 19.06300
1096.823, 16.12285
1097.306, 8.217957
1097.788, 3.285614
1098.270, 3.919235
1098.752, 6.938354
1099.234, 10.19611
1099.716, 12.60886
1100.198, 11.27180
1100.680, 8.503860
1101.163, 9.458252
1101.645, 13.02591
1102.127, 16.16017
1102.609, 17.96039
1103.091, 18.35695
1103.573, 17.33278
1104.055, 14.38008
1104.537, 4.891449
1105.020, 2.228714
1105.502, 5.061981
1105.984, 16.57805
1106.466, 20.84752
1106.948, 18.51797
1107.430, 11.73335
1107.912, 1.777878
1108.394, 1.631042
1108.876, 11.32840
1109.359, 21.87312
1109.841, 23.04166
1110.323, 20.22992
1110.805, 13.10362
1111.287, 6.171066
1111.769, 6.015625
1112.251, 11.25642
1112.733, 12.92043
1113.215, 6.882553
1113.698, 5.711777
1114.180, 14.49722
1114.662, 20.62029
1115.144, 20.77908
1115.626, 18.10011
1116.108, 13.30797
1116.590, 8.431274
1117.072, 7.410538
1117.555, 10.26628
1118.037, 13.65158
1118.519, 18.05960
1119.001, 20.11662
1119.483, 19.30647
1119.965, 16.60617
1120.447, 12.01607
1120.929, 8.608414
1121.411, 9.833710
1121.894, 13.89632
1122.376, 16.45879
1122.858, 17.64941
1123.340, 18.47289
1123.822, 18.69337
1124.304, 15.74606
1124.786, 9.802078
1125.268, 6.773529
1125.750, 10.20757
1126.233, 14.62233
1126.715, 12.59090
1127.197, 8.948563
1127.679, 11.97359
1128.161, 17.07077
1128.643, 15.82736
1129.125, 9.880127
1129.607, 6.625763
1130.090, 7.403870
1130.572, 8.063614
1131.054, 5.298035
1131.536, 5.004578
1132.018, 12.85806
1132.500, 19.83881
1132.982, 18.99570
1133.464, 14.33984
1133.947, 8.655548
1134.429, 3.815613
1134.911, 6.229446
1135.393, 21.61363
1135.875, 27.19286
1136.357, 10.40297
1136.839, 0.2840580
1137.321, 2.273834
1137.803, 8.785248
1138.286, 16.09589
1138.768, 21.78047
1139.250, 21.57123
1139.732, 16.31226
1140.214, 14.12538
1140.696, 15.39082
1141.178, 17.21175
1141.660, 19.63843
1142.142, 19.47237
1142.625, 15.52858
1143.107, 11.72351
1143.589, 11.17972
1144.071, 12.13425
1144.553, 10.84065
1145.035, 8.762421
1145.517, 12.17279
1145.999, 18.39491
1146.482, 17.87215
1146.964, 11.05952
1147.446, 6.087234
1147.928, 5.939331
1148.410, 7.218887
1148.892, 7.482483
1149.374, 8.043701
1149.856, 12.08038
1150.339, 15.28284
1150.821, 10.10921
1151.303, 2.247910
1151.785, 2.301727
1152.267, 9.336349
1152.749, 15.07263
1153.231, 18.02863
1153.713, 16.81610
1154.195, 5.826462
1154.677, 1.996078
1155.160, 0.3334350
1155.642, 2.982391
1156.124, 3.192490
1156.606, 1.996368
1157.088, 1.329025
1157.570, 1.386261
1158.052, 5.200867
1158.534, 14.65327
1159.017, 18.84377
1159.499, 16.47884
1159.981, 12.90352
1160.463, 9.429199
1160.945, 7.501343
1161.427, 8.356628
1161.909, 10.30513
1162.391, 10.81511
1162.874, 9.763062
1163.356, 6.871017
1163.838, 2.959778
1164.320, 2.112350
1164.802, 3.654587
1165.284, 2.327606
1165.766, 3.011902
1166.248, 6.316269
1166.730, 2.145126
1167.213, 2.889114
1167.695, 2.483185
1168.177, 1.583572
1168.659, 4.886414
1169.141, 10.13103
1169.623, 15.64084
1170.105, 20.09886
1170.587, 20.46944
1171.069, 15.62813
1171.552, 11.76447
1172.034, 9.389542
1172.516, 8.905960
1172.998, 11.63910
1173.480, 14.40823
1173.962, 15.77335
1174.444, 16.79134
1174.926, 18.91339
1175.409, 21.32156
1175.891, 20.68007
1176.373, 16.54848
1176.855, 16.62576
1177.337, 21.08443
1177.819, 21.00145
1178.301, 14.86417
1178.783, 10.49945
1179.266, 11.72820
1179.748, 13.35062
1180.230, 9.109802
1180.712, 3.433121
1181.194, 3.957199
1181.676, 7.769806
1182.158, 11.17635
1182.640, 13.26845
1183.122, 11.85730
1183.604, 7.963989
1184.087, 6.950150
1184.569, 11.26547
1185.051, 14.04933
1185.533, 9.452209
1186.015, 6.076782
1186.497, 9.268661
1186.979, 13.10046
1187.461, 12.31667
1187.944, 10.38106
1188.426, 13.22604
1188.908, 19.73433
1189.390, 22.76381
1189.872, 21.52379
1190.354, 19.37955
1190.836, 15.88557
1191.318, 13.55341
1191.801, 13.05458
1192.283, 12.89255
1192.765, 12.27774
1193.247, 11.13052
1193.729, 8.641098
1194.211, 6.424362
1194.693, 5.948868
1195.175, 6.773239
1195.657, 7.992722
1196.140, 9.160477
1196.622, 9.425858
1197.104, 8.713074
1197.586, 7.173233
1198.068, 4.614639
1198.550, 3.880157
1199.032, 8.729004
1199.514, 12.07930
1199.996, 10.76089
1200.479, 8.320358
1200.961, 8.492996
1201.443, 9.976486
1201.925, 11.32547
1202.407, 12.07715
1202.889, 9.586914
1203.371, 0.5801090
1203.853, 0.3510280
1204.336, 10.46661
1204.818, 17.03966
1205.300, 15.27953
1205.782, 13.75536
1206.264, 17.58228
1206.746, 19.87556
1207.228, 11.03915
1207.710, 2.568634
1208.193, 4.708176
1208.675, 1.384094
1209.157, 8.384903
1209.639, 14.75284
1210.121, 17.39059
1210.603, 16.36302
1211.085, 13.97603
1211.567, 11.10507
1212.049, 8.761688
1212.531, 6.509674
1213.014, 6.380402
1213.496, 12.18571
1213.978, 17.45172
1214.460, 16.88087
1214.942, 13.74971
1215.424, 11.76274
1215.906, 11.03107
1216.388, 11.40147
1216.871, 13.46281
1217.353, 12.30138
1217.835, 6.273392
1218.317, 3.690475
1218.799, 6.676117
1219.281, 10.51099
1219.763, 13.49117
1220.245, 12.43834
1220.728, 12.25861
1221.210, 11.07486
1221.692, 9.609055
1222.174, 8.301376
1222.656, 8.333099
1223.138, 9.104126
1223.620, 8.952957
1224.102, 8.416504
1224.584, 10.09552
1225.067, 14.32364
1225.549, 16.81216
1226.031, 14.59065
1226.513, 12.71431
1226.995, 13.23811
1227.477, 13.41393
1227.959, 12.41029
1228.441, 10.12146
1228.923, 5.306030
1229.406, 0.3753660
1229.888, 9.8343000E-02
1230.370, 3.307236
1230.852, 3.533325
1231.334, 0.3354340
1231.816, 0.0000000E+00
##END=



