##NAMES=Djurleite
##RRUFFID=R100172
##IDEAL CHEMISTRY=Cu_31_S_16_
##LOCALITY=Butte, Montana, USA
##OWNER=RRUFF
##SOURCE=Steve Young
##DESCRIPTION=Unconsolidated black fragments
##STATUS=The identification of this mineral has been confirmed only by chemical analysis
##URL=rruff.info/R100172
##MEASURED CHEMISTRY=(Cu_30.68_Fe_0.01_)_Î£=30.69_S_16_ = Cu_1.92_S
161.9587, 0.0000000E+00
162.4408, 0.5417180
162.9229, 0.5365910
163.4050, 0.2205810
163.8871, 6.7978002E-02
164.3693, 0.2744450
164.8514, 0.4402620
165.3335, 0.4731750
165.8156, 1.9805999E-02
166.2977, 6.3796997E-02
166.7798, 0.6910550
167.2620, 1.796997
167.7441, 2.468750
168.2262, 2.329147
168.7083, 1.663696
169.1904, 1.283569
169.6725, 1.306778
170.1547, 1.400711
170.6368, 1.377869
171.1189, 1.296356
171.6010, 1.368439
172.0831, 1.807877
172.5652, 2.367462
173.0474, 2.760971
173.5295, 3.026749
174.0116, 3.125336
174.4937, 2.934311
174.9758, 2.254349
175.4579, 1.821198
175.9401, 2.357635
176.4222, 3.126999
176.9043, 3.660309
177.3864, 3.710068
177.8685, 2.869781
178.3506, 2.669449
178.8328, 3.370682
179.3149, 4.028061
179.7970, 4.551178
180.2791, 4.804596
180.7612, 4.455750
181.2433, 3.285309
181.7255, 1.819748
182.2076, 1.244781
182.6897, 2.222748
183.1718, 2.896317
183.6539, 2.835098
184.1360, 2.512329
184.6181, 2.070557
185.1003, 1.731720
185.5824, 1.486206
186.0645, 1.213242
186.5466, 0.5671390
187.0287, 0.3546600
187.5108, 1.163986
187.9930, 2.330887
188.4751, 2.962860
188.9572, 2.532150
189.4393, 1.272537
189.9214, 0.4891820
190.4035, 0.7996060
190.8857, 0.9038700
191.3678, 0.2123260
191.8499, 0.8207400
192.3320, 1.382431
192.8141, 0.9508970
193.2962, 1.838734
193.7784, 1.521790
194.2605, 2.853455
194.7426, 3.833115
195.2247, 4.211578
195.7068, 4.083954
196.1889, 3.701279
196.6711, 3.155441
197.1532, 2.492691
197.6353, 1.954819
198.1174, 1.427689
198.5995, 1.104431
199.0816, 1.148056
199.5638, 1.523575
200.0459, 2.040771
200.5280, 2.802368
201.0101, 3.532181
201.4922, 3.536484
201.9743, 2.222183
202.4565, 0.7494350
202.9386, 0.1208950
203.4207, 0.3524930
203.9028, 0.8048860
204.3849, 1.409409
204.8670, 1.926849
205.3492, 1.890778
205.8313, 0.7683560
206.3134, 0.3543090
206.7955, 0.2662350
207.2776, 3.148148
207.7597, 5.358002
208.2419, 4.816879
208.7240, 3.188568
209.2061, 1.972137
209.6882, 1.669968
210.1703, 1.927139
210.6524, 2.148682
211.1346, 2.270874
211.6167, 2.524658
212.0988, 3.184433
212.5809, 3.909668
213.0630, 4.381638
213.5451, 4.470505
214.0273, 4.254974
214.5094, 3.852127
214.9915, 3.031235
215.4736, 2.465973
215.9557, 2.279922
216.4378, 2.363174
216.9200, 2.682037
217.4021, 3.232956
217.8842, 3.867538
218.3663, 4.173065
218.8484, 3.818573
219.3305, 3.490555
219.8127, 3.200333
220.2948, 3.006668
220.7769, 3.037308
221.2590, 3.350815
221.7411, 3.829559
222.2232, 4.128052
222.7054, 4.028610
223.1875, 3.998840
223.6696, 4.232773
224.1517, 4.486404
224.6338, 4.454132
225.1159, 3.979538
225.5980, 3.225632
226.0802, 2.660614
226.5623, 2.063278
227.0444, 1.944138
227.5265, 2.861191
228.0086, 4.132919
228.4907, 4.813156
228.9729, 4.483810
229.4550, 3.552734
229.9371, 3.076126
230.4192, 3.334167
230.9013, 3.573074
231.3834, 3.681137
231.8656, 3.701981
232.3477, 3.659103
232.8298, 3.540665
233.3119, 3.449265
233.7940, 3.645218
234.2761, 4.192444
234.7583, 4.780914
235.2404, 5.430481
235.7225, 6.057632
236.2046, 6.564453
236.6867, 6.966217
237.1688, 7.112778
237.6510, 6.471619
238.1331, 4.798660
238.6152, 3.775574
239.0973, 4.633743
239.5794, 6.501007
240.0615, 7.375214
240.5437, 6.447418
241.0258, 4.979034
241.5079, 4.747711
241.9900, 5.719894
242.4721, 6.633591
242.9542, 6.895325
243.4364, 6.702972
243.9185, 6.530441
244.4006, 6.415268
244.8827, 6.432983
245.3648, 6.827240
245.8469, 7.524658
246.3290, 7.931046
246.8112, 7.530029
247.2933, 6.590942
247.7754, 5.943787
248.2575, 5.777710
248.7396, 5.822586
249.2217, 5.917343
249.7039, 5.984589
250.1860, 5.951004
250.6681, 5.875336
251.1502, 5.772430
251.6323, 5.377274
252.1144, 4.327393
252.5966, 3.568222
253.0787, 3.780090
253.5608, 4.698608
254.0429, 5.683990
254.5250, 6.432968
255.0071, 6.894516
255.4893, 6.735214
255.9714, 5.545349
256.4535, 4.373779
256.9356, 3.647186
257.4177, 3.256424
257.8998, 3.025024
258.3820, 2.864059
258.8641, 2.862183
259.3462, 2.875580
259.8283, 3.217209
260.3104, 3.564041
260.7925, 4.055664
261.2747, 4.456284
261.7568, 4.370102
262.2389, 3.507614
262.7210, 2.203842
263.2031, 1.465179
263.6852, 1.702316
264.1674, 1.880264
264.6495, 1.509583
265.1316, 0.9712070
265.6137, 0.7345120
266.0958, 1.017639
266.5779, 1.737503
267.0601, 2.823364
267.5422, 4.977249
268.0243, 6.150635
268.5064, 5.578339
268.9885, 4.324631
269.4706, 3.251114
269.9528, 2.671753
270.4349, 2.447556
270.9170, 2.332077
271.3991, 2.394577
271.8812, 2.440079
272.3633, 2.665176
272.8455, 2.743988
273.3276, 2.204773
273.8097, 1.024750
274.2918, 0.1625820
274.7739, 0.3016820
275.2560, 1.364182
275.7382, 2.482574
276.2202, 2.877716
276.7024, 2.983597
277.1845, 2.989532
277.6666, 2.966660
278.1487, 2.972061
278.6308, 3.096024
279.1129, 3.428482
279.5951, 3.560501
280.0772, 3.542313
280.5593, 3.327377
281.0414, 2.603821
281.5235, 1.559525
282.0056, 0.8611600
282.4878, 1.233459
282.9699, 2.906662
283.4520, 3.992203
283.9341, 4.267975
284.4162, 4.279373
284.8983, 4.135605
285.3805, 3.900757
285.8626, 3.663040
286.3447, 3.500076
286.8268, 3.409729
287.3089, 3.166901
287.7910, 2.575012
288.2732, 2.055450
288.7553, 1.701874
289.2374, 1.516617
289.7195, 1.510941
290.2016, 1.718399
290.6837, 2.074280
291.1659, 2.207306
291.6480, 1.739563
292.1301, 1.489700
292.6122, 1.890869
293.0943, 2.514343
293.5764, 2.673965
294.0586, 2.039520
294.5407, 0.9707490
295.0228, 0.4409030
295.5049, 1.009628
295.9870, 1.464371
296.4691, 1.609467
296.9513, 1.685486
297.4334, 2.035202
297.9155, 2.757339
298.3976, 3.540634
298.8797, 3.844070
299.3618, 3.235291
299.8440, 2.931122
300.3261, 3.228195
300.8082, 3.646164
301.2903, 3.854416
301.7724, 3.772385
302.2545, 3.396240
302.7367, 2.771820
303.2188, 1.760208
303.7009, 1.114670
304.1830, 0.8950500
304.6651, 0.9342040
305.1472, 1.313095
305.6294, 1.928101
306.1115, 2.374695
306.5936, 2.235779
307.0757, 1.453735
307.5578, 1.309158
308.0399, 2.492401
308.5221, 3.515533
309.0042, 3.761047
309.4863, 3.313522
309.9684, 2.391556
310.4505, 2.251614
310.9326, 0.5926670
311.4148, 1.332886
311.8969, 0.5248570
312.3790, 0.2466740
312.8611, 0.5646670
313.3432, 0.6159360
313.8253, 0.6949160
314.3075, 0.9281160
314.7896, 1.309464
315.2717, 1.843567
315.7538, 2.959732
316.2359, 3.629333
316.7180, 3.444489
317.2001, 2.850754
317.6823, 2.427780
318.1644, 2.338715
318.6465, 2.509384
319.1286, 2.901749
319.6107, 3.954773
320.0928, 4.021027
320.5750, 2.056122
321.0571, 0.1506810
321.5392, 1.296173
322.0213, 1.214325
322.5034, 0.4082950
322.9855, 0.7209930
323.4677, 2.289398
323.9498, 3.308731
324.4319, 3.576447
324.9140, 3.573273
325.3961, 3.512070
325.8782, 3.389359
326.3604, 3.067825
326.8425, 2.391418
327.3246, 1.437256
327.8067, 1.063309
328.2888, 1.885742
328.7709, 2.499237
329.2531, 2.363556
329.7352, 1.824310
330.2173, 1.507874
330.6994, 1.616837
331.1815, 1.993057
331.6636, 2.204346
332.1458, 2.031891
332.6279, 1.950714
333.1100, 1.892502
333.5921, 1.991638
334.0742, 2.701355
334.5563, 4.085861
335.0385, 5.352661
335.5206, 5.189758
336.0027, 2.607941
336.4848, 1.191223
336.9669, 1.523270
337.4490, 2.408386
337.9312, 3.284515
338.4133, 4.000305
338.8954, 4.466232
339.3775, 4.571136
339.8596, 4.278168
340.3417, 4.083664
340.8239, 4.207855
341.3060, 4.187057
341.7881, 3.626312
342.2702, 2.800110
342.7523, 2.286880
343.2344, 2.458817
343.7166, 3.182526
344.1987, 3.810913
344.6808, 4.920685
345.1629, 5.210129
345.6450, 3.625534
346.1271, 1.536041
346.6093, 0.6129150
347.0914, 1.439789
347.5735, 3.101395
348.0556, 3.834976
348.5377, 2.887436
349.0198, 2.206879
349.5020, 1.867462
349.9841, 1.706100
350.4662, 1.652710
350.9483, 1.678497
351.4304, 1.770905
351.9125, 1.960785
352.3947, 2.318497
352.8768, 2.292465
353.3589, 1.245758
353.8410, 0.4573360
354.3231, 0.6332240
354.8052, 1.417923
355.2874, 1.993805
355.7695, 1.762650
356.2516, 0.9106450
356.7337, 0.5258640
357.2158, 1.210022
357.6979, 1.542618
358.1800, 0.8434910
358.6621, 0.1357270
359.1443, 0.4752960
359.6264, 0.1733090
360.1085, 1.245270
360.5906, 1.596970
361.0727, 0.6622770
361.5548, 0.5134280
362.0370, 2.229858
362.5191, 4.086960
363.0012, 5.098145
363.4833, 5.144928
363.9654, 4.605057
364.4475, 3.680893
364.9297, 2.327484
365.4118, 1.353714
365.8939, 0.9225920
366.3760, 0.7325740
366.8581, 0.8070530
367.3402, 1.015289
367.8224, 1.086349
368.3045, 0.7604680
368.7866, 0.2324830
369.2687, 0.2791440
369.7508, 1.399048
370.2329, 2.277435
370.7151, 2.290970
371.1972, 1.920792
371.6793, 1.640900
372.1614, 1.603378
372.6435, 1.551727
373.1256, 0.9889530
373.6078, 0.1596980
374.0899, 0.6981960
374.5720, 0.1935880
375.0541, 1.283768
375.5362, 1.623383
376.0183, 1.245560
376.5005, 0.7855990
376.9826, 0.6109470
377.4647, 0.6812130
377.9468, 0.8835910
378.4289, 1.296600
378.9110, 1.659622
379.3932, 1.739014
379.8753, 1.647781
380.3574, 1.430115
380.8395, 0.8839260
381.3216, 0.3287960
381.8037, 0.2466890
382.2859, 0.6466060
382.7680, 1.063141
383.2501, 1.373062
383.7322, 1.520218
384.2143, 1.398468
384.6964, 0.9038390
385.1786, 0.5195310
385.6607, 0.7579190
386.1428, 1.337204
386.6249, 1.333176
387.1070, 0.3219150
387.5891, 0.7090300
388.0713, 0.2117610
388.5534, 1.646576
389.0355, 2.677475
389.5176, 1.728348
389.9997, 0.1943210
390.4818, 0.5404210
390.9640, 0.4237670
391.4461, 0.1224520
391.9282, 0.1241300
392.4103, 0.3017730
392.8924, 1.5488000E-02
393.3745, 1.249451
393.8567, 2.373032
394.3388, 2.916718
394.8209, 3.011536
395.3030, 2.852646
395.7851, 2.497101
396.2672, 2.052307
396.7494, 1.599075
397.2315, 1.104416
397.7136, 0.7830200
398.1957, 0.6605990
398.6778, 0.6998900
399.1599, 0.9411320
399.6420, 1.347610
400.1241, 1.750061
400.6063, 2.003189
401.0884, 2.105530
401.5705, 2.127441
402.0526, 1.984695
402.5347, 1.868835
403.0168, 1.995605
403.4990, 2.157776
403.9811, 1.917343
404.4632, 1.052917
404.9453, 5.0200999E-02
405.4274, 0.4454800
405.9095, 0.4239500
406.3917, 1.093948
406.8738, 1.558395
407.3559, 1.812454
407.8380, 1.745728
408.3201, 1.436203
408.8022, 1.179764
409.2844, 1.317612
409.7665, 1.887421
410.2486, 2.217545
410.7307, 2.080536
411.2128, 1.931290
411.6949, 1.923004
412.1771, 1.988937
412.6592, 1.960907
413.1413, 1.711807
413.6234, 1.458099
414.1055, 1.801163
414.5876, 3.104462
415.0698, 3.906097
415.5519, 3.501389
416.0340, 2.701935
416.5161, 1.859177
416.9982, 1.061020
417.4803, 0.6144560
417.9625, 0.9751890
418.4446, 1.956192
418.9267, 2.217422
419.4088, 1.274490
419.8909, 0.3343810
420.3730, 0.1263280
420.8552, 0.4730070
421.3373, 1.113235
421.8194, 2.317154
422.3015, 3.406754
422.7836, 3.321106
423.2657, 2.076462
423.7479, 1.114410
424.2300, 1.076996
424.7121, 1.583420
425.1942, 2.020615
425.6763, 2.387772
426.1584, 2.689362
426.6406, 3.069611
427.1227, 3.389496
427.6048, 3.215469
428.0869, 2.393463
428.5690, 1.505234
429.0511, 1.075760
429.5333, 1.132965
430.0154, 1.302643
430.4975, 1.792725
430.9796, 2.195908
431.4617, 2.195267
431.9438, 1.889389
432.4260, 1.639328
432.9081, 1.518005
433.3902, 1.528412
433.8723, 1.711899
434.3544, 2.521774
434.8365, 2.721924
435.3187, 1.599838
435.8008, 0.3002010
436.2829, 0.2031400
436.7650, 0.1663970
437.2471, 0.8840030
437.7292, 1.489670
438.2114, 1.984299
438.6935, 2.381729
439.1756, 2.803345
439.6577, 2.991653
440.1398, 2.830795
440.6219, 2.419189
441.1040, 1.739365
441.5862, 0.7900090
442.0683, 2.3697000E-02
442.5504, 0.2232360
443.0325, 2.114319
443.5146, 3.322968
443.9967, 2.981445
444.4789, 2.355560
444.9610, 2.031189
445.4431, 1.986710
445.9252, 2.108521
446.4073, 2.293182
446.8894, 2.498764
447.3716, 2.607040
447.8537, 2.502106
448.3358, 2.538971
448.8179, 3.481689
449.3000, 4.474838
449.7821, 4.305222
450.2643, 2.458008
450.7464, 0.6911620
451.2285, 0.9497380
451.7106, 2.727524
452.1927, 3.351028
452.6748, 1.867264
453.1570, 4.0890002E-03
453.6391, 0.4297940
454.1212, 0.2983860
454.6033, 1.024155
455.0854, 1.607254
455.5675, 1.978638
456.0497, 1.971832
456.5318, 1.652115
457.0139, 1.389542
457.4960, 1.382675
457.9781, 1.567322
458.4602, 1.670944
458.9424, 1.728210
459.4245, 1.697205
459.9066, 1.471710
460.3887, 1.208450
460.8708, 1.043396
461.3529, 1.006760
461.8351, 1.128174
462.3172, 1.506348
462.7993, 1.151742
463.2814, 0.9938216
463.7635, 0.6851500
464.2456, 0.3703920
464.7278, 0.2781070
465.2099, 0.4200290
465.6920, 0.9673610
466.1741, 1.071014
466.6562, 0.9544680
467.1383, 0.9326170
467.6205, 0.8970790
468.1026, 1.301376
468.5847, 2.919113
469.0668, 4.296875
469.5489, 4.667221
470.0310, 4.226624
470.5132, 3.591888
470.9953, 3.063858
471.4774, 2.669800
471.9595, 2.558289
472.4416, 2.863708
472.9237, 2.953964
473.4059, 2.394379
473.8880, 1.635635
474.3701, 0.9840700
474.8522, 0.4655610
475.3343, 0.2894590
475.8164, 0.8012390
476.2986, 1.745239
476.7807, 2.572433
477.2628, 3.263931
477.7449, 3.554092
478.2270, 2.932449
478.7091, 1.715210
479.1913, 1.236832
479.6734, 2.408035
480.1555, 3.401855
480.6376, 2.873856
481.1197, 1.500000
481.6018, 0.7789310
482.0839, 1.231873
482.5660, 2.029922
483.0482, 1.980713
483.5303, 0.7395630
484.0124, 0.1343380
484.4945, 0.7529600
484.9766, 0.9272310
485.4587, 0.3811490
485.9409, 0.6924740
486.4230, 1.978409
486.9051, 3.349716
487.3872, 4.529495
487.8693, 4.601685
488.3514, 2.581619
488.8336, 1.305740
489.3157, 1.473984
489.7978, 1.941833
490.2799, 1.907745
490.7620, 1.392532
491.2441, 0.9612730
491.7263, 1.156799
492.2084, 1.806961
492.6905, 2.052536
493.1726, 1.757355
493.6547, 1.381927
494.1368, 0.9541780
494.6190, 0.6367490
495.1011, 0.6344450
495.5832, 1.027435
496.0653, 1.378540
496.5474, 1.159851
497.0295, 0.6287080
497.5117, 0.6914370
497.9938, 1.625534
498.4759, 2.546661
498.9580, 2.754761
499.4401, 2.311234
499.9222, 1.682739
500.4044, 0.3262940
500.8865, 0.6283110
501.3686, 0.3954010
501.8507, 0.6463470
502.3328, 1.792755
502.8149, 2.816803
503.2971, 3.580933
503.7792, 3.874313
504.2613, 3.591064
504.7434, 3.169266
505.2255, 2.439819
505.7076, 1.756042
506.1898, 1.234390
506.6719, 0.8939510
507.1540, 0.7338560
507.6361, 0.7517850
508.1182, 0.9669800
508.6003, 1.478165
509.0825, 2.489029
509.5646, 3.257919
510.0467, 3.953491
510.5288, 4.182007
511.0109, 3.366348
511.4930, 1.778580
511.9752, 0.4826970
512.4573, 0.1423340
512.9394, 0.4522090
513.4215, 0.8333740
513.9036, 1.349060
514.3857, 1.494446
514.8679, 0.5834960
515.3500, 0.4205930
515.8321, 0.1001740
516.3142, 1.754852
516.7963, 3.242035
517.2784, 3.144852
517.7606, 2.388519
518.2427, 2.410553
518.7248, 3.289963
519.2069, 3.930435
519.6890, 3.537766
520.1711, 2.338272
520.6533, 1.469177
521.1354, 0.8151090
521.6175, 0.5711210
522.0996, 1.137558
522.5817, 1.913116
523.0638, 2.198929
523.5460, 1.916519
524.0281, 1.577530
524.5102, 1.710434
524.9923, 2.293198
525.4744, 2.536209
525.9565, 2.243805
526.4387, 1.839661
526.9208, 1.135773
527.4029, 0.5096890
527.8850, 0.5081020
528.3671, 1.253311
528.8492, 2.038834
529.3314, 1.870270
529.8135, 0.8186340
530.2956, 0.4117890
530.7777, 1.009125
531.2598, 1.714996
531.7419, 2.111313
532.2241, 2.220413
532.7062, 1.975845
533.1883, 1.143646
533.6704, 0.4245150
534.1525, 0.2836910
534.6346, 0.6065980
535.1168, 1.320862
535.5989, 2.475098
536.0810, 3.281265
536.5631, 2.752136
537.0452, 0.8039550
537.5273, 0.1965640
538.0095, 0.5220030
538.4916, 1.231827
538.9737, 1.216507
539.4558, 0.8095090
539.9379, 0.5428920
540.4200, 0.6014100
540.9022, 0.9197390
541.3843, 1.459259
541.8664, 2.289063
542.3485, 2.866119
542.8306, 3.128891
543.3127, 3.289246
543.7948, 3.448090
544.2769, 3.485428
544.7590, 3.196518
545.2411, 2.470276
545.7233, 1.646027
546.2054, 1.070084
546.6875, 0.7460480
547.1696, 0.8105320
547.6517, 1.441101
548.1339, 2.164688
548.6160, 2.655884
549.0981, 2.930145
549.5802, 2.979538
550.0623, 2.652084
550.5444, 2.256897
551.0266, 1.869370
551.5087, 1.572006
551.9908, 1.631210
552.4729, 2.140625
552.9550, 2.750305
553.4371, 3.042404
553.9193, 2.991226
554.4014, 2.745270
554.8835, 2.165710
555.3656, 1.576294
555.8477, 1.063431
556.3298, 0.6230620
556.8120, 0.1963350
557.2941, 0.2314450
557.7762, 0.5043030
558.2583, 0.3238680
558.7404, 0.3484340
559.2225, 0.8412480
559.7047, 1.019760
560.1868, 1.157486
560.6689, 1.501190
561.1510, 1.877243
561.6331, 1.955048
562.1152, 1.545837
562.5974, 1.067596
563.0795, 0.9098050
563.5616, 1.004898
564.0437, 1.086929
564.5258, 1.081985
565.0079, 1.170105
565.4901, 1.591980
565.9722, 2.318024
566.4543, 2.757828
566.9364, 2.882904
567.4185, 2.761368
567.9006, 2.165527
568.3828, 1.436172
568.8649, 1.054749
569.3470, 1.141235
569.8291, 1.484528
570.3112, 1.889435
570.7933, 2.378647
571.2755, 2.598328
571.7576, 2.357147
572.2397, 2.069321
572.7218, 1.567230
573.2039, 1.176361
573.6860, 1.532272
574.1682, 2.740677
574.6503, 3.849762
575.1324, 3.641235
575.6145, 2.466644
576.0966, 1.858917
576.5787, 2.027039
577.0609, 2.303818
577.5430, 2.299744
578.0251, 2.119843
578.5072, 2.046204
578.9893, 2.186707
579.4714, 2.201630
579.9536, 1.816071
580.4357, 1.312149
580.9178, 1.013290
581.3999, 0.9645840
581.8820, 1.094437
582.3641, 1.375046
582.8463, 1.766998
583.3284, 2.051620
583.8105, 2.430084
584.2926, 2.382202
584.7747, 1.549072
585.2568, 0.5426940
585.7390, 0.3823550
586.2211, 1.068573
586.7032, 1.165833
587.1853, 0.1260070
587.6674, 1.467087
588.1495, 1.882614
588.6317, 0.9333500
589.1138, 0.1733550
589.5959, 7.0418999E-02
590.0780, 0.4108890
590.5601, 0.9291230
591.0422, 1.621201
591.5244, 2.089554
592.0065, 2.087173
592.4886, 1.910858
592.9707, 1.610214
593.4528, 1.335587
593.9349, 1.756195
594.4171, 3.260559
594.8992, 4.856384
595.3813, 4.646439
595.8634, 1.591660
596.3455, 7.1029998E-02
596.8276, 0.3807980
597.3098, 1.251022
597.7919, 2.218765
598.2740, 3.016602
598.7561, 3.208176
599.2382, 2.588974
599.7203, 1.793854
600.2025, 1.846085
600.6846, 2.709244
601.1667, 2.864212
601.6488, 1.710831
602.1309, 0.7467960
602.6130, 1.532913
603.0952, 3.174332
603.5773, 3.782593
604.0594, 2.636124
604.5415, 1.355270
605.0236, 0.6837620
605.5057, 0.4337770
605.9879, 0.3456880
606.4700, 0.3693700
606.9521, 0.5645450
607.4342, 1.026154
607.9163, 1.685608
608.3984, 2.024628
608.8806, 1.806671
609.3627, 1.570038
609.8448, 1.304260
610.3269, 1.076401
610.8090, 0.9317930
611.2911, 0.8744200
611.7733, 0.8817750
612.2554, 0.9067540
612.7375, 1.013687
613.2196, 1.456726
613.7017, 2.258865
614.1838, 2.877426
614.6660, 3.179520
615.1481, 3.251923
615.6302, 3.209381
616.1123, 3.089966
616.5944, 2.832855
617.0765, 2.167053
617.5587, 1.579712
618.0408, 1.382385
618.5229, 1.519379
619.0050, 1.950119
619.4871, 2.647873
619.9692, 3.268890
620.4514, 3.263031
620.9335, 2.464905
621.4156, 2.313187
621.8977, 3.800629
622.3798, 4.758881
622.8619, 4.185471
623.3441, 3.044388
623.8262, 2.530624
624.3083, 2.913315
624.7904, 3.341125
625.2725, 2.814163
625.7546, 1.762619
626.2367, 1.695602
626.7188, 2.776810
627.2009, 3.783936
627.6830, 4.110641
628.1652, 3.944870
628.6473, 3.696854
629.1294, 3.319839
629.6115, 3.025299
630.0936, 3.146652
630.5757, 3.101440
631.0579, 2.086472
631.5400, 0.5483550
632.0221, 0.2751460
632.5042, 0.2603610
632.9863, 1.502075
633.4684, 2.262589
633.9506, 2.470428
634.4327, 2.548187
634.9148, 2.350769
635.3969, 2.235855
635.8790, 2.401077
636.3611, 2.751785
636.8433, 3.208359
637.3254, 3.896545
637.8075, 4.206955
638.2896, 3.263458
638.7717, 1.754089
639.2538, 1.118546
639.7360, 1.532684
640.2181, 2.020615
640.7002, 1.854568
641.1823, 1.255936
641.6644, 1.130432
642.1465, 2.207962
642.6287, 2.751572
643.1108, 2.369629
643.5929, 1.744995
644.0750, 1.384918
644.5571, 1.223236
645.0392, 0.7997890
645.5214, 0.3688200
646.0035, 1.549545
646.4856, 1.232574
646.9677, 0.5702820
647.4498, 1.927338
647.9319, 2.366638
648.4141, 2.522980
648.8962, 2.989639
649.3783, 3.609528
649.8604, 3.760788
650.3425, 3.014862
650.8246, 2.309845
651.3068, 2.066055
651.7889, 2.037216
652.2710, 1.899002
652.7531, 1.629623
653.2352, 1.445435
653.7173, 1.521652
654.1995, 1.792191
654.6816, 2.077560
655.1637, 2.369797
655.6458, 2.658859
656.1279, 3.144440
656.6100, 3.450470
657.0922, 3.209641
657.5743, 2.577011
658.0564, 2.092621
658.5385, 1.986359
659.0206, 2.074722
659.5027, 2.320908
659.9849, 2.618759
660.4670, 2.595810
660.9491, 2.154083
661.4312, 1.738754
661.9133, 1.810303
662.3954, 2.310150
662.8776, 2.398407
663.3597, 1.441620
663.8418, 0.9359130
664.3239, 1.363922
664.8060, 2.044922
665.2881, 2.444763
665.7703, 2.516083
666.2524, 2.468536
666.7345, 2.432159
667.2166, 2.421661
667.6987, 2.421677
668.1808, 2.429291
668.6630, 2.326752
669.1451, 2.084747
669.6272, 1.712296
670.1093, 0.9758450
670.5914, 6.3930000E-03
671.0735, 1.5930001E-02
671.5557, 2.440796
672.0378, 4.063660
672.5199, 2.784225
673.0020, 0.7085880
673.4841, 0.3918760
673.9662, 1.929611
674.4484, 3.479797
674.9305, 3.604965
675.4126, 2.706741
675.8947, 2.043915
676.3768, 1.583923
676.8589, 1.560410
677.3411, 2.563156
677.8232, 3.402191
678.3053, 2.640518
678.7874, 0.8535770
679.2695, 0.2125550
679.7516, 2.345215
680.2338, 4.306976
680.7159, 4.134674
681.1980, 2.759384
681.6801, 1.348114
682.1622, 0.2422490
682.6443, 8.9615002E-02
683.1265, 0.9028930
683.6086, 2.782928
684.0907, 3.287766
684.5728, 1.357712
685.0549, 0.3790440
685.5370, 1.790985
686.0192, 3.371658
686.5013, 3.855331
686.9834, 3.476959
687.4655, 2.952545
687.9476, 2.469284
688.4297, 2.115433
688.9119, 2.088196
689.3940, 2.216995
689.8761, 2.028519
690.3582, 1.508804
690.8403, 0.9926610
691.3224, 0.7430110
691.8046, 0.7200930
692.2867, 0.7289120
692.7688, 0.7395480
693.2509, 0.8383030
693.7330, 1.150467
694.2151, 1.434677
694.6973, 1.567093
695.1794, 1.553741
695.6615, 1.409409
696.1436, 1.094131
696.6257, 0.8127590
697.1078, 0.8458860
697.5900, 1.138184
698.0721, 1.337982
698.5542, 1.450821
699.0363, 1.499390
699.5184, 1.461273
700.0005, 1.395294
700.4827, 1.515060
700.9648, 2.017212
701.4469, 2.381744
701.9290, 2.515411
702.4111, 2.591034
702.8932, 2.889038
703.3754, 3.139404
703.8575, 2.672943
704.3396, 1.272980
704.8217, 1.1154000E-02
705.3038, 0.1482700
705.7859, 1.428940
706.2681, 2.178391
706.7502, 2.166870
707.2323, 2.188339
707.7144, 2.715866
708.1965, 3.528748
708.6786, 4.176285
709.1607, 4.807861
709.6428, 4.856506
710.1249, 3.825089
710.6071, 2.657928
711.0892, 1.681107
711.5713, 1.007858
712.0534, 0.8320310
712.5355, 1.197052
713.0176, 1.727234
713.4998, 2.062195
713.9819, 2.208206
714.4640, 2.180496
714.9461, 1.961807
715.4282, 1.666580
715.9103, 1.251144
716.3925, 0.8866420
716.8746, 0.8585210
717.3567, 1.185760
717.8388, 1.608368
718.3209, 2.472031
718.8030, 3.024185
719.2852, 2.789200
719.7673, 2.080643
720.2494, 1.244797
720.7315, 0.4279330
721.2136, 0.3118900
721.6957, 0.9208830
722.1779, 1.351059
722.6600, 1.415665
723.1421, 1.101639
723.6242, 1.487766
724.1063, 1.593601
724.5884, 1.668808
725.0706, 2.067047
725.5527, 1.858917
726.0348, 1.817322
726.5169, 2.127350
726.9990, 2.433701
727.4811, 2.602036
727.9633, 2.718323
728.4454, 2.871841
728.9275, 3.075851
729.4096, 3.251526
729.8917, 3.312485
730.3738, 3.252045
730.8560, 2.938248
731.3381, 2.349167
731.8202, 2.259903
732.3023, 3.052643
732.7844, 3.698776
733.2665, 3.307602
733.7487, 2.161118
734.2308, 1.353775
734.7129, 0.8224330
735.1950, 0.7484130
735.6771, 1.775848
736.1592, 2.763428
736.6414, 2.502609
737.1235, 1.458588
737.6056, 1.106812
738.0877, 2.109421
738.5698, 3.374542
739.0519, 3.108795
739.5341, 1.559052
740.0162, 1.190933
740.4983, 2.458023
740.9804, 3.276352
741.4625, 2.252319
741.9446, 0.4228970
742.4268, 0.1801150
742.9089, 0.7510530
743.3910, 1.160629
743.8731, 0.1916960
744.3552, 0.6098790
744.8373, 0.3278050
745.3195, 0.5073390
745.8016, 1.149414
746.2837, 1.410034
746.7658, 1.537796
747.2479, 1.759201
747.7300, 2.005173
748.2122, 2.110931
748.6943, 2.077515
749.1764, 1.750244
749.6585, 0.9344330
750.1406, 0.2174380
750.6227, 0.2801210
751.1049, 1.096130
751.5870, 1.625793
752.0691, 1.690903
752.5512, 1.734451
753.0333, 2.113495
753.5154, 2.283157
753.9976, 1.338989
754.4797, 0.2555080
754.9618, 0.9431760
755.4439, 0.2326510
755.9260, 2.057037
756.4081, 3.106567
756.8903, 3.448944
757.3724, 3.219620
757.8545, 2.403946
758.3366, 1.553635
758.8187, 0.9470980
759.3008, 0.6167140
759.7830, 0.6605220
760.2651, 1.279480
760.7472, 1.807297
761.2293, 2.604446
761.7114, 2.919250
762.1935, 2.004501
762.6757, 0.6165620
763.1578, 0.2707210
763.6399, 0.4305570
764.1220, 7.8506000E-02
764.6041, 1.151978
765.0862, 2.507156
765.5684, 2.647278
766.0505, 1.799149
766.5326, 1.093262
767.0147, 0.8822480
767.4968, 1.061127
767.9789, 1.595993
768.4611, 2.455658
768.9432, 2.817596
769.4253, 2.414337
769.9074, 1.962769
770.3895, 1.367172
770.8716, 0.9357760
771.3538, 1.084579
771.8359, 1.589554
772.3180, 1.682739
772.8001, 0.8194430
773.2822, 0.1098020
773.7643, 0.5833890
774.2465, 1.543869
774.7286, 1.878738
775.2107, 1.609222
775.6928, 1.620773
776.1749, 2.454453
776.6570, 3.414948
777.1392, 2.881714
777.6213, 0.4694210
778.1034, 0.5633090
778.5855, 0.4091340
779.0676, 1.576813
779.5497, 2.304901
780.0319, 2.718216
780.5140, 2.990356
780.9961, 3.157425
781.4782, 3.133698
781.9603, 2.660522
782.4424, 2.198120
782.9246, 2.135437
783.4067, 2.220093
783.8888, 2.001282
784.3709, 1.449310
784.8530, 0.9817960
785.3351, 0.9562380
785.8173, 1.205490
786.2994, 1.236160
786.7815, 1.046478
787.2636, 1.379044
787.7457, 2.592148
788.2278, 3.594833
788.7100, 3.445862
789.1921, 2.451126
789.6742, 1.811813
790.1563, 1.621475
790.6384, 1.593796
791.1205, 2.029984
791.6026, 2.309525
792.0847, 1.841415
792.5668, 1.063873
793.0490, 0.7684630
793.5311, 1.181519
794.0132, 1.711639
794.4953, 1.863007
794.9774, 1.817734
795.4595, 1.853302
795.9417, 1.981766
796.4238, 2.307251
796.9059, 2.887711
797.3880, 3.287949
797.8701, 2.971375
798.3522, 1.993820
798.8344, 1.335236
799.3165, 1.170776
799.7986, 0.9781190
800.2807, 0.1287690
800.7628, 0.2694400
801.2449, 0.9476930
801.7271, 3.111572
802.2092, 4.370422
802.6913, 4.245316
803.1734, 3.492126
803.6555, 1.657013
804.1376, 4.0709998E-02
804.6198, 3.1906001E-02
805.1019, 1.438309
805.5840, 2.709488
806.0661, 3.199417
806.5482, 3.202347
807.0303, 3.001129
807.5125, 2.631042
807.9946, 2.480179
808.4767, 2.625900
808.9588, 2.487900
809.4409, 1.606064
809.9230, 0.8144990
810.4052, 1.320526
810.8873, 3.115417
811.3694, 3.799774
811.8515, 2.048019
812.3336, 0.9892730
812.8157, 1.956894
813.2979, 3.284607
813.7800, 3.292999
814.2621, 2.399750
814.7442, 2.199814
815.2263, 3.510544
815.7084, 4.891754
816.1906, 4.736526
816.6727, 3.703598
817.1548, 3.105423
817.6369, 3.001175
818.1190, 3.023483
818.6011, 3.016571
819.0833, 2.998169
819.5654, 3.019714
820.0475, 3.090179
820.5296, 2.865356
821.0117, 2.012375
821.4938, 1.524384
821.9760, 1.997574
822.4581, 2.663681
822.9402, 2.844681
823.4223, 2.651764
823.9044, 2.649200
824.3865, 3.290039
824.8687, 3.610138
825.3508, 2.777420
825.8329, 1.803177
826.3150, 1.944412
826.7971, 2.820221
827.2792, 2.986801
827.7614, 1.792480
828.2435, 0.5325320
828.7256, 1.103363
829.2077, 2.939560
829.6898, 3.875244
830.1719, 3.849686
830.6541, 3.421524
831.1362, 2.684219
831.6183, 2.033997
832.1004, 1.994934
832.5825, 2.554749
833.0646, 2.823547
833.5468, 2.294205
834.0289, 2.270050
834.5110, 3.655655
834.9931, 4.859833
835.4752, 4.678986
835.9573, 3.526779
836.4395, 2.601395
836.9216, 2.187469
837.4037, 1.986740
837.8858, 1.604660
838.3679, 1.539642
838.8500, 2.930862
839.3322, 5.001831
839.8143, 5.633728
840.2964, 4.184433
840.7785, 2.318542
841.2606, 1.830475
841.7427, 2.435471
842.2249, 3.191208
842.7070, 4.119522
843.1891, 4.548126
843.6712, 4.083038
844.1533, 3.456207
844.6354, 3.261459
845.1176, 3.406540
845.5997, 3.451233
846.0818, 3.517746
846.5639, 3.402161
847.0460, 2.782990
847.5281, 2.171021
848.0103, 1.799469
848.4924, 1.684280
848.9745, 1.843658
849.4566, 2.279846
849.9387, 2.864517
850.4208, 3.795197
850.9030, 4.609024
851.3851, 4.798691
851.8672, 4.592270
852.3493, 4.390488
852.8314, 4.287735
853.3135, 4.301422
853.7957, 4.482208
854.2778, 4.657227
854.7599, 4.307083
855.2420, 3.448959
855.7241, 3.061035
856.2062, 3.346970
856.6884, 3.567612
857.1705, 3.192795
857.6526, 2.694351
858.1347, 3.037643
858.6168, 4.547440
859.0989, 5.396133
859.5811, 5.232071
860.0632, 4.872757
860.5453, 4.456116
861.0274, 3.954605
861.5095, 3.155304
861.9916, 2.205292
862.4738, 1.750397
862.9559, 2.297409
863.4380, 2.834427
863.9201, 2.358261
864.4022, 1.744568
864.8843, 2.291168
865.3665, 3.758331
865.8486, 4.946777
866.3307, 5.342987
866.8128, 5.240112
867.2949, 4.726608
867.7770, 3.975204
868.2592, 3.828094
868.7413, 4.295258
869.2234, 4.737442
869.7055, 4.996735
870.1876, 5.112595
870.6697, 5.100006
871.1519, 4.971436
871.6340, 4.795517
872.1161, 4.789597
872.5981, 4.314835
873.0803, 2.321976
873.5624, 0.9682620
874.0445, 1.948242
874.5266, 3.753387
875.0087, 3.988190
875.4908, 2.246811
875.9730, 1.040161
876.4551, 1.517303
876.9372, 2.468399
877.4193, 3.600967
877.9014, 4.536011
878.3835, 4.608429
878.8657, 3.890091
879.3478, 3.138397
879.8299, 2.808807
880.3120, 2.562347
880.7941, 1.665924
881.2762, 0.4856870
881.7584, 0.3172000
882.2405, 1.194656
882.7226, 2.255859
883.2047, 3.132385
883.6868, 3.969833
884.1689, 5.128204
884.6511, 6.554138
885.1332, 6.161301
885.6153, 2.974991
886.0974, 0.6488490
886.5795, 6.7289998E-03
887.0616, 0.2614750
887.5438, 1.313263
888.0259, 2.828171
888.5080, 3.897186
888.9901, 4.654755
889.4722, 4.586563
889.9543, 2.430679
890.4365, 0.7218630
890.9186, 1.139771
891.4007, 2.639908
891.8828, 3.918686
892.3649, 4.701569
892.8470, 5.102676
893.3292, 5.140930
893.8113, 4.885269
894.2934, 4.409119
894.7755, 3.684311
895.2576, 2.271210
895.7397, 0.4568330
896.2219, 0.2841340
896.7040, 0.8603060
897.1861, 2.649750
897.6682, 3.110275
898.1503, 2.465225
898.6324, 2.390015
899.1146, 2.889526
899.5967, 2.550461
900.0788, 0.7469940
900.5609, 0.7804110
901.0430, 6.4896002E-02
901.5251, 2.367447
902.0073, 3.171951
902.4894, 1.372360
902.9715, 5.9647001E-02
903.4536, 1.133743
903.9357, 1.631744
904.4178, 1.043228
904.9000, 4.2495999E-02
905.3821, 0.3692780
905.8642, 7.3715001E-02
906.3463, 3.9124001E-02
906.8284, 0.7312770
907.3105, 1.459290
907.7927, 2.203369
908.2748, 2.564224
908.7569, 1.826614
909.2390, 0.4418640
909.7211, 8.8200001E-03
910.2032, 1.347794
910.6854, 2.753372
911.1675, 2.251755
911.6496, 0.9446560
912.1317, 0.7606050
912.6138, 1.431122
913.0959, 1.580841
913.5781, 0.8362730
914.0602, 0.1509550
914.5423, 0.5540620
915.0244, 0.1915890
915.5065, 0.1556240
915.9886, 0.6340030
916.4708, 0.4286190
916.9529, 1.228226
917.4350, 2.029861
917.9171, 2.284027
918.3992, 2.234680
918.8813, 2.330643
919.3635, 2.630966
919.8456, 2.625031
920.3277, 2.143021
920.8098, 1.636856
921.2919, 1.204575
921.7740, 0.7768860
922.2562, 5.1420000E-03
922.7383, 0.7906490
923.2204, 0.5350490
923.7025, 1.570129
924.1846, 1.594157
924.6667, 2.622391
925.1489, 1.844376
925.6310, 1.427963
926.1131, 1.223999
926.5952, 0.8719940
927.0773, 0.3836980
927.5594, 0.2189330
928.0416, 0.8045500
928.5237, 1.566788
929.0058, 1.991959
929.4879, 2.249359
929.9700, 2.696182
930.4521, 3.251617
930.9343, 3.475586
931.4164, 3.190384
931.8985, 2.723297
932.3806, 2.470337
932.8627, 2.336609
933.3448, 1.996399
933.8270, 1.467621
934.3091, 0.8490300
934.7912, 0.1457060
935.2733, 0.2737730
935.7554, 0.1286160
936.2375, 0.4320220
936.7197, 1.096985
937.2018, 1.925262
937.6839, 2.534164
938.1660, 2.925690
938.6481, 3.080841
939.1302, 2.857620
939.6124, 2.567612
940.0945, 2.624329
940.5766, 2.221970
941.0587, 2.851685
941.5408, 1.750778
942.0229, 1.080673
942.5051, 1.119797
942.9872, 1.366623
943.4693, 1.675507
943.9514, 1.991867
944.4335, 2.303162
944.9156, 2.598694
945.3978, 2.699539
945.8799, 2.119995
946.3620, 1.852371
946.8441, 2.864868
947.3262, 4.089096
947.8083, 4.503937
948.2905, 4.141205
948.7726, 3.271759
949.2547, 1.984955
949.7368, 0.9639740
950.2189, 0.9047240
950.7010, 1.341171
951.1832, 1.750931
951.6653, 2.118408
952.1474, 2.588303
952.6295, 3.086716
953.1116, 2.982544
953.5938, 1.798691
954.0759, 0.2806850
954.5580, 0.1691130
955.0400, 0.2012630
955.5222, 0.1121670
956.0043, 1.124298
956.4864, 1.022415
956.9685, 0.9249570
957.4506, 2.738373
957.9327, 2.304886
958.4149, 3.182770
958.8970, 3.604355
959.3791, 2.628815
959.8612, 3.660919
960.3433, 2.585938
960.8254, 1.386414
961.3076, 0.7755890
961.7897, 0.6629940
962.2718, 1.125336
962.7539, 2.208038
963.2360, 2.599197
963.7181, 1.819809
964.2003, 1.068817
964.6824, 1.4618000E-02
965.1645, 0.5212860
965.6466, 0.4577940
966.1287, 2.030273
966.6108, 2.471130
967.0930, 1.499786
967.5751, 0.8630830
968.0572, 1.105133
968.5393, 1.542206
969.0214, 2.041809
969.5035, 2.509354
969.9857, 3.130463
970.4678, 3.613983
970.9499, 3.008194
971.4320, 0.7906490
971.9141, 0.7170560
972.3962, 0.5832980
972.8784, 2.459335
973.3605, 3.144226
973.8426, 2.966980
974.3247, 2.263901
974.8068, 1.331039
975.2889, 0.8932190
975.7711, 1.431931
976.2532, 2.150894
976.7353, 2.115387
977.2174, 1.670822
977.6995, 1.428604
978.1816, 1.361420
978.6638, 1.238983
979.1459, 1.007675
979.6280, 0.8458250
980.1101, 0.9286650
980.5922, 0.9860080
981.0743, 0.3617100
981.5565, 0.6915440
982.0386, 0.6239320
982.5207, 0.6420900
983.0028, 1.367722
983.4849, 0.8321080
983.9670, 1.2210000E-03
984.4492, 9.1370001E-02
984.9313, 0.4432680
985.4134, 1.199081
985.8955, 2.278397
986.3776, 2.767349
986.8597, 2.408051
987.3419, 2.127609
987.8240, 2.495926
988.3061, 2.921005
988.7882, 2.422852
989.2703, 1.012039
989.7524, 0.5933380
990.2346, 1.753891
990.7167, 2.609833
991.1988, 2.895111
991.6809, 2.890625
992.1630, 2.679916
992.6451, 2.311340
993.1273, 1.793564
993.6094, 1.094193
994.0915, 0.7973630
994.5736, 1.324677
995.0557, 1.621033
995.5378, 1.166946
996.0200, 0.7354280
996.5021, 1.083664
996.9842, 1.758087
997.4663, 1.649963
997.9484, 0.4174040
998.4305, 0.1031950
998.9127, 1.466232
999.3948, 2.686401
999.8769, 1.904846
1000.359, 0.7929840
1000.841, 1.211105
1001.323, 2.625000
1001.805, 3.251465
1002.287, 2.498581
1002.770, 1.575790
1003.252, 0.8602600
1003.734, 0.4573970
1004.216, 0.4915920
1004.698, 0.8535920
1005.180, 1.521118
1005.662, 2.372833
1006.144, 3.192398
1006.627, 3.949371
1007.109, 4.195160
1007.591, 3.021118
1008.073, 1.580750
1008.555, 1.250046
1009.037, 1.691833
1009.519, 2.332993
1010.001, 2.945801
1010.483, 3.264160
1010.966, 3.133194
1011.448, 2.658600
1011.930, 1.597992
1012.412, 0.4376220
1012.894, 0.4611210
1013.376, 1.272675
1013.858, 1.443588
1014.340, 0.8027650
1014.823, 0.3696750
1015.305, 0.7448730
1015.787, 1.449387
1016.269, 1.740784
1016.751, 1.685272
1017.233, 1.437088
1017.715, 1.047501
1018.197, 0.8305510
1018.679, 0.8741760
1019.162, 1.036774
1019.644, 1.212997
1020.126, 1.396515
1020.608, 1.597214
1021.090, 1.806244
1021.572, 1.969238
1022.054, 2.091263
1022.536, 1.713486
1023.018, 0.5862270
1023.501, 0.2956390
1023.983, 0.1219020
1024.465, 0.8193210
1024.947, 1.757156
1025.429, 2.741608
1025.911, 2.918930
1026.393, 2.046890
1026.875, 1.562546
1027.358, 2.082092
1027.840, 2.718216
1028.322, 2.526566
1028.804, 3.104813
1029.286, 3.511780
1029.768, 3.409119
1030.250, 4.143707
1030.732, 3.855011
1031.214, 3.492722
1031.697, 3.415833
1032.179, 3.328949
1032.661, 2.820465
1033.143, 2.066284
1033.625, 2.026123
1034.107, 3.289078
1034.589, 3.739716
1035.071, 2.811371
1035.553, 2.091919
1036.036, 2.381287
1036.518, 2.831543
1037.000, 2.482117
1037.482, 1.520325
1037.964, 1.049667
1038.446, 1.247314
1038.928, 1.473007
1039.410, 1.957413
1039.893, 2.120285
1040.375, 1.493439
1040.857, 0.7727660
1041.339, 0.7268830
1041.821, 1.240280
1042.303, 1.709991
1042.785, 2.184326
1043.267, 2.542480
1043.750, 2.642700
1044.232, 2.784790
1044.714, 3.184906
1045.196, 3.585419
1045.678, 3.800552
1046.160, 3.799286
1046.642, 3.476639
1047.124, 2.651321
1047.606, 1.980835
1048.089, 1.171066
1048.571, 0.9214020
1049.053, 2.104172
1049.535, 3.415283
1050.017, 3.417908
1050.499, 2.407776
1050.981, 1.883438
1051.463, 2.287415
1051.945, 2.627014
1052.428, 2.644073
1052.910, 2.618011
1053.392, 2.768143
1053.874, 2.865372
1054.356, 2.565765
1054.838, 2.005371
1055.320, 1.692245
1055.802, 1.761703
1056.285, 1.957687
1056.767, 2.445831
1057.249, 2.800797
1057.731, 2.718216
1058.213, 2.403183
1058.695, 1.991241
1059.177, 1.601089
1059.659, 1.506027
1060.141, 1.833160
1060.624, 2.145142
1061.106, 2.346039
1061.588, 2.427505
1062.070, 2.344650
1062.552, 2.173981
1063.034, 1.822174
1063.516, 1.491806
1063.998, 1.718567
1064.480, 2.704041
1064.963, 3.393646
1065.445, 3.046677
1065.927, 2.709854
1066.409, 3.194733
1066.891, 3.730392
1067.373, 3.412415
1067.855, 2.550156
1068.337, 2.001205
1068.820, 1.999802
1069.302, 1.990051
1069.784, 1.713272
1070.266, 1.397247
1070.748, 0.6479950
1071.230, 0.3580780
1071.712, 2.024033
1072.194, 4.584396
1072.677, 5.768341
1073.159, 5.089554
1073.641, 3.927261
1074.123, 2.186737
1074.605, 0.9928740
1075.087, 1.484390
1075.569, 2.250092
1076.051, 1.770569
1076.533, 0.7506100
1077.016, 0.8236390
1077.498, 2.184402
1077.980, 3.182068
1078.462, 2.914093
1078.944, 2.439880
1079.426, 2.110443
1079.908, 1.939484
1080.390, 2.166229
1080.872, 2.442810
1081.354, 1.991806
1081.837, 0.8986210
1082.319, 0.4976350
1082.801, 1.727005
1083.283, 2.877533
1083.765, 3.391220
1084.247, 3.287796
1084.729, 2.040665
1085.211, 0.5242000
1085.694, 0.1103970
1086.176, 0.1672360
1086.658, 0.6477200
1087.140, 1.119263
1087.622, 1.710098
1088.104, 2.838226
1088.586, 3.701096
1089.068, 3.533447
1089.551, 2.996567
1090.033, 2.931808
1090.515, 3.233948
1090.997, 3.198425
1091.479, 2.527084
1091.961, 2.007996
1092.443, 2.032700
1092.925, 2.169434
1093.407, 2.502365
1093.890, 2.587540
1094.372, 1.600876
1094.854, 0.1065670
1095.336, 0.3499760
1095.818, 0.6879880
1096.300, 1.344009
1096.782, 0.5633700
1097.264, 9.6542001E-02
1097.746, 2.0630000E-02
1098.229, 0.4111790
1098.711, 1.256226
1099.193, 2.077728
1099.675, 1.909225
1100.157, 0.6212310
1100.639, 7.7271000E-02
1101.121, 1.510864
1101.603, 2.636185
1102.086, 2.720688
1102.568, 2.449432
1103.050, 2.258850
1103.532, 1.970398
1104.014, 1.177841
1104.496, 7.1777001E-02
1104.978, 1.036057
1105.460, 1.860199
1105.943, 1.936127
1106.425, 0.6822200
1106.907, 0.7481230
1107.389, 2.128403
1107.871, 3.220444
1108.353, 3.745255
1108.835, 3.767502
1109.317, 3.557739
1109.799, 2.825394
1110.281, 2.634430
1110.764, 4.074509
1111.246, 4.717041
1111.728, 2.826248
1112.210, 0.8399960
1112.692, 1.158981
1113.174, 2.759857
1113.656, 2.842270
1114.138, 0.8877870
1114.621, 0.2389680
1115.103, 0.3474730
1115.585, 9.8128997E-02
1116.067, 1.666229
1116.549, 2.913803
1117.031, 2.774628
1117.513, 1.986603
1117.995, 1.746719
1118.478, 2.063934
1118.960, 2.226273
1119.442, 2.340866
1119.924, 1.993423
1120.406, 0.7951350
1120.888, 0.1433260
1121.370, 0.3414760
1121.852, 5.1116999E-02
1122.334, 0.5580900
1122.817, 1.373428
1123.299, 1.775803
1123.781, 1.725876
1124.263, 1.330887
1124.745, 0.3267210
1125.227, 2.8380999E-02
1125.709, 0.8127750
1126.191, 1.908691
1126.673, 2.553070
1127.156, 2.841339
1127.638, 2.568741
1128.120, 1.684769
1128.602, 1.436768
1129.084, 1.887665
1129.566, 2.353256
1130.048, 2.700974
1130.530, 3.039337
1131.013, 3.463943
1131.495, 3.729218
1131.977, 3.435928
1132.459, 2.687088
1132.941, 1.691391
1133.423, 0.5486300
1133.905, 1.199707
1134.387, 3.725220
1134.870, 5.016098
1135.352, 3.846512
1135.834, 2.315689
1136.316, 2.482666
1136.798, 3.495163
1137.280, 3.499710
1137.762, 2.810410
1138.244, 2.543259
1138.726, 2.675461
1139.208, 2.905960
1139.691, 3.093124
1140.173, 2.758209
1140.655, 1.522552
1141.137, 0.3564610
1141.619, 0.8564760
1142.101, 0.2677310
1142.583, 0.3635250
1143.065, 0.8707430
1143.548, 0.9592290
1144.030, 2.017578
1144.512, 2.847351
1144.994, 2.994583
1145.476, 3.019943
1145.958, 3.473282
1146.440, 3.885330
1146.922, 3.851379
1147.405, 3.444641
1147.887, 2.100082
1148.369, 0.7035680
1148.851, 1.508804
1149.333, 4.446182
1149.815, 6.293625
1150.297, 5.236511
1150.779, 3.634933
1151.261, 2.292435
1151.744, 1.551910
1152.226, 2.293243
1152.708, 3.323517
1153.190, 2.845154
1153.672, 1.435211
1154.154, 1.161804
1154.636, 2.692566
1155.118, 4.080643
1155.600, 5.054535
1156.083, 5.535599
1156.565, 5.583420
1157.047, 5.031891
1157.529, 3.014130
1158.011, 0.7024540
1158.493, 0.1860350
1158.975, 1.526215
1159.457, 2.288269
1159.940, 1.651062
1160.422, 1.545563
1160.904, 2.367538
1161.386, 3.247070
1161.868, 3.989151
1162.350, 4.533554
1162.832, 4.706512
1163.314, 4.648010
1163.796, 4.889038
1164.279, 5.714630
1164.761, 5.636917
1165.243, 4.174957
1165.725, 3.343857
1166.207, 3.728409
1166.689, 4.034653
1167.171, 3.389435
1167.653, 2.711060
1168.135, 3.524750
1168.618, 2.907593
1169.100, 2.616684
1169.582, 2.933823
1170.064, 1.851410
1170.546, 2.127716
1171.028, 2.150665
1171.510, 1.385315
1171.992, 0.8191530
1172.474, 1.268234
1172.957, 2.145996
1173.439, 2.390137
1173.921, 2.241669
1174.403, 2.508102
1174.885, 3.072525
1175.367, 3.583267
1175.849, 3.926468
1176.331, 3.819382
1176.814, 3.165573
1177.296, 2.692978
1177.778, 3.359238
1178.260, 2.662704
1178.742, 3.460602
1179.224, 2.316696
1179.706, 2.084305
1180.188, 2.332001
1180.671, 1.698654
1181.153, 0.2595210
1181.635, 0.1220250
1182.117, 1.743011
1182.599, 3.381027
1183.081, 3.671829
1183.563, 3.079163
1184.045, 0.7292180
1184.527, 1.386520
1185.010, 0.8512880
1185.492, 1.328629
1185.974, 2.607559
1186.456, 2.603302
1186.938, 2.365265
1187.420, 1.624832
1187.902, 1.329605
1188.384, 2.143600
1188.866, 2.798416
1189.349, 2.720139
1189.831, 2.238663
1190.313, 1.446823
1190.795, 0.5810700
1191.277, 0.6604000
1191.759, 2.009750
1192.241, 2.850891
1192.723, 3.029160
1193.206, 3.259613
1193.688, 3.675522
1194.170, 4.060226
1194.652, 4.333923
1195.134, 4.386154
1195.616, 4.009842
1196.098, 3.334137
1196.580, 2.843201
1197.063, 2.548096
1197.545, 2.620483
1198.027, 3.008987
1198.509, 3.082321
1198.991, 2.685364
1199.473, 2.322937
1199.955, 2.346085
1200.437, 2.477158
1200.919, 2.320160
1201.401, 2.042984
1201.884, 1.947128
1202.366, 1.953293
1202.848, 1.815811
1203.330, 1.631561
1203.812, 1.873520
1204.294, 2.609344
1204.776, 3.024994
1205.258, 2.409393
1205.741, 1.811462
1206.223, 1.945496
1206.705, 2.306854
1207.187, 2.737442
1207.669, 2.993683
1208.151, 2.707565
1208.633, 2.060257
1209.115, 1.480896
1209.598, 0.9702450
1210.080, 0.7936550
1210.562, 0.4557887
1211.044, 1.808594
1211.526, 0.3084870
1212.008, 0.5671840
1212.490, 0.9400480
1212.972, 2.911057
1213.454, 2.964661
1213.937, 1.543686
1214.419, 0.7907260
1214.901, 0.7443540
1215.383, 1.412643
1215.865, 3.077103
1216.347, 3.517929
1216.829, 2.075134
1217.311, 0.8880160
1217.793, 1.247314
1218.276, 2.237732
1218.758, 2.675308
1219.240, 2.630539
1219.722, 1.920746
1220.204, 0.8725740
1220.686, 0.7960660
1221.168, 1.532974
1221.650, 2.126236
1222.133, 2.326996
1222.615, 2.306015
1223.097, 2.133591
1223.579, 1.982498
1224.061, 1.996262
1224.543, 2.116409
1225.025, 2.513504
1225.507, 2.797836
1225.990, 2.114532
1226.472, 1.116577
1226.954, 1.439087
1227.436, 3.117218
1227.918, 3.828827
1228.400, 2.153519
1228.882, 1.027603
1229.364, 1.599060
1229.846, 2.225677
1230.328, 2.374924
1230.811, 2.232727
1231.293, 1.805176
1231.775, 1.284683
1232.257, 0.9487150
1232.739, 0.8013460
1233.221, 1.508667
1233.703, 3.416519
1234.185, 4.603882
1234.668, 4.830566
1235.150, 4.678192
1235.632, 4.677673
1236.114, 4.563934
1236.596, 4.224686
1237.078, 3.833496
1237.560, 3.795517
1238.042, 3.913177
1238.525, 3.507767
1239.007, 2.692123
1239.489, 1.607376
1239.971, 0.4743500
1240.453, 8.0582000E-02
1240.935, 0.1073300
1241.417, 0.7727200
1241.899, 1.983902
1242.381, 2.808929
1242.864, 1.925018
1243.346, 0.9942020
1243.828, 1.596207
1244.310, 2.761200
1244.792, 3.520889
1245.274, 3.840103
1245.756, 3.735718
1246.238, 3.223038
1246.720, 3.220779
1247.203, 4.606262
1247.685, 5.299118
1248.167, 4.851746
1248.649, 4.100403
1249.131, 3.398895
1249.613, 2.511002
1250.095, 1.054520
1250.577, 0.3183750
1251.059, 0.1695710
1251.542, 1.312988
1252.024, 1.772888
1252.506, 1.220276
1252.988, 0.6302950
1253.470, 0.1485440
1253.952, 0.8706970
1254.434, 3.015305
1254.916, 4.646774
1255.399, 4.360504
1255.881, 3.332886
1256.363, 2.944489
1256.845, 2.795151
1257.327, 2.173676
1257.809, 1.497223
1258.291, 1.565750
1258.773, 2.075790
1259.255, 2.178955
1259.738, 1.778168
1260.220, 1.537064
1260.702, 1.771530
1261.184, 1.959045
1261.666, 1.870758
1262.148, 1.790848
1262.630, 1.908325
1263.112, 1.975632
1263.594, 1.856339
1264.077, 1.608002
1264.559, 1.349472
1265.041, 1.065842
1265.523, 0.5251010
1266.005, 0.4714360
1266.487, 0.4116210
1266.969, 0.8755800
1267.451, 2.037598
1267.934, 2.691681
1268.416, 2.903595
1268.898, 2.659180
1269.380, 2.072922
1269.862, 1.226105
1270.344, 0.3981170
1270.826, 6.5277003E-02
1271.308, 0.1642460
1271.791, 0.7756650
1272.273, 1.630875
1272.755, 2.324875
1273.237, 2.715973
1273.719, 2.616058
1274.201, 1.935669
1274.683, 1.226883
1275.165, 0.2896420
1275.647, 0.2452390
1276.130, 0.8901980
1276.612, 2.196930
1277.094, 2.492050
1277.576, 2.178787
1278.058, 1.379303
1278.540, 0.4789580
1279.022, 0.2832180
1279.504, 0.7801210
1279.986, 1.303482
1280.469, 1.478622
1280.951, 1.680511
1281.433, 1.400269
1281.915, 1.293533
1282.397, 1.575012
1282.879, 1.769409
1283.361, 1.407669
1283.843, 0.7868040
1284.326, 0.3119810
1284.808, 0.0000000E+00
##END=



