##NAMES=Djurleite
##RRUFFID=R100173
##IDEAL CHEMISTRY=Cu_31_S_16_
##LOCALITY=King Vein, Morenci, Arizona, USA
##OWNER=RRUFF
##SOURCE=Steve Young
##DESCRIPTION=Gray metallic fragments
##STATUS=The identification of this mineral has been confirmed only by chemical analysis
##URL=rruff.info/R100173
##MEASURED CHEMISTRY=Cu_30.65_S_16_ = Cu_1.92_S
141.2277, 0.0000000E+00
141.7098, 4.5807000E-02
142.1919, 1.1917000E-02
142.6740, 0.1568600
143.1561, 0.5216220
143.6383, 0.9679870
144.1204, 1.403183
144.6025, 1.801788
145.0846, 1.865631
145.5667, 1.757660
146.0488, 1.429886
146.5310, 1.001785
147.0131, 0.6447300
147.4952, 0.4372100
147.9773, 0.2103580
148.4594, 0.8329620
148.9415, 2.140579
149.4237, 3.018448
149.9058, 3.000702
150.3879, 2.161331
150.8700, 1.641556
151.3521, 1.981888
151.8342, 2.270844
152.3164, 1.775345
152.7985, 0.7975770
153.2806, 0.4344020
153.7627, 0.8499600
154.2448, 2.582916
154.7269, 3.652069
155.2091, 2.973114
155.6912, 2.093018
156.1733, 1.968307
156.6554, 2.632202
157.1375, 3.302658
157.6196, 3.043610
158.1018, 1.317184
158.5839, 0.5192260
159.0660, 1.529831
159.5481, 2.792999
160.0302, 3.267181
160.5123, 2.710526
160.9945, 1.669891
161.4766, 1.371918
161.9587, 2.796692
162.4408, 3.442520
162.9229, 2.905945
163.4050, 1.859177
163.8871, 0.8091430
164.3693, 2.5330000E-03
164.8514, 0.5004580
165.3335, 0.3703000
165.8156, 1.113693
166.2977, 2.210098
166.7798, 2.759293
167.2620, 3.334030
167.7441, 3.444733
168.2262, 2.806091
168.7083, 2.142166
169.1904, 1.864883
169.6725, 2.074829
170.1547, 2.217087
170.6368, 2.014572
171.1189, 1.428665
171.6010, 1.066833
172.0831, 1.293625
172.5652, 1.938477
173.0474, 2.670242
173.5295, 3.494934
174.0116, 3.994019
174.4937, 3.734512
174.9758, 2.718475
175.4579, 1.963959
175.9401, 2.172760
176.4222, 2.756821
176.9043, 3.107101
177.3864, 3.106781
177.8685, 2.873901
178.3506, 2.425491
178.8328, 1.565002
179.3149, 1.139801
179.7970, 2.006546
180.2791, 3.165237
180.7612, 3.714081
181.2433, 3.239853
181.7255, 2.209793
182.2076, 1.819839
182.6897, 2.522659
183.1718, 2.998657
183.6539, 2.805435
184.1360, 2.340164
184.6181, 2.127548
185.1003, 2.433701
185.5824, 3.032990
186.0645, 3.110153
186.5466, 2.012543
187.0287, 1.161804
187.5108, 0.7843780
187.9930, 0.7472530
188.4751, 0.8835750
188.9572, 1.101791
189.4393, 1.405457
189.9214, 1.821594
190.4035, 2.967300
190.8857, 3.543961
191.3678, 3.009491
191.8499, 1.760056
192.3320, 0.3666380
192.8141, 0.9093480
193.2962, 1.976547
193.7784, 2.042969
194.2605, 3.4942999E-02
194.7426, 1.586212
195.2247, 1.626312
195.7068, 0.5319370
196.1889, 0.3775630
196.6711, 0.2928620
197.1532, 0.6445770
197.6353, 1.492203
198.1174, 2.705719
198.5995, 3.440994
199.0816, 2.792557
199.5638, 0.9403530
200.0459, 0.2686160
200.5280, 0.5505220
201.0101, 2.764999
201.4922, 4.301910
201.9743, 5.012711
202.4565, 5.116516
202.9386, 4.624283
203.4207, 3.520523
203.9028, 2.347885
204.3849, 0.9351810
204.8670, 0.1699520
205.3492, 6.8699999E-04
205.8313, 2.280579
206.3134, 5.050888
206.7955, 6.158661
207.2776, 5.264816
207.7597, 4.271072
208.2419, 3.986496
208.7240, 4.057709
209.2061, 4.228867
209.6882, 4.456970
210.1703, 4.662369
210.6524, 4.661484
211.1346, 4.326065
211.6167, 4.119675
212.0988, 4.347473
212.5809, 4.685776
213.0630, 4.821884
213.5451, 4.617294
214.0273, 4.194031
214.5094, 3.787369
214.9915, 3.248169
215.4736, 3.018463
215.9557, 3.441208
216.4378, 4.033234
216.9200, 4.302475
217.4021, 4.007874
217.8842, 3.367462
218.3663, 3.029907
218.8484, 3.502945
219.3305, 3.523529
219.8127, 2.367569
220.2948, 0.9627990
220.7769, 0.3975830
221.2590, 1.166840
221.7411, 2.749481
222.2232, 3.586548
222.7054, 2.543625
223.1875, 2.118332
223.6696, 3.250671
224.1517, 4.770569
224.6338, 5.289413
225.1159, 4.171143
225.5980, 2.146286
226.0802, 1.339127
226.5623, 3.332977
227.0444, 4.690430
227.5265, 4.725632
228.0086, 4.119293
228.4907, 3.676315
228.9729, 3.724564
229.4550, 4.182693
229.9371, 4.911713
230.4192, 6.552109
230.9013, 7.475479
231.3834, 6.664200
231.8656, 5.148438
232.3477, 4.645355
232.8298, 5.938965
233.3119, 7.998840
233.7940, 8.448090
234.2761, 6.787323
234.7583, 5.388794
235.2404, 4.543259
235.7225, 4.219742
236.2046, 4.550110
236.6867, 5.708023
237.1688, 7.159012
237.6510, 8.033707
238.1331, 8.385437
238.6152, 8.323486
239.0973, 7.415833
239.5794, 6.106659
240.0615, 5.423874
240.5437, 5.793854
241.0258, 6.558044
241.5079, 6.795700
241.9900, 6.514084
242.4721, 6.334885
242.9542, 6.744766
243.4364, 7.459961
243.9185, 7.617310
244.4006, 6.733093
244.8827, 5.843658
245.3648, 6.213959
245.8469, 7.667038
246.3290, 8.891769
246.8112, 9.075958
247.2933, 8.515259
247.7754, 8.125580
248.2575, 8.098022
248.7396, 8.131317
249.2217, 7.992996
249.7039, 7.712555
250.1860, 7.382217
250.6681, 6.916092
251.1502, 6.378250
251.6323, 6.137085
252.1144, 6.705643
252.5966, 6.971603
253.0787, 5.875610
253.5608, 4.008377
254.0429, 2.711426
254.5250, 3.180740
255.0071, 4.925415
255.4893, 5.836899
255.9714, 5.426880
256.4535, 4.913544
256.9356, 4.936050
257.4177, 5.219696
257.8998, 5.285278
258.3820, 4.892120
258.8641, 4.183533
259.3462, 3.740692
259.8283, 3.746460
260.3104, 3.711578
260.7925, 3.319992
261.2747, 2.833832
261.7568, 2.639511
262.2389, 2.980362
262.7210, 3.604324
263.2031, 3.880035
263.6852, 3.685684
264.1674, 3.336990
264.6495, 2.461243
265.1316, 1.668091
265.6137, 1.828751
266.0958, 3.378693
266.5779, 5.508331
267.0601, 6.182327
267.5422, 4.324020
268.0243, 2.899765
268.5064, 2.274765
268.9885, 2.229843
269.4706, 2.833511
269.9528, 4.068588
270.4349, 5.352875
270.9170, 5.419266
271.3991, 3.142349
271.8812, 1.884766
272.3633, 2.509827
272.8455, 3.653870
273.3276, 4.368362
273.8097, 4.400513
274.2918, 4.002151
274.7739, 3.489899
275.2560, 2.676987
275.7382, 2.182968
276.2202, 2.173782
276.7024, 2.297852
277.1845, 2.184036
277.6666, 1.855835
278.1487, 1.748520
278.6308, 2.579376
279.1129, 5.133301
279.5951, 5.851715
280.0772, 3.007477
280.5593, 0.1448060
281.0414, 0.8419800
281.5235, 3.1403001E-02
282.0056, 1.645584
282.4878, 3.007278
282.9699, 4.154022
283.4520, 4.806870
283.9341, 4.830704
284.4162, 4.600647
284.8983, 4.030563
285.3805, 3.293228
285.8626, 2.786530
286.3447, 2.865250
286.8268, 3.513962
287.3089, 3.717758
287.7910, 2.752838
288.2732, 2.152649
288.7553, 2.851990
289.2374, 4.212952
289.7195, 4.993317
290.2016, 4.417664
290.6837, 2.718246
291.1659, 1.140411
291.6480, 1.228485
292.1301, 2.409271
292.6122, 1.274277
293.0943, 1.050125
293.5764, 3.163315
294.0586, 4.450226
294.5407, 4.897064
295.0228, 4.469666
295.5049, 1.311768
295.9870, 0.4326320
296.4691, 0.4325870
296.9513, 2.330658
297.4334, 3.654251
297.9155, 3.871796
298.3976, 3.394012
298.8797, 2.861603
299.3618, 2.006973
299.8440, 1.667984
300.3261, 2.189102
300.8082, 2.998856
301.2903, 3.852127
301.7724, 4.616806
302.2545, 4.926559
302.7367, 4.265198
303.2188, 2.169067
303.7009, 0.8528750
304.1830, 0.6129610
304.6651, 0.9271390
305.1472, 1.752075
305.6294, 2.913910
306.1115, 3.897064
306.5936, 4.240860
307.0757, 3.906494
307.5578, 3.635483
308.0399, 3.217392
308.5221, 3.046234
309.0042, 3.619644
309.4863, 4.623260
309.9684, 5.171112
310.4505, 4.608170
310.9326, 3.177185
311.4148, 2.620865
311.8969, 3.683899
312.3790, 4.615585
312.8611, 4.890305
313.3432, 4.781311
313.8253, 4.819885
314.3075, 5.272186
314.7896, 5.846939
315.2717, 5.763046
315.7538, 4.199020
316.2359, 3.162628
316.7180, 3.096985
317.2001, 3.507553
317.6823, 3.902298
318.1644, 4.135986
318.6465, 4.296112
319.1286, 4.531311
319.6107, 5.004166
320.0928, 5.080231
320.5750, 4.268295
321.0571, 3.413132
321.5392, 3.241837
322.0213, 3.793243
322.5034, 4.604660
322.9855, 5.162537
323.4677, 5.321564
323.9498, 5.132843
324.4319, 4.341385
324.9140, 3.606125
325.3961, 3.214890
325.8782, 3.164337
326.3604, 3.402664
326.8425, 3.904144
327.3246, 4.585281
327.8067, 5.039230
328.2888, 5.332596
328.7709, 5.381470
329.2531, 5.154312
329.7352, 4.679367
330.2173, 3.888657
330.6994, 2.718048
331.1815, 1.460281
331.6636, 0.9030610
332.1458, 2.216049
332.6279, 2.784912
333.1100, 1.661560
333.5921, 0.1902160
334.0742, 0.1181790
334.5563, 1.100845
335.0385, 2.811279
335.5206, 3.444229
336.0027, 2.232040
336.4848, 1.925720
336.9669, 3.663788
337.4490, 5.318298
337.9312, 5.084839
338.4133, 3.156174
338.8954, 1.305176
339.3775, 1.356567
339.8596, 3.486847
340.3417, 4.954666
340.8239, 5.813766
341.3060, 6.062546
341.7881, 5.166290
342.2702, 3.673553
342.7523, 2.661652
343.2344, 2.827576
343.7166, 3.921280
344.1987, 4.727127
344.6808, 5.310074
345.1629, 5.474915
345.6450, 4.787292
346.1271, 3.834030
346.6093, 3.377090
347.0914, 3.673874
347.5735, 4.209152
348.0556, 3.926651
348.5377, 1.855072
349.0198, 0.7471920
349.5020, 1.198792
349.9841, 1.918137
350.4662, 2.111984
350.9483, 1.724777
351.4304, 1.342438
351.9125, 1.752975
352.3947, 3.181030
352.8768, 3.892670
353.3589, 3.129242
353.8410, 2.383377
354.3231, 2.240753
354.8052, 2.551727
355.2874, 2.929138
355.7695, 3.129456
356.2516, 3.169708
356.7337, 3.143951
357.2158, 2.946289
357.6979, 2.829636
358.1800, 3.188919
358.6621, 3.497101
359.1443, 2.988022
359.6264, 1.371674
360.1085, 0.5555110
360.5906, 1.257156
361.0727, 0.1261290
361.5548, 0.6508640
362.0370, 0.3959500
362.5191, 0.1035460
363.0012, 0.5762020
363.4833, 1.807724
363.9654, 2.992142
364.4475, 3.123672
364.9297, 2.186264
365.4118, 1.799179
365.8939, 2.571243
366.3760, 3.253708
366.8581, 3.240128
367.3402, 2.765961
367.8224, 2.356140
368.3045, 2.348480
368.7866, 2.595718
369.2687, 2.644440
369.7508, 2.381546
370.2329, 2.169861
370.7151, 2.248428
371.1972, 2.380478
371.6793, 2.296005
372.1614, 1.898102
372.6435, 1.434540
373.1256, 1.186478
373.6078, 1.159210
374.0899, 1.297394
374.5720, 1.884308
375.0541, 2.361664
375.5362, 2.131409
376.0183, 1.278534
376.5005, 0.6589810
376.9826, 1.100098
377.4647, 2.267517
377.9468, 2.942566
378.4289, 3.057159
378.9110, 2.645386
379.3932, 1.062180
379.8753, 0.9740910
380.3574, 1.977097
380.8395, 0.9337310
381.3216, 0.8365480
381.8037, 1.842606
382.2859, 2.110550
382.7680, 1.840546
383.2501, 0.8045810
383.7322, 0.4417420
384.2143, 1.033737
384.6964, 0.8242030
385.1786, 0.4049840
385.6607, 2.9022001E-02
386.1428, 0.3029020
386.6249, 0.6002200
387.1070, 0.8856510
387.5891, 1.076508
388.0713, 0.9370880
388.5534, 0.5064700
389.0355, 0.3789980
389.5176, 0.8215640
389.9997, 1.544235
390.4818, 2.438904
390.9640, 3.448380
391.4461, 4.032364
391.9282, 3.682053
392.4103, 2.622116
392.8924, 2.015686
393.3745, 2.308640
393.8567, 2.509949
394.3388, 1.978226
394.8209, 1.114166
395.3030, 0.7080540
395.7851, 1.072647
396.2672, 1.907303
396.7494, 2.727585
397.2315, 3.660416
397.7136, 4.282242
398.1957, 4.544846
398.6778, 4.545914
399.1599, 4.292664
399.6420, 3.825592
400.1241, 3.285202
400.6063, 2.780487
401.0884, 2.307327
401.5705, 1.971359
402.0526, 1.639557
402.5347, 1.567886
403.0168, 2.058182
403.4990, 2.818649
403.9811, 3.390564
404.4632, 3.552704
404.9453, 3.424988
405.4274, 3.293152
405.9095, 3.222321
406.3917, 3.029831
406.8738, 2.350967
407.3559, 1.823624
407.8380, 2.142441
408.3201, 3.224472
408.8022, 4.192291
409.2844, 4.015671
409.7665, 2.573441
410.2486, 2.017456
410.7307, 3.466324
411.2128, 4.605576
411.6949, 4.389511
412.1771, 3.487473
412.6592, 3.127014
413.1413, 4.027328
413.6234, 5.398941
414.1055, 5.336929
414.5876, 3.166412
415.0698, 1.626251
415.5519, 1.706329
416.0340, 2.399521
416.5161, 3.483536
416.9982, 4.841812
417.4803, 5.761520
417.9625, 5.421982
418.4446, 3.990677
418.9267, 2.726608
419.4088, 1.619110
419.8909, 0.6756590
420.3730, 0.3164670
420.8552, 1.137344
421.3373, 1.217590
421.8194, 0.1057890
422.3015, 1.750824
422.7836, 2.297318
423.2657, 1.758469
423.7479, 1.302841
424.2300, 1.281052
424.7121, 1.699829
425.1942, 2.717331
425.6763, 4.577698
426.1584, 5.789215
426.6406, 5.096176
427.1227, 3.515137
427.6048, 2.882584
428.0869, 3.551468
428.5690, 4.442184
429.0511, 4.484665
429.5333, 3.691879
430.0154, 3.518738
430.4975, 4.867874
430.9796, 5.992294
431.4617, 5.570679
431.9438, 4.121780
432.4260, 3.124115
432.9081, 3.341827
433.3902, 4.137817
433.8723, 3.972549
434.3544, 1.688797
434.8365, 0.3733980
435.3187, 0.7889250
435.8008, 1.768478
436.2829, 2.435730
436.7650, 2.656219
437.2471, 2.721893
437.7292, 2.888947
438.2114, 3.189072
438.6935, 2.920059
439.1756, 0.8380430
439.6577, 0.4827420
440.1398, 0.2015840
440.6219, 1.796555
441.1040, 2.747040
441.5862, 2.363586
442.0683, 1.365097
442.5504, 1.180038
443.0325, 2.217239
443.5146, 2.864578
443.9967, 2.673050
444.4789, 2.289673
444.9610, 1.918121
445.4431, 1.632370
445.9252, 1.540024
446.4073, 1.785767
446.8894, 2.366837
447.3716, 2.885468
447.8537, 3.171524
448.3358, 3.432907
448.8179, 3.625961
449.3000, 3.849091
449.7821, 4.376801
450.2643, 5.407288
450.7464, 6.015411
451.2285, 4.898560
451.7106, 2.497513
452.1927, 1.230225
452.6748, 2.003586
453.1570, 3.130142
453.6391, 2.541000
454.1212, 0.6690370
454.6033, 0.4293820
455.0854, 0.2447050
455.5675, 1.502182
456.0497, 2.447311
456.5318, 3.046265
457.0139, 3.272064
457.4960, 2.989151
457.9781, 2.472137
458.4602, 2.527512
458.9424, 3.509750
459.4245, 4.220383
459.9066, 4.038605
460.3887, 3.716949
460.8708, 4.332443
461.3529, 5.888687
461.8351, 7.128250
462.3172, 6.775253
462.7993, 4.764450
463.2814, 3.289490
463.7635, 2.351929
464.2456, 1.901855
464.7278, 2.137680
465.2099, 2.780731
465.6920, 3.602310
466.1741, 4.495239
466.6562, 5.182678
467.1383, 5.105743
467.6205, 3.920166
468.1026, 3.036133
468.5847, 2.512848
469.0668, 2.299438
469.5489, 2.612625
470.0310, 3.246490
470.5132, 3.721436
470.9953, 3.794815
471.4774, 3.467209
471.9595, 2.476486
472.4416, 0.4161530
472.9237, 0.7822570
473.4059, 0.3562770
473.8880, 2.308456
474.3701, 3.607834
474.8522, 4.155746
475.3343, 4.251923
475.8164, 3.694305
476.2986, 2.855759
476.7807, 2.786011
477.2628, 3.731766
477.7449, 4.700638
478.2270, 4.951584
478.7091, 4.547119
479.1913, 3.986984
479.6734, 2.890274
480.1555, 2.199570
480.6376, 2.742798
481.1197, 4.078415
481.6018, 5.289703
482.0839, 6.075439
482.5660, 6.250473
483.0482, 5.428802
483.5303, 3.057510
484.0124, 1.807068
484.4945, 2.608688
484.9766, 3.586838
485.4587, 3.554214
485.9409, 2.873688
486.4230, 2.677383
486.9051, 3.642471
487.3872, 5.247894
487.8693, 5.960938
488.3514, 5.341080
488.8336, 4.625275
489.3157, 3.547989
489.7978, 2.710144
490.2799, 2.668640
490.7620, 3.317230
491.2441, 3.983017
491.7263, 4.113174
492.2084, 3.812012
492.6905, 3.567795
493.1726, 3.372253
493.6547, 3.284851
494.1368, 3.327240
494.6190, 3.487320
495.1011, 3.903366
495.5832, 4.675674
496.0653, 5.097382
496.5474, 4.123672
497.0295, 2.348450
497.5117, 1.811798
497.9938, 3.177704
498.4759, 4.556046
498.9580, 4.211807
499.4401, 2.483841
499.9222, 1.325638
500.4044, 1.209671
500.8865, 1.319626
501.3686, 1.284622
501.8507, 1.159927
502.3328, 1.122726
502.8149, 1.245148
503.2971, 1.236053
503.7792, 0.5466000
504.2613, 1.400894
504.7434, 1.836777
505.2255, 0.9822540
505.7076, 3.433197
506.1898, 3.299454
506.6719, 1.522354
507.1540, 0.2178650
507.6361, 0.5063780
508.1182, 1.761978
508.6003, 2.532806
509.0825, 2.604279
509.5646, 2.768860
510.0467, 3.429016
510.5288, 3.920502
511.0109, 3.785339
511.4930, 3.124313
511.9752, 2.363388
512.4573, 1.602158
512.9394, 1.041443
513.4215, 1.072952
513.9036, 1.773178
514.3857, 2.584518
514.8679, 3.640671
515.3500, 4.427063
515.8321, 4.178604
516.3142, 2.750626
516.7963, 1.496979
517.2784, 1.096878
517.7606, 1.164017
518.2427, 1.133499
518.7248, 0.9662020
519.2069, 1.004654
519.6890, 1.543427
520.1711, 2.450012
520.6533, 3.039841
521.1354, 3.308807
521.6175, 3.331177
522.0996, 2.668228
522.5817, 2.020782
523.0638, 2.412796
523.5460, 3.812347
524.0281, 4.984955
524.5102, 4.635803
524.9923, 2.824051
525.4744, 1.686432
525.9565, 1.667603
526.4387, 1.799255
526.9208, 1.861160
527.4029, 1.977798
527.8850, 2.402084
528.3671, 3.187653
528.8492, 3.835373
529.3314, 3.935364
529.8135, 3.507523
530.2956, 2.507294
530.7777, 0.3267210
531.2598, 1.199478
531.7419, 0.1674190
532.2241, 2.009277
532.7062, 3.019348
533.1883, 1.908249
533.6704, 0.5127870
534.1525, 4.6859998E-02
534.6346, 0.3174440
535.1168, 1.024612
535.5989, 2.153442
536.0810, 3.158676
536.5631, 3.514435
537.0452, 3.185623
537.5273, 2.463318
538.0095, 0.6564330
538.4916, 0.7410130
538.9737, 1.013702
539.4558, 0.5893100
539.9379, 6.5475002E-02
540.4200, 0.3451230
540.9022, 0.7052150
541.3843, 1.101730
541.8664, 1.550659
542.3485, 2.004791
542.8306, 2.482697
543.3127, 2.776627
543.7948, 2.875687
544.2769, 2.849457
544.7590, 2.846558
545.2411, 2.949875
545.7233, 2.895233
546.2054, 2.056427
546.6875, 0.5326840
547.1696, 5.0613001E-02
547.6517, 0.9044040
548.1339, 2.164413
548.6160, 2.782578
549.0981, 2.892059
549.5802, 2.809677
550.0623, 2.192780
550.5444, 1.692062
551.0266, 1.706924
551.5087, 2.137283
551.9908, 2.844681
552.4729, 3.802170
552.9550, 4.745224
553.4371, 5.371017
553.9193, 5.683517
554.4014, 5.606827
554.8835, 4.868652
555.3656, 4.106308
555.8477, 3.447174
556.3298, 2.941757
556.8120, 2.730057
557.2941, 2.843475
557.7762, 2.979843
558.2583, 2.601288
558.7404, 1.598282
559.2225, 1.043762
559.7047, 1.324631
560.1868, 1.596054
560.6689, 1.247635
561.1510, 0.6744540
561.6331, 0.5911710
562.1152, 1.245422
562.5974, 2.074142
563.0795, 2.810059
563.5616, 3.296478
564.0437, 3.248230
564.5258, 2.490494
565.0079, 1.748856
565.4901, 1.770264
565.9722, 2.520691
566.4543, 2.953278
566.9364, 2.967255
567.4185, 2.780228
567.9006, 2.156570
568.3828, 1.504608
568.8649, 1.521378
569.3470, 2.330078
569.8291, 3.312943
570.3112, 3.789780
570.7933, 3.754868
571.2755, 3.289413
571.7576, 1.512054
572.2397, 0.4691470
572.7218, 1.089859
573.2039, 2.365952
573.6860, 3.240601
574.1682, 3.448318
574.6503, 3.350403
575.1324, 3.262970
575.6145, 3.157059
576.0966, 2.818420
576.5787, 2.129913
577.0609, 1.625610
577.5430, 1.769272
578.0251, 2.288757
578.5072, 2.493576
578.9893, 2.185196
579.4714, 1.980347
579.9536, 2.383331
580.4357, 2.882141
580.9178, 2.578903
581.3999, 1.525314
581.8820, 0.8724670
582.3641, 1.599335
582.8463, 3.387726
583.3284, 4.388718
583.8105, 4.396942
584.2926, 3.850571
584.7747, 2.028122
585.2568, 0.2641140
585.7390, 0.2747190
586.2211, 0.3154910
586.7032, 1.021912
587.1853, 1.089447
587.6674, 0.7816160
588.1495, 0.9358830
588.6317, 1.696060
589.1138, 1.873260
589.5959, 0.7990720
590.0780, 0.5017400
590.5601, 0.6794590
591.0422, 0.2420350
591.5244, 1.044464
592.0065, 1.137695
592.4886, 1.131088
592.9707, 1.769852
593.4528, 2.815506
593.9349, 3.306030
594.4171, 2.759628
594.8992, 1.847015
595.3813, 1.792114
595.8634, 3.085571
596.3455, 3.721817
596.8276, 3.220108
597.3098, 2.763443
597.7919, 3.223068
598.2740, 3.934570
598.7561, 3.558929
599.2382, 1.497665
599.7203, 0.7791140
600.2025, 1.088638
600.6846, 0.5066680
601.1667, 1.661667
601.6488, 1.968475
602.1309, 2.169556
602.6130, 3.019424
603.0952, 4.092438
603.5773, 4.429306
604.0594, 3.642609
604.5415, 2.771866
605.0236, 2.531784
605.5057, 2.562698
605.9879, 1.854858
606.4700, 0.3753050
606.9521, 0.5095520
607.4342, 0.5006870
607.9163, 3.061401
608.3984, 4.568359
608.8806, 4.487839
609.3627, 3.995590
609.8448, 2.678207
610.3269, 1.379120
610.8090, 0.8196560
611.2911, 0.9582210
611.7733, 1.216660
612.2554, 1.168839
612.7375, 0.9940490
613.2196, 1.164276
613.7017, 1.721588
614.1838, 2.180145
614.6660, 2.333252
615.1481, 2.407333
615.6302, 2.702301
616.1123, 3.200745
616.5944, 3.613022
617.0765, 4.187531
617.5587, 4.370667
618.0408, 3.386795
618.5229, 1.770447
619.0050, 0.6150210
619.4871, 0.3118590
619.9692, 0.7177730
620.4514, 1.773071
620.9335, 3.670090
621.4156, 4.775040
621.8977, 4.797562
622.3798, 4.290131
622.8619, 2.774612
623.3441, 1.146042
623.8262, 0.5734560
624.3083, 1.292419
624.7904, 2.225967
625.2725, 2.433533
625.7546, 2.158997
626.2367, 2.075684
626.7188, 2.231400
627.2009, 2.445114
627.6830, 2.763229
628.1652, 2.971664
628.6473, 2.421829
629.1294, 0.7392120
629.6115, 0.3643190
630.0936, 0.2882390
630.5757, 0.1436160
631.0579, 0.3633880
631.5400, 0.4166560
632.0221, 0.5878300
632.5042, 1.021790
632.9863, 1.597290
633.4684, 2.055878
633.9506, 2.332779
634.4327, 2.863998
634.9148, 4.160828
635.3969, 5.069885
635.8790, 4.957245
636.3611, 4.133820
636.8433, 2.996002
637.3254, 1.408997
637.8075, 0.2917940
638.2896, 0.8088990
638.7717, 2.126175
639.2538, 2.395279
639.7360, 1.407578
640.2181, 0.7783970
640.7002, 1.783035
641.1823, 3.915176
641.6644, 5.117126
642.1465, 4.658798
642.6287, 4.221085
643.1108, 3.780746
643.5929, 3.379471
644.0750, 3.115280
644.5571, 2.952606
645.0392, 2.878189
645.5214, 2.820007
646.0035, 2.771103
646.4856, 2.801025
646.9677, 2.925323
647.4498, 2.934738
647.9319, 2.649109
648.4141, 2.484039
648.8962, 3.100845
649.3783, 4.108078
649.8604, 4.180298
650.3425, 2.291458
650.8246, 0.7069400
651.3068, 0.3786010
651.7889, 0.8114620
652.2710, 1.712814
652.7531, 2.849167
653.2352, 3.496735
653.7173, 2.979523
654.1995, 1.705338
654.6816, 1.470963
655.1637, 2.828690
655.6458, 3.905060
656.1279, 4.393967
656.6100, 4.519180
657.0922, 4.315536
657.5743, 3.783005
658.0564, 3.064148
658.5385, 2.045624
659.0206, 1.220718
659.5027, 1.549240
659.9849, 2.496307
660.4670, 2.218536
660.9491, 0.2465520
661.4312, 1.489075
661.9133, 1.046265
662.3954, 1.354996
662.8776, 2.548538
663.3597, 0.9606780
663.8418, 0.2245640
664.3239, 1.711304
664.8060, 3.371399
665.2881, 3.381226
665.7703, 1.927032
666.2524, 0.7059780
666.7345, 0.8588100
667.2166, 1.755081
667.6987, 2.326584
668.1808, 2.576004
668.6630, 2.554214
669.1451, 2.181747
669.6272, 1.762711
670.1093, 1.627029
670.5914, 1.742722
671.0735, 1.700043
671.5557, 1.085709
672.0378, 0.8377840
672.5199, 1.764282
673.0020, 2.929657
673.4841, 3.025314
673.9662, 2.022964
674.4484, 1.177505
674.9305, 1.459579
675.4126, 2.456558
675.8947, 2.740814
676.3768, 2.132202
676.8589, 1.660095
677.3411, 1.548889
677.8232, 1.463318
678.3053, 1.019150
678.7874, 0.3741910
679.2695, 0.1357420
679.7516, 0.8587800
680.2338, 1.495712
680.7159, 1.060944
681.1980, 0.2827760
681.6801, 0.5184480
682.1622, 1.880371
682.6443, 3.182724
683.1265, 3.443161
683.6086, 2.855316
684.0907, 2.310059
684.5728, 1.595230
685.0549, 1.387390
685.5370, 2.342560
686.0192, 3.328949
686.5013, 3.656036
686.9834, 3.470352
687.4655, 3.284714
687.9476, 3.455429
688.4297, 3.531158
688.9119, 2.857285
689.3940, 1.784485
689.8761, 1.107635
690.3582, 0.9685670
690.8403, 1.232224
691.3224, 1.871964
691.8046, 2.766144
692.2867, 3.357971
692.7688, 3.818680
693.2509, 3.668732
693.7330, 2.034607
694.2151, 0.6211850
694.6973, 0.7559970
695.1794, 1.918640
695.6615, 2.687881
696.1436, 2.401001
696.6257, 1.740631
697.1078, 1.317856
697.5900, 1.140732
698.0721, 1.355530
698.5542, 2.018051
699.0363, 2.516708
699.5184, 2.388626
700.0005, 1.816742
700.4827, 1.450897
700.9648, 1.631485
701.4469, 1.453964
701.9290, 0.4152530
702.4111, 0.5204770
702.8932, 0.7061310
703.3754, 0.3493960
703.8575, 8.9157000E-02
704.3396, 0.4313350
704.8217, 0.6180270
705.3038, 0.3946530
705.7859, 8.2503997E-02
706.2681, 1.2573000E-02
706.7502, 0.8478850
707.2323, 1.555222
707.7144, 1.563110
708.1965, 1.212036
708.6786, 1.294403
709.1607, 1.930832
709.6428, 2.614243
710.1249, 3.818451
710.6071, 4.553604
711.0892, 3.842194
711.5713, 2.400040
712.0534, 1.412140
712.5355, 1.280563
713.0176, 1.621262
713.4998, 2.302399
713.9819, 3.147385
714.4640, 3.026947
714.9461, 1.814560
715.4282, 0.7904660
715.9103, 0.6546780
716.3925, 1.003159
716.8746, 1.204193
717.3567, 1.245834
717.8388, 1.365173
718.3209, 1.692612
718.8030, 1.917694
719.2852, 1.640747
719.7673, 1.306305
720.2494, 1.451508
720.7315, 2.070251
721.2136, 2.796661
721.6957, 3.418762
722.1779, 3.827423
722.6600, 3.349426
723.1421, 1.802902
723.6242, 1.024048
724.1063, 1.928864
724.5884, 3.160370
725.0706, 3.076233
725.5527, 1.815567
726.0348, 1.275574
726.5169, 2.433960
726.9990, 3.246353
727.4811, 2.816299
727.9633, 1.833710
728.4454, 0.9510040
728.9275, 0.2810820
729.4096, 0.3729710
729.8917, 1.240387
730.3738, 1.925873
730.8560, 1.359146
731.3381, 0.5057070
731.8202, 2.054153
732.3023, 3.185486
732.7844, 3.555618
733.2665, 2.459030
733.7487, 0.4076390
734.2308, 0.6425320
734.7129, 0.3135830
735.1950, 0.2937470
735.6771, 1.482468
736.1592, 2.430511
736.6414, 2.104355
737.1235, 1.020233
737.6056, 0.6584010
738.0877, 1.678802
738.5698, 3.040207
739.0519, 3.208160
739.5341, 2.339981
740.0162, 1.671967
740.4983, 1.236755
740.9804, 1.152679
741.4625, 1.662628
741.9446, 2.399567
742.4268, 2.651688
742.9089, 2.321213
743.3910, 2.067566
743.8731, 1.865448
744.3552, 1.834763
744.8373, 2.085220
745.3195, 2.519958
745.8016, 3.145859
746.2837, 3.886246
746.7658, 4.319382
747.2479, 3.916168
747.7300, 3.006485
748.2122, 2.462753
748.6943, 2.288467
749.1764, 2.367523
749.6585, 2.784958
750.1406, 3.129196
750.6227, 2.888092
751.1049, 2.089066
751.5870, 1.688568
752.0691, 1.777649
752.5512, 2.104553
753.0333, 3.100845
753.5154, 3.945282
753.9976, 3.751892
754.4797, 2.765274
754.9618, 1.972214
755.4439, 1.926712
755.9260, 2.087982
756.4081, 1.592697
756.8903, 0.6689000
757.3724, 0.4039310
757.8545, 0.9718780
758.3366, 1.361877
758.8187, 0.8073580
759.3008, 0.1436920
759.7830, 7.7987999E-02
760.2651, 1.637543
760.7472, 2.759705
761.2293, 3.445114
761.7114, 3.485474
762.1935, 1.937103
762.6757, 5.6046002E-02
763.1578, 0.2157750
763.6399, 1.471573
764.1220, 3.051666
764.6041, 2.752136
765.0862, 1.596115
765.5684, 1.147797
766.0505, 1.298248
766.5326, 1.308548
767.0147, 0.9228670
767.4968, 0.6907810
767.9789, 1.317093
768.4611, 2.741852
768.9432, 3.417603
769.4253, 2.719543
769.9074, 2.341537
770.3895, 3.377426
770.8716, 4.068542
771.3538, 2.588730
771.8359, 0.2801670
772.3180, 1.864899
772.8001, 0.7526400
773.2822, 0.6689760
773.7643, 0.7621460
774.2465, 0.1648410
774.7286, 0.4080660
775.2107, 0.7682190
775.6928, 0.6129000
776.1749, 0.2483670
776.6570, 1.541702
777.1392, 2.870712
777.6213, 4.345596
778.1034, 5.026810
778.5855, 4.522659
779.0676, 3.973541
779.5497, 3.937866
780.0319, 4.089127
780.5140, 4.009644
780.9961, 3.677002
781.4782, 3.307907
781.9603, 2.780426
782.4424, 2.414185
782.9246, 2.535599
783.4067, 2.870163
783.8888, 3.011383
784.3709, 2.890625
784.8530, 2.656937
785.3351, 2.306183
785.8173, 2.117996
786.2994, 3.093536
786.7815, 5.232742
787.2636, 6.566727
787.7457, 6.680573
788.2278, 6.023819
788.7100, 4.715027
789.1921, 3.092468
789.6742, 2.243515
790.1563, 2.810699
790.6384, 2.931137
791.1205, 1.669785
791.6026, 0.7843930
792.0847, 1.676224
792.5668, 3.483246
793.0490, 4.652786
793.5311, 4.700455
794.0132, 4.223557
794.4953, 3.482544
794.9774, 2.650070
795.4595, 1.906036
795.9417, 1.317612
796.4238, 1.404892
796.9059, 2.384277
797.3880, 3.300705
797.8701, 2.962524
798.3522, 1.505615
798.8344, 1.280029
799.3165, 3.204941
799.7986, 4.582321
800.2807, 4.874100
800.7628, 4.580399
801.2449, 3.485397
801.7271, 2.043579
802.2092, 1.506973
802.6913, 2.563278
803.1734, 3.550369
803.6555, 3.299591
804.1376, 2.778397
804.6198, 3.255112
805.1019, 4.413239
805.5840, 5.089676
806.0661, 4.781204
806.5482, 3.981247
807.0303, 3.269791
807.5125, 2.646576
807.9946, 1.995529
808.4767, 1.191315
808.9588, 1.159302
809.4409, 2.603088
809.9230, 4.295929
810.4052, 4.773148
810.8873, 4.027390
811.3694, 3.621826
811.8515, 3.669815
812.3336, 3.894791
812.8157, 4.463593
813.2979, 5.004105
813.7800, 5.364929
814.2621, 5.425476
814.7442, 4.732330
815.2263, 2.833084
815.7084, 1.515350
816.1906, 3.657349
816.6727, 7.259552
817.1548, 7.716003
817.6369, 5.173904
818.1190, 3.138275
818.6011, 3.189743
819.0833, 4.116409
819.5654, 4.128952
820.0475, 3.171906
820.5296, 2.939011
821.0117, 3.891525
821.4938, 4.609879
821.9760, 4.539597
822.4581, 4.242157
822.9402, 4.140442
823.4223, 4.212143
823.9044, 4.334564
824.3865, 4.653412
824.8687, 4.765274
825.3508, 4.158966
825.8329, 3.544968
826.3150, 3.720810
826.7971, 4.509460
827.2792, 5.329712
827.7614, 5.932800
828.2435, 6.185913
828.7256, 5.772614
829.2077, 4.858215
829.6898, 4.152664
830.1719, 3.606903
830.6541, 3.264465
831.1362, 2.980194
831.6183, 3.171066
832.1004, 4.597046
832.5825, 7.207108
833.0646, 8.430527
833.5468, 7.087692
834.0289, 6.238586
834.5110, 6.790817
834.9931, 7.375107
835.4752, 7.056427
835.9573, 6.090073
836.4395, 5.250763
836.9216, 4.831421
837.4037, 4.229538
837.8858, 2.476379
838.3679, 0.8805240
838.8500, 1.038971
839.3322, 2.501373
839.8143, 4.060074
840.2964, 5.249008
840.7785, 6.058640
841.2606, 6.458710
841.7427, 6.464874
842.2249, 5.947372
842.7070, 4.864670
843.1891, 4.390305
843.6712, 5.008713
844.1533, 5.640076
844.6354, 5.335327
845.1176, 4.324509
845.5997, 3.601959
846.0818, 2.839020
846.5639, 2.789352
847.0460, 4.345337
847.5281, 5.689011
848.0103, 5.747803
848.4924, 5.133865
848.9745, 4.747940
849.4566, 4.767593
849.9387, 4.801804
850.4208, 4.715515
850.9030, 4.516602
851.3851, 3.673294
851.8672, 2.840942
852.3493, 3.851059
852.8314, 6.685318
853.3135, 8.788223
853.7957, 8.055283
854.2778, 5.832397
854.7599, 5.079605
855.2420, 5.766876
855.7241, 6.689606
856.2062, 7.879303
856.6884, 8.495758
857.1705, 7.944580
857.6526, 6.721359
858.1347, 5.689590
858.6168, 4.846222
859.0989, 4.221191
859.5811, 3.435776
860.0632, 3.345337
860.5453, 4.788666
861.0274, 6.519531
861.5095, 7.631836
861.9916, 8.018311
862.4738, 7.663849
862.9559, 6.157150
863.4380, 4.696396
863.9201, 4.064178
864.4022, 3.902008
864.8843, 3.899414
865.3665, 3.962479
865.8486, 3.990875
866.3307, 3.941544
866.8128, 3.812805
867.2949, 3.481522
867.7770, 3.072281
868.2592, 3.231979
868.7413, 3.970505
869.2234, 4.629761
869.7055, 5.061432
870.1876, 5.200500
870.6697, 4.879639
871.1519, 4.240005
871.6340, 4.106583
872.1161, 4.847321
872.5981, 5.395004
873.0803, 5.592438
873.5624, 5.691452
874.0445, 5.819397
874.5266, 5.883911
875.0087, 5.776459
875.4908, 5.476685
875.9730, 5.089783
876.4551, 4.367981
876.9372, 3.878693
877.4193, 4.186798
877.9014, 4.825378
878.3835, 5.192688
878.8657, 5.212769
879.3478, 5.188156
879.8299, 5.350388
880.3120, 5.442902
880.7941, 4.974304
881.2762, 4.151917
881.7584, 3.680206
882.2405, 3.588470
882.7226, 3.423035
883.2047, 2.947067
883.6868, 2.658600
884.1689, 3.457108
884.6511, 2.451508
885.1332, 5.052353
885.6153, 1.656494
886.0974, 0.4776920
886.5795, 1.5300000E-04
887.0616, 1.347763
887.5438, 2.571075
888.0259, 3.614639
888.5080, 4.339172
888.9901, 4.771774
889.4722, 4.805847
889.9543, 3.830078
890.4365, 3.098236
890.9186, 3.737457
891.4007, 4.777420
891.8828, 4.645050
892.3649, 3.293060
892.8470, 2.376282
893.3292, 3.410583
893.8113, 4.596420
894.2934, 3.684616
894.7755, 1.946350
895.2576, 1.871338
895.7397, 3.390656
896.2219, 4.594330
896.7040, 4.476044
897.1861, 3.711700
897.6682, 3.210876
898.1503, 2.952026
898.6324, 2.791168
899.1146, 2.744370
899.5967, 2.545120
900.0788, 2.098785
900.5609, 1.510269
901.0430, 0.8531190
901.5251, 0.1478580
902.0073, 0.4955600
902.4894, 1.260849
902.9715, 1.589661
903.4536, 1.122101
903.9357, 0.5989840
904.4178, 0.5778500
904.9000, 0.5841520
905.3821, 0.2844540
905.8642, 2.169983
906.3463, 3.245300
906.8284, 2.624542
907.3105, 1.635574
907.7927, 0.5205380
908.2748, 0.3946230
908.7569, 0.6975710
909.2390, 0.5029910
909.7211, 0.3565370
910.2032, 0.5734410
910.6854, 0.4403080
911.1675, 1.309036
911.6496, 3.503403
912.1317, 4.015274
912.6138, 3.198532
913.0959, 2.654160
913.5781, 2.851776
914.0602, 3.084091
914.5423, 2.651611
915.0244, 1.818695
915.5065, 1.294159
915.9886, 1.082870
916.4708, 1.666595
916.9529, 3.186432
917.4350, 4.075378
917.9171, 3.483643
918.3992, 2.182465
918.8813, 1.515442
919.3635, 1.562881
919.8456, 1.611725
920.3277, 1.563690
920.8098, 1.655914
921.2919, 2.131607
921.7740, 2.592041
922.2562, 2.777130
922.7383, 2.731049
923.2204, 2.565948
923.7025, 2.106400
924.1846, 2.163254
924.6667, 3.870834
925.1489, 5.126617
925.6310, 4.011566
926.1131, 2.001755
926.5952, 1.219498
927.0773, 1.887650
927.5594, 2.736450
928.0416, 3.242874
928.5237, 3.219299
929.0058, 2.241791
929.4879, 0.9110410
929.9700, 0.1190190
930.4521, 0.1000820
930.9343, 8.5906997E-02
931.4164, 2.4413999E-02
931.8985, 0.5556640
932.3806, 2.300034
932.8627, 4.614670
933.3448, 5.276535
933.8270, 4.302078
934.3091, 2.992050
934.7912, 1.581039
935.2733, 0.4907380
935.7554, 2.6520001E-02
936.2375, 7.8506000E-02
936.7197, 0.4740600
937.2018, 1.355927
937.6839, 1.710770
938.1660, 1.235550
938.6481, 1.034073
939.1302, 1.743851
939.6124, 2.510345
940.0945, 2.247253
940.5766, 1.129883
941.0587, 0.8343350
941.5408, 2.232025
942.0229, 3.078125
942.5051, 2.897934
942.9872, 2.548645
943.4693, 2.452774
943.9514, 2.422638
944.4335, 2.094543
944.9156, 1.441269
945.3978, 1.247620
945.8799, 2.231476
946.3620, 3.190506
946.8441, 3.362473
947.3262, 3.317734
947.8083, 3.990082
948.2905, 4.923248
948.7726, 4.527603
949.2547, 2.197250
949.7368, 0.2563020
950.2189, 1.204849
950.7010, 3.239746
951.1832, 4.077255
951.6653, 3.982788
952.1474, 3.548096
952.6295, 2.986191
953.1116, 2.618881
953.5938, 2.658279
954.0759, 2.949265
954.5580, 3.376846
955.0400, 3.849014
955.5222, 3.754562
956.0043, 3.090515
956.4864, 2.671066
956.9685, 2.789398
957.4506, 2.919525
957.9327, 2.493317
958.4149, 1.725922
958.8970, 1.640610
959.3791, 2.484711
959.8612, 2.651093
960.3433, 1.666489
960.8254, 0.9533080
961.3076, 1.399490
961.7897, 2.255447
962.2718, 2.460983
962.7539, 2.000763
963.2360, 1.660934
963.7181, 1.181122
964.2003, 1.154190
964.6824, 2.239380
965.1645, 3.135773
965.6466, 3.041046
966.1287, 2.324463
966.6108, 1.486786
967.0930, 0.5142970
967.5751, 0.3797910
968.0572, 2.323944
968.5393, 3.809769
969.0214, 3.373077
969.5035, 2.410294
969.9857, 2.161530
970.4678, 2.544403
970.9499, 3.085648
971.4320, 3.710526
971.9141, 3.905624
972.3962, 3.273636
972.8784, 2.178146
973.3605, 0.2088470
973.8426, 1.643356
974.3247, 1.503342
974.8068, 0.4506840
975.2889, 2.318512
975.7711, 3.121948
976.2532, 3.093704
976.7353, 1.782471
977.2174, 0.1816410
977.6995, 0.6322480
978.1816, 2.479065
978.6638, 2.929413
979.1459, 1.358353
979.6280, 0.2938840
980.1101, 0.4407810
980.5922, 0.2500610
981.0743, 0.3555910
981.5565, 2.8610000E-02
982.0386, 0.3283690
982.5207, 1.306992
983.0028, 2.142838
983.4849, 2.542252
983.9670, 2.367249
984.4492, 1.298996
984.9313, 0.3107300
985.4134, 0.6478580
985.8955, 0.5107420
986.3776, 1.209259
986.8597, 1.104507
987.3419, 1.127640
987.8240, 1.812881
988.3061, 2.673981
988.7882, 3.101868
989.2703, 3.099930
989.7524, 2.408768
990.2346, 2.9526001E-02
990.7167, 0.7818600
991.1988, 1.723328
991.6809, 3.945145
992.1630, 3.500977
992.6451, 1.676926
993.1273, 0.6913450
993.6094, 0.6106110
994.0915, 0.7668150
994.5736, 1.638412
995.0557, 2.086777
995.5378, 1.024673
996.0200, 0.3215030
996.5021, 2.017151
996.9842, 4.741821
997.4663, 5.529495
997.9484, 3.703964
998.4305, 2.131546
998.9127, 1.112946
999.3948, 0.8918760
999.8769, 2.531006
1000.359, 4.372192
1000.841, 4.878082
1001.323, 4.253922
1001.805, 3.263535
1002.287, 2.014786
1002.770, 1.283173
1003.252, 1.830276
1003.734, 2.648407
1004.216, 3.232773
1004.698, 3.500183
1005.180, 3.255875
1005.662, 2.632126
1006.144, 2.027283
1006.627, 1.574677
1007.109, 1.447021
1007.591, 2.108231
1008.073, 2.906219
1008.555, 3.001556
1009.037, 2.613007
1009.519, 2.071991
1010.001, 1.549591
1010.483, 1.333862
1010.966, 1.589752
1011.448, 2.220566
1011.930, 3.586929
1012.412, 5.013214
1012.894, 4.778427
1013.376, 3.423264
1013.858, 3.147629
1014.340, 4.262054
1014.823, 4.692795
1015.305, 2.830963
1015.787, 0.3850860
1016.269, 0.5552980
1016.751, 2.527161
1017.233, 3.097885
1017.715, 2.336426
1018.197, 1.816528
1018.679, 1.983139
1019.162, 2.364990
1019.644, 2.604202
1020.126, 2.707581
1020.608, 2.577652
1021.090, 2.260666
1021.572, 2.588242
1022.054, 3.625031
1022.536, 3.933838
1023.018, 2.973022
1023.501, 1.885834
1023.983, 1.695480
1024.465, 2.203476
1024.947, 2.674240
1025.429, 3.048111
1025.911, 3.506790
1026.393, 4.075928
1026.875, 4.669708
1027.358, 5.343140
1027.840, 5.748779
1028.322, 5.513962
1028.804, 4.761108
1029.286, 3.895279
1029.768, 2.667603
1030.250, 2.504944
1030.732, 4.036835
1031.214, 4.932266
1031.697, 4.016495
1032.179, 2.599075
1032.661, 1.841660
1033.143, 1.613007
1033.625, 1.765091
1034.107, 2.509109
1034.589, 3.137405
1035.071, 3.838806
1035.553, 4.038025
1036.036, 3.101776
1036.518, 2.046387
1037.000, 1.914551
1037.482, 2.542923
1037.964, 3.227371
1038.446, 4.445221
1038.928, 4.841599
1039.410, 3.409958
1039.893, 2.537949
1040.375, 3.730835
1040.857, 5.202332
1041.339, 4.891922
1041.821, 3.244720
1042.303, 2.720093
1042.785, 4.405411
1043.267, 5.085999
1043.750, 3.869919
1044.232, 2.692551
1044.714, 2.249222
1045.196, 2.157761
1045.678, 1.826416
1046.160, 1.467484
1046.642, 2.242096
1047.124, 5.511169
1047.606, 7.065613
1048.089, 4.571304
1048.571, 2.388718
1049.053, 3.009567
1049.535, 4.337799
1050.017, 4.135803
1050.499, 2.771957
1050.981, 2.242126
1051.463, 3.199387
1051.945, 4.083786
1052.428, 4.771881
1052.910, 5.077545
1053.392, 4.881973
1053.874, 4.293533
1054.356, 3.253464
1054.838, 1.958832
1055.320, 0.7358860
1055.802, 0.5301820
1056.285, 0.8118590
1056.767, 1.290726
1057.249, 3.280579
1057.731, 3.793243
1058.213, 3.637405
1058.695, 3.425552
1059.177, 3.290146
1059.659, 3.435806
1060.141, 4.068848
1060.624, 4.211960
1061.106, 2.793930
1061.588, 1.688675
1062.070, 2.195892
1062.552, 3.235809
1063.034, 3.660950
1063.516, 3.589981
1063.998, 3.584488
1064.480, 3.794250
1064.963, 3.941986
1065.445, 3.663345
1065.927, 3.606903
1066.409, 4.648895
1066.891, 5.623550
1067.373, 4.905106
1067.855, 3.283295
1068.337, 3.056046
1068.820, 4.878189
1069.302, 5.865692
1069.784, 3.695770
1070.266, 1.763519
1070.748, 2.250351
1071.230, 3.389130
1071.712, 3.698151
1072.194, 3.254150
1072.677, 2.382309
1073.159, 1.183960
1073.641, 0.4850770
1074.123, 0.8499450
1074.605, 1.548584
1075.087, 2.454880
1075.569, 3.306747
1076.051, 4.062500
1076.533, 4.524109
1077.016, 4.217163
1077.498, 3.137985
1077.980, 2.259567
1078.462, 1.951935
1078.944, 1.987473
1079.426, 2.803223
1079.908, 3.384644
1080.390, 2.645737
1080.872, 1.241394
1081.354, 8.6319000E-02
1081.837, 0.5766910
1082.319, 0.6662290
1082.801, 2.6535001E-02
1083.283, 1.114700
1083.765, 3.206879
1084.247, 4.807663
1084.729, 4.495239
1085.211, 3.208450
1085.694, 2.017609
1086.176, 1.172455
1086.658, 0.8759460
1087.140, 1.436951
1087.622, 1.858810
1088.104, 1.673935
1088.586, 1.269913
1089.068, 0.4854890
1089.551, 9.0407997E-02
1090.033, 0.5747380
1090.515, 2.060638
1090.997, 2.639618
1091.479, 1.560837
1091.961, 0.9078220
1092.443, 2.072052
1092.925, 3.121964
1093.407, 3.008850
1093.890, 2.334595
1094.372, 1.513000
1094.854, 0.7159730
1095.336, 0.2597200
1095.818, 0.3189850
1096.300, 0.3303070
1096.782, 1.9135000E-02
1097.264, 0.2693180
1097.746, 0.2251740
1098.229, 2.5238000E-02
1098.711, 0.2482450
1099.193, 0.5813600
1099.675, 1.048645
1100.157, 1.657150
1100.639, 1.953552
1101.121, 1.551773
1101.603, 1.210144
1102.086, 1.108139
1102.568, 1.149994
1103.050, 1.334595
1103.532, 1.590469
1104.014, 1.869080
1104.496, 2.149048
1104.978, 2.287949
1105.460, 2.246704
1105.943, 2.088348
1106.425, 1.394882
1106.907, 1.102539
1107.389, 2.007629
1107.871, 3.238083
1108.353, 4.045456
1108.835, 4.361893
1109.317, 4.047287
1109.799, 2.712051
1110.281, 1.688446
1110.764, 1.305878
1111.246, 0.9376680
1111.728, 9.7411998E-02
1112.210, 0.5160370
1112.692, 1.2604000E-02
1113.174, 0.5489810
1113.656, 1.172195
1114.138, 0.2703550
1114.621, 0.6342320
1115.103, 0.5298460
1115.585, 1.950867
1116.067, 4.208023
1116.549, 5.620270
1117.031, 4.718140
1117.513, 2.761932
1117.995, 1.820541
1118.478, 1.914322
1118.960, 1.526840
1119.442, 0.1291200
1119.924, 0.4704280
1120.406, 5.5817001E-02
1120.888, 1.126831
1121.370, 3.028717
1121.852, 4.490265
1122.334, 3.759171
1122.817, 1.374725
1123.299, 0.3827360
1123.781, 1.232086
1124.263, 1.506470
1124.745, 0.8491210
1125.227, 0.8492280
1125.709, 2.329773
1126.191, 3.425278
1126.673, 2.354218
1127.156, 0.2315220
1127.638, 0.1231380
1128.120, 1.361115
1128.602, 2.471710
1129.084, 3.213272
1129.566, 3.317261
1130.048, 2.639908
1130.530, 2.199829
1131.013, 2.645996
1131.495, 3.304840
1131.977, 3.079926
1132.459, 2.258743
1132.941, 2.536423
1133.423, 2.163055
1133.905, 1.572449
1134.387, 2.001266
1134.870, 0.7664790
1135.352, 0.7092290
1135.834, 1.087021
1136.316, 1.199875
1136.798, 1.241653
1137.280, 1.929291
1137.762, 2.856674
1138.244, 2.046616
1138.726, 1.7197000E-02
1139.208, 0.4760890
1139.691, 1.153824
1140.173, 3.104492
1140.655, 4.372925
1141.137, 4.876526
1141.619, 4.256668
1142.101, 3.042908
1142.583, 1.834869
1143.065, 0.9111940
1143.548, 0.9967650
1144.030, 1.957993
1144.512, 3.135178
1144.994, 4.160599
1145.476, 4.790390
1145.958, 4.649612
1146.440, 4.208282
1146.922, 3.882874
1147.405, 3.573380
1147.887, 2.977722
1148.369, 2.384201
1148.851, 2.531128
1149.333, 3.425720
1149.815, 4.249359
1150.297, 4.892456
1150.779, 4.636673
1151.261, 1.879349
1151.744, 0.6348270
1152.226, 0.7353670
1152.708, 0.4452820
1153.190, 1.928085
1153.672, 3.295959
1154.154, 3.868317
1154.636, 3.405029
1155.118, 2.745239
1155.600, 1.751633
1156.083, 1.185440
1156.565, 1.586838
1157.047, 2.198502
1157.529, 2.665817
1158.011, 2.902298
1158.493, 2.683105
1158.975, 2.016556
1159.457, 1.715195
1159.940, 2.213562
1160.422, 2.437881
1160.904, 1.905640
1161.386, 1.780273
1161.868, 3.047043
1162.350, 4.148163
1162.832, 3.339645
1163.314, 3.841400
1163.796, 3.583466
1164.279, 2.674622
1164.761, 2.818008
1165.243, 0.8178710
1165.725, 0.1813660
1166.207, 2.010590
1166.689, 3.810135
1167.171, 4.202286
1167.653, 3.738449
1168.135, 3.233505
1168.618, 2.755920
1169.100, 2.638000
1169.582, 2.488113
1170.064, 2.400223
1170.546, 2.651413
1171.028, 2.625046
1171.510, 3.041061
1171.992, 3.473038
1172.474, 3.695114
1172.957, 3.775528
1173.439, 3.593689
1173.921, 3.236328
1174.403, 2.989014
1174.885, 2.804230
1175.367, 2.432251
1175.849, 1.877457
1176.331, 1.274124
1176.814, 0.6893920
1177.296, 0.3038020
1177.778, 0.1190490
1178.260, 0.4289250
1178.742, 2.127762
1179.224, 3.965469
1179.706, 3.744354
1180.188, 2.491440
1180.671, 2.905182
1181.153, 4.998413
1181.635, 5.840332
1182.117, 3.726639
1182.599, 1.771210
1183.081, 1.830978
1183.563, 2.355911
1184.045, 2.507431
1184.527, 2.543121
1185.010, 2.897430
1185.492, 3.321854
1185.974, 3.180511
1186.456, 2.328949
1186.938, 1.678253
1187.420, 0.9706420
1187.902, 1.092621
1188.384, 3.189911
1188.866, 4.900177
1189.349, 4.848022
1189.831, 4.285187
1190.313, 4.689911
1190.795, 5.619720
1191.277, 5.094040
1191.759, 5.823059
1192.241, 6.586884
1192.723, 5.601517
1193.206, 7.213226
1193.688, 5.278244
1194.170, 2.812241
1194.652, 1.491516
1195.134, 0.9490360
1195.616, 0.8804020
1196.098, 1.207382
1196.580, 1.589767
1197.063, 2.024612
1197.545, 3.014252
1198.027, 4.406723
1198.509, 4.755447
1198.991, 3.722397
1199.473, 2.597305
1199.955, 2.296829
1200.437, 2.099915
1200.919, 0.5113680
1201.401, 1.179825
1201.884, 0.4692380
1202.366, 1.540802
1202.848, 2.417923
1203.330, 2.145920
1203.812, 1.553894
1204.294, 0.9646450
1204.776, 0.7460780
1205.258, 1.382813
1205.741, 1.910721
1206.223, 1.428833
1206.705, 0.9017790
1207.187, 1.100906
1207.669, 1.667816
1208.151, 2.340790
1208.633, 2.920059
1209.115, 2.872879
1209.598, 1.873444
1210.080, 1.350998
1210.562, 1.898911
1211.044, 2.462601
1211.526, 2.802612
1212.008, 3.190475
1212.490, 4.081558
1212.972, 4.711105
1213.454, 3.935181
1213.937, 2.167862
1214.419, 1.482162
1214.901, 2.140396
1215.383, 2.536621
1215.865, 2.601959
1216.347, 2.883896
1216.829, 3.571487
1217.311, 3.837067
1217.793, 3.150375
1218.276, 2.167618
1218.758, 1.723862
1219.240, 1.719360
1219.722, 2.259613
1220.204, 2.938843
1220.686, 1.637283
1221.168, 0.9649510
1221.650, 1.392319
1222.133, 0.8043520
1222.615, 2.751144
1223.097, 2.858322
1223.579, 2.068954
1224.061, 0.5058440
1224.543, 0.7577510
1225.025, 0.3183440
1225.507, 0.7480010
1225.990, 1.195557
1226.472, 1.214890
1226.954, 1.615799
1227.436, 2.405045
1227.918, 2.435440
1228.400, 0.7061160
1228.882, 0.3842010
1229.364, 9.6832000E-02
1229.846, 0.6880340
1230.328, 2.571701
1230.811, 3.850769
1231.293, 2.622528
1231.775, 0.3615880
1232.257, 0.1383820
1232.739, 1.107269
1233.221, 2.384338
1233.703, 3.908005
1234.185, 4.344574
1234.668, 3.330154
1235.150, 2.828781
1235.632, 3.547867
1236.114, 4.363953
1236.596, 4.382996
1237.078, 4.080521
1237.560, 4.319504
1238.042, 4.904785
1238.525, 5.473892
1239.007, 5.782120
1239.489, 4.650970
1239.971, 2.480728
1240.453, 1.021606
1240.935, 0.8085780
1241.417, 1.463379
1241.899, 3.125336
1242.381, 4.272476
1242.864, 3.200470
1243.346, 1.662537
1243.828, 0.7024990
1244.310, 0.4371490
1244.792, 0.9445650
1245.274, 1.978668
1245.756, 3.345749
1246.238, 4.991211
1246.720, 5.414185
1247.203, 3.011337
1247.685, 1.629410
1248.167, 2.377350
1248.649, 2.855392
1249.131, 1.977585
1249.613, 1.261368
1250.095, 2.173401
1250.577, 3.520432
1251.059, 2.714767
1251.542, 6.0272001E-02
1252.024, 0.5637210
1252.506, 0.8246000
1252.988, 1.722931
1253.470, 1.643295
1253.952, 1.688904
1254.434, 1.795578
1254.916, 2.240356
1255.399, 3.487015
1255.881, 4.729568
1256.363, 4.884888
1256.845, 4.419174
1257.327, 3.774277
1257.809, 3.138199
1258.291, 2.436798
1258.773, 1.750046
1259.255, 1.348114
1259.738, 1.214859
1260.220, 1.032486
1260.702, 0.6120610
1261.184, 0.3533170
1261.666, 0.2924500
1262.148, 0.5430600
1262.630, 1.768143
1263.112, 2.661942
1263.594, 1.919449
1264.077, 0.5772550
1264.559, 0.1831210
1265.041, 0.6078800
1265.523, 0.7054140
1266.005, 0.3202820
1266.487, 0.6224820
1266.969, 1.745667
1267.451, 2.583694
1267.934, 2.875916
1268.416, 2.753998
1268.898, 2.138382
1269.380, 1.685272
1269.862, 1.742325
1270.344, 2.109619
1270.826, 2.513885
1271.308, 2.906525
1271.791, 3.355148
1272.273, 3.648148
1272.755, 3.200211
1273.237, 2.146591
1273.719, 1.300461
1274.201, 0.9390560
1274.683, 0.7121280
1275.165, 0.4944310
1275.647, 0.3323210
1276.130, 5.3771999E-02
1276.612, 5.8577999E-02
1277.094, 1.007233
1277.576, 1.995773
1278.058, 1.821945
1278.540, 1.037140
1279.022, 1.322983
1279.504, 1.013947
1279.986, 0.5639340
1280.469, 1.147766
1280.951, 0.3517760
1281.433, 0.8810880
1281.915, 2.133484
1282.397, 3.913483
1282.879, 4.657623
1283.361, 2.988144
1283.843, 0.7139890
1284.326, 1.0483000E-02
1284.808, 0.0000000E+00
##END=



