##NAMES=Djurleite
##RRUFFID=R070333
##IDEAL CHEMISTRY=Cu_31_S_16_
##LOCALITY=Cornwall, England
##OWNER=RRUFF
##SOURCE=Michael Scott
##DESCRIPTION=Aggregate of black metallic prismatic crystals with bluish tarnish
##STATUS=The identification of this mineral has been confirmed by X-ray diffraction and chemical analysis
##URL=rruff.info/R070333
##MEASURED CHEMISTRY=Cu_30.75_S_16_ = Cu_1.92_S
146.1616, 0.0000000E+00
146.6437, 14.24619
147.1258, 27.18613
147.6079, 39.55023
148.0901, 51.00375
148.5722, 50.46054
149.0543, 27.99646
149.5364, 7.244843
150.0185, 1.713867
150.5006, 15.30698
150.9828, 27.23694
151.4649, 30.18375
151.9470, 25.18802
152.4291, 25.31494
152.9112, 34.36514
153.3933, 43.91373
153.8755, 47.93631
154.3576, 39.24240
154.8397, 31.29462
155.3218, 27.07443
155.8039, 27.16800
156.2860, 27.99213
156.7682, 31.69614
157.2503, 34.87183
157.7324, 33.91748
158.2145, 13.76498
158.6966, 1.375153
159.1787, 1.691864
159.6609, 34.33670
160.1430, 61.91788
160.6251, 73.33398
161.1072, 71.84296
161.5893, 64.55350
162.0714, 46.53345
162.5536, 28.98962
163.0357, 18.59973
163.5178, 23.19559
163.9999, 29.44565
164.4820, 31.73651
164.9641, 31.87115
165.4463, 30.70557
165.9284, 24.74493
166.4105, 18.78860
166.8926, 15.84027
167.3747, 28.46548
167.8568, 43.10199
168.3390, 40.19476
168.8211, 21.02109
169.3032, 5.389526
169.7853, 11.05469
170.2674, 28.83450
170.7495, 42.35728
171.2317, 42.65811
171.7138, 43.72208
172.1959, 40.83369
172.6780, 35.95773
173.1601, 31.26437
173.6422, 27.12256
174.1244, 23.73402
174.6065, 21.43069
175.0886, 20.09155
175.5707, 22.56708
176.0528, 26.48567
176.5349, 39.40955
177.0171, 51.73566
177.4992, 49.34583
177.9813, 33.87494
178.4634, 18.70622
178.9455, 16.21880
179.4276, 22.07712
179.9098, 25.67577
180.3919, 21.30475
180.8740, 13.95076
181.3561, 12.87633
181.8382, 18.40588
182.3203, 23.77509
182.8025, 20.49771
183.2846, 10.66841
183.7667, 2.626419
184.2488, 1.461456
184.7309, 4.816681
185.2130, 5.010620
185.6951, 0.8012540
186.1773, 2.055115
186.6594, 9.222260
187.1415, 32.75830
187.6236, 48.66064
188.1057, 38.48721
188.5878, 9.048965
189.0700, 5.754120
189.5521, 0.6311800
190.0342, 17.42995
190.5163, 25.66670
190.9984, 25.06607
191.4805, 21.83142
191.9627, 20.04544
192.4448, 19.54979
192.9269, 18.08536
193.4090, 14.09312
193.8911, 9.548294
194.3732, 13.24420
194.8554, 27.23256
195.3375, 38.10504
195.8196, 28.67145
196.3017, 1.673843
196.7838, 23.46999
197.2659, 26.97018
197.7481, 15.00107
198.2302, 6.274399
198.7123, 1.433624
199.1944, 2.053940
199.6765, 6.885590
200.1586, 13.12675
200.6408, 20.68369
201.1229, 32.24699
201.6050, 47.95645
202.0871, 52.05669
202.5692, 41.84995
203.0513, 24.19823
203.5335, 8.647552
204.0156, 5.420410
204.4977, 13.23373
204.9798, 10.73425
205.4619, 3.629593
205.9440, 17.37704
206.4262, 31.37033
206.9083, 43.64438
207.3904, 48.76891
207.8725, 45.42905
208.3546, 38.40825
208.8367, 28.33069
209.3189, 12.63403
209.8010, 5.483826
210.2831, 11.53772
210.7652, 26.58797
211.2473, 30.83951
211.7294, 20.18289
212.2116, 6.824173
212.6937, 0.2918400
213.1758, 0.4181210
213.6579, 3.312653
214.1400, 11.96707
214.6221, 25.02914
215.1043, 33.90515
215.5864, 37.39108
216.0685, 38.60542
216.5506, 40.58009
217.0327, 44.44633
217.5148, 47.10391
217.9970, 47.99588
218.4791, 47.13210
218.9612, 43.96805
219.4433, 37.44931
219.9254, 29.72746
220.4075, 23.63246
220.8897, 19.78490
221.3718, 16.24521
221.8539, 11.17279
222.3360, 2.326462
222.8181, 3.458344
223.3002, 20.62357
223.7824, 43.96454
224.2645, 54.61331
224.7466, 46.37094
225.2287, 36.32147
225.7108, 31.07248
226.1929, 20.29919
226.6750, 36.29228
227.1572, 45.28018
227.6393, 47.82494
228.1214, 24.39644
228.6035, 34.57388
229.0856, 31.27994
229.5677, 27.39948
230.0499, 42.25328
230.5320, 22.55367
231.0141, 37.10530
231.4962, 37.96896
231.9783, 45.07907
232.4604, 38.63141
232.9426, 25.31488
233.4247, 18.69029
233.9068, 18.33667
234.3889, 17.11893
234.8710, 12.79185
235.3531, 6.230042
235.8353, 6.181915
236.3174, 16.08765
236.7995, 28.51617
237.2816, 38.70442
237.7637, 49.07776
238.2458, 52.03447
238.7280, 42.94112
239.2101, 22.15428
239.6922, 10.88451
240.1743, 11.72321
240.6564, 19.38144
241.1385, 30.50182
241.6207, 52.69818
242.1028, 64.27890
242.5849, 56.77069
243.0670, 27.38573
243.5491, 13.40573
244.0313, 24.71843
244.5134, 43.80911
244.9955, 48.07697
245.4776, 26.15300
245.9597, 8.851776
246.4418, 4.361298
246.9240, 14.43497
247.4061, 24.96581
247.8882, 37.76385
248.3703, 49.16747
248.8524, 53.78181
249.3345, 48.71857
249.8167, 41.76300
250.2988, 34.42853
250.7809, 25.67474
251.2630, 20.60234
251.7451, 19.52199
252.2272, 21.99205
252.7094, 28.10309
253.1915, 41.71924
253.6736, 52.28903
254.1557, 54.78397
254.6378, 44.83849
255.1199, 37.31525
255.6021, 32.84647
256.0842, 31.75665
256.5663, 36.05273
257.0484, 49.75638
257.5305, 61.39581
258.0126, 64.87219
258.4948, 55.40002
258.9769, 51.74884
259.4590, 56.96649
259.9411, 67.08371
260.4232, 70.87158
260.9053, 65.43637
261.3875, 58.95850
261.8696, 55.50308
262.3517, 56.70279
262.8338, 56.41544
263.3159, 55.32281
263.7980, 52.28311
264.2802, 44.81152
264.7623, 30.17648
265.2444, 16.42255
265.7265, 7.144348
266.2086, 1.439545
266.6907, 5.024170
267.1729, 22.16461
267.6550, 48.15155
268.1371, 65.05374
268.6192, 70.31317
269.1013, 71.75244
269.5834, 75.11798
270.0656, 81.68106
270.5477, 83.88318
271.0298, 80.24020
271.5119, 71.74887
271.9940, 60.55212
272.4761, 44.01779
272.9583, 31.61075
273.4404, 33.69461
273.9225, 54.36432
274.4046, 65.95667
274.8867, 61.17944
275.3688, 44.67899
275.8510, 38.56323
276.3331, 45.56973
276.8152, 54.86133
277.2973, 57.21991
277.7794, 51.98529
278.2615, 45.77338
278.7437, 38.36301
279.2258, 31.10153
279.7079, 31.26358
280.1900, 40.19815
280.6721, 51.24219
281.1542, 59.32019
281.6364, 64.45157
282.1185, 65.79880
282.6006, 61.53317
283.0827, 53.69162
283.5648, 50.73419
284.0469, 53.13776
284.5291, 57.93597
285.0112, 64.73657
285.4933, 73.30087
285.9754, 74.96756
286.4575, 63.55206
286.9396, 44.59183
287.4217, 37.50327
287.9038, 42.94330
288.3860, 55.46619
288.8681, 75.21484
289.3502, 100.3448
289.8323, 115.2087
290.3144, 111.1942
290.7965, 95.05804
291.2787, 86.06082
291.7608, 84.75702
292.2429, 84.16391
292.7250, 73.59866
293.2071, 56.19553
293.6892, 48.09760
294.1714, 60.15002
294.6535, 82.45653
295.1356, 93.32669
295.6177, 92.47720
296.0998, 87.11005
296.5819, 82.91507
297.0641, 79.54848
297.5462, 75.95592
298.0283, 72.00735
298.5104, 67.52504
298.9925, 60.96887
299.4746, 52.31102
299.9568, 45.63705
300.4389, 43.89789
300.9210, 46.85396
301.4031, 54.22340
301.8852, 72.50296
302.3673, 91.78523
302.8495, 94.96815
303.3316, 82.06943
303.8137, 68.30733
304.2958, 69.63120
304.7779, 78.20215
305.2600, 79.90218
305.7422, 57.83167
306.2243, 35.49637
306.7064, 38.46037
307.1885, 64.42378
307.6706, 87.72475
308.1527, 86.26547
308.6349, 72.59138
309.1170, 63.37587
309.5991, 69.20390
310.0812, 78.38042
310.5633, 82.11923
311.0454, 80.73177
311.5276, 79.18210
312.0097, 81.19675
312.4918, 84.42670
312.9739, 86.26389
313.4560, 83.33751
313.9381, 80.77725
314.4203, 81.69666
314.9024, 85.89575
315.3845, 90.71542
315.8666, 99.76172
316.3487, 106.7841
316.8308, 105.8757
317.3130, 83.58554
317.7951, 63.83452
318.2772, 57.30325
318.7593, 63.08209
319.2414, 70.76315
319.7235, 86.84082
320.2057, 98.37949
320.6878, 95.13065
321.1699, 49.89423
321.6520, 14.87512
322.1341, 9.704193
322.6162, 31.21439
323.0984, 46.87836
323.5805, 45.84456
324.0626, 40.25471
324.5447, 37.84897
325.0268, 44.77173
325.5089, 49.55139
325.9911, 47.55269
326.4732, 39.95602
326.9553, 39.14554
327.4374, 57.90002
327.9195, 75.64688
328.4016, 80.36012
328.8838, 55.20798
329.3659, 38.23170
329.8480, 34.86121
330.3301, 42.82913
330.8122, 47.78380
331.2943, 48.56154
331.7765, 47.52219
332.2586, 46.18842
332.7407, 46.58197
333.2228, 42.56062
333.7049, 30.13736
334.1870, 12.83397
334.6692, 5.480621
335.1513, 11.72670
335.6334, 21.95319
336.1155, 32.49660
336.5976, 46.55737
337.0797, 49.95679
337.5619, 37.14900
338.0440, 15.27589
338.5261, 6.555817
339.0082, 14.78441
339.4903, 24.75774
339.9724, 26.62737
340.4546, 18.79726
340.9367, 18.40359
341.4188, 29.58656
341.9009, 44.62396
342.3830, 44.93246
342.8651, 28.82965
343.3473, 14.05893
343.8294, 11.46964
344.3115, 20.05142
344.7936, 27.49620
345.2757, 33.61496
345.7578, 37.59448
346.2400, 36.92191
346.7221, 31.91629
347.2042, 27.66069
347.6863, 13.63170
348.1684, 28.23068
348.6505, 35.94601
349.1327, 37.14758
349.6148, 12.32487
350.0969, 21.10899
350.5790, 16.42572
351.0611, 11.19093
351.5432, 24.70659
352.0254, 3.671921
352.5075, 16.89127
352.9896, 16.43793
353.4717, 22.24287
353.9538, 14.49753
354.4359, 10.93794
354.9181, 20.93401
355.4002, 23.42488
355.8823, 14.12137
356.3644, 20.32675
356.8465, 1.176361
357.3286, 1.635376
357.8108, 14.93814
358.2929, 6.317307
358.7750, 12.77179
359.2571, 13.48524
359.7392, 11.58780
360.2213, 8.949402
360.7035, 6.375839
361.1856, 20.11978
361.6677, 30.50800
362.1498, 34.35291
362.6319, 29.04401
363.1140, 1.812073
363.5962, 26.05458
364.0783, 31.85049
364.5604, 21.33229
365.0425, 9.850815
365.5246, 0.8178860
366.0067, 10.27618
366.4889, 18.30341
366.9710, 27.96512
367.4531, 32.78732
367.9352, 29.22342
368.4173, 19.62897
368.8994, 14.05455
369.3815, 14.46463
369.8636, 17.38420
370.3458, 21.62650
370.8279, 30.21231
371.3100, 34.96436
371.7921, 34.97879
372.2742, 31.39421
372.7563, 26.42172
373.2385, 17.91457
373.7206, 12.45378
374.2027, 13.24548
374.6848, 21.85750
375.1669, 27.76384
375.6490, 31.49231
376.1312, 32.84116
376.6133, 30.72920
377.0954, 24.10619
377.5775, 18.24481
378.0596, 15.59068
378.5417, 16.06306
379.0239, 15.06097
379.5060, 12.54836
379.9881, 8.728607
380.4702, 1.923477
380.9523, 7.658310
381.4344, 12.15120
381.9166, 6.413681
382.3987, 5.805222
382.8808, 13.96281
383.3629, 17.94768
383.8450, 18.54628
384.3271, 13.42915
384.8093, 4.991959
385.2914, 0.9855500
385.7735, 5.502304
386.2556, 13.59460
386.7377, 23.60194
387.2198, 34.76503
387.7020, 41.38924
388.1841, 33.68808
388.6662, 20.67320
389.1483, 15.13022
389.6304, 24.56076
390.1125, 35.10983
390.5947, 36.24046
391.0768, 29.96257
391.5589, 22.47278
392.0410, 12.97107
392.5231, 5.907120
393.0052, 5.663086
393.4874, 16.76221
393.9695, 25.91466
394.4516, 26.36967
394.9337, 21.58878
395.4158, 17.64159
395.8979, 17.61031
396.3801, 17.50664
396.8622, 15.24834
397.3443, 9.521255
397.8264, 5.783890
398.3085, 4.788513
398.7906, 6.151428
399.2728, 9.503143
399.7549, 17.81224
400.2370, 24.72897
400.7191, 28.60400
401.2012, 29.18056
401.6833, 31.01820
402.1655, 36.96376
402.6476, 41.36804
403.1297, 38.11270
403.6118, 21.79839
404.0939, 11.20862
404.5760, 10.86565
405.0582, 18.62315
405.5403, 22.62431
406.0224, 21.58958
406.5045, 20.41721
406.9866, 23.90764
407.4688, 32.59229
407.9509, 35.39017
408.4330, 28.82782
408.9151, 19.00673
409.3972, 20.98363
409.8793, 34.76840
410.3615, 46.29684
410.8436, 45.79843
411.3257, 36.45697
411.8078, 28.68423
412.2899, 23.00662
412.7720, 19.41284
413.2542, 18.56638
413.7363, 19.94504
414.2184, 22.00179
414.7005, 24.52676
415.1826, 27.09352
415.6647, 28.54234
416.1469, 28.80376
416.6290, 30.22797
417.1111, 36.97867
417.5932, 44.58287
418.0753, 48.61215
418.5574, 45.80667
419.0396, 40.51445
419.5217, 31.80565
420.0038, 21.10303
420.4859, 17.22589
420.9680, 33.20068
421.4501, 49.97185
421.9323, 56.10185
422.4144, 44.08505
422.8965, 31.42625
423.3786, 17.66798
423.8607, 4.392868
424.3428, 2.633347
424.8250, 1.277069
425.3071, 7.744049
425.7892, 14.38123
426.2713, 22.60904
426.7534, 27.34265
427.2355, 26.88277
427.7177, 23.98929
428.1998, 23.17310
428.6819, 26.72581
429.1640, 27.05591
429.6461, 20.68091
430.1282, 7.878281
430.6104, 1.495651
431.0925, 7.759750
431.5746, 9.728806
432.0567, 3.944565
432.5388, 9.912262
433.0209, 20.49075
433.5031, 25.26385
433.9852, 25.39499
434.4673, 22.43948
434.9494, 16.50467
435.4315, 11.50468
435.9136, 10.02272
436.3958, 11.67657
436.8779, 15.91846
437.3600, 23.19270
437.8421, 31.41058
438.3242, 40.76909
438.8063, 49.01486
439.2885, 51.64877
439.7706, 40.32216
440.2527, 26.93657
440.7348, 24.20824
441.2169, 34.50258
441.6990, 40.62099
442.1812, 24.45003
442.6633, 2.390945
443.1454, 7.823456
443.6275, 9.754486
444.1096, 28.96886
444.5917, 42.31023
445.0739, 49.96898
445.5560, 54.34363
446.0381, 55.30237
446.5202, 53.56613
447.0023, 49.51881
447.4844, 38.12750
447.9666, 31.08020
448.4487, 32.20018
448.9308, 37.44084
449.4129, 34.99139
449.8950, 19.25212
450.3771, 5.010773
450.8593, 2.255157
451.3413, 2.034348
451.8235, 3.455704
452.3056, 16.48973
452.7877, 31.21756
453.2698, 39.51357
453.7519, 40.83548
454.2340, 41.80138
454.7162, 45.96207
455.1983, 50.94685
455.6804, 46.31572
456.1625, 31.48546
456.6446, 16.76741
457.1267, 11.22954
457.6089, 12.64101
458.0910, 14.82710
458.5731, 17.08405
459.0552, 18.58075
459.5373, 16.60600
460.0194, 12.59436
460.5016, 11.30273
460.9837, 18.95290
461.4658, 28.51627
461.9479, 33.48041
462.4300, 32.52396
462.9121, 30.32243
463.3943, 29.10088
463.8764, 28.04840
464.3585, 26.13553
464.8406, 15.72508
465.3227, 11.55414
465.8048, 24.53781
466.2870, 54.59230
466.7691, 70.81053
467.2512, 53.73346
467.7333, 32.99664
468.2154, 27.30402
468.6975, 52.89902
469.1797, 66.69536
469.6618, 61.60756
470.1439, 44.97183
470.6260, 35.94901
471.1081, 36.34776
471.5902, 40.09576
472.0724, 47.57655
472.5545, 59.77357
473.0366, 56.47667
473.5187, 32.92902
474.0008, 7.334671
474.4829, 5.652374
474.9651, 25.72255
475.4472, 41.33165
475.9293, 42.40340
476.4114, 35.53322
476.8935, 35.41238
477.3756, 41.33479
477.8578, 44.38571
478.3399, 33.96297
478.8220, 17.71759
479.3041, 6.888931
479.7862, 4.063721
480.2683, 5.985474
480.7505, 13.31776
481.2326, 23.36844
481.7147, 30.31323
482.1968, 28.50899
482.6789, 25.73381
483.1610, 25.42769
483.6432, 27.95314
484.1253, 31.30727
484.6074, 36.92410
485.0895, 42.14322
485.5716, 44.69597
486.0537, 44.65092
486.5359, 41.39894
487.0180, 32.79491
487.5001, 20.48787
487.9822, 11.86058
488.4643, 6.437683
488.9464, 4.795090
489.4286, 9.378525
489.9107, 23.04654
490.3928, 29.64157
490.8749, 26.31084
491.3570, 19.63475
491.8391, 20.54958
492.3213, 29.00229
492.8034, 34.55305
493.2855, 31.06085
493.7676, 23.04633
494.2497, 23.57452
494.7318, 32.43614
495.2140, 40.35477
495.6961, 38.76050
496.1782, 31.25102
496.6603, 23.70665
497.1424, 16.44781
497.6245, 11.16846
498.1067, 12.02840
498.5888, 15.92526
499.0709, 15.68018
499.5530, 0.9253850
500.0351, 12.90941
500.5172, 17.14127
500.9994, 10.33977
501.4815, 1.595612
501.9636, 8.644806
502.4457, 17.86113
502.9278, 23.79076
503.4099, 23.88249
503.8921, 23.85068
504.3742, 25.18401
504.8563, 26.90155
505.3384, 24.15076
505.8205, 13.81000
506.3026, 4.970505
506.7848, 2.357025
507.2669, 6.738998
507.7490, 12.09274
508.2311, 19.07751
508.7132, 25.08549
509.1953, 26.99339
509.6775, 25.34894
510.1596, 23.36006
510.6417, 20.64809
511.1238, 5.584900
511.6059, 21.93280
512.0880, 31.39606
512.5701, 34.34441
513.0522, 11.26695
513.5344, 21.79529
514.0165, 18.85524
514.4986, 15.36249
514.9807, 30.60966
515.4628, 11.31155
515.9449, 26.26958
516.4271, 27.55403
516.9092, 35.09552
517.3913, 29.08589
517.8734, 27.25908
518.3555, 38.98175
518.8376, 43.20700
519.3198, 35.63713
519.8019, 43.57526
520.2840, 24.10864
520.7661, 28.93988
521.2482, 43.97319
521.7303, 28.35637
522.2125, 27.90631
522.6946, 29.47150
523.1767, 34.09303
523.6588, 36.32658
524.1409, 33.07211
524.6230, 25.17331
525.1052, 17.21841
525.5873, 8.706741
526.0694, 4.087875
526.5515, 11.82275
527.0336, 27.29048
527.5157, 36.90355
527.9979, 35.96706
528.4800, 30.25748
528.9621, 22.36368
529.4442, 14.13905
529.9263, 10.82532
530.4084, 20.30986
530.8906, 32.03902
531.3727, 38.61234
531.8548, 38.97665
532.3369, 37.96310
532.8190, 37.69518
533.3011, 36.56142
533.7833, 33.13599
534.2654, 18.46954
534.7475, 12.39810
535.2296, 24.00052
535.7117, 45.86882
536.1938, 50.69400
536.6760, 29.17998
537.1581, 8.346008
537.6402, 5.8867998E-02
538.1223, 5.077011
538.6044, 9.827835
539.0865, 13.91844
539.5687, 18.47134
540.0508, 27.24828
540.5329, 39.04469
541.0150, 43.16539
541.4971, 33.72076
541.9792, 19.41101
542.4614, 14.40839
542.9435, 17.11526
543.4256, 20.09587
543.9077, 18.56711
544.3898, 15.35763
544.8719, 12.75690
545.3541, 10.86250
545.8362, 10.68367
546.3183, 14.35782
546.8004, 19.32149
547.2825, 22.82713
547.7646, 22.88486
548.2468, 22.82526
548.7289, 23.15924
549.2110, 23.84912
549.6931, 24.32155
550.1752, 21.08784
550.6573, 22.47566
551.1395, 34.80621
551.6216, 62.15858
552.1037, 74.66145
552.5858, 69.24861
553.0679, 55.96820
553.5500, 44.56949
554.0322, 35.19020
554.5143, 29.60310
554.9964, 30.12622
555.4785, 32.28601
555.9606, 26.05157
556.4427, 13.08955
556.9249, 2.663940
557.4070, 0.3327790
557.8891, 1.689484
558.3712, 10.90558
558.8533, 29.51237
559.3354, 41.68135
559.8176, 29.11542
560.2997, 9.139938
560.7818, 0.2858580
561.2639, 20.35686
561.7460, 35.27119
562.2281, 32.57256
562.7103, 17.56265
563.1924, 10.83017
563.6745, 19.13481
564.1566, 26.95898
564.6387, 28.36598
565.1208, 22.58037
565.6030, 19.22473
566.0851, 19.74138
566.5672, 19.42574
567.0493, 10.52461
567.5314, 6.121414
568.0135, 14.28731
568.4957, 9.362564
568.9778, 2.661896
569.4599, 15.08871
569.9420, 27.05051
570.4241, 34.39423
570.9063, 31.90697
571.3884, 25.64442
571.8705, 20.99321
572.3526, 18.26288
572.8347, 17.26833
573.3168, 20.67538
573.7990, 24.29707
574.2811, 24.41280
574.7632, 16.51569
575.2453, 10.82454
575.7274, 10.16594
576.2095, 12.01178
576.6917, 10.29796
577.1738, 1.038239
577.6559, 5.191345
578.1380, 4.936264
578.6201, 1.417465
579.1022, 8.145309
579.5844, 15.70500
580.0665, 21.93361
580.5486, 24.40938
581.0307, 23.71391
581.5128, 24.40602
581.9949, 27.67497
582.4771, 29.87267
582.9592, 24.53891
583.4413, 14.49713
583.9234, 6.715485
584.4055, 2.997864
584.8876, 3.641602
585.3698, 12.27673
585.8519, 26.93098
586.3340, 37.16956
586.8161, 37.06985
587.2982, 32.30754
587.7803, 24.76105
588.2625, 10.85475
588.7446, 4.409058
589.2267, 11.28244
589.7088, 22.18115
590.1909, 26.84196
590.6730, 22.54587
591.1552, 19.53139
591.6373, 20.33134
592.1194, 22.97092
592.6015, 20.91212
593.0836, 13.84175
593.5657, 6.983597
594.0479, 2.894501
594.5300, 1.119614
595.0121, 1.055771
595.4942, 2.763184
595.9763, 4.218964
596.4584, 3.317383
596.9406, 1.404938
597.4227, 0.1885220
597.9048, 2.9739000E-02
598.3869, 0.7501370
598.8690, 2.325180
599.3511, 4.908096
599.8333, 8.937057
600.3154, 14.34566
600.7975, 21.49541
601.2796, 33.42795
601.7617, 49.83673
602.2438, 55.05159
602.7260, 43.59381
603.2081, 30.48010
603.6902, 26.16075
604.1723, 31.52271
604.6544, 33.48766
605.1365, 30.95428
605.6187, 26.47583
606.1008, 23.79843
606.5829, 22.24770
607.0650, 18.64635
607.5471, 9.357605
608.0292, 0.5725100
608.5114, 0.7312320
608.9935, 7.937820
609.4756, 15.12596
609.9577, 18.44438
610.4398, 20.58936
610.9219, 24.20493
611.4041, 30.41234
611.8862, 31.50005
612.3683, 19.29689
612.8504, 5.674652
613.3325, 0.1407780
613.8146, 6.571442
614.2968, 11.67433
614.7789, 13.72218
615.2610, 14.41318
615.7431, 18.25801
616.2252, 25.77779
616.7073, 30.17340
617.1895, 27.21065
617.6716, 7.374420
618.1537, 23.05498
618.6358, 31.83376
619.1179, 34.11623
619.6000, 10.37389
620.0822, 20.23764
620.5643, 16.63390
621.0464, 12.47816
621.5285, 27.07243
622.0106, 7.116364
622.4927, 21.41409
622.9749, 22.03865
623.4570, 28.92140
623.9391, 22.25337
624.4212, 19.77094
624.9033, 30.84410
625.3854, 34.04752
625.8676, 24.94507
626.3497, 31.66144
626.8318, 11.23564
627.3139, 15.12534
627.7960, 29.50621
628.2781, 22.10562
628.7603, 29.63791
629.2424, 31.42908
629.7245, 7.128128
630.2066, 28.20467
630.6887, 29.65738
631.1708, 18.70621
631.6530, 10.23981
632.1351, 1.690170
632.6172, 7.510757
633.0993, 0.7565460
633.5814, 11.06795
634.0635, 21.93303
634.5457, 32.02371
635.0278, 36.14575
635.5099, 25.07939
635.9920, 17.87154
636.4741, 23.79532
636.9562, 44.24281
637.4384, 46.61484
637.9205, 24.88651
638.4026, 1.806976
638.8847, 0.6783290
639.3668, 14.73825
639.8489, 22.62213
640.3311, 18.58893
640.8132, 10.92195
641.2953, 11.04355
641.7774, 15.69972
642.2595, 17.63722
642.7416, 9.389511
643.2238, 2.387436
643.7059, 7.220322
644.1880, 19.05807
644.6701, 26.77322
645.1522, 23.40871
645.6343, 18.28598
646.1165, 14.94798
646.5986, 13.60075
647.0807, 12.20117
647.5628, 10.44836
648.0449, 9.065887
648.5270, 8.491898
649.0092, 8.712341
649.4913, 10.09753
649.9734, 12.91150
650.4555, 16.24162
650.9376, 20.63838
651.4197, 24.87320
651.9019, 23.78560
652.3840, 10.13631
652.8661, 2.862793
653.3482, 0.3690950
653.8303, 15.14449
654.3124, 27.14279
654.7946, 30.30618
655.2767, 29.36690
655.7588, 25.72058
656.2409, 19.21523
656.7230, 12.88930
657.2051, 3.669220
657.6872, 1.902405
658.1693, 1.621414
658.6514, 17.61058
659.1335, 26.85680
659.6157, 27.37227
660.0978, 24.87029
660.5799, 28.98524
661.0620, 37.77786
661.5441, 39.05740
662.0262, 25.71582
662.5084, 9.825012
662.9905, 8.276962
663.4726, 16.26982
663.9547, 20.76447
664.4368, 9.456390
664.9189, 1.683456
665.4011, 2.501068
665.8832, 6.869034
666.3653, 12.98790
666.8474, 9.945221
667.3295, 6.470184
667.8116, 6.982117
668.2938, 13.34938
668.7759, 14.77010
669.2580, 9.393372
669.7401, 3.192871
670.2222, 3.339142
670.7043, 9.156982
671.1865, 13.85597
671.6686, 16.23878
672.1507, 16.96565
672.6328, 16.70404
673.1149, 15.45520
673.5970, 13.73846
674.0792, 8.783295
674.5613, 4.467178
675.0434, 2.446014
675.5255, 2.675201
676.0076, 4.647537
676.4897, 11.58272
676.9719, 16.96536
677.4540, 17.62746
677.9361, 12.73463
678.4182, 11.81741
678.9003, 16.88824
679.3824, 21.52702
679.8646, 17.97606
680.3467, 7.462540
680.8288, 6.171219
681.3109, 17.27557
681.7930, 30.49927
682.2751, 33.46019
682.7573, 29.96983
683.2394, 28.21652
683.7215, 34.17308
684.2036, 37.26189
684.6857, 26.01338
685.1678, 7.480698
685.6500, 2.324768
686.1321, 11.08487
686.6142, 22.38969
687.0963, 23.32211
687.5784, 15.27055
688.0605, 11.94458
688.5427, 14.75943
689.0248, 18.71014
689.5069, 21.90858
689.9890, 24.12717
690.4711, 22.89313
690.9532, 18.73045
691.4354, 13.32500
691.9175, 7.055481
692.3996, 1.252960
692.8817, 1.960327
693.3638, 2.126160
693.8459, 0.1187290
694.3281, 7.331360
694.8102, 15.78870
695.2923, 20.46970
695.7744, 19.16101
696.2565, 15.26463
696.7386, 6.072144
697.2208, 4.649216
697.7029, 5.973328
698.1850, 5.004898
698.6671, 15.42149
699.1492, 21.49995
699.6313, 23.10243
700.1135, 15.32536
700.5956, 1.028198
701.0777, 11.93439
701.5598, 1.433914
702.0419, 16.66225
702.5240, 23.94026
703.0062, 18.33437
703.4883, 14.51302
703.9704, 23.44815
704.4525, 34.61813
704.9346, 39.80550
705.4167, 33.66702
705.8989, 28.54388
706.3810, 23.71494
706.8631, 20.62592
707.3452, 22.30867
707.8273, 30.09389
708.3094, 33.27809
708.7916, 28.76953
709.2737, 20.87047
709.7558, 16.47725
710.2379, 15.39009
710.7200, 16.33603
711.2021, 20.95288
711.6843, 26.08981
712.1664, 30.66733
712.6485, 33.94289
713.1306, 32.63470
713.6127, 18.08194
714.0948, 5.315430
714.5770, 2.454681
715.0591, 10.12498
715.5412, 16.39598
716.0233, 21.38799
716.5054, 25.04224
716.9875, 27.55092
717.4697, 28.89078
717.9518, 26.99927
718.4339, 21.11952
718.9160, 16.27681
719.3981, 21.14056
719.8802, 30.34584
720.3624, 32.37134
720.8445, 21.52380
721.3266, 11.61960
721.8087, 14.15230
722.2908, 23.11789
722.7729, 29.29716
723.2551, 29.99966
723.7372, 28.79510
724.2193, 24.66180
724.7014, 19.20422
725.1835, 17.15219
725.6656, 19.11850
726.1478, 22.09898
726.6299, 26.02777
727.1120, 29.74840
727.5941, 28.32773
728.0762, 22.38118
728.5583, 18.09206
729.0405, 24.47595
729.5226, 31.35719
730.0047, 25.29582
730.4868, 5.470993
730.9689, 7.489166
731.4510, 2.025589
731.9332, 15.37007
732.4153, 19.59561
732.8974, 9.320908
733.3795, 5.800674
733.8616, 12.11285
734.3438, 20.47380
734.8259, 22.16428
735.3080, 17.38770
735.7901, 16.12086
736.2722, 20.42976
736.7543, 26.17082
737.2365, 28.70390
737.7186, 28.68661
738.2007, 27.43956
738.6828, 25.89835
739.1649, 22.61258
739.6470, 12.49892
740.1292, 0.2797090
740.6113, 3.133347
741.0934, 14.70840
741.5755, 28.63686
742.0576, 33.57361
742.5397, 30.93645
743.0219, 25.43559
743.5040, 16.07437
743.9861, 9.280777
744.4682, 9.306763
744.9503, 13.79245
745.4324, 16.77594
745.9146, 18.27792
746.3967, 18.29649
746.8788, 15.06773
747.3609, 11.54016
747.8430, 10.21153
748.3251, 11.51173
748.8073, 13.71420
749.2894, 16.76337
749.7715, 20.35132
750.2536, 24.96373
750.7357, 32.96928
751.2178, 33.15042
751.7000, 23.30632
752.1821, 11.88774
752.6642, 9.283432
753.1463, 14.15225
753.6284, 20.14825
754.1105, 27.43959
754.5927, 31.26239
755.0748, 20.65843
755.5569, 4.911942
756.0390, 0.8881380
756.5211, 23.26997
757.0032, 41.48920
757.4854, 38.31116
757.9675, 22.93842
758.4496, 17.05981
758.9317, 26.42482
759.4138, 31.65717
759.8959, 25.59790
760.3781, 12.49377
760.8602, 5.345306
761.3423, 3.953781
761.8244, 5.106934
762.3065, 6.461563
762.7886, 9.785416
763.2708, 21.06534
763.7529, 38.25571
764.2350, 48.24402
764.7171, 37.56256
765.1992, 24.45363
765.6813, 19.16043
766.1635, 23.43456
766.6456, 24.73935
767.1277, 21.38588
767.6098, 17.79335
768.0919, 2.133850
768.5740, 19.23552
769.0562, 29.45341
769.5383, 33.15657
770.0204, 10.83424
770.5025, 22.11800
770.9846, 19.93385
771.4667, 17.19714
771.9489, 33.21649
772.4310, 14.67905
772.9131, 30.39456
773.3952, 32.43729
773.8773, 40.75189
774.3594, 13.52962
774.8416, 5.911438
775.3237, 15.67880
775.8058, 30.70711
776.2879, 35.02051
776.7700, 27.55180
777.2521, 16.81482
777.7343, 1.962357
778.2164, 9.779999
778.6985, 4.043503
779.1806, 12.38316
779.6627, 24.65672
780.1448, 21.69388
780.6270, 18.12691
781.1091, 21.79401
781.5912, 29.94868
782.0733, 34.33450
782.5554, 34.22992
783.0375, 30.77011
783.5197, 22.42233
784.0018, 11.24443
784.4839, 4.082443
784.9660, 0.9592440
785.4481, 0.7504430
785.9302, 4.331207
786.4124, 9.762344
786.8945, 14.09628
787.3766, 17.40869
787.8587, 19.85277
788.3408, 20.90938
788.8229, 21.10912
789.3051, 21.21010
789.7872, 20.54999
790.2693, 23.68318
790.7514, 32.67911
791.2335, 42.19350
791.7156, 50.22032
792.1978, 56.77365
792.6799, 58.25958
793.1620, 54.46799
793.6441, 48.85294
794.1262, 43.58725
794.6083, 38.66411
795.0905, 34.09174
795.5726, 29.82825
796.0547, 25.89270
796.5368, 21.37231
797.0189, 17.75656
797.5010, 16.66205
797.9832, 19.96155
798.4653, 20.45032
798.9474, 16.92809
799.4295, 13.42191
799.9116, 15.17296
800.3937, 21.71294
800.8759, 25.88054
801.3580, 26.36723
801.8401, 26.34186
802.3222, 31.10252
802.8043, 36.96820
803.2864, 38.13362
803.7686, 30.68556
804.2507, 22.77544
804.7328, 16.01422
805.2149, 10.72142
805.6970, 6.827164
806.1791, 3.167603
806.6613, 4.922470
807.1434, 15.70372
807.6255, 27.63281
808.1076, 23.96149
808.5897, 7.569214
809.0718, 4.351456
809.5540, 5.359756
810.0361, 1.395508
810.5182, 5.853027
811.0003, 13.52814
811.4824, 15.74004
811.9645, 2.385086
812.4467, 7.346863
812.9288, 6.697113
813.4109, 0.4048610
813.8930, 3.744873
814.3751, 1.968704
814.8572, 3.615891
815.3394, 13.21364
815.8215, 25.88698
816.3036, 30.76317
816.7857, 28.77583
817.2678, 24.23346
817.7499, 13.49707
818.2321, 6.107864
818.7142, 13.11992
819.1963, 30.56360
819.6784, 40.03401
820.1605, 30.29004
820.6426, 20.69455
821.1248, 15.79456
821.6068, 15.11743
822.0889, 17.27678
822.5710, 23.14684
823.0532, 27.48637
823.5353, 28.52559
824.0174, 27.14972
824.4995, 23.25398
824.9816, 17.60727
825.4637, 14.46066
825.9459, 17.70999
826.4280, 22.72708
826.9101, 28.48265
827.3922, 34.80450
827.8743, 35.42462
828.3564, 27.02505
828.8386, 18.88586
829.3207, 3.015121
829.8028, 17.59662
830.2849, 25.29378
830.7670, 26.47633
831.2491, 1.633591
831.7313, 10.39610
832.2134, 5.690933
832.6955, 0.4330750
833.1776, 13.92451
833.6597, 7.135132
834.1418, 6.054108
834.6240, 5.569305
835.1061, 11.34267
835.5882, 3.560135
836.0703, 0.6981810
836.5524, 12.10062
837.0345, 26.96657
837.5167, 27.97208
837.9988, 19.78766
838.4809, 14.75177
838.9630, 13.79671
839.4451, 12.98929
839.9272, 4.764282
840.4094, 1.065994
840.8915, 6.179245
841.3736, 32.93007
841.8557, 47.17133
842.3378, 39.93262
842.8199, 29.47365
843.3021, 28.80363
843.7842, 38.42322
844.2663, 39.02042
844.7484, 29.47444
845.2305, 20.89143
845.7126, 15.51982
846.1948, 30.20445
846.6769, 38.00710
847.1590, 39.29503
847.6411, 14.55771
848.1232, 23.42612
848.6053, 18.82657
849.0875, 13.67410
849.5696, 27.27170
850.0517, 6.318207
850.5338, 19.61774
851.0159, 19.24380
851.4980, 25.12759
851.9802, 17.45970
852.4623, 13.97745
852.9444, 24.05000
853.4265, 26.61670
853.9086, 17.38959
854.3907, 23.67369
854.8729, 2.249451
855.3550, 5.140579
855.8371, 18.52235
856.3192, 19.90746
856.8013, 33.94786
857.2834, 31.45038
857.7656, 11.94141
858.2477, 4.133438
858.7298, 10.34189
859.2119, 19.76105
859.6940, 22.97842
860.1761, 22.77472
860.6583, 22.51962
861.1404, 22.58842
861.6225, 23.51715
862.1046, 27.83206
862.5867, 31.30591
863.0688, 30.40744
863.5510, 23.16028
864.0331, 19.44225
864.5152, 20.03288
864.9973, 21.44653
865.4794, 20.64088
865.9615, 18.06285
866.4437, 14.67259
866.9258, 10.18964
867.4079, 5.871292
867.8900, 1.400803
868.3721, 1.628723
868.8542, 2.075974
869.3364, 8.9752004E-02
869.8185, 6.445236
870.3006, 19.73409
870.7827, 31.86542
871.2648, 35.23267
871.7469, 29.84636
872.2291, 27.22031
872.7112, 28.33437
873.1933, 31.07219
873.6754, 37.10281
874.1575, 41.77435
874.6396, 38.18558
875.1218, 22.89485
875.6039, 13.78209
876.0860, 21.42355
876.5681, 30.80685
877.0502, 33.82411
877.5323, 29.86702
878.0145, 24.76405
878.4966, 18.41774
878.9787, 11.57426
879.4608, 0.4322810
879.9429, 10.48616
880.4250, 1.515900
880.9072, 28.52031
881.3893, 49.85640
881.8714, 38.66463
882.3535, 21.42459
882.8356, 15.00359
883.3177, 21.00385
883.7999, 26.30905
884.2820, 31.47798
884.7641, 34.99710
885.2462, 33.78882
885.7283, 28.46286
886.2104, 22.91043
886.6926, 17.96451
887.1747, 16.20132
887.6568, 24.29053
888.1389, 32.23334
888.6210, 31.25171
889.1031, 19.59839
889.5853, 15.15178
890.0674, 21.56119
890.5495, 29.12358
891.0316, 34.50702
891.5137, 36.74847
891.9958, 30.40872
892.4780, 15.87560
892.9601, 8.249832
893.4422, 30.36984
893.9243, 53.93811
894.4064, 47.87796
894.8885, 14.85518
895.3707, 3.704636
895.8528, 15.26366
896.3349, 32.45703
896.8170, 33.34105
897.2991, 21.96956
897.7813, 24.48772
898.2634, 40.78508
898.7455, 51.47441
899.2276, 39.72459
899.7097, 20.22166
900.1918, 9.833954
900.6740, 7.261566
901.1561, 7.561295
901.6382, 10.81583
902.1203, 14.76804
902.6024, 20.25365
903.0845, 25.75824
903.5667, 24.15605
904.0488, 14.34052
904.5309, 7.293213
905.0130, 7.131393
905.4951, 11.62888
905.9772, 19.65556
906.4594, 29.55077
906.9415, 37.02100
907.4236, 38.43901
907.9057, 39.26958
908.3878, 44.49583
908.8699, 49.60423
909.3521, 43.70123
909.8342, 22.21095
910.3163, 8.255920
910.7984, 7.633377
911.2805, 15.06724
911.7626, 26.16470
912.2448, 36.96147
912.7269, 38.18625
913.2090, 18.49265
913.6911, 3.320480
914.1732, 10.85188
914.6553, 27.58525
915.1375, 33.93527
915.6196, 24.39592
916.1017, 18.18915
916.5838, 17.08775
917.0659, 19.03668
917.5480, 22.48289
918.0302, 26.76019
918.5123, 30.47012
918.9944, 33.94853
919.4765, 33.96671
919.9586, 21.48087
920.4407, 8.572403
920.9229, 8.003677
921.4050, 27.17055
921.8871, 41.60751
922.3692, 51.63557
922.8513, 56.25194
923.3334, 51.68643
923.8156, 40.70383
924.2977, 34.53415
924.7798, 34.16502
925.2619, 32.68114
925.7440, 21.76805
926.2261, 10.04758
926.7083, 5.746460
927.1904, 11.68973
927.6725, 11.71201
928.1546, 1.476318
928.6367, 6.337326
929.1188, 3.366577
929.6010, 8.368729
930.0831, 20.96202
930.5652, 33.68137
931.0473, 40.88680
931.5294, 32.17096
932.0115, 22.11510
932.4937, 24.22180
932.9758, 37.03790
933.4579, 39.82515
933.9400, 23.44568
934.4221, 12.32576
934.9042, 16.62154
935.3864, 29.88155
935.8685, 30.40337
936.3506, 20.34906
936.8327, 12.89722
937.3148, 18.15729
937.7969, 23.97421
938.2791, 21.79001
938.7612, 14.75610
939.2433, 11.36607
939.7254, 16.08865
940.2075, 18.86781
940.6896, 18.86919
941.1718, 15.66083
941.6539, 4.827698
942.1360, 11.11827
942.6181, 17.59996
943.1002, 7.841888
943.5823, 4.071335
944.0645, 6.674683
944.5466, 5.147324
945.0287, 5.940247
945.5108, 12.57144
945.9929, 17.42560
946.4750, 20.22006
946.9572, 21.76845
947.4393, 23.87953
947.9214, 25.76262
948.4035, 21.65858
948.8856, 10.48145
949.3677, 1.012024
949.8499, 0.4144130
950.3320, 3.946289
950.8141, 8.288177
951.2962, 13.46901
951.7783, 16.75615
952.2604, 17.22499
952.7426, 17.59604
953.2247, 19.01930
953.7068, 21.95699
954.1889, 26.90257
954.6710, 33.25801
955.1531, 35.69247
955.6353, 26.27687
956.1174, 15.87816
956.5995, 12.99155
957.0816, 16.50572
957.5637, 15.58551
958.0458, 5.137665
958.5280, 2.215988
959.0101, 15.25887
959.4922, 35.30170
959.9743, 39.88690
960.4564, 32.24863
960.9385, 23.95467
961.4207, 18.34871
961.9028, 15.11470
962.3849, 14.21463
962.8670, 15.54926
963.3491, 19.07936
963.8312, 26.01604
964.3134, 32.29761
964.7955, 38.29955
965.2776, 41.65453
965.7597, 36.96648
966.2418, 27.33313
966.7239, 21.22455
967.2061, 21.23563
967.6882, 19.45517
968.1703, 7.334427
968.6524, 5.252701
969.1345, 9.953278
969.6166, 5.346741
970.0988, 0.1535950
970.5809, 6.011276
971.0630, 11.31705
971.5451, 14.87187
972.0272, 16.47585
972.5093, 13.97688
972.9915, 8.135483
973.4736, 5.915115
973.9557, 16.45282
974.4378, 25.27397
974.9199, 24.97701
975.4020, 17.49159
975.8842, 9.947769
976.3663, 1.614899
976.8484, 1.024216
977.3305, 16.41904
977.8126, 34.75452
978.2947, 34.11049
978.7769, 21.84088
979.2590, 14.32198
979.7411, 26.28705
980.2232, 31.58035
980.7053, 19.42763
981.1874, 2.919952
981.6696, 2.098480
982.1517, 17.45316
982.6338, 25.36166
983.1159, 21.73141
983.5980, 14.57973
984.0801, 8.708115
984.5623, 5.538971
985.0444, 7.552765
985.5265, 17.06648
986.0085, 24.22612
986.4907, 26.89784
986.9728, 28.05127
987.4549, 28.94061
987.9370, 29.28722
988.4191, 29.99637
988.9012, 31.26068
989.3834, 30.14476
989.8655, 21.51321
990.3476, 13.36281
990.8297, 12.11394
991.3118, 16.91200
991.7939, 21.18430
992.2761, 25.78264
992.7582, 26.79552
993.2403, 22.00014
993.7224, 14.52014
994.2045, 9.723450
994.6866, 7.968918
995.1688, 11.18333
995.6509, 23.98488
996.1330, 34.61304
996.6151, 37.22867
997.0972, 33.83057
997.5793, 26.17772
998.0615, 10.27362
998.5436, 5.927719
999.0257, 16.52209
999.5078, 28.15771
999.9899, 22.07422
1000.472, 8.220535
1000.954, 5.357285
1001.436, 15.55673
1001.918, 25.45271
1002.401, 31.38663
1002.883, 33.98819
1003.365, 32.48726
1003.847, 27.58746
1004.329, 27.44969
1004.811, 32.24648
1005.293, 33.75299
1005.775, 22.98114
1006.257, 11.43724
1006.740, 14.29929
1007.222, 26.04027
1007.704, 33.17859
1008.186, 27.97810
1008.668, 23.35278
1009.150, 20.46739
1009.632, 19.02853
1010.114, 18.46812
1010.596, 18.90535
1011.079, 21.62973
1011.561, 27.44493
1012.043, 32.28839
1012.525, 34.32140
1013.007, 33.02823
1013.489, 26.05434
1013.971, 10.42453
1014.453, 5.459076
1014.936, 14.33670
1015.418, 23.63184
1015.900, 23.77365
1016.382, 18.14191
1016.864, 13.54880
1017.346, 10.12886
1017.828, 8.432724
1018.310, 9.161987
1018.792, 10.21729
1019.275, 10.64993
1019.757, 11.08450
1020.239, 11.62067
1020.721, 11.71809
1021.203, 16.00729
1021.685, 28.14865
1022.167, 38.42871
1022.649, 32.80797
1023.132, 19.52202
1023.614, 9.835052
1024.096, 6.558075
1024.578, 6.301147
1025.060, 9.316177
1025.542, 14.15488
1026.024, 21.65736
1026.506, 30.25269
1026.989, 30.83598
1027.471, 24.24585
1027.953, 16.89343
1028.435, 9.322281
1028.917, 4.931946
1029.399, 7.211639
1029.881, 15.15001
1030.363, 22.93336
1030.845, 31.33507
1031.328, 36.65182
1031.810, 37.67311
1032.292, 35.67123
1032.774, 28.38919
1033.256, 20.44838
1033.738, 22.20483
1034.220, 47.89775
1034.702, 62.06732
1035.184, 47.57588
1035.667, 27.08798
1036.149, 19.84911
1036.631, 26.39384
1037.113, 25.71324
1037.595, 16.42087
1038.077, 8.100403
1038.559, 10.02798
1039.041, 14.18681
1039.524, 11.51237
1040.006, 2.824921
1040.488, 4.881531
1040.970, 25.47874
1041.452, 39.07158
1041.934, 35.78835
1042.416, 23.64070
1042.898, 16.45512
1043.380, 13.80368
1043.863, 15.10509
1044.345, 25.65216
1044.827, 30.14458
1045.309, 15.28625
1045.791, 3.233002
1046.273, 10.75397
1046.755, 6.315216
1047.237, 0.4257050
1047.719, 9.526672
1048.202, 16.30734
1048.684, 14.71014
1049.166, 10.37091
1049.648, 9.090347
1050.130, 10.98672
1050.612, 12.51428
1051.094, 12.35059
1051.576, 13.87379
1052.059, 19.64786
1052.541, 25.93738
1053.023, 21.78125
1053.505, 10.56906
1053.987, 3.118698
1054.469, 3.840286
1054.951, 7.193695
1055.433, 12.15865
1055.916, 17.53986
1056.398, 22.54378
1056.880, 27.61928
1057.362, 28.86298
1057.844, 25.87112
1058.326, 23.08839
1058.808, 25.76086
1059.290, 29.39902
1059.772, 27.17592
1060.255, 19.99234
1060.737, 19.06686
1061.219, 32.22552
1061.701, 39.79417
1062.183, 34.31085
1062.665, 23.89848
1063.147, 30.41971
1063.629, 47.05296
1064.111, 49.43265
1064.594, 22.90033
1065.076, 1.639450
1065.558, 7.347153
1066.040, 22.91759
1066.522, 34.11934
1067.004, 40.99979
1067.486, 42.64407
1067.968, 38.85004
1068.450, 32.83476
1068.933, 25.26492
1069.415, 17.94016
1069.897, 12.26176
1070.379, 8.462158
1070.861, 7.745911
1071.343, 12.94168
1071.825, 15.92221
1072.307, 14.59244
1072.790, 11.54651
1073.272, 12.36086
1073.754, 14.99855
1074.236, 12.90982
1074.718, 2.868240
1075.200, 4.392853
1075.682, 0.1290890
1076.164, 5.631744
1076.646, 4.015671
1077.129, 4.687759
1077.611, 7.360321
1078.093, 4.014938
1078.575, 3.636322
1079.057, 21.40256
1079.539, 36.82962
1080.021, 36.04712
1080.503, 24.35228
1080.985, 15.87044
1081.468, 12.82774
1081.950, 10.79230
1082.432, 9.219879
1082.914, 8.677170
1083.396, 11.27811
1083.878, 15.11112
1084.360, 15.36096
1084.842, 10.56879
1085.325, 8.169342
1085.807, 14.56032
1086.289, 20.84344
1086.771, 23.26895
1087.253, 22.48613
1087.735, 20.99686
1088.217, 18.96848
1088.699, 17.85605
1089.182, 19.30849
1089.664, 20.41628
1090.146, 17.41394
1090.628, 13.70073
1091.110, 14.88957
1091.592, 24.24036
1092.074, 26.31143
1092.556, 19.79395
1093.038, 10.30888
1093.521, 0.8914180
1094.003, 9.619751
1094.485, 9.025085
1094.967, 0.4419710
1095.449, 10.67116
1095.931, 24.18600
1096.413, 31.15022
1096.895, 26.36411
1097.377, 16.91473
1097.860, 20.92625
1098.342, 33.48674
1098.824, 37.88356
1099.306, 26.58987
1099.788, 16.74379
1100.270, 18.42015
1100.752, 23.22003
1101.234, 24.97960
1101.717, 23.76967
1102.199, 19.53255
1102.681, 12.35312
1103.163, 10.06882
1103.645, 21.94376
1104.127, 36.31378
1104.609, 48.29938
1105.091, 55.81502
1105.573, 52.20772
1106.056, 31.09467
1106.538, 19.28162
1107.020, 21.52844
1107.502, 28.44469
1107.984, 29.73903
1108.466, 27.88322
1108.948, 25.93266
1109.430, 24.14169
1109.912, 25.13855
1110.395, 33.92139
1110.877, 39.07788
1111.359, 35.79022
1111.841, 26.48665
1112.323, 15.32242
1112.805, 4.375549
1113.287, 1.994629
1113.769, 17.90033
1114.252, 30.74309
1114.734, 27.63217
1115.216, 18.75551
1115.698, 14.68417
1116.180, 15.80161
1116.662, 16.40498
1117.144, 16.42854
1117.626, 17.58975
1118.109, 24.89510
1118.591, 30.47543
1119.073, 24.45407
1119.555, 11.02890
1120.037, 6.885406
1120.519, 14.94606
1121.001, 23.08186
1121.483, 29.70523
1121.965, 34.16911
1122.448, 35.71066
1122.930, 34.42155
1123.412, 29.37689
1123.894, 19.61707
1124.376, 13.05380
1124.858, 11.10605
1125.340, 11.29846
1125.822, 12.84251
1126.304, 15.61371
1126.787, 21.77954
1127.269, 28.95610
1127.751, 29.52103
1128.233, 12.57877
1128.715, 1.227844
1129.197, 6.197861
1129.679, 16.04248
1130.161, 21.96959
1130.644, 24.03523
1131.126, 23.64203
1131.608, 20.91873
1132.090, 17.61710
1132.572, 13.20189
1133.054, 9.973877
1133.536, 10.64577
1134.018, 13.96492
1134.500, 17.04091
1134.983, 19.45850
1135.465, 24.17297
1135.947, 33.37837
1136.429, 39.02284
1136.911, 24.67268
1137.393, 7.077560
1137.875, 6.535355
1138.357, 28.41296
1138.839, 38.26512
1139.322, 33.45386
1139.804, 24.79355
1140.286, 15.29863
1140.768, 6.503952
1141.250, 0.7743230
1141.732, 5.048294
1142.214, 3.307434
1142.696, 9.261673
1143.179, 21.53627
1143.661, 34.22449
1144.143, 43.50320
1144.625, 45.64606
1145.107, 42.00687
1145.589, 35.48967
1146.071, 26.89224
1146.553, 20.24232
1147.036, 18.45627
1147.518, 17.52217
1148.000, 15.47919
1148.482, 14.16107
1148.964, 17.18842
1149.446, 23.93681
1149.928, 31.61990
1150.410, 40.10347
1150.892, 45.01010
1151.375, 44.40128
1151.857, 37.49663
1152.339, 20.91963
1152.821, 1.219849
1153.303, 11.10097
1153.785, 8.850311
1154.267, 3.713715
1154.749, 2.490219
1155.231, 7.667053
1155.714, 10.27379
1156.196, 10.63913
1156.678, 8.503662
1157.160, 3.139618
1157.642, 0.1745300
1158.124, 1.657822
1158.606, 0.5183870
1159.088, 11.97261
1159.571, 24.18246
1160.053, 25.64403
1160.535, 20.39725
1161.017, 18.42163
1161.499, 22.07214
1161.981, 27.95154
1162.463, 37.76140
1162.945, 43.64734
1163.427, 31.21469
1163.910, 12.51521
1164.392, 9.045639
1164.874, 20.34151
1165.356, 25.01820
1165.838, 10.50699
1166.320, 1.591415
1166.802, 5.296066
1167.284, 14.39287
1167.766, 15.56323
1168.249, 12.45377
1168.731, 14.22398
1169.213, 23.83917
1169.695, 31.28448
1170.177, 36.16896
1170.659, 33.95799
1171.141, 18.53467
1171.623, 3.703308
1172.106, 8.515182
1172.588, 0.7792510
1173.070, 11.55368
1173.552, 20.72655
1174.034, 27.29903
1174.516, 30.13121
1174.998, 30.54312
1175.480, 27.89386
1175.963, 22.56567
1176.445, 25.36131
1176.927, 35.48405
1177.409, 42.49641
1177.891, 39.28699
1178.373, 33.83260
1178.855, 30.22923
1179.337, 26.76118
1179.819, 19.25092
1180.302, 7.510605
1180.784, 2.773407
1181.266, 6.309555
1181.748, 13.05362
1182.230, 23.06664
1182.712, 31.22995
1183.194, 32.31494
1183.676, 28.08185
1184.158, 25.59062
1184.641, 24.95235
1185.123, 24.12181
1185.605, 22.16808
1186.087, 21.71603
1186.569, 27.26254
1187.051, 34.30981
1187.533, 38.41447
1188.015, 39.21024
1188.498, 38.21884
1188.980, 35.50517
1189.462, 30.02402
1189.944, 18.58688
1190.426, 8.684174
1190.908, 12.77846
1191.390, 22.75659
1191.872, 25.90215
1192.354, 16.31239
1192.837, 13.92639
1193.319, 20.25369
1193.801, 26.29585
1194.283, 24.51117
1194.765, 19.84323
1195.247, 18.61362
1195.729, 19.90547
1196.211, 21.43069
1196.693, 24.25262
1197.176, 23.23386
1197.658, 16.54726
1198.140, 11.12881
1198.622, 16.02399
1199.104, 25.29279
1199.586, 31.53195
1200.068, 34.44318
1200.550, 33.01767
1201.033, 22.56390
1201.515, 17.11905
1201.997, 20.57564
1202.479, 26.45833
1202.961, 23.63394
1203.443, 17.69641
1203.925, 19.45570
1204.407, 30.96704
1204.890, 37.45557
1205.372, 36.04263
1205.854, 30.09474
1206.336, 17.83725
1206.818, 5.734726
1207.300, 11.86571
1207.782, 27.03798
1208.264, 31.44202
1208.746, 15.40294
1209.229, 7.289810
1209.711, 14.50151
1210.193, 23.08226
1210.675, 26.31847
1211.157, 24.61160
1211.639, 18.56441
1212.121, 10.98575
1212.603, 7.933624
1213.085, 14.92566
1213.568, 20.24559
1214.050, 22.94348
1214.532, 23.13806
1215.014, 18.78522
1215.496, 12.47314
1215.978, 13.48672
1216.460, 20.25276
1216.942, 25.22974
1217.425, 25.08615
1217.907, 22.40506
1218.389, 15.08119
1218.871, 9.822067
1219.353, 18.83617
1219.835, 35.46852
1220.317, 39.87251
1220.799, 31.92952
1221.281, 23.58562
1221.764, 16.61353
1222.246, 14.78197
1222.728, 21.28120
1223.210, 29.69359
1223.692, 28.14178
1224.174, 20.24617
1224.656, 15.72395
1225.138, 16.11130
1225.620, 17.39931
1226.103, 16.74304
1226.585, 18.20285
1227.067, 24.01230
1227.549, 31.42421
1228.031, 35.34174
1228.513, 35.89085
1228.995, 30.50464
1229.477, 18.24364
1229.960, 11.66389
1230.442, 20.79727
1230.924, 27.79332
1231.406, 23.32759
1231.888, 12.24620
1232.370, 8.783401
1232.852, 10.20729
1233.334, 8.231567
1233.816, 4.053604
1234.299, 9.221939
1234.781, 0.2069240
1235.263, 10.59406
1235.745, 10.61270
1236.227, 5.630707
1236.709, 16.34113
1237.191, 37.29616
1237.673, 50.93546
1238.156, 44.73450
1238.638, 38.76959
1239.120, 35.60645
1239.602, 33.48514
1240.084, 30.96133
1240.566, 28.29324
1241.048, 26.33417
1241.530, 24.97290
1242.012, 23.55942
1242.495, 23.68628
1242.977, 20.38654
1243.459, 11.11874
1243.941, 2.215393
1244.423, 0.9229130
1244.905, 5.504883
1245.387, 14.32147
1245.869, 26.22836
1246.351, 34.42953
1246.834, 34.85318
1247.316, 33.79791
1247.798, 32.10980
1248.280, 29.57251
1248.762, 24.68298
1249.244, 19.18243
1249.726, 16.08655
1250.208, 15.70135
1250.691, 17.53387
1251.173, 20.88403
1251.655, 28.40063
1252.137, 43.76974
1252.619, 57.26962
1253.101, 48.99869
1253.583, 30.63251
1254.065, 20.88751
1254.547, 23.07458
1255.030, 28.06067
1255.512, 36.68781
1255.994, 42.48059
1256.476, 42.47708
1256.958, 39.85431
1257.440, 37.40115
1257.922, 36.51724
1258.404, 40.37903
1258.886, 51.90005
1259.369, 56.41803
1259.851, 52.30005
1260.333, 43.94138
1260.815, 32.58292
1261.297, 23.38266
1261.779, 31.41507
1262.261, 44.33221
1262.743, 40.90915
1263.226, 10.61591
1263.708, 5.3649999E-02
1264.190, 12.23969
1264.672, 23.72876
1265.154, 17.91992
1265.636, 7.975403
1266.118, 5.488129
1266.600, 8.481384
1267.083, 15.04959
1267.565, 28.29874
1268.047, 28.72958
1268.529, 15.42200
1269.011, 2.406982
1269.493, 3.398132
1269.975, 2.563812
1270.457, 9.592041
1270.939, 26.14813
1271.422, 34.85437
1271.904, 34.78238
1272.386, 34.53561
1272.868, 34.47919
1273.350, 34.66553
1273.832, 38.55396
1274.314, 38.93304
1274.796, 25.19632
1275.278, 8.185028
1275.761, 5.345459
1276.243, 15.96091
1276.725, 23.30576
1277.207, 25.99957
1277.689, 24.34122
1278.171, 20.29846
1278.653, 19.17987
1279.135, 22.19550
1279.618, 26.54935
1280.100, 27.76938
1280.582, 26.00146
1281.064, 23.07312
1281.546, 19.85477
1282.028, 15.61539
1282.510, 4.341888
1282.992, 0.6895140
1283.474, 6.651215
1283.957, 19.78952
1284.439, 17.59772
1284.921, 12.35574
1285.403, 0.0000000E+00
##END=



