##NAMES=Djurleite
##RRUFFID=R100173
##IDEAL CHEMISTRY=Cu_31_S_16_
##LOCALITY=King Vein, Morenci, Arizona, USA
##OWNER=RRUFF
##SOURCE=Steve Young
##DESCRIPTION=Gray metallic fragments
##STATUS=The identification of this mineral has been confirmed only by chemical analysis
##URL=rruff.info/R100173
##MEASURED CHEMISTRY=Cu_30.65_S_16_ = Cu_1.92_S
194.6904, 0.0000000E+00
195.1725, 1.073242
195.6546, 0.2603760
196.1367, 0.1418460
196.6188, 0.6075440
197.1009, 1.657837
197.5831, 2.662109
198.0652, 3.596924
198.5473, 4.123291
199.0294, 4.044556
199.5115, 3.791016
199.9937, 4.584595
200.4758, 6.376099
200.9579, 8.052490
201.4400, 8.898926
201.9221, 8.858887
202.4042, 8.654541
202.8864, 8.625366
203.3685, 8.275146
203.8506, 6.477051
204.3327, 2.913452
204.8148, 4.3950002E-03
205.2969, 0.5946040
205.7791, 1.554321
206.2612, 2.920654
206.7433, 3.064209
207.2254, 2.489502
207.7075, 2.539551
208.1896, 3.413940
208.6718, 4.342041
209.1539, 5.147339
209.6360, 6.038940
210.1181, 5.430786
210.6002, 2.226074
211.0823, 1.952026
211.5645, 1.796509
212.0466, 4.771973
212.5287, 10.85010
213.0108, 12.19934
213.4929, 7.282471
213.9750, 3.782471
214.4572, 2.034790
214.9393, 2.000488
215.4214, 4.020386
215.9035, 9.318481
216.3856, 14.18518
216.8678, 16.39771
217.3499, 15.27808
217.8320, 13.71582
218.3141, 11.48804
218.7962, 8.958740
219.2783, 7.363770
219.7605, 6.895996
220.2426, 6.937256
220.7247, 7.225586
221.2068, 7.875854
221.6889, 8.334229
222.1710, 8.296143
222.6532, 8.123169
223.1353, 9.040771
223.6174, 11.75208
224.0995, 14.45056
224.5816, 16.18738
225.0637, 16.58276
225.5459, 17.17773
226.0280, 18.44983
226.5101, 19.88074
226.9922, 19.60413
227.4743, 16.43103
227.9564, 13.43237
228.4386, 12.20459
228.9207, 13.68054
229.4028, 14.66431
229.8849, 15.11816
230.3670, 15.03003
230.8492, 14.32800
231.3313, 12.60193
231.8134, 10.87622
232.2955, 9.615234
232.7776, 9.024048
233.2597, 8.505615
233.7419, 8.078613
234.2240, 7.748779
234.7061, 7.550293
235.1882, 7.682495
235.6703, 7.692871
236.1524, 7.242554
236.6346, 5.552856
237.1167, 5.360352
237.5988, 7.544434
238.0809, 10.90698
238.5630, 12.52478
239.0451, 11.03723
239.5273, 9.798828
240.0094, 10.37903
240.4915, 14.00439
240.9736, 16.09119
241.4557, 15.92542
241.9378, 14.51379
242.4200, 13.98865
242.9021, 14.81067
243.3842, 15.75891
243.8663, 16.32861
244.3484, 16.26233
244.8306, 16.62634
245.3127, 17.79858
245.7948, 19.19531
246.2769, 19.56531
246.7590, 17.92957
247.2411, 16.94812
247.7233, 17.90906
248.2054, 21.84106
248.6875, 23.82959
249.1696, 23.01233
249.6517, 20.83936
250.1338, 19.65869
250.6160, 19.96838
251.0981, 20.41028
251.5802, 20.63647
252.0623, 20.70239
252.5444, 20.10034
253.0265, 18.53430
253.5087, 16.81165
253.9908, 16.28406
254.4729, 17.87878
254.9550, 18.79297
255.4371, 17.84973
255.9192, 14.62769
256.4014, 13.12939
256.8835, 14.10938
257.3656, 16.06519
257.8477, 17.21509
258.3298, 17.27942
258.8120, 17.13794
259.2941, 16.87500
259.7762, 16.44788
260.2583, 16.50354
260.7404, 16.93140
261.2225, 17.94031
261.7047, 20.24084
262.1868, 25.08203
262.6689, 27.71948
263.1510, 26.15674
263.6331, 20.59521
264.1152, 18.38586
264.5974, 20.92651
265.0795, 24.67554
265.5616, 26.09265
266.0437, 24.51477
266.5258, 22.89954
267.0079, 21.56433
267.4901, 20.59998
267.9722, 21.02051
268.4543, 23.54077
268.9364, 26.08704
269.4185, 27.15540
269.9006, 26.72913
270.3828, 24.77087
270.8649, 20.09167
271.3470, 13.95996
271.8291, 12.86975
272.3112, 18.17297
272.7933, 24.87952
273.2755, 29.77869
273.7576, 32.91724
274.2397, 33.68481
274.7218, 31.22742
275.2039, 26.73840
275.6860, 24.08044
276.1682, 23.68079
276.6503, 23.42542
277.1324, 21.78601
277.6145, 18.64502
278.0966, 16.09021
278.5787, 14.20642
279.0609, 13.17188
279.5430, 13.72595
280.0251, 16.17395
280.5072, 18.56714
280.9893, 19.97424
281.4715, 20.39966
281.9536, 19.91406
282.4357, 18.11243
282.9178, 16.18164
283.3999, 16.49304
283.8820, 19.15137
284.3642, 21.71753
284.8463, 22.70654
285.3284, 22.28589
285.8105, 22.67908
286.2926, 23.89502
286.7747, 25.78198
287.2569, 28.91589
287.7390, 33.17358
288.2211, 35.75439
288.7032, 34.67993
289.1853, 30.85828
289.6674, 28.26160
290.1496, 26.93872
290.6317, 26.50244
291.1138, 26.87134
291.5959, 27.94092
292.0780, 28.84009
292.5602, 29.16663
293.0423, 29.21228
293.5244, 30.05920
294.0065, 31.77136
294.4886, 32.89551
294.9707, 31.18701
295.4529, 27.58228
295.9350, 25.59521
296.4171, 26.80908
296.8992, 29.48376
297.3813, 30.74316
297.8634, 30.63843
298.3456, 29.74536
298.8277, 27.76843
299.3098, 25.35132
299.7919, 23.87219
300.2740, 23.55640
300.7561, 24.43225
301.2383, 27.78564
301.7204, 32.92114
302.2025, 36.40222
302.6846, 34.51672
303.1667, 30.08472
303.6488, 27.42407
304.1310, 27.51685
304.6131, 28.47205
305.0952, 28.56567
305.5773, 28.06592
306.0594, 27.57019
306.5415, 26.95825
307.0237, 26.78174
307.5058, 27.99023
307.9879, 30.89539
308.4700, 33.58154
308.9521, 34.44604
309.4343, 34.02454
309.9164, 33.35046
310.3985, 32.52429
310.8806, 31.88306
311.3627, 31.89453
311.8448, 32.58887
312.3270, 33.00964
312.8091, 32.31494
313.2912, 31.17383
313.7733, 30.32117
314.2554, 30.29407
314.7375, 30.45154
315.2197, 30.31848
315.7018, 29.99011
316.1839, 30.19128
316.6660, 32.16870
317.1481, 34.34790
317.6302, 35.40857
318.1124, 34.32788
318.5945, 32.95520
319.0766, 31.98608
319.5587, 31.24231
320.0408, 30.10498
320.5229, 27.10193
321.0051, 24.54431
321.4872, 23.87891
321.9693, 26.49585
322.4514, 28.81018
322.9335, 30.70764
323.4156, 31.78149
323.8978, 31.24841
324.3799, 26.01062
324.8620, 21.72607
325.3441, 20.88049
325.8262, 25.16052
326.3083, 28.19055
326.7905, 29.23694
327.2726, 28.80835
327.7547, 27.53809
328.2368, 23.31470
328.7189, 20.41309
329.2010, 20.22656
329.6832, 23.08899
330.1653, 24.93652
330.6474, 25.36597
331.1295, 25.12195
331.6116, 24.82275
332.0938, 24.61841
332.5759, 23.70898
333.0580, 21.77539
333.5401, 19.02576
334.0222, 17.07898
334.5043, 15.98499
334.9865, 15.58972
335.4686, 15.88330
335.9507, 17.13672
336.4328, 18.56226
336.9149, 20.89856
337.3970, 23.10400
337.8792, 21.53491
338.3613, 14.41284
338.8434, 7.895386
339.3255, 5.386841
339.8076, 7.555908
340.2898, 8.884766
340.7719, 9.161133
341.2540, 9.033081
341.7361, 9.562500
342.2182, 10.83350
342.7003, 11.94434
343.1825, 12.71143
343.6646, 13.08350
344.1467, 12.49951
344.6288, 10.82727
345.1109, 8.863403
345.5930, 7.245972
346.0752, 5.997925
346.5573, 5.261353
347.0394, 5.163208
347.5215, 5.480591
348.0036, 5.826294
348.4857, 6.184326
348.9679, 6.385864
349.4500, 5.921265
349.9321, 5.217163
350.4142, 5.580688
350.8963, 7.463379
351.3784, 9.688232
351.8606, 11.09888
352.3427, 11.72754
352.8248, 11.55237
353.3069, 8.809814
353.7890, 5.816284
354.2711, 6.667236
354.7533, 12.16992
355.2354, 17.15686
355.7175, 16.44250
356.1996, 12.11475
356.6817, 7.971558
357.1638, 4.735718
357.6460, 3.155884
358.1281, 4.774536
358.6102, 9.118042
359.0923, 12.21179
359.5744, 10.62854
360.0565, 7.327271
360.5387, 5.232422
361.0208, 6.536499
361.5029, 7.457153
361.9850, 5.035889
362.4671, 0.6838380
362.9492, 1.255249
363.4314, 4.285278
363.9135, 9.954346
364.3956, 11.30261
364.8777, 5.557739
365.3598, 0.7332760
365.8419, 1.443481
366.3241, 1.691650
366.8062, 1.067871
367.2883, 1.895630
367.7704, 4.161865
368.2526, 4.777954
368.7347, 3.446289
369.2168, 1.940308
369.6989, 0.4083250
370.1810, 2.497314
370.6631, 3.408325
371.1453, 2.333374
371.6274, 1.271606
372.1095, 0.3536380
372.5916, 0.3988040
373.0737, 0.8049320
373.5558, 0.7292480
374.0380, 0.5083010
374.5201, 0.2409670
375.0022, 0.2510990
375.4843, 0.1899410
375.9664, 0.5626220
376.4485, 1.780762
376.9307, 3.023071
377.4128, 4.222168
377.8949, 5.741333
378.3770, 8.351196
378.8591, 11.85913
379.3412, 12.00146
379.8234, 8.080078
380.3055, 3.235107
380.7876, 1.209473
381.2697, 1.837036
381.7518, 2.401001
382.2339, 2.242310
382.7161, 1.544800
383.1982, 0.4646000
383.6803, 0.9614260
384.1624, 2.038696
384.6445, 2.270142
385.1266, 1.745483
385.6088, 0.4388430
386.0909, 1.967529
386.5730, 4.166992
387.0551, 4.412842
387.5372, 3.148804
388.0193, 1.639160
388.5015, 0.2171630
388.9836, 1.582520
389.4657, 1.298096
389.9478, 0.7327880
390.4299, 3.031860
390.9120, 5.294434
391.3942, 7.009277
391.8763, 7.495239
392.3584, 5.524292
392.8405, 3.225586
393.3226, 1.610840
393.8047, 0.5814210
394.2869, 0.3337400
394.7690, 2.083008
395.2511, 3.247925
395.7332, 2.717285
396.2154, 0.9060060
396.6975, 3.679688
397.1796, 4.136108
397.6617, 3.349243
398.1438, 3.159424
398.6259, 4.378662
399.1081, 5.660767
399.5902, 6.866699
400.0723, 8.139648
400.5544, 8.257935
401.0365, 5.943481
401.5186, 3.414185
402.0008, 2.459717
402.4829, 3.928345
402.9650, 5.446655
403.4471, 6.869019
403.9292, 8.144409
404.4113, 9.102417
404.8935, 9.970459
405.3756, 10.03723
405.8577, 8.618042
406.3398, 5.441895
406.8219, 3.025146
407.3040, 1.463379
407.7862, 0.5737300
408.2683, 0.3332520
408.7504, 0.7916260
409.2325, 0.8837890
409.7146, 4.9194001E-02
410.1967, 1.340088
410.6789, 2.084351
411.1610, 2.152100
411.6431, 1.958618
412.1252, 1.975586
412.6073, 2.021118
413.0894, 1.404175
413.5716, 0.3465580
414.0537, 2.004639
414.5358, 1.450195
415.0179, 0.6351320
415.5000, 2.013672
415.9821, 1.132813
416.4643, 0.8620610
416.9464, 3.132568
417.4285, 5.636719
417.9106, 7.426514
418.3927, 7.681030
418.8748, 6.916260
419.3570, 5.749390
419.8391, 3.448242
420.3212, 1.679688
420.8033, 1.150024
421.2854, 1.801270
421.7675, 3.023438
422.2497, 5.534180
422.7318, 7.940552
423.2139, 9.524658
423.6960, 10.12866
424.1781, 10.05518
424.6602, 8.493774
425.1424, 6.562012
425.6245, 5.888062
426.1066, 7.435791
426.5887, 9.034302
427.0709, 10.28564
427.5530, 11.17407
428.0351, 11.76343
428.5172, 12.24487
428.9993, 12.32544
429.4814, 11.46448
429.9636, 9.152222
430.4457, 7.905762
430.9278, 8.289551
431.4099, 9.504150
431.8920, 9.591309
432.3741, 8.352417
432.8563, 7.548218
433.3384, 8.652344
433.8205, 11.16199
434.3026, 10.98535
434.7847, 7.787598
435.2668, 4.621460
435.7490, 5.323242
436.2311, 8.818604
436.7132, 11.10193
437.1953, 10.47205
437.6774, 9.078857
438.1595, 10.55176
438.6417, 14.09827
439.1238, 16.42578
439.6059, 14.12903
440.0880, 10.34314
440.5701, 8.447998
441.0522, 8.985596
441.5344, 10.16125
442.0165, 11.66541
442.4986, 12.98584
442.9807, 13.46667
443.4628, 12.58167
443.9449, 11.15967
444.4271, 9.025757
444.9092, 6.391724
445.3913, 4.419556
445.8734, 3.020142
446.3555, 2.614624
446.8376, 3.616089
447.3198, 7.688232
447.8019, 10.35840
448.2840, 10.60388
448.7661, 9.535156
449.2482, 8.735718
449.7303, 8.194946
450.2125, 8.135254
450.6946, 8.936035
451.1767, 10.49512
451.6588, 10.89490
452.1409, 9.827148
452.6230, 8.269531
453.1052, 6.823364
453.5873, 5.558838
454.0694, 5.181152
454.5515, 5.702271
455.0337, 6.577759
455.5158, 7.076050
455.9979, 7.193481
456.4800, 6.819946
456.9621, 5.663574
457.4442, 4.054199
457.9264, 2.444946
458.4085, 0.8724370
458.8906, 0.1856690
459.3727, 2.059937
459.8548, 5.050171
460.3369, 6.693726
460.8191, 6.021362
461.3012, 5.005005
461.7833, 5.521851
462.2654, 6.878784
462.7475, 7.614990
463.2296, 5.889404
463.7118, 4.372925
464.1939, 4.959595
464.6760, 7.778931
465.1581, 9.908203
465.6402, 9.887451
466.1223, 9.168213
466.6045, 8.767212
467.0866, 9.340942
467.5687, 9.440186
468.0508, 8.518799
468.5329, 7.095093
469.0150, 6.271973
469.4972, 6.176880
469.9793, 6.534546
470.4614, 7.463257
470.9435, 9.075806
471.4256, 10.18933
471.9077, 10.85083
472.3899, 10.76831
472.8720, 9.311035
473.3541, 6.334961
473.8362, 4.236450
474.3183, 3.399170
474.8004, 3.581177
475.2826, 4.773560
475.7647, 6.848145
476.2468, 8.421997
476.7289, 8.223755
477.2110, 7.117920
477.6931, 7.251099
478.1753, 8.603638
478.6574, 9.786743
479.1395, 9.660767
479.6216, 8.679077
480.1037, 7.365967
480.5858, 5.364502
481.0680, 3.906738
481.5501, 4.403931
482.0322, 6.062988
482.5143, 7.211548
482.9964, 7.108643
483.4786, 6.446411
483.9607, 5.141235
484.4428, 3.076782
484.9249, 2.211304
485.4070, 4.957275
485.8892, 7.784424
486.3713, 8.075073
486.8534, 2.291626
487.3355, 0.7966310
487.8176, 0.1567380
488.2997, 3.533569
488.7819, 6.094360
489.2640, 7.948853
489.7461, 8.620117
490.2282, 7.404175
490.7103, 4.482300
491.1924, 3.600098
491.6746, 5.147827
492.1567, 7.051147
492.6388, 7.127563
493.1209, 5.657593
493.6030, 5.394165
494.0851, 6.921997
494.5673, 9.130859
495.0494, 10.70837
495.5315, 11.67273
496.0136, 12.02808
496.4957, 11.03918
496.9778, 9.904175
497.4600, 10.34399
497.9421, 12.17896
498.4242, 13.57068
498.9063, 13.31824
499.3884, 12.22302
499.8705, 10.84753
500.3527, 8.987549
500.8348, 7.654907
501.3169, 8.208618
501.7990, 9.257935
502.2811, 8.837402
502.7632, 4.523804
503.2454, 0.9427490
503.7275, 0.5544430
504.2096, 0.1646730
504.6917, 0.3371580
505.1738, 1.844482
505.6559, 2.850342
506.1381, 1.953735
506.6202, 1.864868
507.1023, 3.235596
507.5844, 1.386719
508.0665, 1.477905
508.5486, 2.465088
509.0308, 1.541504
509.5129, 4.6631001E-02
509.9950, 2.145386
510.4771, 4.502197
510.9592, 6.689087
511.4413, 8.664063
511.9235, 10.40698
512.4056, 12.07422
512.8877, 13.39587
513.3698, 14.13135
513.8519, 14.27209
514.3340, 13.42297
514.8162, 9.979126
515.2983, 5.855469
515.7804, 3.397461
516.2625, 4.447510
516.7446, 5.828613
517.2267, 6.661865
517.7089, 6.979492
518.1910, 6.861328
518.6731, 6.172119
519.1552, 5.237915
519.6373, 3.826172
520.1194, 1.738892
520.6016, 1.209717
521.0837, 3.023926
521.5658, 5.484131
522.0479, 7.389160
522.5300, 8.517090
523.0121, 9.872559
523.4943, 11.82166
523.9764, 13.59839
524.4585, 13.52283
524.9406, 11.54504
525.4227, 9.720947
525.9048, 8.653809
526.3870, 8.322144
526.8691, 9.072876
527.3513, 10.82178
527.8334, 12.17639
528.3155, 11.93616
528.7976, 10.77332
529.2797, 9.554199
529.7618, 8.342529
530.2440, 7.350464
530.7261, 7.071411
531.2082, 6.985840
531.6903, 6.427368
532.1724, 4.075684
532.6545, 2.367188
533.1367, 2.293945
533.6188, 3.520020
534.1009, 4.852173
534.5830, 6.833740
535.0651, 8.183472
535.5472, 8.227173
536.0294, 6.684204
536.5115, 6.007202
536.9936, 6.582275
537.4757, 7.499512
537.9578, 7.824951
538.4399, 7.326782
538.9221, 8.170410
539.4042, 11.41235
539.8863, 14.65271
540.3684, 11.90308
540.8505, 3.867920
541.3326, 0.8240970
541.8148, 3.578857
542.2969, 12.12329
542.7790, 16.26477
543.2611, 16.32239
543.7432, 15.04736
544.2253, 13.22229
544.7075, 11.58972
545.1896, 11.13330
545.6717, 12.29236
546.1538, 13.18835
546.6359, 12.42432
547.1180, 11.12744
547.6002, 10.49597
548.0823, 11.94263
548.5644, 12.78210
549.0465, 11.98572
549.5286, 10.19104
550.0107, 9.292603
550.4929, 9.790527
550.9750, 10.40369
551.4571, 10.64771
551.9392, 10.50781
552.4213, 11.09668
552.9034, 12.72363
553.3856, 14.12976
553.8677, 14.01917
554.3498, 12.54578
554.8319, 11.74084
555.3140, 11.98022
555.7961, 12.26001
556.2783, 10.71399
556.7604, 8.098511
557.2425, 6.612183
557.7246, 7.733154
558.2067, 9.672607
558.6888, 10.75415
559.1710, 11.20776
559.6531, 11.76855
560.1352, 13.21887
560.6173, 14.56042
561.0994, 15.20520
561.5815, 15.07251
562.0637, 14.55383
562.5458, 13.46545
563.0279, 12.12793
563.5100, 10.70557
563.9921, 8.160156
564.4742, 7.894043
564.9564, 11.38538
565.4385, 15.88477
565.9206, 15.97620
566.4027, 10.44714
566.8848, 6.631714
567.3669, 7.071899
567.8491, 10.40857
568.3312, 12.75122
568.8133, 14.09998
569.2954, 14.63074
569.7775, 14.03931
570.2596, 12.82654
570.7418, 11.72485
571.2239, 10.76782
571.7060, 10.35352
572.1881, 11.41687
572.6702, 12.92908
573.1523, 13.73682
573.6345, 13.28796
574.1166, 12.64050
574.5987, 11.86328
575.0808, 11.20203
575.5629, 11.14368
576.0450, 13.51001
576.5272, 14.54309
577.0093, 12.60522
577.4914, 8.297119
577.9735, 6.360596
578.4556, 8.086548
578.9377, 9.933716
579.4199, 9.872681
579.9020, 7.846680
580.3841, 7.599121
580.8662, 9.489502
581.3483, 11.42346
581.8304, 11.13635
582.3126, 9.124268
582.7947, 6.762085
583.2768, 3.882813
583.7589, 2.011230
584.2410, 3.187622
584.7231, 6.516968
585.2053, 10.23389
585.6874, 15.70959
586.1696, 19.36060
586.6517, 17.99377
587.1338, 12.70996
587.6159, 8.511963
588.0980, 6.536621
588.5801, 6.002075
589.0623, 7.156372
589.5444, 10.45740
590.0265, 11.97302
590.5086, 10.76758
590.9907, 8.995605
591.4728, 8.525269
591.9550, 9.739258
592.4371, 9.915283
592.9192, 8.675903
593.4013, 7.111084
593.8834, 6.656250
594.3655, 7.125610
594.8477, 7.969238
595.3298, 9.634033
595.8119, 11.12183
596.2940, 10.35583
596.7761, 7.932739
597.2582, 6.252197
597.7404, 7.268433
598.2225, 8.941772
598.7046, 9.741211
599.1867, 9.552612
599.6688, 9.734741
600.1509, 11.79871
600.6331, 13.48450
601.1152, 13.12708
601.5973, 9.178101
602.0794, 6.744629
602.5615, 6.210815
603.0436, 6.843628
603.5258, 8.388916
604.0079, 11.45581
604.4900, 11.88623
604.9721, 8.156250
605.4542, 2.775757
605.9363, 0.9896240
606.4185, 2.490234
606.9006, 4.294922
607.3827, 5.351807
607.8648, 5.693115
608.3469, 4.763794
608.8290, 2.905029
609.3112, 1.999023
609.7933, 4.032349
610.2754, 6.795288
610.7575, 8.846924
611.2396, 9.996094
611.7217, 10.23718
612.2039, 8.535278
612.6860, 6.397095
613.1681, 5.005127
613.6502, 4.333618
614.1323, 4.548584
614.6144, 6.234375
615.0966, 8.272217
615.5787, 9.019287
616.0608, 8.263306
616.5429, 7.184448
617.0250, 5.839966
617.5071, 4.625854
617.9893, 4.927124
618.4714, 6.418335
618.9535, 7.280273
619.4356, 6.192993
619.9177, 4.182373
620.3998, 2.232666
620.8820, 0.4241940
621.3641, 0.6988530
621.8462, 0.7661130
622.3283, 9.0453997E-02
622.8104, 1.310303
623.2925, 3.770996
623.7747, 5.531250
624.2568, 5.616943
624.7389, 5.243408
625.2210, 5.438965
625.7031, 6.790161
626.1852, 7.346313
626.6674, 6.846313
627.1495, 5.670410
627.6316, 4.141724
628.1137, 2.213379
628.5958, 1.211304
629.0779, 1.892334
629.5601, 3.311279
630.0422, 3.845581
630.5243, 3.528564
631.0064, 2.479736
631.4885, 0.2308350
631.9706, 2.935913
632.4528, 3.826904
632.9349, 2.984985
633.4170, 2.090088
633.8991, 2.410400
634.3812, 2.481445
634.8633, 1.065186
635.3455, 2.998291
635.8276, 5.045776
636.3097, 3.519409
636.7918, 1.279663
637.2739, 0.7774660
637.7560, 2.399780
638.2382, 3.959106
638.7203, 5.215820
639.2024, 6.388794
639.6845, 8.043213
640.1666, 10.04797
640.6487, 11.46216
641.1309, 12.05640
641.6130, 11.81787
642.0951, 9.957886
642.5772, 7.134155
643.0594, 5.291748
643.5415, 6.132568
644.0236, 7.563599
644.5057, 8.598755
644.9879, 9.202271
645.4700, 9.322998
645.9521, 8.522827
646.4342, 7.708984
646.9163, 7.385498
647.3984, 7.732178
647.8806, 7.690063
648.3627, 7.395142
648.8448, 6.584595
649.3269, 4.774170
649.8090, 1.990845
650.2911, 0.2473140
650.7733, 1.898193
651.2554, 2.707764
651.7375, 1.740234
652.2196, 0.2707520
652.7017, 1.388184
653.1838, 0.4497070
653.6660, 0.3521730
654.1481, 1.095093
654.6302, 3.745361
655.1123, 5.794678
655.5944, 6.194092
656.0765, 6.282715
656.5587, 5.939575
657.0408, 5.447754
657.5229, 6.281250
658.0050, 9.454590
658.4871, 12.11731
658.9692, 13.25024
659.4514, 12.94043
659.9335, 11.97009
660.4156, 10.23035
660.8977, 8.744629
661.3798, 8.559448
661.8619, 9.188354
662.3441, 9.490967
662.8262, 9.421753
663.3083, 8.651733
663.7904, 5.733154
664.2725, 2.589111
664.7546, 1.605591
665.2368, 4.259888
665.7189, 6.410156
666.2010, 6.232910
666.6831, 5.102173
667.1652, 4.636841
667.6473, 6.047974
668.1295, 6.193604
668.6116, 3.990479
669.0937, 1.067505
669.5758, 0.9914550
670.0579, 4.105957
670.5400, 6.720703
671.0222, 7.801270
671.5043, 7.627075
671.9864, 5.900024
672.4685, 3.113770
672.9506, 1.794678
673.4327, 5.649536
673.9149, 9.884644
674.3970, 9.083130
674.8791, 3.991699
675.3612, 0.6962890
675.8433, 3.862427
676.3254, 7.544189
676.8076, 8.358032
677.2897, 5.450439
677.7718, 3.896851
678.2539, 4.382324
678.7360, 5.348389
679.2181, 5.722900
679.7003, 5.496460
680.1824, 5.700806
680.6645, 6.434448
681.1466, 7.287231
681.6287, 7.866577
682.1108, 8.198120
682.5930, 8.290527
683.0751, 8.059814
683.5572, 7.834839
684.0393, 7.838501
684.5214, 8.177246
685.0035, 8.461548
685.4857, 9.173462
685.9678, 9.636475
686.4499, 9.025391
686.9320, 8.130859
687.4141, 8.729126
687.8962, 11.67114
688.3784, 14.58154
688.8605, 17.53723
689.3426, 19.86108
689.8247, 18.26038
690.3068, 12.68066
690.7889, 8.412964
691.2711, 8.987305
691.7532, 12.02881
692.2353, 13.35535
692.7174, 13.09485
693.1995, 11.59900
693.6816, 7.114136
694.1638, 2.692261
694.6459, 0.9199220
695.1280, 2.100952
695.6101, 3.468994
696.0922, 5.117554
696.5743, 6.190552
697.0565, 5.941772
697.5386, 3.834473
698.0207, 3.570557
698.5028, 5.905029
698.9849, 8.533081
699.4670, 8.892822
699.9492, 7.236450
700.4313, 7.031982
700.9135, 8.862061
701.3956, 11.13428
701.8777, 12.52722
702.3598, 13.02173
702.8419, 12.47253
703.3240, 10.26111
703.8062, 8.076050
704.2883, 6.418457
704.7704, 5.409424
705.2525, 5.265015
705.7346, 6.936035
706.2167, 8.349609
706.6989, 9.593872
707.1810, 10.36230
707.6631, 9.615723
708.1452, 6.963989
708.6273, 4.965820
709.1094, 4.740845
709.5916, 5.589966
710.0737, 5.568359
710.5558, 4.818604
711.0379, 4.430054
711.5200, 5.216553
712.0021, 6.559448
712.4843, 8.043091
712.9664, 9.521973
713.4485, 10.51624
713.9306, 10.93774
714.4127, 10.68738
714.8948, 9.345703
715.3770, 6.896240
715.8591, 5.215942
716.3412, 4.418457
716.8233, 4.165649
717.3054, 4.652466
717.7875, 5.759888
718.2697, 5.612549
718.7518, 4.191528
719.2339, 2.708374
719.7160, 2.228394
720.1981, 2.239868
720.6802, 2.079468
721.1624, 1.649902
721.6445, 1.215820
722.1266, 0.5819090
722.6087, 0.2012940
723.0908, 0.5683590
723.5729, 2.214111
724.0551, 3.594849
724.5372, 4.819580
725.0193, 5.587402
725.5014, 5.415894
725.9835, 4.089844
726.4656, 3.080322
726.9478, 2.486572
727.4299, 2.305908
727.9120, 2.839355
728.3941, 3.774170
728.8762, 4.101685
729.3583, 3.267212
729.8405, 2.330933
730.3226, 2.123779
730.8047, 2.404907
731.2868, 2.809204
731.7689, 3.734741
732.2510, 4.103149
732.7332, 3.234253
733.2153, 1.690186
733.6974, 0.6496580
734.1795, 0.1434330
734.6616, 0.3199460
735.1437, 2.878662
735.6259, 6.310791
736.1080, 7.100342
736.5901, 5.517822
737.0722, 3.962524
737.5543, 3.568115
738.0364, 3.788696
738.5186, 3.997437
739.0007, 4.259155
739.4828, 4.857666
739.9649, 7.711060
740.4470, 9.206665
740.9291, 6.282959
741.4113, 0.5437010
741.8934, 3.316772
742.3755, 0.3203130
742.8576, 3.815186
743.3397, 4.427246
743.8218, 2.537476
744.3040, 0.9621580
744.7861, 0.2901610
745.2682, 0.9566650
745.7503, 0.3767090
746.2324, 0.7081300
746.7145, 0.9598390
747.1967, 0.3909910
747.6788, 6.2743999E-02
748.1609, 0.1644290
748.6430, 0.2188720
749.1251, 1.455933
749.6072, 3.936157
750.0894, 5.240112
750.5715, 4.479980
751.0536, 3.639771
751.5357, 4.478760
752.0178, 7.364380
752.4999, 6.839600
752.9821, 2.420776
753.4642, 1.969116
753.9463, 2.028442
754.4284, 0.4965820
754.9105, 2.221436
755.3926, 2.710449
755.8748, 2.506470
756.3569, 0.7246090
756.8390, 0.8842770
757.3211, 0.5183110
757.8032, 3.731323
758.2853, 6.173096
758.7675, 5.538818
759.2496, 3.961792
759.7318, 3.483887
760.2139, 4.351929
760.6960, 4.181274
761.1781, 2.435669
761.6602, 0.9451900
762.1423, 2.950806
762.6245, 6.886475
763.1066, 8.744507
763.5887, 7.204346
764.0708, 5.060425
764.5529, 4.022583
765.0350, 3.588989
765.5172, 3.163696
765.9993, 2.370972
766.4814, 1.861328
766.9635, 1.383057
767.4456, 1.351563
767.9277, 2.569702
768.4099, 5.338257
768.8920, 7.321289
769.3741, 8.153809
769.8562, 8.016724
770.3383, 6.579956
770.8204, 4.407471
771.3026, 3.105957
771.7847, 3.605835
772.2668, 4.333740
772.7489, 4.622070
773.2310, 4.373535
773.7131, 3.424438
774.1953, 0.4133300
774.6774, 1.436523
775.1595, 1.210571
775.6416, 4.1382000E-02
776.1237, 0.1833500
776.6058, 1.036499
777.0880, 1.335327
777.5701, 3.1493999E-02
778.0522, 2.152710
778.5343, 3.814087
779.0164, 4.968628
779.4985, 5.423828
779.9807, 4.349976
780.4628, 3.425537
780.9449, 3.671021
781.4270, 4.815674
781.9091, 6.315308
782.3912, 9.398560
782.8734, 11.05688
783.3555, 10.42651
783.8376, 8.341553
784.3197, 6.725098
784.8018, 5.583984
785.2839, 4.903320
785.7661, 4.603271
786.2482, 4.874390
786.7303, 6.964722
787.2124, 9.963867
787.6945, 11.33313
788.1766, 7.582642
788.6588, 4.202881
789.1409, 4.649170
789.6230, 7.636963
790.1051, 9.484009
790.5872, 9.271484
791.0693, 8.734497
791.5515, 8.050049
792.0336, 7.329956
792.5157, 6.967163
792.9978, 6.952759
793.4799, 7.346680
793.9620, 8.610107
794.4442, 9.807007
794.9263, 9.016235
795.4084, 6.987671
795.8905, 5.814697
796.3726, 7.206909
796.8547, 8.802856
797.3369, 9.980835
797.8190, 10.55432
798.3011, 9.965332
798.7832, 6.869385
799.2653, 5.284546
799.7474, 6.487427
800.2296, 9.731323
800.7117, 11.86926
801.1938, 13.05042
801.6759, 13.70874
802.1580, 14.32886
802.6401, 14.38416
803.1223, 12.85767
803.6044, 10.31519
804.0865, 8.058960
804.5686, 5.388306
805.0507, 4.371826
805.5328, 7.592285
806.0150, 12.86377
806.4971, 14.02148
806.9792, 9.374878
807.4613, 6.197632
807.9434, 7.162842
808.4255, 10.08923
808.9077, 9.504150
809.3898, 6.158691
809.8719, 3.366455
810.3540, 2.896973
810.8361, 3.164917
811.3182, 2.787964
811.8004, 2.171509
812.2825, 2.176636
812.7646, 3.104248
813.2467, 4.353394
813.7288, 6.355835
814.2109, 8.411743
814.6931, 8.302124
815.1752, 5.808960
815.6573, 4.125366
816.1394, 4.477051
816.6215, 5.568237
817.1037, 4.847900
817.5858, 3.083984
818.0679, 2.292603
818.5500, 4.504639
819.0322, 6.593140
819.5143, 6.651978
819.9964, 5.512451
820.4785, 4.851196
820.9606, 4.525635
821.4427, 5.142334
821.9249, 7.259766
822.4070, 9.857544
822.8891, 11.06372
823.3712, 10.88135
823.8533, 9.032471
824.3354, 4.557129
824.8176, 0.3103030
825.2997, 0.2058110
825.7818, 2.504883
826.2639, 4.205200
826.7460, 3.882080
827.2281, 3.433472
827.7103, 3.437378
828.1924, 3.511353
828.6745, 2.882690
829.1566, 0.9821780
829.6387, 0.8312990
830.1208, 3.265259
830.6030, 6.578491
831.0851, 8.575195
831.5672, 9.256470
832.0493, 8.377197
832.5314, 5.146362
833.0135, 2.083984
833.4957, 0.9846190
833.9778, 0.9853520
834.4599, 1.101196
834.9420, 1.718140
835.4241, 1.709839
835.9063, 0.4964600
836.3884, 0.7019040
836.8705, 3.3691000E-02
837.3526, 2.628906
837.8347, 3.308472
838.3168, 1.227661
838.7990, 0.5740970
839.2811, 2.542847
839.7632, 7.315430
840.2453, 8.775513
840.7274, 4.689819
841.2095, 1.637695
841.6917, 2.969238
842.1738, 5.386108
842.6559, 6.362305
843.1380, 5.598267
843.6201, 4.160522
844.1022, 1.752441
844.5844, 0.3055420
845.0665, 0.5596920
845.5486, 0.5202640
846.0307, 1.800659
846.5128, 3.211792
846.9949, 4.303711
847.4771, 4.713989
847.9592, 4.759888
848.4413, 4.470337
848.9234, 3.630981
849.4055, 3.950073
849.8876, 6.511719
850.3698, 8.488037
850.8519, 7.833618
851.3340, 4.797729
851.8161, 2.507202
852.2982, 0.9453130
852.7803, 0.4206540
853.2625, 2.132446
853.7446, 4.331787
854.2267, 5.151611
854.7088, 4.589844
855.1909, 3.818237
855.6730, 2.421265
856.1552, 1.829834
856.6373, 3.360718
857.1194, 6.462280
857.6015, 5.768188
858.0836, 0.6136470
858.5657, 3.124634
859.0479, 1.683350
859.5300, 2.274048
860.0121, 3.627930
860.4942, 2.986084
860.9763, 2.424194
861.4584, 3.509766
861.9406, 4.371948
862.4227, 3.359375
862.9048, 1.375122
863.3869, 1.820435
863.8690, 6.609375
864.3511, 8.782715
864.8333, 5.756470
865.3154, 0.4326170
865.7975, 1.291992
866.2796, 8.3740003E-02
866.7617, 2.456787
867.2438, 5.550293
867.7260, 8.625244
868.2081, 11.61755
868.6902, 14.08105
869.1723, 15.41467
869.6544, 14.49304
870.1365, 13.83594
870.6187, 13.84509
871.1008, 13.87488
871.5829, 12.58777
872.0650, 10.12915
872.5471, 9.640015
873.0292, 12.02344
873.5114, 14.27332
873.9935, 12.32776
874.4756, 8.860352
874.9577, 7.516479
875.4399, 9.921997
875.9220, 11.50293
876.4041, 10.13208
876.8862, 8.392700
877.3683, 8.016724
877.8505, 9.281860
878.3326, 9.573608
878.8147, 8.633545
879.2968, 8.415039
879.7789, 12.53357
880.2610, 17.66174
880.7432, 17.30896
881.2253, 11.32471
881.7074, 6.718872
882.1895, 8.661133
882.6716, 11.19287
883.1537, 10.56299
883.6359, 7.005371
884.1180, 6.036133
884.6001, 8.487061
885.0822, 10.05237
885.5643, 8.037842
886.0464, 4.300781
886.5286, 3.172485
887.0107, 4.137207
887.4928, 5.286621
887.9749, 5.237427
888.4570, 5.478760
888.9391, 7.637207
889.4213, 10.60120
889.9034, 10.59241
890.3855, 5.383423
890.8676, 2.594727
891.3497, 4.706177
891.8318, 8.625977
892.3140, 7.717651
892.7961, 3.318481
893.2782, 0.8825680
893.7603, 2.800781
894.2424, 5.547729
894.7245, 6.791626
895.2067, 7.211792
895.6888, 7.490234
896.1709, 7.791748
896.6530, 8.007324
897.1351, 7.932861
897.6172, 7.911865
898.0994, 8.416260
898.5815, 9.297485
899.0636, 9.352905
899.5457, 8.441650
900.0278, 7.213379
900.5099, 5.578247
900.9921, 4.283203
901.4742, 4.098267
901.9563, 5.207031
902.4384, 6.671021
902.9205, 8.980591
903.4026, 10.69800
903.8848, 10.81665
904.3669, 9.716675
904.8490, 9.960571
905.3311, 11.56641
905.8132, 12.55444
906.2953, 11.23560
906.7775, 9.090820
907.2596, 6.826050
907.7417, 4.884277
908.2238, 4.692627
908.7059, 9.587036
909.1880, 12.57751
909.6702, 11.76404
910.1523, 8.511597
910.6344, 5.518311
911.1165, 2.822388
911.5986, 1.848877
912.0807, 3.461304
912.5629, 5.784546
913.0450, 6.819702
913.5271, 7.110107
914.0092, 7.505615
914.4913, 8.580933
914.9734, 9.081421
915.4556, 8.363770
915.9377, 7.443237
916.4198, 7.280762
916.9019, 8.127686
917.3840, 7.965210
917.8661, 6.491333
918.3483, 5.468872
918.8304, 6.710449
919.3125, 9.198120
919.7946, 12.23779
920.2767, 15.73523
920.7589, 17.71887
921.2410, 15.70447
921.7231, 14.04187
922.2052, 14.75134
922.6873, 17.44983
923.1694, 18.88623
923.6516, 18.99890
924.1337, 18.10425
924.6158, 15.30359
925.0979, 12.37280
925.5800, 12.11084
926.0621, 13.60413
926.5443, 14.59717
927.0264, 13.35730
927.5085, 12.78650
927.9906, 13.95520
928.4727, 15.77319
928.9548, 16.23779
929.4370, 15.29248
929.9191, 15.04810
930.4012, 15.99268
930.8833, 17.22900
931.3654, 17.22302
931.8475, 17.11267
932.3297, 19.10913
932.8118, 24.99622
933.2939, 27.75134
933.7761, 23.06042
934.2582, 17.35107
934.7403, 14.15491
935.2224, 13.47058
935.7045, 14.37207
936.1866, 16.97241
936.6688, 18.04065
937.1509, 12.78870
937.6330, 6.539795
938.1151, 6.727539
938.5972, 12.02246
939.0793, 14.73889
939.5615, 9.795166
940.0436, 5.465576
940.5257, 4.093628
941.0078, 4.603638
941.4899, 4.303467
941.9720, 3.211060
942.4542, 1.519653
942.9363, 1.100098
943.4184, 3.431885
943.9005, 4.651489
944.3826, 4.604980
944.8647, 2.963745
945.3469, 1.578491
945.8290, 5.355225
946.3111, 8.495728
946.7932, 10.28723
947.2753, 9.664307
947.7574, 6.767334
948.2396, 4.293091
948.7217, 2.317871
949.2038, 1.078247
949.6859, 1.552490
950.1680, 2.273315
950.6501, 1.411865
951.1323, 0.9229740
951.6144, 1.228271
952.0965, 2.847534
952.5786, 5.260986
953.0607, 3.471924
953.5428, 0.6046140
954.0250, 0.7769780
954.5071, 2.271240
954.9892, 4.553955
955.4713, 4.035156
955.9534, 2.977783
956.4355, 3.033936
956.9177, 3.606079
957.3998, 3.830811
957.8819, 3.363281
958.3640, 2.869751
958.8461, 2.009644
959.3282, 1.886353
959.8104, 5.096680
960.2925, 10.03394
960.7746, 9.815063
961.2567, 3.937622
961.7388, 0.4719240
962.2209, 3.134521
962.7031, 8.115601
963.1852, 9.738159
963.6673, 7.992798
964.1494, 7.348022
964.6315, 8.063965
965.1136, 8.943848
965.5958, 9.691284
966.0779, 10.12158
966.5600, 9.090698
967.0421, 7.428467
967.5242, 7.520020
968.0063, 12.76331
968.4885, 16.81592
968.9706, 16.02332
969.4527, 12.83215
969.9348, 10.34131
970.4169, 8.809082
970.8990, 7.744507
971.3812, 7.033691
971.8633, 7.277588
972.3454, 10.35303
972.8275, 14.13025
973.3096, 15.04138
973.7917, 12.78979
974.2739, 11.01648
974.7560, 11.42419
975.2381, 12.21960
975.7202, 12.44763
976.2023, 12.18738
976.6844, 13.01672
977.1666, 14.93079
977.6487, 15.99524
978.1308, 14.95251
978.6129, 13.51074
979.0950, 13.68542
979.5771, 14.66077
980.0593, 15.07788
980.5414, 14.05151
981.0235, 13.25293
981.5056, 12.81531
981.9877, 12.51599
982.4698, 12.14868
982.9520, 11.70825
983.4341, 11.14819
983.9162, 10.45813
984.3983, 9.982544
984.8804, 10.47266
985.3625, 10.82959
985.8447, 9.987183
986.3268, 7.999390
986.8089, 6.922241
987.2910, 7.304932
987.7731, 7.018066
988.2552, 4.965088
988.7374, 2.445801
989.2195, 2.440918
989.7016, 4.182617
990.1837, 5.517090
990.6658, 5.624512
991.1479, 5.574219
991.6301, 5.916504
992.1122, 6.220947
992.5944, 5.838623
993.0765, 4.326416
993.5586, 4.832520
994.0407, 7.628662
994.5228, 10.38916
995.0049, 11.41724
995.4871, 11.12939
995.9692, 9.357178
996.4513, 6.483643
996.9334, 4.908691
997.4155, 6.774170
997.8976, 8.312988
998.3798, 8.536133
998.8619, 7.932129
999.3440, 7.623535
999.8261, 7.591064
1000.308, 7.657227
1000.790, 7.697021
1001.272, 7.547363
1001.755, 7.594971
1002.237, 7.305176
1002.719, 5.904297
1003.201, 2.671875
1003.683, 0.7893070
1004.165, 0.5751950
1004.647, 0.9113770
1005.129, 0.8913570
1005.612, 0.9177250
1006.094, 2.891113
1006.576, 6.228027
1007.058, 8.208984
1007.540, 6.594971
1008.022, 4.343994
1008.504, 1.877686
1008.986, 0.2543950
1009.468, 0.6245120
1009.951, 1.265869
1010.433, 2.899414
1010.915, 3.907959
1011.397, 4.164795
1011.879, 2.663574
1012.361, 1.065918
1012.843, 1.511963
1013.325, 4.638916
1013.807, 6.818604
1014.290, 6.476318
1014.772, 6.563965
1015.254, 8.934326
1015.736, 12.56665
1016.218, 13.05396
1016.700, 10.80615
1017.182, 8.182373
1017.664, 5.538330
1018.147, 3.800293
1018.629, 4.157715
1019.111, 5.595215
1019.593, 6.427246
1020.075, 6.572510
1020.557, 7.054932
1021.039, 8.097656
1021.521, 8.794922
1022.003, 8.117432
1022.486, 6.568359
1022.968, 4.729004
1023.450, 2.735840
1023.932, 1.482422
1024.414, 2.836914
1024.896, 3.106689
1025.378, 0.2407230
1025.860, 4.082031
1026.343, 4.891357
1026.825, 2.381836
1027.307, 1.004395
1027.789, 5.016846
1028.271, 8.361816
1028.753, 9.930664
1029.235, 10.17383
1029.717, 9.349609
1030.199, 6.943848
1030.682, 5.668457
1031.164, 6.121338
1031.646, 5.988281
1032.128, 2.677002
1032.610, 1.863281
1033.092, 1.943848
1033.574, 1.371826
1034.056, 4.155029
1034.539, 4.168457
1035.021, 3.909912
1035.503, 3.698242
1035.985, 3.910645
1036.467, 5.423096
1036.949, 8.269775
1037.431, 10.09814
1037.913, 10.60620
1038.396, 10.35889
1038.878, 9.572021
1039.360, 8.484619
1039.842, 7.054199
1040.324, 5.312012
1040.806, 4.718750
1041.288, 6.119385
1041.770, 6.809326
1042.252, 5.629150
1042.734, 3.669678
1043.217, 3.418945
1043.699, 4.224121
1044.181, 4.246826
1044.663, 2.372803
1045.145, 1.005371
1045.627, 1.853516
1046.109, 2.907715
1046.591, 2.168457
1047.074, 0.5310060
1047.556, 0.5300290
1048.038, 5.364014
1048.520, 9.566162
1049.002, 10.11938
1049.484, 8.821777
1049.966, 6.169189
1050.448, 2.942871
1050.931, 1.256592
1051.413, 1.330078
1051.895, 3.177246
1052.377, 7.790283
1052.859, 11.74561
1053.341, 9.391846
1053.823, 3.645264
1054.305, 1.117188
1054.787, 2.580811
1055.270, 4.642822
1055.752, 6.039063
1056.234, 7.488281
1056.716, 9.579590
1057.198, 11.87720
1057.680, 12.65503
1058.162, 11.94409
1058.644, 10.13452
1059.126, 6.757568
1059.609, 3.808105
1060.091, 2.963379
1060.573, 3.596191
1061.055, 5.486816
1061.537, 9.555908
1062.019, 10.26294
1062.501, 6.460938
1062.983, 3.701416
1063.466, 7.570313
1063.948, 13.97705
1064.430, 14.66846
1064.912, 11.29907
1065.394, 8.777100
1065.876, 11.61646
1066.358, 11.61206
1066.840, 5.231689
1067.323, 1.973389
1067.805, 1.981445
1068.287, 3.838379
1068.769, 5.357422
1069.251, 1.777100
1069.733, 0.2124020
1070.215, 6.739502
1070.697, 14.35498
1071.179, 16.67139
1071.661, 14.70605
1072.144, 12.91699
1072.626, 11.21704
1073.108, 10.43066
1073.590, 11.01929
1074.072, 11.91211
1074.554, 12.16064
1075.036, 11.72656
1075.518, 10.19458
1076.001, 6.919434
1076.483, 5.808350
1076.965, 8.412598
1077.447, 10.59082
1077.929, 9.851318
1078.411, 7.372803
1078.893, 6.191895
1079.375, 6.179199
1079.858, 7.000244
1080.340, 10.09058
1080.822, 11.66211
1081.304, 7.921143
1081.786, 3.851318
1082.268, 4.703857
1082.750, 10.58716
1083.232, 13.45190
1083.714, 12.90430
1084.197, 10.76440
1084.679, 6.458496
1085.161, 3.061768
1085.643, 4.063965
1086.125, 7.763916
1086.607, 8.040527
1087.089, 3.066162
1087.571, 1.373291
1088.054, 4.978027
1088.536, 9.274902
1089.018, 7.982666
1089.500, 4.323730
1089.982, 3.049316
1090.464, 4.565918
1090.946, 6.035156
1091.428, 7.019043
1091.911, 7.798340
1092.393, 8.517334
1092.875, 9.047852
1093.357, 9.215576
1093.839, 8.941895
1094.321, 7.903564
1094.803, 5.736084
1095.285, 3.711670
1095.767, 2.610840
1096.250, 1.742920
1096.732, 0.4982910
1097.214, 1.037842
1097.696, 1.255371
1098.178, 0.2531740
1098.660, 0.6411130
1099.142, 6.6405997E-02
1099.624, 6.6161998E-02
1100.106, 2.971924
1100.589, 6.903809
1101.071, 8.585205
1101.553, 7.049072
1102.035, 6.228760
1102.517, 6.267578
1102.999, 6.643066
1103.481, 7.452148
1103.963, 7.971680
1104.446, 6.179688
1104.928, 2.962158
1105.410, 2.380371
1105.892, 8.040283
1106.374, 11.45947
1106.856, 10.94800
1107.338, 8.879395
1107.820, 8.179443
1108.302, 8.502930
1108.785, 9.297363
1109.267, 10.48315
1109.749, 11.08667
1110.231, 10.54761
1110.713, 9.493164
1111.195, 7.952148
1111.677, 6.258789
1112.159, 5.363770
1112.641, 5.190674
1113.124, 5.258789
1113.606, 5.576660
1114.088, 5.675781
1114.570, 5.178711
1115.052, 4.401611
1115.534, 3.193848
1116.016, 1.661377
1116.498, 2.793701
1116.981, 6.717773
1117.463, 9.586182
1117.945, 9.098389
1118.427, 7.794189
1118.909, 7.886475
1119.391, 8.886230
1119.873, 10.26611
1120.355, 12.52124
1120.838, 13.15308
1121.320, 11.85864
1121.802, 10.13525
1122.284, 8.739014
1122.766, 7.743164
1123.248, 7.258545
1123.730, 7.238281
1124.212, 7.499023
1124.694, 9.633789
1125.177, 9.132813
1125.659, 4.570068
1126.141, 0.2377930
1126.623, 0.8229980
1127.105, 4.703857
1127.587, 7.263672
1128.069, 8.317627
1128.551, 8.517090
1129.033, 7.379639
1129.516, 6.297852
1129.998, 5.464844
1130.480, 5.027100
1130.962, 5.682861
1131.444, 7.050293
1131.926, 6.839111
1132.408, 4.632813
1132.890, 3.207520
1133.373, 5.380127
1133.855, 7.832764
1134.337, 8.940430
1134.819, 8.838135
1135.301, 7.495605
1135.783, 5.006592
1136.265, 3.225098
1136.747, 2.652100
1137.229, 2.862305
1137.712, 4.268311
1138.194, 5.715088
1138.676, 5.902832
1139.158, 4.828613
1139.640, 4.542725
1140.122, 5.106201
1140.604, 5.828613
1141.086, 6.662354
1141.569, 7.094482
1142.051, 6.120605
1142.533, 4.604736
1143.015, 3.648926
1143.497, 3.320313
1143.979, 4.115479
1144.461, 6.329834
1144.943, 8.420654
1145.426, 9.456055
1145.908, 9.703125
1146.390, 9.542725
1146.872, 8.877441
1147.354, 7.519043
1147.836, 3.865234
1148.318, 2.036865
1148.800, 2.554199
1149.282, 3.889648
1149.765, 5.298584
1150.247, 6.400146
1150.729, 5.947266
1151.211, 4.327881
1151.693, 3.158447
1152.175, 2.990967
1152.657, 3.759766
1153.139, 6.401123
1153.621, 8.496094
1154.104, 5.925293
1154.586, 0.5117190
1155.068, 0.9262700
1155.550, 1.623291
1156.032, 3.234375
1156.514, 1.124268
1156.996, 3.495850
1157.478, 0.4982910
1157.961, 4.815430
1158.443, 7.250000
1158.925, 7.100586
1159.407, 5.508789
1159.889, 2.556641
1160.371, 0.6799320
1160.853, 2.595215
1161.335, 4.645996
1161.818, 4.630371
1162.300, 3.428223
1162.782, 3.571289
1163.264, 4.990723
1163.746, 7.286133
1164.228, 10.68042
1164.710, 13.04248
1165.192, 11.30420
1165.674, 9.330566
1166.156, 10.57983
1166.639, 14.22217
1167.121, 15.44897
1167.603, 14.28076
1168.085, 12.80542
1168.567, 11.80566
1169.049, 10.40210
1169.531, 5.708252
1170.013, 1.706055
1170.496, 3.771240
1170.978, 12.01440
1171.460, 15.01392
1171.942, 12.52515
1172.424, 9.165039
1172.906, 5.848389
1173.388, 3.938965
1173.870, 7.382324
1174.353, 12.29077
1174.835, 12.69897
1175.317, 6.781738
1175.799, 6.611084
1176.281, 13.25269
1176.763, 17.51953
1177.245, 11.83154
1177.727, 3.791992
1178.209, 2.476807
1178.692, 4.728760
1179.174, 4.931885
1179.656, 0.4853520
1180.138, 0.3769530
1180.620, 3.028564
1181.102, 7.447754
1181.584, 11.74805
1182.066, 13.64648
1182.548, 7.850586
1183.031, 1.443359
1183.513, 3.935059
1183.995, 6.748535
1184.477, 12.84521
1184.959, 13.12915
1185.441, 11.00024
1185.923, 7.885742
1186.405, 5.262451
1186.888, 5.650391
1187.370, 8.408691
1187.852, 11.20898
1188.334, 15.04199
1188.816, 15.40503
1189.298, 10.94971
1189.780, 6.087402
1190.262, 5.317383
1190.745, 7.092773
1191.227, 10.17310
1191.709, 13.88037
1192.191, 15.30029
1192.673, 12.44604
1193.155, 9.996094
1193.637, 8.546143
1194.119, 7.739502
1194.601, 6.748291
1195.084, 6.313965
1195.566, 8.786133
1196.048, 13.78247
1196.530, 15.41895
1197.012, 9.912842
1197.494, 6.384277
1197.976, 6.921631
1198.458, 9.107178
1198.941, 9.762695
1199.423, 9.813965
1199.905, 10.71704
1200.387, 12.84863
1200.869, 13.33472
1201.351, 10.90845
1201.833, 8.034912
1202.315, 4.552490
1202.797, 2.456299
1203.280, 7.665283
1203.762, 15.43945
1204.244, 16.41479
1204.726, 8.812500
1205.208, 4.235352
1205.690, 6.213135
1206.172, 8.081299
1206.654, 7.640381
1207.136, 6.517334
1207.619, 8.253662
1208.101, 11.07397
1208.583, 11.51880
1209.065, 8.541016
1209.547, 6.670166
1210.029, 6.954346
1210.511, 7.301270
1210.993, 6.811768
1211.476, 6.180908
1211.958, 6.164063
1212.440, 7.126953
1212.922, 10.37549
1213.404, 17.22217
1213.886, 20.70898
1214.368, 19.30078
1214.850, 16.64380
1215.333, 14.17871
1215.815, 12.01758
1216.297, 10.99878
1216.779, 10.42896
1217.261, 8.596191
1217.743, 4.040771
1218.225, 3.431152
1218.707, 9.388672
1219.189, 13.24341
1219.672, 9.711670
1220.154, 3.299072
1220.636, 2.404785
1221.118, 4.632324
1221.600, 5.736816
1222.082, 4.346680
1222.564, 2.705811
1223.046, 0.3510740
1223.528, 0.4814450
1224.011, 2.220459
1224.493, 6.097900
1224.975, 7.128418
1225.457, 6.427734
1225.939, 5.880615
1226.421, 5.712402
1226.903, 6.603027
1227.385, 9.094238
1227.868, 10.71631
1228.350, 9.992188
1228.832, 7.690674
1229.314, 3.230957
1229.796, 1.361816
1230.278, 2.141113
1230.760, 4.268311
1231.242, 6.444092
1231.724, 3.542236
1232.207, 0.4716800
1232.689, 0.1115720
1233.171, 1.203369
1233.653, 2.917725
1234.135, 4.657227
1234.617, 5.302246
1235.099, 4.171631
1235.581, 4.273926
1236.063, 5.916504
1236.546, 6.882324
1237.028, 5.752930
1237.510, 3.343018
1237.992, 1.720215
1238.474, 6.597168
1238.956, 5.779785
1239.438, 3.158203
1239.920, 7.305664
1240.403, 6.286377
1240.885, 4.526367
1241.367, 4.799072
1241.849, 5.807861
1242.331, 5.956299
1242.813, 5.583984
1243.295, 5.138428
1243.777, 4.482178
1244.260, 4.392822
1244.742, 4.869385
1245.224, 5.951660
1245.706, 8.899170
1246.188, 11.24438
1246.670, 10.96338
1247.152, 9.296143
1247.634, 8.012939
1248.116, 7.161621
1248.599, 6.191406
1249.081, 5.147949
1249.563, 4.408203
1250.045, 3.252441
1250.527, 3.586670
1251.009, 8.888672
1251.491, 14.33252
1251.973, 14.51416
1252.455, 9.679688
1252.938, 5.221191
1253.420, 1.437012
1253.902, 9.3506001E-02
1254.384, 5.596191
1254.866, 9.278320
1255.348, 6.805908
1255.830, 2.442871
1256.313, 1.302246
1256.795, 3.871094
1257.277, 0.5729980
1257.759, 10.19067
1258.241, 15.52319
1258.723, 6.809814
1259.205, 1.152588
1259.687, 2.812744
1260.169, 6.794189
1260.651, 9.121826
1261.134, 10.16040
1261.616, 11.06372
1262.098, 11.72681
1262.580, 11.84644
1263.062, 10.47729
1263.544, 9.722412
1264.026, 10.25244
1264.508, 10.69238
1264.991, 9.814697
1265.473, 8.222412
1265.955, 6.645508
1266.437, 5.183350
1266.919, 4.673828
1267.401, 6.687744
1267.883, 7.684570
1268.365, 7.489746
1268.848, 7.740234
1269.330, 11.23486
1269.812, 14.78906
1270.294, 13.67725
1270.776, 8.519043
1271.258, 4.241699
1271.740, 0.8361820
1272.222, 0.5585940
1272.704, 3.709717
1273.187, 7.274170
1273.669, 9.730225
1274.151, 11.07983
1274.633, 10.78638
1275.115, 9.564941
1275.597, 8.762451
1276.079, 8.680908
1276.561, 6.441162
1277.043, 2.184570
1277.526, 7.7147998E-02
1278.008, 4.749756
1278.490, 9.262451
1278.972, 8.985596
1279.454, 6.520508
1279.936, 3.217773
1280.418, 1.137451
1280.900, 0.5715330
1281.383, 1.254883
1281.865, 1.943848
1282.347, 1.778320
1282.829, 1.754639
1283.311, 2.068115
1283.793, 2.708252
1284.275, 3.697998
1284.757, 4.994873
1285.240, 7.403076
1285.722, 10.09277
1286.204, 10.19873
1286.686, 3.358154
1287.168, 0.1950680
1287.650, 3.124756
1288.132, 6.625732
1288.614, 6.400391
1289.096, 4.587891
1289.578, 6.010254
1290.061, 9.124023
1290.543, 10.71021
1291.025, 9.226318
1291.507, 7.711182
1291.989, 5.996094
1292.471, 4.901611
1292.953, 5.225098
1293.435, 5.972656
1293.918, 6.050293
1294.400, 5.712402
1294.882, 5.218018
1295.364, 4.477783
1295.846, 4.874756
1296.328, 6.483887
1296.810, 8.222168
1297.292, 10.01367
1297.775, 10.56982
1298.257, 8.096191
1298.739, 5.035645
1299.221, 3.547852
1299.703, 3.512695
1300.185, 4.711426
1300.667, 6.787354
1301.149, 7.012695
1301.631, 2.897217
1302.114, 5.2246001E-02
1302.596, 0.0000000E+00
##END=



