##NAMES=Djurleite
##RRUFFID=R070333
##IDEAL CHEMISTRY=Cu_31_S_16_
##LOCALITY=Cornwall, England
##OWNER=RRUFF
##SOURCE=Michael Scott
##DESCRIPTION=Aggregate of black metallic prismatic crystals with bluish tarnish
##STATUS=The identification of this mineral has been confirmed by X-ray diffraction and chemical analysis
##URL=rruff.info/R070333
##MEASURED CHEMISTRY=Cu_30.75_S_16_ = Cu_1.92_S
166.2887, 0.0000000E+00
166.7709, 5.977661
167.2530, 17.27600
167.7351, 32.93079
168.2172, 45.78748
168.6993, 55.67419
169.1814, 73.48706
169.6636, 71.98450
170.1457, 61.47131
170.6278, 47.39929
171.1099, 28.44836
171.5920, 6.112183
172.0741, 5.560059
172.5563, 4.669312
173.0384, 30.52673
173.5205, 53.19617
174.0026, 70.45850
174.4847, 83.14832
174.9668, 91.63403
175.4490, 96.61670
175.9311, 96.84473
176.4132, 89.86572
176.8953, 75.57129
177.3774, 61.76819
177.8595, 48.36035
178.3417, 36.47900
178.8238, 31.68018
179.3059, 37.11267
179.7880, 45.61768
180.2701, 46.24622
180.7522, 43.17371
181.2344, 37.83972
181.7165, 25.32080
182.1986, 13.08154
182.6807, 11.98816
183.1628, 24.19519
183.6449, 43.23511
184.1271, 59.58142
184.6092, 76.59851
185.0913, 82.91187
185.5734, 73.53357
186.0555, 59.59814
186.5376, 47.20923
187.0198, 44.83752
187.5019, 47.80042
187.9840, 43.28918
188.4661, 16.51746
188.9482, 1.295288
189.4303, 9.592896
189.9125, 27.56519
190.3946, 38.72437
190.8767, 34.52429
191.3588, 18.36487
191.8409, 6.032959
192.3230, 6.655029
192.8052, 10.88062
193.2873, 1.018188
193.7694, 22.23169
194.2515, 42.30261
194.7336, 55.82800
195.2157, 62.43408
195.6979, 57.07959
196.1800, 21.80542
196.6621, 4.441528
197.1442, 1.273315
197.6263, 24.27502
198.1084, 50.15845
198.5906, 62.20593
199.0727, 60.48486
199.5548, 56.40515
200.0369, 46.31409
200.5190, 37.20178
201.0011, 31.92554
201.4833, 30.83875
201.9654, 36.00659
202.4475, 54.72278
202.9296, 82.86414
203.4117, 89.81848
203.8938, 53.91638
204.3760, 9.352295
204.8581, 15.13782
205.3402, 17.73535
205.8223, 6.709717
206.3044, 22.07532
206.7865, 61.40515
207.2687, 84.05933
207.7508, 70.61902
208.2329, 43.07300
208.7150, 33.66772
209.1971, 48.88635
209.6792, 63.92139
210.1614, 51.07715
210.6435, 21.78674
211.1256, 3.119873
211.6077, 11.68945
212.0898, 36.82581
212.5719, 55.31787
213.0541, 64.16260
213.5362, 70.20996
214.0183, 81.53711
214.5004, 94.65112
214.9825, 99.90540
215.4646, 84.17078
215.9468, 54.34412
216.4289, 41.38562
216.9110, 58.00452
217.3931, 75.25562
217.8752, 75.24329
218.3573, 62.23962
218.8395, 48.72192
219.3216, 44.55518
219.8037, 48.75195
220.2858, 48.15649
220.7679, 36.75952
221.2500, 26.83301
221.7322, 24.25122
222.2143, 28.00281
222.6964, 34.14661
223.1785, 40.72595
223.6606, 47.90540
224.1427, 51.81763
224.6249, 42.49963
225.1070, 38.54224
225.5891, 54.18579
226.0712, 60.66553
226.5533, 84.03931
227.0354, 95.65747
227.5176, 96.20325
227.9997, 52.53394
228.4818, 65.96216
228.9639, 56.50928
229.4460, 46.04614
229.9281, 66.92700
230.4103, 29.60461
230.8924, 50.56531
231.3745, 66.94836
231.8566, 80.86902
232.3387, 94.12048
232.8208, 101.7996
233.3030, 97.90039
233.7851, 84.42505
234.2672, 48.72473
234.7493, 75.82202
235.2314, 91.22266
235.7135, 95.55273
236.1957, 55.66931
236.6778, 72.88916
237.1599, 67.21606
237.6420, 60.58545
238.1241, 85.81519
238.6062, 52.34448
239.0884, 77.07312
239.5705, 78.56384
240.0526, 90.64392
240.5347, 79.69739
241.0168, 75.91638
241.4989, 95.16919
241.9811, 101.6729
242.4632, 79.76672
242.9453, 47.26367
243.4274, 25.45325
243.9095, 15.90479
244.3916, 14.07837
244.8738, 21.18237
245.3559, 35.43262
245.8380, 48.38599
246.3201, 49.22632
246.8022, 30.96082
247.2843, 22.85583
247.7665, 27.93799
248.2486, 39.59814
248.7307, 58.00049
249.2128, 81.19519
249.6949, 99.12134
250.1770, 98.12634
250.6592, 69.31055
251.1413, 55.37329
251.6234, 66.68774
252.1055, 83.80151
252.5876, 93.70105
253.0697, 94.25439
253.5519, 88.92017
254.0340, 80.18372
254.5161, 65.36389
254.9982, 58.62292
255.4803, 68.06213
255.9624, 80.29517
256.4445, 83.47290
256.9267, 75.58765
257.4088, 65.02954
257.8909, 59.82385
258.3730, 61.12195
258.8551, 64.81177
259.3372, 71.24390
259.8194, 79.81042
260.3015, 93.78918
260.7836, 112.6440
261.2657, 125.3712
261.7478, 118.6016
262.2299, 88.20081
262.7121, 68.25317
263.1942, 69.79150
263.6763, 77.07605
264.1584, 74.44910
264.6405, 60.58655
265.1227, 47.92981
265.6048, 49.11768
266.0869, 65.46765
266.5690, 75.88281
267.0511, 78.22009
267.5332, 75.69629
268.0154, 68.03186
268.4975, 55.81519
268.9796, 46.60510
269.4617, 47.66663
269.9438, 59.21716
270.4259, 68.56555
270.9081, 76.87891
271.3902, 81.89160
271.8723, 80.96155
272.3544, 74.14941
272.8365, 64.22229
273.3186, 49.86304
273.8008, 33.28064
274.2829, 30.15393
274.7650, 54.87097
275.2471, 82.58984
275.7292, 94.33350
276.2113, 90.35291
276.6935, 82.29761
277.1756, 77.75037
277.6577, 75.70544
278.1398, 70.19226
278.6219, 55.99158
279.1040, 42.48547
279.5862, 37.05383
280.0683, 38.94958
280.5504, 41.93982
281.0325, 42.95178
281.5146, 41.79797
281.9967, 38.95129
282.4789, 31.21631
282.9610, 24.68140
283.4431, 24.96521
283.9252, 30.75110
284.4073, 34.52588
284.8894, 31.84265
285.3716, 24.24951
285.8537, 17.06262
286.3358, 7.931641
286.8179, 2.064331
287.3000, 2.131592
287.7821, 7.841064
288.2643, 19.63037
288.7464, 41.73682
289.2285, 66.58911
289.7106, 75.00439
290.1927, 57.21497
290.6748, 42.09143
291.1570, 48.18994
291.6391, 68.69141
292.1212, 82.22681
292.6033, 79.33411
293.0854, 67.26367
293.5675, 59.26917
294.0497, 55.40930
294.5318, 51.35083
295.0139, 44.89392
295.4960, 38.13928
295.9781, 36.30627
296.4602, 41.88806
296.9424, 51.37878
297.4245, 60.43445
297.9066, 71.25525
298.3887, 74.26599
298.8708, 60.11060
299.3529, 37.34387
299.8351, 19.79602
300.3172, 10.49805
300.7993, 9.158569
301.2814, 19.02979
301.7635, 41.84082
302.2456, 59.92798
302.7278, 71.09570
303.2099, 75.56030
303.6920, 70.50000
304.1741, 54.33521
304.6562, 38.06653
305.1383, 36.00781
305.6205, 49.16333
306.1026, 57.17419
306.5847, 52.57617
307.0668, 44.21667
307.5489, 41.90918
308.0310, 47.27246
308.5132, 53.73816
308.9953, 54.00098
309.4774, 47.02734
309.9595, 44.58362
310.4416, 57.35059
310.9237, 68.95642
311.4059, 64.26526
311.8880, 43.67834
312.3701, 19.98572
312.8522, 0.7309570
313.3343, 12.51819
313.8164, 16.42017
314.2986, 6.258301
314.7807, 8.329102
315.2628, 26.06750
315.7449, 44.50964
316.2270, 54.85437
316.7091, 49.85425
317.1913, 33.45496
317.6734, 28.80029
318.1555, 43.86609
318.6376, 60.05823
319.1197, 72.63196
319.6018, 81.15295
320.0840, 83.84302
320.5661, 78.75793
321.0482, 69.24988
321.5303, 66.96521
322.0124, 79.47156
322.4945, 87.67688
322.9767, 84.38684
323.4588, 75.14526
323.9409, 68.49512
324.4230, 67.81128
324.9051, 69.72754
325.3872, 67.31592
325.8694, 57.06042
326.3515, 48.70276
326.8336, 45.78223
327.3157, 43.77527
327.7978, 35.17310
328.2799, 18.69043
328.7621, 4.449463
329.2442, 7.721802
329.7263, 40.19019
330.2084, 57.83252
330.6905, 51.14966
331.1726, 37.66357
331.6548, 28.64832
332.1369, 25.87061
332.6190, 25.80774
333.1011, 24.60962
333.5832, 21.25317
334.0653, 23.11243
334.5475, 37.22546
335.0296, 49.13708
335.5117, 46.53027
335.9938, 34.39514
336.4759, 30.65259
336.9580, 52.12976
337.4402, 98.01526
337.9223, 113.4872
338.4044, 56.39490
338.8865, 15.60657
339.3686, 30.74902
339.8507, 75.98792
340.3329, 103.0471
340.8150, 82.61389
341.2971, 28.77600
341.7792, 2.395630
342.2613, 36.03113
342.7434, 57.47888
343.2256, 51.41223
343.7077, 32.63672
344.1898, 15.69336
344.6719, 6.567505
345.1540, 4.228760
345.6361, 8.836792
346.1183, 26.87744
346.6004, 39.34497
347.0825, 42.50586
347.5646, 42.26990
348.0467, 44.32092
348.5288, 49.13623
349.0110, 51.03052
349.4931, 40.10901
349.9752, 10.53247
350.4573, 8.657104
350.9394, 15.80994
351.4215, 13.18481
351.9037, 6.507690
352.3858, 37.86169
352.8679, 63.08167
353.3500, 62.69629
353.8321, 37.57190
354.3142, 24.99194
354.7964, 32.68079
355.2785, 44.70068
355.7606, 58.36047
356.2427, 71.14514
356.7248, 79.04370
357.2069, 80.31909
357.6891, 74.81628
358.1712, 58.07129
358.6533, 18.54126
359.1354, 5.714355
359.6175, 17.55164
360.0996, 57.08630
360.5818, 75.75732
361.0639, 57.40332
361.5460, 25.10803
362.0281, 9.830444
362.5102, 13.26428
362.9923, 18.07031
363.4745, 21.08862
363.9566, 21.30371
364.4387, 16.61938
364.9208, 6.108276
365.4029, 3.901978
365.8850, 11.81909
366.3672, 16.35291
366.8493, 7.930298
367.3314, 23.96692
367.8135, 56.73450
368.2956, 66.33276
368.7777, 54.53247
369.2599, 38.05847
369.7420, 18.92236
370.2241, 0.7952880
370.7062, 8.995850
371.1883, 9.245239
371.6704, 6.523560
372.1526, 6.034790
372.6347, 7.171997
373.1168, 4.504395
373.5989, 6.386963
374.0810, 18.59387
374.5631, 27.04932
375.0453, 31.72119
375.5274, 33.83740
376.0095, 33.92627
376.4916, 31.98364
376.9737, 28.43823
377.4558, 21.98145
377.9380, 15.59912
378.4201, 8.900757
378.9022, 3.266479
379.3843, 1.344727
379.8664, 2.801758
380.3485, 8.302368
380.8307, 20.30774
381.3128, 48.17371
381.7949, 65.08594
382.2770, 60.91357
382.7591, 49.69946
383.2412, 46.09167
383.7234, 52.25024
384.2055, 58.52905
384.6876, 53.11267
385.1697, 32.24854
385.6518, 16.34766
386.1339, 1.749878
386.6161, 5.733765
387.0982, 0.9019780
387.5803, 17.65356
388.0624, 34.01526
388.5445, 42.47327
389.0266, 43.62134
389.5088, 43.80371
389.9909, 42.20129
390.4730, 40.48730
390.9551, 38.58179
391.4372, 36.84814
391.9193, 35.14734
392.4015, 33.26428
392.8836, 32.80334
393.3657, 38.84668
393.8478, 57.97742
394.3299, 66.91626
394.8120, 54.62939
395.2942, 37.31482
395.7763, 24.42566
396.2584, 17.81738
396.7405, 15.54785
397.2226, 13.17639
397.7047, 10.60474
398.1869, 23.65881
398.6690, 73.02112
399.1511, 114.2734
399.6332, 120.4551
400.1153, 98.83118
400.5974, 70.58240
401.0796, 39.83020
401.5617, 11.98120
402.0438, 1.506714
402.5259, 12.31909
403.0080, 24.96887
403.4901, 28.17627
403.9723, 26.86719
404.4544, 28.64954
404.9365, 37.20325
405.4186, 45.11914
405.9007, 44.09680
406.3828, 36.04468
406.8650, 31.72595
407.3471, 35.83569
407.8292, 44.25391
408.3113, 51.50818
408.7934, 59.77527
409.2755, 59.83362
409.7577, 38.52319
410.2398, 11.29370
410.7219, 2.957275
411.2040, 17.94702
411.6861, 38.83423
412.1682, 48.33313
412.6504, 44.51465
413.1325, 44.10474
413.6146, 49.36243
414.0967, 55.82483
414.5788, 61.36096
415.0609, 66.01660
415.5431, 71.92590
416.0252, 81.52991
416.5073, 91.57776
416.9894, 86.11548
417.4715, 41.65637
417.9536, 11.86450
418.4358, 11.04529
418.9179, 23.22705
419.4000, 30.77112
419.8821, 28.41980
420.3642, 24.13611
420.8463, 32.46167
421.3285, 64.20837
421.8106, 78.26111
422.2927, 57.13940
422.7748, 34.59082
423.2569, 27.02527
423.7390, 32.90002
424.2212, 41.45703
424.7033, 46.45776
425.1854, 48.14258
425.6675, 44.13733
426.1496, 27.28516
426.6317, 17.29016
427.1139, 27.43213
427.5960, 45.82288
428.0781, 57.25195
428.5602, 55.62756
429.0423, 47.28052
429.5244, 36.34216
430.0066, 22.42725
430.4887, 16.46558
430.9708, 26.51514
431.4529, 42.23828
431.9350, 51.82532
432.4171, 55.15747
432.8993, 54.44800
433.3814, 48.30615
433.8635, 39.45178
434.3456, 33.67517
434.8277, 32.25293
435.3098, 29.37976
435.7920, 17.76147
436.2741, 1.276489
436.7562, 11.27197
437.2383, 5.299805
437.7204, 4.086914
438.2025, 9.202515
438.6847, 11.55359
439.1668, 17.85608
439.6489, 32.62830
440.1310, 49.94336
440.6131, 53.42407
441.0952, 29.02661
441.5774, 10.35583
442.0595, 0.8951420
442.5416, 5.899048
443.0237, 4.319580
443.5058, 3.132568
443.9879, 13.46521
444.4701, 24.21667
444.9522, 37.19421
445.4343, 44.28564
445.9164, 36.81470
446.3985, 31.63098
446.8806, 39.44507
447.3628, 52.76721
447.8449, 56.24854
448.3270, 39.77283
448.8091, 13.67615
449.2912, 2.467285
449.7733, 10.62427
450.2555, 20.86450
450.7375, 33.04456
451.2197, 42.79785
451.7018, 46.23413
452.1839, 42.71936
452.6660, 35.82178
453.1481, 26.05151
453.6302, 14.67004
454.1124, 8.291992
454.5945, 9.103760
455.0766, 11.47559
455.5587, 13.22717
456.0408, 14.41284
456.5229, 14.58850
457.0051, 12.27734
457.4872, 9.965820
457.9693, 9.081665
458.4514, 9.870361
458.9335, 14.08289
459.4156, 23.48730
459.8978, 35.35425
460.3799, 43.29541
460.8620, 47.69507
461.3441, 47.84668
461.8262, 38.38257
462.3083, 27.33911
462.7905, 26.26416
463.2726, 34.78271
463.7547, 42.67627
464.2368, 38.93018
464.7189, 21.27844
465.2010, 11.90723
465.6832, 17.72839
466.1653, 23.96021
466.6474, 25.57178
467.1295, 24.12048
467.6116, 25.65332
468.0938, 33.40027
468.5759, 42.34937
469.0580, 39.38501
469.5401, 16.99976
470.0222, 3.685913
470.5043, 11.82642
470.9865, 25.22253
471.4686, 34.80017
471.9507, 39.58057
472.4328, 42.65527
472.9149, 48.33069
473.3970, 54.35388
473.8792, 49.98547
474.3613, 30.11890
474.8434, 13.89868
475.3255, 19.77039
475.8076, 13.18762
476.2897, 41.74597
476.7719, 58.63867
477.2540, 64.39526
477.7361, 25.91125
478.2182, 44.52429
478.7003, 40.25623
479.1824, 35.04858
479.6646, 61.69800
480.1467, 29.64429
480.6288, 55.78857
481.1109, 58.70312
481.5930, 72.25378
482.0751, 62.78796
482.5573, 56.62708
483.0394, 44.27039
483.5215, 32.65173
484.0036, 28.00867
484.4857, 29.53162
484.9678, 32.04797
485.4500, 37.23547
485.9321, 40.93115
486.4142, 42.27966
486.8963, 42.10364
487.3784, 40.95862
487.8605, 39.06421
488.3427, 36.82800
488.8248, 34.52905
489.3069, 32.14526
489.7890, 30.35156
490.2711, 29.36975
490.7532, 28.77979
491.2354, 27.25171
491.7175, 25.88660
492.1996, 27.58032
492.6817, 36.50293
493.1638, 45.84863
493.6459, 45.27734
494.1281, 35.59509
494.6102, 29.62512
495.0923, 34.96179
495.5744, 45.68347
496.0565, 50.61316
496.5386, 48.20557
497.0208, 48.17432
497.5029, 59.46997
497.9850, 70.13147
498.4671, 64.18127
498.9492, 42.55701
499.4313, 22.62915
499.9135, 18.99585
500.3956, 29.85986
500.8777, 34.44666
501.3598, 27.45276
501.8419, 20.60779
502.3240, 10.63928
502.8062, 4.159424
503.2883, 13.52087
503.7704, 40.69055
504.2525, 66.88257
504.7346, 63.31860
505.2167, 24.02771
505.6989, 1.968750
506.1810, 10.58386
506.6631, 7.871948
507.1452, 11.61584
507.6273, 39.12048
508.1094, 54.87939
508.5916, 45.17041
509.0737, 26.49988
509.5558, 24.05762
510.0379, 37.05994
510.5200, 40.89380
511.0021, 21.82776
511.4843, 4.140747
511.9664, 11.70044
512.4485, 0.7281490
512.9306, 13.91968
513.4127, 27.47388
513.8948, 36.67224
514.3770, 32.32910
514.8591, 16.55713
515.3412, 4.803467
515.8233, 8.060181
516.3054, 24.43604
516.7875, 41.71338
517.2697, 72.36804
517.7518, 88.14661
518.2339, 79.30457
518.7160, 58.38989
519.1981, 31.74243
519.6802, 3.402222
520.1624, 15.74268
520.6445, 9.192139
521.1266, 23.96936
521.6087, 45.82410
522.0908, 55.40002
522.5729, 54.04858
523.0551, 33.55225
523.5372, 6.104370
524.0193, 7.989136
524.5014, 0.7302250
524.9835, 16.43335
525.4656, 24.09082
525.9478, 24.64502
526.4299, 26.52527
526.9120, 32.69092
527.3941, 39.85681
527.8762, 43.62366
528.3583, 43.80811
528.8405, 46.13379
529.3226, 58.39355
529.8047, 66.54956
530.2868, 57.87085
530.7689, 37.21436
531.2510, 18.08936
531.7332, 7.253296
532.2153, 2.700928
532.6974, 0.3905030
533.1795, 1.684204
533.6616, 1.938232
534.1437, 1.676147
534.6259, 0.1246340
535.1080, 3.687744
535.5901, 9.351440
536.0722, 15.41638
536.5543, 21.11035
537.0364, 26.29358
537.5186, 31.19299
538.0007, 36.95276
538.4828, 37.78674
538.9649, 23.12097
539.4470, 7.657227
539.9291, 12.84167
540.4113, 44.30811
540.8934, 65.92896
541.3755, 48.74878
541.8576, 14.83582
542.3397, 0.7678220
542.8218, 5.679688
543.3040, 17.64636
543.7861, 23.20398
544.2682, 23.44995
544.7503, 27.85388
545.2324, 46.88477
545.7145, 56.50378
546.1967, 43.15002
546.6788, 22.62805
547.1609, 12.51929
547.6430, 16.30066
548.1251, 24.58289
548.6072, 27.34741
549.0894, 24.42688
549.5715, 21.32629
550.0536, 17.68579
550.5357, 14.41333
551.0178, 10.64075
551.4999, 7.792358
551.9821, 7.998291
552.4642, 12.46899
552.9463, 18.50598
553.4284, 25.11499
553.9105, 32.08618
554.3926, 38.57739
554.8748, 44.50659
555.3569, 49.60828
555.8390, 53.54077
556.3211, 56.26331
556.8032, 58.43872
557.2853, 64.70227
557.7675, 65.57007
558.2496, 51.55066
558.7317, 30.30237
559.2138, 14.62939
559.6959, 9.201172
560.1780, 10.46313
560.6602, 13.77600
561.1423, 20.04272
561.6244, 24.74731
562.1065, 23.48389
562.5886, 25.06042
563.0707, 38.76685
563.5529, 56.34509
564.0350, 61.17578
564.5171, 44.05969
564.9992, 21.20544
565.4813, 13.41101
565.9634, 19.93860
566.4456, 30.25708
566.9277, 45.78955
567.4098, 58.30005
567.8919, 51.79907
568.3740, 28.55615
568.8561, 20.54712
569.3383, 50.05225
569.8204, 79.89722
570.3025, 86.26978
570.7846, 72.55994
571.2667, 50.89319
571.7488, 26.61523
572.2310, 7.005005
572.7131, 7.646484
573.1952, 42.00879
573.6773, 60.12976
574.1594, 48.64453
574.6415, 35.15491
575.1237, 32.40613
575.6058, 36.67310
576.0879, 37.36694
576.5700, 27.67529
577.0521, 16.56641
577.5342, 21.04541
578.0164, 40.32031
578.4985, 52.79883
578.9806, 51.68164
579.4627, 44.06226
579.9448, 36.60840
580.4269, 29.31250
580.9091, 22.21277
581.3912, 14.79822
581.8733, 7.649048
582.3554, 0.7695310
582.8375, 7.919312
583.3196, 5.026733
583.8018, 11.90161
584.2839, 34.26953
584.7660, 46.89868
585.2481, 43.56726
585.7302, 42.58337
586.2123, 46.82153
586.6945, 50.41919
587.1766, 53.12036
587.6587, 53.04236
588.1408, 45.36902
588.6229, 25.52234
589.1050, 4.870239
589.5872, 0.7777100
590.0693, 12.72864
590.5514, 28.19189
591.0335, 48.97144
591.5156, 64.68286
591.9977, 59.52905
592.4799, 36.98584
592.9620, 22.97668
593.4441, 28.86621
593.9262, 36.36938
594.4083, 31.57007
594.8904, 21.13538
595.3726, 21.81653
595.8547, 39.19812
596.3368, 58.16846
596.8189, 54.04041
597.3010, 18.23596
597.7831, 0.5461430
598.2653, 18.73755
598.7474, 37.26660
599.2295, 48.29626
599.7116, 51.56885
600.1937, 45.01746
600.6758, 25.55872
601.1580, 8.000000
601.6401, 10.70154
602.1222, 29.81213
602.6043, 47.79419
603.0864, 63.16052
603.5685, 72.07275
604.0507, 68.86755
604.5328, 54.87195
605.0149, 45.84192
605.4970, 44.32471
605.9791, 44.71289
606.4612, 45.72278
606.9434, 47.25610
607.4255, 51.67725
607.9076, 58.32288
608.3897, 59.09412
608.8718, 41.33191
609.3539, 5.893188
609.8361, 3.742920
610.3182, 32.28760
610.8003, 61.16406
611.2824, 62.53271
611.7645, 50.27002
612.2466, 36.23706
612.7288, 22.82019
613.2109, 15.72620
613.6930, 21.43372
614.1751, 34.77954
614.6572, 46.27161
615.1393, 54.87329
615.6215, 56.43054
616.1036, 46.66455
616.5857, 29.48584
617.0678, 17.69617
617.5499, 11.74609
618.0320, 11.28503
618.5142, 18.75439
618.9963, 29.85510
619.4784, 46.55432
619.9605, 64.67688
620.4426, 71.51379
620.9247, 55.03101
621.4069, 26.28076
621.8890, 15.31165
622.3711, 26.20801
622.8532, 32.82056
623.3353, 26.34155
623.8174, 14.99573
624.2996, 5.046387
624.7817, 3.293701
625.2638, 4.826904
625.7459, 12.77942
626.2280, 28.22607
626.7101, 17.61987
627.1923, 8.629639
627.6744, 21.35840
628.1565, 8.839722
628.6386, 15.41125
629.1207, 29.92151
629.6028, 32.15417
630.0850, 34.91699
630.5671, 35.60632
631.0492, 39.69470
631.5313, 56.14661
632.0134, 74.93713
632.4955, 78.49524
632.9777, 58.96350
633.4598, 36.85193
633.9419, 35.29688
634.4240, 47.57812
634.9061, 49.49890
635.3882, 36.88867
635.8704, 24.42114
636.3525, 23.82812
636.8346, 32.87415
637.3167, 34.24951
637.7988, 20.72607
638.2809, 10.22583
638.7631, 3.286743
639.2452, 2.233643
639.7273, 15.95496
640.2094, 40.11609
640.6915, 53.30933
641.1736, 35.65063
641.6558, 0.9189450
642.1379, 12.52710
642.6200, 7.234131
643.1021, 23.90942
643.5842, 26.44421
644.0663, 23.11145
644.5485, 22.02197
645.0306, 23.15381
645.5127, 26.24500
645.9948, 35.49280
646.4769, 42.98071
646.9590, 37.93201
647.4412, 26.12158
647.9233, 24.36768
648.4054, 39.22937
648.8875, 58.51282
649.3696, 63.37842
649.8517, 50.66162
650.3339, 39.31421
650.8160, 27.91650
651.2981, 19.87292
651.7802, 16.85291
652.2623, 17.46521
652.7444, 20.60583
653.2266, 26.56885
653.7087, 31.04114
654.1908, 28.52686
654.6729, 22.60693
655.1550, 22.82056
655.6371, 30.01465
656.1193, 33.24097
656.6014, 23.26843
657.0835, 5.492676
657.5656, 0.4687500
658.0477, 27.27185
658.5298, 40.71448
659.0120, 26.39539
659.4941, 10.50964
659.9762, 13.00146
660.4583, 30.28760
660.9404, 46.31396
661.4225, 52.29980
661.9047, 51.69604
662.3868, 49.52161
662.8689, 45.82568
663.3510, 42.36597
663.8331, 39.61670
664.3152, 36.88171
664.7974, 32.00537
665.2795, 25.54028
665.7616, 25.78137
666.2437, 43.65100
666.7258, 55.75208
667.2079, 47.16882
667.6901, 30.79321
668.1722, 26.48425
668.6543, 35.94189
669.1364, 42.02283
669.6185, 23.90442
670.1006, 11.25220
670.5828, 15.80127
671.0649, 22.07007
671.5470, 51.56897
672.0291, 53.74329
672.5112, 41.38391
672.9933, 25.84290
673.4755, 6.852417
673.9576, 1.626709
674.4397, 12.92920
674.9218, 32.10132
675.4039, 42.97412
675.8860, 46.42627
676.3682, 47.79797
676.8503, 49.04810
677.3324, 46.94934
677.8145, 33.70532
678.2966, 5.678467
678.7787, 2.866943
679.2609, 23.91907
679.7430, 46.87964
680.2251, 45.57336
680.7072, 34.57788
681.1893, 33.33740
681.6714, 46.44666
682.1536, 58.74695
682.6357, 59.07190
683.1178, 54.90747
683.5999, 58.85632
684.0820, 69.15759
684.5641, 72.57886
685.0463, 59.66101
685.5284, 38.46631
686.0105, 31.80371
686.4926, 50.12537
686.9747, 57.10083
687.4568, 37.64771
687.9390, 21.92236
688.4211, 27.36035
688.9032, 44.94727
689.3853, 55.06812
689.8674, 50.32178
690.3495, 42.04114
690.8317, 41.35095
691.3138, 43.43628
691.7959, 34.39221
692.2780, 13.05640
692.7601, 4.231812
693.2422, 5.989258
693.7244, 5.240601
694.2065, 20.50500
694.6886, 52.62598
695.1707, 67.26843
695.6528, 49.54919
696.1349, 27.97546
696.6171, 19.82959
697.0992, 22.31653
697.5813, 24.11731
698.0634, 18.72839
698.5455, 13.34119
699.0276, 17.95227
699.5098, 29.51099
699.9919, 37.38367
700.4740, 41.27954
700.9561, 42.82092
701.4382, 44.51404
701.9203, 45.72485
702.4025, 41.33142
702.8846, 21.23059
703.3667, 9.033447
703.8488, 12.30383
704.3309, 19.33582
704.8130, 18.88354
705.2952, 13.43201
705.7773, 16.41614
706.2594, 40.83887
706.7415, 68.78711
707.2236, 71.83118
707.7057, 53.96082
708.1879, 38.33618
708.6700, 29.53015
709.1521, 27.76160
709.6342, 35.50598
710.1163, 52.03882
710.5984, 59.65234
711.0806, 50.10352
711.5627, 43.00037
712.0448, 45.30493
712.5269, 48.22620
713.0090, 40.84924
713.4911, 25.45496
713.9733, 16.89136
714.4554, 29.73840
714.9375, 48.50488
715.4196, 44.26196
715.9017, 20.91687
716.3839, 7.078857
716.8660, 11.89795
717.3481, 23.34741
717.8302, 29.53979
718.3123, 30.47375
718.7944, 33.38721
719.2766, 42.67847
719.7587, 48.11707
720.2408, 45.99133
720.7229, 40.63049
721.2050, 34.81128
721.6871, 29.48267
722.1693, 25.76648
722.6514, 24.28809
723.1335, 24.92017
723.6156, 29.40088
724.0977, 36.70728
724.5798, 38.65747
725.0620, 32.40601
725.5441, 23.52759
726.0262, 16.74585
726.5083, 12.06482
726.9904, 13.05249
727.4725, 26.52808
727.9547, 35.92651
728.4368, 39.72388
728.9189, 40.89294
729.4010, 38.17480
729.8831, 32.65759
730.3652, 28.28601
730.8474, 29.51099
731.3295, 30.97546
731.8116, 20.13159
732.2937, 1.395020
732.7758, 2.384888
733.2579, 16.41406
733.7401, 36.58691
734.2222, 35.59155
734.7043, 14.62988
735.1864, 4.188965
735.6685, 14.78088
736.1506, 22.35181
736.6328, 20.72949
737.1149, 17.87805
737.5970, 19.85034
738.0791, 26.16528
738.5612, 31.52417
739.0433, 31.44214
739.5255, 31.32471
740.0076, 43.32629
740.4897, 60.66638
740.9718, 56.58240
741.4539, 24.84424
741.9360, 4.928955
742.4182, 4.308228
742.9003, 22.23572
743.3824, 35.44873
743.8645, 27.68787
744.3466, 19.49988
744.8287, 12.86877
745.3109, 7.090576
745.7930, 2.392822
746.2751, 12.00879
746.7572, 8.065796
747.2393, 27.34277
747.7214, 59.03955
748.2036, 49.81909
748.6857, 18.35156
749.1678, 0.2010500
749.6499, 1.131226
750.1320, 8.928223
750.6141, 9.288208
751.0963, 24.71252
751.5784, 34.73022
752.0605, 39.22180
752.5426, 21.60559
753.0247, 32.53723
753.5068, 32.02795
753.9890, 31.05066
754.4711, 46.00171
754.9532, 31.69666
755.4353, 47.01978
755.9174, 51.22437
756.3995, 60.57507
756.8817, 57.46301
757.3638, 57.90576
757.8459, 69.86841
758.3280, 68.37781
758.8101, 68.41711
759.2922, 59.03235
759.7744, 50.22412
760.2565, 41.29321
760.7386, 35.13306
761.2207, 33.89453
761.7028, 32.04565
762.1849, 23.55286
762.6671, 12.52271
763.1492, 9.681396
763.6313, 19.17798
764.1134, 27.72144
764.5955, 33.45459
765.0776, 36.13269
765.5598, 32.30066
766.0419, 25.68738
766.5240, 24.85400
767.0061, 33.59631
767.4882, 45.87463
767.9703, 55.66467
768.4525, 62.59778
768.9346, 62.85266
769.4167, 55.34351
769.8988, 49.30615
770.3809, 51.03381
770.8630, 54.78210
771.3452, 48.86633
771.8273, 28.76038
772.3094, 11.88843
772.7915, 7.647705
773.2736, 17.63904
773.7557, 6.057739
774.2379, 14.80432
774.7200, 28.84729
775.2021, 32.40613
775.6842, 32.58105
776.1663, 34.73987
776.6484, 36.79370
777.1306, 34.13464
777.6127, 27.83044
778.0948, 23.93469
778.5769, 24.58838
779.0590, 26.98779
779.5411, 27.25537
780.0233, 25.23364
780.5054, 27.26013
780.9875, 36.05920
781.4696, 44.43750
781.9517, 54.83264
782.4338, 61.07178
782.9160, 56.35266
783.3981, 41.55762
783.8802, 26.12866
784.3623, 6.727417
784.8444, 5.453735
785.3265, 1.828369
785.8087, 18.93103
786.2908, 32.51941
786.7729, 39.55090
787.2550, 41.00146
787.7371, 36.24963
788.2192, 29.15405
788.7014, 33.77539
789.1835, 52.34680
789.6656, 58.93323
790.1477, 44.31995
790.6298, 27.06360
791.1119, 20.96350
791.5941, 24.39734
792.0762, 29.96326
792.5583, 43.30713
793.0404, 49.75806
793.5225, 38.27014
794.0046, 26.99548
794.4868, 33.55505
794.9689, 50.24573
795.4510, 56.60950
795.9331, 43.15625
796.4152, 24.72803
796.8973, 13.62085
797.3795, 10.12463
797.8616, 18.95276
798.3437, 39.30981
798.8258, 53.64917
799.3079, 52.40442
799.7900, 43.42493
800.2722, 42.63904
800.7543, 53.83948
801.2364, 56.28577
801.7185, 40.12036
802.2006, 28.65796
802.6827, 33.22461
803.1649, 43.56323
803.6470, 48.97717
804.1291, 48.09424
804.6112, 45.16724
805.0933, 41.15564
805.5754, 35.13806
806.0576, 20.84851
806.5397, 6.109253
807.0218, 8.358398
807.5039, 29.14746
807.9860, 48.36780
808.4681, 46.45081
808.9503, 30.90503
809.4324, 27.08325
809.9145, 35.93066
810.3966, 39.75647
810.8787, 34.07227
811.3608, 23.86621
811.8430, 11.70654
812.3251, 1.574707
812.8072, 10.05200
813.2893, 17.96655
813.7714, 15.28564
814.2535, 12.06152
814.7357, 38.05176
815.2178, 45.34912
815.6999, 37.61694
816.1820, 24.30688
816.6641, 6.555054
817.1462, 5.427612
817.6284, 2.519897
818.1105, 11.08838
818.5926, 35.20703
819.0747, 65.20288
819.5568, 80.17615
820.0389, 69.88647
820.5211, 48.23108
821.0032, 36.90991
821.4852, 36.53918
821.9673, 36.33362
822.4495, 37.35815
822.9316, 35.50415
823.4137, 25.17029
823.8958, 14.56665
824.3779, 15.58948
824.8600, 28.39722
825.3422, 39.26538
825.8243, 44.82593
826.3064, 50.43872
826.7885, 60.77563
827.2706, 70.56580
827.7527, 73.35828
828.2349, 69.36804
828.7170, 64.01917
829.1991, 60.15649
829.6812, 57.40613
830.1633, 56.17310
830.6454, 55.07715
831.1276, 50.04565
831.6097, 42.07141
832.0918, 37.86963
832.5739, 42.26538
833.0560, 51.98950
833.5381, 59.26404
834.0203, 67.02100
834.5024, 61.14319
834.9845, 23.18005
835.4666, 1.722778
835.9487, 29.00806
836.4308, 78.79712
836.9130, 88.89294
837.3951, 47.02087
837.8772, 15.76025
838.3593, 18.16687
838.8414, 27.41614
839.3235, 27.09253
839.8057, 23.07227
840.2878, 28.67859
840.7699, 44.94006
841.2520, 55.04016
841.7341, 40.53455
842.2162, 15.23608
842.6984, 3.199585
843.1805, 3.705933
843.6626, 11.30676
844.1447, 25.08899
844.6268, 36.43164
845.1089, 37.45862
845.5911, 30.59473
846.0732, 26.54138
846.5553, 24.39331
847.0374, 28.12268
847.5195, 47.47534
848.0016, 61.31958
848.4838, 40.21228
848.9659, 50.79004
849.4480, 55.52002
849.9301, 54.71643
850.4122, 31.80518
850.8943, 38.40955
851.3765, 33.52356
851.8586, 27.47363
852.3407, 37.13062
852.8228, 17.43481
853.3049, 26.83911
853.7870, 24.62781
854.2692, 27.73254
854.7513, 19.32666
855.2334, 14.52869
855.7155, 5.588379
856.1976, 8.066040
856.6797, 22.62292
857.1619, 37.64893
857.6440, 42.64709
858.1261, 38.95972
858.6082, 33.33655
859.0903, 24.35522
859.5724, 18.16028
860.0546, 17.94153
860.5367, 17.24902
861.0188, 8.919800
861.5009, 2.555542
861.9830, 5.816772
862.4651, 3.087280
862.9473, 11.19043
863.4294, 18.17969
863.9115, 21.59021
864.3936, 17.21997
864.8757, 9.325073
865.3578, 4.118286
865.8400, 3.255737
866.3221, 5.361328
866.8042, 8.686279
867.2863, 14.88330
867.7684, 30.25061
868.2505, 50.31494
868.7327, 61.08057
869.2148, 59.47119
869.6969, 53.28540
870.1790, 48.99780
870.6611, 45.03223
871.1432, 35.97351
871.6254, 21.18689
872.1075, 13.60889
872.5896, 15.38147
873.0717, 19.64429
873.5538, 20.79138
874.0359, 21.82385
874.5181, 31.82458
875.0002, 60.13977
875.4823, 76.09973
875.9644, 72.82629
876.4465, 64.54224
876.9286, 54.97522
877.4108, 44.84192
877.8929, 32.84192
878.3750, 19.26526
878.8571, 12.08569
879.3392, 19.55151
879.8214, 30.41675
880.3035, 37.69824
880.7856, 41.35596
881.2677, 40.94604
881.7498, 36.88855
882.2319, 30.42212
882.7141, 21.39795
883.1962, 13.76111
883.6783, 17.12659
884.1604, 29.26135
884.6425, 34.15955
885.1246, 29.55981
885.6068, 28.64636
886.0889, 40.07532
886.5710, 54.99146
887.0531, 55.44385
887.5352, 37.19238
888.0173, 29.17419
888.4995, 38.46777
888.9816, 45.93677
889.4637, 47.41589
889.9458, 43.10217
890.4279, 27.95190
890.9100, 3.890747
891.3922, 5.717285
891.8743, 20.61340
892.3564, 38.05933
892.8385, 23.25842
893.3206, 1.334229
893.8027, 8.117310
894.2849, 4.870361
894.7670, 5.788452
895.2491, 22.84448
895.7312, 40.52271
896.2133, 60.26318
896.6954, 74.04382
897.1776, 62.79749
897.6597, 33.47253
898.1418, 11.12976
898.6239, 4.842041
899.1060, 10.82166
899.5881, 28.29431
900.0703, 53.18201
900.5524, 68.00977
901.0345, 72.76685
901.5166, 64.63611
901.9987, 38.26331
902.4808, 17.33972
902.9630, 23.72632
903.4451, 49.73511
903.9272, 63.90210
904.4093, 65.19617
904.8914, 56.50244
905.3735, 18.75085
905.8557, 6.091431
906.3378, 16.75610
906.8199, 54.69617
907.3020, 56.61890
907.7841, 13.96899
908.2662, 16.02258
908.7484, 15.23389
909.2305, 4.130859
909.7126, 17.42542
910.1947, 37.39954
910.6768, 40.03320
911.1589, 26.74072
911.6411, 12.23352
912.1232, 2.266235
912.6053, 1.227783
913.0874, 7.886475
913.5695, 22.88818
914.0516, 33.74377
914.5338, 38.93762
915.0159, 35.89868
915.4980, 24.63672
915.9801, 15.36230
916.4622, 29.64307
916.9443, 62.50696
917.4265, 65.26257
917.9086, 36.38904
918.3907, 15.42261
918.8728, 13.92383
919.3549, 24.37891
919.8370, 43.18860
920.3192, 67.42627
920.8013, 73.85376
921.2834, 53.70337
921.7655, 38.22986
922.2476, 30.46484
922.7297, 27.33594
923.2119, 30.65967
923.6940, 36.31323
924.1761, 36.85986
924.6582, 30.94482
925.1403, 24.94897
925.6224, 18.91370
926.1046, 13.94934
926.5867, 5.403809
927.0688, 1.544067
927.5509, 18.94360
928.0330, 52.75342
928.5151, 70.38892
928.9973, 46.45032
929.4794, 22.08508
929.9615, 35.77100
930.4436, 62.10010
930.9257, 65.45776
931.4078, 48.86499
931.8900, 34.11890
932.3721, 30.59143
932.8542, 30.11389
933.3363, 21.44690
933.8184, 9.348145
934.3005, 4.930786
934.7827, 8.504883
935.2648, 25.10522
935.7469, 56.14246
936.2290, 80.86609
936.7111, 79.36731
937.1932, 59.23303
937.6754, 47.34546
938.1575, 44.90442
938.6396, 40.79089
939.1217, 33.21497
939.6038, 25.77454
940.0859, 18.72778
940.5681, 15.12683
941.0502, 22.30908
941.5323, 44.51611
942.0144, 55.50378
942.4965, 49.67969
942.9786, 40.58740
943.4608, 24.81750
943.9429, 12.19128
944.4250, 13.65552
944.9071, 25.86841
945.3892, 33.09375
945.8713, 29.16064
946.3535, 26.85718
946.8356, 33.71899
947.3177, 39.14844
947.7998, 33.63928
948.2819, 22.43872
948.7640, 13.96045
949.2462, 10.07178
949.7283, 11.49084
950.2104, 22.59912
950.6925, 34.30701
951.1746, 37.31970
951.6567, 35.49719
952.1389, 37.14392
952.6210, 42.52917
953.1031, 45.96301
953.5852, 43.98450
954.0673, 40.22217
954.5494, 38.86768
955.0316, 39.66858
955.5137, 42.23608
955.9958, 46.39502
956.4779, 52.23853
956.9600, 59.81873
957.4421, 64.95239
957.9243, 61.87549
958.4064, 53.15503
958.8885, 52.92786
959.3706, 62.13660
959.8527, 59.81775
960.3348, 39.41638
960.8170, 21.81311
961.2991, 21.03540
961.7812, 31.75635
962.2633, 42.38892
962.7454, 54.03284
963.2275, 60.82446
963.7097, 62.44519
964.1918, 59.28101
964.6739, 48.26624
965.1560, 34.60913
965.6381, 20.66272
966.1202, 6.462524
966.6024, 4.188477
967.0845, 29.69031
967.5666, 44.83411
968.0487, 36.51318
968.5308, 26.39417
969.0129, 29.12781
969.4951, 36.99634
969.9772, 35.01733
970.4593, 19.91528
970.9414, 9.474854
971.4235, 18.67493
971.9056, 23.11963
972.3878, 2.158813
972.8699, 30.41162
973.3520, 28.37915
973.8341, 0.1175540
974.3162, 27.25940
974.7983, 44.24182
975.2805, 50.78088
975.7626, 41.83191
976.2447, 26.25525
976.7268, 9.576538
977.2089, 3.905029
977.6910, 4.284790
978.1732, 9.793335
978.6553, 26.46619
979.1374, 38.24475
979.6195, 44.10400
980.1016, 36.99475
980.5837, 23.33398
981.0659, 23.56616
981.5480, 38.35596
982.0301, 53.55750
982.5122, 62.11951
982.9943, 65.43127
983.4764, 64.88977
983.9586, 60.79297
984.4407, 56.14490
984.9228, 50.78027
985.4049, 34.12744
985.8870, 1.541382
986.3691, 23.34180
986.8513, 19.68176
987.3334, 3.167969
987.8155, 16.79431
988.2976, 19.77222
988.7797, 22.98560
989.2618, 26.83374
989.7440, 31.62463
990.2261, 39.38000
990.7082, 44.62122
991.1903, 38.57886
991.6724, 21.81750
992.1545, 15.71997
992.6367, 26.37866
993.1188, 35.63611
993.6009, 41.10693
994.0830, 45.19263
994.5651, 49.99304
995.0472, 54.09802
995.5294, 54.72754
996.0115, 51.79773
996.4936, 45.91675
996.9757, 29.49744
997.4578, 20.05310
997.9399, 27.21606
998.4221, 39.12854
998.9042, 46.13428
999.3863, 49.04895
999.8684, 53.82727
1000.351, 65.05603
1000.833, 69.71863
1001.315, 59.24072
1001.797, 46.54883
1002.279, 37.39844
1002.761, 31.85034
1003.243, 31.35010
1003.725, 34.78223
1004.207, 33.85925
1004.690, 18.18713
1005.172, 7.059570
1005.654, 18.08264
1006.136, 33.96973
1006.618, 35.31628
1007.100, 27.15588
1007.582, 26.18616
1008.064, 37.17932
1008.547, 44.23840
1009.029, 28.39526
1009.511, 9.821655
1009.993, 11.01599
1010.475, 23.22107
1010.957, 31.39087
1011.439, 45.57043
1011.921, 53.90063
1012.403, 56.69653
1012.886, 37.38635
1013.368, 46.62195
1013.850, 44.41602
1014.332, 41.74194
1014.814, 54.99463
1015.296, 38.89624
1015.778, 51.89648
1016.260, 53.28040
1016.742, 59.98120
1017.225, 55.17175
1017.707, 54.57947
1018.189, 65.92908
1018.671, 69.82056
1019.153, 63.69812
1019.635, 70.75220
1020.117, 54.26611
1020.599, 58.43555
1021.082, 71.51990
1021.564, 67.46936
1022.046, 77.87744
1022.528, 84.11523
1023.010, 71.97559
1023.492, 38.78076
1023.974, 16.06482
1024.456, 20.87170
1024.938, 38.41516
1025.421, 48.21106
1025.903, 49.64807
1026.385, 49.21448
1026.867, 46.96155
1027.349, 41.59033
1027.831, 31.24683
1028.313, 25.85107
1028.795, 33.70508
1029.278, 47.81787
1029.760, 52.54871
1030.242, 44.54700
1030.724, 42.22742
1031.206, 53.15100
1031.688, 56.12927
1032.170, 38.71509
1032.652, 19.84277
1033.135, 16.05933
1033.617, 24.31665
1034.099, 33.12378
1034.581, 41.52673
1035.063, 53.49231
1035.545, 74.28918
1036.027, 89.63281
1036.509, 94.09412
1036.991, 90.00293
1037.474, 75.75488
1037.956, 53.41174
1038.438, 43.07971
1038.920, 56.35840
1039.402, 58.86584
1039.884, 39.14722
1040.366, 21.87463
1040.848, 18.36877
1041.330, 23.18921
1041.813, 31.23816
1042.295, 43.00000
1042.777, 47.47375
1043.259, 39.40955
1043.741, 31.78711
1044.223, 19.20618
1044.705, 13.03284
1045.187, 25.84961
1045.670, 45.86523
1046.152, 54.35474
1046.634, 48.95142
1047.116, 44.84485
1047.598, 48.92773
1048.080, 46.59570
1048.562, 18.05261
1049.044, 2.384888
1049.526, 22.30933
1050.009, 70.71680
1050.491, 91.21008
1050.973, 72.08655
1051.455, 53.61914
1051.937, 40.10095
1052.419, 31.04773
1052.901, 30.73865
1053.383, 31.01147
1053.865, 21.97571
1054.348, 7.510986
1054.830, 0.3392330
1055.312, 2.828491
1055.794, 12.52234
1056.276, 36.45349
1056.758, 57.76392
1057.240, 73.58447
1057.722, 79.87842
1058.205, 64.75110
1058.687, 35.34290
1059.169, 23.01294
1059.651, 45.10498
1060.133, 61.85718
1060.615, 53.80786
1061.097, 43.30920
1061.579, 42.43066
1062.062, 47.13721
1062.544, 53.70593
1063.026, 60.43774
1063.508, 62.26453
1063.990, 53.39722
1064.472, 47.27625
1064.954, 55.86426
1065.436, 61.83496
1065.918, 48.67358
1066.401, 27.60889
1066.883, 15.57300
1067.365, 14.35425
1067.847, 14.35559
1068.329, 8.400024
1068.811, 8.685425
1069.293, 31.41382
1069.775, 51.86133
1070.257, 46.74988
1070.740, 27.68457
1071.222, 12.99011
1071.704, 6.538940
1072.186, 8.193604
1072.668, 26.24841
1073.150, 41.49939
1073.632, 48.25342
1074.114, 45.29236
1074.596, 20.04248
1075.079, 11.29041
1075.561, 17.88721
1076.043, 6.757568
1076.525, 33.66174
1077.007, 51.89722
1077.489, 65.93079
1077.971, 81.62439
1078.453, 90.59973
1078.936, 79.98779
1079.418, 58.42603
1079.900, 43.22302
1080.382, 38.38684
1080.864, 37.41248
1081.346, 45.48096
1081.828, 46.69031
1082.310, 19.02356
1082.792, 7.847168
1083.275, 0.4858400
1083.757, 30.88708
1084.239, 51.12634
1084.721, 53.28723
1085.203, 48.82520
1085.685, 41.28381
1086.167, 30.07739
1086.649, 6.332886
1087.131, 14.03882
1087.614, 12.08972
1088.096, 4.842407
1088.578, 17.63501
1089.060, 21.67896
1089.542, 21.96826
1090.024, 13.36255
1090.506, 10.35034
1090.988, 30.58997
1091.471, 51.41846
1091.953, 47.17188
1092.435, 26.17712
1092.917, 11.86108
1093.399, 9.878784
1093.881, 12.62817
1094.363, 1.911377
1094.845, 25.76819
1095.328, 41.67261
1095.810, 46.42700
1096.292, 6.883179
1096.774, 24.35632
1097.256, 18.86633
1097.738, 12.35730
1098.220, 37.62524
1098.702, 4.109985
1099.184, 28.71069
1099.667, 30.00134
1100.149, 41.84277
1100.631, 30.58044
1101.113, 26.34790
1101.595, 45.06653
1102.077, 50.95898
1102.559, 36.73730
1103.041, 48.78333
1103.523, 13.67151
1104.006, 19.79285
1104.488, 43.66272
1104.970, 30.20264
1105.452, 42.27454
1105.934, 44.51135
1106.416, 2.336060
1106.898, 37.09143
1107.380, 38.51001
1107.863, 5.611328
1108.345, 37.56836
1108.827, 9.229858
1109.309, 23.93896
1109.791, 23.20312
1110.273, 26.15417
1110.755, 35.03210
1111.237, 39.46924
1111.719, 39.06812
1112.202, 33.42981
1112.684, 14.46033
1113.166, 2.006226
1113.648, 4.731323
1114.130, 2.906128
1114.612, 14.86243
1115.094, 33.91968
1115.576, 43.78064
1116.058, 42.24585
1116.541, 34.63403
1117.023, 12.38794
1117.505, 4.342041
1117.987, 1.404785
1118.469, 18.82336
1118.951, 25.32397
1119.433, 17.93250
1119.915, 21.53711
1120.398, 43.66467
1120.880, 61.88684
1121.362, 77.95642
1121.844, 78.54956
1122.326, 44.43311
1122.808, 1.756348
1123.290, 0.7692870
1123.772, 44.47815
1124.255, 64.82275
1124.737, 54.02820
1125.219, 44.12097
1125.701, 39.97241
1126.183, 35.99683
1126.665, 27.28430
1127.147, 21.04688
1127.629, 30.84033
1128.111, 55.03979
1128.594, 61.19116
1129.076, 45.34045
1129.558, 38.76892
1130.040, 47.70410
1130.522, 53.65051
1131.004, 47.24084
1131.486, 34.38232
1131.968, 22.60046
1132.450, 11.45276
1132.933, 5.053467
1133.415, 26.53125
1133.897, 26.52356
1134.379, 3.071411
1134.861, 21.78613
1135.343, 39.05737
1135.825, 46.74951
1136.307, 39.86670
1136.790, 26.08569
1137.272, 31.03125
1137.754, 50.07788
1138.236, 54.99463
1138.718, 45.27637
1139.200, 37.16748
1139.682, 36.50562
1140.164, 41.65308
1140.646, 52.56885
1141.129, 64.00610
1141.611, 62.59302
1142.093, 52.67065
1142.575, 44.13892
1143.057, 37.88794
1143.539, 33.18066
1144.021, 30.21484
1144.503, 32.81982
1144.985, 43.73901
1145.468, 55.61475
1145.950, 58.08398
1146.432, 55.30151
1146.914, 55.03540
1147.396, 55.51904
1147.878, 51.76221
1148.360, 42.85156
1148.842, 33.12524
1149.325, 23.88135
1149.807, 17.61255
1150.289, 19.30078
1150.771, 22.15161
1151.253, 17.25635
1151.735, 10.28320
1152.217, 8.338623
1152.699, 12.48975
1153.182, 22.14648
1153.664, 39.40747
1154.146, 49.82251
1154.628, 38.98291
1155.110, 28.35693
1155.592, 32.91968
1156.074, 41.23267
1156.556, 42.55933
1157.038, 37.68262
1157.521, 29.44702
1158.003, 16.58496
1158.485, 12.74487
1158.967, 25.77563
1159.449, 41.31860
1159.931, 61.30762
1160.413, 76.28027
1160.895, 81.62207
1161.377, 77.49023
1161.860, 58.55200
1162.342, 19.94043
1162.824, 3.896973
1163.306, 27.17896
1163.788, 42.39185
1164.270, 37.68335
1164.752, 36.90601
1165.234, 56.80591
1165.717, 79.18579
1166.199, 77.79565
1166.681, 56.57397
1167.163, 54.06152
1167.645, 78.06006
1168.127, 83.94385
1168.609, 64.03589
1169.091, 48.05713
1169.573, 47.93457
1170.056, 51.02295
1170.538, 44.10474
1171.020, 32.44336
1171.502, 33.75171
1171.984, 47.55249
1172.466, 57.98535
1172.948, 64.27856
1173.430, 63.42407
1173.912, 54.86060
1174.395, 46.11768
1174.877, 42.84985
1175.359, 39.54370
1175.841, 20.98291
1176.323, 0.6718750
1176.805, 16.93823
1177.287, 58.78516
1177.769, 73.57544
1178.252, 45.51050
1178.734, 73.24097
1179.216, 89.27490
1179.698, 94.24268
1180.180, 54.99292
1180.662, 72.82690
1181.144, 67.77002
1181.626, 61.79883
1182.109, 87.68872
1182.591, 54.87280
1183.073, 80.25415
1183.555, 82.40479
1184.037, 95.18750
1184.519, 84.94604
1185.001, 81.81543
1185.483, 101.7173
1185.965, 108.8640
1186.448, 72.31445
1186.930, 55.67114
1187.412, 50.18481
1187.894, 57.45044
1188.376, 64.58740
1188.858, 73.55908
1189.340, 74.36646
1189.822, 57.85742
1190.304, 42.83521
1190.787, 34.34766
1191.269, 30.68066
1191.751, 36.22388
1192.233, 48.04175
1192.715, 49.67505
1193.197, 37.37573
1193.679, 30.25464
1194.161, 29.00342
1194.644, 34.23560
1195.126, 51.13818
1195.608, 63.45264
1196.090, 59.99707
1196.572, 48.76245
1197.054, 43.20703
1197.536, 42.08740
1198.018, 32.87866
1198.500, 16.36230
1198.983, 12.04590
1199.465, 21.59644
1199.947, 28.08569
1200.429, 24.54858
1200.911, 15.77026
1201.393, 4.116699
1201.875, 4.750977
1202.357, 4.008057
1202.839, 21.45581
1203.322, 29.33618
1203.804, 27.71899
1204.286, 16.94824
1204.768, 0.3747560
1205.250, 6.293213
1205.732, 7.733398
1206.214, 24.83105
1206.696, 36.00317
1207.179, 38.93481
1207.661, 17.23242
1208.143, 3.850098
1208.625, 20.25513
1209.107, 71.91943
1209.589, 88.38770
1210.071, 49.81055
1210.553, 21.53223
1211.036, 30.62720
1211.518, 38.02881
1212.000, 23.96753
1212.482, 13.31982
1212.964, 29.36011
1213.446, 54.77808
1213.928, 61.39771
1214.410, 50.27954
1214.892, 45.44995
1215.375, 50.83179
1215.857, 51.13477
1216.339, 42.37134
1216.821, 40.09937
1217.303, 54.27319
1217.785, 60.74536
1218.267, 34.20508
1218.749, 7.585693
1219.231, 17.50854
1219.714, 1.878418
1220.196, 13.01880
1220.678, 16.26294
1221.160, 19.07959
1221.642, 22.71191
1222.124, 24.42505
1222.606, 22.72803
1223.088, 19.73364
1223.571, 15.07520
1224.053, 13.29932
1224.535, 26.76904
1225.017, 45.23755
1225.499, 49.28955
1225.981, 42.92651
1226.463, 41.29248
1226.945, 47.40601
1227.427, 51.38989
1227.910, 47.44751
1228.392, 42.34253
1228.874, 38.12354
1229.356, 35.76318
1229.838, 38.14087
1230.320, 41.03638
1230.802, 38.06494
1231.284, 31.32593
1231.766, 30.62183
1232.249, 41.48486
1232.731, 41.45142
1233.213, 16.09766
1233.695, 5.112305
1234.177, 23.72876
1234.659, 41.73828
1235.141, 40.20557
1235.623, 33.35889
1236.106, 44.28271
1236.588, 67.69629
1237.070, 62.23071
1237.552, 26.63281
1238.034, 23.41968
1238.516, 56.24829
1238.998, 69.45679
1239.480, 46.41724
1239.963, 23.56787
1240.445, 28.85083
1240.927, 45.08081
1241.409, 42.71167
1241.891, 33.69653
1242.373, 48.54443
1242.855, 72.92749
1243.337, 74.75488
1243.819, 57.35449
1244.302, 43.28735
1244.784, 40.42798
1245.266, 42.59521
1245.748, 47.64478
1246.230, 54.92676
1246.712, 69.32373
1247.194, 80.47266
1247.676, 77.53516
1248.158, 68.42725
1248.641, 62.09082
1249.123, 58.93579
1249.605, 63.33960
1250.087, 86.18188
1250.569, 79.92358
1251.051, 18.83838
1251.533, 13.16748
1252.015, 16.78931
1252.498, 48.22363
1252.980, 39.82227
1253.462, 13.41870
1253.944, 3.867920
1254.426, 9.887451
1254.908, 29.47583
1255.390, 59.32422
1255.872, 63.96899
1256.354, 43.60571
1256.837, 26.72070
1257.319, 23.05835
1257.801, 29.36108
1258.283, 46.32129
1258.765, 60.78271
1259.247, 51.73145
1259.729, 37.06519
1260.211, 35.04590
1260.693, 44.44751
1261.176, 71.66577
1261.658, 105.8225
1262.140, 113.9243
1262.622, 85.08813
1263.104, 65.82715
1263.586, 85.66455
1264.068, 95.25952
1264.550, 71.99805
1265.033, 41.66626
1265.515, 26.33350
1265.997, 17.89478
1266.479, 13.01709
1266.961, 11.02295
1267.443, 5.206543
1267.925, 7.899658
1268.407, 0.5839840
1268.890, 30.29761
1269.372, 50.14209
1269.854, 51.25977
1270.336, 42.91162
1270.818, 29.50317
1271.300, 21.74731
1271.782, 38.61499
1272.264, 63.44702
1272.746, 59.86377
1273.229, 32.93433
1273.711, 18.74561
1274.193, 16.83984
1274.675, 26.57104
1275.157, 43.77075
1275.639, 46.35596
1276.121, 21.46216
1276.603, 0.6967770
1277.085, 4.739258
1277.568, 11.17383
1278.050, 0.0000000E+00
##END=



