##NAMES=Dolerophanite
##RRUFFID=R060139
##IDEAL CHEMISTRY=Cu^2+^_2_OS^6+^O_4_
##LOCALITY=Vesuvius, Italy
##OWNER=RRUFF
##SOURCE=University of Arizona Mineral Museum
##DESCRIPTION=Rootbeer brown fragment
##STATUS=The identification of this mineral has been confirmed by single-crystal X-ray diffraction.
##URL=rruff.info/R060139
149.3972, 0.0000000E+00
149.8793, 0.2601170
150.3615, 0.4210390
150.8436, 0.6229890
151.3257, 0.3087680
151.8078, 6.6419998E-03
152.2899, 4.0779999E-03
152.7720, 0.2638480
153.2542, 0.4638970
153.7363, 0.5720360
154.2184, 0.3089550
154.7005, 0.5301950
155.1826, 0.5623260
155.6647, 0.5858960
156.1469, 0.9195000
156.6290, 0.9845010
157.1111, 0.9838090
157.5932, 0.8705680
158.0753, 0.7076010
158.5574, 0.6193290
159.0396, 0.7252900
159.5217, 1.049858
160.0038, 1.200437
160.4859, 1.115644
160.9680, 0.9399760
161.4501, 0.7624350
161.9323, 0.6141410
162.4144, 0.5319260
162.8965, 0.5673570
163.3786, 0.7778750
163.8607, 0.8488950
164.3428, 0.6582230
164.8250, 0.4070900
165.3071, 0.4123440
165.7892, 0.7088630
166.2713, 1.055261
166.7534, 0.9775950
167.2355, 0.4454720
167.7177, 9.1211997E-02
168.1998, 0.1106640
168.6819, 0.3120740
169.1640, 0.4934540
169.6461, 0.6409690
170.1282, 0.7176570
170.6104, 0.5536830
171.0925, 0.1739210
171.5746, 4.6808001E-02
172.0567, 0.1179320
172.5388, 0.5705630
173.0209, 0.8338560
173.5031, 0.7566790
173.9852, 0.5594170
174.4673, 0.4267980
174.9494, 0.3563210
175.4315, 0.3260630
175.9136, 0.3795250
176.3958, 0.5096050
176.8779, 0.2981550
177.3600, 0.4056390
177.8421, 0.3916650
178.3242, 0.2827320
178.8063, 5.8065001E-02
179.2885, 0.4416270
179.7706, 0.7267950
180.2527, 0.7559230
180.7348, 0.6962110
181.2169, 0.4595190
181.6990, 0.2141420
182.1812, 1.5564000E-02
182.6633, 4.8331998E-02
183.1454, 2.2685001E-02
183.6275, 1.3920000E-02
184.1096, 0.5691360
184.5917, 0.8307680
185.0738, 0.6424880
185.5560, 0.3222520
186.0381, 6.4312004E-02
186.5202, 7.2288997E-02
187.0023, 5.3573001E-02
187.4844, 2.3681000E-02
187.9665, 1.5070000E-02
188.4487, 2.6946001E-02
188.9308, 6.8397999E-02
189.4129, 0.3191850
189.8950, 0.4355090
190.3771, 0.3655890
190.8592, 0.1963250
191.3414, 9.1187999E-02
191.8235, 5.0363000E-02
192.3056, 7.5828999E-02
192.7877, 0.2628190
193.2698, 0.4905670
193.7519, 0.5795670
194.2341, 0.4516800
194.7162, 0.2155520
195.1983, 7.9930998E-02
195.6804, 2.7378000E-02
196.1625, 6.6423997E-02
196.6446, 0.2972770
197.1268, 0.6228630
197.6089, 0.8003450
198.0910, 0.6951800
198.5731, 0.4917860
199.0552, 0.5180310
199.5373, 0.8257110
200.0195, 1.059938
200.5016, 1.001522
200.9837, 0.5105090
201.4658, 0.6567510
201.9479, 0.7049670
202.4300, 0.6604370
202.9122, 0.2452960
203.3943, 0.3163480
203.8764, 0.1954860
204.3585, 5.9388999E-02
204.8406, 6.1023999E-02
205.3227, 3.0799000E-02
205.8048, 3.2218002E-02
206.2870, 0.2895400
206.7691, 0.3541570
207.2512, 0.2086910
207.7333, 6.0800999E-02
208.2154, 0.2136850
208.6975, 0.7588370
209.1797, 1.057876
209.6618, 0.6997800
210.1439, 0.2567300
210.6260, 7.2798997E-02
211.1081, 0.1937470
211.5902, 0.4228840
212.0724, 0.5069390
212.5545, 0.3576630
213.0366, 0.2626920
213.5187, 0.2483120
214.0008, 0.2841570
214.4829, 0.3960390
214.9651, 0.5701030
215.4472, 0.7201040
215.9293, 0.6801470
216.4114, 0.2120660
216.8935, 7.9700001E-02
217.3756, 0.5750140
217.8578, 1.119884
218.3399, 1.299796
218.8220, 1.043830
219.3041, 0.5947090
219.7862, 0.3001560
220.2683, 0.2027410
220.7505, 0.1900150
221.2326, 0.3078890
221.7147, 0.4714600
222.1968, 0.6388600
222.6789, 0.7925730
223.1610, 0.9047610
223.6432, 0.9324950
224.1253, 0.8376800
224.6074, 0.7194450
225.0895, 0.4910960
225.5716, 0.2851440
226.0537, 0.2650450
226.5358, 0.4626410
227.0180, 0.7134550
227.5001, 0.7732780
227.9822, 0.5484670
228.4643, 0.4298430
228.9464, 0.5655900
229.4285, 0.7527900
229.9107, 0.7635590
230.3928, 0.5338480
230.8749, 0.2469590
231.3570, 0.1241150
231.8391, 0.1649580
232.3212, 0.3306850
232.8034, 0.8182420
233.2855, 1.350925
233.7676, 1.514178
234.2497, 1.188335
234.7318, 0.7593990
235.2139, 0.7098050
235.6961, 0.9869370
236.1782, 1.186554
236.6603, 1.102867
237.1424, 0.9118000
237.6245, 0.8575590
238.1066, 1.014678
238.5888, 1.160475
239.0709, 0.7760270
239.5530, 0.9034920
240.0351, 0.9318830
240.5172, 0.8614570
240.9993, 0.4204640
241.4815, 0.4641430
241.9636, 0.3174900
242.4457, 0.1629740
242.9278, 0.5083360
243.4099, 0.7281040
243.8920, 0.8566990
244.3742, 0.8790890
244.8563, 0.5296160
245.3384, 0.6586270
245.8205, 0.7153320
246.3026, 0.8267090
246.7847, 0.5903840
247.2668, 0.2121070
247.7490, 6.0245998E-02
248.2311, 0.4471400
248.7132, 1.096157
249.1953, 1.272835
249.6774, 0.7006160
250.1595, 0.2137240
250.6417, 0.2758650
251.1238, 0.5902830
251.6059, 0.7662140
252.0880, 0.5824410
252.5701, 0.2082700
253.0522, 9.0833001E-02
253.5344, 0.3926690
254.0165, 0.6384530
254.4986, 0.6777280
254.9807, 0.5974700
255.4628, 0.4809230
255.9449, 0.3591160
256.4271, 0.2386460
256.9092, 0.1108300
257.3913, 8.5731998E-02
257.8734, 7.1286999E-02
258.3555, 0.4049250
258.8376, 1.072636
259.3198, 1.377397
259.8019, 1.130687
260.2840, 0.5772190
260.7661, 0.2222740
261.2482, 0.1531780
261.7303, 0.1325890
262.2125, 0.1401740
262.6946, 0.1637510
263.1767, 0.1945260
263.6588, 0.2389610
264.1409, 0.3008760
264.6230, 0.4206470
265.1052, 0.7386880
265.5873, 0.8284370
266.0694, 0.4301210
266.5515, 1.7294001E-02
267.0336, 8.6446002E-02
267.5157, 0.1474680
267.9979, 0.5417880
268.4800, 0.5942260
268.9621, 2.2930000E-03
269.4442, 4.2677999E-02
269.9263, 2.2829999E-03
270.4084, 0.3772790
270.8906, 0.6224770
271.3727, 0.6912950
271.8548, 0.6581160
272.3369, 0.6145680
272.8190, 0.5856670
273.3011, 0.4539560
273.7833, 4.5678999E-02
274.2654, 8.3988003E-02
274.7475, 0.1215270
275.2296, 9.9607997E-02
275.7117, 0.1672470
276.1938, 0.1945170
276.6760, 9.0172999E-02
277.1581, 5.8364000E-02
277.6402, 0.1634190
278.1223, 0.4849120
278.6044, 0.6473940
279.0865, 0.6470620
279.5686, 0.5369030
280.0508, 0.1680830
280.5329, 0.3889130
281.0150, 0.5117060
281.4971, 0.5417260
281.9792, 0.2011340
282.4613, 0.3391310
282.9435, 0.2855710
283.4256, 0.2239900
283.9077, 0.4294180
284.3898, 0.3877290
284.8719, 0.3739490
285.3540, 0.1371310
285.8362, 4.9259998E-03
286.3183, 0.1608030
286.8004, 0.4715770
287.2825, 0.6861170
287.7646, 0.6743970
288.2467, 0.5115870
288.7289, 0.4380400
289.2110, 0.6255460
289.6931, 0.7039400
290.1752, 0.5042710
290.6573, 0.1899620
291.1394, 9.1819996E-03
291.6216, 6.2933996E-02
292.1037, 0.2327510
292.5858, 0.2736010
293.0679, 4.0378001E-02
293.5500, 6.8212003E-02
294.0321, 9.2559002E-02
294.5143, 0.3620940
294.9964, 0.5861430
295.4785, 0.7231050
295.9606, 0.7649810
296.4427, 0.6821680
296.9248, 0.4067110
297.4070, 0.2123790
297.8891, 0.1029960
298.3712, 8.1595004E-02
298.8533, 0.2350360
299.3354, 0.5370100
299.8175, 0.7642760
300.2997, 0.6264840
300.7818, 3.3195000E-02
301.2639, 1.5535000E-02
301.7460, 0.2445530
302.2281, 0.7823170
302.7102, 1.013297
303.1924, 0.9279570
303.6745, 0.7114480
304.1566, 0.4623360
304.6387, 0.1970720
305.1208, 0.1027390
305.6029, 0.3402720
306.0851, 0.5748840
306.5672, 0.6087360
307.0493, 0.4923620
307.5314, 0.4084290
308.0135, 0.4725810
308.4956, 0.6384690
308.9778, 0.6996650
309.4599, 0.5865240
309.9420, 0.4764270
310.4241, 0.4203370
310.9062, 0.4069780
311.3883, 0.4313570
311.8705, 0.5026850
312.3526, 0.5751070
312.8347, 0.5326420
313.3168, 0.3284400
313.7989, 0.1419730
314.2810, 3.6265001E-02
314.7632, 1.6481001E-02
315.2453, 2.0064000E-02
315.7274, 2.4418000E-02
316.2095, 0.2056370
316.6916, 0.4482810
317.1737, 0.7384290
317.6559, 0.8695670
318.1380, 0.6779050
318.6201, 0.4019690
319.1022, 0.2811500
319.5843, 0.3437170
320.0664, 0.4822600
320.5485, 0.6306130
321.0306, 0.7869330
321.5128, 0.7717140
321.9949, 0.4018360
322.4770, 1.9763000E-02
322.9591, 4.3980000E-03
323.4412, 3.2882001E-02
323.9233, 8.3070002E-02
324.4055, 0.2515140
324.8876, 0.7246680
325.3697, 0.9255730
325.8518, 0.5916520
326.3339, 0.3018650
326.8160, 0.3249420
327.2982, 0.5409650
327.7803, 0.7164990
328.2624, 0.7192210
328.7445, 0.6202110
329.2266, 0.6161820
329.7087, 0.7770080
330.1909, 0.8928590
330.6730, 0.8805630
331.1551, 0.8174330
331.6372, 0.8358490
332.1193, 0.9646190
332.6014, 1.074202
333.0836, 0.9437980
333.5657, 0.4181540
334.0478, 0.1188120
334.5299, 0.2676460
335.0120, 0.5131410
335.4941, 0.5528760
335.9763, 0.1708210
336.4584, 0.3750810
336.9405, 0.4813020
337.4226, 0.4947520
337.9047, 0.1375910
338.3868, 0.2589850
338.8690, 0.1885840
339.3511, 0.1103160
339.8332, 0.3053570
340.3153, 1.3726000E-02
340.7974, 0.2044410
341.2795, 0.6975500
341.7617, 1.038335
342.2438, 1.179998
342.7259, 1.203912
343.2080, 1.093228
343.6901, 0.8835440
344.1722, 0.5855300
344.6544, 0.1990940
345.1365, 2.3711000E-02
345.6186, 0.1317990
346.1007, 5.9317000E-02
346.5828, 0.1391960
347.0649, 0.2169640
347.5471, 0.2340040
348.0292, 0.2357660
348.5113, 0.2318460
348.9934, 0.2002260
349.4755, 9.9376000E-02
349.9576, 5.9914999E-02
350.4398, 2.0307001E-02
350.9219, 0.1091530
351.4040, 0.4225390
351.8861, 0.6859530
352.3682, 0.8658580
352.8503, 0.9418660
353.3325, 0.8790120
353.8146, 0.6921700
354.2967, 0.6166700
354.7788, 0.9376280
355.2609, 1.045088
355.7430, 0.6304600
356.2252, 1.8062999E-02
356.7073, 6.0431000E-02
357.1894, 0.2208590
357.6715, 0.2885170
358.1536, 1.4444000E-02
358.6357, 0.1608110
359.1179, 0.1387110
359.5999, 0.1146180
360.0821, 0.1764200
360.5642, 0.3810380
361.0463, 0.4876160
361.5284, 0.5014190
362.0105, 0.1446060
362.4926, 0.2719940
362.9748, 0.2071510
363.4569, 0.1292210
363.9390, 0.3182890
364.4211, 1.5331000E-02
364.9032, 0.2001420
365.3853, 0.1902410
365.8675, 0.3597040
366.3496, 0.7271950
366.8317, 0.8644140
367.3138, 0.5482340
367.7959, 0.2736480
368.2780, 0.1318950
368.7602, 0.1124670
369.2423, 0.1882890
369.7244, 0.3697630
370.2065, 0.5839880
370.6886, 0.6535120
371.1707, 0.4907640
371.6529, 0.4050540
372.1350, 0.5337150
372.6171, 0.6757470
373.0992, 0.7058850
373.5813, 0.6079600
374.0634, 0.4461900
374.5456, 0.2438900
375.0277, 6.3880002E-03
375.5098, 2.6010999E-02
375.9919, 1.1579000E-02
376.4740, 0.1540360
376.9561, 0.1545400
377.4383, 6.9477998E-02
377.9204, 4.5665000E-02
378.4025, 0.2016750
378.8846, 0.4561820
379.3667, 0.5773770
379.8488, 0.5293240
380.3310, 0.4382990
380.8131, 0.3061570
381.2952, 0.1754980
381.7773, 8.5405000E-02
382.2594, 4.6397001E-02
382.7415, 5.7145000E-02
383.2237, 0.1631840
383.7058, 0.3636920
384.1879, 0.4694580
384.6700, 0.3669190
385.1521, 0.2226880
385.6342, 0.1863510
386.1164, 0.2539270
386.5985, 0.3462970
387.0806, 0.4620830
387.5627, 0.5669290
388.0448, 0.5577450
388.5269, 0.3951860
389.0091, 0.2237220
389.4912, 0.1638730
389.9733, 0.1746020
390.4554, 0.1668010
390.9375, 7.5209998E-02
391.4196, 2.1150000E-03
391.9018, 6.8435997E-02
392.3839, 0.2584880
392.8660, 0.4315180
393.3481, 0.5431810
393.8302, 0.5829340
394.3123, 0.5228760
394.7945, 0.3249930
395.2766, 0.1599060
395.7587, 0.1374930
396.2408, 0.1808000
396.7229, 0.1256780
397.2050, 7.6494999E-02
397.6872, 9.4241001E-02
398.1693, 5.5599998E-04
398.6514, 0.2371170
399.1335, 0.5370860
399.6156, 0.7563480
400.0977, 0.8598080
400.5798, 0.7545570
401.0620, 0.4887080
401.5441, 0.2618760
402.0262, 0.2057280
402.5083, 0.2800110
402.9904, 0.2760400
403.4725, 3.3567000E-02
403.9547, 6.2182002E-02
404.4368, 0.2227800
404.9189, 0.6160130
405.4010, 0.7182610
405.8831, 0.4187270
406.3652, 2.1483000E-02
406.8474, 1.7350001E-03
407.3295, 0.6058540
407.8116, 0.8559150
408.2937, 0.4984320
408.7758, 7.5547002E-02
409.2579, 2.5395000E-02
409.7401, 1.7040001E-03
410.2222, 5.9441999E-02
410.7043, 3.6986999E-02
411.1864, 5.3151999E-02
411.6685, 0.1065790
412.1506, 7.6162003E-02
412.6328, 6.8167999E-02
413.1149, 8.6677000E-02
413.5970, 0.1286930
414.0791, 0.2644690
414.5612, 0.5248580
415.0433, 0.7660830
415.5255, 0.7133670
416.0076, 0.1977560
416.4897, 2.8712001E-02
416.9718, 0.4488040
417.4539, 0.9091560
417.9360, 0.9922760
418.4182, 0.7445080
418.9003, 0.4163210
419.3824, 0.1333490
419.8645, 7.9580002E-02
420.3466, 7.3549002E-02
420.8287, 0.3045060
421.3109, 0.5802180
421.7930, 0.4300670
422.2751, 0.1359100
422.7572, 3.9037999E-02
423.2393, 0.2553150
423.7214, 0.5356210
424.2036, 0.6177810
424.6857, 0.5066040
425.1678, 0.3078480
425.6499, 6.9992997E-02
426.1320, 0.2273550
426.6141, 2.9217999E-02
427.0963, 0.4379220
427.5784, 0.9314060
428.0605, 1.004277
428.5426, 0.8178460
429.0247, 0.5604620
429.5068, 0.2303350
429.9890, 7.6740002E-03
430.4711, 2.8462000E-02
430.9532, 0.1286580
431.4353, 0.3036240
431.9174, 0.5588580
432.3995, 0.6960160
432.8817, 0.5549750
433.3638, 0.2499040
433.8459, 3.8704000E-02
434.3280, 6.5080002E-03
434.8101, 4.7199000E-02
435.2922, 0.1160620
435.7744, 0.2017780
436.2565, 0.2994840
436.7386, 0.4525860
437.2207, 0.5826500
437.7028, 0.6042890
438.1849, 0.5424540
438.6671, 0.5158310
439.1492, 0.6169240
439.6313, 0.8060450
440.1134, 0.8462440
440.5955, 0.5410590
441.0776, 0.3284970
441.5598, 0.3253800
442.0418, 0.4022950
442.5240, 0.3976720
443.0061, 0.2826060
443.4882, 0.1953240
443.9703, 0.3532150
444.4524, 0.8594520
444.9345, 1.126834
445.4167, 0.9818160
445.8988, 0.7644950
446.3809, 0.5138680
446.8630, 0.2877830
447.3451, 0.1799690
447.8272, 0.2635840
448.3094, 0.4546620
448.7915, 0.5198350
449.2736, 0.3788380
449.7557, 0.3582900
450.2378, 0.7486660
450.7199, 1.142597
451.2021, 1.192804
451.6842, 0.8774280
452.1663, 0.5210650
452.6484, 0.3922680
453.1305, 0.4405070
453.6126, 0.4300280
454.0948, 0.2995750
454.5769, 0.2232600
455.0590, 0.3825450
455.5411, 0.6639840
456.0232, 0.8863020
456.5053, 1.015872
456.9875, 1.057559
457.4696, 0.9831570
457.9517, 0.8170730
458.4338, 0.6595760
458.9159, 0.5273480
459.3980, 0.4501790
459.8802, 0.5195740
460.3623, 0.7596340
460.8444, 0.8869250
461.3265, 0.6723980
461.8086, 0.4411950
462.2907, 0.5908000
462.7729, 1.070662
463.2550, 1.464647
463.7371, 1.485104
464.2192, 1.197466
464.7013, 0.9230480
465.1834, 0.5326540
465.6656, 0.2852140
466.1477, 0.2580880
466.6298, 0.3693840
467.1119, 0.5919430
467.5940, 0.8973680
468.0761, 1.140923
468.5583, 1.113530
469.0404, 0.7789020
469.5225, 0.4619450
470.0046, 2.9765001E-02
470.4867, 0.1068340
470.9688, 1.2002000E-02
471.4510, 0.5352670
471.9331, 0.8565770
472.4152, 0.7047230
472.8973, 0.3216660
473.3794, 0.1649610
473.8615, 0.2811630
474.3437, 0.4263690
474.8258, 0.6894930
475.3079, 0.8618650
475.7900, 0.7194850
476.2721, 0.3239830
476.7542, 2.3912000E-02
477.2364, 0.1373970
477.7185, 0.4698240
478.2006, 0.5814160
478.6827, 0.4434440
479.1648, 0.2654210
479.6469, 7.3835999E-02
480.1291, 4.4638000E-02
480.6112, 9.3585998E-02
481.0933, 0.6285660
481.5754, 1.048234
482.0575, 1.025452
482.5396, 0.7268250
483.0217, 0.4081210
483.5038, 0.1061540
483.9860, 7.4665003E-02
484.4681, 4.8716001E-02
484.9502, 0.4903930
485.4323, 0.7450030
485.9144, 0.6991780
486.3965, 0.5865200
486.8787, 0.4995160
487.3608, 0.4143950
487.8429, 0.2450490
488.3250, 4.3118000E-02
488.8071, 0.1158360
489.2892, 0.1427050
489.7714, 4.1776001E-02
490.2535, 0.2590150
490.7356, 0.1620890
491.2177, 6.1817002E-02
491.6998, 0.1480390
492.1819, 0.3605230
492.6641, 0.5177840
493.1462, 0.4896800
493.6283, 0.3562030
494.1104, 0.3730920
494.5925, 0.6267410
495.0746, 0.7955030
495.5568, 0.7194590
496.0389, 0.5898090
496.5210, 0.5587230
497.0031, 0.6276810
497.4852, 0.6538320
497.9673, 0.4179470
498.4495, 7.1024001E-02
498.9316, 0.1222970
499.4137, 0.6981520
499.8958, 1.149747
500.3779, 0.9908200
500.8600, 0.4928060
501.3422, 0.2340750
501.8243, 0.3376230
502.3064, 0.4977730
502.7885, 0.5993260
503.2706, 0.6274730
503.7527, 0.5416640
504.2349, 0.3310860
504.7170, 0.1114030
505.1991, 5.5300002E-04
505.6812, 1.8800000E-03
506.1633, 1.5706999E-02
506.6454, 4.1632000E-02
507.1276, 3.1450000E-03
507.6097, 5.0664000E-02
508.0918, 0.4317630
508.5739, 0.6283830
509.0560, 0.5384080
509.5381, 0.3226870
510.0203, 0.2283290
510.5024, 0.2695340
510.9845, 0.3839270
511.4666, 0.7619730
511.9487, 1.023548
512.4308, 0.9370370
512.9130, 0.6358620
513.3951, 0.3671250
513.8772, 0.2505400
514.3593, 0.2696590
514.8414, 0.4672550
515.3235, 0.8954740
515.8057, 1.096907
516.2878, 0.8135080
516.7699, 0.4182190
517.2520, 0.2082940
517.7341, 0.1730560
518.2162, 0.2057600
518.6984, 0.2983730
519.1805, 0.4136210
519.6626, 0.5493030
520.1447, 0.6929400
520.6268, 0.6689220
521.1089, 0.3216920
521.5911, 3.2226998E-02
522.0732, 0.1118660
522.5553, 2.6620000E-03
523.0374, 0.2410290
523.5195, 0.3527290
524.0016, 0.3671910
524.4838, 0.2323560
524.9659, 2.3419999E-03
525.4480, 9.6244000E-02
525.9301, 0.1293170
526.4122, 0.5810880
526.8943, 0.7450980
527.3765, 0.3117250
527.8586, 2.3184000E-02
528.3407, 3.6532000E-02
528.8228, 5.7225000E-02
529.3049, 0.2544480
529.7870, 0.5222410
530.2692, 0.7861000
530.7513, 0.9858550
531.2334, 1.125775
531.7155, 1.248453
532.1976, 1.401005
532.6797, 1.423971
533.1619, 1.110327
533.6440, 0.7000380
534.1261, 0.4227230
534.6082, 0.3159680
535.0903, 0.3119280
535.5724, 0.4537480
536.0546, 0.6563900
536.5367, 0.6944260
537.0188, 0.5157460
537.5009, 0.3088290
537.9830, 0.2074520
538.4651, 0.2042860
538.9473, 0.2080350
539.4294, 0.1998460
539.9115, 0.2212470
540.3936, 0.3611570
540.8757, 0.5009420
541.3578, 0.4484890
541.8400, 0.1845850
542.3221, 8.1022002E-02
542.8042, 5.6372002E-02
543.2863, 4.2610001E-03
543.7684, 0.1496900
544.2505, 0.4438760
544.7326, 0.5893120
545.2147, 0.4269610
545.6968, 0.1413760
546.1790, 9.2575997E-02
546.6611, 2.2411000E-02
547.1432, 7.0295997E-02
547.6253, 1.7042000E-02
548.1074, 1.5380000E-03
548.5895, 0.1242060
549.0717, 0.1293640
549.5538, 0.1692510
550.0359, 0.4530970
550.5180, 0.8007880
551.0001, 0.9008900
551.4822, 0.5841740
551.9644, 0.3073140
552.4465, 0.4602940
552.9286, 0.8364420
553.4107, 0.9874360
553.8928, 0.8229830
554.3749, 0.5823480
554.8571, 0.4673970
555.3392, 0.4761780
555.8213, 0.5187750
556.3034, 0.6570330
556.7855, 0.7489740
557.2676, 0.7895110
557.7498, 0.7494380
558.2319, 0.5367950
558.7140, 0.1595660
559.1961, 2.5676001E-02
559.6782, 0.1143690
560.1603, 3.8648002E-02
560.6425, 1.5637999E-02
561.1246, 0.6739280
561.6067, 1.118216
562.0888, 0.9392170
562.5709, 0.5167550
563.0530, 0.2995930
563.5352, 0.4016900
564.0173, 0.5303700
564.4994, 0.3509040
564.9815, 4.0770001E-03
565.4636, 7.3953003E-02
565.9457, 0.2191340
566.4279, 0.5496440
566.9100, 0.7296490
567.3921, 0.7672320
567.8742, 0.7272130
568.3563, 0.5758570
568.8384, 0.4044600
569.3206, 0.1778070
569.8027, 1.1534000E-02
570.2848, 5.6166001E-02
570.7669, 5.6437999E-02
571.2490, 0.2337140
571.7311, 0.4043210
572.2133, 0.5640040
572.6954, 0.6631780
573.1775, 0.5771110
573.6596, 0.5753340
574.1417, 0.7906850
574.6238, 1.033792
575.1060, 1.136990
575.5881, 1.084964
576.0702, 0.9763290
576.5523, 0.8707530
577.0344, 0.7759240
577.5165, 0.7234900
577.9987, 0.7187980
578.4808, 0.7355260
578.9629, 0.7889400
579.4450, 0.8311030
579.9271, 0.8168100
580.4092, 0.7660800
580.8914, 0.6668560
581.3735, 0.4456880
581.8556, 0.2210960
582.3377, 0.1372340
582.8198, 0.1861430
583.3019, 0.2568340
583.7841, 0.3078820
584.2662, 0.3453370
584.7483, 0.4102460
585.2304, 0.5311370
585.7125, 0.6333660
586.1946, 0.7554360
586.6768, 0.8275490
587.1589, 0.7659700
587.6410, 0.6108640
588.1231, 0.4590150
588.6052, 0.3554380
589.0873, 0.3206870
589.5695, 0.4434500
590.0516, 0.7624970
590.5337, 0.9557400
591.0158, 0.9272130
591.4979, 0.7910320
591.9800, 0.6315970
592.4622, 0.4499500
592.9443, 0.2487280
593.4264, 0.1214270
593.9085, 0.1201850
594.3906, 7.1107998E-02
594.8727, 0.3150930
595.3549, 0.7807820
595.8370, 1.111635
596.3191, 1.287984
596.8012, 1.261342
597.2833, 0.9902310
597.7654, 0.8086010
598.2476, 0.8173880
598.7297, 0.7852860
599.2118, 0.5432350
599.6939, 0.2608760
600.1760, 0.2004320
600.6581, 0.4239760
601.1403, 0.6791580
601.6224, 0.5942150
602.1045, 0.1917390
602.5866, 6.0761001E-02
603.0687, 0.3294010
603.5508, 0.5884050
604.0330, 0.5953760
604.5151, 0.4928640
604.9972, 0.4583610
605.4793, 0.5460040
605.9614, 0.6198690
606.4435, 0.5776470
606.9257, 0.4939990
607.4078, 0.4602520
607.8899, 0.4849020
608.3720, 0.4719270
608.8541, 0.3478980
609.3362, 0.1650920
609.8184, 9.1049001E-02
610.3005, 0.2409470
610.7826, 0.3302650
611.2647, 0.2975380
611.7468, 0.2602750
612.2289, 0.3041320
612.7111, 0.4087700
613.1932, 0.4925840
613.6753, 0.4981760
614.1574, 0.4943210
614.6395, 0.6606300
615.1216, 1.023026
615.6038, 1.199388
616.0859, 1.024938
616.5680, 0.7927470
617.0501, 0.7600210
617.5322, 0.8535140
618.0143, 0.8562690
618.4965, 0.6818200
618.9786, 0.4705950
619.4607, 0.2582810
619.9428, 8.2206003E-02
620.4249, 4.4702999E-02
620.9070, 0.1618850
621.3892, 0.2844240
621.8713, 0.2534610
622.3534, 6.3116997E-02
622.8355, 1.6031001E-02
623.3176, 7.6784998E-02
623.7997, 0.2096190
624.2819, 0.4316280
624.7640, 0.6302690
625.2461, 0.7081730
625.7282, 0.6526910
626.2103, 0.5183610
626.6924, 0.1938540
627.1745, 9.2685997E-02
627.6566, 1.7858000E-02
628.1387, 0.7378830
628.6208, 1.170843
629.1030, 0.7796930
629.5851, 7.8859001E-02
630.0672, 0.1229470
630.5493, 9.0097003E-02
631.0314, 0.3312580
631.5135, 0.5473910
631.9957, 0.6988350
632.4778, 0.7351230
632.9599, 0.6925670
633.4420, 0.6458580
633.9241, 0.6232170
634.4063, 0.5943250
634.8884, 0.4964640
635.3705, 0.3051250
635.8526, 0.2528890
636.3347, 0.4336660
636.8168, 0.6283740
637.2990, 0.8320880
637.7811, 0.9829760
638.2632, 0.9899610
638.7453, 0.8294910
639.2274, 0.6234710
639.7095, 0.4077990
640.1917, 0.2208400
640.6738, 0.1183510
641.1559, 0.1068480
641.6380, 0.2307040
642.1201, 0.5621920
642.6022, 0.9723720
643.0844, 1.153400
643.5665, 0.9664300
644.0486, 0.8045860
644.5307, 0.6459030
645.0128, 0.5334260
645.4949, 0.5347550
645.9771, 0.5920860
646.4592, 0.5790110
646.9413, 0.4372810
647.4234, 0.2738170
647.9055, 0.2672800
648.3876, 0.4131540
648.8698, 0.4666480
649.3519, 0.3545510
649.8340, 0.2747680
650.3161, 0.4166640
650.7982, 0.6566480
651.2803, 0.7291920
651.7625, 0.5605810
652.2446, 0.3890850
652.7267, 0.2667070
653.2088, 0.1992370
653.6909, 0.2206640
654.1730, 0.3172300
654.6552, 0.4302760
655.1373, 0.5266310
655.6194, 0.6037610
656.1015, 0.6652630
656.5836, 0.7492480
657.0657, 0.7180520
657.5479, 0.3696720
658.0300, 0.1002020
658.5121, 0.1216000
658.9942, 0.3244270
659.4763, 0.4870540
659.9584, 0.5506260
660.4406, 0.5075860
660.9227, 0.2029300
661.4048, 4.6119001E-02
661.8869, 8.4164001E-02
662.3690, 0.4067880
662.8511, 0.8517920
663.3333, 0.6563710
663.8154, 1.7531000E-02
664.2975, 4.2500002E-03
664.7796, 0.3524440
665.2617, 0.7006180
665.7438, 0.6023410
666.2260, 0.3984240
666.7081, 0.2414680
667.1902, 0.1732790
667.6723, 0.2530550
668.1544, 0.5403940
668.6365, 0.8580450
669.1187, 0.8993500
669.6008, 0.6774530
670.0829, 0.4758180
670.5650, 0.3075900
671.0471, 0.2672300
671.5292, 0.5383590
672.0114, 0.9751660
672.4935, 1.060015
672.9756, 0.5580270
673.4577, 0.1023560
673.9398, 3.7257999E-02
674.4219, 6.8415999E-02
674.9041, 4.8698001E-02
675.3862, 0.1225400
675.8683, 0.3587150
676.3504, 0.4297600
676.8325, 0.3879110
677.3146, 0.3578680
677.7968, 0.3509680
678.2789, 0.2921840
678.7610, 8.2484998E-02
679.2431, 6.1416000E-02
679.7252, 5.5682000E-02
680.2073, 0.3138080
680.6895, 0.4664510
681.1716, 0.4423360
681.6537, 0.3665520
682.1358, 0.3235300
682.6179, 0.2670430
683.1000, 3.7712000E-02
683.5822, 0.1301940
684.0643, 0.2495080
684.5464, 3.6821999E-02
685.0285, 0.6429920
685.5106, 0.9079910
685.9927, 0.5370910
686.4749, 0.2502690
686.9570, 4.6918001E-02
687.4391, 3.8694002E-02
687.9212, 0.1024720
688.4033, 0.3642420
688.8854, 0.4828160
689.3676, 0.3398350
689.8497, 0.2034070
690.3318, 0.3474150
690.8139, 0.6514160
691.2960, 0.9016280
691.7781, 1.069243
692.2603, 1.040784
692.7424, 0.7014780
693.2245, 0.2019070
693.7066, 6.2894002E-02
694.1887, 2.3205001E-02
694.6708, 0.1198690
695.1530, 0.2590240
695.6351, 0.3746890
696.1172, 0.4035010
696.5993, 0.4039980
697.0814, 0.4866540
697.5635, 0.6995100
698.0457, 0.8493210
698.5278, 0.6605500
699.0099, 0.2495330
699.4920, 3.8392000E-02
699.9741, 8.9600001E-04
700.4562, 6.6358000E-02
700.9384, 0.2815510
701.4205, 0.7910350
701.9026, 0.9330830
702.3847, 0.5007530
702.8668, 0.2526030
703.3489, 0.3554640
703.8311, 0.4809540
704.3132, 0.4715710
704.7953, 0.3843180
705.2774, 0.3145610
705.7595, 0.2951340
706.2416, 0.3187710
706.7238, 0.3967760
707.2059, 0.5139450
707.6880, 0.5898180
708.1701, 0.6118190
708.6522, 0.6995920
709.1343, 0.9805290
709.6164, 1.261036
710.0985, 1.188207
710.5806, 0.6975810
711.0627, 0.3492190
711.5449, 0.2269750
712.0270, 0.2020710
712.5091, 0.2916220
712.9912, 0.4064810
713.4733, 0.4225030
713.9554, 0.3163360
714.4376, 0.1675780
714.9197, 1.3290000E-02
715.4018, 4.7855001E-02
715.8839, 1.8353000E-02
716.3660, 0.3284590
716.8481, 0.5769780
717.3303, 0.5892500
717.8124, 0.4986980
718.2945, 0.4495180
718.7766, 0.4406860
719.2587, 0.3937670
719.7408, 0.2588800
720.2230, 0.1567800
720.7051, 0.1664310
721.1872, 0.1993260
721.6693, 9.0906002E-02
722.1514, 1.1732000E-02
722.6335, 7.7257998E-02
723.1157, 5.0845999E-02
723.5978, 0.5248960
724.0799, 0.6991850
724.5620, 0.5371410
725.0441, 0.3960370
725.5262, 0.3434530
726.0084, 0.3257700
726.4905, 0.3319440
726.9726, 0.3399210
727.4547, 0.2573670
727.9368, 6.9747001E-02
728.4189, 0.1141520
728.9011, 6.6216998E-02
729.3832, 0.2220150
729.8653, 0.4245120
730.3474, 0.5165410
730.8295, 0.5511830
731.3116, 0.5612410
731.7938, 0.5175840
732.2759, 0.3686230
732.7580, 0.1196390
733.2401, 9.2630005E-03
733.7222, 8.7687001E-02
734.2043, 0.1903570
734.6865, 0.2122920
735.1686, 0.2008180
735.6507, 0.2693790
736.1328, 0.4593070
736.6149, 0.5957630
737.0970, 0.6213200
737.5792, 0.6044140
738.0613, 0.5414780
738.5434, 0.4708130
739.0255, 0.4654860
739.5076, 0.5478110
739.9897, 0.6552080
740.4719, 0.7324510
740.9540, 0.7739240
741.4361, 0.7037640
741.9182, 0.5073350
742.4003, 0.3584320
742.8824, 0.2973700
743.3646, 0.2821910
743.8467, 0.2826170
744.3288, 0.3008630
744.8109, 0.2497600
745.2930, 4.8399999E-04
745.7751, 3.5788000E-02
746.2573, 2.9953999E-02
746.7394, 2.7905000E-02
747.2215, 0.2071970
747.7036, 0.4880300
748.1857, 0.6591650
748.6678, 0.5676420
749.1500, 0.3380410
749.6321, 0.2555440
750.1142, 0.3200090
750.5963, 0.3762000
751.0784, 0.3947540
751.5605, 0.3946140
752.0427, 0.4251690
752.5248, 0.4598510
753.0069, 0.3776720
753.4890, 3.3849999E-03
753.9711, 6.7268997E-02
754.4532, 6.8028003E-02
754.9354, 0.1403130
755.4175, 0.2581610
755.8996, 0.2879780
756.3817, 0.2805090
756.8638, 0.2545930
757.3459, 0.2302290
757.8281, 0.2434780
758.3102, 0.2853370
758.7923, 0.3161970
759.2744, 0.3254260
759.7565, 0.2647040
760.2386, 5.8120001E-02
760.7208, 2.1198999E-02
761.2029, 3.0037999E-02
761.6850, 0.7079490
762.1671, 1.029357
762.6492, 0.7258600
763.1313, 0.4149260
763.6135, 0.2680670
764.0956, 0.2291370
764.5777, 0.2339960
765.0598, 0.2667810
765.5419, 0.3186110
766.0240, 0.4264270
766.5062, 0.5261480
766.9883, 0.4703930
767.4704, 0.3157460
767.9525, 0.3309360
768.4346, 0.5859980
768.9167, 0.8670720
769.3989, 0.9967830
769.8810, 0.9805560
770.3631, 0.8307050
770.8452, 0.3916270
771.3273, 0.1020440
771.8094, 9.3635999E-02
772.2916, 0.1360440
772.7737, 7.6228000E-02
773.2558, 2.4824999E-02
773.7379, 3.8176000E-02
774.2200, 0.3721750
774.7021, 0.6152670
775.1843, 0.4170680
775.6664, 5.4035001E-02
776.1485, 1.7222000E-02
776.6306, 4.1460998E-02
777.1127, 5.0085001E-02
777.5948, 0.2392120
778.0770, 0.4040910
778.5591, 0.3981030
779.0412, 0.2087080
779.5233, 0.1277980
780.0054, 0.2161940
780.4875, 0.2620780
780.9697, 0.1027050
781.4518, 3.9735999E-02
781.9339, 0.1284270
782.4160, 0.5751980
782.8981, 0.8816170
783.3802, 0.8532910
783.8624, 0.7693130
784.3445, 0.7509180
784.8266, 0.7709800
785.3087, 0.8020560
785.7908, 0.8271330
786.2729, 0.8505470
786.7551, 0.9016030
787.2372, 0.9120340
787.7193, 0.6441040
788.2014, 0.1051650
788.6835, 4.2497002E-02
789.1656, 0.1513200
789.6478, 0.5128130
790.1299, 0.8336310
790.6120, 1.074435
791.0941, 1.124482
791.5762, 0.9389600
792.0583, 0.7100670
792.5404, 0.3436830
793.0225, 4.9773000E-02
793.5046, 5.3047001E-02
793.9868, 3.5218000E-02
794.4689, 8.2769999E-03
794.9510, 5.5523999E-02
795.4331, 0.1347990
795.9152, 0.2992680
796.3973, 0.4865750
796.8795, 0.6022490
797.3616, 0.6487840
797.8437, 0.6102360
798.3258, 0.4779680
798.8079, 0.3689760
799.2900, 0.3940080
799.7722, 0.5253910
800.2543, 0.6331890
800.7364, 0.7227400
801.2185, 0.7784650
801.7006, 0.8612410
802.1827, 0.8447210
802.6649, 0.5780210
803.1470, 0.1937490
803.6291, 5.1259998E-02
804.1112, 0.1164400
804.5933, 7.0789002E-02
805.0754, 0.2834440
805.5576, 0.8457450
806.0397, 1.022590
806.5218, 0.9139250
807.0039, 0.8156530
807.4860, 0.8291300
807.9681, 0.8547480
808.4503, 0.7670810
808.9324, 0.6002270
809.4145, 0.5443050
809.8966, 0.6117870
810.3787, 0.7297190
810.8608, 0.9448770
811.3430, 1.083880
811.8251, 0.9306820
812.3072, 0.5445260
812.7893, 0.3164510
813.2714, 0.3364360
813.7535, 0.3752460
814.2357, 0.3921460
814.7178, 0.4284930
815.1999, 0.5522090
815.6820, 0.7169970
816.1641, 0.8379320
816.6462, 0.8866300
817.1284, 0.8389980
817.6105, 0.5721740
818.0926, 0.2355530
818.5747, 0.1715880
819.0568, 0.3498510
819.5389, 0.4364570
820.0211, 0.3196620
820.5032, 0.1306010
820.9853, 1.1322000E-02
821.4674, 4.0251002E-02
821.9495, 5.8625001E-02
822.4316, 6.9693998E-02
822.9138, 1.1547000E-02
823.3959, 0.3046540
823.8780, 0.5899740
824.3601, 0.7609330
824.8422, 0.8099130
825.3243, 0.6911920
825.8065, 0.2817830
826.2886, 1.7480000E-03
826.7707, 0.1118660
827.2528, 0.3399160
827.7349, 0.4478810
828.2170, 0.4618330
828.6992, 0.4985310
829.1813, 0.5960360
829.6634, 0.6733130
830.1455, 0.6044350
830.6276, 0.4538360
831.1097, 0.4767660
831.5919, 0.6727540
832.0740, 0.7731080
832.5561, 0.6975210
833.0382, 0.5151510
833.5203, 0.2534290
834.0024, 6.0701001E-02
834.4846, 3.7941001E-02
834.9667, 2.8580001E-03
835.4488, 0.1271570
835.9309, 2.1785000E-02
836.4130, 6.5720002E-03
836.8951, 0.3598870
837.3773, 0.8862840
837.8594, 1.260793
838.3415, 1.421252
838.8236, 1.366039
839.3057, 0.9048210
839.7878, 0.3789340
840.2700, 0.1172050
840.7521, 6.4365000E-02
841.2342, 6.3744001E-02
841.7163, 7.5714000E-02
842.1984, 0.1907480
842.6805, 0.5448790
843.1627, 0.9904790
843.6448, 1.022395
844.1269, 0.6267280
844.6090, 0.3132390
845.0911, 0.1505440
845.5732, 0.1625960
846.0554, 0.4410290
846.5375, 0.8561720
847.0196, 1.048218
847.5017, 0.9108150
847.9838, 0.7736480
848.4659, 0.6025200
848.9481, 0.4705940
849.4302, 0.4259500
849.9123, 0.4235200
850.3944, 0.4048140
850.8765, 0.3649560
851.3586, 0.3453320
851.8408, 0.3703570
852.3229, 0.4335280
852.8050, 0.5732760
853.2871, 0.7249850
853.7692, 0.7719270
854.2513, 0.7067680
854.7335, 0.6160080
855.2156, 0.5113410
855.6977, 0.3877750
856.1798, 0.2039160
856.6619, 3.0877000E-02
857.1440, 7.0533998E-02
857.6262, 0.6179810
858.1083, 1.014153
858.5904, 0.9685460
859.0725, 0.6888200
859.5546, 0.4073110
860.0367, 0.1015480
860.5189, 7.3367998E-02
861.0010, 0.6776030
861.4831, 1.063285
861.9652, 0.9703120
862.4473, 0.7280190
862.9294, 0.5213100
863.4116, 0.3744990
863.8937, 0.3062600
864.3758, 0.3303950
864.8579, 0.4114760
865.3400, 0.4983250
865.8221, 0.6224600
866.3043, 0.9183490
866.7864, 1.265062
867.2685, 1.314018
867.7506, 0.9654670
868.2327, 0.4830620
868.7148, 7.7212997E-02
869.1970, 1.5779000E-02
869.6791, 6.0488001E-02
870.1612, 0.4831920
870.6433, 0.6820380
871.1254, 0.3049740
871.6075, 8.5133001E-02
872.0897, 4.0015001E-02
872.5718, 0.3002240
873.0539, 0.4817740
873.5360, 0.4300200
874.0181, 0.3904870
874.5002, 0.4415690
874.9823, 0.4129330
875.4644, 0.1350150
875.9465, 6.2299999E-03
876.4286, 0.1007000
876.9108, 1.6640000E-02
877.3929, 2.0719999E-02
877.8750, 0.1045770
878.3571, 0.2294180
878.8392, 0.3450720
879.3214, 0.4751610
879.8035, 0.6771190
880.2856, 0.9237420
880.7677, 1.159959
881.2498, 1.362970
881.7319, 1.393273
882.2141, 0.8983270
882.6962, 0.1177630
883.1783, 2.5245000E-02
883.6604, 2.9066000E-02
884.1425, 0.2425010
884.6246, 0.3092690
885.1068, 0.3337610
885.5889, 0.4379670
886.0710, 0.6009620
886.5531, 0.6897610
887.0352, 0.7005250
887.5173, 0.6410660
887.9995, 0.4495150
888.4816, 0.2767800
888.9637, 0.2427230
889.4458, 0.2830580
889.9279, 0.2436270
890.4100, 6.3720003E-02
890.8922, 4.4734001E-02
891.3743, 0.4399010
891.8564, 0.7650690
892.3385, 0.7303590
892.8206, 0.5438920
893.3027, 0.3874050
893.7849, 0.3202120
894.2670, 0.4093940
894.7491, 0.8173840
895.2312, 1.110660
895.7133, 0.6732900
896.1954, 3.3969998E-02
896.6776, 1.3666000E-02
897.1597, 0.1117180
897.6418, 0.3996010
898.1239, 0.4350850
898.6060, 0.3744600
899.0881, 0.4093110
899.5703, 0.5172140
900.0524, 0.5799160
900.5345, 0.6074450
901.0166, 0.6228750
901.4987, 0.6241520
901.9808, 0.6384130
902.4630, 0.7315140
902.9451, 0.6788470
903.4272, 0.8298020
903.9093, 0.8827120
904.3914, 0.8428710
904.8735, 0.4324270
905.3557, 0.5005150
905.8378, 0.3768330
906.3199, 0.2452930
906.8020, 0.3807470
907.2841, 2.4181999E-02
907.7662, 0.1554050
908.2484, 9.1880001E-02
908.7305, 0.6176200
909.2126, 0.4779290
909.6947, 0.1575170
910.1768, 0.2262610
910.6589, 0.5383000
911.1411, 0.5565190
911.6232, 7.1211003E-02
912.1053, 0.1959780
912.5874, 7.5126998E-02
913.0695, 0.1209190
913.5516, 0.3129260
914.0338, 0.3462040
914.5159, 0.3638210
914.9980, 0.4063260
915.4801, 0.4306360
915.9622, 0.3979370
916.4443, 0.3474800
916.9265, 0.4123030
917.4086, 0.5914330
917.8907, 0.5523130
918.3728, 0.2151290
918.8549, 7.5590000E-03
919.3370, 9.0580001E-02
919.8192, 0.3518760
920.3013, 0.5978670
920.7834, 0.8353690
921.2655, 0.8087750
921.7476, 0.2315600
922.2297, 7.6050997E-02
922.7119, 3.5200000E-03
923.1940, 0.2530920
923.6761, 0.6300530
924.1582, 0.9893980
924.6403, 1.032167
925.1224, 0.3352250
925.6046, 0.4174440
926.0867, 0.4016760
926.5688, 0.2931170
927.0509, 3.5000001E-05
927.5330, 1.091021
928.0151, 1.128987
928.4973, 7.5827003E-02
928.9794, 0.3398850
929.4615, 0.5004410
929.9436, 0.5710580
930.4257, 0.2736930
930.9078, 0.4548800
931.3900, 0.4442900
931.8721, 0.4258210
932.3542, 0.6743580
932.8363, 0.5252520
933.3184, 0.3744100
933.8005, 0.2092010
934.2827, 4.2470001E-02
934.7648, 9.2914999E-02
935.2469, 2.9278999E-02
935.7290, 4.5001999E-02
936.2111, 2.9237000E-02
936.6932, 0.1105400
937.1754, 0.1545940
937.6575, 0.1556140
938.1396, 0.2079140
938.6217, 0.3137450
939.1038, 0.4673990
939.5859, 0.7566760
940.0681, 0.8471120
940.5502, 0.5377200
941.0323, 0.1584780
941.5144, 4.5550000E-03
941.9965, 3.0159999E-03
942.4786, 1.0689000E-02
942.9608, 3.1172000E-02
943.4429, 2.8976999E-02
943.9250, 0.3490540
944.4071, 0.5936950
944.8892, 0.5469830
945.3713, 0.4057640
945.8535, 0.4154450
946.3356, 0.5728700
946.8177, 0.6690210
947.2998, 0.6382480
947.7819, 0.5311550
948.2640, 0.3098040
948.7462, 7.5698003E-02
949.2283, 9.9055998E-02
949.7104, 2.7192000E-02
950.1925, 4.2830002E-02
950.6746, 9.9611998E-02
951.1567, 0.3779280
951.6389, 0.4648510
952.1210, 0.4616340
952.6031, 0.5174760
953.0852, 0.5787800
953.5673, 0.4822860
954.0494, 0.2441770
954.5316, 7.8760996E-02
955.0137, 0.1162970
955.4958, 0.2543620
955.9779, 0.4239610
956.4600, 0.5811950
956.9421, 0.4314620
957.4242, 1.0112000E-02
957.9063, 5.6485999E-02
958.3884, 6.0206000E-02
958.8705, 0.1017370
959.3527, 0.1225590
959.8348, 0.4386590
960.3169, 0.7242600
960.7990, 0.9974500
961.2811, 1.147677
961.7632, 1.169232
962.2454, 1.069475
962.7275, 0.7927300
963.2096, 0.4750370
963.6917, 0.2410170
964.1738, 9.4414003E-02
964.6559, 7.8428999E-02
965.1381, 0.2768860
965.6202, 0.4714020
966.1023, 0.7745380
966.5844, 0.9375750
967.0665, 0.6941840
967.5486, 0.3353280
968.0308, 0.3043200
968.5129, 0.6228300
968.9950, 0.7737470
969.4771, 0.5130530
969.9592, 0.2297050
970.4413, 5.0799999E-02
970.9235, 2.9265000E-02
971.4056, 1.9572999E-02
971.8877, 6.8617001E-02
972.3698, 0.2500060
972.8519, 0.5290630
973.3340, 0.7350160
973.8162, 0.7689280
974.2983, 0.6935630
974.7804, 0.4528880
975.2625, 0.1963830
975.7446, 0.1961200
976.2267, 0.3936190
976.7089, 0.4640760
977.1910, 0.2456300
977.6731, 1.9902000E-02
978.1552, 0.1294060
978.6373, 0.3985460
979.1194, 0.5295380
979.6016, 0.5426740
980.0837, 0.5217350
980.5658, 0.3206910
981.0479, 0.6007560
981.5300, 0.7827590
982.0121, 0.8651520
982.4943, 0.5769440
982.9764, 0.7672730
983.4585, 0.7658090
983.9406, 0.7564730
984.4227, 1.014133
984.9048, 0.7729820
985.3870, 1.517045
985.8691, 1.413188
986.3512, 0.8757240
986.8333, 0.7032790
987.3154, 0.9662810
987.7975, 0.9797490
988.2797, 0.6290480
988.7618, 0.3398180
989.2439, 0.2578750
989.7260, 0.3711690
990.2081, 0.7598510
990.6902, 1.354194
991.1724, 1.455523
991.6545, 0.6915540
992.1366, 0.3109520
992.6187, 0.5947700
993.1008, 0.9524270
993.5829, 1.179406
994.0651, 1.294435
994.5472, 1.234543
995.0293, 0.9977740
995.5114, 0.9898960
995.9935, 1.466055
996.4756, 1.827109
996.9578, 2.016423
997.4399, 2.045339
997.9220, 1.826737
998.4041, 1.510484
998.8862, 1.294329
999.3683, 1.201229
999.8505, 1.220704
1000.333, 1.513214
1000.815, 1.701395
1001.297, 1.548786
1001.779, 1.328747
1002.261, 1.275689
1002.743, 1.332688
1003.225, 1.357719
1003.707, 1.316220
1004.190, 1.223193
1004.672, 1.172698
1005.154, 0.8257120
1005.636, 1.013911
1006.118, 1.104100
1006.600, 1.107693
1007.082, 0.7312640
1007.564, 0.8275780
1008.046, 0.7316940
1008.529, 0.4464920
1009.011, 0.2894330
1009.493, 0.2293790
1009.975, 0.2072300
1010.457, 0.2503600
1010.939, 0.4801960
1011.421, 0.8385530
1011.903, 1.058419
1012.385, 1.006299
1012.868, 0.8634110
1013.350, 0.8382040
1013.832, 0.8507640
1014.314, 0.6935720
1014.796, 0.4517470
1015.278, 0.4133110
1015.760, 0.5882740
1016.242, 0.7604870
1016.725, 0.7998900
1017.207, 0.7784060
1017.689, 0.7933350
1018.171, 0.8170290
1018.653, 0.6948760
1019.135, 0.4659880
1019.617, 0.4660140
1020.099, 0.7551510
1020.581, 0.9008870
1021.064, 0.5811850
1021.546, 9.4540998E-02
1022.028, 5.0009001E-02
1022.510, 0.3964480
1022.992, 0.4993310
1023.474, 0.3509770
1023.956, 0.2051110
1024.438, 0.1152190
1024.921, 0.1763470
1025.403, 0.4909970
1025.885, 0.8755130
1026.367, 0.8769150
1026.849, 0.4647060
1027.331, 0.1694720
1027.813, 2.0056000E-02
1028.295, 2.4379000E-02
1028.777, 0.4238010
1029.260, 0.7435560
1029.742, 0.5742610
1030.224, 0.1384920
1030.706, 0.1093630
1031.188, 0.6166980
1031.670, 0.8163310
1032.152, 0.6135660
1032.634, 0.3759170
1033.116, 0.1867820
1033.599, 2.3827000E-02
1034.081, 4.2553000E-02
1034.563, 0.1100670
1035.045, 0.1002330
1035.527, 2.8817000E-02
1036.009, 6.8057999E-02
1036.491, 7.3994003E-02
1036.973, 5.8389999E-02
1037.456, 2.1607000E-02
1037.938, 7.0807002E-02
1038.420, 8.9134999E-02
1038.902, 9.4660997E-02
1039.384, 0.1372770
1039.866, 0.8046320
1040.348, 1.121958
1040.830, 0.8821020
1041.313, 0.5864590
1041.795, 0.2099310
1042.277, 3.2129999E-02
1042.759, 0.1250400
1043.241, 0.5434980
1043.723, 0.7715860
1044.205, 0.7471380
1044.687, 0.6901310
1045.169, 0.6235250
1045.651, 0.5068830
1046.134, 0.2210260
1046.616, 2.4582000E-02
1047.098, 2.4820000E-03
1047.580, 0.1949170
1048.062, 0.2783960
1048.544, 0.1781900
1049.026, 0.1238610
1049.508, 0.1014550
1049.991, 0.1855860
1050.473, 0.6362770
1050.955, 0.9975060
1051.437, 0.7379980
1051.919, 0.1023440
1052.401, 4.3790000E-03
1052.883, 8.6542003E-02
1053.365, 0.2397070
1053.848, 5.7271000E-02
1054.330, 0.1049360
1054.812, 3.3940000E-03
1055.294, 7.5429999E-03
1055.776, 6.7461997E-02
1056.258, 5.0398000E-02
1056.740, 0.1408510
1057.222, 0.3875940
1057.704, 0.6325510
1058.187, 0.9500370
1058.669, 1.105900
1059.151, 0.7989220
1059.633, 0.4664550
1060.115, 0.5360500
1060.597, 0.8660050
1061.079, 1.113292
1061.561, 1.217413
1062.043, 1.143192
1062.526, 0.7224740
1063.008, 0.3138560
1063.490, 2.4795000E-02
1063.972, 8.5770003E-03
1064.454, 1.1901000E-02
1064.936, 2.3610000E-02
1065.418, 9.8155998E-02
1065.900, 0.2075310
1066.383, 0.3075460
1066.865, 0.3623650
1067.347, 0.4559660
1067.829, 0.6835160
1068.311, 0.9155510
1068.793, 1.073594
1069.275, 1.137183
1069.757, 1.057071
1070.240, 0.8333310
1070.722, 0.6522240
1071.204, 0.6391550
1071.686, 0.6225270
1072.168, 0.4749830
1072.650, 0.3353410
1073.132, 0.3222240
1073.614, 0.3980890
1074.096, 0.5046770
1074.578, 0.6220970
1075.061, 0.7009670
1075.543, 0.7610470
1076.025, 0.7148890
1076.507, 0.3600220
1076.989, 4.1001000E-02
1077.471, 0.1105010
1077.953, 0.3579140
1078.435, 0.3784140
1078.918, 0.1750390
1079.400, 0.2020080
1079.882, 0.8492650
1080.364, 1.287306
1080.846, 0.9533020
1081.328, 0.4432620
1081.810, 8.2130998E-02
1082.292, 3.7787002E-02
1082.774, 3.3959001E-02
1083.257, 2.3260999E-02
1083.739, 0.1065700
1084.221, 1.4182000E-02
1084.703, 2.2405000E-02
1085.185, 0.6237560
1085.667, 1.166849
1086.149, 1.167653
1086.631, 0.9368340
1087.114, 0.8394990
1087.596, 0.8757000
1088.078, 0.8701320
1088.560, 0.7654060
1089.042, 0.6514470
1089.524, 0.5837090
1090.006, 0.4943370
1090.488, 0.2958990
1090.970, 9.6317999E-02
1091.453, 8.3659999E-03
1091.935, 6.1249998E-03
1092.417, 1.4379000E-02
1092.899, 2.0059999E-02
1093.381, 8.7916002E-02
1093.863, 0.3046530
1094.345, 0.4718350
1094.827, 0.4599010
1095.309, 0.4109260
1095.792, 0.4098040
1096.274, 0.4700220
1096.756, 0.6285390
1097.238, 0.8948660
1097.720, 1.099544
1098.202, 1.358755
1098.684, 1.343457
1099.166, 0.5194140
1099.649, 1.7633000E-02
1100.131, 0.1053060
1100.613, 0.8194560
1101.095, 1.072286
1101.577, 0.8005610
1102.059, 0.5355460
1102.541, 0.3699530
1103.023, 0.2766010
1103.505, 0.2898420
1103.988, 0.3270830
1104.470, 0.3612820
1104.952, 0.3993540
1105.434, 0.4842070
1105.916, 0.5860830
1106.398, 0.5535610
1106.880, 0.2472210
1107.362, 5.1782999E-02
1107.844, 0.1261780
1108.327, 0.2179960
1108.809, 0.2964050
1109.291, 0.3132740
1109.773, 0.1288500
1110.255, 2.6876001E-02
1110.737, 0.1457970
1111.219, 1.4721000E-02
1111.701, 8.9570004E-03
1112.184, 8.7319002E-02
1112.666, 0.2175180
1113.148, 0.5134260
1113.630, 0.7265500
1114.112, 0.5867070
1114.594, 0.3005050
1115.076, 0.3019220
1115.558, 0.6465220
1116.041, 0.7160900
1116.523, 0.2564210
1117.005, 4.1069999E-02
1117.487, 6.7659998E-03
1117.969, 5.5390000E-02
1118.451, 2.4359999E-02
1118.933, 6.5310001E-02
1119.415, 8.0861002E-02
1119.897, 1.4584000E-02
1120.380, 0.2210600
1120.862, 0.6439830
1121.344, 0.7736440
1121.826, 0.3995940
1122.308, 0.1419710
1122.790, 0.2686620
1123.272, 0.5100960
1123.754, 0.6356130
1124.236, 0.6547290
1124.719, 0.5824690
1125.201, 0.3804370
1125.683, 0.2805930
1126.165, 0.2737280
1126.647, 0.4387510
1127.129, 0.8686000
1127.611, 1.216285
1128.093, 1.231228
1128.576, 1.039205
1129.058, 0.8444160
1129.540, 0.6548200
1130.022, 0.6940640
1130.504, 1.002668
1130.986, 1.006562
1131.468, 0.5843870
1131.950, 0.2432630
1132.432, 0.2355870
1132.915, 0.3638090
1133.397, 0.4021990
1133.879, 0.3645860
1134.361, 0.2755820
1134.843, 0.1449790
1135.325, 0.1054100
1135.807, 0.1396190
1136.289, 0.2366590
1136.771, 0.3869300
1137.254, 0.5083910
1137.736, 0.5339080
1138.218, 0.4953480
1138.700, 0.4524920
1139.182, 0.4088980
1139.664, 0.2933030
1140.146, 0.1375220
1140.628, 0.2054510
1141.111, 0.5030960
1141.593, 0.7157190
1142.075, 0.6797480
1142.557, 0.5153450
1143.039, 0.2857740
1143.521, 6.8118997E-02
1144.003, 1.3399000E-02
1144.485, 6.1200999E-02
1144.968, 0.1010680
1145.450, 0.1216810
1145.932, 0.1189910
1146.414, 0.1035140
1146.896, 0.1755710
1147.378, 0.4537000
1147.860, 0.7476040
1148.342, 0.9395640
1148.824, 0.9906650
1149.307, 0.6978640
1149.789, 0.3043870
1150.271, 0.3034560
1150.753, 0.6665740
1151.235, 0.8864550
1151.717, 0.7164400
1152.199, 0.5773400
1152.681, 0.9047080
1153.163, 1.114564
1153.646, 0.5900780
1154.128, 6.2591001E-02
1154.610, 6.0079001E-02
1155.092, 0.1012250
1155.574, 0.3639950
1156.056, 0.5277960
1156.538, 0.6655200
1157.020, 0.9137490
1157.503, 0.9674250
1157.985, 0.5047420
1158.467, 0.1000020
1158.949, 0.2322840
1159.431, 0.5380610
1159.913, 0.4659460
1160.395, 6.4979002E-02
1160.877, 6.8456002E-02
1161.359, 0.2646000
1161.842, 0.5356090
1162.324, 0.8642230
1162.806, 0.9273380
1163.288, 0.4019740
1163.770, 0.1083120
1164.252, 0.1250140
1164.734, 0.1554570
1165.216, 0.4886330
1165.698, 0.8977650
1166.181, 0.7330200
1166.663, 9.2716001E-02
1167.145, 0.3205700
1167.627, 0.5848760
1168.109, 1.532490
1168.591, 1.427777
1169.073, 0.9626120
1169.555, 0.9198080
1170.037, 1.150733
1170.520, 1.090568
1171.002, 0.7482950
1171.484, 0.3999280
1171.966, 6.9513001E-02
1172.448, 0.2428530
1172.930, 1.036934
1173.412, 1.626688
1173.894, 1.449577
1174.377, 0.9751860
1174.859, 0.8837730
1175.341, 1.080882
1175.823, 1.302463
1176.305, 1.519623
1176.787, 1.728028
1177.269, 1.870359
1177.751, 1.695650
1178.234, 1.187601
1178.716, 0.7168150
1179.198, 0.5757290
1179.680, 0.5845840
1180.162, 0.6200590
1180.644, 0.6304850
1181.126, 0.5170840
1181.608, 0.3459810
1182.090, 0.1974750
1182.573, 0.1158790
1183.055, 0.2182380
1183.537, 0.5897950
1184.019, 0.8399290
1184.501, 0.6662290
1184.983, 0.4368370
1185.465, 0.3012880
1185.947, 0.2508810
1186.429, 0.3471680
1186.912, 0.4851920
1187.394, 0.4372840
1187.876, 0.1969230
1188.358, 0.1316800
1188.840, 0.4723920
1189.322, 0.7155310
1189.804, 0.7312610
1190.286, 0.7484690
1190.769, 0.9753950
1191.251, 1.088463
1191.733, 0.6703560
1192.215, 3.3980000E-03
1192.697, 0.1573200
1193.179, 0.2499360
1193.661, 0.6777530
1194.143, 1.226599
1194.625, 1.382473
1195.108, 1.001819
1195.590, 0.4603910
1196.072, 0.1308730
1196.554, 0.1319980
1197.036, 0.1364360
1197.518, 0.4130370
1198.000, 0.5798200
1198.482, 0.3374290
1198.964, 0.1790210
1199.447, 0.1350310
1199.929, 0.3043810
1200.411, 0.6804110
1200.893, 0.9878020
1201.375, 1.066544
1201.857, 1.030199
1202.339, 0.9586830
1202.821, 0.9065530
1203.304, 1.051939
1203.786, 1.230350
1204.268, 1.107391
1204.750, 0.7632590
1205.232, 0.3964730
1205.714, 0.1051090
1206.196, 0.1150230
1206.678, 0.6717230
1207.161, 1.134343
1207.643, 1.004592
1208.125, 0.7823850
1208.607, 0.7534840
1209.089, 0.8291570
1209.571, 0.9089090
1210.053, 0.9705450
1210.535, 0.9998230
1211.017, 0.9612390
1211.500, 0.9614570
1211.982, 1.129054
1212.464, 1.146131
1212.946, 0.7988910
1213.428, 0.5459670
1213.910, 0.6535900
1214.392, 0.8117300
1214.874, 0.6860300
1215.356, 0.4062330
1215.839, 0.3892460
1216.321, 0.6764510
1216.803, 0.8309430
1217.285, 0.8448260
1217.767, 0.7523600
1218.249, 0.5424940
1218.731, 0.3910620
1219.213, 0.3999180
1219.696, 0.4759110
1220.178, 0.5376740
1220.660, 0.5600140
1221.142, 0.4218760
1221.624, 0.1994170
1222.106, 0.2253060
1222.588, 0.4421190
1223.070, 0.5425850
1223.552, 0.4919030
1224.035, 0.4445710
1224.517, 0.4577900
1224.999, 0.4959710
1225.481, 0.5955640
1225.963, 0.6944470
1226.445, 0.7891650
1226.927, 0.8427990
1227.409, 0.7483580
1227.891, 0.6206390
1228.374, 0.7051860
1228.856, 0.9652950
1229.338, 1.059608
1229.820, 0.8869400
1230.302, 0.5933760
1230.784, 4.9545001E-02
1231.266, 1.8428000E-02
1231.748, 0.1300110
1232.231, 3.4662001E-02
1232.713, 0.5447860
1233.195, 0.9085370
1233.677, 0.4986160
1234.159, 0.1016130
1234.641, 0.2518520
1235.123, 0.3380650
1235.605, 0.8256580
1236.088, 0.6464570
1236.570, 0.4555780
1237.052, 0.4133780
1237.534, 0.4588580
1238.016, 0.5508160
1238.498, 0.7432670
1238.980, 1.217778
1239.462, 1.740943
1239.944, 1.535312
1240.427, 0.9046670
1240.909, 0.6180490
1241.391, 0.6566140
1241.873, 0.7893350
1242.355, 0.9967560
1242.837, 1.008968
1243.319, 0.6751100
1243.801, 0.3716570
1244.283, 0.4571730
1244.766, 0.5932180
1245.248, 0.4564460
1245.730, 0.3016390
1246.212, 0.3999130
1246.694, 0.6624190
1247.176, 1.000730
1247.658, 1.355165
1248.140, 1.348411
1248.622, 0.6143960
1249.105, 0.1811610
1249.587, 0.3031900
1250.069, 0.4073420
1250.551, 0.3225420
1251.033, 0.2669270
1251.515, 0.3900350
1251.997, 0.5990160
1252.479, 0.7729710
1252.962, 0.8984480
1253.444, 0.8853480
1253.926, 0.7358380
1254.408, 0.5048060
1254.890, 0.2188430
1255.372, 0.2711240
1255.854, 0.7218000
1256.336, 1.126263
1256.818, 1.227942
1257.301, 1.164453
1257.783, 1.028483
1258.265, 0.8796110
1258.747, 0.8215520
1259.229, 0.7139580
1259.711, 0.5318140
1260.193, 0.3127310
1260.675, 0.1503640
1261.157, 0.3065810
1261.640, 0.5386590
1262.122, 0.8624840
1262.604, 1.001599
1263.086, 0.7536060
1263.568, 0.4724080
1264.050, 0.2571070
1264.532, 5.2832000E-02
1265.014, 9.3163997E-02
1265.497, 0.1419390
1265.979, 5.6774002E-02
1266.461, 1.249661
1266.943, 1.333601
1267.425, 5.5792999E-02
1267.907, 0.1055790
1268.389, 0.2595400
1268.871, 0.5759200
1269.354, 0.3832220
1269.836, 0.3248680
1270.318, 0.6983780
1270.800, 1.037902
1271.282, 0.8497950
1271.764, 0.4871280
1272.246, 0.5360920
1272.728, 0.7930240
1273.210, 0.9059330
1273.693, 0.9498460
1274.175, 1.189198
1274.657, 1.512058
1275.139, 1.435856
1275.621, 0.8567690
1276.103, 0.2784010
1276.585, 0.6069860
1277.067, 0.8936780
1277.549, 0.8418430
1278.032, 0.7317450
1278.514, 0.3278980
1278.996, 4.9810000E-03
1279.478, 0.1688430
1279.960, 0.5681540
1280.442, 0.7078790
1280.924, 0.5961520
1281.406, 0.5737340
1281.889, 0.6786260
1282.371, 0.5312490
1282.853, 7.0656002E-02
1283.335, 2.8810001E-03
1283.817, 0.5058400
1284.299, 0.8819930
1284.781, 0.6587570
1285.263, 0.2280850
1285.745, 7.1200001E-04
1286.228, 0.0000000E+00
##END=



