##NAMES=Domeykite
##RRUFFID=R070435
##IDEAL CHEMISTRY=Cu_3_As
##LOCALITY=Algodones mines, El Algod√≥n, Huasco Province, Atacama Region,Chile
##OWNER=RRUFF
##SOURCE=Michael Scott
##DESCRIPTION=Grey metallic massive associated with scorodite
##STATUS=The identification of this mineral is not yet confirmed.
##URL=rruff.info/R070435
164.3863, 0.0000000E+00
164.8684, 2.173294
165.3505, 6.502579
165.8327, 11.19841
166.3148, 15.24605
166.7969, 19.13106
167.2790, 21.23907
167.7611, 19.11003
168.2433, 13.28345
168.7254, 8.867050
169.2075, 7.901505
169.6896, 10.18762
170.1717, 15.73036
170.6538, 30.79799
171.1360, 44.47250
171.6181, 46.01958
172.1002, 34.90216
172.5823, 23.09602
173.0644, 20.73351
173.5465, 23.64407
174.0287, 24.30095
174.5108, 16.03304
174.9929, 5.288559
175.4750, 0.7480160
175.9571, 1.174728
176.4392, 0.5907900
176.9214, 2.052078
177.4035, 3.308792
177.8856, 4.427246
178.3677, 6.071472
178.8498, 7.498596
179.3319, 7.095474
179.8141, 3.872437
180.2962, 0.9062960
180.7783, 2.079605
181.2604, 6.897003
181.7425, 13.05711
182.2246, 21.96875
182.7068, 31.09863
183.1889, 34.01038
183.6710, 27.60597
184.1531, 17.20200
184.6352, 10.09488
185.1173, 6.239883
185.5995, 5.993332
186.0816, 13.09837
186.5637, 24.87125
187.0458, 31.14293
187.5279, 27.22391
188.0100, 17.68423
188.4922, 13.22748
188.9743, 14.07227
189.4564, 16.20198
189.9385, 16.00084
190.4206, 12.45833
190.9027, 11.38176
191.3849, 19.71176
191.8670, 34.23346
192.3491, 38.38139
192.8312, 29.58200
193.3133, 17.63281
193.7954, 14.02698
194.2776, 18.65761
194.7597, 25.71628
195.2418, 35.03395
195.7239, 45.79915
196.2060, 51.65912
196.6881, 51.51730
197.1703, 47.22771
197.6524, 45.34061
198.1345, 46.13623
198.6166, 45.52837
199.0987, 40.10995
199.5808, 29.87311
200.0630, 24.87794
200.5451, 26.72089
201.0272, 31.54242
201.5093, 32.03410
201.9914, 27.15863
202.4735, 22.23111
202.9557, 21.19658
203.4378, 24.17059
203.9199, 23.56050
204.4020, 18.36734
204.8841, 10.93401
205.3662, 7.147598
205.8484, 7.809204
206.3305, 9.913773
206.8126, 10.90919
207.2947, 9.277161
207.7768, 9.305588
208.2589, 12.55945
208.7411, 17.64334
209.2232, 19.11394
209.7053, 15.59795
210.1874, 11.76053
210.6695, 10.93045
211.1517, 13.82690
211.6338, 16.81126
212.1159, 19.95491
212.5980, 22.88310
213.0801, 23.29233
213.5622, 20.81628
214.0444, 16.49388
214.5265, 10.23734
215.0086, 0.2012790
215.4907, 5.686829
215.9728, 4.690079
216.4549, 2.453018
216.9371, 5.619308
217.4192, 3.473969
217.9013, 0.7302400
218.3834, 4.269226
218.8655, 7.460587
219.3476, 9.095367
219.8298, 8.636993
220.3119, 6.079468
220.7940, 3.430069
221.2761, 0.8020780
221.7582, 2.055237
222.2403, 5.842346
222.7225, 11.41847
223.2046, 15.58375
223.6867, 16.99974
224.1688, 15.29298
224.6509, 15.61554
225.1330, 19.85637
225.6152, 24.36035
226.0973, 23.97443
226.5794, 16.41705
227.0615, 8.614136
227.5436, 1.857407
228.0257, 4.355743
228.5079, 6.412521
228.9900, 2.068909
229.4721, 4.723022
229.9542, 7.921387
230.4363, 5.195007
230.9184, 3.160843
231.4006, 4.433426
231.8827, 10.53467
232.3648, 13.32510
232.8469, 11.37753
233.3290, 6.968079
233.8111, 3.977737
234.2933, 2.897797
234.7754, 2.465668
235.2575, 2.337341
235.7396, 2.608109
236.2217, 2.912445
236.7038, 3.468002
237.1860, 3.959366
237.6681, 3.574921
238.1502, 1.244843
238.6323, 0.2570800
239.1144, 0.5626680
239.5965, 5.659622
240.0787, 7.564972
240.5608, 4.642227
241.0429, 0.8720400
241.5250, 3.994553
242.0071, 4.028687
242.4892, 2.718735
242.9714, 0.5849300
243.4535, 3.167603
243.9356, 5.916290
244.4177, 7.215179
244.8998, 7.622192
245.3819, 8.887772
245.8641, 12.68636
246.3462, 14.87640
246.8283, 13.05832
247.3104, 4.560211
247.7925, 1.584396
248.2746, 5.055542
248.7568, 6.137314
249.2389, 5.627930
249.7210, 3.533035
250.2031, 0.1498570
250.6852, 6.443451
251.1674, 19.22522
251.6495, 24.56046
252.1316, 17.94530
252.6137, 4.307983
253.0958, 5.4839998E-02
253.5779, 10.49013
254.0601, 22.10616
254.5422, 27.69766
255.0243, 25.12157
255.5064, 21.80075
255.9885, 16.63911
256.4706, 11.16908
256.9528, 11.19583
257.4349, 20.32216
257.9170, 29.00108
258.3991, 31.74419
258.8812, 26.00360
259.3633, 21.33484
259.8455, 18.46790
260.3276, 16.95204
260.8097, 14.94205
261.2918, 11.29132
261.7739, 9.213974
262.2560, 10.63045
262.7382, 16.31900
263.2203, 23.68777
263.7024, 34.29178
264.1845, 46.10951
264.6666, 52.28094
265.1487, 51.66988
265.6309, 47.64803
266.1130, 40.98453
266.5951, 29.59450
267.0772, 22.94212
267.5593, 22.15010
268.0414, 26.31334
268.5236, 33.66095
269.0057, 46.66162
269.4878, 57.05299
269.9699, 58.87961
270.4520, 49.95844
270.9341, 41.91150
271.4163, 34.54494
271.8984, 29.20265
272.3805, 32.25555
272.8626, 47.41182
273.3447, 59.37202
273.8268, 56.07683
274.3090, 34.33177
274.7911, 22.43576
275.2732, 25.36536
275.7553, 37.92896
276.2374, 46.70981
276.7195, 51.30708
277.2017, 54.14502
277.6838, 57.50192
278.1659, 61.87491
278.6480, 61.48950
279.1301, 53.72565
279.6122, 42.89880
280.0944, 40.27975
280.5765, 47.22266
281.0586, 54.81305
281.5407, 57.08093
282.0228, 53.97534
282.5049, 52.44211
282.9871, 53.74391
283.4692, 56.07867
283.9513, 55.24910
284.4334, 51.01802
284.9155, 46.39375
285.3976, 43.23360
285.8798, 41.10559
286.3619, 38.25177
286.8440, 34.16695
287.3261, 30.80144
287.8082, 32.85039
288.2903, 40.36818
288.7725, 47.41878
289.2546, 49.72763
289.7367, 48.16800
290.2188, 48.24628
290.7009, 50.97089
291.1830, 54.22052
291.6652, 53.52385
292.1473, 49.22511
292.6294, 46.21294
293.1115, 48.64818
293.5936, 54.79173
294.0757, 58.44621
294.5579, 58.78482
295.0400, 57.60489
295.5221, 57.44229
296.0042, 58.06714
296.4863, 58.07944
296.9684, 54.88097
297.4506, 50.75716
297.9327, 52.19304
298.4148, 60.60367
298.8969, 70.20200
299.3790, 73.92871
299.8611, 73.03006
300.3433, 71.06308
300.8254, 68.71297
301.3075, 66.73465
301.7896, 66.83861
302.2717, 69.38397
302.7538, 72.27075
303.2360, 73.53809
303.7181, 73.53571
304.2002, 73.12177
304.6823, 71.85931
305.1644, 70.78604
305.6465, 71.58319
306.1287, 74.43671
306.6108, 76.85632
307.0929, 75.47269
307.5750, 72.43028
308.0571, 71.53012
308.5392, 76.46013
309.0214, 82.64816
309.5035, 86.69028
309.9856, 88.42987
310.4677, 87.76007
310.9498, 81.50366
311.4319, 73.50397
311.9141, 68.96732
312.3962, 73.48758
312.8783, 79.30437
313.3604, 80.72658
313.8426, 77.85968
314.3247, 75.92773
314.8068, 78.66577
315.2889, 83.43185
315.7710, 87.46896
316.2531, 89.86334
316.7353, 91.40973
317.2174, 92.52258
317.6995, 93.16644
318.1816, 92.94412
318.6637, 91.10571
319.1458, 88.63800
319.6280, 86.33359
320.1101, 80.80414
320.5922, 79.11700
321.0743, 87.27550
321.5564, 102.8398
322.0385, 112.1795
322.5207, 106.1331
323.0028, 96.30563
323.4849, 89.90955
323.9670, 89.52666
324.4491, 90.82086
324.9312, 95.61447
325.4134, 102.2475
325.8955, 104.4739
326.3776, 95.78702
326.8597, 87.32010
327.3418, 84.06105
327.8239, 90.10498
328.3061, 95.82091
328.7882, 103.2865
329.2703, 110.6103
329.7524, 112.5676
330.2345, 101.7879
330.7166, 92.45975
331.1988, 90.12308
331.6809, 99.67130
332.1630, 105.4853
332.6451, 105.9886
333.1272, 103.3183
333.6093, 100.8151
334.0915, 87.33885
334.5736, 97.11670
335.0557, 102.6090
335.5378, 104.0461
336.0199, 89.26886
336.5020, 95.43698
336.9842, 93.21472
337.4663, 90.65230
337.9484, 99.77980
338.4305, 87.38123
338.9126, 96.33066
339.3947, 96.76089
339.8769, 92.27646
340.3590, 93.62106
340.8411, 94.73151
341.3232, 88.68195
341.8053, 73.88455
342.2874, 64.90549
342.7696, 67.35297
343.2517, 78.77942
343.7338, 86.21027
344.2159, 89.44019
344.6980, 90.36925
345.1801, 90.95819
345.6623, 91.07668
346.1444, 88.51096
346.6265, 81.83444
347.1086, 73.08517
347.5907, 67.24635
348.0728, 64.40181
348.5550, 61.47945
349.0371, 54.57884
349.5192, 45.57669
350.0013, 41.03134
350.4834, 43.38141
350.9655, 48.07227
351.4477, 48.59088
351.9298, 45.54791
352.4119, 41.89917
352.8940, 38.31085
353.3761, 35.57149
353.8582, 35.39787
354.3404, 38.43874
354.8225, 42.34354
355.3046, 45.36130
355.7867, 47.53720
356.2688, 48.97955
356.7509, 50.43513
357.2331, 50.78285
357.7152, 48.48839
358.1973, 43.20703
358.6794, 37.69048
359.1615, 31.52934
359.6436, 26.71024
360.1258, 26.01262
360.6079, 35.34666
361.0900, 45.10445
361.5721, 50.01741
362.0542, 49.96552
362.5363, 48.68269
363.0185, 47.69356
363.5006, 46.15131
363.9827, 43.32152
364.4648, 37.93088
364.9469, 32.33472
365.4290, 25.04167
365.9112, 17.04173
366.3933, 14.66022
366.8754, 26.08600
367.3575, 38.80658
367.8396, 45.62036
368.3217, 40.27681
368.8039, 36.01485
369.2860, 35.32867
369.7681, 36.43893
370.2502, 33.88077
370.7323, 23.15195
371.2144, 13.22867
371.6966, 7.593048
372.1787, 7.579437
372.6608, 8.729675
373.1429, 12.65459
373.6250, 16.75630
374.1071, 16.90466
374.5893, 9.211533
375.0714, 5.615601
375.5535, 12.29123
376.0356, 30.48402
376.5177, 38.10597
376.9998, 31.10323
377.4820, 20.35150
377.9641, 20.60619
378.4462, 34.48497
378.9283, 41.51314
379.4104, 33.92589
379.8925, 15.61165
380.3747, 4.967117
380.8568, 2.585236
381.3389, 3.627594
381.8210, 5.645523
382.3031, 8.200470
382.7852, 7.217484
383.2674, 0.6405790
383.7495, 7.998291
384.2316, 11.82130
384.7137, 11.19696
385.1958, 9.023270
385.6779, 5.294250
386.1601, 1.580841
386.6422, 2.434433
387.1243, 9.787521
387.6064, 16.72484
388.0885, 15.72313
388.5706, 8.533203
389.0528, 0.3105160
389.5349, 11.34683
390.0170, 21.31702
390.4991, 26.75136
390.9812, 27.31305
391.4633, 26.45213
391.9455, 24.14749
392.4276, 21.49806
392.9097, 20.84428
393.3918, 26.53870
393.8739, 31.11330
394.3561, 29.49684
394.8382, 22.93733
395.3203, 19.04225
395.8024, 21.49672
396.2845, 25.80862
396.7667, 29.89368
397.2488, 34.42596
397.7309, 37.50139
398.2130, 39.35794
398.6951, 39.58699
399.1772, 36.88635
399.6594, 24.87311
400.1415, 15.35594
400.6236, 13.27457
401.1057, 23.06361
401.5878, 29.84958
402.0699, 33.51796
402.5521, 34.24017
403.0342, 31.64783
403.5163, 22.38075
403.9984, 15.85767
404.4805, 15.26019
404.9626, 20.71124
405.4448, 24.63347
405.9269, 26.76921
406.4090, 27.90198
406.8911, 28.50157
407.3732, 28.41711
407.8553, 28.52914
408.3375, 29.43449
408.8196, 30.37724
409.3017, 28.21280
409.7838, 22.52907
410.2659, 17.50864
410.7480, 16.58180
411.2302, 19.01813
411.7123, 21.05960
412.1944, 21.86778
412.6765, 23.06078
413.1586, 29.12273
413.6407, 38.35707
414.1229, 43.23734
414.6050, 36.20312
415.0871, 23.92218
415.5692, 16.13042
416.0513, 13.14587
416.5334, 13.28557
417.0156, 18.59009
417.4977, 25.54921
417.9798, 28.80692
418.4619, 19.92006
418.9440, 11.60112
419.4261, 14.46043
419.9083, 26.43919
420.3904, 35.07594
420.8725, 31.71558
421.3546, 24.79463
421.8367, 20.21729
422.3188, 19.65636
422.8010, 20.44029
423.2831, 24.05630
423.7652, 28.44527
424.2473, 29.28059
424.7294, 20.62456
425.2115, 13.23694
425.6937, 11.42061
426.1758, 17.48491
426.6579, 20.12257
427.1400, 15.31203
427.6221, 9.798630
428.1042, 11.49950
428.5864, 27.77573
429.0685, 35.88496
429.5506, 27.62856
430.0327, 6.479340
430.5148, 0.4778590
430.9969, 11.52000
431.4791, 26.50572
431.9612, 32.30821
432.4433, 28.17189
432.9254, 28.96858
433.4075, 38.18074
433.8896, 49.43321
434.3718, 49.93497
434.8539, 39.93327
435.3360, 28.13300
435.8181, 16.00771
436.3002, 5.554001
436.7823, 4.381073
437.2645, 13.38063
437.7466, 23.56804
438.2287, 24.86292
438.7108, 20.71474
439.1929, 18.92360
439.6750, 25.58968
440.1572, 32.34506
440.6393, 29.05228
441.1214, 17.74843
441.6035, 7.976471
442.0856, 7.214645
442.5677, 9.889175
443.0499, 11.02635
443.5320, 8.871628
444.0141, 7.378067
444.4962, 9.042908
444.9783, 11.67526
445.4604, 12.15282
445.9426, 8.090393
446.4247, 4.536285
446.9068, 3.470642
447.3889, 5.142487
447.8710, 5.237152
448.3531, 0.3897550
448.8353, 4.282898
449.3174, 4.777283
449.7995, 2.999420
450.2816, 8.121094
450.7637, 9.255341
451.2458, 6.965881
451.7280, 2.530823
452.2101, 6.057205
452.6922, 11.99225
453.1743, 10.28392
453.6564, 0.1651460
454.1385, 6.393066
454.6207, 7.487885
455.1028, 6.097321
455.5849, 5.656570
456.0670, 6.118378
456.5491, 6.656998
457.0313, 7.047729
457.5134, 7.292160
457.9955, 6.537033
458.4776, 4.876907
458.9597, 5.233582
459.4418, 12.93207
459.9240, 23.70282
460.4061, 29.39316
460.8882, 27.24594
461.3703, 23.61096
461.8524, 25.80222
462.3345, 30.82584
462.8167, 31.57721
463.2988, 16.61417
463.7809, 2.430878
464.2630, 2.288635
464.7451, 18.76961
465.2272, 30.17665
465.7094, 22.64758
466.1915, 9.714493
466.6736, 3.458862
467.1557, 16.20186
467.6378, 24.37450
468.1199, 20.35571
468.6021, 7.718475
469.0842, 2.960464
469.5663, 13.13184
470.0484, 22.91537
470.5305, 25.03900
471.0126, 15.60266
471.4948, 12.15436
471.9769, 17.30263
472.4590, 25.16391
472.9411, 27.65567
473.4232, 24.28595
473.9053, 18.62485
474.3875, 10.30295
474.8696, 0.7344820
475.3517, 3.976486
475.8338, 3.730347
476.3159, 1.246323
476.7981, 1.930923
477.2802, 5.944626
477.7623, 11.36177
478.2444, 18.59785
478.7265, 23.56372
479.2086, 20.54276
479.6908, 12.64568
480.1729, 7.613220
480.6550, 11.16490
481.1371, 17.80759
481.6192, 24.20287
482.1013, 30.14587
482.5835, 33.18626
483.0656, 30.48799
483.5477, 25.17732
484.0298, 19.70314
484.5119, 12.21809
484.9940, 7.834366
485.4762, 9.447281
485.9583, 14.99913
486.4404, 19.18982
486.9225, 22.22443
487.4046, 23.05093
487.8867, 20.02042
488.3689, 11.26955
488.8510, 9.517059
489.3331, 19.25519
489.8152, 30.06026
490.2973, 30.07892
490.7794, 15.55893
491.2616, 6.760132
491.7437, 8.281586
492.2258, 16.38898
492.7079, 21.72906
493.1900, 24.26758
493.6721, 23.89430
494.1543, 17.62238
494.6364, 8.100647
495.1185, 5.386917
495.6006, 10.46898
496.0827, 17.74721
496.5648, 23.84958
497.0470, 27.83910
497.5291, 27.30600
498.0112, 16.64566
498.4933, 6.125290
498.9754, 5.664474
499.4576, 13.10283
499.9397, 20.31902
500.4218, 24.95383
500.9039, 27.10376
501.3860, 25.96162
501.8681, 19.62030
502.3503, 15.99106
502.8324, 21.42734
503.3145, 28.83429
503.7966, 29.64722
504.2787, 14.06297
504.7608, 3.305817
505.2430, 1.234283
505.7251, 6.787216
506.2072, 13.16151
506.6893, 21.23833
507.1714, 28.17223
507.6535, 33.19472
508.1357, 36.08711
508.6178, 34.56122
509.0999, 27.44731
509.5820, 18.44150
510.0641, 11.11212
510.5462, 5.673355
511.0284, 4.193970
511.5105, 8.578186
511.9926, 16.56163
512.4747, 27.93126
512.9568, 41.65402
513.4389, 49.10867
513.9210, 38.31042
514.4031, 20.23309
514.8853, 9.151291
515.3674, 8.374985
515.8495, 9.079407
516.3316, 4.189789
516.8137, 2.283234
517.2958, 4.946930
517.7780, 3.244324
518.2601, 10.17732
518.7422, 10.48108
519.2244, 4.911041
519.7065, 1.560074
520.1886, 1.930984
520.6707, 4.186768
521.1528, 8.259827
521.6349, 16.05135
522.1171, 20.49062
522.5992, 20.71820
523.0813, 18.50360
523.5634, 15.70558
524.0455, 11.86678
524.5276, 10.03455
525.0098, 11.87117
525.4919, 15.96667
525.9740, 17.23885
526.4561, 15.60486
526.9382, 14.41617
527.4203, 18.27272
527.9025, 24.12715
528.3846, 23.51236
528.8667, 14.68370
529.3488, 5.739807
529.8309, 4.785339
530.3130, 8.813248
530.7952, 12.95549
531.2773, 15.06401
531.7594, 17.00598
532.2415, 21.57892
532.7236, 27.31973
533.2057, 28.10492
533.6879, 17.79469
534.1700, 6.186432
534.6521, 2.725800
535.1342, 10.02422
535.6163, 10.50119
536.0984, 1.915939
536.5806, 17.33545
537.0627, 24.69733
537.5448, 19.96153
538.0269, 17.12654
538.5090, 18.75168
538.9911, 23.58592
539.4733, 28.44225
539.9554, 33.74785
540.4375, 36.23280
540.9196, 32.01326
541.4017, 22.83617
541.8839, 18.44827
542.3660, 19.34180
542.8481, 21.99281
543.3302, 24.43604
543.8123, 26.06970
544.2944, 25.29527
544.7766, 19.63347
545.2587, 14.86290
545.7408, 17.14294
546.2229, 23.97972
546.7050, 29.24274
547.1871, 29.48070
547.6693, 28.39940
548.1514, 28.05577
548.6335, 28.82239
549.1156, 27.93741
549.5977, 21.54419
550.0798, 15.11681
550.5620, 12.80180
551.0441, 16.89764
551.5262, 20.68401
552.0083, 24.26320
552.4904, 27.26527
552.9725, 29.42458
553.4547, 31.21159
553.9368, 29.74854
554.4189, 22.21889
554.9010, 10.95042
555.3831, 5.345139
555.8652, 5.460892
556.3474, 8.255295
556.8295, 13.44438
557.3116, 19.35663
557.7937, 21.43927
558.2758, 18.06326
558.7579, 15.83424
559.2401, 22.52327
559.7222, 33.22589
560.2043, 39.92918
560.6864, 36.17456
561.1685, 31.12604
561.6506, 29.32664
562.1328, 29.96423
562.6149, 28.27989
563.0970, 19.37640
563.5791, 11.74353
564.0612, 9.013870
564.5433, 12.74580
565.0255, 15.19632
565.5076, 15.23354
565.9897, 15.29915
566.4718, 18.75150
566.9539, 26.57681
567.4360, 31.24451
567.9182, 31.06128
568.4003, 27.60971
568.8824, 23.90770
569.3645, 19.99236
569.8466, 15.52434
570.3287, 8.303146
570.8109, 1.239120
571.2930, 0.3535310
571.7751, 5.476517
572.2572, 11.34683
572.7393, 12.98036
573.2214, 0.8079380
573.7036, 17.83856
574.1857, 28.30795
574.6678, 30.83409
575.1499, 2.378067
575.6320, 14.09991
576.1141, 9.910004
576.5963, 5.065765
577.0784, 22.40280
577.5605, 1.209122
578.0426, 15.73996
578.5247, 16.52646
579.0068, 24.74431
579.4890, 16.92136
579.9711, 14.05408
580.4532, 27.23633
580.9353, 31.53120
581.4174, 21.86003
581.8995, 30.55138
582.3817, 6.433945
582.8638, 11.10605
583.3459, 28.19942
583.8280, 19.33331
584.3101, 28.31641
584.7922, 30.50127
585.2744, 1.791611
585.7565, 26.80972
586.2386, 28.59180
586.7207, 6.515564
587.2028, 29.67805
587.6849, 10.87144
588.1671, 7.061066
588.6492, 14.52338
589.1313, 10.23450
589.6134, 24.47198
590.0955, 20.86102
590.5776, 15.65584
591.0598, 9.932877
591.5419, 3.508011
592.0240, 0.5297850
592.5061, 2.898834
592.9882, 7.2678000E-02
593.4703, 12.44115
593.9525, 29.07201
594.4346, 32.29466
594.9167, 23.46481
595.3988, 15.87045
595.8809, 23.28334
596.3630, 35.53157
596.8452, 33.49893
597.3273, 16.78995
597.8094, 1.139664
598.2915, 1.917236
598.7736, 0.7615200
599.2557, 2.620148
599.7379, 1.639618
600.2200, 0.9750210
600.7021, 0.5554960
601.1842, 0.6972500
601.6663, 4.486404
602.1484, 24.03900
602.6306, 36.31339
603.1127, 34.83336
603.5948, 22.90009
604.0769, 18.24031
604.5590, 23.65462
605.0411, 27.18994
605.5233, 20.06464
606.0054, 4.040329
606.4875, 4.143478
606.9696, 3.918732
607.4517, 0.8829350
607.9338, 0.7614440
608.4160, 1.649506
608.8981, 0.9479370
609.3802, 9.536560
609.8623, 17.59489
610.3444, 19.95804
610.8265, 18.54506
611.3087, 16.62512
611.7908, 11.97633
612.2729, 10.42116
612.7550, 17.59245
613.2371, 31.44568
613.7192, 37.04988
614.2014, 29.32475
614.6835, 18.99727
615.1656, 9.009201
615.6477, 1.259735
616.1298, 4.340744
616.6119, 1.473129
617.0941, 10.14847
617.5762, 16.87616
618.0583, 21.72948
618.5404, 24.50684
619.0225, 24.73599
619.5046, 24.25642
619.9868, 25.88525
620.4689, 28.62990
620.9510, 30.13603
621.4331, 28.47894
621.9152, 26.05847
622.3973, 24.99449
622.8795, 24.66341
623.3616, 22.47044
623.8437, 14.36395
624.3258, 6.993225
624.8079, 4.314392
625.2900, 5.625092
625.7722, 7.359314
626.2543, 9.431000
626.7364, 12.10654
627.2185, 16.43051
627.7006, 23.28792
628.1827, 25.29329
628.6649, 20.76006
629.1470, 14.31995
629.6291, 14.16397
630.1112, 19.20706
630.5933, 24.21196
631.0754, 28.11850
631.5576, 30.37242
632.0397, 28.55753
632.5218, 23.93011
633.0039, 20.42328
633.4860, 19.49500
633.9681, 20.78316
634.4503, 25.35663
634.9324, 32.91092
635.4145, 38.72278
635.8966, 42.92860
636.3787, 44.40665
636.8608, 41.98418
637.3430, 32.72008
637.8251, 28.11501
638.3072, 29.93506
638.7893, 33.79309
639.2714, 34.47670
639.7535, 31.95383
640.2357, 28.23550
640.7178, 22.84441
641.1999, 18.03879
641.6820, 18.64148
642.1641, 23.18208
642.6462, 26.40427
643.1284, 23.34521
643.6105, 19.76672
644.0926, 20.55954
644.5747, 25.28806
645.0568, 30.87386
645.5389, 40.80704
646.0211, 47.49734
646.5032, 46.08476
646.9853, 33.45210
647.4674, 22.44745
647.9495, 12.01634
648.4316, 4.422638
648.9138, 1.832825
649.3959, 4.908844
649.8780, 10.14200
650.3601, 18.80698
650.8422, 25.97821
651.3243, 18.31689
651.8065, 3.2745000E-02
652.2886, 6.606598
652.7707, 14.38310
653.2528, 39.93144
653.7349, 41.26402
654.2170, 25.09982
654.6992, 11.07863
655.1813, 10.06848
655.6634, 12.30142
656.1455, 13.05148
656.6276, 12.26208
657.1097, 11.50543
657.5919, 10.27588
658.0740, 9.805862
658.5561, 11.20558
659.0382, 15.62955
659.5203, 16.28191
660.0024, 11.68552
660.4846, 6.695816
660.9667, 6.654205
661.4488, 11.13763
661.9309, 17.17659
662.4130, 25.41801
662.8951, 31.65584
663.3773, 27.11934
663.8594, 16.73268
664.3415, 10.72920
664.8236, 19.93109
665.3057, 29.23906
665.7878, 27.36201
666.2700, 18.02034
666.7521, 14.20787
667.2342, 26.74490
667.7163, 37.29507
668.1984, 39.51793
668.6805, 33.43793
669.1627, 26.95659
669.6448, 18.43712
670.1269, 13.04857
670.6090, 16.70404
671.0911, 28.66106
671.5732, 32.77634
672.0554, 27.96365
672.5375, 20.03159
673.0196, 11.55234
673.5017, 4.641159
673.9838, 4.074005
674.4659, 13.49503
674.9481, 24.07822
675.4302, 32.84334
675.9123, 38.60269
676.3944, 39.78358
676.8765, 31.70012
677.3586, 23.87930
677.8408, 18.03563
678.3229, 13.78241
678.8050, 9.894196
679.2871, 5.486649
679.7692, 3.983154
680.2513, 8.673965
680.7335, 17.19122
681.2156, 14.12344
681.6977, 0.8060150
682.1799, 11.37819
682.6620, 0.8176270
683.1441, 19.20583
683.6262, 30.10991
684.1083, 30.57961
684.5905, 25.93617
685.0726, 13.70499
685.5547, 1.292130
686.0368, 4.402374
686.5189, 0.7646480
687.0010, 6.589737
687.4832, 13.25630
687.9653, 18.43114
688.4474, 18.99634
688.9295, 13.13440
689.4116, 9.528946
689.8937, 10.21138
690.3759, 12.37245
690.8580, 9.104645
691.3401, 1.126266
691.8222, 3.021530
692.3043, 1.455139
692.7864, 9.757339
693.2686, 16.95433
693.7507, 22.54581
694.2328, 24.62408
694.7149, 18.25226
695.1970, 11.61290
695.6791, 10.05713
696.1613, 13.59302
696.6434, 16.41885
697.1255, 16.09006
697.6076, 17.27151
698.0897, 23.70010
698.5718, 37.35452
699.0540, 40.46616
699.5361, 30.12355
700.0182, 18.06978
700.5003, 16.48647
700.9824, 23.07782
701.4645, 26.83110
701.9467, 26.23224
702.4288, 23.35281
702.9109, 17.79742
703.3930, 11.95990
703.8751, 9.505188
704.3572, 13.06822
704.8394, 17.90524
705.3215, 24.78148
705.8036, 31.30678
706.2857, 32.64754
706.7678, 24.70418
707.2499, 17.92252
707.7321, 13.95029
708.2142, 12.38312
708.6963, 12.31119
709.1784, 13.90457
709.6605, 15.27061
710.1426, 14.61327
710.6248, 13.78920
711.1069, 16.31210
711.5890, 21.40236
712.0711, 23.59669
712.5532, 15.00697
713.0353, 5.040939
713.5175, 2.150208
713.9996, 7.268158
714.4817, 12.55063
714.9638, 16.14899
715.4459, 18.99371
715.9280, 21.81044
716.4102, 24.99478
716.8923, 26.78857
717.3744, 26.99902
717.8565, 26.20836
718.3386, 24.82222
718.8207, 22.92789
719.3029, 21.06601
719.7850, 19.34407
720.2671, 17.71269
720.7492, 16.14134
721.2313, 14.55875
721.7134, 12.71622
722.1956, 9.318665
722.6777, 7.463394
723.1598, 10.55586
723.6419, 16.13669
724.1240, 19.40012
724.6061, 19.64323
725.0883, 17.44759
725.5704, 11.33766
726.0525, 3.223663
726.5346, 1.1948000E-02
727.0167, 2.322861
727.4988, 4.663696
727.9810, 3.894302
728.4631, 1.960129
728.9452, 4.908615
729.4273, 11.79543
729.9094, 16.55170
730.3915, 13.10489
730.8737, 7.682922
731.3558, 5.368484
731.8379, 6.511383
732.3200, 7.442810
732.8021, 5.899277
733.2842, 4.978806
733.7664, 6.488251
734.2485, 11.13824
734.7306, 14.60176
735.2127, 16.63193
735.6948, 18.05695
736.1769, 19.76936
736.6591, 21.61005
737.1412, 21.74200
737.6233, 19.60365
738.1054, 18.64116
738.5875, 25.65938
739.0696, 34.84697
739.5518, 36.92584
740.0339, 24.21906
740.5160, 15.03021
740.9981, 19.38033
741.4802, 28.79793
741.9623, 31.38593
742.4445, 23.00330
742.9266, 14.55475
743.4087, 6.423462
743.8908, 0.8554230
744.3729, 5.520355
744.8550, 7.788727
745.3372, 6.790283
745.8193, 0.7732390
746.3014, 6.560593
746.7835, 8.959534
747.2656, 7.826248
747.7477, 7.408966
748.2299, 11.40227
748.7120, 15.12596
749.1941, 15.48253
749.6762, 12.90950
750.1583, 11.53027
750.6404, 13.46507
751.1226, 13.98349
751.6047, 11.06299
752.0868, 5.150024
752.5689, 0.2768550
753.0510, 3.823456
753.5331, 4.772705
754.0153, 1.916672
754.4974, 12.22202
754.9795, 15.75349
755.4616, 12.45229
755.9437, 9.653290
756.4258, 14.24173
756.9080, 19.92778
757.3901, 21.41544
757.8722, 17.41550
758.3543, 13.52879
758.8364, 9.614471
759.3185, 6.988190
759.8007, 6.823517
760.2828, 9.985764
760.7649, 11.25943
761.2470, 9.933899
761.7291, 9.136215
762.2112, 14.42539
762.6934, 23.05400
763.1755, 24.93950
763.6576, 17.18192
764.1397, 9.545151
764.6218, 11.95079
765.1039, 17.92819
765.5861, 19.54085
766.0682, 9.560638
766.5503, 3.817078
767.0324, 9.397461
767.5145, 18.01762
767.9966, 19.19560
768.4788, 9.810516
768.9609, 5.588577
769.4430, 9.779373
769.9251, 18.19373
770.4072, 26.45692
770.8893, 33.48759
771.3715, 34.01779
771.8536, 22.69325
772.3357, 9.673187
772.8178, 2.923187
773.2999, 1.039276
773.7820, 0.7494050
774.2642, 3.356995
774.7463, 4.753098
775.2284, 2.827789
775.7105, 0.8009950
776.1926, 2.077637
776.6747, 1.002182
777.1569, 2.972031
777.6390, 12.36525
778.1211, 22.90108
778.6032, 20.48680
779.0853, 7.570816
779.5674, 2.002823
780.0496, 3.390854
780.5317, 12.01564
781.0138, 12.52589
781.4959, 6.875168
781.9780, 5.302246
782.4601, 17.94722
782.9423, 27.79898
783.4244, 27.45053
783.9065, 18.11258
784.3886, 14.60086
784.8707, 18.69360
785.3528, 22.17796
785.8350, 19.20485
786.3171, 12.25601
786.7992, 9.989487
787.2813, 12.18806
787.7634, 15.98853
788.2455, 22.48682
788.7277, 27.66841
789.2098, 26.82721
789.6919, 19.52391
790.1740, 13.94839
790.6561, 11.77818
791.1382, 12.18617
791.6204, 15.62387
792.1025, 22.50916
792.5846, 26.58736
793.0667, 27.33359
793.5488, 27.42419
794.0309, 29.53731
794.5131, 32.56839
794.9952, 33.73831
795.4773, 32.87813
795.9594, 29.97565
796.4415, 21.79707
796.9236, 13.65030
797.4058, 10.12633
797.8879, 12.31577
798.3700, 17.77867
798.8521, 32.73752
799.3342, 43.93117
799.8163, 39.16501
800.2985, 14.91896
800.7806, 3.335327
801.2627, 6.568207
801.7448, 14.69934
802.2269, 18.28178
802.7090, 19.11388
803.1912, 20.59286
803.6733, 23.55045
804.1554, 26.88470
804.6375, 31.11534
805.1196, 34.83109
805.6017, 36.89601
806.0839, 38.19452
806.5660, 34.96832
807.0481, 23.66972
807.5302, 12.26711
808.0123, 9.950684
808.4944, 16.72536
808.9766, 21.46083
809.4587, 23.03177
809.9408, 22.13280
810.4229, 18.51445
810.9050, 13.04318
811.3871, 7.183105
811.8693, 0.6903080
812.3514, 3.133545
812.8335, 1.102921
813.3156, 3.912338
813.7977, 8.896912
814.2798, 15.56067
814.7620, 17.62733
815.2441, 13.10500
815.7262, 6.968155
816.2083, 5.923721
816.6904, 9.278885
817.1725, 13.01764
817.6547, 16.74760
818.1368, 19.14574
818.6189, 18.49040
819.1010, 15.91388
819.5831, 12.72749
820.0652, 7.478226
820.5474, 5.512360
821.0295, 11.27278
821.5116, 18.82925
821.9937, 21.02554
822.4758, 16.56161
822.9579, 12.22183
823.4401, 8.517319
823.9222, 5.931946
824.4043, 4.368042
824.8864, 4.528732
825.3685, 9.643997
825.8506, 24.08563
826.3328, 34.54083
826.8149, 28.31650
827.2970, 14.17145
827.7791, 3.349762
828.2612, 0.7792820
828.7433, 3.304352
829.2255, 4.766724
829.7076, 4.332458
830.1897, 0.6635440
830.6718, 10.16910
831.1539, 14.94403
831.6360, 11.92273
832.1182, 8.162369
832.6003, 15.51126
833.0824, 27.16896
833.5645, 31.24440
834.0466, 19.02989
834.5287, 8.010651
835.0109, 4.359589
835.4930, 5.139618
835.9751, 6.031418
836.4572, 6.070877
836.9393, 9.868332
837.4214, 19.94467
837.9036, 29.47388
838.3857, 24.92775
838.8678, 10.28754
839.3499, 2.167801
839.8320, 6.229538
840.3141, 12.27705
840.7963, 11.74014
841.2784, 8.509537
841.7605, 7.434097
842.2426, 12.79803
842.7247, 15.75525
843.2068, 14.87721
843.6890, 12.24998
844.1711, 9.547531
844.6532, 6.468765
845.1353, 10.86566
845.6174, 26.07642
846.0995, 39.80174
846.5817, 32.01413
847.0638, 13.80801
847.5460, 5.531235
848.0281, 16.04042
848.5102, 26.57181
848.9923, 29.84064
849.4744, 29.16034
849.9565, 28.22948
850.4387, 27.99780
850.9208, 24.26117
851.4029, 14.48160
851.8850, 6.607986
852.3671, 15.55635
852.8492, 35.14948
853.3314, 39.38603
853.8135, 21.34386
854.2956, 3.560745
854.7777, 7.097061
855.2598, 18.21643
855.7419, 22.25424
856.2241, 10.87959
856.7062, 5.458466
857.1883, 10.08908
857.6704, 17.47173
858.1525, 21.72418
858.6346, 22.79749
859.1168, 22.76343
859.5989, 21.76848
860.0810, 19.54962
860.5631, 13.44582
861.0452, 7.041458
861.5273, 6.495224
862.0095, 14.02563
862.4916, 19.14445
862.9737, 14.27057
863.4558, 8.424026
863.9379, 8.129471
864.4200, 15.09276
864.9022, 18.74323
865.3843, 18.45480
865.8664, 17.31996
866.3485, 18.82030
866.8306, 21.51529
867.3127, 21.04329
867.7949, 17.10262
868.2770, 11.98285
868.7591, 2.726669
869.2412, 3.987839
869.7233, 1.524307
870.2054, 12.92851
870.6876, 19.68236
871.1697, 14.52278
871.6518, 9.547394
872.1339, 13.22349
872.6160, 23.66670
873.0981, 26.34691
873.5803, 21.66536
874.0624, 17.75298
874.5445, 23.19066
875.0266, 29.65828
875.5087, 29.82469
875.9908, 23.62746
876.4730, 15.40706
876.9551, 0.2021030
877.4372, 10.26044
877.9193, 8.919205
878.4014, 1.807877
878.8835, 9.616776
879.3657, 14.76753
879.8478, 17.91972
880.3299, 16.18134
880.8120, 13.15411
881.2941, 15.59985
881.7762, 21.78046
882.2584, 25.70822
882.7405, 22.47318
883.2226, 19.29875
883.7047, 20.21841
884.1868, 22.95883
884.6689, 18.86717
885.1511, 5.133789
885.6332, 0.1267850
886.1153, 13.72383
886.5974, 32.74275
887.0795, 31.14461
887.5616, 15.51152
888.0438, 3.654663
888.5259, 2.127533
889.0080, 6.718826
889.4901, 24.08302
889.9722, 44.17476
890.4543, 46.60565
890.9365, 20.50500
891.4186, 4.843979
891.9007, 7.510910
892.3828, 17.56221
892.8649, 16.33623
893.3470, 7.532028
893.8292, 5.343643
894.3113, 16.22176
894.7934, 25.63533
895.2755, 19.72646
895.7576, 8.257431
896.2397, 2.351852
896.7219, 7.660828
897.2040, 12.08200
897.6861, 15.60504
898.1682, 18.25278
898.6503, 20.89767
899.1324, 23.02377
899.6146, 18.99683
900.0967, 7.566757
900.5788, 1.353882
901.0609, 2.420868
901.5430, 11.24236
902.0251, 18.68243
902.5073, 24.29166
902.9894, 25.24284
903.4715, 17.38509
903.9536, 10.33401
904.4357, 10.75426
904.9178, 18.09930
905.4000, 19.62669
905.8821, 15.28513
906.3642, 10.17311
906.8463, 7.750031
907.3284, 6.482010
907.8105, 3.864334
908.2927, 0.2745820
908.7748, 0.2564700
909.2569, 6.121185
909.7390, 12.82188
910.2211, 17.42542
910.7032, 20.65118
911.1854, 27.61177
911.6675, 38.48570
912.1496, 45.36726
912.6317, 41.96793
913.1138, 35.55891
913.5959, 37.08244
914.0781, 42.99707
914.5602, 44.71805
915.0423, 32.70473
915.5244, 23.84732
916.0065, 23.19492
916.4886, 27.57094
916.9708, 32.40628
917.4529, 38.05670
917.9350, 40.26376
918.4171, 37.98740
918.8992, 32.45490
919.3813, 21.65297
919.8635, 9.780212
920.3456, 4.755951
920.8277, 13.05132
921.3098, 18.83618
921.7919, 15.22089
922.2740, 8.555893
922.7562, 3.991241
923.2383, 1.708252
923.7204, 0.5115050
924.2025, 3.559998
924.6846, 1.883209
925.1667, 17.38599
925.6489, 41.90329
926.1310, 49.60681
926.6131, 37.58307
927.0952, 25.77625
927.5773, 23.09378
928.0594, 23.13754
928.5416, 22.86943
929.0237, 22.26689
929.5058, 19.50529
929.9879, 14.18494
930.4700, 9.425323
930.9521, 5.800476
931.4343, 4.598770
931.9164, 11.32741
932.3985, 23.18440
932.8806, 29.62109
933.3627, 19.94440
933.8448, 10.83917
934.3270, 10.15053
934.8091, 14.54979
935.2912, 14.77003
935.7733, 11.22888
936.2554, 5.720840
936.7375, 4.024765
937.2197, 11.84856
937.7018, 5.802170
938.1839, 8.523605
938.6660, 20.05019
939.1481, 25.18144
939.6302, 27.07610
940.1124, 26.88309
940.5945, 25.66542
941.0766, 23.81804
941.5587, 20.91393
942.0408, 20.10271
942.5229, 22.01491
943.0051, 23.54065
943.4872, 20.42392
943.9693, 15.40471
944.4514, 12.96954
944.9335, 13.77129
945.4156, 14.32858
945.8978, 11.24069
946.3799, 9.592514
946.8620, 12.45224
947.3441, 19.61058
947.8262, 25.05214
948.3083, 28.79091
948.7905, 31.12509
949.2726, 32.96687
949.7547, 33.04945
950.2368, 27.50319
950.7189, 18.36163
951.2010, 12.27469
951.6832, 14.27336
952.1653, 16.61307
952.6474, 16.01428
953.1295, 15.00301
953.6116, 21.18825
954.0938, 35.11671
954.5759, 40.49948
955.0580, 31.32974
955.5401, 19.30304
956.0222, 20.20152
956.5043, 26.60895
956.9865, 26.67197
957.4686, 11.37988
957.9507, 3.706207
958.4328, 12.76418
958.9149, 24.48415
959.3970, 27.03616
959.8792, 20.19827
960.3613, 16.04120
960.8434, 14.92784
961.3255, 14.33699
961.8076, 10.32294
962.2897, 7.179764
962.7719, 11.21837
963.2540, 22.20714
963.7361, 27.70731
964.2182, 21.86528
964.7003, 14.99825
965.1824, 9.226624
965.6646, 5.398071
966.1467, 8.634338
966.6288, 17.89973
967.1109, 25.42297
967.5930, 28.29063
968.0751, 27.43309
968.5573, 20.93074
969.0394, 11.94078
969.5215, 6.016251
970.0036, 5.223297
970.4857, 5.487732
970.9678, 6.494385
971.4500, 8.605942
971.9321, 14.28568
972.4142, 21.70320
972.8963, 22.06715
973.3784, 13.62799
973.8605, 5.938126
974.3427, 5.387650
974.8248, 8.517136
975.3069, 13.46616
975.7890, 20.36937
976.2711, 25.98798
976.7532, 31.12036
977.2354, 32.30945
977.7175, 24.42885
978.1996, 12.69731
978.6817, 12.57129
979.1638, 21.13918
979.6459, 26.77884
980.1281, 18.66991
980.6102, 12.05487
981.0923, 15.36467
981.5744, 23.94426
982.0565, 29.25232
982.5386, 31.58357
983.0208, 30.27989
983.5029, 24.29099
983.9850, 16.86308
984.4671, 8.262100
984.9492, 2.316025
985.4313, 8.009094
985.9135, 32.70364
986.3956, 47.39465
986.8777, 30.38788
987.3598, 12.74734
987.8419, 14.71985
988.3240, 36.43738
988.8062, 42.54028
989.2883, 32.90663
989.7704, 19.28642
990.2525, 3.993683
990.7346, 7.132370
991.2167, 4.130920
991.6989, 9.765640
992.1810, 18.38579
992.6631, 11.55611
993.1452, 8.748444
993.6273, 15.97208
994.1094, 27.09247
994.5916, 30.32121
995.0737, 25.96674
995.5558, 15.42101
996.0379, 5.193512
996.5200, 18.67867
997.0021, 4.262741
997.4843, 19.61571
997.9664, 32.86324
998.4485, 30.80676
998.9306, 27.32170
999.4127, 21.88724
999.8948, 16.75569
1000.377, 12.13756
1000.859, 9.528152
1001.341, 15.00012
1001.823, 27.06961
1002.305, 35.48112
1002.788, 31.62775
1003.270, 27.02359
1003.752, 27.39294
1004.234, 30.42755
1004.716, 29.37425
1005.198, 23.75459
1005.680, 19.51765
1006.162, 18.43564
1006.644, 18.84734
1007.127, 18.48119
1007.609, 18.41438
1008.091, 20.69002
1008.573, 28.09390
1009.055, 31.66263
1009.537, 28.24631
1010.019, 23.81224
1010.501, 22.38580
1010.984, 23.77463
1011.466, 27.08098
1011.948, 32.05620
1012.430, 34.93567
1012.912, 32.20830
1013.394, 27.41982
1013.876, 20.79897
1014.358, 13.93677
1014.841, 13.77185
1015.323, 24.61209
1015.805, 29.92015
1016.287, 24.47237
1016.769, 15.19514
1017.251, 14.67848
1017.733, 19.04640
1018.215, 19.43449
1018.697, 11.98981
1019.180, 5.610046
1019.662, 0.7691960
1020.144, 1.349182
1020.626, 12.47502
1021.108, 35.41100
1021.590, 44.45276
1022.072, 39.17509
1022.554, 30.18773
1023.036, 19.96382
1023.519, 13.32182
1024.001, 19.92166
1024.483, 35.33176
1024.965, 42.37805
1025.447, 29.22375
1025.929, 21.06915
1026.411, 23.70834
1026.893, 30.52075
1027.375, 29.06847
1027.858, 21.62921
1028.340, 17.09775
1028.822, 17.56601
1029.304, 19.23450
1029.786, 19.60670
1030.268, 20.28905
1030.750, 22.11591
1031.232, 24.83852
1031.715, 34.10606
1032.197, 52.00801
1032.679, 61.90480
1033.161, 46.41835
1033.643, 22.10336
1034.125, 13.51680
1034.607, 16.96196
1035.089, 21.95959
1035.572, 27.82080
1036.054, 30.93523
1036.536, 29.83052
1037.018, 26.97597
1037.500, 26.75847
1037.982, 28.42766
1038.464, 24.66338
1038.946, 13.81161
1039.428, 5.994415
1039.911, 12.63068
1040.393, 22.57515
1040.875, 26.08522
1041.357, 22.50377
1041.839, 24.34860
1042.321, 33.79099
1042.803, 39.92363
1043.285, 36.79588
1043.767, 28.94868
1044.250, 22.76651
1044.732, 18.53130
1045.214, 16.81728
1045.696, 18.69232
1046.178, 22.27879
1046.660, 31.43503
1047.142, 37.93552
1047.624, 31.37796
1048.107, 12.87318
1048.589, 1.065674
1049.071, 8.746811
1049.553, 10.75362
1050.035, 4.048050
1050.517, 4.411606
1050.999, 9.526291
1051.481, 11.28474
1051.964, 13.13684
1052.446, 15.41425
1052.928, 17.01434
1053.410, 18.14326
1053.892, 17.00296
1054.374, 7.002975
1054.856, 4.635986
1055.338, 7.064468
1055.820, 6.168625
1056.302, 17.16429
1056.785, 19.43645
1057.267, 19.85440
1057.749, 23.00433
1058.231, 28.48477
1058.713, 30.27663
1059.195, 28.57016
1059.677, 25.84389
1060.159, 23.86105
1060.642, 21.15390
1061.124, 15.07156
1061.606, 7.672348
1062.088, 4.195831
1062.570, 4.999374
1063.052, 9.415939
1063.534, 18.53894
1064.016, 27.27824
1064.499, 29.00821
1064.981, 26.88893
1065.463, 27.14587
1065.945, 31.38873
1066.427, 31.53477
1066.909, 20.63496
1067.391, 10.78311
1067.873, 5.986145
1068.355, 5.708862
1068.838, 8.661774
1069.320, 14.58598
1069.802, 22.83147
1070.284, 36.61380
1070.766, 46.62720
1071.248, 44.65022
1071.730, 37.16989
1072.212, 32.25995
1072.694, 31.16231
1073.177, 27.59390
1073.659, 20.83234
1074.141, 16.29642
1074.623, 21.38188
1075.105, 29.02879
1075.587, 31.10622
1076.069, 27.72697
1076.551, 21.27988
1077.034, 7.033417
1077.516, 1.581223
1077.998, 0.7529750
1078.480, 4.419342
1078.962, 4.796982
1079.444, 2.316101
1079.926, 3.255463
1080.408, 9.125580
1080.891, 15.65930
1081.373, 23.66229
1081.855, 28.47028
1082.337, 26.23729
1082.819, 17.93956
1083.301, 14.85463
1083.783, 16.94203
1084.265, 20.86919
1084.747, 27.69751
1085.229, 32.16663
1085.712, 24.79898
1086.194, 13.41582
1086.676, 11.43051
1087.158, 29.46786
1087.640, 34.45462
1088.122, 22.87939
1088.604, 8.585815
1089.086, 3.161179
1089.569, 3.588104
1090.051, 5.047318
1090.533, 7.281998
1091.015, 10.30440
1091.497, 4.455383
1091.979, 23.92584
1092.461, 34.81630
1092.943, 37.58794
1093.426, 7.923203
1093.908, 20.14372
1094.390, 15.57889
1094.872, 10.32593
1095.354, 28.44225
1095.836, 3.496399
1096.318, 21.24254
1096.800, 21.94708
1097.282, 30.45131
1097.765, 22.06647
1098.247, 18.91193
1098.729, 33.12732
1099.211, 37.96233
1099.693, 27.68303
1100.175, 36.68423
1100.657, 11.15031
1101.139, 15.92177
1101.622, 33.76845
1102.104, 24.29018
1102.586, 33.60094
1103.068, 35.75610
1103.550, 5.392319
1104.032, 31.58516
1104.514, 33.31944
1104.996, 9.940292
1105.479, 34.19560
1105.961, 14.27884
1106.443, 10.01862
1106.925, 17.15300
1107.407, 11.79283
1107.889, 13.15633
1108.371, 6.982971
1108.853, 10.74338
1109.335, 27.50237
1109.818, 38.91220
1110.300, 25.71129
1110.782, 10.82013
1111.264, 10.45177
1111.746, 21.29468
1112.228, 22.34369
1112.710, 12.97092
1113.192, 9.260681
1113.674, 20.32924
1114.157, 31.69447
1114.639, 27.33478
1115.121, 16.24445
1115.603, 9.019714
1116.085, 7.455780
1116.567, 8.208298
1117.049, 11.51361
1117.531, 16.55896
1118.014, 24.49211
1118.496, 31.74086
1118.978, 30.12782
1119.460, 22.52298
1119.942, 16.29323
1120.424, 17.25711
1120.906, 13.75963
1121.388, 1.938507
1121.870, 9.543365
1122.353, 10.36935
1122.835, 2.980911
1123.317, 4.554398
1123.799, 11.99034
1124.281, 20.03362
1124.763, 34.06223
1125.245, 42.34665
1125.727, 38.93893
1126.209, 28.75768
1126.692, 22.64236
1127.174, 20.15086
1127.656, 16.64198
1128.138, 10.72615
1128.620, 6.959305
1129.102, 10.59180
1129.584, 16.09441
1130.066, 19.07860
1130.549, 19.69702
1131.031, 21.74886
1131.513, 25.46744
1131.995, 26.95552
1132.477, 23.91531
1132.959, 19.35153
1133.441, 15.34335
1133.923, 12.21689
1134.406, 10.55353
1134.888, 10.59058
1135.370, 10.77933
1135.852, 10.41617
1136.334, 13.63647
1136.816, 29.67088
1137.298, 47.22272
1137.780, 43.56807
1138.262, 26.01083
1138.745, 15.24689
1139.227, 25.94710
1139.709, 30.06192
1140.191, 23.04016
1140.673, 13.90128
1141.155, 13.74196
1141.637, 19.07074
1142.119, 20.86089
1142.601, 18.90773
1143.084, 17.93564
1143.566, 21.28064
1144.048, 24.37190
1144.530, 26.86961
1145.012, 27.45758
1145.494, 20.58920
1145.976, 9.055435
1146.458, 6.638870
1146.941, 17.26695
1147.423, 26.00545
1147.905, 21.55489
1148.387, 15.26392
1148.869, 13.21869
1149.351, 15.01469
1149.833, 20.49985
1150.315, 29.08401
1150.797, 31.19133
1151.280, 20.26428
1151.762, 10.62279
1152.244, 17.39600
1152.726, 27.81187
1153.208, 28.37720
1153.690, 17.63478
1154.172, 11.61462
1154.654, 10.53818
1155.136, 8.657166
1155.619, 0.2448730
1156.101, 8.259460
1156.583, 7.839752
1157.065, 1.096970
1157.547, 9.375687
1158.029, 27.40637
1158.511, 35.25026
1158.993, 31.28734
1159.476, 23.66159
1159.958, 16.34123
1160.440, 11.20624
1160.922, 12.52219
1161.404, 18.16237
1161.886, 21.29987
1162.368, 18.99535
1162.850, 19.10368
1163.333, 23.73122
1163.815, 27.68933
1164.297, 22.23537
1164.779, 13.17915
1165.261, 11.24683
1165.743, 16.85855
1166.225, 21.21542
1166.707, 23.11050
1167.189, 21.37044
1167.672, 13.85060
1168.154, 5.469177
1168.636, 6.002930
1169.118, 12.43515
1169.600, 18.86742
1170.082, 24.62666
1170.564, 27.00027
1171.046, 22.19174
1171.528, 17.40056
1172.011, 15.13545
1172.493, 14.96249
1172.975, 17.72658
1173.457, 21.58650
1173.939, 19.21950
1174.421, 3.498734
1174.903, 5.432037
1175.385, 10.71806
1175.868, 26.00571
1176.350, 22.57867
1176.832, 4.636292
1177.314, 0.5084380
1177.796, 5.062057
1178.278, 10.52258
1178.760, 11.64511
1179.242, 10.51845
1179.724, 2.140060
1180.207, 3.835159
1180.689, 4.727478
1181.171, 27.19098
1181.653, 33.68301
1182.135, 25.09425
1182.617, 16.38037
1183.099, 17.68011
1183.581, 20.69502
1184.063, 21.34598
1184.546, 20.31866
1185.028, 18.29008
1185.510, 15.38802
1185.992, 14.29106
1186.474, 15.20367
1186.956, 16.49940
1187.438, 17.69991
1187.920, 18.19531
1188.403, 17.24492
1188.885, 15.33965
1189.367, 13.27492
1189.849, 10.90707
1190.331, 10.85143
1190.813, 13.56203
1191.295, 17.93222
1191.777, 24.36079
1192.260, 30.90094
1192.742, 37.45343
1193.224, 42.98479
1193.706, 42.12851
1194.188, 34.38153
1194.670, 23.75601
1195.152, 9.737747
1195.634, 1.076569
1196.116, 1.650406
1196.599, 3.722015
1197.081, 13.90813
1197.563, 28.29761
1198.045, 30.66980
1198.527, 19.46825
1199.009, 11.47603
1199.491, 14.35670
1199.973, 18.75087
1200.455, 13.09819
1200.938, 4.220779
1201.420, 0.9512020
1201.902, 4.983826
1202.384, 5.177963
1202.866, 0.7812650
1203.348, 1.585785
1203.830, 2.124039
1204.312, 8.181168
1204.795, 12.09439
1205.277, 15.87059
1205.759, 23.38721
1206.241, 38.56258
1206.723, 43.09959
1207.205, 35.70007
1207.687, 26.60298
1208.169, 21.68710
1208.651, 18.86107
1209.134, 15.73816
1209.616, 12.93446
1210.098, 11.88220
1210.580, 13.03143
1211.062, 14.74112
1211.544, 17.11443
1212.026, 19.34357
1212.508, 20.35786
1212.990, 21.23267
1213.473, 22.68054
1213.955, 24.50403
1214.437, 28.41290
1214.919, 37.23265
1215.401, 40.33971
1215.883, 36.63588
1216.365, 29.40479
1216.847, 18.61641
1217.330, 7.988464
1217.812, 0.2782290
1218.294, 3.713196
1218.776, 0.6002350
1219.258, 13.05678
1219.740, 20.76976
1220.222, 19.89888
1220.704, 15.73520
1221.187, 12.01857
1221.669, 9.043655
1222.151, 7.344727
1222.633, 6.814224
1223.115, 5.976715
1223.597, 4.024277
1224.079, 5.070404
1224.561, 10.12500
1225.043, 17.18280
1225.526, 27.05235
1226.008, 35.65440
1226.490, 38.54576
1226.972, 35.25882
1227.454, 28.60953
1227.936, 17.27986
1228.418, 10.47794
1228.900, 11.10677
1229.382, 15.66817
1229.865, 20.25842
1230.347, 23.91014
1230.829, 24.64825
1231.311, 22.25894
1231.793, 18.24849
1232.275, 12.29369
1232.757, 6.844238
1233.239, 3.315048
1233.722, 1.529343
1234.204, 0.5447540
1234.686, 2.125977
1235.168, 10.88062
1235.650, 27.10428
1236.132, 29.93813
1236.614, 18.01251
1237.096, 10.89694
1237.578, 18.09409
1238.061, 27.86464
1238.543, 33.24184
1239.025, 33.33394
1239.507, 25.20615
1239.989, 8.801239
1240.471, 1.240952
1240.953, 4.786713
1241.435, 5.033539
1241.917, 3.374374
1242.400, 1.096848
1242.882, 15.06105
1243.364, 27.95465
1243.846, 26.46170
1244.328, 9.659286
1244.810, 4.093567
1245.292, 9.449982
1245.774, 17.38104
1246.257, 27.51486
1246.739, 33.48781
1247.221, 26.56531
1247.703, 16.50763
1248.185, 14.61925
1248.667, 21.22188
1249.149, 22.42593
1249.631, 18.80963
1250.114, 16.06760
1250.596, 18.88177
1251.078, 21.41277
1251.560, 20.49390
1252.042, 18.23962
1252.524, 15.86502
1253.006, 13.62503
1253.488, 11.24007
1253.970, 9.232147
1254.453, 11.04704
1254.935, 24.80069
1255.417, 34.23509
1255.899, 30.13501
1256.381, 22.27335
1256.863, 19.40588
1257.345, 20.74216
1257.827, 22.20921
1258.310, 23.42329
1258.792, 22.80986
1259.274, 13.13240
1259.756, 11.48578
1260.238, 28.00311
1260.720, 44.13565
1261.202, 36.93994
1261.684, 14.41995
1262.167, 1.749542
1262.649, 0.8919680
1263.131, 2.173630
1263.613, 15.55551
1264.095, 25.31458
1264.577, 29.23293
1265.059, 29.64949
1265.541, 28.66084
1266.023, 26.17877
1266.505, 19.73827
1266.988, 11.02879
1267.470, 8.148026
1267.952, 18.22597
1268.434, 25.70793
1268.916, 30.22821
1269.398, 31.38629
1269.880, 26.19878
1270.362, 19.47556
1270.845, 19.56071
1271.327, 25.06783
1271.809, 26.40692
1272.291, 0.2118990
1272.773, 20.42715
1273.255, 32.06255
1273.737, 35.57349
1274.219, 6.642609
1274.702, 19.59789
1275.184, 15.76559
1275.666, 11.22684
1276.148, 29.96613
1276.630, 5.719528
1277.112, 24.19919
1277.594, 25.63699
1278.076, 34.87570
1278.558, 27.22643
1279.041, 24.79506
1279.523, 38.44218
1280.005, 42.48140
1280.487, 32.79881
1280.969, 42.50887
1281.451, 17.66031
1281.933, 22.87787
1282.415, 17.86388
1282.897, 14.74538
1283.380, 11.68497
1283.862, 5.598297
1284.344, 0.1159360
1284.826, 6.094849
1285.308, 20.56267
1285.790, 19.65305
1286.272, 1.056030
1286.754, 11.59894
1287.237, 2.301514
1287.719, 14.82228
1288.201, 16.56937
1288.683, 12.16344
1289.165, 6.687943
1289.647, 1.905121
1290.129, 4.915833
1290.611, 15.60388
1291.094, 22.01862
1291.576, 14.61552
1292.058, 8.722275
1292.540, 6.333252
1293.022, 8.704361
1293.504, 23.29941
1293.986, 40.96483
1294.468, 45.69919
1294.950, 37.08008
1295.432, 28.49332
1295.915, 20.91891
1296.397, 17.24153
1296.879, 18.36792
1297.361, 22.19664
1297.843, 30.51401
1298.325, 37.36998
1298.807, 34.29668
1299.289, 22.61108
1299.772, 16.44003
1300.254, 16.21945
1300.736, 17.44008
1301.218, 18.99203
1301.700, 22.09685
1302.182, 31.33038
1302.664, 34.42722
1303.146, 26.91016
1303.629, 12.08363
1304.111, 2.789169
1304.593, 0.4569240
1305.075, 2.835388
1305.557, 12.81445
1306.039, 24.59540
1306.521, 42.53049
1307.003, 51.60042
1307.485, 44.55527
1307.968, 28.65408
1308.450, 13.56274
1308.932, 1.016464
1309.414, 2.355194
1309.896, 3.874969
1310.378, 9.689957
1310.860, 11.61362
1311.342, 11.08484
1311.824, 9.963806
1312.307, 8.246414
1312.789, 5.555344
1313.271, 3.371323
1313.753, 1.438965
1314.235, 5.566177
1314.717, 9.111420
1315.199, 11.84962
1315.681, 13.27402
1316.164, 14.37642
1316.646, 13.31688
1317.128, 6.750931
1317.610, 0.0000000E+00
##END=



