##NAMES=Donnayite-(Y)
##RRUFFID=R110164
##IDEAL CHEMISTRY=NaSr_3_CaY(CO_3_)_6_&#183;3H_2_O
##LOCALITY=Mont St. Hilaire, Quebec, Canada
##OWNER=RRUFF
##SOURCE=Donald M Doell
##DESCRIPTION=Aggregate of greenish-grey platy crystals in a prismatic hexagonal stacking, associated with siderite, rhodochrosite and albite
##STATUS=The identification of this mineral has been confirmed by single-crystal X-ray diffraction.
##URL=rruff.info/R110164
93.53198, 7204.860
94.01410, 7449.081
94.49622, 7607.300
94.97833, 7719.042
95.46045, 7819.466
95.94257, 7909.368
96.42468, 7966.333
96.90680, 7980.862
97.38892, 7990.575
97.87103, 8012.846
98.35315, 8035.515
98.83527, 8039.019
99.31738, 8024.896
99.79950, 7989.091
100.2816, 7959.914
100.7637, 7932.677
101.2458, 7910.355
101.7280, 7894.720
102.2101, 7885.325
102.6922, 7884.194
103.1743, 7898.291
103.6564, 7926.632
104.1385, 7955.379
104.6207, 7974.223
105.1028, 7987.764
105.5849, 8013.407
106.0670, 8059.449
106.5491, 8114.800
107.0313, 8165.947
107.5134, 8211.400
107.9955, 8257.271
108.4776, 8310.918
108.9597, 8374.519
109.4418, 8435.122
109.9240, 8488.377
110.4061, 8537.416
110.8882, 8580.813
111.3703, 8617.187
111.8524, 8653.370
112.3345, 8708.464
112.8167, 8797.112
113.2988, 8887.444
113.7809, 8977.720
114.2630, 9065.777
114.7451, 9149.875
115.2272, 9228.019
115.7094, 9301.116
116.1915, 9374.174
116.6736, 9448.076
117.1557, 9521.454
117.6378, 9590.876
118.1199, 9658.390
118.6021, 9730.548
119.0842, 9813.317
119.5663, 9907.733
120.0484, 10000.02
120.5305, 10088.99
121.0126, 10176.83
121.4948, 10264.65
121.9769, 10352.43
122.4590, 10441.09
122.9411, 10530.83
123.4232, 10621.56
123.9053, 10714.07
124.3875, 10808.84
124.8696, 10905.55
125.3517, 11001.64
125.8338, 11093.79
126.3159, 11190.77
126.7980, 11301.17
127.2802, 11422.55
127.7623, 11542.12
128.2444, 11649.30
128.7265, 11742.41
129.2086, 11836.40
129.6907, 11938.78
130.1729, 12037.82
130.6550, 12129.50
131.1371, 12212.51
131.6192, 12285.89
132.1013, 12346.01
132.5834, 12381.88
133.0656, 12427.44
133.5477, 12477.89
134.0298, 12539.11
134.5119, 12619.52
134.9940, 12720.85
135.4761, 12833.99
135.9583, 12937.31
136.4404, 13013.02
136.9225, 13100.40
137.4046, 13205.96
137.8867, 13323.91
138.3688, 13443.00
138.8510, 13557.17
139.3331, 13673.05
139.8152, 13811.67
140.2973, 13978.86
140.7794, 14154.17
141.2615, 14331.51
141.7437, 14510.15
142.2258, 14691.00
142.7079, 14874.50
143.1900, 15059.29
143.6721, 15241.36
144.1542, 15412.56
144.6364, 15591.23
145.1185, 15804.06
145.6006, 16058.16
146.0827, 16302.40
146.5648, 16503.99
147.0469, 16684.63
147.5291, 16866.40
148.0112, 17061.62
148.4933, 17257.75
148.9754, 17423.91
149.4575, 17545.07
149.9396, 17661.73
150.4218, 17787.57
150.9039, 17918.54
151.3860, 18049.92
151.8681, 18181.07
152.3502, 18310.96
152.8323, 18423.47
153.3145, 18503.29
153.7966, 18578.65
154.2787, 18657.70
154.7608, 18736.84
155.2429, 18806.97
155.7250, 18859.34
156.2072, 18891.28
156.6893, 18943.62
157.1714, 19036.53
157.6535, 19127.07
158.1356, 19202.61
158.6177, 19260.43
159.0999, 19299.44
159.5820, 19315.78
160.0641, 19304.58
160.5462, 19303.13
161.0283, 19318.67
161.5104, 19338.48
161.9926, 19354.71
162.4747, 19366.21
162.9568, 19372.89
163.4389, 19376.06
163.9210, 19375.51
164.4031, 19362.31
164.8853, 19328.12
165.3674, 19282.36
165.8495, 19239.32
166.3316, 19201.71
166.8137, 19164.48
167.2958, 19122.96
167.7780, 19077.87
168.2601, 19031.02
168.7422, 18982.77
169.2243, 18933.32
169.7064, 18883.39
170.1885, 18828.48
170.6707, 18779.99
171.1528, 18744.28
171.6349, 18720.27
172.1170, 18702.63
172.5991, 18692.60
173.0812, 18691.23
173.5634, 18675.02
174.0455, 18619.32
174.5276, 18566.43
175.0097, 18534.04
175.4918, 18522.12
175.9739, 18520.97
176.4561, 18519.45
176.9382, 18513.85
177.4203, 18521.17
177.9024, 18549.74
178.3845, 18582.95
178.8666, 18611.11
179.3488, 18633.46
179.8309, 18656.46
180.3130, 18688.09
180.7951, 18728.29
181.2772, 18779.61
181.7593, 18843.77
182.2415, 18916.03
182.7236, 18994.83
183.2057, 19079.15
183.6878, 19165.68
184.1699, 19249.26
184.6520, 19327.57
185.1342, 19407.80
185.6163, 19485.63
186.0984, 19567.24
186.5805, 19657.00
187.0626, 19755.80
187.5447, 19867.85
188.0269, 20005.55
188.5090, 20174.79
188.9911, 20340.79
189.4732, 20490.63
189.9553, 20632.93
190.4374, 20780.85
190.9196, 20940.25
191.4017, 21105.12
191.8838, 21267.14
192.3659, 21424.28
192.8480, 21588.20
193.3301, 21767.18
193.8123, 21957.68
194.2944, 22149.05
194.7765, 22340.97
195.2586, 22528.76
195.7407, 22707.23
196.2228, 22875.77
196.7050, 23043.93
197.1871, 23219.70
197.6692, 23402.68
198.1513, 23583.35
198.6334, 23759.17
199.1155, 23932.68
199.5977, 24104.79
200.0798, 24276.17
200.5619, 24447.69
201.0440, 24621.50
201.5261, 24799.39
202.0082, 24975.30
202.4904, 25155.56
202.9725, 25329.34
203.4546, 25487.51
203.9367, 25630.76
204.4188, 25771.53
204.9009, 25926.46
205.3831, 26102.97
205.8652, 26269.82
206.3473, 26428.96
206.8294, 26576.85
207.3115, 26708.09
207.7936, 26822.77
208.2758, 26927.47
208.7579, 27030.93
209.2400, 27137.42
209.7221, 27231.35
210.2042, 27306.48
210.6863, 27375.44
211.1685, 27445.18
211.6506, 27517.85
212.1327, 27593.93
212.6148, 27676.19
213.0969, 27775.97
213.5790, 27853.91
214.0612, 27901.49
214.5433, 27934.27
215.0254, 27961.40
215.5075, 27985.72
215.9896, 28010.87
216.4717, 28041.76
216.9539, 28080.77
217.4360, 28121.39
217.9181, 28159.55
218.4002, 28201.26
218.8823, 28260.65
219.3644, 28341.20
219.8466, 28416.87
220.3287, 28447.47
220.8108, 28424.92
221.2929, 28406.05
221.7750, 28400.19
222.2571, 28401.30
222.7393, 28400.72
223.2214, 28395.90
223.7035, 28394.14
224.1856, 28410.52
224.6677, 28443.60
225.1498, 28466.19
225.6320, 28464.88
226.1141, 28450.38
226.5962, 28439.65
227.0783, 28435.56
227.5604, 28434.89
228.0425, 28435.82
228.5247, 28437.88
229.0068, 28438.86
229.4889, 28435.13
229.9710, 28429.93
230.4531, 28431.91
230.9352, 28445.47
231.4174, 28458.56
231.8995, 28458.03
232.3816, 28448.96
232.8637, 28445.70
233.3458, 28458.18
233.8279, 28482.05
234.3101, 28502.19
234.7922, 28512.37
235.2743, 28529.12
235.7564, 28564.19
236.2385, 28611.52
236.7206, 28659.51
237.2028, 28701.87
237.6849, 28739.47
238.1670, 28776.39
238.6491, 28810.20
239.1312, 28847.36
239.6133, 28893.58
240.0955, 28944.21
240.5776, 28990.95
241.0597, 29025.57
241.5418, 29053.15
242.0239, 29099.13
242.5060, 29183.43
242.9882, 29259.32
243.4703, 29308.01
243.9524, 29341.67
244.4345, 29379.78
244.9166, 29435.14
245.3987, 29501.58
245.8809, 29548.08
246.3630, 29555.87
246.8451, 29566.53
247.3272, 29591.18
247.8093, 29622.81
248.2914, 29655.91
248.7736, 29689.07
249.2557, 29715.60
249.7378, 29707.14
250.2199, 29625.38
250.7020, 29553.92
251.1841, 29512.98
251.6663, 29485.28
252.1484, 29452.18
252.6305, 29404.60
253.1126, 29343.76
253.5947, 29271.31
254.0768, 29169.29
254.5590, 29078.12
255.0411, 29008.32
255.5232, 28947.38
256.0053, 28881.07
256.4874, 28803.62
256.9695, 28718.63
257.4517, 28634.86
257.9338, 28548.39
258.4159, 28467.99
258.8980, 28396.24
259.3801, 28329.16
259.8622, 28259.91
260.3444, 28186.37
260.8265, 28115.13
261.3086, 28058.94
261.7907, 28025.48
262.2728, 27996.15
262.7549, 27965.29
263.2371, 27940.78
263.7192, 27931.69
264.2013, 27940.19
264.6834, 27959.55
265.1655, 27978.70
265.6476, 27988.87
266.1298, 28024.88
266.6119, 28099.62
267.0940, 28194.11
267.5761, 28289.26
268.0582, 28382.07
268.5403, 28483.38
269.0225, 28606.13
269.5046, 28754.44
269.9867, 28914.88
270.4688, 29085.93
270.9509, 29269.55
271.4330, 29466.30
271.9152, 29676.08
272.3973, 29902.74
272.8794, 30150.70
273.3615, 30423.14
273.8436, 30699.90
274.3257, 30978.49
274.8079, 31264.28
275.2900, 31555.23
275.7721, 31853.29
276.2542, 32165.96
276.7363, 32502.46
277.2184, 32861.20
277.7006, 33228.20
278.1827, 33596.30
278.6648, 33975.59
279.1469, 34374.18
279.6290, 34789.77
280.1111, 35212.07
280.5933, 35638.41
281.0754, 36065.48
281.5575, 36486.20
282.0396, 36890.57
282.5217, 37299.67
283.0038, 37735.55
283.4860, 38191.96
283.9681, 38639.37
284.4502, 39061.35
284.9323, 39468.43
285.4144, 39887.45
285.8965, 40328.73
286.3787, 40756.87
286.8608, 41147.19
287.3429, 41506.20
287.8250, 41866.30
288.3071, 42245.15
288.7892, 42617.80
289.2714, 42953.99
289.7535, 43254.04
290.2356, 43523.97
290.7177, 43773.11
291.1998, 43994.67
291.6819, 44174.05
292.1641, 44308.15
292.6462, 44396.51
293.1283, 44437.35
293.6104, 44435.30
294.0925, 44399.93
294.5746, 44330.08
295.0568, 44230.21
295.5389, 44111.36
296.0210, 43978.13
296.5031, 43815.85
296.9852, 43603.56
297.4673, 43351.64
297.9495, 43075.94
298.4316, 42780.49
298.9137, 42465.71
299.3958, 42134.43
299.8779, 41788.02
300.3600, 41417.50
300.8422, 40995.80
301.3243, 40548.76
301.8064, 40127.76
302.2885, 39753.29
302.7706, 39394.82
303.2527, 39013.52
303.7349, 38605.85
304.2170, 38204.16
304.6991, 37820.36
305.1812, 37454.16
305.6633, 37104.85
306.1454, 36773.17
306.6276, 36459.63
307.1097, 36171.02
307.5918, 35906.55
308.0739, 35639.15
308.5560, 35352.62
309.0381, 35070.45
309.5203, 34818.48
310.0024, 34597.68
310.4845, 34391.95
310.9666, 34186.21
311.4487, 33984.66
311.9308, 33812.53
312.4130, 33683.89
312.8951, 33575.26
313.3772, 33459.41
313.8593, 33339.20
314.3414, 33241.08
314.8235, 33187.88
315.3057, 33165.78
315.7878, 33137.18
316.2699, 33094.71
316.7520, 33056.87
317.2341, 33036.00
317.7162, 33029.62
318.1984, 33035.21
318.6805, 33055.74
319.1626, 33086.17
319.6447, 33118.43
320.1268, 33152.03
320.6089, 33190.50
321.0911, 33233.55
321.5732, 33284.30
322.0553, 33349.18
322.5374, 33434.13
323.0195, 33526.59
323.5016, 33611.06
323.9838, 33687.93
324.4659, 33773.32
324.9480, 33878.26
325.4301, 33991.52
325.9122, 34094.90
326.3943, 34184.99
326.8765, 34282.96
327.3586, 34411.27
327.8407, 34564.21
328.3228, 34705.52
328.8049, 34819.99
329.2870, 34929.98
329.7692, 35063.75
330.2513, 35218.24
330.7334, 35360.35
331.2155, 35461.77
331.6976, 35539.96
332.1797, 35637.00
332.6619, 35761.43
333.1440, 35892.83
333.6261, 36022.65
334.1082, 36147.44
334.5903, 36256.43
335.0724, 36328.82
335.5546, 36391.48
336.0367, 36485.70
336.5188, 36615.05
337.0009, 36736.30
337.4830, 36829.59
337.9651, 36895.41
338.4473, 36932.86
338.9294, 36925.87
339.4115, 36915.77
339.8936, 36945.95
340.3757, 37009.13
340.8578, 37047.98
341.3400, 37035.00
341.8221, 36992.63
342.3042, 36957.88
342.7863, 36932.61
343.2684, 36903.48
343.7505, 36868.00
344.2327, 36823.64
344.7148, 36764.46
345.1969, 36689.12
345.6790, 36598.82
346.1611, 36482.30
346.6432, 36344.55
347.1254, 36224.06
347.6075, 36151.75
348.0896, 36091.99
348.5717, 36005.31
349.0538, 35887.95
349.5359, 35746.49
350.0181, 35575.80
350.5002, 35382.38
350.9823, 35199.22
351.4644, 35029.30
351.9465, 34870.09
352.4286, 34724.64
352.9108, 34590.36
353.3929, 34452.63
353.8750, 34306.79
354.3571, 34151.30
354.8392, 33981.26
355.3214, 33790.46
355.8035, 33602.04
356.2856, 33429.68
356.7677, 33264.91
357.2498, 33090.93
357.7319, 32901.49
358.2141, 32708.99
358.6962, 32528.08
359.1783, 32360.01
359.6604, 32195.35
360.1425, 32034.53
360.6246, 31874.99
361.1068, 31716.37
361.5889, 31557.13
362.0710, 31397.01
362.5531, 31236.43
363.0352, 31074.44
363.5173, 30905.63
363.9995, 30731.67
364.4816, 30549.31
364.9637, 30342.33
365.4458, 30125.06
365.9279, 29937.26
366.4100, 29803.74
366.8922, 29704.02
367.3743, 29573.21
367.8564, 29385.97
368.3385, 29205.44
368.8206, 29043.51
369.3027, 28890.38
369.7849, 28740.10
370.2670, 28590.64
370.7491, 28432.72
371.2312, 28252.52
371.7133, 28042.65
372.1954, 27834.01
372.6776, 27615.44
373.1597, 27407.99
373.6418, 27230.56
374.1239, 27078.06
374.6060, 26926.83
375.0881, 26755.67
375.5703, 26566.04
376.0524, 26386.10
376.5345, 26229.25
377.0166, 26065.77
377.4987, 25880.59
377.9808, 25686.22
378.4630, 25499.65
378.9451, 25328.69
379.4272, 25170.34
379.9093, 25018.59
380.3914, 24880.21
380.8735, 24735.80
381.3557, 24579.94
381.8378, 24421.89
382.3199, 24265.45
382.8020, 24111.92
383.2841, 23964.59
383.7662, 23829.36
384.2484, 23708.14
384.7305, 23581.28
385.2126, 23447.18
385.6947, 23307.63
386.1768, 23154.74
386.6589, 22997.08
387.1411, 22850.10
387.6232, 22722.91
388.1053, 22612.04
388.5874, 22507.85
389.0695, 22417.22
389.5516, 22320.25
390.0338, 22206.80
390.5159, 22088.43
390.9980, 21976.41
391.4801, 21873.62
391.9622, 21774.46
392.4443, 21667.66
392.9265, 21550.94
393.4086, 21451.77
393.8907, 21394.71
394.3728, 21336.63
394.8549, 21246.61
395.3370, 21132.06
395.8192, 21024.99
396.3013, 20951.39
396.7834, 20900.64
397.2655, 20835.58
397.7476, 20747.84
398.2297, 20667.96
398.7119, 20620.89
399.1940, 20588.35
399.6761, 20546.60
400.1582, 20485.90
400.6403, 20422.77
401.1224, 20375.20
401.6046, 20341.93
402.0867, 20309.48
402.5688, 20276.79
403.0509, 20239.47
403.5330, 20186.83
404.0151, 20118.04
404.4973, 20064.48
404.9794, 20054.53
405.4615, 20064.60
405.9436, 20050.89
406.4257, 20006.21
406.9078, 19956.78
407.3900, 19923.49
407.8721, 19904.22
408.3542, 19884.65
408.8363, 19859.75
409.3184, 19838.23
409.8005, 19831.38
410.2827, 19834.05
410.7648, 19825.45
411.2469, 19792.45
411.7290, 19750.97
412.2111, 19739.90
412.6932, 19769.99
413.1754, 19797.79
413.6575, 19815.88
414.1396, 19828.06
414.6217, 19837.35
415.1038, 19844.52
415.5859, 19851.13
416.0681, 19859.61
416.5502, 19870.78
417.0323, 19872.08
417.5144, 19856.99
417.9965, 19840.49
418.4786, 19822.44
418.9608, 19808.09
419.4429, 19806.39
419.9250, 19822.13
420.4071, 19851.97
420.8892, 19888.72
421.3713, 19961.55
421.8535, 19994.15
422.3356, 19957.93
422.8177, 19902.56
423.2998, 19866.52
423.7819, 19854.15
424.2640, 19844.70
424.7462, 19814.46
425.2283, 19760.83
425.7104, 19723.24
426.1925, 19719.37
426.6746, 19713.09
427.1567, 19699.32
427.6389, 19675.19
428.1210, 19634.50
428.6031, 19571.93
429.0852, 19500.81
429.5673, 19450.58
430.0494, 19428.12
430.5316, 19401.51
431.0137, 19362.75
431.4958, 19317.96
431.9779, 19273.95
432.4600, 19229.90
432.9421, 19174.14
433.4243, 19088.89
433.9064, 18982.71
434.3885, 18892.12
434.8706, 18820.12
435.3527, 18759.99
435.8348, 18722.67
436.3170, 18691.61
436.7991, 18634.82
437.2812, 18531.25
437.7633, 18418.47
438.2454, 18333.70
438.7275, 18272.62
439.2097, 18208.14
439.6918, 18131.14
440.1739, 18047.00
440.6560, 17960.37
441.1381, 17869.18
441.6202, 17789.92
442.1024, 17738.42
442.5845, 17695.23
443.0666, 17638.94
443.5487, 17567.63
444.0308, 17489.71
444.5129, 17409.01
444.9951, 17327.15
445.4772, 17254.88
445.9593, 17204.75
446.4414, 17148.75
446.9235, 17074.25
447.4056, 16989.79
447.8878, 16907.45
448.3699, 16831.39
448.8520, 16759.41
449.3341, 16687.19
449.8162, 16612.09
450.2983, 16545.71
450.7805, 16501.51
451.2626, 16452.56
451.7447, 16375.39
452.2268, 16280.75
452.7089, 16199.05
453.1910, 16152.66
453.6732, 16131.66
454.1553, 16094.41
454.6374, 16030.84
455.1195, 15967.33
455.6016, 15908.56
456.0837, 15851.51
456.5659, 15792.79
457.0480, 15731.81
457.5301, 15674.11
458.0122, 15627.53
458.4943, 15591.58
458.9764, 15550.82
459.4586, 15503.64
459.9407, 15453.01
460.4228, 15398.40
460.9049, 15342.29
461.3870, 15289.78
461.8691, 15245.06
462.3513, 15200.69
462.8334, 15143.42
463.3155, 15074.17
463.7976, 15018.39
464.2797, 14991.56
464.7618, 14972.63
465.2440, 14934.42
465.7261, 14876.94
466.2082, 14817.21
466.6903, 14753.24
467.1724, 14693.98
467.6545, 14655.38
468.1367, 14637.33
468.6188, 14616.45
469.1009, 14575.35
469.5830, 14519.52
470.0651, 14475.72
470.5472, 14454.47
471.0294, 14430.50
471.5115, 14394.48
471.9936, 14353.48
472.4757, 14316.60
472.9578, 14286.09
473.4399, 14257.56
473.9221, 14226.56
474.4042, 14194.27
474.8863, 14152.11
475.3684, 14089.21
475.8505, 14028.79
476.3326, 13976.90
476.8148, 13934.02
477.2969, 13902.03
477.7790, 13882.42
478.2611, 13867.94
478.7432, 13842.78
479.2253, 13802.53
479.7075, 13764.37
480.1896, 13728.45
480.6717, 13696.83
481.1538, 13675.77
481.6359, 13661.76
482.1180, 13640.86
482.6002, 13598.54
483.0823, 13544.31
483.5644, 13506.24
484.0465, 13489.10
484.5286, 13471.31
485.0107, 13438.11
485.4929, 13402.10
485.9750, 13380.38
486.4571, 13377.93
486.9392, 13373.45
487.4213, 13350.65
487.9034, 13316.97
488.3856, 13289.62
488.8677, 13271.69
489.3498, 13255.58
489.8319, 13235.78
490.3140, 13211.90
490.7961, 13184.99
491.2783, 13144.35
491.7604, 13111.78
492.2425, 13101.79
492.7246, 13105.88
493.2067, 13109.03
493.6888, 13105.96
494.1710, 13098.87
494.6531, 13091.60
495.1352, 13086.85
495.6173, 13072.68
496.0994, 13038.42
496.5815, 13006.49
497.0637, 12988.17
497.5458, 12980.80
498.0279, 12977.52
498.5100, 12974.80
498.9921, 12971.94
499.4742, 12967.61
499.9564, 12963.32
500.4385, 12953.35
500.9206, 12926.56
501.4027, 12901.88
501.8848, 12893.04
502.3669, 12898.66
502.8491, 12906.42
503.3312, 12907.84
503.8133, 12905.30
504.2954, 12906.86
504.7775, 12914.67
505.2596, 12915.73
505.7418, 12892.40
506.2239, 12865.64
506.7060, 12869.33
507.1881, 12913.97
507.6702, 12951.89
508.1523, 12955.35
508.6345, 12937.97
509.1166, 12916.94
509.5987, 12894.76
510.0808, 12884.46
510.5629, 12899.10
511.0450, 12936.55
511.5272, 12969.87
512.0093, 13006.10
512.4914, 13030.71
512.9735, 13028.02
513.4556, 13016.01
513.9377, 13020.02
514.4199, 13046.05
514.9020, 13079.32
515.3841, 13100.82
515.8662, 13108.39
516.3483, 13119.28
516.8304, 13138.60
517.3126, 13155.89
517.7947, 13165.93
518.2768, 13172.74
518.7589, 13181.78
519.2410, 13195.14
519.7231, 13212.40
520.2053, 13234.36
520.6874, 13261.36
521.1695, 13286.85
521.6516, 13310.73
522.1337, 13331.66
522.6158, 13343.18
523.0980, 13350.76
523.5801, 13371.24
524.0622, 13422.95
524.5443, 13477.75
525.0264, 13497.43
525.5085, 13489.64
525.9907, 13502.27
526.4728, 13558.62
526.9549, 13628.07
527.4370, 13661.95
527.9191, 13653.62
528.4012, 13657.39
528.8834, 13684.75
529.3655, 13720.63
529.8476, 13757.58
530.3297, 13794.25
530.8118, 13829.50
531.2939, 13862.74
531.7761, 13893.79
532.2582, 13922.25
532.7403, 13947.25
533.2224, 13970.61
533.7045, 13980.04
534.1866, 13998.28
534.6688, 14047.54
535.1509, 14118.68
535.6330, 14182.43
536.1151, 14218.35
536.5972, 14235.80
537.0793, 14261.57
537.5615, 14299.30
538.0436, 14329.91
538.5257, 14343.05
539.0078, 14350.30
539.4899, 14358.92
539.9720, 14369.82
540.4542, 14388.50
540.9363, 14424.39
541.4184, 14466.42
541.9005, 14497.65
542.3826, 14518.04
542.8647, 14539.10
543.3469, 14568.44
543.8290, 14600.72
544.3111, 14621.42
544.7932, 14626.33
545.2753, 14631.19
545.7574, 14637.89
546.2396, 14645.52
546.7217, 14655.01
547.2038, 14665.09
547.6859, 14670.55
548.1680, 14666.83
548.6501, 14657.38
549.1323, 14658.67
549.6144, 14682.28
550.0965, 14696.33
550.5786, 14691.61
551.0607, 14681.92
551.5428, 14678.05
552.0250, 14679.82
552.5071, 14679.09
552.9892, 14669.11
553.4713, 14652.52
553.9534, 14638.29
554.4355, 14628.26
554.9177, 14610.68
555.3998, 14577.18
555.8819, 14535.93
556.3640, 14499.85
556.8461, 14470.48
557.3282, 14434.29
557.8104, 14379.56
558.2925, 14318.72
558.7746, 14268.52
559.2567, 14228.17
559.7388, 14185.52
560.2209, 14132.61
560.7031, 14072.46
561.1852, 14014.71
561.6673, 13964.60
562.1494, 13908.45
562.6315, 13842.27
563.1136, 13773.04
563.5958, 13707.29
564.0779, 13643.36
564.5600, 13575.44
565.0421, 13498.98
565.5242, 13415.80
566.0063, 13331.31
566.4885, 13245.23
566.9706, 13160.00
567.4527, 13076.78
567.9348, 12994.58
568.4169, 12915.32
568.8990, 12838.13
569.3812, 12754.14
569.8633, 12651.15
570.3454, 12543.56
570.8275, 12455.94
571.3096, 12387.01
571.7917, 12313.29
572.2739, 12222.83
572.7560, 12124.29
573.2381, 12033.09
573.7202, 11951.28
574.2023, 11866.76
574.6844, 11772.35
575.1666, 11679.71
575.6487, 11595.09
576.1308, 11518.93
576.6129, 11453.16
577.0950, 11399.14
577.5771, 11348.13
578.0593, 11278.58
578.5414, 11180.17
579.0235, 11091.30
579.5056, 11018.37
579.9877, 10951.04
580.4698, 10888.74
580.9520, 10828.36
581.4341, 10762.83
581.9162, 10687.15
582.3983, 10608.69
582.8804, 10535.60
583.3625, 10467.89
583.8447, 10410.02
584.3268, 10365.79
584.8089, 10325.64
585.2910, 10282.38
585.7731, 10235.78
586.2552, 10182.85
586.7374, 10116.56
587.2195, 10051.06
587.7016, 9992.783
588.1837, 9940.799
588.6658, 9892.982
589.1479, 9848.741
589.6301, 9809.936
590.1122, 9780.506
590.5943, 9762.724
591.0764, 9732.021
591.5585, 9671.982
592.0406, 9617.762
592.5228, 9582.933
593.0049, 9555.720
593.4870, 9519.812
593.9691, 9471.250
594.4512, 9426.197
594.9333, 9404.710
595.4155, 9400.348
595.8976, 9384.926
596.3797, 9355.729
596.8618, 9320.535
597.3439, 9279.953
597.8260, 9238.092
598.3082, 9205.790
598.7903, 9188.928
599.2724, 9166.890
599.7545, 9125.246
600.2366, 9080.005
600.7188, 9049.854
601.2009, 9034.643
601.6830, 9022.327
602.1651, 9004.955
602.6472, 8983.510
603.1293, 8962.019
603.6115, 8944.214
604.0936, 8919.005
604.5757, 8875.764
605.0578, 8834.427
605.5399, 8810.871
606.0220, 8800.615
606.5042, 8786.072
606.9863, 8755.527
607.4684, 8718.666
607.9505, 8691.581
608.4326, 8673.991
608.9147, 8655.646
609.3969, 8633.374
609.8790, 8610.531
610.3611, 8592.218
610.8432, 8577.739
611.3253, 8558.450
611.8074, 8527.592
612.2896, 8497.838
612.7717, 8479.283
613.2538, 8465.365
613.7359, 8442.679
614.2180, 8407.897
614.7001, 8372.558
615.1823, 8350.848
615.6644, 8343.575
616.1465, 8332.646
616.6286, 8318.677
617.1107, 8299.778
617.5928, 8270.053
618.0750, 8238.713
618.5571, 8215.943
619.0392, 8203.525
619.5213, 8193.719
620.0034, 8181.682
620.4855, 8167.905
620.9677, 8154.102
621.4498, 8140.505
621.9319, 8122.272
622.4140, 8093.969
622.8961, 8062.925
623.3782, 8046.214
623.8604, 8049.248
624.3425, 8047.638
624.8246, 8039.988
625.3067, 8025.780
625.7888, 7996.785
626.2709, 7961.390
626.7531, 7940.108
627.2352, 7943.433
627.7173, 7956.759
628.1994, 7952.253
628.6815, 7925.694
629.1636, 7904.397
629.6458, 7891.755
630.1279, 7882.185
630.6100, 7874.339
631.0921, 7866.875
631.5742, 7856.423
632.0563, 7839.855
632.5385, 7827.173
633.0206, 7832.566
633.5027, 7845.220
633.9848, 7842.681
634.4669, 7821.836
634.9490, 7792.987
635.4312, 7760.938
635.9133, 7728.599
636.3954, 7709.506
636.8775, 7715.290
637.3596, 7719.456
637.8417, 7723.164
638.3239, 7723.438
638.8060, 7717.353
639.2881, 7705.790
639.7702, 7691.632
640.2523, 7676.049
640.7344, 7660.269
641.2166, 7647.113
641.6987, 7636.639
642.1808, 7626.710
642.6629, 7619.519
643.1450, 7608.351
643.6271, 7578.929
644.1093, 7538.569
644.5914, 7516.586
645.0735, 7532.808
645.5556, 7550.145
646.0377, 7550.620
646.5198, 7541.984
647.0020, 7536.490
647.4841, 7535.724
647.9662, 7530.265
648.4483, 7510.139
648.9304, 7478.732
649.4125, 7459.941
649.8947, 7460.836
650.3768, 7461.470
650.8589, 7457.709
651.3410, 7453.080
651.8231, 7451.694
652.3052, 7452.290
652.7874, 7448.142
653.2695, 7433.553
653.7516, 7414.759
654.2337, 7399.208
654.7158, 7386.244
655.1979, 7370.767
655.6801, 7349.895
656.1622, 7335.352
656.6443, 7343.616
657.1264, 7376.862
657.6085, 7390.023
658.0906, 7364.675
658.5728, 7345.294
659.0549, 7347.145
659.5370, 7357.225
660.0191, 7362.351
660.5012, 7360.345
660.9833, 7356.190
661.4655, 7353.119
661.9476, 7351.491
662.4297, 7352.269
662.9118, 7355.344
663.3939, 7361.620
663.8760, 7371.160
664.3582, 7384.280
664.8403, 7402.835
665.3224, 7426.298
665.8045, 7448.147
666.2866, 7470.654
666.7687, 7487.857
667.2509, 7491.694
667.7330, 7489.484
668.2151, 7494.173
668.6972, 7508.629
669.1793, 7524.067
669.6614, 7530.294
670.1436, 7528.543
670.6257, 7536.864
671.1078, 7559.334
671.5899, 7583.462
672.0720, 7609.837
672.5541, 7633.854
673.0363, 7651.372
673.5184, 7662.501
674.0005, 7671.431
674.4826, 7676.216
674.9647, 7682.674
675.4468, 7699.168
675.9290, 7722.282
676.4111, 7741.255
676.8932, 7752.659
677.3753, 7761.401
677.8574, 7772.536
678.3395, 7785.980
678.8217, 7804.320
679.3038, 7832.753
679.7859, 7859.663
680.2680, 7885.550
680.7501, 7907.315
681.2322, 7920.308
681.7144, 7925.298
682.1965, 7929.862
682.6786, 7936.263
683.1607, 7947.008
683.6428, 7970.721
684.1249, 8005.182
684.6071, 8028.073
685.0892, 8029.737
685.5713, 8028.857
686.0534, 8047.682
686.5355, 8087.537
687.0176, 8122.608
687.4998, 8157.698
687.9819, 8182.342
688.4640, 8188.774
688.9461, 8186.697
689.4282, 8183.058
689.9103, 8180.583
690.3925, 8182.991
690.8746, 8195.470
691.3567, 8212.499
691.8388, 8219.561
692.3209, 8216.249
692.8030, 8214.768
693.2852, 8219.205
693.7673, 8225.068
694.2494, 8230.184
694.7315, 8233.866
695.2136, 8227.305
695.6957, 8200.670
696.1779, 8175.288
696.6600, 8158.622
697.1421, 8146.909
697.6242, 8139.710
698.1063, 8134.173
698.5884, 8120.660
699.0706, 8090.620
699.5527, 8049.493
700.0348, 8012.009
700.5169, 7978.433
700.9990, 7947.550
701.4811, 7922.567
701.9633, 7895.244
702.4454, 7857.385
702.9275, 7811.285
703.4096, 7762.689
703.8917, 7704.201
704.3738, 7654.561
704.8560, 7625.503
705.3381, 7606.839
705.8202, 7588.201
706.3023, 7567.307
706.7844, 7544.198
707.2665, 7519.133
707.7487, 7491.298
708.2308, 7456.667
708.7129, 7411.242
709.1950, 7378.274
709.6771, 7366.561
710.1592, 7359.956
710.6414, 7348.161
711.1235, 7333.849
711.6056, 7323.112
712.0877, 7318.899
712.5698, 7313.815
713.0519, 7297.847
713.5341, 7283.097
714.0162, 7287.184
714.4983, 7307.822
714.9804, 7328.868
715.4625, 7341.319
715.9446, 7348.085
716.4268, 7356.487
716.9089, 7369.081
717.3910, 7371.880
717.8731, 7361.956
718.3552, 7345.307
718.8373, 7328.996
719.3195, 7306.534
719.8016, 7265.505
720.2837, 7200.716
720.7658, 7136.862
721.2479, 7082.638
721.7300, 7037.470
722.2122, 7004.427
722.6943, 6980.141
723.1764, 6954.261
723.6585, 6922.301
724.1406, 6885.810
724.6227, 6845.056
725.1049, 6797.608
725.5870, 6768.512
726.0691, 6775.009
726.5512, 6771.971
727.0333, 6736.650
727.5154, 6689.337
727.9976, 6650.041
728.4797, 6620.476
728.9618, 6590.254
729.4439, 6551.908
729.9260, 6513.872
730.4081, 6484.408
730.8903, 6461.429
731.3724, 6440.780
731.8545, 6420.944
732.3366, 6399.183
732.8187, 6371.912
733.3008, 6339.833
733.7830, 6309.911
734.2651, 6278.604
734.7472, 6257.281
735.2293, 6261.191
735.7114, 6265.583
736.1935, 6249.928
736.6757, 6218.378
737.1578, 6192.114
737.6399, 6185.985
738.1220, 6175.960
738.6041, 6138.940
739.0862, 6090.456
739.5684, 6054.405
740.0505, 6034.455
740.5326, 6024.775
741.0147, 6022.662
741.4968, 6023.490
741.9789, 6010.451
742.4611, 5975.812
742.9432, 5956.387
743.4253, 5964.950
743.9074, 5977.759
744.3895, 5983.337
744.8716, 5983.148
745.3538, 5977.931
745.8359, 5963.824
746.3180, 5957.873
746.8001, 5975.708
747.2822, 5999.676
747.7643, 6011.877
748.2465, 6013.477
748.7286, 6012.978
749.2107, 6014.235
749.6928, 6016.998
750.1749, 6020.096
750.6570, 6023.276
751.1392, 6033.189
751.6213, 6052.051
752.1034, 6072.737
752.5855, 6093.415
753.0676, 6113.856
753.5497, 6132.933
754.0319, 6150.519
754.5140, 6170.672
754.9961, 6198.667
755.4782, 6224.933
755.9603, 6241.954
756.4424, 6253.994
756.9246, 6267.037
757.4067, 6282.823
757.8888, 6300.926
758.3709, 6320.815
758.8530, 6343.273
759.3351, 6371.665
759.8173, 6406.549
760.2994, 6442.204
760.7815, 6478.756
761.2636, 6513.047
761.7457, 6542.426
762.2278, 6566.995
762.7100, 6588.120
763.1921, 6604.151
763.6742, 6619.302
764.1563, 6631.629
764.6384, 6645.788
765.1205, 6667.606
765.6027, 6694.629
766.0848, 6718.570
766.5669, 6735.356
767.0490, 6752.927
767.5311, 6786.410
768.0132, 6831.230
768.4954, 6861.526
768.9775, 6875.053
769.4596, 6878.593
769.9417, 6871.021
770.4238, 6861.659
770.9059, 6867.702
771.3881, 6893.941
771.8702, 6916.732
772.3523, 6938.470
772.8344, 6954.138
773.3165, 6960.541
773.7986, 6960.717
774.2808, 6955.731
774.7629, 6947.193
775.2450, 6941.238
775.7271, 6943.224
776.2092, 6948.942
776.6913, 6953.370
777.1735, 6956.248
777.6556, 6955.636
778.1377, 6950.959
778.6198, 6947.155
779.1019, 6950.255
779.5840, 6956.538
780.0662, 6946.058
780.5483, 6907.522
781.0304, 6873.541
781.5125, 6845.992
781.9946, 6823.513
782.4767, 6809.751
782.9589, 6799.435
783.4410, 6782.977
783.9231, 6757.443
784.4052, 6728.405
784.8873, 6696.427
785.3694, 6664.608
785.8516, 6637.827
786.3337, 6614.978
786.8158, 6591.728
787.2979, 6566.341
787.7800, 6539.648
788.2621, 6513.238
788.7443, 6487.053
789.2264, 6452.639
789.7085, 6404.434
790.1906, 6363.875
790.6727, 6342.585
791.1548, 6325.824
791.6370, 6299.270
792.1191, 6263.889
792.6012, 6226.728
793.0833, 6184.511
793.5654, 6145.753
794.0475, 6122.260
794.5297, 6098.006
795.0118, 6051.547
795.4939, 5987.407
795.9760, 5928.230
796.4581, 5886.618
796.9402, 5854.388
797.4224, 5821.342
797.9045, 5787.103
798.3866, 5751.369
798.8687, 5714.968
799.3508, 5668.616
799.8329, 5602.875
800.3151, 5531.845
800.7972, 5483.930
801.2793, 5467.282
801.7614, 5441.112
802.2435, 5397.868
802.7256, 5355.298
803.2078, 5318.766
803.6899, 5285.374
804.1720, 5252.324
804.6541, 5219.142
805.1362, 5185.354
805.6183, 5151.636
806.1005, 5116.432
806.5826, 5077.053
807.0647, 5035.403
807.5468, 4994.796
808.0289, 4956.061
808.5110, 4922.014
808.9932, 4895.155
809.4753, 4872.347
809.9574, 4844.925
810.4395, 4811.893
810.9216, 4778.333
811.4037, 4746.167
811.8859, 4710.860
812.3680, 4664.766
812.8501, 4616.687
813.3322, 4580.793
813.8143, 4559.676
814.2964, 4536.385
814.7786, 4502.487
815.2607, 4470.040
815.7428, 4447.700
816.2249, 4430.514
816.7070, 4410.211
817.1891, 4386.207
817.6713, 4366.323
818.1534, 4359.625
818.6355, 4356.109
819.1176, 4333.554
819.5997, 4294.629
820.0818, 4260.536
820.5640, 4235.162
821.0461, 4213.770
821.5282, 4194.979
822.0103, 4175.438
822.4924, 4144.008
822.9745, 4086.770
823.4567, 4048.283
823.9388, 4045.739
824.4209, 4041.956
824.9030, 4020.149
825.3851, 3991.459
825.8672, 3973.256
826.3494, 3967.555
826.8315, 3954.183
827.3136, 3913.702
827.7957, 3871.277
828.2778, 3851.468
828.7599, 3844.170
829.2421, 3829.222
829.7242, 3803.792
830.2063, 3780.262
830.6884, 3768.600
831.1705, 3763.426
831.6526, 3751.165
832.1348, 3731.655
832.6169, 3710.989
833.0990, 3688.698
833.5811, 3669.185
834.0632, 3655.888
834.5453, 3646.307
835.0275, 3634.768
835.5096, 3620.529
835.9917, 3606.508
836.4738, 3593.042
836.9559, 3579.313
837.4380, 3562.911
837.9202, 3547.341
838.4023, 3539.124
838.8844, 3537.148
839.3665, 3529.293
839.8486, 3503.407
840.3307, 3475.804
840.8129, 3463.971
841.2950, 3462.355
841.7771, 3462.561
842.2592, 3462.013
842.7413, 3454.707
843.2234, 3436.216
843.7056, 3413.296
844.1877, 3400.439
844.6698, 3398.656
845.1519, 3395.523
845.6340, 3391.833
846.1161, 3382.990
846.5983, 3362.107
847.0804, 3339.663
847.5625, 3332.696
848.0446, 3342.474
848.5267, 3344.800
849.0089, 3332.265
849.4910, 3320.466
849.9731, 3314.751
850.4552, 3310.801
850.9373, 3303.593
851.4194, 3294.409
851.9016, 3289.128
852.3837, 3291.412
852.8658, 3294.116
853.3479, 3290.193
853.8300, 3282.493
854.3121, 3276.749
854.7943, 3272.445
855.2764, 3263.343
855.7585, 3246.714
856.2406, 3231.520
856.7227, 3231.571
857.2048, 3244.954
857.6870, 3244.844
858.1691, 3227.108
858.6512, 3212.098
859.1333, 3205.137
859.6154, 3201.916
860.0975, 3200.433
860.5797, 3199.753
861.0618, 3194.732
861.5439, 3181.953
862.0260, 3170.703
862.5081, 3160.946
862.9902, 3153.973
863.4724, 3152.289
863.9545, 3153.254
864.4366, 3152.272
864.9187, 3148.301
865.4008, 3145.285
865.8829, 3145.220
866.3651, 3147.957
866.8472, 3157.648
867.3293, 3169.219
867.8114, 3168.366
868.2935, 3153.487
868.7756, 3138.337
869.2578, 3133.424
869.7399, 3135.323
870.2220, 3137.076
870.7041, 3138.911
871.1862, 3133.503
871.6683, 3117.456
872.1505, 3104.114
872.6326, 3099.671
873.1147, 3102.780
873.5968, 3113.496
874.0789, 3135.687
874.5610, 3144.196
875.0432, 3129.504
875.5253, 3114.320
876.0074, 3101.026
876.4895, 3091.443
876.9716, 3089.334
877.4537, 3092.327
877.9359, 3090.565
878.4180, 3075.076
878.9001, 3068.352
879.3822, 3101.003
879.8643, 3137.575
880.3464, 3129.457
880.8286, 3090.134
881.3107, 3065.119
881.7928, 3070.459
882.2749, 3084.128
882.7570, 3081.025
883.2391, 3068.388
883.7213, 3070.627
884.2034, 3086.812
884.6855, 3102.073
885.1676, 3113.383
885.6497, 3120.019
886.1318, 3120.612
886.6140, 3117.093
887.0961, 3116.254
887.5782, 3120.129
888.0603, 3121.417
888.5424, 3119.451
889.0245, 3115.725
889.5067, 3106.096
889.9888, 3097.839
890.4709, 3101.493
890.9530, 3117.276
891.4351, 3129.485
891.9172, 3130.894
892.3994, 3133.173
892.8815, 3144.321
893.3636, 3156.100
893.8457, 3160.674
894.3278, 3158.386
894.8099, 3151.548
895.2921, 3140.174
895.7742, 3132.918
896.2563, 3142.542
896.7384, 3159.386
897.2205, 3165.650
897.7026, 3163.356
898.1848, 3162.946
898.6669, 3167.803
899.1490, 3176.563
899.6311, 3188.627
900.1132, 3202.638
900.5953, 3213.992
901.0775, 3222.895
901.5596, 3225.632
902.0417, 3219.498
902.5238, 3213.788
903.0059, 3212.117
903.4880, 3216.356
903.9702, 3231.927
904.4523, 3263.587
904.9344, 3287.134
905.4165, 3299.113
905.8986, 3307.393
906.3807, 3313.566
906.8629, 3316.931
907.3450, 3313.591
907.8271, 3306.385
908.3092, 3306.554
908.7913, 3319.988
909.2734, 3334.894
909.7556, 3349.200
910.2377, 3360.037
910.7198, 3361.274
911.2019, 3358.114
911.6840, 3361.251
912.1661, 3373.479
912.6483, 3387.831
913.1304, 3398.419
913.6125, 3407.688
914.0946, 3420.735
914.5767, 3435.744
915.0588, 3445.525
915.5410, 3449.516
916.0231, 3455.489
916.5052, 3468.807
916.9873, 3473.422
917.4694, 3492.159
917.9515, 3491.032
918.4337, 3496.246
918.9158, 3509.037
919.3979, 3523.037
919.8800, 3536.618
920.3621, 3549.413
920.8442, 3560.663
921.3264, 3570.613
921.8085, 3581.354
922.2906, 3592.866
922.7727, 3605.325
923.2548, 3620.695
923.7369, 3634.890
924.2191, 3644.312
924.7012, 3652.096
925.1833, 3663.593
925.6654, 3679.626
926.1475, 3693.734
926.6296, 3697.219
927.1118, 3706.266
927.5939, 3739.717
928.0760, 3775.583
928.5581, 3785.052
929.0402, 3773.662
929.5223, 3768.762
930.0045, 3782.707
930.4866, 3803.609
930.9687, 3823.571
931.4508, 3841.901
931.9329, 3855.505
932.4150, 3866.484
932.8972, 3882.872
933.3793, 3906.100
933.8614, 3927.029
934.3435, 3936.508
934.8256, 3956.644
935.3077, 3971.784
935.7899, 3983.339
936.2720, 4001.378
936.7541, 4007.763
937.2362, 4016.665
937.7183, 4035.801
938.2004, 4058.531
938.6826, 4074.275
939.1647, 4082.793
939.6468, 4097.442
940.1289, 4119.853
940.6110, 4144.878
941.0931, 4177.287
941.5753, 4204.256
942.0574, 4210.632
942.5395, 4205.874
943.0216, 4217.489
943.5037, 4254.472
943.9858, 4280.308
944.4680, 4279.191
944.9501, 4282.224
945.4322, 4302.007
945.9143, 4330.968
946.3964, 4365.936
946.8785, 4403.120
947.3607, 4429.763
947.8428, 4436.492
948.3249, 4443.708
948.8070, 4465.899
949.2891, 4490.499
949.7712, 4503.110
950.2534, 4509.466
950.7355, 4522.136
951.2176, 4544.226
951.6997, 4570.169
952.1818, 4598.013
952.6639, 4624.332
953.1461, 4640.885
953.6282, 4653.059
954.1103, 4674.089
954.5924, 4704.428
955.0745, 4737.766
955.5566, 4771.341
956.0388, 4799.180
956.5209, 4809.663
957.0030, 4807.820
957.4851, 4818.655
957.9672, 4842.249
958.4493, 4876.916
958.9315, 4924.366
959.4136, 4966.679
959.8957, 4989.520
960.3778, 5000.683
960.8599, 5020.255
961.3420, 5049.692
961.8242, 5079.889
962.3063, 5111.282
962.7884, 5142.285
963.2705, 5173.946
963.7526, 5202.659
964.2347, 5222.913
964.7169, 5236.299
965.1990, 5254.924
965.6811, 5278.273
966.1632, 5307.800
966.6453, 5350.007
967.1274, 5390.887
967.6096, 5427.133
968.0917, 5457.491
968.5738, 5476.985
969.0559, 5486.585
969.5380, 5503.767
970.0201, 5538.440
970.5023, 5574.000
970.9844, 5608.367
971.4665, 5638.006
971.9486, 5654.743
972.4307, 5666.514
972.9128, 5689.938
973.3950, 5729.165
973.8771, 5770.087
974.3592, 5805.968
974.8413, 5838.824
975.3234, 5870.345
975.8055, 5900.179
976.2877, 5924.911
976.7698, 5947.165
977.2519, 5976.695
977.7340, 6018.216
978.2161, 6063.679
978.6982, 6106.489
979.1804, 6145.977
979.6625, 6178.462
980.1446, 6205.966
980.6267, 6234.334
981.1088, 6265.375
981.5909, 6303.077
982.0731, 6350.778
982.5552, 6403.253
983.0373, 6455.731
983.5194, 6505.962
984.0015, 6533.820
984.4836, 6539.000
984.9658, 6549.566
985.4479, 6574.222
985.9300, 6608.555
986.4121, 6650.092
986.8942, 6695.605
987.3763, 6731.259
987.8585, 6754.430
988.3406, 6786.240
988.8227, 6830.400
989.3048, 6874.253
989.7869, 6912.272
990.2690, 6947.745
990.7512, 6984.316
991.2333, 7021.810
991.7154, 7056.788
992.1975, 7083.802
992.6796, 7120.384
993.1617, 7176.052
993.6439, 7229.714
994.1260, 7271.563
994.6081, 7306.013
995.0902, 7337.647
995.5723, 7366.179
996.0544, 7400.656
996.5366, 7448.159
997.0187, 7492.255
997.5008, 7528.116
997.9829, 7562.142
998.4650, 7597.916
998.9471, 7634.965
999.4293, 7670.763
999.9114, 7704.811
1000.393, 7743.358
1000.876, 7792.715
1001.358, 7840.807
1001.840, 7877.525
1002.322, 7914.588
1002.804, 7964.206
1003.286, 8022.564
1003.768, 8080.692
1004.250, 8136.150
1004.733, 8186.967
1005.215, 8226.600
1005.697, 8266.796
1006.179, 8319.494
1006.661, 8375.763
1007.143, 8425.410
1007.625, 8466.973
1008.107, 8500.482
1008.589, 8524.847
1009.072, 8553.825
1009.554, 8602.077
1010.036, 8658.297
1010.518, 8710.827
1011.000, 8760.228
1011.482, 8808.933
1011.964, 8857.322
1012.446, 8905.045
1012.929, 8952.347
1013.411, 8998.787
1013.893, 9045.064
1014.375, 9089.699
1014.857, 9127.985
1015.339, 9162.104
1015.821, 9196.719
1016.303, 9234.644
1016.785, 9290.356
1017.268, 9376.730
1017.750, 9467.604
1018.232, 9515.202
1018.714, 9531.030
1019.196, 9561.431
1019.678, 9607.147
1020.160, 9665.034
1020.642, 9734.247
1021.125, 9792.949
1021.607, 9821.732
1022.089, 9836.928
1022.571, 9877.096
1023.053, 9941.146
1023.535, 10002.86
1024.017, 10061.24
1024.499, 10120.11
1024.981, 10181.08
1025.464, 10241.56
1025.946, 10299.18
1026.428, 10354.02
1026.910, 10404.16
1027.392, 10447.98
1027.874, 10504.50
1028.356, 10577.33
1028.838, 10648.18
1029.321, 10710.28
1029.803, 10769.47
1030.285, 10831.87
1030.767, 10896.81
1031.249, 10962.01
1031.731, 11029.64
1032.213, 11089.02
1032.695, 11136.67
1033.177, 11184.34
1033.660, 11235.46
1034.142, 11289.08
1034.624, 11342.48
1035.106, 11397.68
1035.588, 11466.35
1036.070, 11562.62
1036.552, 11637.39
1037.034, 11676.19
1037.516, 11717.25
1037.999, 11778.87
1038.481, 11843.99
1038.963, 11888.50
1039.445, 11917.77
1039.927, 11974.02
1040.409, 12090.49
1040.891, 12175.12
1041.373, 12195.24
1041.855, 12224.45
1042.338, 12297.14
1042.820, 12385.83
1043.302, 12464.60
1043.784, 12534.25
1044.266, 12604.18
1044.748, 12680.46
1045.230, 12746.96
1045.712, 12793.18
1046.195, 12840.85
1046.677, 12894.39
1047.159, 12956.94
1047.641, 13037.40
1048.123, 13131.81
1048.605, 13215.37
1049.087, 13280.19
1049.569, 13344.37
1050.052, 13407.20
1050.534, 13473.20
1051.016, 13545.34
1051.498, 13620.91
1051.980, 13696.72
1052.462, 13772.85
1052.944, 13851.42
1053.426, 13928.43
1053.908, 14017.30
1054.391, 14130.60
1054.873, 14244.82
1055.355, 14352.19
1055.837, 14451.58
1056.319, 14533.93
1056.801, 14606.45
1057.283, 14705.01
1057.765, 14850.57
1058.248, 14991.36
1058.730, 15110.90
1059.212, 15224.17
1059.694, 15337.09
1060.176, 15450.15
1060.658, 15560.97
1061.140, 15672.13
1061.622, 15795.12
1062.104, 15938.16
1062.587, 16077.17
1063.069, 16196.10
1063.551, 16316.03
1064.033, 16454.14
1064.515, 16596.52
1064.997, 16725.53
1065.479, 16842.93
1065.961, 16961.00
1066.443, 17077.84
1066.926, 17213.76
1067.408, 17387.99
1067.890, 17570.74
1068.372, 17744.68
1068.854, 17917.98
1069.336, 18106.36
1069.818, 18303.44
1070.300, 18486.01
1070.782, 18644.85
1071.265, 18806.15
1071.747, 18992.96
1072.229, 19173.85
1072.711, 19323.33
1073.193, 19462.34
1073.675, 19619.40
1074.157, 19784.38
1074.639, 19922.80
1075.122, 20023.07
1075.604, 20113.60
1076.086, 20200.46
1076.568, 20289.81
1077.050, 20372.76
1077.532, 20469.99
1078.014, 20599.54
1078.496, 20761.96
1078.979, 20952.66
1079.461, 21170.86
1079.943, 21410.99
1080.425, 21659.67
1080.907, 21940.54
1081.389, 22308.71
1081.871, 22677.32
1082.353, 22978.53
1082.835, 23209.07
1083.318, 23380.36
1083.800, 23494.96
1084.282, 23547.08
1084.764, 23535.96
1085.246, 23459.09
1085.728, 23282.84
1086.210, 23070.18
1086.692, 22849.39
1087.175, 22643.38
1087.657, 22489.55
1088.139, 22391.51
1088.621, 22301.25
1089.103, 22187.03
1089.585, 22094.50
1090.067, 22048.40
1090.549, 22026.23
1091.031, 22002.58
1091.514, 21995.56
1091.996, 22037.51
1092.478, 22129.22
1092.960, 22239.93
1093.442, 22376.17
1093.924, 22498.18
1094.406, 22597.14
1094.888, 22672.04
1095.370, 22697.26
1095.853, 22714.75
1096.335, 22777.02
1096.817, 22883.89
1097.299, 23003.41
1097.781, 23138.26
1098.263, 23257.41
1098.745, 23322.01
1099.227, 23403.19
1099.709, 23552.12
1100.192, 23726.55
1100.674, 23882.81
1101.156, 24022.50
1101.638, 24164.92
1102.120, 24315.12
1102.602, 24462.48
1103.084, 24594.02
1103.566, 24735.74
1104.049, 24911.58
1104.531, 25089.72
1105.013, 25235.35
1105.495, 25364.06
1105.977, 25518.68
1106.459, 25709.30
1106.941, 25893.93
1107.423, 26049.53
1107.906, 26221.08
1108.388, 26445.11
1108.870, 26662.81
1109.352, 26824.51
1109.834, 26957.89
1110.316, 27113.94
1110.798, 27298.53
1111.280, 27465.74
1111.762, 27599.29
1112.245, 27736.07
1112.727, 27871.48
1113.209, 28022.71
1113.691, 28209.69
1114.173, 28409.01
1114.655, 28590.54
1115.137, 28755.17
1115.619, 28928.05
1116.102, 29102.35
1116.584, 29296.27
1117.066, 29525.68
1117.548, 29750.64
1118.030, 29958.00
1118.512, 30155.32
1118.994, 30346.24
1119.476, 30534.88
1119.958, 30739.10
1120.441, 30964.99
1120.923, 31186.83
1121.405, 31398.88
1121.887, 31618.35
1122.369, 31850.62
1122.851, 32089.02
1123.333, 32336.21
1123.815, 32577.82
1124.297, 32775.27
1124.780, 32920.21
1125.262, 33127.17
1125.744, 33416.12
1126.226, 33689.16
1126.708, 33925.16
1127.190, 34157.63
1127.672, 34402.33
1128.154, 34660.40
1128.636, 34936.55
1129.119, 35227.60
1129.601, 35500.92
1130.083, 35756.07
1130.565, 36010.60
1131.047, 36263.80
1131.529, 36530.09
1132.011, 36814.39
1132.493, 37109.41
1132.976, 37408.73
1133.458, 37710.84
1133.940, 38009.11
1134.422, 38305.68
1134.904, 38629.39
1135.386, 38978.77
1135.868, 39305.20
1136.350, 39596.07
1136.833, 39881.29
1137.315, 40181.91
1137.797, 40500.63
1138.279, 40851.16
1138.761, 41220.91
1139.243, 41553.23
1139.725, 41913.81
1140.207, 42279.11
1140.689, 42614.40
1141.172, 43001.17
1141.654, 43347.09
1142.136, 43678.72
1142.618, 44014.98
1143.100, 44362.14
1143.582, 44725.03
1144.064, 45108.52
1144.546, 45534.70
1145.029, 45991.46
1145.511, 46434.88
1145.993, 46856.60
1146.475, 47292.92
1146.957, 47781.57
1147.439, 48261.61
1147.921, 48649.61
1148.403, 49015.29
1148.885, 49440.38
1149.368, 49902.08
1149.850, 50351.25
1150.332, 50782.70
1150.814, 51225.92
1151.296, 51688.38
1151.778, 52171.09
1152.260, 52677.37
1152.742, 53196.63
1153.224, 53727.80
1153.707, 54269.69
1154.189, 54838.40
1154.671, 55414.29
1155.153, 55950.76
1155.635, 56440.17
1156.117, 56928.50
1156.599, 57394.72
1157.081, 57913.27
1157.563, 58551.49
1158.046, 59200.57
1158.528, 59774.11
1159.010, 60326.93
1159.492, 60946.38
1159.974, 61624.54
1160.456, 62284.70
1160.938, 62900.12
1161.420, 63535.68
1161.903, 64185.77
1162.385, 64865.30
1162.867, 65600.79
1163.349, 66341.26
1163.831, 67042.13
1164.313, 67722.73
1164.795, 68418.36
1165.277, 69127.79
1165.760, 69886.92
1166.242, 70714.34
1166.724, 71531.41
1167.206, 72314.13
1167.688, 73111.30
1168.170, 73945.65
1168.652, 74804.05
1169.134, 75667.63
1169.616, 76535.63
1170.099, 77390.97
1170.581, 78234.73
1171.063, 79104.24
1171.545, 80004.80
1172.027, 80948.57
1172.509, 81947.13
1172.991, 82987.93
1173.473, 84068.66
1173.956, 85158.73
1174.438, 86212.04
1174.920, 87230.95
1175.402, 88176.20
1175.884, 89084.45
1176.366, 90098.64
1176.848, 91224.39
1177.330, 92342.95
1177.813, 93408.02
1178.295, 94491.45
1178.777, 95668.66
1179.259, 96905.17
1179.741, 98210.62
1180.223, 99507.57
1180.705, 100654.5
1181.187, 101704.9
1181.669, 102750.0
1182.151, 103816.4
1182.634, 104919.3
1183.116, 106066.0
1183.598, 107227.8
1184.080, 108386.7
1184.562, 109548.6
1185.044, 110726.5
1185.526, 111899.5
1186.008, 113046.0
1186.490, 114174.3
1186.973, 115326.4
1187.455, 116509.8
1187.937, 117620.6
1188.419, 118567.0
1188.901, 119554.3
1189.383, 120669.0
1189.865, 121785.1
1190.347, 122852.9
1190.830, 123873.0
1191.312, 124851.0
1191.794, 125781.1
1192.276, 126635.3
1192.758, 127379.9
1193.240, 128175.6
1193.722, 129046.0
1194.204, 129892.2
1194.687, 130690.9
1195.169, 131468.7
1195.651, 132254.6
1196.133, 133007.2
1196.615, 133656.8
1197.097, 134216.9
1197.579, 134766.6
1198.061, 135312.0
1198.543, 135945.2
1199.026, 136662.3
1199.508, 137224.5
1199.990, 137557.1
1200.472, 137899.6
1200.954, 138446.4
1201.436, 139059.4
1201.918, 139554.3
1202.400, 139953.5
1202.883, 140252.8
1203.365, 140508.5
1203.847, 140850.3
1204.329, 141274.7
1204.811, 141711.0
1205.293, 142129.3
1205.775, 142494.8
1206.257, 142767.3
1206.740, 143002.5
1207.222, 143232.3
1207.704, 143452.1
1208.186, 143625.5
1208.668, 143806.6
1209.150, 144099.8
1209.632, 144484.9
1210.114, 144822.1
1210.596, 145081.4
1211.078, 145286.3
1211.561, 145342.3
1212.043, 145482.8
1212.525, 145849.7
1213.007, 146244.8
1213.489, 146548.0
1213.971, 146793.3
1214.453, 147014.8
1214.935, 147216.6
1215.417, 147492.7
1215.900, 147860.2
1216.382, 148237.5
1216.864, 148626.8
1217.346, 148985.4
1217.828, 149300.3
1218.310, 149574.5
1218.792, 149803.1
1219.274, 150039.0
1219.757, 150399.2
1220.239, 150852.6
1220.721, 151229.8
1221.203, 151562.3
1221.685, 152017.7
1222.167, 152592.7
1222.649, 153142.7
1223.131, 153620.9
1223.614, 154087.3
1224.096, 154572.7
1224.578, 155112.5
1225.060, 155751.9
1225.542, 156460.6
1226.024, 157249.0
1226.506, 158048.1
1226.988, 158732.5
1227.470, 159330.8
1227.953, 159965.0
1228.435, 160663.7
1228.917, 161397.2
1229.399, 162185.3
1229.881, 162952.8
1230.363, 163623.6
1230.845, 164333.5
1231.327, 165177.5
1231.810, 166092.1
1232.292, 167038.1
1232.774, 167991.0
1233.256, 168839.9
1233.738, 169541.0
1234.220, 170332.8
1234.702, 171247.1
1235.184, 172136.0
1235.667, 172968.5
1236.149, 173782.7
1236.631, 174595.6
1237.113, 175392.5
1237.595, 176153.4
1238.077, 176896.2
1238.559, 177711.7
1239.041, 178570.2
1239.523, 179293.0
1240.005, 179913.6
1240.488, 180613.1
1240.970, 181415.5
1241.452, 182193.5
1241.934, 182890.2
1242.416, 183601.8
1242.898, 184493.5
1243.380, 185356.7
1243.862, 185923.8
1244.344, 186401.9
1244.827, 187016.0
1245.309, 187725.2
1245.791, 188442.8
1246.273, 189150.0
1246.755, 189863.3
1247.237, 190648.5
1247.719, 191224.9
1248.201, 191313.3
1248.684, 191493.3
1249.166, 192047.3
1249.648, 192606.6
1250.130, 192918.1
1250.612, 193165.6
1251.094, 193622.3
1251.576, 194239.2
1252.058, 194689.5
1252.541, 194961.0
1253.023, 195134.6
1253.505, 195199.7
1253.987, 195328.2
1254.469, 195559.2
1254.951, 195918.3
1255.433, 196428.2
1255.915, 196927.6
1256.397, 197219.2
1256.880, 197370.1
1257.362, 197452.0
1257.844, 197523.4
1258.326, 197704.7
1258.808, 197974.6
1259.290, 198293.0
1259.772, 198626.5
1260.254, 198890.4
1260.737, 199038.2
1261.219, 199214.0
1261.701, 199594.6
1262.183, 199888.3
1262.665, 199789.1
1263.147, 199728.1
1263.629, 200098.2
1264.111, 200649.6
1264.594, 201039.4
1265.076, 201270.7
1265.558, 201436.8
1266.040, 201505.1
1266.522, 201616.3
1267.004, 201756.8
1267.486, 201995.7
1267.968, 202365.5
1268.450, 202742.0
1268.932, 203061.2
1269.415, 203369.0
1269.897, 203726.0
1270.379, 204096.5
1270.861, 204385.3
1271.343, 204622.6
1271.825, 204856.3
1272.307, 205130.1
1272.789, 205604.6
1273.271, 206243.3
1273.754, 206789.3
1274.236, 207151.4
1274.718, 207512.5
1275.200, 207961.5
1275.682, 208495.1
1276.164, 209113.8
1276.646, 209813.0
1277.128, 210667.6
1277.611, 211539.5
1278.093, 212230.8
1278.575, 212808.8
1279.057, 213502.0
1279.539, 214338.1
1280.021, 215192.7
1280.503, 215957.6
1280.985, 216949.8
1281.468, 218336.5
1281.950, 219670.7
1282.432, 220763.8
1282.914, 221842.4
1283.396, 223095.3
1283.878, 224508.4
1284.360, 226098.5
1284.842, 227720.2
1285.324, 228987.5
##END=



