##NAMES=Dundasite
##RRUFFID=R060760
##IDEAL CHEMISTRY=Pb^2+^Al_2_(CO_3_)_2_(OH)_4_&#183;H_2_O
##LOCALITY=Daoping mine, Guangxi, China
##OWNER=RRUFF
##SOURCE=Michael Scott
##DESCRIPTION=Spherical aggregates of pale green acicular crystals, associated with colorless cerussite, anglesite, and blue linarite R120094.
##STATUS=The identification of this mineral has been made only by X-ray diffraction.
##URL=rruff.info/R060760
122.9209, 0.0000000E+00
123.4030, 6.429810
123.8851, 7.778809
124.3672, 3.005615
124.8493, 4.2114001E-02
125.3315, 1.077393
125.8136, 2.544189
126.2957, 4.717163
126.7778, 6.789673
127.2599, 8.282349
127.7420, 9.132446
128.2242, 9.741699
128.7063, 10.71167
129.1884, 12.61035
129.6705, 13.82458
130.1526, 14.01965
130.6347, 13.72546
131.1169, 12.67419
131.5990, 10.83411
132.0811, 8.846069
132.5632, 7.596802
133.0453, 7.787109
133.5274, 8.010864
134.0096, 8.441895
134.4917, 8.694702
134.9738, 7.855835
135.4559, 5.335205
135.9380, 1.832764
136.4201, 0.2106930
136.9023, 0.1949460
137.3844, 0.1414790
137.8665, 9.3262002E-02
138.3486, 0.6995850
138.8307, 0.6773680
139.3128, 1.026855
139.7950, 3.540039
140.2771, 4.805054
140.7592, 4.105591
141.2413, 2.751831
141.7234, 2.114624
142.2055, 2.350708
142.6877, 2.481323
143.1698, 1.210693
143.6519, 0.3049320
144.1340, 0.5271000
144.6161, 1.737061
145.0982, 5.316650
145.5803, 7.053345
146.0625, 5.821289
146.5446, 4.387573
147.0267, 3.358032
147.5088, 2.854614
147.9909, 3.146484
148.4730, 4.636597
148.9552, 7.222900
149.4373, 8.749268
149.9194, 8.435791
150.4015, 7.678589
150.8836, 6.408447
151.3657, 4.919434
151.8479, 3.694946
152.3300, 3.174805
152.8121, 3.420898
153.2942, 4.017578
153.7763, 5.415649
154.2584, 6.700806
154.7406, 7.500732
155.2227, 7.746704
155.7048, 7.442749
156.1869, 6.395508
156.6690, 4.067383
157.1511, 3.370972
157.6333, 5.898804
158.1154, 9.130493
158.5975, 10.73730
159.0796, 10.20264
159.5617, 8.755371
160.0438, 7.942749
160.5260, 7.805542
161.0081, 7.498413
161.4902, 6.226563
161.9723, 4.756104
162.4544, 4.717407
162.9365, 6.930054
163.4187, 9.718262
163.9008, 11.03210
164.3829, 10.95020
164.8650, 10.83240
165.3471, 11.77222
165.8292, 13.52234
166.3113, 14.31226
166.7935, 12.69995
167.2756, 10.99194
167.7577, 11.04248
168.2398, 12.88721
168.7219, 15.21729
169.2040, 16.69971
169.6862, 17.14282
170.1683, 17.97815
170.6504, 20.76208
171.1325, 23.07642
171.6146, 23.01807
172.0967, 20.38135
172.5789, 17.12500
173.0610, 16.46802
173.5431, 20.58472
174.0252, 22.24268
174.5073, 19.26233
174.9894, 15.16833
175.4716, 12.69275
175.9537, 12.66479
176.4358, 13.75806
176.9179, 13.18188
177.4000, 8.084229
177.8821, 5.331055
178.3643, 6.988037
178.8464, 10.15771
179.3285, 11.84888
179.8106, 10.84424
180.2927, 8.168213
180.7748, 6.644775
181.2570, 6.998291
181.7391, 7.422729
182.2212, 7.750244
182.7033, 8.022583
183.1854, 8.462402
183.6675, 9.148560
184.1497, 9.937622
184.6318, 10.34204
185.1139, 10.15137
185.5960, 9.976318
186.0781, 10.22327
186.5602, 10.67834
187.0423, 10.53955
187.5245, 8.938721
188.0066, 6.997314
188.4887, 7.356567
188.9708, 11.26514
189.4529, 15.19495
189.9350, 16.88721
190.4172, 16.46985
190.8993, 15.39673
191.3814, 13.66370
191.8635, 11.99573
192.3456, 11.55310
192.8277, 13.01892
193.3099, 14.58411
193.7920, 14.14624
194.2741, 11.37415
194.7562, 8.915283
195.2383, 7.947144
195.7204, 7.793335
196.2026, 8.155151
196.6847, 9.157959
197.1668, 10.23889
197.6489, 10.36304
198.1310, 9.185303
198.6131, 8.054688
199.0953, 7.788208
199.5774, 7.551880
200.0595, 6.450684
200.5416, 4.052734
201.0237, 1.151855
201.5058, 0.4868160
201.9880, 0.4066160
202.4701, 0.2651370
202.9522, 1.908325
203.4343, 3.657593
203.9164, 4.501099
204.3985, 3.948120
204.8807, 2.568970
205.3628, 2.078003
205.8449, 3.119995
206.3270, 4.306274
206.8091, 6.324341
207.2912, 8.114624
207.7733, 7.972900
208.2555, 4.974243
208.7376, 0.4394530
209.2197, 0.7976070
209.7018, 6.271851
210.1839, 11.05310
210.6660, 11.04248
211.1482, 8.421875
211.6303, 6.170410
212.1124, 5.803833
212.5945, 6.927368
213.0766, 7.963623
213.5587, 9.388550
214.0409, 10.20557
214.5230, 9.659546
215.0051, 8.412354
215.4872, 7.728149
215.9693, 8.346069
216.4514, 9.798950
216.9336, 10.23682
217.4157, 8.502686
217.8978, 7.462646
218.3799, 8.623657
218.8620, 11.24573
219.3441, 13.48389
219.8263, 14.41504
220.3084, 14.42261
220.7905, 14.56873
221.2726, 14.67493
221.7547, 15.17334
222.2368, 16.73169
222.7190, 19.01807
223.2011, 20.58838
223.6832, 20.49182
224.1653, 19.58813
224.6474, 19.61157
225.1295, 20.84290
225.6117, 22.29443
226.0938, 23.15881
226.5759, 23.54504
227.0580, 24.34839
227.5401, 25.83154
228.0222, 28.02893
228.5043, 31.37427
228.9865, 36.41052
229.4686, 40.41870
229.9507, 40.52185
230.4328, 36.75391
230.9149, 32.94604
231.3970, 29.58228
231.8792, 27.21826
232.3613, 26.54626
232.8434, 27.74731
233.3255, 29.49316
233.8076, 30.98901
234.2897, 32.35986
234.7719, 32.02051
235.2540, 26.96716
235.7361, 21.84497
236.2182, 20.16858
236.7003, 22.31238
237.1824, 25.01587
237.6646, 24.25635
238.1467, 19.13672
238.6288, 15.58276
239.1109, 16.15979
239.5930, 17.30298
240.0751, 17.16113
240.5573, 15.52612
241.0394, 13.38232
241.5215, 11.69397
242.0036, 10.34973
242.4857, 9.893555
242.9678, 11.04553
243.4500, 12.51538
243.9321, 14.19336
244.4142, 15.77930
244.8963, 16.45447
245.3784, 14.89783
245.8605, 10.11108
246.3427, 6.802490
246.8248, 5.690063
247.3069, 5.350708
247.7890, 5.308350
248.2711, 5.440063
248.7532, 5.763916
249.2354, 6.363892
249.7175, 7.401855
250.1996, 8.027954
250.6817, 8.275024
251.1638, 8.157227
251.6459, 7.586304
252.1281, 6.617554
252.6102, 5.371216
253.0923, 3.838867
253.5744, 1.786499
254.0565, 0.9772950
254.5386, 2.826416
255.0208, 4.371704
255.5029, 3.576782
255.9850, 1.031982
256.4671, 0.8288570
256.9492, 0.3563230
257.4313, 5.057373
257.9135, 7.093628
258.3956, 4.794678
258.8777, 2.097778
259.3598, 0.4294430
259.8419, 0.2125240
260.3240, 0.3831790
260.8062, 0.5009770
261.2883, 0.5559080
261.7704, 0.1147460
262.2525, 1.525391
262.7346, 2.860718
263.2167, 3.210815
263.6989, 2.756104
264.1810, 2.017090
264.6631, 1.293213
265.1452, 0.5905760
265.6273, 7.1410999E-02
266.1094, 1.353149
266.5916, 1.889282
267.0737, 0.8679200
267.5558, 1.268677
268.0379, 3.541382
268.5200, 5.505493
269.0021, 7.276489
269.4843, 9.311523
269.9664, 13.37366
270.4485, 15.58655
270.9306, 13.41638
271.4127, 8.726929
271.8948, 4.803833
272.3770, 2.950562
272.8591, 2.782471
273.3412, 3.645874
273.8233, 6.076172
274.3054, 8.189453
274.7875, 9.409668
275.2697, 9.912598
275.7518, 10.01086
276.2339, 9.802002
276.7160, 9.258545
277.1981, 7.917725
277.6802, 5.204224
278.1623, 4.066284
278.6444, 6.347046
279.1266, 10.47876
279.6087, 14.12292
280.0908, 16.82397
280.5729, 18.45471
281.0550, 18.41040
281.5371, 16.76074
282.0193, 15.00610
282.5014, 13.39099
282.9835, 11.94434
283.4656, 10.69751
283.9477, 9.657471
284.4298, 8.821289
284.9120, 8.280884
285.3941, 7.990356
285.8762, 7.713745
286.3583, 7.549927
286.8404, 7.293945
287.3225, 6.451782
287.8047, 4.873779
288.2868, 3.660522
288.7689, 3.944214
289.2510, 5.373779
289.7331, 6.700073
290.2152, 7.958130
290.6974, 8.883911
291.1795, 8.968628
291.6616, 8.176147
292.1437, 7.561646
292.6258, 8.081055
293.1079, 9.200806
293.5901, 9.569824
294.0722, 8.754272
294.5543, 7.497681
295.0364, 6.082886
295.5185, 4.549927
296.0006, 3.755615
296.4828, 4.261230
296.9649, 5.730713
297.4470, 7.620850
297.9291, 10.37524
298.4112, 12.45007
298.8933, 12.36450
299.3755, 10.44592
299.8576, 8.619873
300.3397, 7.260498
300.8218, 6.600830
301.3039, 7.005127
301.7860, 8.627930
302.2682, 10.12146
302.7503, 10.87573
303.2324, 10.92773
303.7145, 10.25439
304.1966, 8.423706
304.6787, 6.588745
305.1609, 6.112427
305.6430, 6.840332
306.1251, 7.542480
306.6072, 7.767212
307.0893, 7.598755
307.5714, 7.120850
308.0536, 6.221680
308.5357, 5.360107
309.0178, 4.999268
309.4999, 4.994995
309.9820, 5.007568
310.4641, 4.746704
310.9463, 4.510376
311.4284, 4.975952
311.9105, 6.348999
312.3926, 7.318726
312.8747, 6.327148
313.3568, 4.463135
313.8390, 3.766602
314.3211, 5.441040
314.8032, 7.575073
315.2853, 7.811646
315.7674, 6.102783
316.2495, 4.972412
316.7317, 5.859863
317.2138, 7.875977
317.6959, 9.708252
318.1780, 11.40381
318.6601, 12.54309
319.1422, 12.63574
319.6243, 11.74939
320.1064, 10.74927
320.5886, 9.650635
321.0707, 8.817261
321.5528, 9.061646
322.0349, 10.54565
322.5170, 10.98645
322.9991, 8.162598
323.4813, 3.309448
323.9634, 0.1170650
324.4455, 1.349854
324.9276, 1.212891
325.4097, 7.8491002E-02
325.8918, 1.829102
326.3740, 3.403442
326.8561, 4.793335
327.3382, 5.455811
327.8203, 5.771507
328.3024, 5.860835
328.7845, 4.557129
329.2667, 4.657349
329.7488, 2.117310
330.2309, 0.2701420
330.7130, 2.350952
331.1951, 3.802246
331.6772, 4.063232
332.1594, 3.146973
332.6415, 2.128052
333.1236, 1.514648
333.6057, 1.103027
334.0878, 0.5477290
334.5699, 0.3562010
335.0521, 1.015015
335.5342, 1.073120
336.0163, 0.5722660
336.4984, 0.4692380
336.9805, 2.463501
337.4626, 4.394287
337.9448, 4.419189
338.4269, 2.262939
338.9090, 0.5581050
339.3911, 0.7496340
339.8732, 2.092651
340.3553, 3.211182
340.8375, 3.751465
341.3196, 3.979004
341.8017, 4.006226
342.2838, 3.853882
342.7659, 3.703857
343.2480, 3.472412
343.7302, 3.324219
344.2123, 3.583130
344.6944, 4.278076
345.1765, 4.769287
345.6586, 4.261841
346.1407, 3.056396
346.6229, 3.023193
347.1050, 5.537354
347.5871, 8.009033
348.0692, 9.003174
348.5513, 8.653809
349.0334, 7.343262
349.5156, 4.964355
349.9977, 2.078857
350.4798, 0.5643310
350.9619, 0.8270260
351.4440, 1.366821
351.9261, 1.951172
352.4083, 2.464966
352.8904, 2.716187
353.3725, 2.653198
353.8546, 2.360352
354.3367, 1.773682
354.8188, 0.7374270
355.3010, 0.1406250
355.7831, 0.2348630
356.2652, 0.6933590
356.7473, 1.277832
357.2294, 1.944946
357.7115, 2.689087
358.1937, 3.583008
358.6758, 4.625000
359.1579, 5.151123
359.6400, 4.650146
360.1221, 4.175659
360.6042, 4.475586
361.0863, 5.245850
361.5685, 5.511475
362.0506, 4.604492
362.5327, 2.993042
363.0148, 1.260010
363.4969, 3.085327
363.9790, 4.157104
364.4612, 4.516235
364.9433, 2.025635
365.4254, 3.214600
365.9075, 2.929932
366.3896, 2.585571
366.8717, 4.294922
367.3539, 2.220581
367.8360, 3.897583
368.3181, 4.078003
368.8002, 4.943848
369.2823, 4.327026
369.7644, 4.167603
370.2466, 5.493652
370.7287, 5.998169
371.2108, 5.212158
371.6929, 6.124512
372.1750, 4.002319
372.6571, 4.543457
373.1393, 6.233887
373.6214, 5.523804
374.1035, 6.465210
374.5856, 6.778076
375.0677, 4.234375
375.5498, 5.568970
376.0320, 2.203979
376.5141, 0.4763180
376.9962, 2.065918
377.4783, 4.619019
377.9604, 6.120361
378.4425, 6.069336
378.9247, 5.278564
379.4068, 4.768188
379.8889, 4.541138
380.3710, 4.590454
380.8531, 5.020386
381.3352, 5.632690
381.8174, 6.582520
382.2995, 7.622192
382.7816, 8.288696
383.2637, 8.169434
383.7458, 7.346069
384.2279, 6.578125
384.7101, 5.793701
385.1922, 5.187622
385.6743, 4.462036
386.1564, 3.990845
386.6385, 4.424316
387.1206, 6.475708
387.6028, 8.877563
388.0849, 9.182861
388.5670, 6.816772
389.0491, 4.413086
389.5312, 1.937988
390.0133, 8.3374001E-02
390.4955, 0.4471440
390.9776, 0.3205570
391.4597, 1.414429
391.9418, 2.208130
392.4239, 2.681396
392.9060, 2.867920
393.3882, 2.638672
393.8703, 2.477905
394.3524, 3.049683
394.8345, 3.890137
395.3166, 4.000244
395.7987, 2.590820
396.2809, 0.6088870
396.7630, 0.8514400
397.2451, 1.811890
397.7272, 1.834229
398.2093, 7.0189998E-02
398.6914, 2.602051
399.1736, 3.530151
399.6557, 2.423706
400.1378, 1.057739
400.6199, 0.4533690
401.1020, 0.3942870
401.5841, 0.2487790
402.0662, 0.2034910
402.5483, 0.5515140
403.0305, 0.3173830
403.5126, 0.4549560
403.9947, 1.631714
404.4768, 4.345947
404.9589, 6.683594
405.4410, 6.212769
405.9232, 3.129395
406.4053, 0.2307130
406.8874, 0.7803960
407.3695, 5.2979000E-02
407.8516, 1.411865
408.3337, 5.355347
408.8159, 7.910889
409.2980, 6.979126
409.7801, 4.094849
410.2622, 1.528076
410.7443, 2.1973001E-02
411.2264, 0.5142820
411.7086, 0.1468510
412.1907, 1.716675
412.6728, 3.022827
413.1549, 3.338013
413.6370, 3.481201
414.1191, 4.299805
414.6013, 5.573608
415.0834, 6.086182
415.5655, 4.667358
416.0476, 1.520020
416.5297, 0.3430180
417.0118, 3.740845
417.4940, 6.180054
417.9761, 5.890015
418.4582, 4.444214
418.9403, 3.770996
419.4224, 4.610596
419.9045, 6.444458
420.3867, 8.637817
420.8688, 11.91040
421.3509, 13.54761
421.8330, 11.73450
422.3151, 9.794800
422.7972, 9.922729
423.2794, 11.70605
423.7615, 12.98108
424.2436, 11.61060
424.7257, 8.197510
425.2078, 7.041992
425.6899, 9.791138
426.1721, 11.92175
426.6542, 11.14087
427.1363, 9.183472
427.6184, 8.260620
428.1005, 9.233398
428.5826, 10.50879
429.0648, 9.611572
429.5469, 6.481934
430.0290, 5.114868
430.5111, 7.561279
430.9932, 10.75818
431.4753, 11.86279
431.9575, 11.10486
432.4396, 10.38745
432.9217, 10.41467
433.4038, 11.12537
433.8859, 12.91467
434.3680, 15.97278
434.8502, 18.01501
435.3323, 16.48291
435.8144, 13.04639
436.2965, 12.45435
436.7786, 16.57593
437.2607, 20.95508
437.7429, 23.57678
438.2250, 24.65686
438.7071, 24.40564
439.1892, 22.72607
439.6713, 20.57703
440.1534, 19.23999
440.6356, 18.81592
441.1177, 18.89246
441.5998, 19.84656
442.0819, 20.98718
442.5640, 22.18835
443.0461, 23.20825
443.5282, 23.39648
444.0103, 22.30652
444.4925, 20.04651
444.9746, 17.17004
445.4567, 10.50574
445.9388, 7.225220
446.4209, 11.71509
446.9030, 18.08765
447.3852, 19.95166
447.8673, 15.86694
448.3494, 9.714111
448.8315, 6.559570
449.3136, 7.094727
449.7957, 6.959717
450.2779, 4.745117
450.7600, 3.294556
451.2421, 3.696655
451.7242, 5.459106
452.2063, 7.784180
452.6884, 10.41467
453.1706, 12.79895
453.6527, 13.60364
454.1348, 12.67480
454.6169, 10.58789
455.0990, 5.274414
455.5811, 0.4166260
456.0633, 0.9660640
456.5454, 1.191895
457.0275, 4.206421
457.5096, 6.784790
457.9917, 8.721436
458.4738, 8.920898
458.9560, 6.626953
459.4381, 4.571045
459.9202, 4.988037
460.4023, 6.851196
460.8844, 8.386963
461.3665, 9.332520
461.8487, 9.812134
462.3308, 9.919189
462.8129, 9.640015
463.2950, 8.764282
463.7771, 6.979126
464.2592, 5.289185
464.7414, 5.109131
465.2235, 6.715210
465.7056, 7.655396
466.1877, 6.511353
466.6698, 5.435181
467.1519, 6.827393
467.6341, 10.15527
468.1162, 12.63306
468.5983, 12.31177
469.0804, 9.698242
469.5625, 7.674805
470.0446, 6.483521
470.5268, 5.733032
471.0089, 5.312378
471.4910, 5.386353
471.9731, 6.331909
472.4552, 8.098389
472.9373, 10.07019
473.4195, 11.73779
473.9016, 13.17065
474.3837, 13.27710
474.8658, 9.701294
475.3479, 7.283203
475.8300, 8.127563
476.3122, 10.69861
476.7943, 12.85730
477.2764, 13.72058
477.7585, 13.74927
478.2406, 13.73242
478.7227, 13.76196
479.2049, 12.97668
479.6870, 10.29944
480.1691, 7.719604
480.6512, 6.806396
481.1333, 7.293823
481.6154, 7.784424
482.0976, 7.588867
482.5797, 7.018799
483.0618, 6.299316
483.5439, 5.414307
484.0260, 5.428955
484.5081, 7.510132
484.9902, 10.37085
485.4724, 11.20923
485.9545, 9.417114
486.4366, 7.566650
486.9187, 6.243652
487.4008, 5.480347
487.8829, 5.677490
488.3651, 6.794189
488.8472, 7.609619
489.3293, 6.968628
489.8114, 4.874023
490.2935, 3.179077
490.7756, 1.456787
491.2578, 0.5408940
491.7399, 0.9107670
492.2220, 2.138306
492.7041, 3.941406
493.1862, 6.143921
493.6683, 8.151978
494.1505, 9.111816
494.6326, 8.942261
495.1147, 8.058228
495.5968, 5.127563
496.0789, 2.796509
496.5610, 2.275146
497.0432, 3.044312
497.5253, 4.122925
498.0074, 5.122070
498.4895, 5.849854
498.9716, 5.676270
499.4537, 4.334229
499.9359, 3.820679
500.4180, 5.418701
500.9001, 7.269409
501.3822, 7.864624
501.8643, 7.247192
502.3464, 6.226440
502.8286, 4.304321
503.3107, 2.595459
503.7928, 3.571289
504.2749, 7.290771
504.7570, 9.669556
505.2391, 8.071045
505.7213, 4.010010
506.2034, 1.584839
506.6855, 1.360229
507.1676, 1.196289
507.6497, 5.7250999E-02
508.1318, 1.236328
508.6140, 0.7133790
509.0961, 1.568726
509.5782, 4.077515
510.0603, 5.464844
510.5424, 5.796631
511.0245, 6.404907
511.5067, 7.955566
511.9888, 8.975098
512.4709, 9.219238
512.9530, 8.812378
513.4351, 7.671509
513.9172, 5.837036
514.3994, 3.973389
514.8815, 2.691040
515.3636, 1.990356
515.8457, 1.887085
516.3278, 2.750366
516.8099, 3.757202
517.2921, 4.904663
517.7742, 5.874756
518.2563, 6.081543
518.7384, 5.161743
519.2205, 3.990723
519.7026, 3.815186
520.1848, 4.416016
520.6669, 3.828491
521.1490, 0.9804690
521.6311, 1.827148
522.1132, 1.910034
522.5953, 0.2498780
523.0775, 2.413574
523.5596, 5.301514
524.0417, 7.079224
524.5238, 5.455200
525.0059, 1.591675
525.4880, 1.346313
525.9702, 2.073242
526.4523, 1.150757
526.9344, 0.6818850
527.4165, 4.411987
527.8986, 6.345825
528.3807, 5.053101
528.8629, 3.469849
529.3450, 3.537842
529.8271, 4.630615
530.3092, 4.846802
530.7913, 3.021362
531.2734, 0.2323000
531.7556, 0.7039790
532.2377, 1.123657
532.7198, 2.233887
533.2019, 1.411621
533.6840, 0.3217770
534.1661, 9.5581003E-02
534.6483, 6.0424998E-02
535.1304, 9.0942003E-02
535.6125, 0.7479250
536.0946, 1.755005
536.5767, 1.284912
537.0588, 0.6832280
537.5410, 1.103027
538.0231, 2.912964
538.5052, 4.009277
538.9873, 4.448975
539.4694, 1.990601
539.9515, 3.165283
540.4337, 2.866333
540.9158, 2.506836
541.3979, 4.201782
541.8800, 2.112305
542.3621, 3.775635
542.8442, 3.942383
543.3264, 4.794434
543.8085, 4.163086
544.2906, 3.989990
544.7726, 5.302490
545.2548, 5.792358
545.7369, 4.992554
546.2190, 5.890259
546.7011, 3.754517
547.1832, 4.282104
547.6653, 5.958984
548.1475, 5.234497
548.6296, 6.162354
549.1117, 6.461792
549.5938, 3.903442
550.0759, 6.315674
550.5580, 6.579224
551.0402, 4.636108
551.5223, 6.879517
552.0044, 5.241333
552.4865, 4.060669
552.9686, 3.350464
553.4507, 3.469482
553.9329, 4.441040
554.4150, 5.358154
554.8971, 5.719238
555.3792, 5.729004
555.8613, 5.944092
556.3434, 6.613770
556.8256, 6.837646
557.3077, 5.854004
557.7898, 4.755859
558.2719, 4.599854
558.7540, 5.360352
559.2361, 6.422119
559.7183, 7.400391
560.2004, 8.261963
560.6825, 8.866943
561.1646, 9.019409
561.6467, 9.247192
562.1288, 10.19934
562.6110, 10.77991
563.0931, 9.675781
563.5752, 7.254028
564.0573, 5.522827
564.5394, 6.574829
565.0215, 8.941162
565.5037, 8.187012
565.9858, 3.552368
566.4679, 0.5244140
566.9500, 1.995117
567.4321, 5.316406
567.9142, 6.970337
568.3964, 6.866455
568.8785, 6.514771
569.3606, 6.191772
569.8427, 6.009033
570.3248, 6.365601
570.8069, 7.062500
571.2891, 6.981689
571.7712, 5.347656
572.2533, 3.078613
572.7354, 2.517212
573.2175, 4.916992
573.6996, 6.870972
574.1818, 8.136475
574.6639, 9.204224
575.1460, 10.89941
575.6281, 12.66199
576.1102, 12.84656
576.5923, 10.23755
577.0745, 6.352051
577.5566, 4.784912
578.0387, 6.078979
578.5208, 6.714478
579.0029, 5.349121
579.4850, 3.754395
579.9672, 3.763306
580.4493, 5.051025
580.9314, 5.636963
581.4135, 4.236206
581.8956, 2.341919
582.3777, 1.106934
582.8599, 0.5661620
583.3420, 0.9414060
583.8241, 2.503296
584.3062, 4.459839
584.7883, 5.607300
585.2704, 5.669678
585.7526, 5.902466
586.2347, 7.068237
586.7168, 7.589722
587.1989, 5.965332
587.6810, 3.497070
588.1631, 2.440308
588.6453, 3.576660
589.1274, 5.450317
589.6095, 5.811401
590.0916, 4.486694
590.5737, 3.954468
591.0558, 4.909424
591.5380, 5.678711
592.0201, 5.613159
592.5022, 4.858032
592.9843, 3.377197
593.4664, 0.8267820
593.9485, 1.329956
594.4307, 1.333984
594.9128, 0.1317140
595.3949, 0.4753420
595.8770, 0.7989500
596.3591, 1.767334
596.8412, 0.9224850
597.3234, 1.469482
597.8055, 3.479858
598.2876, 5.536377
598.7697, 6.726196
599.2518, 6.317993
599.7339, 5.446899
600.2161, 4.851929
600.6982, 4.749023
601.1803, 4.745972
601.6624, 4.342529
602.1445, 3.922119
602.6266, 5.851196
603.1088, 12.00537
603.5909, 15.54883
604.0730, 12.07642
604.5551, 7.206421
605.0372, 4.944702
605.5193, 5.333252
606.0015, 6.224976
606.4836, 6.862915
606.9657, 7.334106
607.4478, 7.955444
607.9299, 8.604004
608.4120, 8.314819
608.8942, 6.502441
609.3763, 4.313232
609.8584, 3.552002
610.3405, 4.721924
610.8226, 5.596802
611.3047, 6.571533
611.7869, 6.921631
612.2690, 5.683838
612.7511, 3.790161
613.2332, 2.841919
613.7153, 3.428589
614.1974, 4.563721
614.6796, 4.790894
615.1617, 4.037354
615.6438, 3.936035
616.1259, 4.936035
616.6080, 5.875122
617.0901, 6.108398
617.5723, 5.918945
618.0544, 5.568726
618.5365, 4.916138
619.0186, 4.762207
619.5007, 5.636353
619.9828, 7.270752
620.4650, 9.847290
620.9471, 13.16406
621.4292, 15.06091
621.9113, 13.82019
622.3934, 10.37244
622.8755, 8.339844
623.3577, 9.159424
623.8398, 9.377686
624.3219, 8.407104
624.8040, 7.313354
625.2861, 6.331055
625.7682, 5.809814
626.2504, 6.969849
626.7325, 11.09302
627.2145, 15.71338
627.6967, 15.61951
628.1788, 10.57080
628.6609, 6.435669
629.1430, 4.382568
629.6251, 3.480713
630.1072, 3.159912
630.5894, 3.326294
631.0715, 3.736694
631.5536, 4.862305
632.0357, 5.658081
632.5178, 5.068970
632.9999, 3.986084
633.4821, 4.059937
633.9642, 5.538452
634.4463, 7.055786
634.9284, 7.286255
635.4105, 6.316772
635.8926, 5.376587
636.3748, 4.022339
636.8569, 3.459351
637.3390, 4.758911
637.8211, 6.209961
638.3032, 5.779175
638.7853, 3.770386
639.2675, 3.111816
639.7496, 7.631592
640.2317, 13.37939
640.7138, 12.99597
641.1959, 6.997192
641.6780, 2.082275
642.1602, 0.5452880
642.6423, 0.8653560
643.1244, 1.368164
643.6065, 2.189575
644.0886, 2.856934
644.5707, 3.096069
645.0529, 3.149048
645.5350, 2.879517
646.0171, 2.800781
646.4992, 4.096436
646.9813, 6.844971
647.4634, 9.112915
647.9456, 8.375000
648.4277, 4.964111
648.9098, 2.880127
649.3919, 2.357422
649.8740, 2.628784
650.3561, 4.698975
650.8383, 6.586426
651.3204, 5.442993
651.8025, 0.8686520
652.2846, 2.475342
652.7667, 1.884277
653.2488, 4.9927000E-02
653.7310, 0.9470210
654.2131, 0.9643550
654.6952, 1.410767
655.1773, 2.801758
655.6594, 4.097412
656.1415, 3.489380
656.6237, 0.2045900
657.1058, 1.345581
657.5879, 0.6470950
658.0700, 2.452271
658.5521, 2.996582
659.0342, 2.841797
659.5164, 2.589966
659.9985, 2.397339
660.4806, 2.519531
660.9627, 3.807495
661.4448, 5.414795
661.9269, 4.808105
662.4091, 1.852295
662.8912, 0.1224370
663.3733, 0.8284910
663.8554, 3.167114
664.3375, 3.781006
664.8196, 1.751953
665.3018, 0.6375730
665.7839, 1.477051
666.2660, 2.371826
666.7481, 1.683350
667.2302, 0.3109130
667.7123, 3.1493999E-02
668.1945, 1.464844
668.6766, 3.501831
669.1587, 5.052002
669.6408, 6.080811
670.1229, 5.639282
670.6050, 2.911987
671.0872, 1.135986
671.5693, 2.926758
672.0514, 6.125366
672.5335, 6.820068
673.0156, 4.326782
673.4977, 2.439331
673.9799, 3.013672
674.4620, 4.021973
674.9441, 3.355225
675.4262, 1.639282
675.9083, 1.095459
676.3904, 2.710327
676.8726, 4.937378
677.3547, 5.039063
677.8368, 2.501587
678.3189, 1.288208
678.8010, 2.015503
679.2831, 3.215942
679.7653, 5.036133
680.2474, 6.631226
680.7295, 6.788330
681.2116, 5.236206
681.6937, 3.388184
682.1758, 1.217773
682.6580, 0.3256840
683.1401, 0.8122560
683.6222, 4.028198
684.1043, 5.767944
684.5864, 4.211548
685.0685, 1.496948
685.5507, 1.538330
686.0328, 5.511475
686.5149, 7.509644
686.9970, 5.731567
687.4791, 3.944458
687.9612, 3.130127
688.4434, 2.963623
688.9255, 2.966187
689.4076, 3.031494
689.8897, 3.395630
690.3718, 4.781616
690.8539, 6.401733
691.3361, 6.454834
691.8182, 4.974731
692.3003, 3.468506
692.7824, 2.440063
693.2645, 2.118652
693.7466, 3.052734
694.2288, 5.877319
694.7109, 7.274292
695.1930, 6.524048
695.6751, 5.309570
696.1572, 3.763184
696.6393, 2.306396
697.1215, 1.553467
697.6036, 1.593872
698.0857, 1.682495
698.5678, 0.9779050
699.0499, 0.1437990
699.5320, 0.4619140
700.0142, 8.2764000E-02
700.4963, 0.1636960
700.9784, 1.013184
701.4605, 2.250122
701.9426, 1.639526
702.4247, 1.202515
702.9069, 2.791382
703.3890, 1.773071
703.8711, 1.012451
704.3532, 1.982300
704.8353, 3.678833
705.3174, 4.757690
705.7996, 5.003174
706.2817, 5.008789
706.7638, 5.323853
707.2459, 5.781616
707.7280, 5.901855
708.2101, 5.704346
708.6923, 4.987671
709.1743, 3.303711
709.6564, 1.664429
710.1385, 1.290405
710.6207, 2.268921
711.1028, 2.632324
711.5849, 1.286133
712.0670, 0.3813480
712.5491, 0.9971920
713.0313, 2.416992
713.5134, 3.690186
713.9955, 4.698486
714.4776, 5.803589
714.9597, 7.236938
715.4418, 8.660400
715.9240, 8.635864
716.4061, 7.053467
716.8882, 5.859375
717.3703, 5.352051
717.8524, 5.460815
718.3345, 6.633789
718.8167, 8.435303
719.2988, 9.318604
719.7809, 8.892456
720.2630, 7.973267
720.7451, 6.310669
721.2272, 4.667847
721.7094, 4.026489
722.1915, 2.913609
722.6736, 3.660645
723.1557, 1.578003
723.6378, 0.7241210
724.1199, 4.4188999E-02
724.6021, 4.262207
725.0842, 6.628540
725.5663, 6.084473
726.0484, 4.779541
726.5305, 3.323730
727.0126, 2.176392
727.4948, 2.575928
727.9769, 5.235718
728.4590, 6.985107
728.9411, 6.460815
729.4232, 5.149292
729.9053, 3.626465
730.3875, 2.415527
730.8696, 2.772217
731.3517, 5.195557
731.8338, 7.972778
732.3159, 8.491455
732.7980, 6.761108
733.2802, 5.577271
733.7623, 5.000732
734.2444, 4.775635
734.7265, 4.310059
735.2086, 4.529297
735.6907, 7.597168
736.1729, 13.93091
736.6550, 17.06433
737.1371, 12.61743
737.6192, 7.761353
738.1013, 7.379883
738.5834, 9.242188
739.0656, 9.197266
739.5477, 6.448975
740.0298, 3.825928
740.5119, 4.188965
740.9940, 6.826294
741.4761, 8.567871
741.9583, 9.428345
742.4404, 9.019409
742.9225, 6.240601
743.4046, 3.530640
743.8867, 3.900146
744.3688, 6.700439
744.8510, 8.238037
745.3331, 7.401611
745.8152, 6.304810
746.2973, 5.515747
746.7794, 4.893555
747.2615, 4.143921
747.7437, 3.403198
748.2258, 3.398315
748.7079, 4.539063
749.1900, 5.917236
749.6721, 5.416260
750.1542, 3.083130
750.6364, 1.701538
751.1185, 1.728760
751.6006, 2.300537
752.0827, 3.069092
752.5648, 3.924438
753.0469, 4.661499
753.5291, 5.615234
754.0112, 5.581787
754.4933, 3.031860
754.9754, 0.7685550
755.4575, 1.054810
755.9396, 2.707397
756.4218, 3.231201
756.9039, 1.851196
757.3860, 0.5368650
757.8681, 2.017822
758.3502, 5.261108
758.8323, 6.318237
759.3145, 5.072510
759.7966, 4.276611
760.2787, 5.297974
760.7608, 6.430298
761.2429, 5.370850
761.7250, 1.792725
762.2072, 5.3344999E-02
762.6893, 1.371948
763.1714, 2.418823
763.6535, 1.653564
764.1356, 0.5659180
764.6177, 0.5620120
765.0999, 1.630005
765.5820, 2.990479
766.0641, 4.594849
766.5462, 5.539917
767.0283, 3.703857
767.5104, 8.6425997E-02
767.9926, 1.007935
768.4747, 1.189697
768.9568, 3.239990
769.4389, 2.603149
769.9210, 0.1363530
770.4031, 1.228760
770.8853, 0.7333980
771.3674, 0.6496580
771.8495, 1.776733
772.3316, 2.429199
772.8137, 1.385010
773.2958, 0.4139400
773.7780, 1.506714
774.2601, 1.545654
774.7422, 1.316772
775.2243, 1.052856
775.7064, 0.9846190
776.1885, 1.627319
776.6707, 2.755493
777.1528, 3.491699
777.6349, 3.530396
778.1170, 3.381226
778.5991, 3.684814
779.0812, 4.401245
779.5634, 4.737427
780.0455, 4.614624
780.5276, 4.234253
781.0097, 2.849487
781.4918, 1.847778
781.9739, 3.298096
782.4561, 6.384399
782.9382, 7.617310
783.4203, 5.135254
783.9024, 2.281982
784.3845, 4.3579001E-02
784.8666, -0.4654299
785.3488, -0.6683396
785.8309, 0.2338870
786.3130, 1.653809
786.7951, 4.094604
787.2772, 6.505371
787.7593, 7.913940
788.2415, 8.331055
788.7236, 7.999146
789.2057, 6.695313
789.6878, 5.496216
790.1699, 4.760986
790.6520, 4.591675
791.1342, 5.588135
791.6162, 8.250488
792.0983, 8.982910
792.5804, 5.063110
793.0626, 2.120117
793.5447, 3.158081
794.0268, 5.885864
794.5089, 7.948364
794.9910, 8.825806
795.4731, 8.739136
795.9553, 7.445435
796.4374, 5.807373
796.9195, 5.006348
797.4016, 5.004028
797.8837, 6.069702
798.3658, 8.309448
798.8480, 9.764038
799.3301, 8.886597
799.8122, 6.304810
800.2943, 4.055176
800.7764, 1.821411
801.2585, 0.5854490
801.7407, 0.5664060
802.2228, 1.366089
802.7049, 3.969727
803.1870, 6.828369
803.6691, 7.629761
804.1512, 5.929077
804.6334, 3.721191
805.1155, 0.7423100
805.5976, 1.219849
806.0797, 0.5294190
806.5618, 4.381470
807.0439, 6.823364
807.5261, 6.952148
808.0082, 6.307861
808.4903, 6.194458
808.9724, 6.614990
809.4545, 7.939819
809.9366, 10.52112
810.4188, 11.40527
810.9009, 9.318359
811.3830, 6.901489
811.8651, 6.032349
812.3472, 6.402222
812.8293, 6.840332
813.3115, 7.521240
813.7936, 7.969971
814.2757, 7.868530
814.7578, 7.736938
815.2399, 8.062622
815.7220, 8.547974
816.2042, 8.428955
816.6863, 7.552002
817.1684, 6.945923
817.6505, 8.016479
818.1326, 9.701660
818.6147, 9.647949
819.0969, 8.250305
819.5790, 8.002747
820.0611, 9.645386
820.5432, 11.21539
821.0253, 10.58350
821.5074, 8.207336
821.9896, 7.312439
822.4717, 8.972656
822.9538, 9.653198
823.4359, 8.262085
823.9180, 6.549011
824.4001, 4.562988
824.8823, 3.164795
825.3644, 4.590271
825.8465, 10.31140
826.3286, 14.11328
826.8107, 12.06195
827.2928, 8.381714
827.7750, 5.831482
828.2571, 4.425171
828.7392, 3.979126
829.2213, 4.345764
829.7034, 5.452820
830.1855, 7.881287
830.6677, 10.78674
831.1498, 10.85010
831.6319, 8.159546
832.1140, 7.097534
832.5961, 8.853882
833.0782, 11.06006
833.5604, 11.99060
834.0425, 11.75342
834.5246, 10.72443
835.0067, 7.317383
835.4888, 5.858398
835.9709, 7.916443
836.4531, 10.07343
836.9352, 11.47845
837.4173, 11.77148
837.8994, 9.861511
838.3815, 5.516479
838.8636, 2.632324
839.3458, 4.496765
839.8279, 7.489380
840.3100, 8.228394
840.7921, 7.628357
841.2742, 7.730286
841.7563, 8.894226
842.2385, 10.05414
842.7206, 10.36090
843.2027, 10.14209
843.6848, 9.796631
844.1669, 9.148376
844.6490, 8.059326
845.1312, 6.379761
845.6133, 5.081238
846.0954, 4.808350
846.5775, 5.232361
847.0596, 5.694275
847.5417, 6.252258
848.0239, 6.641235
848.5060, 6.586792
848.9881, 6.730896
849.4702, 7.287170
849.9523, 8.045166
850.4344, 9.107117
850.9166, 10.24414
851.3987, 10.29755
851.8808, 7.567871
852.3629, 5.198242
852.8450, 6.537659
853.3271, 9.619019
853.8093, 11.55103
854.2914, 11.96375
854.7735, 11.23413
855.2556, 9.522583
855.7377, 7.606018
856.2198, 7.007629
856.7020, 7.647522
857.1841, 7.097656
857.6662, 4.908997
858.1483, 3.982422
858.6304, 6.101563
859.1125, 8.630005
859.5947, 8.088135
860.0768, 4.449341
860.5589, 2.610352
861.0410, 3.772705
861.5231, 4.963196
862.0052, 6.042053
862.4874, 6.862000
862.9695, 7.088135
863.4516, 6.943787
863.9337, 7.152466
864.4158, 7.780151
864.8979, 8.882324
865.3801, 11.74829
865.8622, 14.12964
866.3443, 12.48273
866.8264, 8.498230
867.3085, 6.734131
867.7906, 8.307678
868.2728, 10.32520
868.7549, 10.08777
869.2370, 8.293274
869.7191, 6.862244
870.2012, 5.798828
870.6833, 4.558533
871.1655, 2.928406
871.6476, 1.677429
872.1297, 1.352905
872.6118, 1.745300
873.0939, 2.384705
873.5760, 3.451416
874.0581, 4.220398
874.5402, 4.803162
875.0223, 4.924866
875.5045, 3.878235
875.9866, 2.760559
876.4687, 2.821838
876.9508, 3.997864
877.4329, 5.001099
877.9150, 5.654480
878.3972, 5.723083
878.8793, 4.642212
879.3614, 3.216125
879.8435, 2.257813
880.3256, 1.808411
880.8077, 1.593323
881.2899, 1.488525
881.7720, 1.708618
882.2541, 2.849426
882.7362, 4.450256
883.2183, 4.998840
883.7004, 4.577820
884.1826, 4.246582
884.6647, 4.334351
885.1468, 4.769165
885.6289, 5.452332
886.1110, 6.318176
886.5931, 6.903198
887.0753, 7.532410
887.5574, 6.800842
888.0395, 3.531738
888.5216, 0.4336550
889.0037, 1.406250
889.4858, 1.980469
889.9680, 0.8890990
890.4501, 2.320618
890.9322, 4.363037
891.4143, 3.627014
891.8964, 3.030029
892.3785, 4.125061
892.8607, 5.730896
893.3428, 6.878235
893.8249, 7.313232
894.3070, 6.677063
894.7891, 4.463623
895.2712, 2.180664
895.7534, 1.213928
896.2355, 1.022583
896.7176, 0.6846920
897.1997, 0.3193360
897.6818, 0.9567870
898.1639, 2.919983
898.6461, 4.544617
899.1282, 3.755310
899.6103, 4.419884
900.0924, 4.169363
900.5745, 2.936035
901.0566, 3.223267
901.5388, 1.350403
902.0209, 0.6540530
902.5030, 1.298950
902.9851, 1.037231
903.4672, 1.165527
903.9493, 1.930603
904.4315, 2.377869
904.9136, 2.545837
905.3957, 2.319092
905.8778, 0.6495970
906.3599, 0.7208250
906.8420, 0.7456050
907.3242, 4.618408
907.8063, 6.628357
908.2884, 3.990479
908.7705, 1.773621
909.2526, 2.663818
909.7347, 4.114685
910.2169, 3.871826
910.6990, 2.488220
911.1811, 1.570251
911.6632, 1.665283
912.1453, 2.162109
912.6274, 3.016968
913.1096, 3.655396
913.5917, 2.815918
914.0738, 1.076965
914.5559, 0.1644290
915.0380, 0.3870240
915.5201, 0.8473510
916.0023, 0.8917240
916.4844, 0.7708740
916.9665, 1.104553
917.4486, 1.889771
917.9307, 2.547974
918.4128, 3.099060
918.8950, 3.069153
919.3771, 1.997925
919.8592, 0.9083250
920.3413, 1.212891
920.8234, 2.858826
921.3055, 3.622498
921.7877, 2.855164
922.2698, 2.363953
922.7519, 2.753052
923.2340, 3.037170
923.7161, 2.465088
924.1982, 1.533630
924.6804, 1.144348
925.1625, 1.442688
925.6446, 1.869019
926.1267, 2.647522
926.6088, 3.106567
927.0909, 2.459839
927.5731, 1.612305
928.0552, 1.733215
928.5373, 2.671509
929.0194, 3.322266
929.5015, 3.089905
929.9836, 2.873657
930.4658, 3.688904
930.9479, 4.784241
931.4300, 4.856812
931.9121, 4.124268
932.3942, 3.654663
932.8763, 3.911743
933.3585, 4.871460
933.8406, 6.799316
934.3227, 8.820801
934.8048, 8.393616
935.2869, 5.815979
935.7690, 3.575928
936.2512, 2.005737
936.7333, 1.271484
937.2154, 1.578369
937.6975, 2.363647
938.1796, 2.628723
938.6617, 2.318787
939.1439, 2.729858
939.6260, 4.139404
940.1081, 5.590332
940.5902, 7.593933
941.0723, 8.493408
941.5544, 5.937439
942.0366, 1.356445
942.5187, 7.3486000E-02
943.0008, 3.639099
943.4829, 5.517761
943.9650, 3.510986
944.4471, 1.855530
944.9293, 2.396362
945.4114, 3.732422
945.8935, 3.967651
946.3756, 3.333374
946.8577, 4.107422
947.3398, 8.716064
947.8220, 11.98743
948.3041, 10.43536
948.7862, 7.163940
949.2683, 3.847961
949.7504, 1.412659
950.2325, 1.642395
950.7147, 4.693359
951.1968, 7.207520
951.6789, 6.337769
952.1610, 4.015198
952.6431, 2.062378
953.1252, 0.6914060
953.6074, 0.6752930
954.0895, 1.818481
954.5716, 2.754333
955.0537, 2.789063
955.5358, 2.561035
956.0179, 2.886719
956.5000, 3.686401
956.9821, 4.739136
957.4642, 6.018372
957.9464, 6.996582
958.4285, 7.541016
958.9106, 7.155151
959.3927, 5.303467
959.8748, 2.797913
960.3569, 2.010376
960.8391, 3.322266
961.3212, 4.395386
961.8033, 5.496582
962.2854, 5.501953
962.7675, 3.173523
963.2496, 0.9138180
963.7318, 1.651306
964.2139, 4.782166
964.6960, 5.967651
965.1781, 3.647766
965.6602, 1.845215
966.1423, 0.1072390
966.6245, 0.5547490
967.1066, 1.376648
967.5887, 3.944763
968.0708, 4.480591
968.5529, 2.941895
969.0350, 1.939026
969.5172, 2.048462
969.9993, 2.717773
970.4814, 4.714050
970.9635, 6.320496
971.4456, 5.812683
971.9277, 4.030640
972.4099, 2.495483
972.8920, 1.621155
973.3741, 1.551208
973.8562, 3.286316
974.3383, 4.888245
974.8204, 4.331848
975.3026, 2.981995
975.7847, 2.960938
976.2668, 4.014832
976.7489, 4.336121
977.2310, 3.112122
977.7131, 1.605103
978.1953, 1.038269
978.6774, 1.077026
979.1595, 1.148499
979.6416, 1.294250
980.1237, 1.782898
980.6058, 2.600464
981.0880, 3.235657
981.5701, 3.331726
982.0522, 3.280090
982.5343, 3.769287
983.0164, 4.717346
983.4985, 5.993347
983.9807, 7.527954
984.4628, 7.578430
984.9449, 5.531677
985.4270, 3.336060
985.9091, 2.776733
986.3912, 3.122925
986.8734, 1.982727
987.3555, 0.9217530
987.8376, 3.004761
988.3197, 4.244873
988.8018, 4.256165
989.2839, 2.445190
989.7661, 0.3023680
990.2482, 0.4288330
990.7303, 1.6174000E-02
991.2124, 0.4658200
991.6945, 2.075134
992.1766, 3.923950
992.6588, 6.828247
993.1409, 8.631409
993.6230, 7.739136
994.1051, 5.721497
994.5872, 4.538025
995.0693, 4.181885
995.5515, 3.910339
996.0336, 3.697021
996.5157, 3.590759
996.9978, 3.742126
997.4799, 3.822876
997.9620, 3.923706
998.4442, 3.892334
998.9263, 3.392517
999.4084, 2.400757
999.8905, 1.596436
1000.373, 1.381531
1000.855, 1.108765
1001.337, 6.9580004E-02
1001.819, 0.9294430
1002.301, 2.1057000E-02
1002.783, 1.875427
1003.265, 2.766418
1003.747, 2.258728
1004.230, 1.499207
1004.712, 0.5144040
1005.194, 9.1370001E-02
1005.676, 1.363586
1006.158, 3.043701
1006.640, 3.659424
1007.122, 3.319275
1007.604, 2.532776
1008.086, 1.499268
1008.569, 1.268616
1009.051, 3.635742
1009.533, 6.287903
1010.015, 6.533630
1010.497, 5.328796
1010.979, 4.176392
1011.461, 3.342773
1011.943, 2.450867
1012.426, 1.322388
1012.908, 1.024048
1013.390, 3.866455
1013.872, 7.646545
1014.354, 7.984924
1014.836, 5.836365
1015.318, 3.709961
1015.800, 2.169067
1016.282, 1.267212
1016.765, 1.023743
1017.247, 1.548767
1017.729, 3.575256
1018.211, 3.872925
1018.693, 4.803894
1019.175, 6.350464
1019.657, 6.546875
1020.139, 8.341614
1020.622, 10.21204
1021.104, 11.18256
1021.586, 11.49597
1022.068, 11.65375
1022.550, 11.58661
1023.032, 10.37463
1023.514, 7.988770
1023.996, 5.969299
1024.478, 4.606567
1024.961, 4.489136
1025.443, 6.213196
1025.925, 8.542114
1026.407, 8.314209
1026.889, 5.314636
1027.371, 4.793762
1027.853, 7.337280
1028.335, 8.922546
1028.818, 8.374817
1029.300, 7.000000
1029.782, 5.576355
1030.264, 4.382690
1030.746, 4.366516
1031.228, 5.880859
1031.710, 6.296814
1032.192, 5.070984
1032.674, 4.412415
1033.156, 5.311157
1033.639, 6.084961
1034.121, 5.039856
1034.603, 3.084717
1035.085, 2.997803
1035.567, 5.548950
1036.049, 7.063904
1036.531, 7.099976
1037.013, 6.969238
1037.496, 6.983093
1037.978, 6.979370
1038.460, 6.741638
1038.942, 6.403503
1039.424, 6.379578
1039.906, 6.697510
1040.388, 7.262024
1040.870, 9.030457
1041.353, 9.642883
1041.835, 7.308838
1042.317, 4.726257
1042.799, 3.601868
1043.281, 3.900513
1043.763, 5.937134
1044.245, 11.10315
1044.727, 13.77734
1045.209, 12.36371
1045.692, 10.04248
1046.174, 6.605591
1046.656, 3.716858
1047.138, 2.790100
1047.620, 3.548401
1048.102, 5.273804
1048.584, 8.578308
1049.066, 10.07581
1049.548, 7.252319
1050.031, 5.244202
1050.513, 6.636597
1050.995, 8.631348
1051.477, 9.064880
1051.959, 8.219177
1052.441, 7.152771
1052.923, 6.053101
1053.405, 4.500000
1053.888, 0.6971440
1054.370, 1.376831
1054.852, 1.380005
1055.334, 5.071716
1055.816, 6.523254
1056.298, 6.207703
1056.780, 5.595520
1057.262, 4.923889
1057.745, 4.735046
1058.227, 4.896851
1058.709, 5.538452
1059.191, 7.376953
1059.673, 9.117676
1060.155, 10.04517
1060.637, 10.07111
1061.119, 8.835632
1061.601, 6.126709
1062.083, 4.489197
1062.566, 5.757202
1063.048, 7.010010
1063.530, 6.848877
1064.012, 6.246033
1064.494, 5.839844
1064.976, 5.731079
1065.458, 6.043030
1065.940, 6.792847
1066.423, 7.408569
1066.905, 7.662720
1067.387, 7.767456
1067.869, 7.303040
1068.351, 7.193237
1068.833, 8.682922
1069.315, 10.96173
1069.797, 12.44714
1070.280, 12.79742
1070.762, 12.87567
1071.244, 13.24689
1071.726, 13.41223
1072.208, 13.07526
1072.690, 12.51178
1073.172, 11.59821
1073.654, 10.77753
1074.136, 10.71686
1074.619, 11.50244
1075.101, 12.82391
1075.583, 15.13391
1076.065, 16.76135
1076.547, 16.64789
1077.029, 16.06531
1077.511, 15.94409
1077.993, 16.00256
1078.475, 15.30792
1078.958, 14.08002
1079.440, 14.30426
1079.922, 17.51935
1080.404, 20.47638
1080.886, 21.16156
1081.368, 21.54651
1081.850, 23.49646
1082.332, 25.80493
1082.814, 26.35541
1083.297, 25.48999
1083.779, 24.68268
1084.261, 24.48090
1084.743, 25.19611
1085.225, 28.32690
1085.707, 30.91827
1086.189, 30.17316
1086.671, 28.53168
1087.154, 29.10773
1087.636, 31.45770
1088.118, 33.30945
1088.600, 34.15546
1089.082, 33.78485
1089.564, 31.05731
1090.046, 28.33636
1090.528, 26.52417
1091.010, 25.94183
1091.493, 27.86383
1091.975, 30.98828
1092.457, 32.16968
1092.939, 30.58777
1093.421, 28.74323
1093.903, 27.40820
1094.385, 26.20215
1094.867, 24.30182
1095.349, 22.98694
1095.832, 24.62494
1096.314, 27.45947
1096.796, 28.13251
1097.278, 26.09998
1097.760, 23.42780
1098.242, 20.01508
1098.724, 17.09302
1099.206, 14.85199
1099.689, 13.44763
1100.171, 13.57520
1100.653, 14.27838
1101.135, 14.31927
1101.617, 13.56128
1102.099, 12.24420
1102.581, 9.808838
1103.063, 7.912537
1103.546, 7.564697
1104.028, 7.092590
1104.510, 5.062195
1104.992, 2.859192
1105.474, 2.123962
1105.956, 2.692139
1106.438, 3.400146
1106.920, 4.356445
1107.402, 4.725525
1107.885, 3.823120
1108.367, 3.020264
1108.849, 2.338318
1109.331, 2.357239
1109.813, 4.221619
1110.295, 7.097656
1110.777, 8.804993
1111.259, 9.276978
1111.741, 8.267700
1112.224, 3.198181
1112.706, 0.2917480
1113.188, 3.303772
1113.670, 6.156555
1114.152, 3.889771
1114.634, 0.6291500
1115.116, 2.130615
1115.598, 0.2969360
1116.081, 0.8487550
1116.563, 1.086121
1117.045, 0.9996950
1117.527, 0.2000730
1118.009, 0.3156130
1118.491, 5.4260001E-02
1118.973, 0.6962280
1119.455, 1.596497
1119.938, 2.643372
1120.420, 4.062134
1120.902, 6.714111
1121.384, 7.335144
1121.866, 4.470886
1122.348, 2.592712
1122.830, 3.716003
1123.312, 5.461060
1123.794, 5.720276
1124.276, 4.841614
1124.759, 3.885193
1125.241, 2.833435
1125.723, 1.772156
1126.205, 1.491731
1126.687, 0.3128050
1127.169, 1.207947
1127.651, 1.021362
1128.133, 1.208496
1128.616, 4.354065
1129.098, 6.593201
1129.580, 7.886475
1130.062, 6.885315
1130.544, 3.291687
1131.026, 1.107727
1131.508, 1.029541
1131.990, 0.7951050
1132.473, 0.7892460
1132.955, 1.947815
1133.437, 0.3302000
1133.919, 2.990906
1134.401, 4.265320
1134.883, 3.671692
1135.365, 3.084045
1135.847, 2.650330
1136.329, 2.576660
1136.812, 2.912903
1137.294, 2.946106
1137.776, 2.065308
1138.258, 0.8253780
1138.740, 0.3501590
1139.222, 0.3046260
1139.704, 0.9587400
1140.186, 0.3672490
1140.668, 2.455139
1141.151, 0.3817750
1141.633, 2.814148
1142.115, 3.408386
1142.597, 2.760376
1143.079, 0.8014530
1143.561, 1.317383
1144.043, 1.729980
1144.525, 0.8286130
1145.008, 1.515625
1145.490, 1.456242
1145.972, 0.9423196
1146.454, 1.417847
1146.936, 1.049194
1147.418, 5.6458000E-02
1147.900, 2.057129
1148.382, 2.608643
1148.865, 2.484070
1149.347, 2.366211
1149.829, 2.353027
1150.311, 2.779968
1150.793, 3.400208
1151.275, 2.842651
1151.757, 8.4412001E-02
1152.239, 1.277710
1152.721, 2.156860
1153.203, 6.045715
1153.686, 8.154968
1154.168, 8.790100
1154.650, 7.508362
1155.132, 5.375793
1155.614, 4.659180
1156.096, 5.787170
1156.578, 6.561829
1157.060, 6.239319
1157.543, 5.642700
1158.025, 4.266541
1158.507, 3.495483
1158.989, 5.099304
1159.471, 7.113403
1159.953, 6.539185
1160.435, 3.812134
1160.917, 2.809204
1161.400, 5.084595
1161.882, 6.168335
1162.364, 4.794006
1162.846, 4.113220
1163.328, 5.537415
1163.810, 7.098938
1164.292, 7.421997
1164.774, 6.863281
1165.256, 6.008728
1165.739, 4.781677
1166.221, 4.611877
1166.703, 5.805359
1167.185, 7.059509
1167.667, 8.524719
1168.149, 8.788513
1168.631, 6.897827
1169.113, 4.553406
1169.595, 3.635498
1170.078, 3.800293
1170.560, 3.944763
1171.042, 4.125793
1171.524, 4.150513
1172.006, 4.035217
1172.488, 5.936462
1172.970, 10.32129
1173.452, 12.34857
1173.934, 8.460083
1174.417, 2.779297
1174.899, 1.295105
1175.381, 2.637878
1175.863, 3.355164
1176.345, 3.784424
1176.827, 5.221741
1177.309, 7.304993
1177.791, 7.880127
1178.274, 6.352295
1178.756, 4.548279
1179.238, 3.707642
1179.720, 3.444397
1180.202, 3.668579
1180.684, 4.003845
1181.166, 3.921997
1181.648, 3.612183
1182.130, 3.448792
1182.613, 3.447632
1183.095, 3.359680
1183.577, 3.058533
1184.059, 2.999268
1184.541, 3.563538
1185.023, 4.164917
1185.505, 5.246399
1185.987, 5.718506
1186.469, 3.224121
1186.952, 1.0925000E-02
1187.434, 0.4237670
1187.916, 4.603577
1188.398, 6.958984
1188.880, 4.626770
1189.362, 3.889099
1189.844, 7.621582
1190.326, 9.938660
1190.809, 7.665649
1191.291, 4.885803
1191.773, 4.783447
1192.255, 6.330688
1192.737, 7.332947
1193.219, 7.826294
1193.701, 7.090515
1194.183, 4.344238
1194.666, 3.494751
1195.148, 5.591064
1195.630, 7.409119
1196.112, 7.458618
1196.594, 6.658447
1197.076, 5.884460
1197.558, 5.240662
1198.040, 5.721863
1198.522, 4.752197
1199.005, 4.117676
1199.487, 4.176941
1199.969, 2.780701
1200.451, 2.662720
1200.933, 2.975037
1201.415, 3.163757
1201.897, 3.689026
1202.379, 5.725098
1202.861, 7.763184
1203.344, 6.804382
1203.826, 4.309631
1204.308, 2.012207
1204.790, 0.5845950
1205.272, 1.902283
1205.754, 5.718079
1206.236, 8.937012
1206.718, 10.06714
1207.201, 10.24683
1207.683, 9.765442
1208.165, 9.030090
1208.647, 7.972900
1209.129, 7.091492
1209.611, 6.735840
1210.093, 6.912292
1210.575, 8.211853
1211.057, 10.64441
1211.540, 11.80286
1212.022, 10.16467
1212.504, 9.116333
1212.986, 9.916748
1213.468, 10.14404
1213.950, 8.008362
1214.432, 6.225830
1214.914, 7.853699
1215.396, 11.25159
1215.879, 11.74866
1216.361, 9.033325
1216.843, 7.408691
1217.325, 6.906860
1217.807, 7.445496
1218.289, 9.161377
1218.771, 10.17047
1219.253, 9.580872
1219.736, 8.500488
1220.218, 7.978088
1220.700, 8.037842
1221.182, 9.177490
1221.664, 8.976318
1222.146, 10.97882
1222.628, 10.03229
1223.110, 10.20825
1223.593, 11.44672
1224.075, 11.11475
1224.557, 8.101746
1225.039, 5.681580
1225.521, 7.074829
1226.003, 9.473511
1226.485, 10.77350
1226.967, 11.41211
1227.449, 11.24011
1227.932, 11.08630
1228.414, 12.72131
1228.896, 15.58148
1229.378, 16.37445
1229.860, 13.68646
1230.342, 11.42188
1230.824, 10.37683
1231.306, 9.955750
1231.788, 9.953552
1232.271, 10.56061
1232.753, 12.10590
1233.235, 14.12836
1233.717, 16.34485
1234.199, 18.51147
1234.681, 18.82269
1235.163, 16.70923
1235.645, 15.57849
1236.128, 15.63434
1236.610, 16.00500
1237.092, 16.57471
1237.574, 15.96240
1238.056, 13.07697
1238.538, 10.37793
1239.020, 11.55676
1239.502, 14.67419
1239.984, 14.60199
1240.467, 12.46857
1240.949, 11.32648
1241.431, 11.22565
1241.913, 11.66797
1242.395, 12.35529
1242.877, 12.65405
1243.359, 12.23950
1243.841, 11.48511
1244.323, 10.22925
1244.806, 9.275146
1245.288, 9.701111
1245.770, 10.26031
1246.252, 9.662292
1246.734, 8.449951
1247.216, 7.615112
1247.698, 7.213257
1248.180, 6.708679
1248.662, 6.004211
1249.145, 5.276489
1249.627, 4.865234
1250.109, 3.809204
1250.591, 1.110901
1251.073, 0.8266600
1251.555, 0.5727540
1252.037, 1.164307
1252.519, 3.864075
1253.002, 6.832458
1253.484, 6.309265
1253.966, 2.399231
1254.448, 0.1267700
1254.930, 0.3735350
1255.412, 0.1356200
1255.894, 0.5114750
1256.376, 0.8160400
1256.859, 0.3751830
1257.341, 0.2942500
1257.823, 2.149597
1258.305, 4.371216
1258.787, 5.117737
1259.269, 4.745056
1259.751, 3.043884
1260.233, 0.9568480
1260.715, 0.1025390
1261.198, 3.4179999E-03
1261.680, 0.9338990
1262.162, 2.809631
1262.644, 3.979126
1263.126, 3.520813
1263.608, 2.879639
1264.090, 2.193726
1264.572, 1.758545
1265.054, 1.613831
1265.537, 1.891541
1266.019, 2.756348
1266.501, 4.164490
1266.983, 6.353882
1267.465, 5.124268
1267.947, 8.890747
1268.429, 3.381409
1268.911, 2.7470000E-03
1269.394, 0.1413570
1269.876, 0.8576660
1270.358, 2.093689
1270.840, 2.865112
1271.322, 2.378784
1271.804, 1.949829
1272.286, 4.528320
1272.768, 7.848938
1273.250, 7.557556
1273.733, 5.385132
1274.215, 4.205200
1274.697, 4.316589
1275.179, 5.495239
1275.661, 7.525269
1276.143, 8.999146
1276.625, 9.824402
1277.107, 9.117065
1277.589, 3.818848
1278.072, 0.5097050
1278.554, 4.475952
1279.036, 9.171875
1279.518, 9.397705
1280.000, 7.098145
1280.482, 5.454041
1280.964, 4.438599
1281.446, 3.072510
1281.929, 1.074829
1282.411, 0.6181030
1282.893, 1.904846
1283.375, 3.294983
1283.857, 4.363586
1284.339, 4.050354
1284.821, 1.745728
1285.303, 3.0944999E-02
1285.786, 1.230591
1286.268, 0.0000000E+00
##END=



