##NAMES=Dundasite
##RRUFFID=R090038
##IDEAL CHEMISTRY=Pb^2+^Al_2_(CO_3_)_2_(OH)_4_&#183;H_2_O
##LOCALITY=Tsumeb, Namibia
##OWNER=RRUFF
##SOURCE=William W. Pinch
##DESCRIPTION=Colorless acicular crystals in spherical aggregates on matrix.
##STATUS=The identification of this mineral has been confirmed by single-crystal X-ray diffraction.
##URL=rruff.info/R090038
111.3501, 0.0000000E+00
111.8322, 2.211853
112.3143, 1.414520
112.7964, 5.0170999E-02
113.2785, 1.718994
113.7607, 2.848053
114.2428, 2.340912
114.7249, 1.038544
115.2070, 0.2388610
115.6891, 0.7372130
116.1712, 2.380768
116.6534, 3.519012
117.1355, 4.367981
117.6176, 4.973755
118.0997, 5.111633
118.5818, 4.705292
119.0639, 4.179871
119.5461, 3.847137
120.0282, 3.790833
120.5103, 3.932800
120.9924, 4.670807
121.4745, 5.833496
121.9566, 6.749847
122.4388, 7.023041
122.9209, 7.274292
123.4030, 8.319061
123.8851, 10.32016
124.3672, 10.87912
124.8493, 11.18616
125.3315, 11.58588
125.8136, 11.96191
126.2957, 12.58932
126.7778, 12.90802
127.2599, 12.40750
127.7420, 10.96350
128.2242, 9.225403
128.7063, 8.579742
129.1884, 10.02087
129.6705, 10.80048
130.1526, 11.00388
130.6347, 10.68475
131.1169, 9.630127
131.5990, 7.833466
132.0811, 5.707947
132.5632, 4.231842
133.0453, 4.263641
133.5274, 3.975586
134.0096, 3.060089
134.4917, 1.805817
134.9738, 0.5205380
135.4559, 0.7720950
135.9380, 1.819519
136.4201, 1.648254
136.9023, 0.7750240
137.3844, 2.819946
137.8665, 3.073975
138.3486, 1.867188
138.8307, 0.6552120
139.3128, 0.1678160
139.7950, 0.2916560
140.2771, 0.6556700
140.7592, 1.524323
141.2413, 2.347198
141.7234, 2.411438
142.2055, 1.544342
142.6877, 0.8103940
143.1698, 0.5730290
143.6519, 0.8553770
144.1340, 1.919220
144.6161, 4.337494
145.0982, 7.329834
145.5803, 8.721191
146.0625, 7.417358
146.5446, 6.168549
147.0267, 6.108490
147.5088, 6.727814
147.9909, 7.238098
148.4730, 7.105927
148.9552, 6.362335
149.4373, 5.691711
149.9194, 5.093414
150.4015, 4.565796
150.8836, 4.041321
151.3657, 3.580658
151.8479, 3.304199
152.3300, 3.334808
152.8121, 3.706879
153.2942, 4.164764
153.7763, 4.949493
154.2584, 5.621979
154.7406, 5.891754
155.2227, 5.806335
155.7048, 5.658264
156.1869, 5.725311
156.6690, 6.050629
157.1511, 6.353088
157.6333, 6.590637
158.1154, 7.227936
158.5975, 8.211853
159.0796, 8.767792
159.5617, 9.375916
160.0438, 9.906494
160.5260, 10.31326
161.0081, 10.70016
161.4902, 11.05289
161.9723, 11.44266
162.4544, 11.95840
162.9365, 12.56802
163.4187, 13.42252
163.9008, 14.86783
164.3829, 16.87375
164.8650, 18.63718
165.3471, 19.44653
165.8292, 19.47824
166.3113, 19.93100
166.7935, 21.44385
167.2756, 23.08966
167.7577, 24.25580
168.2398, 24.90695
168.7219, 25.13489
169.2040, 25.06195
169.6862, 24.28528
170.1683, 23.89960
170.6504, 24.88217
171.1325, 25.79620
171.6146, 25.66934
172.0967, 24.35782
172.5789, 22.60037
173.0610, 21.47342
173.5431, 21.28723
174.0252, 21.11026
174.5073, 20.71884
174.9894, 20.38422
175.4716, 20.40936
175.9537, 20.86172
176.4358, 21.43835
176.9179, 21.53485
177.4000, 20.96027
177.8821, 20.08893
178.3643, 18.50372
178.8464, 16.83539
179.3285, 15.70560
179.8106, 15.36115
180.2927, 15.65689
180.7748, 16.23901
181.2570, 18.07336
181.7391, 18.99960
182.2212, 18.05606
182.7033, 16.18695
183.1854, 14.82236
183.6675, 14.63721
184.1497, 15.31946
184.6318, 15.94061
185.1139, 16.57925
185.5960, 17.08026
186.0781, 17.06403
186.5602, 16.79916
187.0423, 17.23004
187.5245, 19.21017
188.0066, 21.75320
188.4887, 22.58685
188.9708, 21.10297
189.4529, 19.02902
189.9350, 17.26392
190.4172, 15.81503
190.8993, 14.63065
191.3814, 13.69312
191.8635, 13.03049
192.3456, 12.64389
192.8277, 12.57587
193.3099, 12.65222
193.7920, 13.03247
194.2741, 13.91824
194.7562, 14.21170
195.2383, 12.27856
195.7204, 9.814392
196.2026, 8.312897
196.6847, 8.304565
197.1668, 8.927612
197.6489, 8.923859
198.1310, 8.180328
198.6131, 7.114929
199.0953, 5.376770
199.5774, 3.604004
200.0595, 2.409363
200.5416, 2.035614
201.0237, 2.234131
201.5058, 2.500641
201.9880, 2.969269
202.4701, 3.265289
202.9522, 3.744354
203.4343, 3.869843
203.9164, 2.738007
204.3985, 0.1019900
204.8807, 3.694824
205.3628, 5.075256
205.8449, 1.815277
206.3270, 0.6200260
206.8091, 1.238861
207.2912, 0.8847960
207.7733, 0.4227600
208.2555, 0.2750240
208.7376, 0.4553830
209.2197, 1.017303
209.7018, 2.540802
210.1839, 3.805145
210.6660, 4.652069
211.1482, 5.191162
211.6303, 5.548798
212.1124, 5.770355
212.5945, 5.875397
213.0766, 5.982269
213.5587, 5.943024
214.0409, 6.085938
214.5230, 6.525574
215.0051, 7.183075
215.4872, 7.886749
215.9693, 8.518097
216.4514, 9.190826
216.9336, 10.39240
217.4157, 12.86267
217.8978, 14.80069
218.3799, 15.22733
218.8620, 14.64682
219.3441, 14.36896
219.8263, 15.13406
220.3084, 16.45175
220.7905, 16.89615
221.2726, 15.63687
221.7547, 15.00256
222.2368, 16.95428
222.7190, 20.78000
223.2011, 23.37497
223.6832, 22.74893
224.1653, 20.65753
224.6474, 20.70612
225.1295, 23.77206
225.6117, 26.85034
226.0938, 27.55316
226.5759, 26.19049
227.0580, 25.40857
227.5401, 26.57834
228.0222, 28.52567
228.5043, 29.70709
228.9865, 29.91678
229.4686, 29.88080
229.9507, 30.35464
230.4328, 31.32443
230.9149, 31.69193
231.3970, 30.44531
231.8792, 28.93958
232.3613, 28.48190
232.8434, 29.29318
233.3255, 30.21616
233.8076, 30.18854
234.2897, 29.17206
234.7719, 27.65646
235.2540, 25.03915
235.7361, 22.41498
236.2182, 20.59128
236.7003, 19.65381
237.1824, 18.90378
237.6646, 17.48895
238.1467, 15.22443
238.6288, 13.28018
239.1109, 12.05194
239.5930, 11.02173
240.0751, 9.853973
240.5573, 8.539429
241.0394, 7.381866
241.5215, 6.947357
242.0036, 7.609741
242.4857, 7.428497
242.9678, 5.125488
243.4500, 2.889038
243.9321, 2.011841
244.4142, 2.491669
244.8963, 3.285034
245.3784, 3.051819
245.8605, 1.243835
246.3427, 0.4552610
246.8248, 1.769928
247.3069, 3.129974
247.7890, 3.475037
248.2711, 2.811249
248.7532, 1.855957
249.2354, 1.390564
249.7175, 1.622559
250.1996, 1.453979
250.6817, 0.3537290
251.1638, 0.6258540
251.6459, 1.012756
252.1281, 0.8001400
252.6102, 0.2017520
253.0923, 0.6484380
253.5744, 1.866455
254.0565, 2.517456
254.5386, 2.032898
255.0208, 1.618713
255.5029, 1.995636
255.9850, 2.990875
256.4671, 3.878815
256.9492, 4.014465
257.4313, 3.326294
257.9135, 2.674683
258.3956, 1.782257
258.8777, 1.185303
259.3598, 1.307709
259.8419, 1.966217
260.3240, 2.602783
260.8062, 2.806885
261.2883, 2.577576
261.7704, 2.234070
262.2525, 1.509857
262.7346, 0.7052920
263.2167, 0.1730650
263.6989, 0.1583860
264.1810, 0.4444270
264.6631, 0.8362730
265.1452, 1.315704
265.6273, 1.767426
266.1094, 1.897736
266.5916, 2.328857
267.0737, 3.883026
267.5558, 5.950226
268.0379, 6.931641
268.5200, 5.733490
269.0021, 3.038300
269.4843, 1.754425
269.9664, 2.909790
270.4485, 3.887787
270.9306, 3.617096
271.4127, 2.602173
271.8948, 1.869324
272.3770, 1.861176
272.8591, 2.359039
273.3412, 2.727234
273.8233, 2.790131
274.3054, 3.093262
274.7875, 4.238831
275.2697, 5.705170
275.7518, 6.355804
276.2339, 5.620117
276.7160, 4.358185
277.1981, 4.353760
277.6802, 5.774811
278.1623, 6.943726
278.6444, 7.625610
279.1266, 7.812897
279.6087, 7.205444
280.0908, 5.534180
280.5729, 3.799225
281.0550, 3.619934
281.5371, 4.970184
282.0193, 6.153351
282.5014, 6.725952
282.9835, 6.890869
283.4656, 6.757111
283.9477, 6.264191
284.4298, 6.001709
284.9120, 7.095703
285.3941, 9.334412
285.8762, 10.39365
286.3583, 8.566620
286.8404, 5.983185
287.3225, 5.521942
287.8047, 7.635498
288.2868, 10.05637
288.7689, 10.95862
289.2510, 10.65561
289.7331, 10.27658
290.2152, 9.815247
290.6974, 9.471313
291.1795, 9.621277
291.6616, 10.29123
292.1437, 10.71558
292.6258, 10.23541
293.1079, 9.199310
293.5901, 8.434753
294.0722, 7.963135
294.5543, 7.846863
295.0364, 8.427368
295.5185, 9.652740
296.0006, 10.38547
296.4828, 9.781097
296.9649, 8.545258
297.4470, 8.010864
297.9291, 8.527649
298.4112, 9.235809
298.8933, 9.710144
299.3755, 9.928467
299.8576, 9.621399
300.3397, 8.260529
300.8218, 6.795746
301.3039, 6.664978
301.7860, 8.025574
302.2682, 9.584351
302.7503, 10.89423
303.2324, 11.87131
303.7145, 12.22351
304.1966, 11.79764
304.6787, 10.87509
305.1609, 9.498322
305.6430, 7.732452
306.1251, 6.371429
306.6072, 5.934326
307.0893, 6.125671
307.5714, 6.258514
308.0536, 6.151947
308.5357, 6.283600
309.0178, 7.450317
309.4999, 9.228729
309.9820, 10.45013
310.4641, 10.32770
310.9463, 9.603638
311.4284, 9.446503
311.9105, 9.977783
312.3926, 10.49396
312.8747, 10.53040
313.3568, 10.23749
313.8390, 9.830261
314.3211, 9.097046
314.8032, 8.528229
315.2853, 8.867462
315.7674, 10.13745
316.2495, 11.08374
316.7317, 11.06699
317.2138, 10.39969
317.6959, 9.519775
318.1780, 8.288361
318.6601, 7.279419
319.1422, 7.250671
319.6243, 8.004181
320.1064, 8.051575
320.5886, 6.454407
321.0707, 4.564392
321.5528, 4.205139
322.0349, 5.428741
322.5170, 6.399261
322.9991, 5.682831
323.4813, 3.931213
323.9634, 3.181366
324.4455, 4.237671
324.9276, 5.416382
325.4097, 4.581268
325.8918, 2.176361
326.3740, 0.4931640
326.8561, 1.087036
327.3382, 2.645050
327.8203, 2.879700
328.3024, 1.353546
328.7845, 0.2200320
329.2667, 0.3392640
329.7488, 0.4884640
330.2309, 1.018616
330.7130, 0.8812260
331.1951, 0.4504700
331.6772, 2.0691000E-02
332.1594, 0.4066770
332.6415, 0.7312320
333.1236, 0.8657230
333.6057, 0.8786620
334.0878, 0.9998780
334.5699, 1.518433
335.0521, 1.628845
335.5342, 0.3685910
336.0163, 1.881287
336.4984, 3.472443
336.9805, 3.709991
337.4626, 3.188843
337.9448, 2.854767
338.4269, 2.760040
338.9090, 2.475433
339.3911, 1.365540
339.8732, 3.5889000E-02
340.3553, 7.3363997E-02
340.8375, 1.586700
341.3196, 3.367920
341.8017, 2.841370
342.2838, 0.2900390
342.7659, 0.8099060
343.2480, 1.818054
343.7302, 5.293457
344.2123, 6.318909
344.6944, 4.664215
345.1765, 2.479248
345.6586, 1.052338
346.1407, 0.4658810
346.6229, 0.5320430
347.1050, 2.141876
347.5871, 3.608185
348.0692, 3.633484
348.5513, 2.563873
349.0334, 1.813446
349.5156, 2.230927
349.9977, 3.239685
350.4798, 3.180481
350.9619, 1.467102
351.4440, 7.6447003E-02
351.9261, 3.5156000E-02
352.4083, 0.5138240
352.8904, 0.6047670
353.3725, 0.1476140
353.8546, 1.060089
354.3367, 1.066498
354.8188, 0.1112670
355.3010, 1.007080
355.7831, 1.531403
356.2652, 1.695465
356.7473, 1.207214
357.2294, 0.1409000
357.7115, 0.5766600
358.1937, 1.5228000E-02
358.6758, 1.989655
359.1579, 3.082001
359.6400, 2.759705
360.1221, 2.173370
360.6042, 1.708038
361.0863, 1.420624
361.5685, 1.382080
362.0506, 1.649780
362.5327, 2.162018
363.0148, 2.674957
363.4969, 3.525909
363.9790, 3.962524
364.4612, 3.731934
364.9433, 3.086578
365.4254, 2.132416
365.9075, 0.9329220
366.3896, 4.9042001E-02
366.8717, 2.0450000E-03
367.3539, 1.888519
367.8360, 2.994324
368.3181, 2.867889
368.8002, 2.368927
369.2823, 1.827026
369.7644, 1.413605
370.2466, 1.447296
370.7287, 2.328857
371.2108, 4.150024
371.6929, 5.161285
372.1750, 4.693024
372.6571, 4.192749
373.1393, 4.132751
373.6214, 4.325500
374.1035, 4.397430
374.5856, 4.141846
375.0677, 3.635162
375.5498, 3.124054
376.0320, 2.679138
376.5141, 2.110352
376.9962, 1.202271
377.4783, 0.2891540
377.9604, 0.4960020
378.4425, 1.058624
378.9247, 1.108704
379.4068, 2.4383999E-02
379.8889, 2.767761
380.3710, 4.705170
380.8531, 5.535889
381.3352, 5.733276
381.8174, 5.193207
382.2995, 4.148651
382.7816, 3.109039
383.2637, 2.475616
383.7458, 2.167908
384.2279, 1.643677
384.7101, 0.4551090
385.1922, 0.2002560
385.6743, 0.2745670
386.1564, 1.296112
386.6385, 2.184357
387.1206, 2.696381
387.6028, 3.011444
388.0849, 3.367645
388.5670, 3.819550
389.0491, 4.021973
389.5312, 3.418976
390.0133, 2.856628
390.4955, 3.089386
390.9776, 4.118896
391.4597, 5.073029
391.9418, 5.142731
392.4239, 4.462646
392.9060, 4.030121
393.3882, 4.164642
393.8703, 4.293701
394.3524, 3.928864
394.8345, 3.276886
395.3166, 2.799194
395.7987, 2.794067
396.2809, 2.952026
396.7630, 2.825714
397.2451, 2.391327
397.7272, 1.937531
398.2093, 1.444946
398.6914, 1.138184
399.1736, 1.308899
399.6557, 2.053162
400.1378, 2.946320
400.6199, 3.875916
401.1020, 4.842285
401.5841, 5.449432
402.0662, 5.561005
402.5483, 5.428680
403.0305, 5.332092
403.5126, 5.268341
403.9947, 5.038483
404.4768, 4.585419
404.9589, 3.974487
405.4410, 2.988770
405.9232, 1.724091
406.4053, 1.018158
406.8874, 1.508545
407.3695, 3.008362
407.8516, 4.466125
408.3337, 6.590149
408.8159, 7.853455
409.2980, 7.076324
409.7801, 5.308868
410.2622, 4.338165
410.7443, 4.774109
411.2264, 5.779938
411.7086, 5.966980
412.1907, 4.859619
412.6728, 4.371613
413.1549, 4.817749
413.6370, 5.494751
414.1191, 5.853424
414.6013, 5.948975
415.0834, 6.328674
415.5655, 7.522156
416.0476, 9.485596
416.5297, 10.11780
417.0118, 7.880402
417.4940, 6.010986
417.9761, 5.173706
418.4582, 4.951141
418.9403, 4.722290
419.4224, 4.259369
419.9045, 3.971039
420.3867, 4.766998
420.8688, 7.434601
421.3509, 9.060333
421.8330, 8.920929
422.3151, 8.281311
422.7972, 7.552307
423.2794, 6.881927
423.7615, 6.428894
424.2436, 6.326599
424.7257, 6.561157
425.2078, 6.986115
425.6899, 7.491913
426.1721, 8.272705
426.6542, 9.821594
427.1363, 11.47681
427.6184, 12.43738
428.1005, 12.42529
428.5826, 11.82144
429.0648, 10.88757
429.5469, 9.606354
430.0290, 8.613953
430.5111, 7.977448
430.9932, 7.797760
431.4753, 8.365631
431.9575, 9.557343
432.4396, 10.36304
432.9217, 10.04977
433.4038, 9.132233
433.8859, 8.409668
434.3680, 7.914581
434.8502, 7.688873
435.3323, 7.939178
435.8144, 8.424133
436.2965, 8.507629
436.7786, 7.921356
437.2607, 7.469635
437.7429, 7.695740
438.2250, 8.332581
438.7071, 8.641876
439.1892, 8.292358
439.6713, 7.440887
440.1534, 6.222565
440.6356, 4.408234
441.1177, 3.362762
441.5998, 3.721375
442.0819, 4.427979
442.5640, 4.657288
443.0461, 4.487671
443.5282, 4.658264
444.0103, 5.753784
444.4925, 7.459808
444.9746, 7.973633
445.4567, 6.215302
445.9388, 4.578857
446.4209, 3.012268
446.9030, 1.908478
447.3852, 1.779846
447.8673, 2.470947
448.3494, 3.424957
448.8315, 3.800171
449.3136, 3.421234
449.7957, 3.340027
450.2779, 4.225037
450.7600, 4.742126
451.2421, 4.000549
451.7242, 2.596558
452.2063, 1.722778
452.6884, 2.103271
453.1706, 3.232117
453.6527, 3.792603
454.1348, 3.517212
454.6169, 3.287201
455.0990, 3.399628
455.5811, 3.641144
456.0633, 3.902863
456.5454, 4.166870
457.0275, 4.418488
457.5096, 4.675262
457.9917, 4.915527
458.4738, 5.074341
458.9560, 5.166656
459.4381, 5.124634
459.9202, 4.848358
460.4023, 4.410126
460.8844, 3.897736
461.3665, 3.133453
461.8487, 2.576050
462.3308, 2.830414
462.8129, 3.625214
463.2950, 3.902618
463.7771, 3.208405
464.2592, 2.284821
464.7414, 2.344971
465.2235, 3.660095
465.7056, 4.276093
466.1877, 3.283447
466.6698, 2.040253
467.1519, 1.759766
467.6341, 2.308228
468.1162, 2.674896
468.5983, 2.184052
469.0804, 1.161194
469.5625, 0.9033810
470.0446, 2.261444
470.5268, 3.299316
471.0089, 3.837036
471.4910, 4.009460
471.9731, 3.845520
472.4552, 3.404602
472.9373, 2.876190
473.4195, 2.419678
473.9016, 2.013275
474.3837, 1.968048
474.8658, 2.605774
475.3479, 3.266632
475.8300, 3.683350
476.3122, 4.029755
476.7943, 4.687103
477.2764, 5.872620
477.7585, 6.995209
478.2406, 7.114929
478.7227, 6.154083
479.2049, 4.836700
479.6870, 2.738434
480.1691, 0.8963320
480.6512, 0.2039790
481.1333, 0.4717100
481.6154, 0.7435300
482.0976, 0.2455750
482.5797, 0.3761900
483.0618, 0.1264340
483.5439, 1.799469
484.0260, 3.184875
484.5081, 3.468689
484.9902, 3.087616
485.4724, 3.070709
485.9545, 3.657349
486.4366, 3.893616
486.9187, 3.119751
487.4008, 1.951813
487.8829, 1.114868
488.3651, 0.7409360
488.8472, 0.8654480
489.3293, 1.660767
489.8114, 3.119904
490.2935, 3.745087
490.7756, 2.967590
491.2578, 2.182831
491.7399, 1.809998
492.2220, 1.648438
492.7041, 1.421661
493.1862, 1.035461
493.6683, 0.5648500
494.1505, 0.1215520
494.6326, 0.2702940
495.1147, 0.7229310
495.5968, 1.991119
496.0789, 2.560577
496.5610, 1.255920
497.0432, 1.089630
497.5253, 2.875000
498.0074, 3.219788
498.4895, 2.740448
498.9716, 2.583466
499.4537, 2.835114
499.9359, 2.842621
500.4180, 2.224091
500.9001, 1.508362
501.3822, 1.091156
501.8643, 0.9723210
502.3464, 1.051514
502.8286, 1.744781
503.3107, 2.397430
503.7928, 1.473053
504.2749, 1.061981
504.7570, 2.392517
505.2391, 0.4049380
505.7213, 3.347260
506.2034, 4.586182
506.6855, 2.183472
507.1676, 0.2595210
507.6497, 0.3228150
508.1318, 1.201782
508.6140, 1.701111
509.0961, 1.615265
509.5782, 1.146637
510.0603, 0.3871460
510.5424, 0.6256410
511.0245, 1.067108
511.5067, 0.5597530
511.9888, 6.9153003E-02
512.4709, 0.9660030
512.9530, 1.778717
513.4351, 2.038574
513.9172, 1.669495
514.3994, 1.137756
514.8815, 0.9804080
515.3636, 1.215546
515.8457, 1.627014
516.3278, 2.635529
516.8099, 3.239441
517.2921, 2.533600
517.7742, 1.343292
518.2563, 1.112396
518.7384, 2.600250
519.2205, 4.196350
519.7026, 3.859375
520.1848, 1.860718
520.6669, 0.2670900
521.1490, 0.5726010
521.6311, 0.7454530
522.1132, 0.1429140
522.5953, 1.834045
523.0775, 2.809448
523.5596, 2.311127
524.0417, 1.460571
524.5238, 1.053101
525.0059, 0.9385680
525.4880, 0.4596560
525.9702, 0.7300720
526.4523, 1.832947
526.9344, 1.358582
527.4165, 1.764191
527.8986, 3.653259
528.3807, 3.688354
528.8629, 3.185364
529.3450, 2.513214
529.8271, 1.909363
530.3092, 1.751282
530.7913, 2.287659
531.2734, 3.192841
531.7556, 3.647552
532.2377, 3.479462
532.7198, 3.346130
533.2019, 3.546204
533.6840, 3.629333
534.1661, 3.099945
534.6483, 2.150116
535.1304, 1.608490
535.6125, 2.223236
536.0946, 3.358948
536.5767, 3.810455
537.0588, 3.543365
537.5410, 3.294983
538.0231, 3.332947
538.5052, 3.558990
538.9873, 3.885681
539.4694, 4.363434
539.9515, 4.590698
540.4337, 4.226715
540.9158, 3.723663
541.3979, 3.445404
541.8800, 3.398315
542.3621, 3.391113
542.8442, 3.281158
543.3264, 3.179932
543.8085, 3.482086
544.2906, 5.090820
544.7726, 5.816895
545.2548, 4.571289
545.7369, 3.261108
546.2190, 3.522400
546.7011, 5.156830
547.1832, 6.791077
547.6653, 7.369476
548.1475, 7.139435
548.6296, 7.078003
549.1117, 7.285522
549.5938, 7.396027
550.0759, 7.378418
550.5580, 7.166351
551.0402, 6.426147
551.5223, 5.211639
552.0044, 4.546326
552.4865, 5.481659
552.9686, 7.151245
553.4507, 7.947418
553.9329, 7.845306
554.4150, 7.686890
554.8971, 7.845642
555.3792, 8.113892
555.8613, 8.084015
556.3434, 7.447876
556.8256, 7.326263
557.3077, 8.529022
557.7898, 9.924866
558.2719, 10.37506
558.7540, 9.940674
559.2361, 9.472168
559.7183, 9.588531
560.2004, 10.08273
560.6825, 10.01852
561.1646, 8.671082
561.6467, 8.027802
562.1288, 9.067078
562.6110, 10.03354
563.0931, 9.516083
563.5752, 7.680298
564.0573, 6.334229
564.5394, 7.084747
565.0215, 9.055267
565.5037, 9.890472
565.9858, 9.409180
566.4679, 8.998260
566.9500, 9.179474
567.4321, 9.678772
567.9142, 10.29306
568.3964, 11.04251
568.8785, 11.11569
569.3606, 9.533051
569.8427, 7.715454
570.3248, 7.080261
570.8069, 7.573364
571.2891, 8.543060
571.7712, 9.716766
572.2533, 10.89172
572.7354, 11.56137
573.2175, 11.67752
573.6996, 11.30655
574.1818, 9.822052
574.6639, 8.431854
575.1460, 7.835419
575.6281, 7.963898
576.1102, 8.535767
576.5923, 9.471527
577.0745, 10.46152
577.5566, 10.78964
578.0387, 10.36688
578.5208, 9.744995
579.0029, 8.725342
579.4850, 7.824432
579.9672, 7.420441
580.4493, 7.447174
580.9314, 7.771942
581.4135, 8.775665
581.8956, 9.656891
582.3777, 9.218872
582.8599, 7.890808
583.3420, 7.501953
583.8241, 8.794373
584.3062, 10.42245
584.7883, 10.64966
585.2704, 9.132660
585.7526, 8.013702
586.2347, 7.461853
586.7168, 7.091278
587.1989, 6.919006
587.6810, 6.762146
588.1631, 6.160645
588.6453, 4.990356
589.1274, 4.010651
589.6095, 4.723938
590.0916, 7.483276
590.5737, 8.480591
591.0558, 6.253723
591.5380, 4.322083
592.0201, 4.842377
592.5022, 6.505524
592.9843, 7.234497
593.4664, 6.270081
593.9485, 5.308014
594.4307, 6.173462
594.9128, 7.956879
595.3949, 8.181396
595.8770, 6.436462
596.3591, 4.604462
596.8412, 4.099884
597.3234, 4.762482
597.8055, 5.440826
598.2876, 6.393158
598.7697, 7.026428
599.2518, 7.019073
599.7339, 6.797974
600.2161, 6.758606
600.6982, 6.938141
601.1803, 7.119202
601.6624, 7.115082
602.1445, 7.034729
602.6266, 7.549744
603.1088, 9.268372
603.5909, 10.20508
604.0730, 9.181641
604.5551, 7.650940
605.0372, 6.463837
605.5193, 5.702362
606.0015, 5.456238
606.4836, 6.367279
606.9657, 7.432556
607.4478, 7.192596
607.9299, 5.855103
608.4120, 4.710114
608.8942, 4.278656
609.3763, 4.258881
609.8584, 4.236572
610.3405, 4.031006
610.8226, 3.992615
611.3047, 4.277618
611.7869, 4.735535
612.2690, 5.561279
612.7511, 6.422211
613.2332, 6.701416
613.7153, 6.184906
614.1974, 5.459534
614.6796, 5.514832
615.1617, 6.428040
615.6438, 6.385895
616.1259, 4.687469
616.6080, 3.335144
617.0901, 3.863892
617.5723, 5.197052
618.0544, 5.770386
618.5365, 5.098602
619.0186, 4.522491
619.5007, 5.088257
619.9828, 6.129974
620.4650, 6.580597
620.9471, 6.337860
621.4292, 5.799866
621.9113, 5.141083
622.3934, 4.507202
622.8755, 4.477051
623.3577, 5.700378
623.8398, 6.616211
624.3219, 7.237732
624.8040, 7.548981
625.2861, 7.302429
625.7682, 6.696564
626.2504, 6.309082
626.7325, 6.547150
627.2145, 6.997894
627.6967, 6.821136
628.1788, 5.989014
628.6609, 5.217529
629.1430, 4.497314
629.6251, 4.105103
630.1072, 4.626343
630.5894, 5.759521
631.0715, 6.376190
631.5536, 6.203491
632.0357, 5.596069
632.5178, 4.039490
632.9999, 2.402954
633.4821, 2.420807
633.9642, 4.306793
634.4463, 6.330841
634.9284, 6.838547
635.4105, 5.922775
635.8926, 4.906494
636.3748, 3.727051
636.8569, 2.554230
637.3390, 1.024658
637.8211, 0.2046360
638.3032, 0.4912110
638.7853, 0.1264340
639.2675, 0.9924470
639.7496, 2.070496
640.2317, 2.921951
640.7138, 2.358154
641.1959, 0.5557100
641.6780, 1.7029000E-02
642.1602, 1.888519
642.6423, 4.325912
643.1244, 4.880341
643.6065, 3.110138
644.0886, 2.133484
644.5707, 2.513885
645.0529, 3.058716
645.5350, 3.369370
646.0171, 3.499313
646.4992, 3.638901
646.9813, 3.811127
647.4634, 3.741898
647.9456, 2.942703
648.4277, 1.526154
648.9098, 0.9500120
649.3919, 1.590729
649.8740, 2.100464
650.3561, 1.889633
650.8383, 1.322128
651.3204, 0.6598660
651.8025, 0.1073000
652.2846, 0.4399870
652.7667, 0.3436280
653.2488, 1.295792
653.7310, 1.298080
654.2131, 0.6266780
654.6952, 0.3503880
655.1773, 0.9254000
655.6594, 1.900696
656.1415, 2.581238
656.6237, 2.918076
657.1058, 3.183838
657.5879, 3.914886
658.0700, 3.951645
658.5521, 1.901428
659.0342, 0.5285950
659.5164, 0.8676610
659.9985, 1.432831
660.4806, 3.828049
660.9627, 4.024994
661.4448, 2.849045
661.9269, 2.250381
662.4091, 2.327103
662.8912, 2.269562
663.3733, 1.581482
663.8554, 0.6875000
664.3375, 0.4843600
664.8196, 1.354889
665.3018, 1.808228
665.7839, 1.805847
666.2660, 1.389236
666.7481, 9.4192997E-02
667.2302, 1.789169
667.7123, 2.069916
668.1945, 0.3756100
668.6766, 1.861450
669.1587, 2.837708
669.6408, 2.632721
670.1229, 2.416718
670.6050, 2.143936
671.0872, 2.124237
671.5693, 3.072220
672.0514, 4.050537
672.5335, 3.213516
673.0156, 2.5055001E-02
673.4977, 2.294403
673.9799, 2.046295
674.4620, 0.8806460
674.9441, 0.1758730
675.4262, 0.9811100
675.9083, 1.434830
676.3904, 1.485138
676.8726, 1.375549
677.3547, 1.517838
677.8368, 1.967285
678.3189, 2.348068
678.8010, 2.799881
679.2831, 2.972122
679.7653, 2.606598
680.2474, 1.972931
680.7295, 1.369492
681.2116, 0.8413540
681.6937, 0.3790280
682.1758, 0.1123350
682.6580, 0.4856720
683.1401, 0.5493770
683.6222, 0.3119810
684.1043, 0.1414640
684.5864, 0.7848660
685.0685, 1.559128
685.5507, 2.412827
686.0328, 3.487656
686.5149, 4.063965
686.9970, 3.877930
687.4791, 3.466995
687.9612, 2.654999
688.4434, 1.860138
688.9255, 1.673965
689.4076, 2.245331
689.8897, 2.870071
690.3718, 3.075409
690.8539, 2.971375
691.3361, 2.641922
691.8182, 2.110168
692.3003, 1.697952
692.7824, 1.534912
693.2645, 1.581177
693.7466, 1.796463
694.2288, 2.243759
694.7109, 2.609344
695.1930, 2.783401
695.6751, 3.006287
696.1572, 3.573990
696.6393, 4.196365
697.1215, 4.355453
697.6036, 3.987656
698.0857, 3.217056
698.5678, 1.575027
699.0499, 0.2968900
699.5320, 0.1206510
700.0142, 2.217728
700.4963, 4.020370
700.9784, 4.263840
701.4605, 3.594788
701.9426, 2.693222
702.4247, 1.473846
702.9069, 0.8409580
703.3890, 1.117981
703.8711, 1.626083
704.3532, 2.371964
704.8353, 3.067535
705.3174, 3.273361
705.7996, 3.000763
706.2817, 2.750961
706.7638, 3.009720
707.2459, 3.638123
707.7280, 4.299927
708.2101, 5.058182
708.6923, 5.172134
709.1743, 4.140991
709.6564, 2.824173
710.1385, 2.156281
710.6207, 2.131256
711.1028, 2.067749
711.5849, 1.577438
712.0670, 1.445190
712.5491, 2.264267
713.0313, 3.425674
713.5134, 4.283295
713.9955, 4.729065
714.4776, 4.930054
714.9597, 5.000916
715.4418, 4.945084
715.9240, 4.789948
716.4061, 4.553375
716.8882, 3.990295
717.3703, 2.750366
717.8524, 1.764999
718.3345, 2.044815
718.8167, 3.204758
719.2988, 3.834015
719.7809, 3.162430
720.2630, 2.960449
720.7451, 4.668457
721.2272, 6.556961
721.7094, 6.540482
722.1915, 4.915314
722.6736, 3.638168
723.1557, 3.921326
723.6378, 4.880661
724.1199, 4.564590
724.6021, 2.793030
725.0842, 1.657730
725.5663, 1.668716
726.0484, 2.110992
726.5305, 2.626404
727.0126, 3.054367
727.4948, 3.075104
727.9769, 2.448135
728.4590, 2.108093
728.9411, 2.549164
729.4232, 3.208481
729.9053, 3.841003
730.3875, 4.272919
730.8696, 4.162201
731.3517, 3.198822
731.8338, 1.938202
732.3159, 1.007599
732.7980, 0.4615020
733.2802, 0.2811740
733.7623, 0.4013820
734.2444, 0.7391360
734.7265, 1.557739
735.2086, 2.422287
735.6907, 2.581085
736.1729, 1.951263
736.6550, 1.793961
737.1371, 2.995483
737.6192, 4.091537
738.1013, 4.129120
738.5834, 3.500397
739.0656, 2.669312
739.5477, 1.851685
740.0298, 1.510071
740.5119, 2.311630
740.9940, 3.862564
741.4761, 4.368332
741.9583, 3.670563
742.4404, 2.854797
742.9225, 2.036591
743.4046, 1.388870
743.8867, 1.114868
744.3688, 1.175430
744.8510, 1.386032
745.3331, 2.263382
745.8152, 2.656815
746.2973, 1.385895
746.7794, 0.1189880
747.2615, 3.9641999E-02
747.7437, 1.675308
748.2258, 3.291931
748.7079, 3.990311
749.1900, 4.109344
749.6721, 4.328323
750.1542, 4.635727
750.6364, 4.161667
751.1185, 2.446121
751.6006, 1.152817
752.0827, 1.720261
752.5648, 3.293747
753.0469, 3.331726
753.5291, 0.7752690
754.0112, 0.3822480
754.4933, 1.740128
754.9754, 4.053055
755.4575, 4.622452
755.9396, 4.012100
756.4218, 3.410736
756.9039, 3.167892
757.3860, 3.022247
757.8681, 2.474289
758.3502, 1.739700
758.8323, 1.971085
759.3145, 3.230347
759.7966, 3.972290
760.2787, 3.522324
760.7608, 2.547760
761.2429, 1.878952
761.7250, 1.549316
762.2072, 1.135376
762.6893, 0.2926480
763.1714, 0.1853330
763.6535, 6.1859000E-02
764.1356, 0.4680790
764.6177, 1.531082
765.0999, 2.883453
765.5820, 3.694351
766.0641, 3.307938
766.5462, 2.505310
767.0283, 2.289703
767.5104, 2.530212
767.9926, 2.753342
768.4747, 2.878815
768.9568, 3.014465
769.4389, 3.257904
769.9210, 3.536575
770.4031, 3.619141
770.8853, 3.575256
771.3674, 3.181946
771.8495, 1.980942
772.3316, 0.9410710
772.8137, 0.6398930
773.2958, 0.7062230
773.7780, 0.4638820
774.2601, 0.2688900
774.7422, 0.7086640
775.2243, 0.1314850
775.7064, 0.8668520
776.1885, 1.591232
776.6707, 2.058029
777.1528, 2.465683
777.6349, 2.885239
778.1170, 3.058655
778.5991, 3.325989
779.0812, 3.222549
779.5634, 3.147049
780.0455, 3.011505
780.5276, 3.103882
781.0097, 3.763016
781.4918, 4.424454
781.9739, 4.530350
782.4561, 4.237396
782.9382, 4.258301
783.4203, 5.475372
783.9024, 5.959488
784.3845, 3.878036
784.8666, 1.144348
785.3488, 0.1236880
785.8309, 0.6964720
786.3130, 1.370712
786.7951, 1.341675
787.2772, 0.8377990
787.7593, 5.1605001E-02
788.2415, 0.9937740
788.7236, 1.346542
789.2057, 0.7551730
789.6878, 0.2895200
790.1699, 0.7783200
790.6520, 1.411407
791.1342, 0.6360320
791.6162, 1.843262
792.0983, 3.893494
792.5804, 5.922028
793.0626, 6.887619
793.5447, 5.426010
794.0268, 3.251434
794.5089, 2.429962
794.9910, 3.102219
795.4731, 3.843765
795.9553, 3.749191
796.4374, 3.154694
796.9195, 2.236557
797.4016, 1.204926
797.8837, 1.229767
798.3658, 2.557770
798.8480, 3.918091
799.3301, 4.415771
799.8122, 4.203156
800.2943, 3.726929
800.7764, 2.622574
801.2585, 2.035721
801.7407, 2.914063
802.2228, 3.293869
802.7049, 1.613083
803.1870, 0.6580350
803.6691, 1.320129
804.1512, 5.0551999E-02
804.6334, 1.707138
805.1155, 3.022614
805.5976, 4.139114
806.0797, 5.365021
806.5618, 6.429901
807.0439, 6.601974
807.5261, 5.762878
808.0082, 4.720215
808.4903, 4.192459
808.9724, 4.114822
809.4545, 4.327347
809.9366, 4.899521
810.4188, 5.277374
810.9009, 5.244553
811.3830, 5.240631
811.8651, 5.758438
812.3472, 6.588547
812.8293, 6.594177
813.3115, 5.005600
813.7936, 4.239243
814.2757, 5.521591
814.7578, 6.843002
815.2399, 6.928711
815.7220, 6.197037
816.2042, 5.458099
816.6863, 4.951279
817.1684, 4.439087
817.6505, 3.634125
818.1326, 2.737183
818.6147, 2.029770
819.0969, 1.549408
819.5790, 1.657288
820.0611, 2.491974
820.5432, 3.065933
821.0253, 2.201630
821.5074, 0.3457790
821.9896, 0.4623870
822.4717, 3.912277
822.9538, 6.182266
823.4359, 5.969818
823.9180, 5.340286
824.4001, 5.499649
824.8823, 6.019485
825.3644, 6.021133
825.8465, 5.263611
826.3286, 4.442932
826.8107, 3.508194
827.2928, 2.896591
827.7750, 3.176437
828.2571, 3.999939
828.7392, 4.882050
829.2213, 5.590424
829.7034, 5.600815
830.1855, 3.951553
830.6677, 1.566620
831.1498, 1.343567
831.6319, 3.216660
832.1140, 5.031845
832.5961, 6.419312
833.0782, 7.154434
833.5604, 6.836395
834.0425, 5.705246
834.5246, 4.839142
835.0067, 4.375076
835.4888, 3.955475
835.9709, 3.164108
836.4531, 2.867203
836.9352, 4.017029
837.4173, 5.647537
837.8994, 6.148468
838.3815, 5.202545
838.8636, 4.614197
839.3458, 5.875427
839.8279, 7.369308
840.3100, 7.476944
840.7921, 6.751144
841.2742, 6.235474
841.7563, 6.201645
842.2385, 6.620178
842.7206, 7.597015
843.2027, 8.687164
843.6848, 8.524841
844.1669, 7.072922
844.6490, 6.431747
845.1312, 7.155106
845.6133, 7.539063
846.0954, 6.205597
846.5775, 4.139084
847.0596, 3.577377
847.5417, 5.306168
848.0239, 5.997498
848.5060, 4.585220
848.9881, 3.536728
849.4702, 4.019867
849.9523, 4.929810
850.4344, 5.013489
850.9166, 4.279053
851.3987, 3.778458
851.8808, 4.206833
852.3629, 4.749985
852.8450, 4.801270
853.3271, 4.487228
853.8093, 3.738739
854.2914, 2.806000
854.7735, 2.579666
855.2556, 3.486481
855.7377, 4.773804
856.2198, 5.081299
856.7020, 5.683441
857.1841, 6.261246
857.6662, 5.837601
858.1483, 6.438354
858.6304, 5.621033
859.1125, 4.291504
859.5947, 3.422516
860.0768, 3.019394
860.5589, 2.997787
861.0410, 3.910324
861.5231, 4.314667
862.0052, 3.433350
862.4874, 2.708771
862.9695, 3.627731
863.4516, 5.413406
863.9337, 6.127441
864.4158, 5.033508
864.8979, 3.927002
865.3801, 4.230316
865.8622, 4.839264
866.3443, 4.404007
866.8264, 3.297241
867.3085, 2.527969
867.7906, 2.392975
868.2728, 2.604263
868.7549, 2.959686
869.2370, 3.381561
869.7191, 3.653656
870.2012, 3.776505
870.6833, 3.782944
871.1655, 3.686325
871.6476, 3.418732
872.1297, 2.888107
872.6118, 2.291977
873.0939, 1.627472
873.5760, 0.4712980
874.0581, 0.8207240
874.5402, 4.630753
875.0223, 7.656738
875.5045, 8.557083
875.9866, 8.092178
876.4687, 6.256271
876.9508, 3.453568
877.4329, 2.157272
877.9150, 4.882736
878.3972, 7.097473
878.8793, 5.584564
879.3614, 2.846176
879.8435, 1.521179
880.3256, 1.639175
880.8077, 2.370407
881.2899, 3.362564
881.7720, 4.054367
882.2541, 3.330643
882.7362, 1.849884
883.2183, 1.732422
883.7004, 2.856232
884.1826, 3.619370
884.6647, 3.514404
885.1468, 3.022934
885.6289, 2.558044
886.1110, 2.156464
886.5931, 2.097260
887.0753, 2.667938
887.5574, 2.670319
888.0395, 1.543442
888.5216, 0.5373540
889.0037, 0.3593900
889.4858, 0.7260890
889.9680, 1.329834
890.4501, 2.478027
890.9322, 2.925858
891.4143, 1.278137
891.8964, 0.3650970
892.3785, 2.205109
892.8607, 4.788177
893.3428, 6.108551
893.8249, 6.063995
894.3070, 5.389969
894.7891, 4.276321
895.2712, 3.108002
895.7534, 1.909760
896.2355, 1.060226
896.7176, 1.637100
897.1997, 3.188049
897.6818, 3.795593
898.1639, 2.762970
898.6461, 1.355896
899.1282, 1.024567
899.6103, 1.516205
900.0924, 1.795502
900.5745, 1.864609
901.0566, 1.562164
901.5388, 0.7166290
902.0209, 8.1375003E-02
902.5030, 0.2882230
902.9851, 1.016602
903.4672, 1.348236
903.9493, 1.092148
904.4315, 0.9745330
904.9136, 0.9931340
905.3957, 1.157547
905.8778, 1.779297
906.3599, 2.325134
906.8420, 2.009460
907.3242, 0.9694060
907.8063, 0.5484160
908.2884, 1.659042
908.7705, 2.635483
909.2526, 2.894882
909.7347, 2.711670
910.2169, 2.228134
910.6990, 1.534378
911.1811, 0.5628810
911.6632, 0.6844020
912.1453, 1.414932
912.6274, 0.6020970
913.1096, 0.9001310
913.5917, 2.069977
914.0738, 2.781677
914.5559, 2.492386
915.0380, 1.239105
915.5201, 0.3451390
916.0023, 0.8359530
916.4844, 1.938217
916.9665, 1.698196
917.4486, 0.1369780
917.9307, 8.4624998E-02
918.4128, 1.986725
918.8950, 3.566498
919.3771, 3.953293
919.8592, 3.486938
920.3413, 2.426788
920.8234, 0.7932130
921.3055, 0.1846770
921.7877, 0.2249450
922.2698, 0.1058200
922.7519, 0.1747740
923.2340, 0.5142060
923.7161, 0.9308010
924.1982, 1.374619
924.6804, 1.716232
925.1625, 1.963318
925.6446, 2.004654
926.1267, 1.293045
926.6088, 0.9401700
927.0909, 1.923035
927.5731, 3.267456
928.0552, 4.135925
928.5373, 4.303589
929.0194, 3.389877
929.5015, 0.7744450
929.9836, 1.293259
930.4658, 8.4686004E-02
930.9479, 2.564636
931.4300, 2.337021
931.9121, 0.1870570
932.3942, 0.8132780
932.8763, 0.2140810
933.3585, 1.718445
933.8406, 2.354050
934.3227, 2.399612
934.8048, 2.109772
935.2869, 1.311371
935.7690, 0.9000090
936.2512, 0.9970550
936.7333, 1.612900
937.2154, 2.925308
937.6975, 4.101212
938.1796, 3.520844
938.6617, 1.043823
939.1439, 0.1954350
939.6260, 1.593643
940.1081, 2.834824
940.5902, 3.494324
941.0723, 3.740051
941.5544, 3.420547
942.0366, 2.750397
942.5187, 2.377243
943.0008, 2.333313
943.4829, 2.487991
943.9650, 3.423569
944.4471, 3.852493
944.9293, 3.031799
945.4114, 1.649796
945.8935, 5.4092001E-02
946.3756, 1.747849
946.8577, 1.952530
947.3398, 0.8651280
947.8220, 3.309067
948.3041, 3.398087
948.7862, 2.703445
949.2683, 2.541489
949.7504, 2.737427
950.2325, 2.513779
950.7147, 1.755096
951.1968, 1.606827
951.6789, 3.337997
952.1610, 5.214630
952.6431, 4.533768
953.1252, 2.406372
953.6074, 1.022583
954.0895, 0.6799620
954.5716, 1.104202
955.0537, 2.170273
955.5358, 3.300980
956.0179, 3.649948
956.5000, 3.386505
956.9821, 3.319778
957.4642, 3.491348
957.9464, 3.442551
958.4285, 2.952255
958.9106, 2.475464
959.3927, 2.429489
959.8748, 2.703873
960.3569, 3.105881
960.8391, 3.785004
961.3212, 3.678223
961.8033, 2.409912
962.2854, 1.447098
962.7675, 1.418106
963.2496, 1.702881
963.7318, 1.614014
964.2139, 1.250687
964.6960, 1.374634
965.1781, 2.722610
965.6602, 3.342346
966.1423, 2.308762
966.6245, 1.612732
967.1066, 2.465179
967.5887, 3.858856
968.0708, 4.667862
968.5529, 4.807922
969.0350, 4.357285
969.5172, 2.595917
969.9993, 1.135269
970.4814, 0.3597260
970.9635, 0.4159550
971.4456, 1.898148
971.9277, 3.987381
972.4099, 5.075409
972.8920, 4.781403
973.3741, 4.350449
973.8562, 4.753174
974.3383, 5.011261
974.8204, 4.062134
975.3026, 2.655563
975.7847, 1.659729
976.2668, 1.241150
976.7489, 1.496918
977.2310, 2.488861
977.7131, 3.504395
978.1953, 3.663132
978.6774, 3.467377
979.1595, 4.122208
979.6416, 5.139404
980.1237, 4.699127
980.6058, 2.646973
981.0880, 0.7000730
981.5701, 3.6254998E-02
982.0522, 2.8214000E-02
982.5343, 5.5649001E-02
983.0164, 3.2593001E-02
983.4985, 0.7689060
983.9807, 2.308441
984.4628, 3.002609
984.9449, 2.296661
985.4270, 1.967346
985.9091, 3.773529
986.3912, 6.646011
986.8734, 7.122116
987.3555, 4.820679
987.8376, 3.281708
988.3197, 3.003555
988.8018, 2.764496
989.2839, 2.031586
989.7661, 1.431702
990.2482, 1.851791
990.7303, 3.100800
991.2124, 2.669968
991.6945, 1.106827
992.1766, 2.566269
992.6588, 7.9056002E-02
993.1409, 2.742386
993.6230, 3.731766
994.1051, 3.751770
994.5872, 3.657745
995.0693, 3.443405
995.5515, 2.834076
996.0336, 1.029877
996.5157, 5.3399999E-04
996.9978, 0.7374110
997.4799, 1.480682
997.9620, 0.7552030
998.4442, 0.3278500
998.9263, 0.2639010
999.4084, 2.714355
999.8905, 4.130524
1000.373, 2.696976
1000.855, 1.589050
1001.337, 2.625183
1001.819, 3.783966
1002.301, 3.037918
1002.783, 1.308929
1003.265, 0.5825810
1003.747, 1.288925
1004.230, 2.203247
1004.712, 3.464508
1005.194, 4.295013
1005.676, 3.344772
1006.158, 1.913193
1006.640, 1.811203
1007.122, 2.561981
1007.604, 2.179047
1008.086, 2.1484001E-02
1008.569, 1.670731
1009.051, 8.9980997E-02
1009.533, 2.198349
1010.015, 2.078842
1010.497, 0.8624420
1010.979, 1.088348
1011.461, 2.647552
1011.943, 3.643188
1012.426, 3.191528
1012.908, 3.559509
1013.390, 2.135071
1013.872, 2.161850
1014.354, 0.9287410
1014.836, 0.9637760
1015.318, 1.687073
1015.800, 1.045303
1016.282, 1.0391000E-02
1016.765, 0.8800660
1017.247, 1.674744
1017.729, 2.442764
1018.211, 3.171478
1018.693, 3.980301
1019.175, 4.757858
1019.657, 4.599121
1020.139, 3.354874
1020.622, 2.134109
1021.104, 1.634354
1021.586, 1.765671
1022.068, 2.611084
1022.550, 4.051834
1023.032, 4.736176
1023.514, 4.652328
1023.996, 4.395111
1024.478, 4.093109
1024.961, 3.766754
1025.443, 3.410843
1025.925, 3.077957
1026.407, 3.006317
1026.889, 3.246933
1027.371, 2.437500
1027.853, 0.2187350
1028.335, 0.9156340
1028.818, 9.2133000E-02
1029.300, 1.230484
1029.782, 1.964844
1030.264, 2.271255
1030.746, 2.601227
1031.228, 3.062637
1031.710, 2.761932
1032.192, 1.225464
1032.674, 0.3393860
1033.156, 0.7402500
1033.639, 1.708008
1034.121, 2.960007
1034.603, 4.152740
1035.085, 4.136673
1035.567, 2.269791
1036.049, 1.689011
1036.531, 3.279816
1037.013, 4.437714
1037.496, 4.263062
1037.978, 3.719131
1038.460, 3.607529
1038.942, 3.714401
1039.424, 3.272705
1039.906, 3.310150
1040.388, 3.663467
1040.870, 3.014359
1041.353, 4.195587
1041.835, 3.922913
1042.317, 3.256927
1042.799, 2.619171
1043.281, 2.269470
1043.763, 3.213760
1044.245, 6.424377
1044.727, 7.999176
1045.209, 6.259094
1045.692, 4.893234
1046.174, 5.775345
1046.656, 6.596970
1047.138, 4.535263
1047.620, 1.081345
1048.102, 0.7484440
1048.584, 5.193039
1049.066, 7.762253
1049.548, 6.251068
1050.031, 4.286728
1050.513, 2.712448
1050.995, 1.758926
1051.477, 2.185516
1051.959, 3.332855
1052.441, 3.358032
1052.923, 1.585342
1053.405, 0.8604740
1053.888, 2.860886
1054.370, 4.590958
1054.852, 4.781174
1055.334, 4.436768
1055.816, 4.175735
1056.298, 4.106796
1056.780, 4.485764
1057.262, 5.366226
1057.745, 6.291153
1058.227, 7.721191
1058.709, 8.421021
1059.191, 7.220688
1059.673, 5.662445
1060.155, 5.061432
1060.637, 5.151978
1061.119, 5.084824
1061.601, 4.673828
1062.083, 4.601547
1062.566, 4.993439
1063.048, 5.906601
1063.530, 8.190231
1064.012, 10.26811
1064.494, 10.39037
1064.976, 9.386139
1065.458, 9.189392
1065.940, 10.17484
1066.423, 10.60574
1066.905, 9.338272
1067.387, 8.412018
1067.869, 9.190918
1068.351, 10.34279
1068.833, 10.56615
1069.315, 10.36916
1069.797, 10.88077
1070.280, 12.28087
1070.762, 13.72083
1071.244, 15.41199
1071.726, 16.32579
1072.208, 14.71272
1072.690, 13.37451
1073.172, 15.15779
1073.654, 18.54630
1074.136, 20.70868
1074.619, 21.14615
1075.101, 21.00810
1075.583, 20.15559
1076.065, 19.81975
1076.547, 21.08212
1077.029, 22.59734
1077.511, 23.05373
1077.993, 23.21442
1078.475, 24.49983
1078.958, 26.88211
1079.440, 28.90228
1079.922, 29.94295
1080.404, 30.73573
1080.886, 31.47169
1081.368, 32.26019
1081.850, 33.37025
1082.332, 34.46655
1082.814, 34.86896
1083.297, 34.77841
1083.779, 35.42215
1084.261, 37.44757
1084.743, 39.14374
1085.225, 39.48494
1085.707, 39.50264
1086.189, 39.82510
1086.671, 40.30850
1087.154, 40.93274
1087.636, 41.55057
1088.118, 41.41560
1088.600, 40.17067
1089.082, 38.98813
1089.564, 38.40422
1090.046, 37.93961
1090.528, 37.36807
1091.010, 36.75551
1091.493, 36.13019
1091.975, 35.53778
1092.457, 35.19952
1092.939, 35.22461
1093.421, 34.74547
1093.903, 32.84760
1094.385, 30.96333
1094.867, 30.04323
1095.349, 29.29831
1095.832, 28.17328
1096.314, 26.66702
1096.796, 24.62025
1097.278, 22.04787
1097.760, 20.41489
1098.242, 21.03148
1098.724, 21.28040
1099.206, 20.41353
1099.689, 19.05923
1100.171, 17.62540
1100.653, 15.96707
1101.135, 13.47368
1101.617, 10.28864
1102.099, 8.144424
1102.581, 7.803619
1103.063, 7.931061
1103.546, 8.524551
1104.028, 9.234833
1104.510, 9.978546
1104.992, 10.37613
1105.474, 9.992096
1105.956, 9.017273
1106.438, 8.471786
1106.920, 8.955109
1107.402, 8.719757
1107.885, 6.445282
1108.367, 4.756989
1108.849, 5.095123
1109.331, 5.978470
1109.813, 6.171783
1110.295, 5.846786
1110.777, 5.615463
1111.259, 5.552170
1111.741, 5.441620
1112.224, 5.236465
1112.706, 5.036102
1113.188, 5.242477
1113.670, 5.073853
1114.152, 3.312714
1114.634, 1.156784
1115.116, 1.053680
1115.598, 3.286331
1116.081, 4.138702
1116.563, 2.601410
1117.045, 1.400681
1117.527, 0.6589510
1118.009, 0.4692230
1118.491, 1.172455
1118.973, 2.174606
1119.455, 2.815353
1119.938, 3.090744
1120.420, 2.955963
1120.902, 2.070267
1121.384, 1.613068
1121.866, 1.676544
1122.348, 2.046921
1122.830, 2.747375
1123.312, 3.618179
1123.794, 4.787750
1124.276, 5.799957
1124.759, 4.933350
1125.241, 1.537857
1125.723, 0.1016080
1126.205, 1.142426
1126.687, 2.164719
1127.169, 2.597778
1127.651, 2.999649
1128.133, 3.924744
1128.616, 4.566208
1129.098, 3.161331
1129.580, 6.9762997E-02
1130.062, 1.239777
1130.544, 0.1739960
1131.026, 1.122635
1131.508, 2.454880
1131.990, 2.964798
1132.473, 2.113937
1132.955, 1.109451
1133.437, 1.468735
1133.919, 2.646408
1134.401, 2.645065
1134.883, 1.595703
1135.365, 1.030807
1135.847, 1.036682
1136.329, 1.178513
1136.812, 1.318604
1137.294, 1.410736
1137.776, 1.337830
1138.258, 1.610657
1138.740, 4.042435
1139.222, 7.380478
1139.704, 6.804855
1140.186, 3.222183
1140.668, 0.5070500
1141.151, 0.5477750
1141.633, 4.5699999E-02
1142.115, 2.302048
1142.597, 4.003311
1143.079, 1.686340
1143.561, 1.858383
1144.043, 1.573364
1144.525, 0.8056030
1145.008, 1.928970
1145.490, 1.747391
1145.972, 1.378693
1146.454, 1.220245
1146.936, 1.286240
1147.418, 1.662872
1147.900, 2.097198
1148.382, 2.541061
1148.865, 2.747025
1149.347, 2.326279
1149.829, 1.504929
1150.311, 0.4186100
1150.793, 0.6647800
1151.275, 0.8981480
1151.757, 0.2213750
1152.239, 1.325043
1152.721, 1.309875
1153.203, 1.409729
1153.686, 3.455551
1154.168, 5.166748
1154.650, 3.140930
1155.132, 0.8154910
1155.614, 2.280151
1156.096, 0.4207920
1156.578, 1.583237
1157.060, 3.433762
1157.543, 4.418137
1158.025, 3.853775
1158.507, 2.917450
1158.989, 2.085831
1159.471, 1.408157
1159.953, 0.9878230
1160.435, 0.7695310
1160.917, 0.3360290
1161.400, 1.150558
1161.882, 1.060410
1162.364, 2.345520
1162.846, 4.656708
1163.328, 4.199554
1163.810, 3.023773
1164.292, 2.429413
1164.774, 2.255463
1165.256, 2.187286
1165.739, 2.225555
1166.221, 2.278870
1166.703, 2.091232
1167.185, 3.186844
1167.667, 6.473694
1168.149, 8.194794
1168.631, 6.174713
1169.113, 3.541977
1169.595, 3.977676
1170.078, 6.331528
1170.560, 6.296280
1171.042, 3.966141
1171.524, 2.978424
1172.006, 3.430603
1172.488, 3.514908
1172.970, 2.863663
1173.452, 1.919754
1173.934, 1.322235
1174.417, 1.194992
1174.899, 1.962799
1175.381, 3.201096
1175.863, 3.775192
1176.345, 3.853699
1176.827, 3.826736
1177.309, 3.845505
1177.791, 4.262009
1178.274, 5.242233
1178.756, 6.098907
1179.238, 6.326126
1179.720, 6.145401
1180.202, 5.809860
1180.684, 5.191437
1181.166, 3.535355
1181.648, 1.785553
1182.130, 1.921387
1182.613, 3.634857
1183.095, 4.742172
1183.577, 4.397659
1184.059, 3.943359
1184.541, 4.164093
1185.023, 4.344009
1185.505, 3.903824
1185.987, 3.419815
1186.469, 3.235916
1186.952, 3.438263
1187.434, 4.539429
1187.916, 6.348038
1188.398, 6.654968
1188.880, 3.015411
1189.362, 1.307098
1189.844, 3.650040
1190.326, 5.895462
1190.809, 7.078125
1191.291, 7.389587
1191.773, 6.475113
1192.255, 5.039230
1192.737, 5.045502
1193.219, 6.720001
1193.701, 7.309799
1194.183, 6.475052
1194.666, 5.784393
1195.148, 5.406509
1195.630, 5.485291
1196.112, 6.245651
1196.594, 6.734985
1197.076, 5.766495
1197.558, 4.042679
1198.040, 3.659225
1198.522, 4.469467
1199.005, 5.417084
1199.487, 6.418121
1199.969, 6.383865
1200.451, 5.218277
1200.933, 4.351807
1201.415, 4.454025
1201.897, 4.787827
1202.379, 4.391861
1202.861, 3.667328
1203.344, 3.238129
1203.826, 3.155655
1204.308, 3.721466
1204.790, 4.652008
1205.272, 5.249557
1205.754, 5.402618
1206.236, 5.558258
1206.718, 5.983734
1207.201, 6.254456
1207.683, 5.994141
1208.165, 5.617691
1208.647, 5.270325
1209.129, 5.019287
1209.611, 5.074249
1210.093, 5.229218
1210.575, 5.126892
1211.057, 4.711380
1211.540, 4.375183
1212.022, 4.336761
1212.504, 4.130310
1212.986, 3.278046
1213.468, 2.659851
1213.950, 3.103867
1214.432, 3.642471
1214.914, 3.246857
1215.396, 3.890594
1215.879, 2.700226
1216.361, 4.208099
1216.843, 4.786179
1217.325, 4.237671
1217.807, 4.088516
1218.289, 4.596664
1218.771, 5.321686
1219.253, 6.032242
1219.736, 6.329697
1220.218, 5.734116
1220.700, 4.535172
1221.182, 3.268143
1221.664, 2.156631
1222.146, 2.255951
1222.628, 3.157684
1223.110, 3.397873
1223.593, 2.795807
1224.075, 1.848633
1224.557, 0.7912140
1225.039, 0.1425780
1225.521, 0.2171480
1226.003, 1.029129
1226.485, 3.647385
1226.967, 6.012695
1227.449, 5.283493
1227.932, 3.218048
1228.414, 3.192810
1228.896, 4.877045
1229.378, 4.443710
1229.860, 0.2186890
1230.342, 2.433640
1230.824, 1.740295
1231.306, 5.174744
1231.788, 5.450455
1232.271, 4.790649
1232.753, 4.503983
1233.235, 4.010925
1233.717, 2.194916
1234.199, 0.5358580
1234.681, 1.373917
1235.163, 5.2094001E-02
1235.645, 1.825089
1236.128, 4.159332
1236.610, 5.056229
1237.092, 3.883163
1237.574, 2.995682
1238.056, 3.855011
1238.538, 3.127930
1239.020, 4.689957
1239.502, 3.452759
1239.984, 3.463120
1240.467, 4.156769
1240.949, 3.798508
1241.431, 2.611420
1241.913, 1.475540
1242.395, 0.7446750
1242.877, 1.025986
1243.359, 2.745239
1243.841, 4.204498
1244.323, 3.643982
1244.806, 2.981384
1245.288, 4.488220
1245.770, 5.762970
1246.252, 3.508530
1246.734, 1.6724000E-02
1247.216, 0.6157380
1247.698, 1.616241
1248.180, 2.585129
1248.662, 0.8308720
1249.145, 2.5330000E-02
1249.627, 1.153595
1250.109, 1.930664
1250.591, 1.612244
1251.073, 1.374252
1251.555, 1.913788
1252.037, 2.878906
1252.519, 3.913132
1253.002, 4.853210
1253.484, 4.793793
1253.966, 3.760529
1254.448, 2.989578
1254.930, 2.552673
1255.412, 2.679260
1255.894, 3.314514
1256.376, 4.007629
1256.859, 4.523117
1257.341, 4.695419
1257.823, 4.301620
1258.305, 3.550735
1258.787, 2.400528
1259.269, 1.791138
1259.751, 1.570190
1260.233, 1.850250
1260.715, 2.827316
1261.198, 4.798294
1261.680, 5.715973
1262.162, 4.854858
1262.644, 3.935181
1263.126, 3.366013
1263.608, 2.991989
1264.090, 2.691864
1264.572, 2.639694
1265.054, 3.405411
1265.537, 4.109772
1266.019, 3.711670
1266.501, 2.530411
1266.983, 1.274506
1267.465, 0.5048830
1267.947, 0.2297520
1268.429, 0.6726680
1268.911, 1.766098
1269.394, 3.545410
1269.876, 4.545471
1270.358, 4.163483
1270.840, 3.867630
1271.322, 5.130310
1271.804, 6.573273
1272.286, 5.844086
1272.768, 4.056061
1273.250, 2.860016
1273.733, 2.156998
1274.215, 1.444107
1274.697, 0.9172520
1275.179, 1.569153
1275.661, 3.479355
1276.143, 4.616989
1276.625, 3.687805
1277.107, 2.860138
1277.589, 2.923782
1278.072, 3.174911
1278.554, 3.410049
1279.036, 3.460114
1279.518, 3.062454
1280.000, 2.516403
1280.482, 2.383377
1280.964, 2.615921
1281.446, 2.500961
1281.929, 1.986130
1282.411, 1.302719
1282.893, 0.4391170
1283.375, 4.6280000E-02
1283.857, 1.9378999E-02
1284.339, 0.2710270
1284.821, 0.6942750
1285.303, 0.5394590
1285.786, 0.3202360
1286.268, 0.0000000E+00
##END=



