##NAMES=Ecdemite
##RRUFFID=R060738
##IDEAL CHEMISTRY=Pb^2+^_6_As^3+^_2_O_7_Cl_4_
##LOCALITY=Laurium, Greece
##OWNER=RRUFF
##SOURCE=Michael Scott
##DESCRIPTION=Tan colored spherical aggregates
##STATUS=The identification of this mineral is not yet confirmed.
##URL=rruff.info/R060738
160.097, 0.000
160.579, 0.148
161.062, 8.321
161.544, 29.165
162.026, 58.813
162.508, 79.555
162.990, 86.111
163.472, 89.867
163.954, 93.065
164.436, 97.781
164.919, 108.940
165.401, 133.563
165.883, 169.304
166.365, 196.681
166.847, 211.772
167.329, 221.992
167.811, 229.431
168.293, 234.870
168.775, 239.766
169.258, 245.104
169.740, 250.845
170.222, 256.174
170.704, 259.819
171.186, 264.574
171.668, 272.780
172.150, 283.104
172.632, 292.228
173.115, 296.585
173.597, 296.377
174.079, 300.618
174.561, 317.259
175.043, 330.426
175.525, 332.279
176.007, 325.862
176.489, 319.194
176.971, 318.813
177.454, 324.746
177.936, 328.918
178.418, 336.554
178.900, 336.677
179.382, 317.310
179.864, 286.410
180.346, 262.975
180.828, 264.185
181.311, 290.391
181.793, 310.889
182.275, 320.309
182.757, 328.214
183.239, 340.696
183.721, 354.211
184.203, 359.042
184.685, 343.608
185.167, 307.349
185.650, 292.344
186.132, 319.917
186.614, 350.927
187.096, 381.089
187.578, 406.541
188.060, 421.428
188.542, 419.721
189.024, 401.370
189.507, 386.826
189.989, 378.986
190.471, 372.618
190.953, 368.543
191.435, 365.015
191.917, 358.017
192.399, 342.799
192.881, 319.822
193.363, 310.295
193.846, 330.790
194.328, 349.315
194.810, 355.507
195.292, 353.828
195.774, 355.105
196.256, 368.498
196.738, 392.687
197.220, 402.191
197.702, 376.086
198.185, 355.406
198.667, 353.125
199.149, 362.409
199.631, 370.422
200.113, 368.691
200.595, 357.996
201.077, 346.529
201.559, 333.086
202.042, 319.924
202.524, 306.727
203.006, 294.181
203.488, 283.411
203.970, 275.139
204.452, 269.138
204.934, 264.160
205.416, 259.788
205.898, 257.138
206.381, 257.874
206.863, 260.110
207.345, 261.258
207.827, 259.816
208.309, 256.300
208.791, 253.009
209.273, 249.696
209.755, 246.951
210.238, 248.627
210.720, 249.814
211.202, 241.536
211.684, 218.618
212.166, 189.415
212.648, 181.927
213.130, 220.186
213.612, 249.123
214.094, 260.346
214.577, 260.460
215.059, 254.406
215.541, 244.258
216.023, 233.551
216.505, 231.346
216.987, 244.175
217.469, 256.040
217.951, 267.691
218.434, 276.750
218.916, 279.935
219.398, 276.248
219.880, 268.740
220.362, 262.727
220.844, 255.912
221.326, 255.460
221.808, 269.588
222.290, 284.555
222.773, 287.595
223.255, 276.028
223.737, 259.174
224.219, 251.307
224.701, 253.855
225.183, 262.937
225.665, 286.657
226.147, 309.962
226.629, 321.848
227.112, 321.027
227.594, 315.447
228.076, 315.194
228.558, 322.472
229.040, 328.371
229.522, 331.706
230.004, 334.614
230.486, 340.046
230.969, 347.089
231.451, 350.861
231.933, 344.829
232.415, 326.670
232.897, 311.960
233.379, 300.613
233.861, 293.104
234.343, 290.567
234.825, 292.445
235.307, 296.797
235.790, 301.977
236.272, 307.968
236.754, 316.974
237.236, 336.969
237.718, 351.824
238.200, 350.795
238.682, 340.338
239.165, 334.843
239.647, 346.178
240.129, 371.221
240.611, 387.628
241.093, 390.768
241.575, 390.759
242.057, 387.533
242.539, 384.321
243.021, 386.878
243.503, 400.292
243.986, 419.410
244.468, 426.906
244.950, 413.780
245.432, 406.158
245.914, 415.246
246.396, 432.391
246.878, 449.098
247.361, 463.032
247.843, 472.123
248.325, 469.374
248.807, 447.902
249.289, 435.823
249.771, 450.277
250.253, 472.954
250.735, 488.802
251.217, 493.259
251.699, 493.469
252.182, 499.043
252.664, 511.154
253.146, 519.183
253.628, 512.843
254.110, 506.567
254.592, 512.855
255.074, 533.468
255.556, 556.367
256.039, 571.688
256.521, 579.657
257.003, 584.685
257.485, 586.620
257.967, 586.638
258.449, 583.277
258.931, 577.185
259.413, 576.721
259.896, 589.884
260.378, 613.271
260.860, 634.589
261.342, 652.454
261.824, 668.267
262.306, 684.827
262.788, 701.203
263.270, 712.821
263.752, 715.894
264.235, 713.773
264.717, 712.169
265.199, 711.503
265.681, 710.252
266.163, 706.401
266.645, 701.119
267.127, 697.587
267.609, 698.092
268.091, 699.606
268.574, 701.543
269.056, 703.706
269.538, 697.983
270.020, 675.203
270.502, 642.023
270.984, 620.478
271.466, 619.574
271.948, 619.826
272.431, 610.298
272.913, 592.425
273.395, 571.738
273.877, 550.523
274.359, 527.760
274.841, 500.003
275.323, 464.018
275.805, 430.548
276.288, 404.110
276.770, 382.057
277.252, 360.434
277.734, 337.909
278.216, 315.371
278.698, 294.443
279.180, 276.336
279.662, 256.202
280.144, 231.327
280.626, 205.348
281.109, 180.940
281.591, 158.812
282.073, 139.930
282.555, 126.375
283.037, 120.252
283.519, 107.483
284.001, 81.563
284.483, 55.235
284.966, 33.460
285.448, 17.471
285.930, 8.690
286.412, 9.697
286.894, 20.116
287.376, 21.559
287.858, 7.687
288.340, 7.571
288.823, 24.607
289.305, 12.904
289.787, 6.429
290.269, 13.288
290.751, 24.352
291.233, 21.859
291.715, 3.686
292.197, 11.942
292.679, 3.772
293.162, 11.029
293.644, 15.063
294.126, 2.903
294.608, 14.843
295.090, 19.383
295.572, 1.728
296.054, 4.130
296.536, 17.612
297.018, 40.148
297.501, 46.333
297.983, 36.071
298.465, 22.030
298.947, 15.385
299.429, 16.288
299.911, 21.750
300.393, 37.619
300.875, 51.524
301.358, 58.950
301.840, 60.304
302.322, 56.564
302.804, 45.480
303.286, 30.592
303.768, 23.890
304.250, 28.898
304.732, 33.854
305.215, 30.094
305.697, 23.932
306.179, 24.452
306.661, 37.346
307.143, 52.184
307.625, 55.999
308.107, 48.599
308.589, 40.408
309.071, 33.419
309.553, 28.969
310.036, 29.218
310.518, 35.372
311.000, 41.589
311.482, 44.043
311.964, 43.920
312.446, 44.647
312.928, 47.456
313.410, 49.865
313.893, 47.292
314.375, 39.685
314.857, 35.940
315.339, 43.061
315.821, 51.971
316.303, 52.086
316.785, 42.790
317.267, 32.559
317.750, 28.595
318.232, 30.663
318.714, 28.031
319.196, 11.822
319.678, 0.110
320.160, 2.720
320.642, 16.479
321.124, 34.924
321.606, 55.646
322.089, 75.476
322.571, 83.085
323.053, 65.938
323.535, 51.663
324.017, 41.263
324.499, 35.100
324.981, 35.501
325.463, 42.424
325.945, 50.589
326.428, 51.840
326.910, 43.235
327.392, 35.460
327.874, 30.734
328.356, 24.827
328.838, 12.844
329.320, 3.054
329.802, 15.256
330.284, 16.499
330.767, 7.648
331.249, 1.811
331.731, 1.619
332.213, 1.062
332.695, 2.703
333.177, 7.718
333.659, 11.006
334.142, 10.804
334.624, 9.150
335.106, 9.862
335.588, 13.412
336.070, 17.149
336.552, 22.395
337.034, 26.064
337.516, 24.081
337.998, 15.375
338.480, 7.746
338.963, 8.100
339.445, 14.724
339.927, 20.800
340.409, 26.298
340.891, 28.841
341.373, 23.937
341.855, 13.045
342.337, 4.126
342.819, 0.674
343.302, 2.438
343.784, 0.294
344.266, 7.097
344.748, 8.821
345.230, 2.501
345.712, 4.118
346.194, 10.424
346.677, 16.508
347.159, 17.823
347.641, 14.792
348.123, 8.076
348.605, 3.331
349.087, 7.461
349.569, 8.843
350.051, 11.578
350.533, 12.161
351.016, 0.272
351.498, 12.362
351.980, 7.420
352.462, 13.636
352.944, 5.738
353.426, 3.988
353.908, 3.056
354.390, 9.434
354.872, 16.842
355.355, 13.260
355.837, 9.958
356.319, 10.139
356.801, 12.313
357.283, 14.611
357.765, 16.628
358.247, 16.416
358.729, 6.624
359.211, 4.626
359.694, 10.272
360.176, 9.145
360.658, 8.806
361.140, 12.580
361.622, 7.018
362.104, 4.120
362.586, 6.500
363.069, 6.356
363.551, 4.930
364.033, 6.666
364.515, 12.203
364.997, 0.546
365.479, 2.215
365.961, 14.893
366.443, 2.374
366.925, 4.436
367.408, 10.951
367.890, 0.901
368.372, 10.142
368.854, 6.948
369.336, 7.636
369.818, 10.017
370.300, 6.199
370.782, 1.148
371.264, 7.062
371.747, 13.336
372.229, 7.389
372.711, 7.673
373.193, 13.732
373.675, 18.388
374.157, 0.479
374.639, 8.909
375.121, 9.474
375.603, 4.785
376.086, 0.752
376.568, 5.599
377.050, 7.273
377.532, 3.665
378.014, 3.830
378.496, 8.878
378.978, 8.260
379.460, 7.630
379.943, 9.163
380.425, 7.617
380.907, 7.403
381.389, 8.979
381.871, 6.856
382.353, 7.023
382.835, 8.642
383.317, 4.169
383.799, 4.511
384.282, 12.030
384.764, 14.084
385.246, 11.891
385.728, 9.647
386.210, 8.221
386.692, 8.111
387.174, 10.609
387.656, 15.655
388.138, 20.570
388.621, 24.622
389.103, 27.171
389.585, 27.125
390.067, 25.616
390.549, 19.793
391.031, 3.386
391.513, 0.643
391.996, 10.256
392.478, 9.630
392.960, 5.225
393.442, 6.885
393.924, 17.669
394.406, 18.539
394.888, 1.621
395.370, 3.388
395.852, 4.753
396.335, 4.323
396.817, 7.060
397.299, 0.755
397.781, 18.413
398.263, 24.884
398.745, 12.945
399.227, 4.162
399.709, 1.391
400.191, 2.749
400.674, 10.068
401.156, 22.319
401.638, 30.400
402.120, 22.073
402.602, 0.271
403.084, 2.845
403.566, 5.159
404.048, 5.856
404.530, 2.628
405.013, 8.159
405.495, 11.511
405.977, 0.995
406.459, 0.327
406.941, 15.650
407.423, 30.631
407.905, 33.957
408.387, 18.208
408.870, 4.120
409.352, 5.220
409.834, 10.226
410.316, 21.249
410.798, 11.995
411.280, 1.930
411.762, 5.668
412.244, 6.525
412.727, 0.667
413.209, 11.484
413.691, 25.320
414.173, 34.154
414.655, 34.195
415.137, 33.211
415.619, 30.357
416.101, 27.885
416.583, 28.482
417.065, 32.908
417.548, 39.063
418.030, 45.650
418.512, 53.361
418.994, 54.504
419.476, 44.835
419.958, 32.626
420.440, 20.619
420.922, 9.776
421.405, 2.766
421.887, 0.811
422.369, 3.200
422.851, 12.116
423.333, 27.108
423.815, 35.613
424.297, 29.145
424.779, 16.216
425.262, 14.232
425.744, 26.859
426.226, 36.487
426.708, 36.192
427.190, 31.937
427.672, 29.848
428.154, 30.756
428.636, 33.039
429.118, 35.930
429.601, 39.292
430.083, 37.280
430.565, 20.194
431.047, 9.268
431.529, 12.068
432.011, 21.772
432.493, 31.484
432.975, 38.696
433.457, 42.229
433.940, 37.560
434.422, 22.127
434.904, 17.663
435.386, 36.485
435.868, 54.158
436.350, 57.308
436.832, 49.134
437.314, 38.640
437.797, 27.658
438.279, 18.180
438.761, 12.831
439.243, 11.511
439.725, 13.797
440.207, 21.081
440.689, 30.082
441.171, 35.254
441.654, 36.975
442.136, 35.026
442.618, 25.460
443.100, 14.719
443.582, 9.252
444.064, 9.123
444.546, 10.270
445.028, 9.477
445.510, 7.333
445.992, 8.593
446.475, 21.652
446.957, 27.605
447.439, 15.357
447.921, 0.151
448.403, 0.907
448.885, 14.941
449.367, 33.630
449.849, 38.819
450.332, 30.728
450.814, 28.082
451.296, 36.681
451.778, 41.573
452.260, 24.612
452.742, 0.560
453.224, 1.503
453.706, 40.158
454.189, 82.147
454.671, 82.090
455.153, 50.528
455.635, 25.050
456.117, 16.179
456.599, 16.967
457.081, 19.430
457.563, 23.696
458.045, 29.807
458.528, 44.397
459.010, 54.693
459.492, 47.772
459.974, 30.808
460.456, 21.482
460.938, 29.446
461.420, 47.880
461.902, 60.189
462.384, 65.016
462.867, 66.596
463.349, 64.237
463.831, 59.848
464.313, 52.840
464.795, 44.314
465.277, 37.866
465.759, 36.874
466.241, 39.134
466.724, 38.728
467.206, 34.952
467.688, 34.790
468.170, 44.801
468.652, 57.627
469.134, 59.628
469.616, 47.185
470.098, 37.372
470.581, 38.061
471.063, 43.262
471.545, 46.049
472.027, 45.780
472.509, 45.707
472.991, 48.764
473.473, 54.203
473.955, 55.163
474.437, 43.741
474.919, 37.384
475.402, 44.123
475.884, 53.145
476.366, 52.227
476.848, 39.995
477.330, 27.257
477.812, 26.525
478.294, 36.779
478.776, 43.279
479.259, 45.578
479.741, 44.977
480.223, 40.927
480.705, 34.736
481.187, 27.944
481.669, 20.543
482.151, 13.308
482.633, 3.889
483.116, 4.505
483.598, 2.981
484.080, 10.703
484.562, 25.177
485.044, 28.804
485.526, 20.928
486.008, 15.844
486.490, 14.513
486.972, 14.362
487.455, 14.957
487.937, 16.153
488.419, 18.348
488.901, 21.537
489.383, 24.198
489.865, 23.670
490.347, 19.403
490.829, 16.890
491.311, 17.248
491.794, 18.075
492.276, 16.496
492.758, 14.719
493.240, 17.584
493.722, 29.168
494.204, 40.839
494.686, 44.483
495.168, 41.975
495.651, 38.882
496.133, 36.425
496.615, 34.797
497.097, 34.546
497.579, 35.988
498.061, 35.967
498.543, 32.798
499.025, 30.069
499.508, 29.021
499.990, 29.484
500.472, 31.724
500.954, 35.730
501.436, 39.329
501.918, 38.887
502.400, 33.696
502.882, 28.998
503.364, 25.174
503.846, 21.726
504.329, 16.864
504.811, 12.077
505.293, 11.150
505.775, 16.840
506.257, 24.091
506.739, 29.152
507.221, 31.923
507.703, 31.477
508.186, 26.993
508.668, 22.381
509.150, 22.237
509.632, 27.239
510.114, 30.854
510.596, 35.551
511.078, 36.338
511.560, 26.114
512.042, 12.346
512.525, 6.562
513.007, 12.829
513.489, 25.543
513.971, 38.599
514.453, 52.668
514.935, 61.005
515.417, 62.039
515.899, 58.680
516.382, 50.617
516.864, 40.031
517.346, 30.931
517.828, 25.045
518.310, 19.726
518.792, 10.739
519.274, 0.891
519.756, 1.487
520.239, 5.781
520.721, 15.645
521.203, 21.337
521.685, 22.741
522.167, 22.514
522.649, 18.215
523.131, 15.345
523.613, 16.962
524.096, 20.144
524.578, 21.511
525.060, 20.083
525.542, 16.976
526.024, 11.806
526.506, 4.884
526.988, 5.115
527.470, 17.471
527.952, 26.730
528.435, 20.210
528.917, 6.830
529.399, 0.082
529.881, 3.646
530.363, 8.388
530.845, 8.658
531.327, 7.612
531.809, 12.232
532.291, 22.564
532.774, 28.015
533.256, 18.276
533.738, 3.664
534.220, 3.474
534.702, 4.472
535.184, 16.656
535.666, 18.142
536.148, 14.973
536.630, 10.355
537.113, 5.731
537.595, 4.019
538.077, 8.403
538.559, 17.206
539.041, 27.991
539.523, 41.930
540.005, 46.644
540.487, 31.804
540.969, 9.097
541.452, 0.682
541.934, 10.536
542.416, 15.272
542.898, 1.318
543.380, 3.366
543.862, 2.270
544.344, 13.387
544.826, 30.455
545.309, 35.086
545.791, 29.965
546.273, 18.724
546.755, 3.632
547.237, 6.026
547.719, 5.559
548.201, 28.475
548.683, 43.477
549.166, 49.331
549.648, 43.908
550.130, 18.413
550.612, 0.469
551.094, 6.731
551.576, 1.354
552.058, 2.033
552.540, 9.106
553.023, 14.251
553.505, 17.660
553.987, 19.237
554.469, 19.854
554.951, 19.886
555.433, 18.687
555.915, 16.197
556.397, 12.307
556.879, 5.553
557.362, 3.972
557.844, 3.289
558.326, 2.126
558.808, 2.208
559.290, 0.511
559.772, 1.482
560.254, 7.966
560.736, 23.964
561.218, 38.392
561.701, 33.523
562.183, 1.187
562.665, 17.376
563.147, 8.950
563.629, 0.750
564.111, 3.174
564.593, 0.462
565.075, 8.913
565.557, 2.198
566.040, 5.349
566.522, 10.280
567.004, 0.564
567.486, 0.960
567.968, 8.136
568.450, 9.230
568.932, 3.071
569.414, 20.605
569.896, 34.156
570.379, 23.477
570.861, 6.866
571.343, 3.605
571.825, 9.798
572.307, 12.300
572.789, 7.267
573.271, 0.080
573.753, 3.688
574.236, 3.152
574.718, 2.950
575.200, 0.588
575.682, 1.529
576.164, 4.490
576.646, 16.461
577.128, 18.391
577.610, 8.654
578.093, 1.702
578.575, 1.523
579.057, 5.825
579.539, 8.633
580.021, 6.365
580.503, 2.339
580.985, 2.444
581.467, 0.030
581.950, 5.213
582.432, 11.550
582.914, 14.658
583.396, 10.395
583.878, 5.846
584.360, 8.179
584.842, 14.211
585.324, 14.759
585.806, 5.027
586.289, 0.812
586.771, 6.869
587.253, 5.236
587.735, 0.963
588.217, 7.418
588.699, 20.439
589.181, 27.914
589.663, 30.231
590.145, 26.874
590.628, 12.588
591.110, 1.660
591.592, 3.484
592.074, 11.447
592.556, 17.111
593.038, 19.191
593.520, 20.468
594.002, 23.252
594.484, 26.826
594.967, 27.510
595.449, 23.669
595.931, 20.563
596.413, 18.524
596.895, 17.920
597.377, 21.855
597.859, 28.356
598.341, 28.557
598.823, 10.381
599.306, 0.526
599.788, 2.783
600.270, 13.297
600.752, 24.992
601.234, 24.741
601.716, 21.303
602.198, 25.088
602.680, 36.745
603.162, 40.844
603.645, 28.295
604.127, 19.440
604.609, 20.698
605.091, 25.633
605.573, 28.938
606.055, 29.436
606.537, 27.183
607.019, 21.966
607.502, 14.121
607.984, 0.666
608.466, 10.104
608.948, 17.343
609.430, 6.174
609.912, 6.563
610.394, 20.350
610.876, 28.039
611.359, 29.214
611.841, 16.771
612.323, 6.361
612.805, 4.644
613.287, 8.333
613.769, 13.331
614.251, 18.344
614.733, 21.914
615.216, 23.300
615.698, 22.078
616.180, 14.385
616.662, 0.736
617.144, 2.974
617.626, 2.351
618.108, 8.773
618.590, 16.400
619.072, 16.562
619.555, 14.563
620.037, 8.434
620.519, 2.333
621.001, 3.069
621.483, 0.792
621.965, 3.203
622.447, 5.938
622.929, 17.096
623.411, 22.094
623.894, 21.518
624.376, 19.550
624.858, 16.445
625.340, 12.441
625.822, 6.536
626.304, 0.234
626.786, 1.770
627.268, 0.691
627.750, 6.219
628.233, 19.220
628.715, 31.540
629.197, 38.219
629.679, 39.044
630.161, 33.491
630.643, 20.269
631.125, 7.657
631.607, 11.510
632.089, 30.638
632.572, 43.432
633.054, 47.934
633.536, 43.224
634.018, 21.141
634.500, 2.804
634.982, 10.688
635.464, 16.946
635.946, 41.543
636.429, 38.854
636.911, 27.603
637.393, 20.262
637.875, 18.524
638.357, 21.370
638.839, 28.695
639.321, 38.104
639.803, 47.993
640.286, 58.174
640.768, 55.278
641.250, 32.424
641.732, 9.605
642.214, 0.475
642.696, 3.612
643.178, 10.796
643.660, 31.396
644.143, 41.735
644.625, 29.497
645.107, 10.987
645.589, 1.464
646.071, 0.097
646.553, 2.515
647.035, 4.369
647.517, 4.446
647.999, 1.667
648.482, 6.396
648.964, 8.568
649.446, 2.791
649.928, 11.031
650.410, 16.062
650.892, 12.853
651.374, 4.889
651.856, 11.088
652.338, 23.627
652.821, 11.788
653.303, 2.206
653.785, 3.758
654.267, 0.018
654.749, 2.264
655.231, 0.088
655.713, 1.635
656.195, 5.551
656.677, 24.329
657.160, 29.186
657.642, 14.555
658.124, 2.269
658.606, 14.329
659.088, 26.969
659.570, 30.297
660.052, 14.063
660.534, 4.521
661.016, 11.123
661.499, 19.167
661.981, 17.000
662.463, 7.288
662.945, 0.912
663.427, 3.430
663.909, 1.953
664.391, 1.356
664.873, 6.717
665.356, 17.149
665.838, 33.903
666.320, 46.780
666.802, 48.517
667.284, 41.703
667.766, 34.847
668.248, 28.138
668.730, 20.994
669.213, 10.036
669.695, 1.909
670.177, 0.548
670.659, 2.791
671.141, 13.862
671.623, 35.590
672.105, 53.130
672.587, 46.085
673.070, 25.325
673.552, 19.385
674.034, 30.274
674.516, 38.658
674.998, 32.586
675.480, 18.838
675.962, 14.143
676.444, 24.409
676.926, 29.624
677.409, 24.073
677.891, 19.527
678.373, 22.471
678.855, 28.641
679.337, 30.508
679.819, 25.572
680.301, 21.441
680.783, 23.848
681.265, 29.436
681.748, 34.646
682.230, 38.878
682.712, 40.878
683.194, 39.944
683.676, 38.040
684.158, 38.634
684.640, 42.269
685.122, 44.595
685.604, 45.535
686.087, 45.276
686.569, 42.913
687.051, 39.913
687.533, 37.745
688.015, 36.476
688.497, 36.278
688.979, 39.541
689.461, 41.815
689.943, 40.314
690.426, 35.026
690.908, 24.512
691.390, 8.965
691.872, 2.310
692.354, 3.257
692.836, 1.147
693.318, 1.918
693.800, 1.504
694.283, 2.360
694.765, 5.182
695.247, 7.725
695.729, 10.312
696.211, 12.906
696.693, 18.197
697.175, 35.374
697.657, 44.495
698.140, 29.766
698.622, 8.356
699.104, 0.254
699.586, 5.619
700.068, 15.093
700.550, 22.229
701.032, 26.072
701.514, 22.396
701.997, 12.632
702.479, 8.061
702.961, 11.610
703.443, 18.326
703.925, 25.167
704.407, 31.370
704.889, 30.989
705.371, 14.450
705.853, 5.921
706.336, 11.686
706.818, 21.033
707.300, 29.625
707.782, 36.122
708.264, 38.325
708.746, 34.156
709.228, 29.097
709.710, 27.190
710.192, 27.214
710.675, 27.294
711.157, 27.275
711.639, 27.957
712.121, 29.904
712.603, 32.423
713.085, 34.019
713.567, 34.479
714.049, 35.149
714.531, 36.616
715.014, 37.234
715.496, 32.327
715.978, 27.898
716.460, 35.684
716.942, 60.717
717.424, 75.681
717.906, 68.240
718.388, 54.363
718.870, 38.957
719.353, 26.550
719.835, 26.677
720.317, 40.745
720.799, 53.876
721.281, 48.975
721.763, 31.917
722.245, 20.347
722.727, 14.254
723.210, 13.929
723.692, 21.019
724.174, 28.866
724.656, 29.208
725.138, 21.860
725.620, 18.675
726.102, 21.866
726.584, 26.512
727.067, 37.985
727.549, 45.927
728.031, 37.360
728.513, 16.952
728.995, 5.438
729.477, 18.292
729.959, 31.001
730.441, 17.622
730.924, 1.201
731.406, 7.714
731.888, 0.973
732.370, 6.172
732.852, 16.814
733.334, 22.613
733.816, 15.708
734.298, 1.555
734.780, 10.681
735.263, 7.301
735.745, 2.054
736.227, 4.358
736.709, 8.837
737.191, 2.557
737.673, 11.841
738.155, 25.205
738.637, 18.662
739.119, 9.303
739.602, 3.204
740.084, 1.750
740.566, 8.617
741.048, 23.670
741.530, 36.018
742.012, 34.097
742.494, 24.756
742.976, 21.162
743.458, 21.971
743.941, 17.924
744.423, 5.875
744.905, 3.537
745.387, 3.570
745.869, 7.947
746.351, 14.385
746.833, 11.171
747.315, 13.037
747.797, 30.426
748.280, 45.686
748.762, 43.542
749.244, 29.646
749.726, 21.691
750.208, 23.560
750.690, 30.188
751.172, 48.365
751.654, 63.677
752.137, 56.216
752.619, 34.185
753.101, 22.929
753.583, 34.089
754.065, 52.283
754.547, 57.353
755.029, 53.338
755.511, 59.979
755.994, 78.358
756.476, 80.254
756.958, 49.323
757.440, 11.279
757.922, 5.872
758.404, 38.359
758.886, 55.183
759.368, 44.926
759.851, 35.392
760.333, 35.618
760.815, 36.541
761.297, 29.555
761.779, 15.467
762.261, 2.355
762.743, 1.748
763.225, 9.300
763.707, 7.624
764.190, 0.609
764.672, 0.422
765.154, 10.718
765.636, 18.397
766.118, 21.426
766.600, 21.525
767.082, 21.542
767.564, 21.172
768.046, 17.881
768.529, 11.196
769.011, 4.295
769.493, 1.727
769.975, 2.461
770.457, 1.283
770.939, 3.403
771.421, 0.327
771.903, 13.388
772.385, 21.562
772.868, 11.190
773.350, 0.120
773.832, 10.453
774.314, 41.699
774.796, 61.087
775.278, 49.156
775.760, 31.730
776.242, 21.365
776.724, 16.323
777.207, 14.943
777.689, 16.413
778.171, 19.816
778.653, 25.000
779.135, 30.103
779.617, 33.237
780.099, 33.867
780.581, 25.559
781.064, 6.855
781.546, 2.793
782.028, 9.254
782.510, 31.636
782.992, 41.287
783.474, 34.021
783.956, 33.279
784.438, 48.433
784.920, 56.465
785.403, 42.346
785.885, 23.157
786.367, 17.586
786.849, 25.592
787.331, 29.106
787.813, 17.106
788.295, 7.147
788.778, 9.100
789.260, 16.662
789.742, 24.360
790.224, 30.645
790.706, 34.400
791.188, 34.678
791.670, 33.548
792.152, 33.241
792.634, 33.704
793.117, 35.831
793.599, 39.371
794.081, 39.678
794.563, 33.855
795.045, 27.230
795.527, 30.381
796.009, 45.077
796.491, 46.409
796.973, 27.251
797.456, 11.386
797.938, 5.333
798.420, 6.605
798.902, 18.287
799.384, 38.513
799.866, 43.277
800.348, 15.763
800.830, 1.464
801.312, 7.668
801.795, 8.975
802.277, 5.614
802.759, 0.887
803.241, 0.650
803.723, 11.565
804.205, 19.457
804.687, 17.107
805.169, 10.655
805.652, 10.195
806.134, 14.091
806.616, 12.718
807.098, 2.784
807.580, 3.367
808.062, 3.743
808.544, 24.991
809.026, 28.822
809.508, 13.614
809.991, 2.554
810.473, 1.690
810.955, 5.922
811.437, 12.353
811.919, 19.783
812.401, 20.651
812.883, 6.108
813.365, 0.688
813.847, 14.254
814.330, 27.572
814.812, 32.899
815.294, 31.858
815.776, 25.540
816.258, 12.340
816.740, 6.258
817.222, 21.854
817.705, 35.876
818.187, 28.526
818.669, 11.751
819.151, 3.148
819.633, 5.709
820.115, 12.105
820.597, 19.592
821.079, 24.493
821.561, 17.078
822.044, 3.330
822.526, 2.466
823.008, 15.967
823.490, 30.009
823.972, 36.595
824.454, 38.032
824.936, 39.263
825.418, 40.641
825.901, 34.749
826.383, 18.612
826.865, 5.978
827.347, 2.321
827.829, 4.238
828.311, 8.662
828.793, 15.772
829.275, 19.782
829.757, 15.067
830.240, 15.015
830.722, 31.498
831.204, 43.870
831.686, 29.112
832.168, 0.211
832.650, 0.282
833.132, 20.471
833.614, 45.564
834.096, 47.640
834.579, 40.066
835.061, 30.434
835.543, 20.910
836.025, 12.752
836.507, 6.626
836.989, 4.569
837.471, 9.803
837.953, 18.768
838.435, 27.756
838.918, 35.491
839.400, 36.226
839.882, 29.581
840.364, 23.102
840.846, 21.893
841.328, 24.592
841.810, 28.481
842.292, 33.586
842.774, 41.066
843.257, 53.369
843.739, 57.130
844.221, 43.820
844.703, 23.797
845.185, 11.415
845.667, 7.145
846.149, 3.158
846.631, 1.247
847.114, 4.351
847.596, 1.927
848.078, 1.606
848.560, 2.198
849.042, 5.732
849.524, 9.498
850.006, 5.440
850.488, 3.499
850.971, 8.292
851.453, 14.557
851.935, 20.800
852.417, 25.133
852.899, 24.104
853.381, 17.486
853.863, 10.553
854.345, 5.113
854.828, 2.681
855.310, 6.818
855.792, 14.451
856.274, 20.220
856.756, 23.207
857.238, 24.921
857.720, 26.570
858.202, 24.866
858.684, 7.789
859.167, 9.813
859.649, 7.276
860.131, 16.567
860.613, 39.652
861.095, 37.201
861.577, 27.483
862.059, 32.778
862.541, 50.483
863.023, 54.635
863.506, 40.987
863.988, 27.794
864.470, 16.983
864.952, 8.473
865.434, 0.701
865.916, 4.211
866.398, 0.309
866.880, 20.479
867.362, 33.640
867.845, 38.004
868.327, 37.607
868.809, 27.325
869.291, 17.340
869.773, 21.753
870.255, 38.385
870.737, 46.165
871.219, 30.491
871.701, 16.863
872.184, 21.000
872.666, 27.588
873.148, 19.612
873.630, 3.166
874.112, 3.543
874.594, 0.070
875.076, 9.737
875.558, 22.885
876.041, 32.615
876.523, 22.582
877.005, 4.496
877.487, 11.429
877.969, 44.445
878.451, 65.174
878.933, 43.416
879.415, 5.465
879.898, 0.574
880.380, 18.249
880.862, 30.418
881.344, 33.484
881.826, 31.400
882.308, 25.496
882.790, 18.043
883.272, 11.521
883.755, 6.088
884.237, 2.816
884.719, 1.627
885.201, 3.846
885.683, 11.767
886.165, 17.641
886.647, 15.189
887.129, 7.245
887.611, 1.155
888.094, 4.382
888.576, 4.012
889.058, 8.456
889.540, 18.127
890.022, 15.274
890.504, 10.989
890.986, 18.575
891.468, 36.298
891.950, 46.265
892.433, 40.062
892.915, 35.394
893.397, 42.187
893.879, 45.042
894.361, 26.012
894.843, 1.184
895.325, 1.369
895.807, 5.039
896.289, 18.975
896.772, 17.584
897.254, 13.913
897.736, 17.616
898.218, 23.378
898.700, 23.616
899.182, 18.762
899.664, 13.803
900.146, 10.377
900.628, 11.090
901.111, 24.338
901.593, 39.136
902.075, 36.743
902.557, 22.192
903.039, 11.471
903.521, 9.186
904.003, 10.018
904.485, 9.267
904.968, 9.105
905.450, 16.180
905.932, 27.704
906.414, 28.967
906.896, 19.781
907.378, 20.529
907.860, 42.499
908.342, 65.907
908.825, 58.172
909.307, 24.944
909.789, 15.866
910.271, 32.923
910.753, 44.711
911.235, 44.289
911.717, 36.185
912.199, 21.653
912.682, 4.971
913.164, 1.926
913.646, 2.445
914.128, 11.232
914.610, 27.785
915.092, 40.724
915.574, 46.014
916.056, 46.116
916.538, 42.848
917.021, 36.418
917.503, 30.553
917.985, 26.752
918.467, 20.977
918.949, 10.199
919.431, 0.588
919.913, 3.220
920.395, 0.036
920.877, 1.902
921.360, 0.358
921.842, 5.038
922.324, 2.250
922.806, 1.901
923.288, 26.093
923.770, 50.532
924.252, 39.363
924.734, 6.222
925.216, 2.626
925.699, 4.432
926.181, 5.897
926.663, 17.161
927.145, 24.726
927.627, 22.104
928.109, 16.756
928.591, 20.023
929.073, 30.326
929.555, 34.676
930.038, 25.928
930.520, 14.150
931.002, 4.150
931.484, 3.893
931.966, 0.949
932.448, 4.988
932.930, 4.157
933.412, 1.466
933.895, 2.586
934.377, 2.603
934.859, 1.949
935.341, 10.769
935.823, 26.640
936.305, 28.200
936.787, 17.753
937.269, 9.364
937.752, 8.709
938.234, 10.926
938.716, 10.798
939.198, 10.301
939.680, 14.245
940.162, 21.127
940.644, 26.475
941.126, 29.457
941.609, 29.939
942.091, 27.612
942.573, 25.375
943.055, 29.797
943.537, 38.114
944.019, 35.480
944.501, 23.374
944.983, 18.153
945.465, 23.906
945.948, 32.975
946.430, 40.296
946.912, 43.924
947.394, 35.171
947.876, 14.974
948.358, 14.390
948.840, 36.369
949.322, 50.502
949.804, 45.945
950.287, 30.485
950.769, 9.006
951.251, 4.018
951.733, 5.430
952.215, 8.407
952.697, 26.486
953.179, 35.973
953.661, 43.834
954.143, 55.018
954.626, 60.787
955.108, 46.096
955.590, 13.286
956.072, 6.001
956.554, 38.446
957.036, 47.267
957.518, 10.171
958.000, 8.719
958.482, 3.459
958.965, 31.788
959.447, 45.747
959.929, 36.280
960.411, 29.202
960.893, 26.974
961.375, 21.632
961.857, 4.886
962.339, 4.453
962.822, 6.906
963.304, 32.059
963.786, 46.501
964.268, 48.919
964.750, 45.196
965.232, 27.799
965.714, 15.059
966.196, 10.886
966.679, 12.785
967.161, 23.721
967.643, 39.064
968.125, 43.282
968.607, 29.061
969.089, 21.687
969.571, 29.935
970.053, 35.305
970.536, 28.334
971.018, 18.940
971.500, 17.044
971.982, 21.084
972.464, 22.353
972.946, 15.699
973.428, 15.112
973.910, 28.131
974.392, 40.715
974.875, 49.771
975.357, 53.335
975.839, 47.869
976.321, 34.437
976.803, 20.749
977.285, 2.954
977.767, 3.920
978.249, 0.319
978.731, 10.468
979.214, 26.389
979.696, 40.016
980.178, 37.610
980.660, 20.517
981.142, 14.357
981.624, 38.207
982.106, 55.707
982.588, 53.784
983.070, 44.575
983.553, 31.646
984.035, 19.005
984.517, 10.950
984.999, 8.221
985.481, 11.621
985.963, 29.883
986.445, 42.847
986.927, 38.213
987.409, 30.123
987.892, 27.036
988.374, 29.334
988.856, 37.832
989.338, 52.381
989.820, 63.735
990.302, 73.543
990.784, 72.732
991.266, 47.359
991.749, 18.675
992.231, 3.676
992.713, 0.287
993.195, 0.510
993.677, 1.412
994.159, 3.718
994.641, 4.369
995.123, 6.874
995.606, 12.754
996.088, 21.529
996.570, 34.852
997.052, 49.967
997.534, 63.730
998.016, 75.645
998.498, 75.446
998.980, 46.218
999.463, 18.643
999.945, 7.383
1000.427, 7.573
1000.909, 18.232
1001.391, 35.101
1001.873, 52.655
1002.355, 70.179
1002.837, 76.463
1003.319, 56.064
1003.802, 35.462
1004.284, 30.094
1004.766, 31.508
1005.248, 32.152
1005.730, 31.679
1006.212, 32.157
1006.694, 34.397
1007.176, 34.790
1007.658, 28.391
1008.141, 23.680
1008.623, 31.668
1009.105, 38.765
1009.587, 25.774
1010.069, 1.143
1010.551, 1.055
1011.033, 3.964
1011.515, 5.191
1011.997, 31.099
1012.480, 49.137
1012.962, 39.754
1013.444, 23.147
1013.926, 20.005
1014.408, 27.233
1014.890, 32.661
1015.372, 33.612
1015.854, 29.902
1016.337, 13.913
1016.819, 2.733
1017.301, 8.717
1017.783, 20.579
1018.265, 29.629
1018.747, 34.941
1019.229, 37.827
1019.711, 39.032
1020.193, 34.128
1020.676, 11.425
1021.158, 4.810
1021.640, 2.455
1022.122, 15.776
1022.604, 21.835
1023.086, 20.585
1023.568, 13.439
1024.050, 0.988
1024.533, 3.076
1025.015, 2.710
1025.497, 13.487
1025.979, 17.700
1026.461, 18.943
1026.943, 16.591
1027.425, 14.609
1027.907, 23.307
1028.390, 46.795
1028.872, 60.677
1029.354, 52.458
1029.836, 44.285
1030.318, 42.829
1030.800, 44.095
1031.282, 47.958
1031.764, 51.331
1032.246, 48.354
1032.729, 38.049
1033.211, 25.139
1033.693, 0.181
1034.175, 1.997
1034.657, 0.098
1035.139, 16.630
1035.621, 20.624
1036.103, 17.548
1036.585, 18.202
1037.068, 23.732
1037.550, 26.465
1038.032, 22.578
1038.514, 21.054
1038.996, 28.050
1039.478, 32.114
1039.960, 21.672
1040.442, 7.632
1040.925, 8.497
1041.407, 25.387
1041.889, 37.964
1042.371, 47.349
1042.853, 50.163
1043.335, 44.275
1043.817, 34.151
1044.299, 17.612
1044.781, 2.598
1045.264, 2.611
1045.746, 16.706
1046.228, 17.504
1046.710, 3.426
1047.192, 2.713
1047.674, 3.282
1048.156, 0.567
1048.638, 1.555
1049.120, 2.998
1049.603, 10.086
1050.085, 21.607
1050.567, 29.112
1051.049, 32.323
1051.531, 33.281
1052.013, 32.632
1052.495, 26.047
1052.977, 9.327
1053.460, 4.613
1053.942, 1.348
1054.424, 14.299
1054.906, 25.363
1055.388, 31.665
1055.870, 36.794
1056.352, 41.061
1056.834, 40.678
1057.317, 34.001
1057.799, 26.479
1058.281, 22.153
1058.763, 21.865
1059.245, 29.941
1059.727, 44.739
1060.209, 53.094
1060.691, 54.893
1061.173, 54.724
1061.656, 53.569
1062.138, 43.972
1062.620, 19.196
1063.102, 5.148
1063.584, 1.285
1064.066, 27.213
1064.548, 39.794
1065.030, 40.931
1065.512, 37.630
1065.995, 32.676
1066.477, 34.216
1066.959, 47.034
1067.441, 56.593
1067.923, 39.147
1068.405, 12.597
1068.887, 7.995
1069.369, 16.429
1069.852, 19.891
1070.334, 17.395
1070.816, 16.107
1071.298, 18.795
1071.780, 22.906
1072.262, 27.032
1072.744, 30.914
1073.226, 35.196
1073.708, 38.425
1074.191, 38.237
1074.673, 35.585
1075.155, 32.928
1075.637, 30.883
1076.119, 28.314
1076.601, 21.419
1077.083, 18.656
1077.565, 31.122
1078.047, 43.584
1078.530, 40.265
1079.012, 30.079
1079.494, 27.549
1079.976, 33.845
1080.458, 41.801
1080.940, 59.373
1081.422, 58.974
1081.904, 6.043
1082.386, 23.160
1082.869, 9.973
1083.351, 13.619
1083.833, 43.379
1084.315, 64.232
1084.797, 68.008
1085.279, 44.005
1085.761, 28.683
1086.243, 28.242
1086.726, 29.494
1087.208, 34.523
1087.690, 33.677
1088.172, 12.455
1088.654, 3.834
1089.136, 2.328
1089.618, 22.777
1090.100, 39.473
1090.583, 28.902
1091.065, 22.519
1091.547, 26.121
1092.029, 33.611
1092.511, 43.590
1092.993, 50.464
1093.475, 43.952
1093.957, 27.353
1094.439, 27.359
1094.922, 44.463
1095.404, 54.505
1095.886, 54.918
1096.368, 50.646
1096.850, 43.375
1097.332, 37.994
1097.814, 40.830
1098.296, 44.925
1098.778, 28.019
1099.261, 0.194
1099.743, 0.085
1100.225, 23.051
1100.707, 35.267
1101.189, 29.881
1101.671, 29.224
1102.153, 49.362
1102.635, 67.845
1103.118, 52.417
1103.600, 24.297
1104.082, 9.992
1104.564, 7.609
1105.046, 15.639
1105.528, 30.350
1106.010, 43.370
1106.492, 51.647
1106.974, 55.147
1107.457, 52.236
1107.939, 46.339
1108.421, 35.232
1108.903, 26.246
1109.385, 30.379
1109.867, 40.246
1110.349, 40.643
1110.831, 29.549
1111.313, 19.258
1111.796, 8.228
1112.278, 5.540
1112.760, 22.892
1113.242, 37.522
1113.724, 33.492
1114.206, 24.148
1114.688, 29.538
1115.170, 44.154
1115.653, 38.804
1116.135, 1.584
1116.617, 10.872
1117.099, 17.570
1117.581, 15.726
1118.063, 3.145
1118.545, 3.573
1119.027, 5.475
1119.510, 1.581
1119.992, 1.349
1120.474, 2.895
1120.956, 12.465
1121.438, 19.124
1121.920, 26.954
1122.402, 36.656
1122.884, 39.098
1123.366, 29.987
1123.849, 18.595
1124.331, 14.596
1124.813, 16.164
1125.295, 21.011
1125.777, 27.639
1126.259, 32.125
1126.741, 34.488
1127.223, 36.127
1127.705, 37.299
1128.188, 36.687
1128.670, 32.858
1129.152, 30.241
1129.634, 33.313
1130.116, 39.253
1130.598, 49.950
1131.080, 58.492
1131.562, 52.853
1132.045, 36.981
1132.527, 23.691
1133.009, 16.226
1133.491, 14.249
1133.973, 23.324
1134.455, 29.976
1134.937, 23.692
1135.419, 19.445
1135.901, 35.221
1136.384, 54.463
1136.866, 47.276
1137.348, 15.812
1137.830, 3.974
1138.312, 21.329
1138.794, 39.354
1139.276, 66.700
1139.758, 71.556
1140.240, 32.974
1140.723, 3.378
1141.205, 1.498
1141.687, 27.567
1142.169, 30.349
1142.651, 11.066
1143.133, 4.797
1143.615, 6.598
1144.097, 4.220
1144.580, 34.493
1145.062, 57.950
1145.544, 47.195
1146.026, 24.998
1146.508, 12.217
1146.990, 7.231
1147.472, 9.627
1147.954, 16.452
1148.437, 22.697
1148.919, 28.084
1149.401, 34.780
1149.883, 41.764
1150.365, 41.406
1150.847, 28.015
1151.329, 17.069
1151.811, 22.794
1152.293, 29.396
1152.776, 22.078
1153.258, 13.581
1153.740, 20.047
1154.222, 34.793
1154.704, 39.916
1155.186, 32.302
1155.668, 30.541
1156.150, 51.531
1156.632, 54.590
1157.115, 17.307
1157.597, 0.526
1158.079, 0.265
1158.561, 20.573
1159.043, 30.901
1159.525, 32.920
1160.007, 34.099
1160.489, 34.693
1160.972, 30.188
1161.454, 20.047
1161.936, 15.745
1162.418, 19.624
1162.900, 26.482
1163.382, 33.752
1163.864, 38.111
1164.346, 34.144
1164.828, 26.301
1165.311, 21.880
1165.793, 21.245
1166.275, 30.185
1166.757, 42.639
1167.239, 38.616
1167.721, 17.689
1168.203, 5.787
1168.685, 19.054
1169.167, 31.915
1169.650, 26.866
1170.132, 17.876
1170.614, 5.569
1171.096, 1.358
1171.578, 30.929
1172.060, 72.376
1172.542, 68.652
1173.024, 7.809
1173.507, 7.080
1173.989, 30.987
1174.471, 61.229
1174.953, 69.639
1175.435, 56.243
1175.917, 7.716
1176.399, 23.800
1176.881, 12.822
1177.364, 20.800
1177.846, 45.723
1178.328, 52.833
1178.810, 35.218
1179.292, 3.308
1179.774, 7.995
1180.256, 0.336
1180.738, 20.653
1181.220, 34.034
1181.703, 39.243
1182.185, 32.564
1182.667, 23.141
1183.149, 22.052
1183.631, 25.744
1184.113, 31.794
1184.595, 37.902
1185.077, 42.320
1185.559, 43.597
1186.042, 36.251
1186.524, 14.868
1187.006, 3.317
1187.488, 19.056
1187.970, 32.029
1188.452, 31.645
1188.934, 26.089
1189.416, 17.724
1189.899, 9.678
1190.381, 5.069
1190.863, 4.432
1191.345, 14.833
1191.827, 41.917
1192.309, 43.470
1192.791, 14.683
1193.273, 1.243
1193.755, 4.074
1194.238, 3.918
1194.720, 18.201
1195.202, 35.264
1195.684, 13.115
1196.166, 15.324
1196.648, 8.704
1197.130, 10.862
1197.612, 14.329
1198.094, 1.043
1198.577, 2.331
1199.059, 0.477
1199.541, 3.613
1200.023, 1.375
1200.505, 1.037
1200.987, 1.169
1201.469, 3.071
1201.951, 13.614
1202.434, 22.268
1202.916, 15.898
1203.398, 3.349
1203.880, 2.849
1204.362, 13.886
1204.844, 20.264
1205.326, 21.287
1205.808, 19.986
1206.291, 16.240
1206.773, 11.758
1207.255, 7.016
1207.737, 0.118
1208.219, 5.073
1208.701, 10.981
1209.183, 10.178
1209.665, 53.226
1210.147, 56.251
1210.630, 37.269
1211.112, 36.126
1211.594, 50.573
1212.076, 64.398
1212.558, 71.909
1213.040, 67.296
1213.522, 41.552
1214.004, 22.187
1214.486, 30.737
1214.969, 38.680
1215.451, 25.522
1215.933, 11.341
1216.415, 18.579
1216.897, 34.149
1217.379, 31.576
1217.861, 12.111
1218.343, 4.913
1218.826, 13.849
1219.308, 15.533
1219.790, 7.603
1220.272, 3.655
1220.754, 7.534
1221.236, 12.433
1221.718, 13.669
1222.200, 14.114
1222.682, 18.982
1223.165, 24.897
1223.647, 22.847
1224.129, 18.384
1224.611, 24.579
1225.093, 35.614
1225.575, 34.066
1226.057, 19.642
1226.539, 11.633
1227.021, 19.096
1227.504, 25.831
1227.986, 26.604
1228.468, 25.647
1228.950, 22.473
1229.432, 20.260
1229.914, 21.951
1230.396, 24.814
1230.878, 25.161
1231.361, 23.599
1231.843, 20.205
1232.325, 14.918
1232.807, 10.531
1233.289, 7.138
1233.771, 5.829
1234.253, 6.673
1234.735, 8.597
1235.218, 11.045
1235.700, 11.394
1236.182, 4.902
1236.664, 1.503
1237.146, 1.822
1237.628, 7.470
1238.110, 6.842
1238.592, 3.220
1239.074, 1.402
1239.557, 1.855
1240.039, 3.241
1240.521, 4.659
1241.003, 10.841
1241.485, 26.682
1241.967, 37.366
1242.449, 39.853
1242.931, 40.782
1243.413, 42.604
1243.896, 45.004
1244.378, 48.581
1244.860, 49.602
1245.342, 33.938
1245.824, 11.154
1246.306, 21.828
1246.788, 50.832
1247.270, 52.959
1247.753, 32.445
1248.235, 20.955
1248.717, 26.338
1249.199, 31.932
1249.681, 29.895
1250.163, 26.284
1250.645, 18.500
1251.127, 16.693
1251.609, 37.485
1252.092, 53.550
1252.574, 36.426
1253.056, 8.781
1253.538, 5.866
1254.020, 23.343
1254.502, 30.903
1254.984, 27.996
1255.466, 27.767
1255.948, 30.475
1256.431, 29.569
1256.913, 24.151
1257.395, 19.410
1257.877, 17.931
1258.359, 19.903
1258.841, 26.760
1259.323, 35.095
1259.805, 46.426
1260.288, 52.814
1260.770, 39.392
1261.252, 21.761
1261.734, 24.740
1262.216, 41.134
1262.698, 40.727
1263.180, 18.216
1263.662, 4.026
1264.145, 0.605
1264.627, 0.000
##END=



