##NAMES=Effenbergerite
##RRUFFID=R120088
##IDEAL CHEMISTRY=BaCu^2+^Si_4_O_10_
##LOCALITY=Eastern orebody, Wessels mine, Kalahari manganese field, Cape Province, South Africa
##OWNER=RRUFF
##SOURCE=William W Pinch
##DESCRIPTION=Blue massive. A piece from the original find.
##STATUS=The identification of this mineral has been confirmed by single-crystal X-ray diffraction.
##URL=rruff.info/R120088
186.0984, 4394.253
186.5805, 4390.280
187.0626, 4383.194
187.5447, 4372.866
188.0269, 4355.997
188.5090, 4327.684
188.9911, 4312.068
189.4732, 4320.185
189.9553, 4343.672
190.4374, 4369.932
190.9196, 4397.859
191.4017, 4422.301
191.8838, 4433.360
192.3659, 4429.945
192.8480, 4430.059
193.3301, 4446.256
193.8123, 4473.688
194.2944, 4494.513
194.7765, 4502.910
195.2586, 4504.114
195.7407, 4502.106
196.2228, 4496.751
196.7050, 4496.239
197.1871, 4510.435
197.6692, 4538.458
198.1513, 4560.031
198.6334, 4567.221
199.1155, 4569.674
199.5977, 4573.261
200.0798, 4578.516
200.5619, 4584.347
201.0440, 4590.269
201.5261, 4596.646
202.0082, 4601.001
202.4904, 4602.356
202.9725, 4602.035
203.4546, 4597.987
203.9367, 4591.135
204.4188, 4587.207
204.9009, 4594.590
205.3831, 4617.839
205.8652, 4638.525
206.3473, 4656.563
206.8294, 4671.723
207.3115, 4680.565
207.7936, 4684.087
208.2758, 4689.272
208.7579, 4708.334
209.2400, 4757.622
209.7221, 4783.345
210.2042, 4770.212
210.6863, 4748.579
211.1685, 4737.252
211.6506, 4740.630
212.1327, 4752.760
212.6148, 4765.286
213.0969, 4777.003
213.5790, 4792.005
214.0612, 4820.973
214.5433, 4846.532
215.0254, 4848.908
215.5075, 4825.185
215.9896, 4797.066
216.4717, 4796.667
216.9539, 4841.854
217.4360, 4873.434
217.9181, 4880.285
218.4002, 4878.240
218.8823, 4883.044
219.3644, 4898.506
219.8466, 4917.745
220.3287, 4931.471
220.8108, 4938.792
221.2929, 4946.287
221.7750, 4955.519
222.2571, 4965.126
222.7393, 4973.287
223.2214, 4979.516
223.7035, 4984.954
224.1856, 4990.846
224.6677, 4997.138
225.1498, 5003.512
225.6320, 5011.622
226.1141, 5019.356
226.5962, 5020.575
227.0783, 5010.842
227.5604, 5004.922
228.0425, 5025.277
228.5247, 5065.006
229.0068, 5095.513
229.4889, 5098.868
229.9710, 5085.751
230.4531, 5079.721
230.9352, 5083.994
231.4174, 5093.727
231.8995, 5105.404
232.3816, 5119.048
232.8637, 5135.223
233.3458, 5157.451
233.8279, 5182.747
234.3101, 5201.781
234.7922, 5213.372
235.2743, 5219.338
235.7564, 5215.643
236.2385, 5207.825
236.7206, 5207.912
237.2028, 5229.085
237.6849, 5264.004
238.1670, 5279.088
238.6491, 5256.576
239.1312, 5240.590
239.6133, 5254.115
240.0955, 5284.877
240.5776, 5312.365
241.0597, 5324.196
241.5418, 5323.196
242.0239, 5322.482
242.5060, 5321.807
242.9882, 5321.851
243.4703, 5320.375
243.9524, 5320.097
244.4345, 5324.715
244.9166, 5336.293
245.3987, 5354.429
245.8809, 5378.003
246.3630, 5419.894
246.8451, 5449.727
247.3272, 5455.776
247.8093, 5448.554
248.2914, 5441.080
248.7736, 5440.345
249.2557, 5444.722
249.7378, 5447.064
250.2199, 5434.124
250.7020, 5436.945
251.1841, 5474.339
251.6663, 5524.329
252.1484, 5560.977
252.6305, 5571.882
253.1126, 5563.142
253.5947, 5553.701
254.0768, 5532.977
254.5590, 5525.609
255.0411, 5540.329
255.5232, 5566.118
256.0053, 5592.876
256.4874, 5616.190
256.9695, 5635.181
257.4517, 5647.670
257.9338, 5643.792
258.4159, 5644.998
258.8980, 5654.006
259.3801, 5667.020
259.8622, 5680.437
260.3444, 5692.966
260.8265, 5705.125
261.3086, 5717.854
261.7907, 5731.398
262.2728, 5745.311
262.7549, 5763.228
263.2371, 5779.775
263.7192, 5786.939
264.2013, 5783.012
264.6834, 5777.079
265.1655, 5782.669
265.6476, 5804.331
266.1298, 5828.474
266.6119, 5862.475
267.0940, 5894.801
267.5761, 5913.533
268.0582, 5916.667
268.5403, 5911.580
269.0225, 5904.301
269.5046, 5892.228
269.9867, 5895.227
270.4688, 5933.915
270.9509, 5975.369
271.4330, 5985.058
271.9152, 5960.508
272.3973, 5934.874
272.8794, 5942.488
273.3615, 5986.438
273.8436, 6014.195
274.3257, 6008.917
274.8079, 5998.576
275.2900, 6005.614
275.7721, 6030.699
276.2542, 6061.195
276.7363, 6091.310
277.2184, 6118.690
277.7006, 6134.547
278.1827, 6124.582
278.6648, 6114.273
279.1469, 6124.800
279.6290, 6153.796
280.1111, 6180.454
280.5933, 6190.691
281.0754, 6189.611
281.5575, 6196.671
282.0396, 6217.141
282.5217, 6239.218
283.0038, 6258.069
283.4860, 6273.243
283.9681, 6281.989
284.4502, 6281.135
284.9323, 6274.375
285.4144, 6270.298
285.8965, 6270.272
286.3787, 6269.532
286.8608, 6261.861
287.3429, 6250.462
287.8250, 6246.307
288.3071, 6251.825
288.7892, 6268.476
289.2714, 6300.863
289.7535, 6351.166
290.2356, 6396.841
290.7177, 6428.709
291.1998, 6448.085
291.6819, 6456.267
292.1641, 6448.489
292.6462, 6439.421
293.1283, 6446.263
293.6104, 6467.073
294.0925, 6490.033
294.5746, 6513.887
295.0568, 6536.132
295.5389, 6550.020
296.0210, 6552.153
296.5031, 6553.737
296.9852, 6566.840
297.4673, 6587.538
297.9495, 6605.434
298.4316, 6621.025
298.9137, 6630.390
299.3958, 6621.125
299.8779, 6587.253
300.3600, 6563.077
300.8422, 6583.708
301.3243, 6628.149
301.8064, 6660.476
302.2885, 6665.813
302.7706, 6663.111
303.2527, 6675.739
303.7349, 6704.974
304.2170, 6732.150
304.6991, 6749.223
305.1812, 6758.416
305.6633, 6760.590
306.1454, 6751.253
306.6276, 6746.271
307.1097, 6763.216
307.5918, 6800.736
308.0739, 6836.099
308.5560, 6862.552
309.0381, 6882.358
309.5203, 6899.300
310.0024, 6913.680
310.4845, 6923.521
310.9666, 6922.810
311.4487, 6914.731
311.9308, 6916.500
312.4130, 6936.944
312.8951, 6960.020
313.3772, 6968.645
313.8593, 6965.138
314.3414, 6964.520
314.8235, 6979.034
315.3057, 7001.757
315.7878, 7012.843
316.2699, 7005.423
316.7520, 6998.967
317.2341, 7008.727
317.7162, 7030.027
318.1984, 7054.252
318.6805, 7081.168
319.1626, 7107.928
319.6447, 7130.363
320.1268, 7148.476
320.6089, 7162.357
321.0911, 7168.946
321.5732, 7172.156
322.0553, 7176.572
322.5374, 7181.408
323.0195, 7190.565
323.5016, 7211.617
323.9838, 7244.826
324.4659, 7272.605
324.9480, 7287.519
325.4301, 7293.399
325.9122, 7293.354
326.3943, 7285.757
326.8765, 7281.750
327.3586, 7294.575
327.8407, 7320.177
328.3228, 7333.792
328.8049, 7322.068
329.2870, 7307.490
329.7692, 7312.598
330.2513, 7335.938
330.7334, 7365.472
331.2155, 7401.671
331.6976, 7439.308
332.1797, 7464.886
332.6619, 7474.391
333.1440, 7479.112
333.6261, 7487.452
334.1082, 7498.079
334.5903, 7508.051
335.0724, 7512.328
335.5546, 7517.472
336.0367, 7536.335
336.5188, 7570.822
337.0009, 7597.551
337.4830, 7592.826
337.9651, 7574.704
338.4473, 7579.074
338.9294, 7623.874
339.4115, 7669.492
339.8936, 7676.266
340.3757, 7650.404
340.8578, 7640.047
341.3400, 7670.652
341.8221, 7717.819
342.3042, 7741.639
342.7863, 7737.755
343.2684, 7736.926
343.7505, 7759.232
344.2327, 7795.530
344.7148, 7822.933
345.1969, 7834.773
345.6790, 7841.837
346.1611, 7857.446
346.6432, 7880.075
347.1254, 7899.774
347.6075, 7913.346
348.0896, 7922.883
348.5717, 7929.150
349.0538, 7932.054
349.5359, 7936.405
350.0181, 7943.980
350.5002, 7956.363
350.9823, 7977.672
351.4644, 8022.316
351.9465, 8063.701
352.4286, 8077.984
352.9108, 8070.891
353.3929, 8071.681
353.8750, 8098.110
354.3571, 8137.375
354.8392, 8156.604
355.3214, 8148.101
355.8035, 8140.378
356.2856, 8150.007
356.7677, 8166.085
357.2498, 8162.967
357.7319, 8129.756
358.2141, 8096.212
358.6962, 8107.764
359.1783, 8172.356
359.6604, 8230.488
360.1425, 8282.761
360.6246, 8321.542
361.1068, 8331.694
361.5889, 8314.566
362.0710, 8297.307
362.5531, 8303.020
363.0352, 8331.848
363.5173, 8356.783
363.9995, 8376.539
364.4816, 8394.243
364.9637, 8407.274
365.4458, 8419.096
365.9279, 8441.359
366.4100, 8482.789
366.8922, 8532.424
367.3743, 8552.536
367.8564, 8510.126
368.3385, 8486.879
368.8206, 8511.137
369.3027, 8552.222
369.7849, 8569.964
370.2670, 8554.199
370.7491, 8532.848
371.2312, 8547.062
371.7133, 8617.364
372.1954, 8660.041
372.6776, 8656.323
373.1597, 8642.984
373.6418, 8638.392
374.1239, 8644.892
374.6060, 8659.190
375.0881, 8679.257
375.5703, 8704.967
376.0524, 8733.466
376.5345, 8774.599
377.0166, 8807.545
377.4987, 8823.188
377.9808, 8828.958
378.4630, 8835.195
378.9451, 8846.658
379.4272, 8861.919
379.9093, 8877.523
380.3914, 8892.584
380.8735, 8909.836
381.3557, 8935.390
381.8378, 8958.730
382.3199, 8968.803
382.8020, 8966.097
383.2841, 8962.884
383.7662, 8973.447
384.2484, 9000.002
384.7305, 9024.893
385.2126, 9050.453
385.6947, 9071.882
386.1768, 9086.748
386.6589, 9096.195
387.1411, 9101.522
387.6232, 9102.090
388.1053, 9101.360
388.5874, 9112.356
389.0695, 9140.177
389.5516, 9170.615
390.0338, 9207.091
390.5159, 9240.901
390.9980, 9261.048
391.4801, 9264.787
391.9622, 9265.223
392.4443, 9280.554
392.9265, 9312.929
393.4086, 9339.386
393.8907, 9353.711
394.3728, 9364.313
394.8549, 9374.313
395.3370, 9384.508
395.8192, 9396.669
396.3013, 9416.056
396.7834, 9438.224
397.2655, 9443.517
397.7476, 9420.391
398.2297, 9410.510
398.7119, 9451.276
399.1940, 9513.619
399.6761, 9561.895
400.1582, 9587.397
400.6403, 9596.050
401.1224, 9584.687
401.6046, 9555.105
402.0867, 9540.643
402.5688, 9555.403
403.0509, 9585.584
403.5330, 9616.415
404.0151, 9648.112
404.4973, 9674.354
404.9794, 9683.550
405.4615, 9687.965
405.9436, 9716.586
406.4257, 9776.671
406.9078, 9826.964
407.3900, 9824.278
407.8721, 9779.876
408.3542, 9756.521
408.8363, 9763.325
409.3184, 9788.011
409.8005, 9833.196
410.2827, 9892.049
410.7648, 9940.548
411.2469, 9967.441
411.7290, 9979.437
412.2111, 9990.035
412.6932, 9998.150
413.1754, 10007.63
413.6575, 10021.14
414.1396, 10035.20
414.6217, 10043.89
415.1038, 10047.02
415.5859, 10054.15
416.0681, 10077.68
416.5502, 10121.06
417.0323, 10138.95
417.5144, 10099.45
417.9965, 10071.81
418.4786, 10094.48
418.9608, 10148.46
419.4429, 10195.48
419.9250, 10215.75
420.4071, 10217.19
420.8892, 10220.16
421.3713, 10207.62
421.8535, 10225.12
422.3356, 10314.68
422.8177, 10404.52
423.2998, 10427.56
423.7819, 10383.10
424.2640, 10329.74
424.7462, 10331.49
425.2283, 10393.52
425.7104, 10433.12
426.1925, 10422.16
426.6746, 10418.39
427.1567, 10444.10
427.6389, 10486.37
428.1210, 10523.45
428.6031, 10544.18
429.0852, 10557.82
429.5673, 10584.59
430.0494, 10629.79
430.5316, 10669.25
431.0137, 10700.49
431.4958, 10721.33
431.9779, 10721.61
432.4600, 10703.80
432.9421, 10693.34
433.4243, 10715.58
433.9064, 10762.54
434.3885, 10798.05
434.8706, 10815.38
435.3527, 10833.42
435.8348, 10876.30
436.3170, 10926.40
436.7991, 10950.11
437.2812, 10921.06
437.7633, 10888.56
438.2454, 10904.11
438.7275, 10961.14
439.2097, 11014.74
439.6918, 11050.49
440.1739, 11074.35
440.6560, 11093.21
441.1381, 11106.90
441.6202, 11120.82
442.1024, 11137.85
442.5845, 11155.10
443.0666, 11169.31
443.5487, 11180.21
444.0308, 11188.85
444.5129, 11195.99
444.9951, 11201.51
445.4772, 11204.97
445.9593, 11191.58
446.4414, 11193.33
446.9235, 11231.45
447.4056, 11287.52
447.8878, 11335.95
448.3699, 11367.82
448.8520, 11386.29
449.3341, 11394.25
449.8162, 11382.14
450.2983, 11387.60
450.7805, 11430.21
451.2626, 11469.62
451.7447, 11475.87
452.2268, 11460.39
452.7089, 11458.29
453.1910, 11495.04
453.6732, 11559.00
454.1553, 11600.52
454.6374, 11608.65
455.1195, 11611.61
455.6016, 11605.65
456.0837, 11602.42
456.5659, 11613.86
457.0480, 11641.26
457.5301, 11673.06
458.0122, 11694.11
458.4943, 11704.94
458.9764, 11732.69
459.4586, 11794.42
459.9407, 11848.39
460.4228, 11862.96
460.9049, 11857.35
461.3870, 11867.71
461.8691, 11914.45
462.3513, 11969.22
462.8334, 11994.49
463.3155, 11991.46
463.7976, 11991.46
464.2797, 12004.57
464.7618, 12024.41
465.2440, 12044.55
465.7261, 12065.26
466.2082, 12081.28
466.6903, 12086.26
467.1724, 12088.14
467.6545, 12091.52
468.1367, 12097.91
468.6188, 12124.42
469.1009, 12192.70
469.5830, 12287.40
470.0651, 12332.32
470.5472, 12292.62
471.0294, 12254.50
471.5115, 12232.12
471.9936, 12226.38
472.4757, 12241.73
472.9578, 12278.31
473.4399, 12327.02
473.9221, 12380.30
474.4042, 12443.94
474.8863, 12476.77
475.3684, 12449.04
475.8505, 12426.07
476.3326, 12433.88
476.8148, 12462.55
477.2969, 12495.16
477.7790, 12523.67
478.2611, 12546.37
478.7432, 12556.43
479.2253, 12545.22
479.7075, 12546.03
480.1896, 12579.14
480.6717, 12611.48
481.1538, 12615.36
481.6359, 12598.62
482.1180, 12598.13
482.6002, 12649.92
483.0823, 12732.42
483.5644, 12783.42
484.0465, 12795.76
484.5286, 12801.54
485.0107, 12809.91
485.4929, 12821.69
485.9750, 12836.89
486.4571, 12854.52
486.9392, 12880.37
487.4213, 12927.22
487.9034, 12983.54
488.3856, 13024.28
488.8677, 13045.69
489.3498, 13050.62
489.8319, 13030.58
490.3140, 12991.10
490.7961, 12990.13
491.2783, 13067.79
491.7604, 13141.16
492.2425, 13168.82
492.7246, 13166.57
493.2067, 13161.44
493.6888, 13162.92
494.1710, 13172.73
494.6531, 13194.14
495.1352, 13230.69
495.6173, 13268.42
496.0994, 13323.81
496.5815, 13364.44
497.0637, 13357.68
497.5458, 13324.79
498.0279, 13313.59
498.5100, 13352.72
498.9921, 13420.77
499.4742, 13459.48
499.9564, 13445.25
500.4385, 13461.87
500.9206, 13562.98
501.4027, 13665.25
501.8848, 13713.29
502.3669, 13710.32
502.8491, 13697.69
503.3312, 13701.75
503.8133, 13717.23
504.2954, 13727.47
504.7775, 13729.09
505.2596, 13742.54
505.7418, 13792.18
506.2239, 13850.74
506.7060, 13876.43
507.1881, 13859.25
507.6702, 13842.59
508.1523, 13849.06
508.6345, 13869.80
509.1166, 13890.11
509.5987, 13907.88
510.0808, 13928.78
510.5629, 13959.83
511.0450, 13999.04
511.5272, 14025.48
512.0093, 14027.53
512.4914, 14032.46
512.9735, 14046.71
513.4556, 14068.99
513.9377, 14101.17
514.4199, 14142.21
514.9020, 14182.12
515.3841, 14206.88
515.8662, 14213.52
516.3483, 14225.43
516.8304, 14252.71
517.3126, 14274.54
517.7947, 14274.44
518.2768, 14268.39
518.7589, 14282.24
519.2410, 14326.96
519.7231, 14382.56
520.2053, 14420.38
520.6874, 14439.10
521.1695, 14458.12
521.6516, 14483.20
522.1337, 14504.48
522.6158, 14510.74
523.0980, 14507.89
523.5801, 14512.80
524.0622, 14528.82
524.5443, 14557.62
525.0264, 14609.90
525.5085, 14680.69
525.9907, 14737.75
526.4728, 14769.45
526.9549, 14784.48
527.4370, 14792.50
527.9191, 14791.75
528.4012, 14796.65
528.8834, 14808.95
529.3655, 14827.12
529.8476, 14854.48
530.3297, 14887.12
530.8118, 14913.66
531.2939, 14927.42
531.7761, 14934.76
532.2582, 14951.98
532.7403, 14983.16
533.2224, 15016.81
533.7045, 15057.58
534.1866, 15095.80
534.6688, 15124.21
535.1509, 15144.74
535.6330, 15164.74
536.1151, 15189.29
536.5972, 15216.13
537.0793, 15238.31
537.5615, 15253.56
538.0436, 15273.35
538.5257, 15304.18
539.0078, 15338.64
539.4899, 15368.09
539.9720, 15393.08
540.4542, 15425.37
540.9363, 15481.55
541.4184, 15543.05
541.9005, 15582.76
542.3826, 15600.33
542.8647, 15607.14
543.3469, 15603.98
543.8290, 15599.14
544.3111, 15617.03
544.7932, 15670.50
545.2753, 15712.50
545.7574, 15725.34
546.2396, 15732.09
546.7217, 15755.50
547.2038, 15793.37
547.6859, 15825.12
548.1680, 15834.80
548.6501, 15829.95
549.1323, 15844.90
549.6144, 15891.53
550.0965, 15938.00
550.5786, 15987.07
551.0607, 16030.22
551.5428, 16054.84
552.0250, 16064.70
552.5071, 16081.40
552.9892, 16126.88
553.4713, 16188.82
553.9534, 16231.50
554.4355, 16252.58
554.9177, 16264.83
555.3998, 16265.12
555.8819, 16265.13
556.3640, 16281.86
556.8461, 16317.68
557.3282, 16352.33
557.8104, 16376.06
558.2925, 16395.74
558.7746, 16417.19
559.2567, 16441.73
559.7388, 16473.42
560.2209, 16516.51
560.7031, 16566.05
561.1852, 16606.38
561.6673, 16631.25
562.1494, 16655.79
562.6315, 16684.01
563.1136, 16709.02
563.5958, 16719.77
564.0779, 16721.45
564.5600, 16732.25
565.0421, 16766.29
565.5242, 16816.73
566.0063, 16862.06
566.4885, 16902.84
566.9706, 16936.03
567.4527, 16951.22
567.9348, 16965.45
568.4169, 16996.10
568.8990, 17040.00
569.3812, 17072.20
569.8633, 17058.11
570.3454, 17035.78
570.8275, 17073.62
571.3096, 17166.72
571.7917, 17239.42
572.2739, 17258.87
572.7560, 17243.50
573.2381, 17218.37
573.7202, 17171.06
574.2023, 17162.43
574.6844, 17221.60
575.1666, 17300.88
575.6487, 17377.82
576.1308, 17447.14
576.6129, 17507.50
577.0950, 17559.11
577.5771, 17593.81
578.0593, 17585.18
578.5414, 17499.83
579.0235, 17462.43
579.5056, 17516.64
579.9877, 17585.48
580.4698, 17635.43
580.9520, 17673.05
581.4341, 17722.01
581.9162, 17800.04
582.3983, 17878.64
582.8804, 17915.04
583.3625, 17912.98
583.8447, 17907.32
584.3268, 17898.74
584.8089, 17905.57
585.2910, 17956.46
585.7731, 18046.41
586.2552, 18122.18
586.7374, 18178.48
587.2195, 18220.50
587.7016, 18245.93
588.1837, 18260.00
588.6658, 18266.05
589.1479, 18266.41
589.6301, 18276.25
590.1122, 18318.86
590.5943, 18400.63
591.0764, 18452.90
591.5585, 18445.66
592.0406, 18443.03
592.5228, 18461.99
593.0049, 18492.65
593.4870, 18521.49
593.9691, 18545.32
594.4512, 18574.02
594.9333, 18627.03
595.4155, 18694.82
595.8976, 18728.23
596.3797, 18715.01
596.8618, 18711.09
597.3439, 18757.22
597.8260, 18832.12
598.3082, 18882.63
598.7903, 18903.43
599.2724, 18913.73
599.7545, 18893.28
600.2366, 18881.79
600.7188, 18939.08
601.2009, 19056.52
601.6830, 19163.49
602.1651, 19212.68
602.6472, 19215.47
603.1293, 19211.45
603.6115, 19184.64
604.0936, 19181.19
604.5757, 19208.71
605.0578, 19253.39
605.5399, 19321.59
606.0220, 19400.78
606.5042, 19456.72
606.9863, 19459.17
607.4684, 19444.66
607.9505, 19479.98
608.4326, 19563.63
608.9147, 19631.70
609.3969, 19665.65
609.8790, 19682.54
610.3611, 19695.55
610.8432, 19705.49
611.3253, 19722.84
611.8074, 19746.16
612.2896, 19779.86
612.7717, 19838.97
613.2538, 19906.42
613.7359, 19950.02
614.2180, 19961.54
614.7001, 19963.88
615.1823, 19984.47
615.6644, 20024.32
616.1465, 20060.68
616.6286, 20093.77
617.1107, 20122.39
617.5928, 20134.16
618.0750, 20148.23
618.5571, 20192.54
619.0392, 20270.34
619.5213, 20339.46
620.0034, 20360.72
620.4855, 20352.37
620.9677, 20350.38
621.4498, 20356.02
621.9319, 20379.22
622.4140, 20428.08
622.8961, 20494.14
623.3782, 20563.62
623.8604, 20644.36
624.3425, 20704.02
624.8246, 20719.06
625.3067, 20729.17
625.7888, 20761.73
626.2709, 20811.56
626.7531, 20862.34
627.2352, 20905.86
627.7173, 20943.86
628.1994, 20977.07
628.6815, 21003.12
629.1636, 21038.19
629.6458, 21093.59
630.1279, 21143.97
630.6100, 21172.39
631.0921, 21188.96
631.5742, 21212.10
632.0563, 21248.61
632.5385, 21285.48
633.0206, 21308.24
633.5027, 21326.01
633.9848, 21361.86
634.4669, 21418.57
634.9490, 21469.47
635.4312, 21492.95
635.9133, 21496.59
636.3954, 21516.56
636.8775, 21562.23
637.3596, 21612.61
637.8417, 21669.29
638.3239, 21728.52
638.8060, 21801.02
639.2881, 21874.80
639.7702, 21912.97
640.2523, 21885.64
640.7344, 21830.93
641.2166, 21823.06
641.6987, 21863.69
642.1808, 21912.20
642.6629, 21962.09
643.1450, 22016.05
643.6271, 22085.79
644.1093, 22163.91
644.5914, 22219.24
645.0735, 22224.92
645.5556, 22232.66
646.0377, 22272.96
646.5198, 22327.49
647.0020, 22368.79
647.4841, 22392.39
647.9662, 22413.53
648.4483, 22446.50
648.9304, 22488.44
649.4125, 22516.68
649.8947, 22504.97
650.3768, 22529.58
650.8589, 22647.00
651.3410, 22768.61
651.8231, 22834.41
652.3052, 22845.27
652.7874, 22832.76
653.2695, 22785.83
653.7516, 22748.84
654.2337, 22794.52
654.7158, 22903.80
655.1979, 22987.19
655.6801, 23017.47
656.1622, 23024.77
656.6443, 23037.37
657.1264, 23054.42
657.6085, 23095.10
658.0906, 23188.18
658.5728, 23265.56
659.0549, 23297.25
659.5370, 23314.29
660.0191, 23357.94
660.5012, 23428.33
660.9833, 23481.62
661.4655, 23470.77
661.9476, 23421.98
662.4297, 23420.53
662.9118, 23472.06
663.3939, 23525.95
663.8760, 23563.60
664.3582, 23600.82
664.8403, 23663.52
665.3224, 23748.91
665.8045, 23814.65
666.2866, 23842.43
666.7687, 23861.12
667.2509, 23879.93
667.7330, 23902.48
668.2151, 23933.97
668.6972, 23975.63
669.1793, 24024.68
669.6614, 24080.92
670.1436, 24143.08
670.6257, 24192.09
671.1078, 24222.22
671.5899, 24251.28
672.0720, 24274.32
672.5541, 24305.49
673.0363, 24369.04
673.5184, 24460.09
674.0005, 24525.88
674.4826, 24520.97
674.9647, 24499.48
675.4468, 24516.67
675.9290, 24562.46
676.4111, 24603.84
676.8932, 24630.33
677.3753, 24656.56
677.8574, 24699.75
678.3395, 24760.52
678.8217, 24823.01
679.3038, 24907.76
679.7859, 24967.10
680.2680, 24971.57
680.7501, 24961.72
681.2322, 24973.12
681.7144, 25008.93
682.1965, 25051.69
682.6786, 25088.07
683.1607, 25125.68
683.6428, 25176.18
684.1249, 25239.28
684.6071, 25316.21
685.0892, 25413.59
685.5713, 25502.02
686.0534, 25544.98
686.5355, 25538.87
687.0176, 25543.00
687.4998, 25557.63
687.9819, 25580.60
688.4640, 25614.92
688.9461, 25654.91
689.4282, 25692.78
689.9103, 25729.32
690.3925, 25775.71
690.8746, 25845.64
691.3567, 25926.03
691.8388, 25988.85
692.3209, 26034.51
692.8030, 26049.13
693.2852, 26008.67
693.7673, 25975.10
694.2494, 26028.02
694.7315, 26160.01
695.2136, 26245.42
695.6957, 26249.54
696.1779, 26243.68
696.6600, 26230.26
697.1421, 26232.44
697.6242, 26289.96
698.1063, 26396.18
698.5884, 26493.84
699.0706, 26534.90
699.5527, 26543.83
700.0348, 26601.99
700.5169, 26723.61
700.9990, 26796.40
701.4811, 26765.13
701.9633, 26726.40
702.4454, 26770.84
702.9275, 26876.24
703.4096, 26973.60
703.8917, 27070.60
704.3738, 27134.99
704.8560, 27123.96
705.3381, 27090.27
705.8202, 27092.60
706.3023, 27138.47
706.7844, 27215.10
707.2665, 27317.75
707.7487, 27429.71
708.2308, 27498.82
708.7129, 27514.15
709.1950, 27538.26
709.6771, 27587.42
710.1592, 27634.69
710.6414, 27648.01
711.1235, 27649.19
711.6056, 27691.04
712.0877, 27807.62
712.5698, 27905.63
713.0519, 27915.15
713.5341, 27896.09
714.0162, 27921.34
714.4983, 27989.99
714.9804, 28063.53
715.4625, 28121.34
715.9446, 28164.08
716.4268, 28184.65
716.9089, 28167.04
717.3910, 28203.17
717.8731, 28341.70
718.3552, 28471.47
718.8373, 28545.52
719.3195, 28577.95
719.8016, 28576.03
720.2837, 28530.00
720.7658, 28514.31
721.2479, 28587.13
721.7300, 28691.92
722.2122, 28773.65
722.6943, 28831.85
723.1764, 28881.93
723.6585, 28930.62
724.1406, 28974.01
724.6227, 29004.61
725.1049, 29020.90
725.5870, 29039.85
726.0691, 29057.98
726.5512, 29084.41
727.0333, 29119.84
727.5154, 29166.09
727.9976, 29230.15
728.4797, 29311.62
728.9618, 29386.88
729.4439, 29438.64
729.9260, 29485.86
730.4081, 29541.43
730.8903, 29606.28
731.3724, 29685.45
731.8545, 29779.29
732.3366, 29873.10
732.8187, 29953.50
733.3008, 30019.89
733.7830, 30062.99
734.2651, 30065.40
734.7472, 30082.44
735.2293, 30134.51
735.7114, 30199.14
736.1935, 30273.79
736.6757, 30350.18
737.1578, 30396.19
737.6399, 30380.94
738.1220, 30360.13
738.6041, 30363.07
739.0862, 30387.82
739.5684, 30439.57
740.0505, 30513.86
740.5326, 30582.94
741.0147, 30624.39
741.4968, 30652.75
741.9789, 30721.22
742.4611, 30853.83
742.9432, 30933.35
743.4253, 30894.12
743.9074, 30868.89
744.3895, 30960.90
744.8716, 31110.73
745.3538, 31205.42
745.8359, 31212.99
746.3180, 31213.47
746.8001, 31228.35
747.2822, 31264.08
747.7643, 31344.00
748.2465, 31451.85
748.7286, 31535.03
749.2107, 31569.34
749.6928, 31590.94
750.1749, 31663.37
750.6570, 31791.42
751.1392, 31863.14
751.6213, 31841.65
752.1034, 31850.83
752.5855, 31976.59
753.0676, 32132.37
753.5497, 32206.12
754.0319, 32194.01
754.5140, 32189.83
754.9961, 32199.31
755.4782, 32239.94
755.9603, 32356.56
756.4424, 32497.05
756.9246, 32577.51
757.4067, 32584.88
757.8888, 32573.84
758.3709, 32592.46
758.8530, 32628.00
759.3351, 32626.83
759.8173, 32579.57
760.2994, 32576.53
760.7815, 32643.34
761.2636, 32748.08
761.7457, 32887.00
762.2278, 33044.71
762.7100, 33149.07
763.1921, 33164.94
763.6742, 33179.62
764.1563, 33210.55
764.6384, 33250.13
765.1205, 33302.60
765.6027, 33357.93
766.0848, 33387.72
766.5669, 33377.21
767.0490, 33365.09
767.5311, 33406.94
768.0132, 33493.72
768.4954, 33579.64
768.9775, 33663.84
769.4596, 33729.05
769.9417, 33760.89
770.4238, 33777.76
770.9059, 33808.52
771.3881, 33849.62
771.8702, 33921.77
772.3523, 34059.68
772.8344, 34186.34
773.3165, 34274.96
773.7986, 34337.99
774.2808, 34388.20
774.7629, 34428.78
775.2450, 34460.08
775.7271, 34465.71
776.2092, 34478.24
776.6913, 34559.09
777.1735, 34691.65
777.6556, 34811.69
778.1377, 34905.58
778.6198, 34967.20
779.1019, 34983.87
779.5840, 34968.90
780.0662, 34991.54
780.5483, 35072.18
781.0304, 35151.98
781.5125, 35231.82
781.9946, 35305.20
782.4767, 35366.59
782.9589, 35420.15
783.4410, 35473.69
783.9231, 35529.98
784.4052, 35583.37
784.8873, 35623.67
785.3694, 35663.93
785.8516, 35721.39
786.3337, 35793.53
786.8158, 35870.52
787.2979, 35948.32
787.7800, 36021.21
788.2621, 36081.52
788.7443, 36129.33
789.2264, 36174.53
789.7085, 36215.91
790.1906, 36257.69
790.6727, 36293.39
791.1548, 36338.13
791.6370, 36418.00
792.1191, 36525.61
792.6012, 36605.68
793.0833, 36616.87
793.5654, 36640.89
794.0475, 36716.27
794.5297, 36813.49
795.0118, 36912.48
795.4939, 37004.63
795.9760, 37075.41
796.4581, 37114.66
796.9402, 37143.14
797.4224, 37195.33
797.9045, 37266.45
798.3866, 37318.07
798.8687, 37342.89
799.3508, 37386.93
799.8329, 37483.00
800.3151, 37597.13
800.7972, 37662.48
801.2793, 37661.16
801.7614, 37682.51
802.2435, 37738.19
802.7256, 37800.22
803.2078, 37864.63
803.6899, 37929.09
804.1720, 37987.10
804.6541, 38041.37
805.1362, 38111.83
805.6183, 38226.72
806.1005, 38341.96
806.5826, 38395.57
807.0647, 38417.57
807.5468, 38484.50
808.0289, 38604.75
808.5110, 38718.17
808.9932, 38781.96
809.4753, 38811.43
809.9574, 38847.25
810.4395, 38892.02
810.9216, 38929.86
811.4037, 38945.45
811.8859, 38977.88
812.3680, 39064.27
812.8501, 39171.11
813.3322, 39244.10
813.8143, 39272.91
814.2964, 39326.64
814.7786, 39439.30
815.2607, 39562.05
815.7428, 39670.80
816.2249, 39769.41
816.7070, 39877.32
817.1891, 39988.86
817.6713, 40054.63
818.1534, 40017.63
818.6355, 39940.27
819.1176, 39941.38
819.5997, 40014.73
820.0818, 40123.67
820.5640, 40267.25
821.0461, 40395.48
821.5282, 40472.60
822.0103, 40508.83
822.4924, 40532.07
822.9745, 40518.97
823.4567, 40545.53
823.9388, 40626.91
824.4209, 40730.63
824.9030, 40887.42
825.3851, 41039.27
825.8672, 41089.98
826.3494, 41030.06
826.8315, 41009.52
827.3136, 41154.50
827.7957, 41314.93
828.2778, 41334.13
828.7599, 41287.20
829.2421, 41327.29
829.7242, 41472.97
830.2063, 41620.60
830.6884, 41692.62
831.1705, 41710.22
831.6526, 41709.37
832.1348, 41687.18
832.6169, 41736.13
833.0990, 41889.85
833.5811, 42037.46
834.0632, 42103.99
834.5453, 42128.41
835.0275, 42199.95
835.5096, 42338.47
835.9917, 42463.47
836.4738, 42584.12
836.9559, 42679.82
837.4380, 42718.73
837.9202, 42744.06
838.4023, 42815.00
838.8844, 42930.06
839.3665, 43023.07
839.8486, 43042.38
840.3307, 43045.75
840.8129, 43098.89
841.2950, 43177.31
841.7771, 43230.59
842.2592, 43253.53
842.7413, 43263.71
843.2234, 43268.75
843.7056, 43288.64
844.1877, 43374.38
844.6698, 43532.64
845.1519, 43665.29
845.6340, 43761.82
846.1161, 43853.58
846.5983, 43962.91
847.0804, 44065.47
847.5625, 44121.25
848.0446, 44126.94
848.5267, 44142.42
849.0089, 44155.88
849.4910, 44197.18
849.9731, 44287.26
850.4552, 44399.18
850.9373, 44524.41
851.4194, 44649.61
851.9016, 44744.48
852.3837, 44792.09
852.8658, 44822.27
853.3479, 44854.88
853.8300, 44892.68
854.3121, 44935.44
854.7943, 44986.56
855.2764, 45066.84
855.7585, 45185.18
856.2406, 45307.07
856.7227, 45383.64
857.2048, 45419.25
857.6870, 45482.43
858.1691, 45582.59
858.6512, 45669.96
859.1333, 45725.93
859.6154, 45774.87
860.0975, 45835.87
860.5797, 45908.09
861.0618, 45986.97
861.5439, 46080.03
862.0260, 46167.08
862.5081, 46243.11
862.9902, 46316.42
863.4724, 46393.70
863.9545, 46471.31
864.4366, 46539.75
864.9187, 46597.81
865.4008, 46664.66
865.8829, 46778.81
866.3651, 46888.40
866.8472, 46908.88
867.3293, 46882.04
867.8114, 46914.93
868.2935, 47026.27
868.7756, 47156.52
869.2578, 47260.18
869.7399, 47351.18
870.2220, 47474.33
870.7041, 47632.82
871.1862, 47737.08
871.6683, 47766.19
872.1505, 47788.22
872.6326, 47836.50
873.1147, 47898.33
873.5968, 47951.49
874.0789, 47991.35
874.5610, 48046.63
875.0432, 48120.59
875.5253, 48203.93
876.0074, 48303.07
876.4895, 48403.79
876.9716, 48500.89
877.4537, 48589.95
877.9359, 48658.10
878.4180, 48688.20
878.9001, 48729.69
879.3822, 48822.36
879.8643, 48936.20
880.3464, 49051.33
880.8286, 49156.52
881.3107, 49222.86
881.7928, 49243.29
882.2749, 49268.64
882.7570, 49369.25
883.2391, 49391.78
883.7213, 49561.52
884.2034, 49530.57
884.6855, 49565.48
885.1676, 49709.34
885.6497, 49857.40
886.1318, 49925.45
886.6140, 49938.18
887.0961, 49979.77
887.5782, 50061.05
888.0603, 50144.27
888.5424, 50244.15
889.0245, 50324.54
889.5067, 50353.09
889.9888, 50365.13
890.4709, 50394.33
890.9530, 50442.53
891.4351, 50521.82
891.9172, 50653.52
892.3994, 50793.46
892.8815, 50942.31
893.3636, 51077.03
893.8457, 51178.77
894.3278, 51246.11
894.8099, 51272.93
895.2921, 51250.43
895.7742, 51242.39
896.2563, 51328.63
896.7384, 51459.55
897.2205, 51547.21
897.7026, 51598.64
898.1848, 51651.15
898.6669, 51717.98
899.1490, 51808.07
899.6311, 51936.31
900.1132, 52087.72
900.5953, 52201.24
901.0775, 52273.17
901.5596, 52349.05
902.0417, 52439.40
902.5238, 52516.23
903.0059, 52553.95
903.4880, 52575.81
903.9702, 52629.96
904.4523, 52721.59
904.9344, 52822.79
905.4165, 52948.39
905.8986, 53063.50
906.3807, 53152.62
906.8629, 53235.09
907.3450, 53330.63
907.8271, 53435.26
908.3092, 53525.05
908.7913, 53578.28
909.2734, 53650.21
909.7556, 53791.35
910.2377, 53940.36
910.7198, 54043.13
911.2019, 54110.97
911.6840, 54164.22
912.1661, 54213.25
912.6483, 54288.02
913.1304, 54444.09
913.6125, 54614.12
914.0946, 54667.05
914.5767, 54640.44
915.0588, 54652.99
915.5410, 54723.86
916.0231, 54816.75
916.5052, 54910.39
916.9873, 55005.79
917.4694, 55103.61
917.9515, 55203.45
918.4337, 55328.18
918.9158, 55490.18
919.3979, 55618.00
919.8800, 55674.79
920.3621, 55713.36
920.8442, 55797.38
921.3264, 55824.24
921.8085, 55978.11
922.2906, 55906.56
922.7727, 55891.41
923.2548, 55949.77
923.7369, 56054.11
924.2191, 56231.96
924.7012, 56430.00
925.1833, 56564.71
925.6654, 56624.80
926.1475, 56679.27
926.6296, 56742.95
927.1118, 56812.17
927.5939, 56879.90
928.0760, 56956.05
928.5581, 57062.15
929.0402, 57187.32
929.5223, 57285.52
930.0045, 57329.57
930.4866, 57392.43
930.9687, 57585.14
931.4508, 57812.63
931.9329, 57912.36
932.4150, 57913.43
932.8972, 57915.70
933.3793, 57951.96
933.8614, 58036.10
934.3435, 58191.07
934.8256, 58377.21
935.3077, 58491.56
935.7899, 58538.99
936.2720, 58589.24
936.7541, 58648.79
937.2362, 58717.28
937.7183, 58792.61
938.2004, 58885.18
938.6826, 59021.18
939.1647, 59203.48
939.6468, 59295.91
940.1289, 59240.38
940.6110, 59237.65
941.0931, 59350.69
941.5753, 59492.46
942.0574, 59614.97
942.5395, 59718.25
943.0216, 59803.96
943.5037, 59867.64
943.9858, 59927.39
944.4680, 59963.95
944.9501, 60022.44
945.4322, 60133.82
945.9143, 60265.87
946.3964, 60390.68
946.8785, 60504.98
947.3607, 60608.68
947.8428, 60690.43
948.3249, 60787.86
948.8070, 60944.14
949.2891, 61104.73
949.7712, 61202.11
950.2534, 61267.19
950.7355, 61374.03
951.2176, 61535.97
951.6997, 61686.32
952.1818, 61757.88
952.6639, 61907.48
953.1461, 61944.45
953.6282, 62118.85
954.1103, 62238.38
954.5924, 62297.91
955.0745, 62341.75
955.5566, 62391.82
956.0388, 62455.57
956.5209, 62552.98
957.0030, 62673.08
957.4851, 62740.23
957.9672, 62755.87
958.4493, 62851.28
958.9315, 63067.46
959.4136, 63283.10
959.8957, 63413.41
960.3778, 63473.14
960.8599, 63487.65
961.3420, 63434.62
961.8242, 63454.50
962.3063, 63574.78
962.7884, 63699.65
963.2705, 63795.97
963.7526, 63887.32
964.2347, 64002.54
964.7169, 64135.60
965.1990, 64244.20
965.6811, 64286.53
966.1632, 64368.69
966.6453, 64547.71
967.1274, 64701.30
967.6096, 64737.49
968.0917, 64744.10
968.5738, 64848.10
969.0559, 65051.55
969.5380, 65212.61
970.0201, 65267.02
970.5023, 65315.66
970.9844, 65393.25
971.4665, 65480.30
971.9486, 65552.45
972.4307, 65624.91
972.9128, 65736.38
973.3950, 65896.03
973.8771, 66052.91
974.3592, 66194.85
974.8413, 66304.90
975.3234, 66339.13
975.8055, 66348.59
976.2877, 66410.25
976.7698, 66523.59
977.2519, 66649.13
977.7340, 66769.17
978.2161, 66876.70
978.6982, 66941.41
979.1804, 66999.61
979.6625, 67150.06
980.1446, 67354.36
980.6267, 67459.13
981.1088, 67444.80
981.5909, 67454.98
982.0731, 67590.38
982.5552, 67793.41
983.0373, 67980.93
983.5194, 68147.02
984.0015, 68229.89
984.4836, 68229.02
984.9658, 68278.32
985.4479, 68424.25
985.9300, 68590.16
986.4121, 68701.05
986.8942, 68782.41
987.3763, 68937.57
987.8585, 69188.45
988.3406, 69364.23
988.8227, 69438.31
989.3048, 69499.25
989.7869, 69580.89
990.2690, 69666.74
990.7512, 69735.27
991.2333, 69788.39
991.7154, 69847.72
992.1975, 69888.52
992.6796, 69990.79
993.1617, 70211.50
993.6439, 70422.15
994.1260, 70557.89
994.6081, 70652.70
995.0902, 70754.48
995.5723, 70863.88
996.0544, 70965.50
996.5366, 71051.23
997.0187, 71141.18
997.5008, 71251.33
997.9829, 71354.04
998.4650, 71397.49
998.9471, 71436.89
999.4293, 71591.13
999.9114, 71884.18
1000.393, 72096.71
1000.876, 72093.62
1001.358, 72092.35
1001.840, 72189.43
1002.322, 72321.11
1002.804, 72437.40
1003.286, 72538.13
1003.768, 72636.36
1004.250, 72734.74
1004.733, 72842.20
1005.215, 72995.70
1005.697, 73125.30
1006.179, 73128.45
1006.661, 73107.85
1007.143, 73199.49
1007.625, 73396.90
1008.107, 73633.18
1008.589, 73884.95
1009.072, 74100.55
1009.554, 74205.67
1010.036, 74274.35
1010.518, 74388.66
1011.000, 74537.11
1011.482, 74714.95
1011.964, 74903.01
1012.446, 75035.92
1012.929, 75076.52
1013.411, 75073.59
1013.893, 75056.72
1014.375, 75053.38
1014.857, 75142.39
1015.339, 75295.58
1015.821, 75397.02
1016.303, 75431.17
1016.785, 75506.09
1017.268, 75700.52
1017.750, 75944.71
1018.232, 76132.98
1018.714, 76274.03
1019.196, 76406.22
1019.678, 76528.63
1020.160, 76614.52
1020.642, 76657.49
1021.125, 76717.64
1021.607, 76849.13
1022.089, 76906.16
1022.571, 77090.46
1023.053, 77097.62
1023.535, 77160.70
1024.017, 77284.12
1024.499, 77490.75
1024.981, 77805.93
1025.464, 78071.30
1025.946, 78127.55
1026.428, 78050.46
1026.910, 78082.46
1027.392, 78236.78
1027.874, 78368.41
1028.356, 78461.27
1028.838, 78594.49
1029.321, 78814.51
1029.803, 79024.53
1030.285, 79119.37
1030.767, 79133.52
1031.249, 79227.91
1031.731, 79430.38
1032.213, 79602.92
1032.695, 79725.19
1033.177, 79863.40
1033.660, 80059.33
1034.142, 80250.16
1034.624, 80367.38
1035.106, 80422.01
1035.588, 80472.28
1036.070, 80481.73
1036.552, 80580.84
1037.034, 80840.59
1037.516, 81072.53
1037.999, 81199.01
1038.481, 81272.14
1038.963, 81332.93
1039.445, 81386.13
1039.927, 81469.06
1040.409, 81634.00
1040.891, 81736.16
1041.373, 81697.15
1041.855, 81694.93
1042.338, 81826.27
1042.820, 82002.45
1043.302, 82138.27
1043.784, 82237.35
1044.266, 82332.62
1044.748, 82406.83
1045.230, 82508.18
1045.712, 82613.35
1046.195, 82776.91
1046.677, 83133.96
1047.159, 83480.76
1047.641, 83539.37
1048.123, 83357.98
1048.605, 83318.57
1049.087, 83558.43
1049.569, 83764.96
1050.052, 83845.26
1050.534, 83939.06
1051.016, 84137.88
1051.498, 84363.08
1051.980, 84532.98
1052.462, 84644.56
1052.944, 84720.43
1053.426, 84714.20
1053.908, 84775.30
1054.391, 85027.85
1054.873, 85250.27
1055.355, 85281.08
1055.837, 85256.48
1056.319, 85344.88
1056.801, 85535.59
1057.283, 85698.20
1057.765, 85791.20
1058.248, 85880.20
1058.730, 85961.59
1059.212, 86071.31
1059.694, 86265.20
1060.176, 86473.80
1060.658, 86614.17
1061.140, 86692.68
1061.622, 86770.30
1062.104, 86855.66
1062.587, 86962.75
1063.069, 87110.77
1063.551, 87265.02
1064.033, 87395.40
1064.515, 87527.87
1064.997, 87714.26
1065.479, 87932.77
1065.961, 88090.14
1066.443, 88138.41
1066.926, 88198.45
1067.408, 88322.90
1067.890, 88468.59
1068.372, 88625.20
1068.854, 88778.05
1069.336, 88909.78
1069.818, 89024.00
1070.300, 89133.27
1070.782, 89234.23
1071.265, 89368.18
1071.747, 89620.41
1072.229, 89834.52
1072.711, 89847.45
1073.193, 89825.50
1073.675, 89974.84
1074.157, 90250.27
1074.639, 90468.80
1075.122, 90572.38
1075.604, 90677.53
1076.086, 90890.41
1076.568, 91058.23
1077.050, 91040.83
1077.532, 90973.96
1078.014, 90963.31
1078.496, 91033.19
1078.979, 91223.30
1079.461, 91551.66
1079.943, 91838.94
1080.425, 92004.01
1080.907, 92102.33
1081.389, 92093.20
1081.871, 92091.30
1082.353, 92239.19
1082.835, 92470.66
1083.318, 92611.61
1083.800, 92624.64
1084.282, 92691.10
1084.764, 92976.65
1085.246, 93222.83
1085.728, 93248.65
1086.210, 93228.31
1086.692, 93289.52
1087.175, 93427.64
1087.657, 93633.89
1088.139, 93896.94
1088.621, 94113.80
1089.103, 94213.48
1089.585, 94300.39
1090.067, 94416.05
1090.549, 94538.71
1091.031, 94623.46
1091.514, 94717.44
1091.996, 94923.82
1092.478, 95232.36
1092.960, 95461.99
1093.442, 95499.41
1093.924, 95548.04
1094.406, 95722.28
1094.888, 95891.88
1095.370, 95943.31
1095.853, 95959.25
1096.335, 96050.35
1096.817, 96216.73
1097.299, 96393.55
1097.781, 96590.74
1098.263, 96730.78
1098.745, 96721.55
1099.227, 96730.73
1099.709, 96874.75
1100.192, 97061.33
1100.674, 97174.06
1101.156, 97238.05
1101.638, 97371.45
1102.120, 97621.72
1102.602, 97842.66
1103.084, 97974.43
1103.566, 98100.09
1104.049, 98268.06
1104.531, 98427.96
1105.013, 98513.82
1105.495, 98561.86
1105.977, 98659.61
1106.459, 98819.12
1106.941, 99016.14
1107.423, 99327.14
1107.906, 99563.43
1108.388, 99601.95
1108.870, 99625.22
1109.352, 99789.61
1109.834, 100005.1
1110.316, 100085.9
1110.798, 100014.2
1111.280, 100033.9
1111.762, 100248.7
1112.245, 100430.5
1112.727, 100530.8
1113.209, 100618.4
1113.691, 100700.0
1114.173, 100804.2
1114.655, 100992.9
1115.137, 101254.4
1115.619, 101439.4
1116.102, 101485.3
1116.584, 101563.7
1117.066, 101712.9
1117.548, 101836.7
1118.030, 101856.9
1118.512, 101887.7
1118.994, 102058.4
1119.476, 102328.0
1119.958, 102529.9
1120.441, 102640.6
1120.923, 102753.7
1121.405, 102835.2
1121.887, 103004.2
1122.369, 103353.0
1122.851, 103678.4
1123.333, 103805.5
1123.815, 104047.9
1124.297, 104218.5
1124.780, 104297.3
1125.262, 104478.1
1125.744, 104493.4
1126.226, 104514.0
1126.708, 104547.1
1127.190, 104672.9
1127.672, 104964.1
1128.154, 105299.0
1128.636, 105496.1
1129.119, 105572.3
1129.601, 105663.3
1130.083, 105767.5
1130.565, 105906.3
1131.047, 106084.2
1131.529, 106262.0
1132.011, 106419.1
1132.493, 106603.8
1132.976, 106877.1
1133.458, 107189.9
1133.940, 107398.5
1134.422, 107510.1
1134.904, 107606.4
1135.386, 107691.0
1135.868, 107744.0
1136.350, 107761.9
1136.833, 107820.7
1137.315, 107975.9
1137.797, 108195.8
1138.279, 108459.5
1138.761, 108736.1
1139.243, 108884.7
1139.725, 108943.7
1140.207, 109092.0
1140.689, 109343.7
1141.172, 109575.7
1141.654, 109730.1
1142.136, 109839.8
1142.618, 109916.9
1143.100, 109995.7
1143.582, 110136.3
1144.064, 110321.1
1144.546, 110545.4
1145.029, 110776.2
1145.511, 110889.7
1145.993, 110875.8
1146.475, 110951.9
1146.957, 111305.5
1147.439, 111703.3
1147.921, 111921.1
1148.403, 112048.8
1148.885, 112171.4
1149.368, 112293.9
1149.850, 112403.6
1150.332, 112506.1
1150.814, 112630.1
1151.296, 112786.8
1151.778, 112966.3
1152.260, 113180.6
1152.742, 113394.1
1153.224, 113599.8
1153.707, 113781.0
1154.189, 113917.0
1154.671, 114017.3
1155.153, 114083.2
1155.635, 114114.3
1156.117, 114232.4
1156.599, 114598.5
1157.081, 114882.4
1157.563, 114874.6
1158.046, 114870.7
1158.528, 115096.8
1159.010, 115408.3
1159.492, 115601.8
1159.974, 115681.0
1160.456, 115791.6
1160.938, 115983.5
1161.420, 116129.6
1161.903, 116135.0
1162.385, 116221.9
1162.867, 116515.9
1163.349, 116835.3
1163.831, 117031.8
1164.313, 117154.7
1164.795, 117319.5
1165.277, 117529.4
1165.760, 117768.2
1166.242, 118074.4
1166.724, 118276.3
1167.206, 118313.7
1167.688, 118345.1
1168.170, 118435.9
1168.652, 118612.1
1169.134, 118935.0
1169.616, 119051.7
1170.099, 119236.0
1170.581, 119466.3
1171.063, 119557.1
1171.545, 119821.3
1172.027, 120083.3
1172.509, 120291.3
1172.991, 120459.0
1173.473, 120591.8
1173.956, 120724.0
1174.438, 120935.3
1174.920, 121189.3
1175.402, 121360.0
1175.884, 121465.9
1176.366, 121571.4
1176.848, 121688.9
1177.330, 121807.3
1177.813, 121923.9
1178.295, 122079.6
1178.777, 122341.7
1179.259, 122619.6
1179.741, 122807.1
1180.223, 122933.7
1180.705, 123001.5
1181.187, 123056.7
1181.669, 123200.3
1182.151, 123429.9
1182.634, 123618.9
1183.116, 123680.1
1183.598, 123802.8
1184.080, 124200.5
1184.562, 124576.6
1185.044, 124696.8
1185.526, 124722.7
1186.008, 124786.4
1186.490, 124912.2
1186.973, 125137.7
1187.455, 125477.1
1187.937, 125740.1
1188.419, 125799.2
1188.901, 125914.7
1189.383, 126227.3
1189.865, 126503.3
1190.347, 126562.4
1190.830, 126573.6
1191.312, 126735.3
1191.794, 126843.0
1192.276, 126998.3
1192.758, 127229.9
1193.240, 127384.5
1193.722, 127722.1
1194.204, 127963.8
1194.687, 128007.0
1195.169, 128073.9
1195.651, 128319.8
1196.133, 128631.7
1196.615, 128834.5
1197.097, 128939.5
1197.579, 128994.4
1198.061, 129006.0
1198.543, 129114.2
1199.026, 129324.7
1199.508, 129503.2
1199.990, 129606.9
1200.472, 129748.0
1200.954, 130022.7
1201.436, 130338.8
1201.918, 130549.3
1202.400, 130706.2
1202.883, 130952.1
1203.365, 131035.7
1203.847, 131289.2
1204.329, 131204.9
1204.811, 131151.4
1205.293, 131203.2
1205.775, 131391.1
1206.257, 131864.0
1206.740, 132303.6
1207.222, 132452.1
1207.704, 132490.5
1208.186, 132495.5
1208.668, 132554.4
1209.150, 132829.6
1209.632, 133273.3
1210.114, 133601.2
1210.596, 133727.4
1211.078, 133809.8
1211.561, 133793.1
1212.043, 133856.7
1212.525, 134082.2
1213.007, 134376.5
1213.489, 134743.0
1213.971, 135089.8
1214.453, 135240.1
1214.935, 135210.6
1215.417, 135339.9
1215.900, 135688.5
1216.382, 135968.1
1216.864, 136167.8
1217.346, 136250.2
1217.828, 136177.0
1218.310, 136129.0
1218.792, 136249.4
1219.274, 136462.8
1219.757, 136629.1
1220.239, 136766.9
1220.721, 136988.8
1221.203, 137147.0
1221.685, 137300.5
1222.167, 137515.9
1222.649, 137622.9
1223.131, 137809.6
1223.614, 138024.2
1224.096, 138230.1
1224.578, 138437.7
1225.060, 138694.2
1225.542, 138925.9
1226.024, 138976.2
1226.506, 138979.3
1226.988, 139165.5
1227.470, 139499.9
1227.953, 139808.8
1228.435, 140042.9
1228.917, 140224.2
1229.399, 140286.8
1229.881, 140401.8
1230.363, 140661.6
1230.845, 140948.9
1231.327, 141245.8
1231.810, 141495.0
1232.292, 141586.3
1232.774, 141574.6
1233.256, 141684.2
1233.738, 141959.3
1234.220, 142157.0
1234.702, 142234.2
1235.184, 142379.3
1235.667, 142647.6
1236.149, 142914.0
1236.631, 143125.8
1237.113, 143237.4
1237.595, 143158.1
1238.077, 143001.8
1238.559, 143138.0
1239.041, 143509.1
1239.523, 143849.8
1240.005, 144139.0
1240.488, 144322.3
1240.970, 144406.6
1241.452, 144462.2
1241.934, 144523.4
1242.416, 144704.7
1242.898, 145281.7
1243.380, 145833.1
1243.862, 145839.4
1244.344, 145672.1
1244.827, 145703.4
1245.309, 145900.3
1245.791, 146166.8
1246.273, 146477.8
1246.755, 146831.8
1247.237, 147286.7
1247.719, 147580.6
1248.201, 147483.3
1248.684, 147460.5
1249.166, 147756.5
1249.648, 148034.7
1250.130, 148024.9
1250.612, 147974.2
1251.094, 148237.2
1251.576, 148758.4
1252.058, 149193.3
1252.541, 149558.8
1253.023, 149673.1
1253.505, 149502.9
1253.987, 149424.9
1254.469, 149525.4
1254.951, 149777.1
1255.433, 150171.6
1255.915, 150574.4
1256.397, 150807.3
1256.880, 150958.9
1257.362, 151188.8
1257.844, 151472.0
1258.326, 151788.5
1258.808, 152104.6
1259.290, 152350.4
1259.772, 152525.4
1260.254, 152690.4
1260.737, 152865.0
1261.219, 153067.7
1261.701, 153347.0
1262.183, 153605.0
1262.665, 153762.1
1263.147, 153916.2
1263.629, 154137.1
1264.111, 154400.0
1264.594, 154679.1
1265.076, 154965.4
1265.558, 155220.2
1266.040, 155436.1
1266.522, 155641.6
1267.004, 155831.2
1267.486, 156019.1
1267.968, 156193.6
1268.450, 156454.6
1268.932, 156867.8
1269.415, 157294.6
1269.897, 157585.4
1270.379, 157769.7
1270.861, 157883.0
1271.343, 157962.9
1271.825, 158136.7
1272.307, 158375.7
1272.789, 158589.3
1273.271, 158758.4
1273.754, 158848.2
1274.236, 158853.3
1274.718, 158991.5
1275.200, 159552.7
1275.682, 160070.5
1276.164, 160150.5
1276.646, 160218.4
1277.128, 160676.2
1277.611, 161218.2
1278.093, 161454.5
1278.575, 161462.1
1279.057, 161548.0
1279.539, 161738.8
1280.021, 161943.1
1280.503, 162121.6
1280.985, 162337.6
1281.468, 162658.6
1281.950, 162977.4
1282.432, 163251.3
1282.914, 163493.3
1283.396, 163711.5
1283.878, 163939.4
1284.360, 164252.5
1284.842, 164545.0
1285.324, 164545.6
##END=



