##NAMES=Enstatite
##RRUFFID=R070097
##IDEAL CHEMISTRY=MgSiO_3_
##LOCALITY=Concord, Pennsylvania, USA
##OWNER=RRUFF
##SOURCE=Michael Scott
##DESCRIPTION=Pale brown bladed crystals frozen in matrix
##STATUS=The identification of this mineral has been confirmed by X-ray diffraction and chemical analysis
##URL=rruff.info/R070097
##MEASURED CHEMISTRY=(Mg_0.93_Fe_0.07_)_Î£=1_Si_1.00_O_3_
171.8774, 0.0000000E+00
172.3596, 35.79297
172.8417, 78.74805
173.3238, 130.1309
173.8059, 199.0215
174.2880, 192.9297
174.7701, 108.8633
175.2523, 28.50195
175.7344, 11.12695
176.2165, 12.27930
176.6986, 19.69727
177.1807, 122.8398
177.6628, 245.5742
178.1450, 302.0273
178.6271, 277.5000
179.1092, 223.9902
179.5913, 193.6348
180.0734, 183.8379
180.5555, 183.0020
181.0376, 185.3203
181.5198, 191.2852
182.0019, 205.4863
182.4840, 230.4082
182.9661, 258.9766
183.4482, 279.6777
183.9303, 293.2695
184.4125, 303.2734
184.8946, 307.0469
185.3767, 308.1250
185.8588, 323.2988
186.3409, 361.7246
186.8230, 410.5547
187.3052, 441.6484
187.7873, 454.5781
188.2694, 456.1328
188.7515, 442.0840
189.2336, 415.9629
189.7157, 406.8223
190.1979, 425.4766
190.6800, 466.0195
191.1621, 509.4062
191.6442, 556.1895
192.1263, 601.1953
192.6084, 641.2754
193.0906, 676.3008
193.5727, 697.1406
194.0548, 707.5273
194.5369, 703.7754
195.0190, 645.1426
195.5011, 516.4004
195.9832, 376.8340
196.4654, 316.9043
196.9475, 343.3477
197.4296, 374.7949
197.9117, 373.9902
198.3938, 340.9434
198.8759, 321.8887
199.3581, 318.6602
199.8402, 326.6875
200.3223, 345.3555
200.8044, 380.2031
201.2865, 397.0176
201.7686, 367.2988
202.2508, 284.3027
202.7329, 229.9004
203.2150, 211.8086
203.6971, 220.4492
204.1792, 237.3477
204.6613, 266.3965
205.1435, 290.6816
205.6256, 298.9883
206.1077, 288.4023
206.5898, 276.0234
207.0719, 260.6914
207.5540, 245.3281
208.0362, 242.5625
208.5183, 256.8809
209.0004, 273.3496
209.4825, 278.7598
209.9646, 266.3613
210.4467, 268.7383
210.9289, 296.3125
211.4110, 343.5586
211.8931, 375.0430
212.3752, 391.5293
212.8573, 389.8633
213.3394, 357.6602
213.8215, 272.9492
214.3037, 224.4844
214.7858, 240.5156
215.2679, 316.7344
215.7500, 358.9277
216.2321, 354.6270
216.7142, 332.3398
217.1964, 320.4551
217.6785, 323.4727
218.1606, 325.0352
218.6427, 317.6094
219.1248, 299.5977
219.6069, 307.5762
220.0891, 363.2129
220.5712, 422.6934
221.0533, 427.5176
221.5354, 345.6816
222.0175, 275.6230
222.4996, 247.4707
222.9818, 268.1387
223.4639, 283.8320
223.9460, 299.8730
224.4281, 307.0137
224.9102, 286.8711
225.3923, 214.6680
225.8745, 160.6738
226.3566, 151.8691
226.8387, 202.1758
227.3208, 244.1777
227.8029, 278.9023
228.2850, 304.8555
228.7672, 317.9121
229.2493, 317.1289
229.7314, 303.8809
230.2135, 276.3672
230.6956, 221.2949
231.1777, 191.1875
231.6599, 196.8594
232.1420, 223.3281
232.6241, 235.0137
233.1062, 219.9961
233.5883, 206.6484
234.0704, 213.0215
234.5526, 262.2656
235.0347, 276.2871
235.5168, 233.2930
235.9989, 159.5820
236.4810, 130.7617
236.9631, 172.4961
237.4453, 223.5898
237.9274, 255.0605
238.4095, 256.8398
238.8916, 259.9238
239.3737, 267.1055
239.8558, 276.1992
240.3380, 279.0605
240.8201, 270.3145
241.3022, 262.4980
241.7843, 264.3105
242.2664, 288.4297
242.7485, 294.5234
243.2307, 272.0762
243.7128, 229.3301
244.1949, 203.8184
244.6770, 204.7891
245.1591, 211.0332
245.6412, 209.3281
246.1233, 190.8691
246.6055, 185.2832
247.0876, 200.7188
247.5697, 229.3301
248.0518, 235.6445
248.5339, 206.8887
249.0160, 174.6602
249.4982, 161.0605
249.9803, 177.2969
250.4624, 188.0195
250.9445, 188.8789
251.4266, 180.7852
251.9087, 169.8652
252.3909, 153.4297
252.8730, 137.7734
253.3551, 128.1016
253.8372, 128.2793
254.3193, 125.0547
254.8014, 112.7227
255.2836, 93.83789
255.7657, 91.89453
256.2478, 111.5059
256.7299, 138.0039
257.2120, 162.7344
257.6941, 187.7383
258.1762, 206.0547
258.6584, 216.3164
259.1405, 218.8164
259.6226, 219.2402
260.1047, 220.4844
260.5868, 215.6797
261.0689, 195.4648
261.5511, 149.0547
262.0332, 118.4941
262.5153, 117.0703
262.9974, 140.7969
263.4795, 150.8633
263.9616, 139.8555
264.4438, 125.7188
264.9259, 127.9062
265.4080, 157.2012
265.8901, 164.4785
266.3722, 130.0273
266.8543, 60.31641
267.3365, 26.25781
267.8186, 35.13477
268.3007, 62.97852
268.7828, 91.08594
269.2649, 121.6055
269.7470, 146.7480
270.2292, 164.6699
270.7113, 176.1211
271.1934, 184.8984
271.6755, 193.9238
272.1576, 193.9883
272.6397, 169.5449
273.1219, 112.7949
273.6040, 75.61328
274.0861, 76.11914
274.5682, 107.5332
275.0503, 113.7031
275.5324, 88.51367
276.0146, 56.44727
276.4967, 37.47070
276.9788, 31.51953
277.4609, 41.48633
277.9430, 75.19727
278.4251, 125.8164
278.9073, 155.9199
279.3894, 163.5215
279.8715, 157.1836
280.3536, 133.1777
280.8357, 89.85742
281.3178, 70.31055
281.8000, 90.45117
282.2821, 140.5371
282.7642, 185.5566
283.2463, 226.0508
283.7284, 255.0742
284.2105, 261.4199
284.6927, 246.0371
285.1748, 231.7852
285.6569, 229.0156
286.1390, 229.2695
286.6211, 193.8496
287.1032, 117.2637
287.5853, 52.29492
288.0674, 57.08203
288.5496, 122.9746
289.0317, 184.1602
289.5138, 231.2539
289.9959, 258.4062
290.4780, 239.5664
290.9601, 173.0137
291.4423, 102.1055
291.9244, 57.47461
292.4065, 37.92578
292.8886, 43.09180
293.3707, 87.02930
293.8528, 142.8887
294.3350, 157.3711
294.8171, 131.2441
295.2992, 94.26172
295.7813, 62.68555
296.2634, 38.17969
296.7455, 25.62695
297.2277, 27.45703
297.7098, 40.32422
298.1919, 66.63281
298.6740, 104.4492
299.1561, 132.3359
299.6382, 129.1016
300.1204, 105.5547
300.6025, 82.26367
301.0846, 65.13086
301.5667, 48.11719
302.0488, 21.90039
302.5309, 11.78125
303.0131, 43.35156
303.4952, 80.28320
303.9773, 107.4199
304.4594, 97.82422
304.9415, 27.53320
305.4236, 49.59570
305.9058, 83.46289
306.3879, 81.56250
306.8700, 69.41211
307.3521, 54.32617
307.8342, 40.55664
308.3163, 32.87109
308.7985, 33.58203
309.2806, 37.86133
309.7627, 45.29297
310.2448, 54.18164
310.7269, 59.28711
311.2090, 60.85352
311.6912, 55.68750
312.1733, 36.15625
312.6554, 10.30273
313.1375, 42.74414
313.6196, 27.76758
314.1017, 17.40039
314.5839, 54.99414
315.0660, 71.28711
315.5481, 74.43750
316.0302, 62.44336
316.5123, 26.05078
316.9944, 3.933594
317.4766, 30.19922
317.9587, 78.03711
318.4408, 101.2695
318.9229, 59.55469
319.4050, 11.23438
319.8871, 21.03320
320.3692, 35.60547
320.8513, 31.60938
321.3335, 13.18555
321.8156, 71.26562
322.2977, 105.0000
322.7798, 91.81445
323.2619, 67.61133
323.7440, 38.57031
324.2262, 0.9804690
324.7083, 21.47852
325.1904, 21.23828
325.6725, 6.753906
326.1546, 12.58789
326.6367, 54.18359
327.1189, 82.46094
327.6010, 82.16992
328.0831, 47.31836
328.5652, 34.71875
329.0473, 62.22852
329.5294, 101.0449
330.0116, 124.6484
330.4937, 120.6523
330.9758, 119.4473
331.4579, 131.6855
331.9400, 156.8926
332.4221, 154.1406
332.9043, 103.4004
333.3864, 46.68750
333.8685, 19.33789
334.3506, 35.25977
334.8327, 48.33008
335.3148, 53.79102
335.7970, 51.39062
336.2791, 38.69141
336.7612, 7.023438
337.2433, 17.69727
337.7254, 12.99609
338.2076, 28.20898
338.6897, 61.95508
339.1718, 82.10156
339.6539, 92.11328
340.1360, 106.9844
340.6181, 129.2266
341.1003, 143.4961
341.5824, 133.0059
342.0645, 97.66992
342.5466, 78.36133
343.0287, 80.46289
343.5108, 96.99219
343.9930, 117.6309
344.4751, 144.4551
344.9572, 172.8184
345.4393, 205.7227
345.9214, 235.2109
346.4035, 234.7461
346.8857, 203.1348
347.3678, 160.0703
347.8499, 127.2539
348.3320, 104.7227
348.8141, 92.67578
349.2962, 89.89648
349.7784, 98.08789
350.2605, 126.8164
350.7426, 178.3672
351.2247, 228.2207
351.7068, 241.6016
352.1889, 235.0742
352.6710, 246.1465
353.1531, 322.0547
353.6353, 407.3184
354.1174, 429.6895
354.5995, 389.3711
355.0816, 345.8320
355.5637, 345.6641
356.0458, 368.2090
356.5280, 385.5547
357.0101, 375.2578
357.4922, 368.1523
357.9743, 393.0840
358.4564, 444.1738
358.9385, 483.9180
359.4207, 487.5352
359.9028, 474.0801
360.3849, 458.6953
360.8670, 435.4414
361.3491, 421.0059
361.8312, 437.3984
362.3134, 472.1660
362.7955, 483.1387
363.2776, 417.7559
363.7597, 350.4062
364.2418, 326.1777
364.7239, 394.5898
365.2061, 423.9746
365.6882, 351.9355
366.1703, 229.7246
366.6524, 160.3105
367.1345, 220.4062
367.6166, 274.1133
368.0988, 272.1152
368.5809, 183.8379
369.0630, 129.9395
369.5451, 124.5762
370.0272, 146.4902
370.5093, 171.9766
370.9915, 225.0469
371.4736, 241.9160
371.9557, 189.9668
372.4378, 60.98633
372.9199, 6.462891
373.4020, 6.937500
373.8842, 55.90234
374.3663, 102.2676
374.8484, 151.9727
375.3305, 177.9043
375.8126, 164.9844
376.2947, 123.9375
376.7769, 113.1445
377.2590, 139.6016
377.7411, 169.9980
378.2232, 179.3848
378.7053, 168.2715
379.1874, 160.0156
379.6696, 157.8516
380.1517, 157.3223
380.6338, 148.7305
381.1159, 132.0977
381.5980, 113.8320
382.0801, 91.02930
382.5623, 68.33398
383.0444, 67.53711
383.5265, 94.73047
384.0086, 129.2598
384.4907, 150.3848
384.9728, 158.7949
385.4549, 155.5859
385.9370, 129.1074
386.4192, 96.52344
386.9013, 81.52734
387.3834, 85.16016
387.8655, 97.83008
388.3476, 119.1250
388.8297, 142.9961
389.3119, 160.2227
389.7940, 174.2148
390.2761, 175.3828
390.7582, 146.2246
391.2403, 91.82422
391.7224, 51.13477
392.2046, 44.85547
392.6867, 59.05859
393.1688, 83.98828
393.6509, 141.8125
394.1330, 177.3008
394.6151, 158.3652
395.0973, 100.7617
395.5794, 57.54883
396.0615, 44.73047
396.5436, 45.45312
397.0257, 54.33789
397.5078, 77.66992
397.9900, 94.84375
398.4721, 101.8105
398.9542, 102.6895
399.4363, 105.0918
399.9184, 119.5918
400.4005, 118.1445
400.8827, 88.16016
401.3648, 24.30664
401.8469, 25.55859
402.3290, 70.64453
402.8111, 91.70117
403.2932, 57.28516
403.7754, 61.68359
404.2575, 142.2812
404.7396, 151.6152
405.2217, 104.3984
405.7038, 73.16602
406.1859, 60.60547
406.6681, 53.73633
407.1502, 41.72070
407.6323, 24.83789
408.1144, 18.48047
408.5965, 27.44727
409.0786, 40.88867
409.5608, 37.14844
410.0429, 17.60156
410.5250, 2.419922
411.0071, 19.34766
411.4892, 30.02539
411.9713, 26.69141
412.4535, 8.492188
412.9356, 21.58594
413.4177, 75.10547
413.8998, 139.2461
414.3819, 183.8340
414.8640, 189.0137
415.3462, 174.1621
415.8283, 156.5059
416.3104, 136.0996
416.7925, 109.7949
417.2746, 62.26172
417.7567, 13.94727
418.2388, 15.25586
418.7209, 14.64258
419.2031, 0.6718750
419.6852, 22.21094
420.1673, 53.36914
420.6494, 89.32422
421.1315, 153.3906
421.6136, 203.9199
422.0958, 214.0645
422.5779, 157.2344
423.0600, 121.6953
423.5421, 135.5605
424.0242, 173.8594
424.5063, 195.4434
424.9885, 178.6250
425.4706, 163.1523
425.9527, 161.0312
426.4348, 174.0605
426.9169, 170.7949
427.3990, 133.5996
427.8812, 101.7578
428.3633, 113.8711
428.8454, 186.6289
429.3275, 244.2266
429.8096, 275.6445
430.2917, 285.4980
430.7739, 284.2656
431.2560, 272.4941
431.7381, 256.6152
432.2202, 233.5273
432.7023, 205.8535
433.1844, 203.0684
433.6666, 233.5996
434.1487, 268.7227
434.6308, 267.4082
435.1129, 235.3594
435.5950, 197.8887
436.0771, 147.9453
436.5593, 106.0137
437.0414, 117.0020
437.5235, 179.4531
438.0056, 240.6973
438.4877, 254.8281
438.9698, 244.1465
439.4520, 241.3906
439.9341, 272.9531
440.4162, 291.0195
440.8983, 240.8730
441.3804, 147.5039
441.8625, 88.85156
442.3447, 137.3184
442.8268, 202.6699
443.3089, 228.9863
443.7910, 196.0664
444.2731, 167.3926
444.7552, 159.4336
445.2374, 162.1445
445.7195, 161.3965
446.2016, 155.0781
446.6837, 145.9258
447.1658, 133.1328
447.6479, 116.5547
448.1301, 101.2168
448.6122, 74.04883
449.0943, 62.65430
449.5764, 95.27148
450.0585, 202.1055
450.5406, 260.7422
451.0227, 239.4277
451.5049, 177.5605
451.9870, 188.8867
452.4691, 291.9043
452.9512, 368.4141
453.4333, 327.8906
453.9154, 185.7539
454.3976, 124.0605
454.8797, 158.0605
455.3618, 212.3398
455.8439, 179.0957
456.3260, 83.17578
456.8081, 26.98047
457.2903, 68.89648
457.7724, 147.8320
458.2545, 175.7949
458.7366, 159.1582
459.2187, 136.4082
459.7008, 135.1699
460.1830, 140.0762
460.6651, 133.5586
461.1472, 109.9980
461.6293, 94.97852
462.1114, 99.74023
462.5935, 119.4180
463.0757, 138.3066
463.5578, 170.4785
464.0399, 186.6094
464.5220, 163.8516
465.0041, 95.26367
465.4862, 50.18750
465.9684, 55.03125
466.4505, 79.33203
466.9326, 98.79492
467.4147, 101.4844
467.8968, 116.5898
468.3789, 158.1973
468.8611, 213.3867
469.3432, 234.4590
469.8253, 212.5410
470.3074, 177.5742
470.7895, 137.4375
471.2716, 88.77539
471.7538, 58.20703
472.2359, 44.37891
472.7180, 51.79297
473.2001, 104.8340
473.6822, 200.7109
474.1643, 256.7852
474.6465, 230.9961
475.1286, 162.1328
475.6107, 141.2324
476.0928, 163.9609
476.5749, 187.3848
477.0570, 180.1055
477.5392, 153.3320
478.0213, 118.5254
478.5034, 69.40039
478.9855, 38.26172
479.4676, 83.20703
479.9497, 161.3633
480.4319, 194.2109
480.9140, 87.18359
481.3961, 22.35156
481.8782, 52.71094
482.3603, 1.910156
482.8424, 42.45703
483.3246, 47.60547
483.8066, 41.54688
484.2888, 41.12500
484.7709, 55.32031
485.2530, 67.63672
485.7351, 75.59766
486.2172, 81.41797
486.6993, 92.48047
487.1815, 118.4375
487.6636, 133.1797
488.1457, 123.4922
488.6278, 86.89453
489.1099, 63.79297
489.5920, 58.24219
490.0742, 57.23438
490.5563, 40.08203
491.0384, 6.066406
491.5205, 3.007813
492.0026, 51.09766
492.4847, 121.4609
492.9669, 153.9375
493.4490, 152.2773
493.9311, 138.8086
494.4132, 121.0742
494.8953, 104.0742
495.3774, 96.19141
495.8596, 98.14062
496.3417, 107.0664
496.8238, 131.7227
497.3059, 158.9805
497.7880, 169.9648
498.2701, 141.1562
498.7523, 113.4102
499.2344, 110.8594
499.7165, 122.3516
500.1986, 119.8438
500.6807, 67.75000
501.1628, 20.37500
501.6450, 6.625000
502.1271, 45.51953
502.6092, 79.42969
503.0913, 109.9102
503.5734, 132.2812
504.0555, 140.2695
504.5377, 128.3125
505.0198, 111.6523
505.5019, 86.40625
505.9840, 58.06641
506.4661, 62.17969
506.9482, 104.1680
507.4304, 156.0586
507.9125, 217.0430
508.3946, 281.9570
508.8767, 271.8281
509.3588, 165.6797
509.8409, 40.75391
510.3231, 10.25000
510.8052, 3.183594
511.2873, 49.43359
511.7694, 158.9336
512.2515, 263.9414
512.7336, 268.6445
513.2158, 187.5977
513.6979, 114.6094
514.1800, 125.7734
514.6621, 155.4375
515.1442, 145.0859
515.6263, 56.00000
516.1085, 1.472656
516.5906, 36.60156
517.0727, 120.3125
517.5548, 178.9102
518.0369, 207.4805
518.5190, 201.8984
519.0012, 140.8281
519.4833, 31.00000
519.9654, 24.75781
520.4475, 0.4765630
520.9296, 39.99609
521.4117, 49.93750
521.8939, 17.48828
522.3760, 25.65625
522.8581, 94.86328
523.3402, 171.8008
523.8223, 158.2578
524.3044, 58.37500
524.7866, 13.54688
525.2687, 1.906250
525.7508, 53.87109
526.2329, 66.67969
526.7150, 40.08594
527.1971, 17.09766
527.6793, 36.09375
528.1614, 73.67969
528.6435, 96.48047
529.1256, 94.63672
529.6077, 96.96094
530.0898, 141.6914
530.5720, 197.3711
531.0541, 218.1523
531.5362, 145.5430
532.0183, 80.68750
532.5004, 63.04297
532.9825, 88.38281
533.4646, 102.5742
533.9467, 89.84375
534.4288, 77.01562
534.9109, 73.71484
535.3931, 81.57812
535.8752, 85.10547
536.3573, 85.30859
536.8394, 81.14453
537.3215, 64.26953
537.8036, 29.00391
538.2858, 29.63281
538.7679, 93.01953
539.2500, 182.8594
539.7321, 182.8750
540.2142, 101.6133
540.6964, 20.38281
541.1785, 7.195313
541.6606, 3.683594
542.1427, 30.51953
542.6248, 74.80078
543.1069, 113.7852
543.5891, 123.8398
544.0712, 119.0156
544.5533, 118.1992
545.0354, 140.0117
545.5175, 154.9922
545.9996, 148.8359
546.4818, 125.5273
546.9639, 98.47656
547.4460, 40.82812
547.9281, 8.046875
548.4102, 34.12109
548.8923, 146.0273
549.3745, 187.4180
549.8566, 114.7695
550.3387, 20.92188
550.8208, 1.937500
551.3029, 64.28906
551.7850, 107.6445
552.2672, 110.4141
552.7493, 87.17578
553.2314, 67.92578
553.7135, 52.62109
554.1956, 38.15625
554.6777, 22.91797
555.1599, 7.484375
555.6420, 15.24609
556.1241, 44.67578
556.6062, 51.35938
557.0883, 20.55469
557.5704, 115.5547
558.0526, 161.0039
558.5347, 121.8828
559.0168, 73.03516
559.4989, 43.91406
559.9810, 31.16797
560.4631, 26.88672
560.9453, 19.69531
561.4274, 30.03125
561.9095, 81.13281
562.3916, 168.0859
562.8737, 209.5234
563.3558, 183.9023
563.8380, 141.1758
564.3201, 106.6602
564.8022, 80.26172
565.2843, 62.83984
565.7664, 55.96484
566.2485, 54.82812
566.7307, 50.56641
567.2128, 44.27344
567.6949, 48.71875
568.1770, 68.54297
568.6591, 99.53516
569.1412, 137.6836
569.6234, 179.0039
570.1055, 207.1914
570.5876, 219.1133
571.0697, 209.8516
571.5518, 158.5820
572.0339, 58.52734
572.5161, 7.890625
572.9982, 29.87891
573.4803, 101.8945
573.9624, 147.3164
574.4445, 135.4883
574.9266, 122.9453
575.4088, 119.6250
575.8909, 117.7031
576.3730, 96.40625
576.8551, 30.92578
577.3372, 4.406250
577.8193, 24.25000
578.3015, 111.1758
578.7836, 150.1758
579.2657, 134.6797
579.7478, 102.2539
580.2299, 77.80469
580.7120, 60.87891
581.1942, 46.66016
581.6763, 32.98047
582.1584, 30.30469
582.6405, 61.69531
583.1226, 111.7383
583.6047, 145.9375
584.0869, 144.7812
584.5690, 128.1758
585.0511, 95.09375
585.5332, 54.08594
586.0153, 33.16797
586.4974, 60.14453
586.9796, 92.88281
587.4617, 110.8320
587.9438, 106.8047
588.4259, 118.1211
588.9080, 165.6289
589.3901, 207.5039
589.8723, 209.4062
590.3544, 163.1641
590.8365, 104.6367
591.3186, 26.11719
591.8007, 47.09375
592.2828, 60.77344
592.7650, 17.76562
593.2471, 30.25781
593.7292, 73.92188
594.2113, 101.5898
594.6934, 70.90625
595.1755, 7.593750
595.6577, 60.81641
596.1398, 5.476563
596.6219, 77.26562
597.1040, 106.8359
597.5861, 63.71875
598.0682, 20.59766
598.5503, 6.613281
599.0324, 15.50781
599.5145, 1.281250
599.9966, 68.73438
600.4788, 121.3203
600.9609, 151.5703
601.4430, 161.6992
601.9251, 150.1562
602.4072, 103.3438
602.8893, 76.10547
603.3715, 102.6719
603.8536, 167.5039
604.3357, 154.4023
604.8178, 57.30078
605.2999, 29.55469
605.7820, 5.957031
606.2642, 78.54297
606.7463, 101.1211
607.2284, 39.19531
607.7105, 28.04688
608.1926, 48.91797
608.6747, 30.43359
609.1569, 20.54688
609.6390, 165.4141
610.1211, 270.2656
610.6032, 258.6133
611.0853, 168.5625
611.5674, 108.6016
612.0496, 123.4180
612.5317, 135.2383
613.0138, 115.0898
613.4959, 62.51172
613.9780, 53.68359
614.4601, 109.0664
614.9423, 167.1719
615.4244, 168.4688
615.9065, 116.3242
616.3886, 94.98828
616.8707, 115.3125
617.3528, 142.8047
617.8350, 125.0039
618.3171, 81.94531
618.7992, 65.10938
619.2813, 108.5664
619.7634, 158.6797
620.2455, 165.7461
620.7277, 144.4180
621.2098, 132.9180
621.6919, 157.5078
622.1740, 183.7305
622.6561, 200.8398
623.1382, 208.1250
623.6204, 199.5977
624.1025, 167.4844
624.5846, 128.1289
625.0667, 83.83984
625.5488, 23.46875
626.0309, 12.63281
626.5131, 66.55078
626.9952, 135.5000
627.4773, 153.9336
627.9594, 128.0781
628.4415, 109.7422
628.9236, 114.1055
629.4058, 125.2578
629.8879, 118.9102
630.3700, 101.3086
630.8521, 92.04297
631.3342, 103.8867
631.8163, 123.1328
632.2985, 144.8555
632.7806, 167.6758
633.2627, 182.2422
633.7448, 177.3789
634.2269, 170.6133
634.7090, 172.6562
635.1912, 188.9219
635.6733, 191.2305
636.1554, 166.9531
636.6375, 144.9922
637.1196, 164.4492
637.6017, 231.2227
638.0839, 259.4258
638.5660, 228.1680
639.0481, 172.4297
639.5302, 140.8281
640.0123, 132.1211
640.4944, 140.5820
640.9766, 177.3555
641.4587, 219.0273
641.9408, 240.1992
642.4229, 245.5586
642.9050, 255.9922
643.3871, 294.6016
643.8693, 329.2461
644.3514, 341.4766
644.8335, 326.9844
645.3156, 309.7695
645.7977, 287.6289
646.2798, 266.7109
646.7620, 251.8438
647.2441, 245.4922
647.7262, 235.0938
648.2083, 218.2578
648.6904, 200.8516
649.1725, 190.5898
649.6547, 184.9102
650.1368, 182.7266
650.6189, 186.5664
651.1010, 194.3320
651.5831, 203.7734
652.0652, 215.7930
652.5474, 233.0781
653.0295, 280.9492
653.5116, 311.2109
653.9937, 279.0742
654.4758, 188.3867
654.9579, 145.9727
655.4401, 214.6367
655.9222, 298.1406
656.4043, 357.4062
656.8864, 395.0195
657.3685, 389.9727
657.8506, 321.4375
658.3328, 246.2812
658.8149, 225.6562
659.2970, 258.4844
659.7791, 279.7305
660.2612, 278.2969
660.7433, 271.7070
661.2255, 280.0430
661.7076, 302.0039
662.1897, 333.5977
662.6718, 385.2773
663.1539, 432.9961
663.6360, 459.5781
664.1182, 470.6328
664.6002, 484.4453
665.0823, 508.8750
665.5645, 534.0859
666.0466, 554.7188
666.5287, 572.6445
667.0108, 604.9805
667.4929, 667.5352
667.9750, 714.4609
668.4572, 701.3867
668.9393, 625.7773
669.4214, 605.9766
669.9035, 648.9297
670.3856, 716.3320
670.8677, 787.3906
671.3499, 850.3945
671.8320, 873.8633
672.3141, 836.6250
672.7962, 801.2656
673.2783, 830.7852
673.7604, 892.1172
674.2426, 935.0664
674.7247, 920.7930
675.2068, 910.3750
675.6889, 938.3281
676.1710, 983.6484
676.6531, 977.7695
677.1353, 886.0898
677.6174, 806.4375
678.0995, 776.7617
678.5816, 787.1562
679.0637, 750.3594
679.5458, 660.8555
680.0280, 585.2383
680.5101, 594.1719
680.9922, 644.6172
681.4743, 630.0859
681.9564, 543.2969
682.4385, 452.4883
682.9207, 402.2383
683.4028, 378.3633
683.8849, 371.0938
684.3670, 390.1328
684.8491, 398.3750
685.3312, 388.6758
685.8134, 361.7539
686.2955, 315.1914
686.7776, 222.0273
687.2597, 171.7188
687.7418, 193.8047
688.2239, 246.9453
688.7061, 232.1641
689.1882, 148.1875
689.6703, 90.50781
690.1524, 113.2461
690.6345, 167.1680
691.1166, 158.2891
691.5988, 99.56250
692.0809, 48.26562
692.5630, 37.30078
693.0451, 46.40234
693.5272, 73.44141
694.0093, 117.0195
694.4915, 134.5078
694.9736, 91.75391
695.4557, 47.03125
695.9378, 29.67188
696.4199, 43.81641
696.9020, 72.72266
697.3842, 125.1367
697.8663, 174.7383
698.3484, 190.5586
698.8305, 176.1055
699.3126, 164.1055
699.7947, 158.2422
700.2769, 158.6836
700.7590, 184.1211
701.2411, 213.2422
701.7232, 201.7930
702.2053, 85.29688
702.6874, 7.492188
703.1696, 16.52734
703.6517, 108.9961
704.1338, 162.8125
704.6159, 108.0352
705.0980, 73.59766
705.5801, 100.8594
706.0623, 169.0781
706.5444, 175.2930
707.0265, 100.3867
707.5086, 46.76562
707.9907, 84.28516
708.4728, 179.3984
708.9550, 204.7852
709.4371, 163.9609
709.9192, 122.6602
710.4013, 152.4297
710.8834, 192.0156
711.3655, 158.3594
711.8477, 32.66016
712.3298, 52.79297
712.8119, 14.60938
713.2940, 64.24609
713.7761, 122.3516
714.2582, 160.8672
714.7404, 166.2227
715.2225, 118.0547
715.7046, 61.95312
716.1867, 61.64453
716.6688, 119.4375
717.1509, 139.5039
717.6331, 96.96484
718.1152, 33.15234
718.5973, 3.671875
719.0794, 15.62109
719.5615, 6.437500
720.0436, 43.18750
720.5258, 90.03125
721.0079, 101.4141
721.4900, 89.33984
721.9721, 85.84766
722.4542, 114.6367
722.9363, 134.5938
723.4185, 137.5938
723.9006, 124.0508
724.3827, 88.89844
724.8648, 17.64453
725.3469, 24.78906
725.8290, 7.765625
726.3112, 93.01562
726.7933, 144.3281
727.2754, 162.1719
727.7575, 167.8320
728.2396, 181.3125
728.7217, 188.4336
729.2039, 165.6953
729.6860, 108.3711
730.1681, 62.85156
730.6501, 53.40625
731.1323, 58.16406
731.6144, 63.21094
732.0965, 72.28516
732.5786, 68.65234
733.0607, 45.13672
733.5428, 19.46484
734.0250, 9.347656
734.5071, 14.67578
734.9892, 29.91016
735.4713, 55.54688
735.9534, 86.26562
736.4355, 126.9062
736.9177, 166.1055
737.3998, 180.8438
737.8819, 149.2266
738.3640, 112.7031
738.8461, 90.41797
739.3282, 78.35156
739.8104, 68.91406
740.2925, 41.19141
740.7746, 44.62109
741.2567, 112.0234
741.7388, 207.6562
742.2209, 209.6406
742.7031, 101.8203
743.1852, 24.49609
743.6673, 54.39844
744.1494, 138.6211
744.6315, 147.7227
745.1136, 94.56641
745.5958, 40.97656
746.0779, 12.39062
746.5600, 5.890625
747.0421, 33.88281
747.5242, 93.27344
748.0063, 124.8125
748.4885, 87.43359
748.9706, 43.85547
749.4527, 21.39453
749.9348, 22.28516
750.4169, 8.578125
750.8990, 30.86719
751.3812, 48.33594
751.8633, 23.36719
752.3454, 151.7734
752.8275, 193.0000
753.3096, 132.4062
753.7917, 68.54688
754.2739, 103.8672
754.7560, 172.0625
755.2381, 196.0391
755.7202, 148.5039
756.2023, 97.66797
756.6844, 47.88672
757.1666, 12.27734
757.6487, 5.796875
758.1308, 50.60156
758.6129, 63.02344
759.0950, 26.21094
759.5771, 21.98438
760.0593, 19.92969
760.5414, 23.44922
761.0235, 50.52734
761.5056, 45.46094
761.9877, 24.99609
762.4698, 3.617188
762.9520, 33.11328
763.4341, 50.77344
763.9162, 44.77734
764.3983, 34.48828
764.8804, 28.04297
765.3625, 20.85547
765.8447, 2.277344
766.3268, 31.92188
766.8089, 70.08984
767.2910, 118.4375
767.7731, 162.2031
768.2552, 147.1406
768.7374, 79.87500
769.2195, 36.09375
769.7016, 71.62109
770.1837, 131.3945
770.6658, 159.2344
771.1479, 159.2812
771.6301, 149.5000
772.1122, 118.3828
772.5943, 95.55469
773.0764, 97.60156
773.5585, 124.3750
774.0406, 131.9297
774.5228, 105.6992
775.0049, 90.76172
775.4870, 116.0391
775.9691, 171.9180
776.4512, 184.3555
776.9333, 153.9180
777.4155, 128.5273
777.8976, 150.1992
778.3797, 190.8984
778.8618, 216.7695
779.3439, 226.2344
779.8260, 230.0117
780.3082, 230.2422
780.7903, 228.4648
781.2724, 223.4336
781.7545, 212.7188
782.2366, 215.4570
782.7188, 240.0469
783.2009, 260.9883
783.6830, 261.9258
784.1651, 243.4102
784.6472, 204.1758
785.1293, 141.0234
785.6115, 105.2148
786.0936, 191.3008
786.5757, 309.1367
787.0578, 335.5117
787.5399, 224.8125
788.0220, 137.2617
788.5042, 147.1758
788.9863, 192.9922
789.4684, 224.0078
789.9505, 236.9336
790.4326, 238.3750
790.9147, 223.4609
791.3969, 206.4883
791.8790, 206.7031
792.3611, 220.5156
792.8432, 222.8164
793.3253, 206.0391
793.8074, 196.0859
794.2896, 235.7109
794.7717, 289.8594
795.2538, 309.5430
795.7359, 250.0273
796.2180, 213.1953
796.7001, 261.6367
797.1822, 325.1797
797.6643, 315.7734
798.1464, 199.1680
798.6285, 131.6992
799.1107, 140.9688
799.5928, 183.0625
800.0749, 189.1875
800.5570, 169.7461
801.0391, 167.6289
801.5212, 208.3203
802.0034, 239.9531
802.4855, 195.2578
802.9676, 120.7773
803.4497, 87.32031
803.9318, 160.7148
804.4139, 218.8516
804.8961, 240.5273
805.3782, 239.5820
805.8603, 239.8867
806.3424, 243.1445
806.8245, 233.9414
807.3066, 202.4844
807.7888, 168.7148
808.2709, 175.4648
808.7530, 206.7070
809.2351, 221.7031
809.7172, 187.4883
810.1993, 156.9375
810.6815, 173.6484
811.1636, 215.2969
811.6457, 234.0859
812.1278, 200.9688
812.6099, 177.0977
813.0920, 174.3906
813.5742, 184.5469
814.0563, 185.7266
814.5384, 177.6992
815.0205, 178.0352
815.5026, 196.7891
815.9847, 226.5508
816.4669, 259.0859
816.9490, 288.7461
817.4311, 305.1797
817.9132, 296.5586
818.3953, 287.4414
818.8774, 290.1719
819.3596, 298.0859
819.8417, 287.9766
820.3238, 245.2148
820.8059, 216.3086
821.2880, 218.6406
821.7701, 239.5586
822.2523, 235.6211
822.7344, 212.1484
823.2165, 207.0156
823.6986, 258.7148
824.1807, 316.6250
824.6628, 337.7188
825.1450, 325.6016
825.6271, 287.8242
826.1092, 196.4648
826.5913, 114.5938
827.0734, 58.53906
827.5555, 22.76172
828.0377, 12.50781
828.5198, 49.38281
829.0019, 74.64453
829.4840, 90.57031
829.9661, 85.11328
830.4482, 7.996094
830.9304, 116.3320
831.4125, 206.0742
831.8946, 203.1953
832.3767, 169.4531
832.8588, 119.8711
833.3409, 64.60156
833.8231, 38.85938
834.3052, 52.91797
834.7873, 82.33984
835.2694, 129.9766
835.7515, 184.3438
836.2336, 212.8828
836.7158, 215.3906
837.1979, 197.8242
837.6800, 144.2305
838.1621, 91.67578
838.6442, 85.48828
839.1263, 115.5625
839.6085, 154.6406
840.0906, 214.7656
840.5727, 256.5352
841.0548, 260.1406
841.5369, 237.6016
842.0190, 221.8477
842.5012, 219.1602
842.9833, 194.3789
843.4654, 123.6133
843.9475, 41.60938
844.4296, 31.21875
844.9117, 76.08203
845.3939, 120.3281
845.8760, 148.5742
846.3581, 157.9375
846.8402, 129.9961
847.3223, 82.00781
847.8044, 59.20703
848.2866, 86.23438
848.7687, 106.3984
849.2508, 110.6953
849.7329, 101.9258
850.2150, 80.02344
850.6971, 46.26953
851.1793, 24.62109
851.6614, 14.45703
852.1435, 33.32422
852.6256, 146.1953
853.1077, 298.6875
853.5898, 378.3984
854.0720, 275.2969
854.5541, 180.2930
855.0362, 149.4102
855.5183, 152.1562
856.0004, 137.5430
856.4825, 100.1719
856.9647, 70.23047
857.4468, 50.81250
857.9289, 47.34766
858.4110, 76.46484
858.8931, 128.5625
859.3752, 182.2812
859.8574, 254.5117
860.3395, 287.2695
860.8216, 209.9648
861.3037, 86.86328
861.7858, 21.78906
862.2679, 43.92578
862.7500, 77.80859
863.2321, 125.5781
863.7142, 170.2109
864.1964, 184.2891
864.6785, 171.2617
865.1606, 152.3008
865.6427, 129.6602
866.1248, 109.9922
866.6069, 85.07031
867.0891, 72.71875
867.5712, 98.35156
868.0533, 215.6680
868.5354, 289.6953
869.0175, 302.1875
869.4996, 274.7773
869.9818, 215.5703
870.4639, 120.8320
870.9460, 77.78125
871.4281, 96.90234
871.9102, 119.4883
872.3923, 65.79688
872.8745, 16.39453
873.3566, 55.22266
873.8387, 32.16797
874.3208, 15.80078
874.8029, 125.3086
875.2850, 216.3555
875.7672, 218.5273
876.2493, 90.04688
876.7314, 41.56641
877.2135, 87.19531
877.6956, 161.0508
878.1777, 216.1914
878.6599, 251.4570
879.1420, 253.2891
879.6241, 220.2188
880.1062, 197.6797
880.5883, 245.8867
881.0704, 290.2773
881.5526, 266.5039
882.0347, 154.5977
882.5168, 82.29688
882.9989, 57.51172
883.4810, 55.55078
883.9631, 61.89062
884.4453, 78.56641
884.9274, 131.1758
885.4095, 214.4297
885.8916, 270.0273
886.3737, 232.1836
886.8558, 172.5547
887.3380, 151.6445
887.8201, 170.2227
888.3022, 177.6094
888.7843, 146.3867
889.2664, 122.7070
889.7485, 121.8516
890.2307, 141.2969
890.7128, 183.4922
891.1949, 246.3906
891.6770, 274.7891
892.1591, 197.0273
892.6412, 105.9883
893.1234, 124.7734
893.6055, 216.7227
894.0876, 275.9023
894.5697, 238.3203
895.0518, 193.0000
895.5339, 148.2266
896.0161, 114.6094
896.4982, 133.0039
896.9803, 209.1953
897.4624, 248.3984
897.9445, 217.1484
898.4266, 153.0977
898.9088, 80.27734
899.3909, 16.93750
899.8730, 1.804688
900.3551, 83.59766
900.8372, 152.3555
901.3193, 154.5508
901.8015, 132.2734
902.2836, 136.0742
902.7657, 173.8906
903.2478, 193.8203
903.7299, 184.5195
904.2120, 174.6523
904.6942, 210.5195
905.1763, 268.6914
905.6584, 309.0078
906.1405, 327.5273
906.6226, 309.8281
907.1047, 204.2695
907.5869, 90.76172
908.0690, 35.98438
908.5511, 55.57031
909.0332, 76.78516
909.5153, 103.7461
909.9974, 118.0352
910.4796, 80.91406
910.9617, 23.49219
911.4438, 29.77734
911.9259, 102.4219
912.4080, 171.7930
912.8901, 212.5117
913.3723, 224.8242
913.8544, 192.1406
914.3365, 115.9258
914.8186, 82.03516
915.3007, 95.26953
915.7828, 139.3320
916.2650, 232.9219
916.7471, 338.8281
917.2292, 334.5273
917.7113, 240.8711
918.1934, 156.3945
918.6755, 139.8438
919.1577, 139.5352
919.6398, 134.3320
920.1219, 127.1641
920.6040, 120.9883
921.0861, 118.7930
921.5682, 107.8867
922.0504, 78.20312
922.5325, 49.16797
923.0146, 73.05859
923.4967, 132.2539
923.9788, 165.1758
924.4609, 141.0508
924.9431, 108.9531
925.4252, 101.7148
925.9073, 104.3242
926.3894, 97.32031
926.8715, 79.47656
927.3536, 46.26562
927.8357, 16.07422
928.3178, 65.35938
928.7999, 37.76172
929.2820, 46.92188
929.7642, 94.77734
930.2463, 96.96094
930.7284, 81.25781
931.2105, 49.71484
931.6926, 25.79297
932.1747, 33.98047
932.6569, 84.87500
933.1390, 95.02734
933.6211, 41.98828
934.1032, 0.6328130
934.5853, 19.73828
935.0674, 84.52344
935.5496, 131.0391
936.0317, 157.6875
936.5138, 155.6289
936.9959, 75.09766
937.4780, 5.886719
937.9601, 22.37500
938.4423, 105.4883
938.9244, 144.2852
939.4065, 118.3711
939.8886, 89.69531
940.3707, 72.19141
940.8528, 62.96094
941.3350, 56.36719
941.8171, 52.69141
942.2992, 53.41016
942.7813, 64.24219
943.2634, 70.59375
943.7455, 51.87891
944.2277, 28.27344
944.7098, 28.98438
945.1919, 65.57422
945.6740, 106.2188
946.1561, 158.2188
946.6382, 191.5625
947.1204, 149.5391
947.6025, 63.69922
948.0846, 29.00781
948.5667, 58.77344
949.0488, 97.17969
949.5309, 134.2812
950.0131, 148.5742
950.4952, 104.2578
950.9773, 6.789063
951.4594, 38.21875
951.9415, 31.35156
952.4236, 110.2227
952.9058, 144.7891
953.3879, 154.0078
953.8700, 190.4375
954.3521, 245.8242
954.8342, 284.6602
955.3163, 283.1445
955.7985, 267.8086
956.2806, 240.2773
956.7627, 207.2109
957.2448, 193.2539
957.7269, 202.6523
958.2090, 213.5000
958.6912, 224.4648
959.1733, 225.7422
959.6554, 189.4492
960.1375, 134.3711
960.6196, 98.46875
961.1017, 95.31641
961.5839, 104.6641
962.0660, 133.3281
962.5481, 161.5898
963.0302, 172.3750
963.5123, 163.4492
963.9944, 143.7773
964.4766, 109.9570
964.9587, 89.31250
965.4408, 123.4336
965.9229, 175.2031
966.4050, 182.4883
966.8871, 146.4883
967.3693, 133.2188
967.8514, 194.4453
968.3335, 253.7266
968.8156, 290.8008
969.2977, 302.9844
969.7798, 259.5117
970.2620, 160.0625
970.7441, 84.48438
971.2262, 76.03906
971.7083, 89.60547
972.1904, 71.85547
972.6725, 39.55859
973.1547, 22.75781
973.6368, 53.73047
974.1189, 66.82812
974.6010, 52.29297
975.0831, 23.09766
975.5652, 18.42188
976.0474, 65.64062
976.5295, 34.24219
977.0116, 91.36719
977.4937, 203.4922
977.9758, 201.9180
978.4579, 152.8906
978.9401, 99.76953
979.4222, 38.58203
979.9043, 44.91797
980.3864, 163.4258
980.8685, 257.8750
981.3506, 253.2656
981.8328, 178.1289
982.3149, 115.9766
982.7970, 67.11328
983.2791, 35.96484
983.7612, 23.71094
984.2433, 30.18750
984.7255, 85.66797
985.2076, 153.4844
985.6897, 143.0898
986.1718, 9.593750
986.6539, 54.92969
987.1360, 11.15234
987.6182, 72.91797
988.1003, 121.3359
988.5824, 143.5430
989.0645, 153.8906
989.5466, 151.3008
990.0287, 157.7070
990.5109, 211.6094
990.9930, 249.7188
991.4751, 225.0898
991.9572, 135.3008
992.4393, 83.65234
992.9214, 70.45703
993.4036, 92.18750
993.8856, 186.8828
994.3677, 288.3320
994.8499, 303.8281
995.3320, 253.3750
995.8141, 202.7383
996.2962, 150.6562
996.7783, 128.9258
997.2604, 151.3008
997.7426, 198.9023
998.2247, 244.1523
998.7068, 283.3086
999.1889, 275.0938
999.6710, 198.3555
1000.153, 130.4375
1000.635, 161.9297
1001.117, 218.1641
1001.599, 221.7617
1002.082, 141.7930
1002.564, 87.78906
1003.046, 60.42578
1003.528, 56.34375
1004.010, 85.97266
1004.492, 135.0156
1004.974, 160.5703
1005.456, 165.3984
1005.939, 161.3672
1006.421, 143.2031
1006.903, 130.1094
1007.385, 133.3633
1007.867, 147.0000
1008.349, 159.5352
1008.831, 170.3438
1009.313, 180.9180
1009.795, 198.9141
1010.278, 210.4844
1010.760, 185.3477
1011.242, 138.4453
1011.724, 96.06250
1012.206, 62.58984
1012.688, 34.79688
1013.170, 1.742188
1013.652, 14.51172
1014.135, 31.91016
1014.617, 127.1445
1015.099, 148.0234
1015.581, 102.2891
1016.063, 53.94141
1016.545, 31.41797
1017.027, 29.78906
1017.509, 65.83594
1017.991, 119.3516
1018.474, 129.2227
1018.956, 71.62500
1019.438, 28.48828
1019.920, 9.980469
1020.402, 14.63672
1020.884, 65.35547
1021.366, 132.4297
1021.848, 140.1680
1022.331, 60.48828
1022.813, 7.050781
1023.295, 56.66016
1023.777, 121.7539
1024.259, 149.9180
1024.741, 142.2852
1025.223, 146.3984
1025.705, 162.4883
1026.188, 176.0352
1026.670, 175.4648
1027.152, 171.1055
1027.634, 180.1133
1028.116, 193.5039
1028.598, 188.3984
1029.080, 137.1758
1029.562, 107.5547
1030.044, 116.0898
1030.526, 129.8672
1031.009, 89.08594
1031.491, 15.65625
1031.973, 9.234375
1032.455, 27.18750
1032.937, 72.36719
1033.419, 113.7227
1033.901, 133.7734
1034.383, 123.5430
1034.865, 86.00391
1035.348, 41.51562
1035.830, 12.97656
1036.312, 46.83203
1036.794, 42.94531
1037.276, 17.30078
1037.758, 23.43750
1038.240, 67.12500
1038.722, 91.89844
1039.205, 54.40234
1039.687, 54.62500
1040.169, 124.7188
1040.651, 196.2422
1041.133, 181.5273
1041.615, 100.5156
1042.097, 76.24219
1042.579, 114.8750
1043.062, 147.4688
1043.544, 117.7500
1044.026, 79.54688
1044.508, 43.57031
1044.990, 25.73828
1045.472, 66.54297
1045.954, 185.4141
1046.436, 254.2617
1046.918, 220.7148
1047.401, 152.6133
1047.883, 147.5508
1048.365, 172.7383
1048.847, 169.8242
1049.329, 98.07812
1049.811, 66.68359
1050.293, 123.2578
1050.775, 175.2812
1051.257, 140.0586
1051.740, 34.52344
1052.222, 8.203125
1052.704, 53.39453
1053.186, 99.15625
1053.668, 114.7812
1054.150, 107.4570
1054.632, 54.60547
1055.114, 9.761719
1055.597, 6.394531
1056.079, 132.3398
1056.561, 185.2227
1057.043, 118.9727
1057.525, 47.39844
1058.007, 160.4961
1058.489, 328.0781
1058.971, 341.7500
1059.453, 142.4883
1059.936, 24.05469
1060.418, 84.97266
1060.900, 166.9570
1061.382, 209.4102
1061.864, 219.4570
1062.346, 220.5938
1062.828, 213.8945
1063.310, 204.5156
1063.792, 203.9844
1064.275, 188.7852
1064.757, 118.5078
1065.239, 42.16406
1065.721, 31.96484
1066.203, 111.8945
1066.685, 116.6211
1067.167, 31.07031
1067.649, 52.27344
1068.132, 42.44141
1068.614, 7.292969
1069.096, 41.83203
1069.578, 59.03125
1070.060, 72.32422
1070.542, 93.82031
1071.024, 87.69531
1071.506, 27.11328
1071.989, 36.32031
1072.471, 17.70703
1072.953, 143.8867
1073.435, 211.0078
1073.917, 169.4375
1074.399, 126.8125
1074.881, 162.6055
1075.363, 195.6055
1075.845, 164.5898
1076.328, 71.68750
1076.810, 23.49219
1077.292, 18.86719
1077.774, 32.71875
1078.256, 57.01172
1078.738, 88.99219
1079.220, 142.7266
1079.702, 198.5234
1080.184, 212.3047
1080.667, 152.9688
1081.149, 124.0664
1081.631, 135.1992
1082.113, 164.7656
1082.595, 213.2930
1083.077, 255.3086
1083.559, 226.6055
1084.041, 129.8398
1084.524, 64.28125
1085.006, 89.47656
1085.488, 124.3906
1085.970, 150.1094
1086.452, 167.3281
1086.934, 178.6406
1087.416, 183.3477
1087.898, 177.2656
1088.380, 159.3125
1088.863, 131.4023
1089.345, 62.50000
1089.827, 8.101563
1090.309, 29.32812
1090.791, 132.0469
1091.273, 191.9766
1091.755, 206.9648
1092.237, 193.0742
1092.719, 130.1797
1093.202, 70.21875
1093.684, 79.34375
1094.166, 131.3203
1094.648, 176.5195
1095.130, 208.0898
1095.612, 231.3594
1096.094, 249.4062
1096.576, 246.4961
1097.058, 186.1406
1097.541, 98.79688
1098.023, 45.67969
1098.505, 31.67578
1098.987, 55.35547
1099.469, 202.2969
1099.951, 275.7305
1100.433, 183.5508
1100.915, 10.66797
1101.398, 37.01562
1101.880, 22.70312
1102.362, 65.52734
1102.844, 58.88672
1103.326, 55.64453
1103.808, 107.2188
1104.290, 165.0039
1104.772, 190.0742
1105.255, 182.3828
1105.737, 161.8008
1106.219, 126.2344
1106.701, 106.0000
1107.183, 126.6562
1107.665, 154.4141
1108.147, 145.8672
1108.629, 119.5312
1109.111, 107.2422
1109.594, 144.8672
1110.076, 129.8203
1110.558, 40.33203
1111.040, 37.82422
1111.522, 14.43359
1112.004, 64.50000
1112.486, 120.6250
1112.968, 147.9336
1113.450, 140.5742
1113.933, 45.89453
1114.415, 18.65234
1114.897, 22.39844
1115.379, 5.117188
1115.861, 21.21875
1116.343, 27.46875
1116.825, 26.65234
1117.307, 18.22266
1117.790, 20.69141
1118.272, 66.85156
1118.754, 105.2500
1119.236, 99.33594
1119.718, 61.98828
1120.200, 57.52344
1120.682, 85.46094
1121.164, 117.8047
1121.646, 149.7266
1122.129, 172.8828
1122.611, 178.2695
1123.093, 174.3125
1123.575, 159.6250
1124.057, 133.9570
1124.539, 123.2617
1125.021, 129.9375
1125.503, 132.1328
1125.985, 112.1562
1126.468, 103.4453
1126.950, 164.3359
1127.432, 259.4375
1127.914, 318.8164
1128.396, 306.1953
1128.878, 288.0312
1129.360, 273.1406
1129.842, 234.2617
1130.325, 107.7539
1130.807, 42.98047
1131.289, 42.66016
1131.771, 93.18359
1132.253, 196.1055
1132.735, 168.4141
1133.217, 142.1289
1133.699, 151.6250
1134.182, 174.6797
1134.664, 164.8477
1135.146, 133.1016
1135.628, 133.3320
1136.110, 178.3398
1136.592, 201.8242
1137.074, 120.0000
1137.556, 56.89844
1138.038, 97.06250
1138.521, 207.8203
1139.003, 215.5703
1139.485, 130.4258
1139.967, 85.64062
1140.449, 137.6836
1140.931, 202.9492
1141.413, 231.7148
1141.895, 233.8438
1142.377, 212.9453
1142.860, 166.1836
1143.342, 148.4062
1143.824, 161.0312
1144.306, 178.9805
1144.788, 189.2070
1145.270, 196.6055
1145.752, 204.6836
1146.234, 219.1133
1146.717, 234.1836
1147.199, 276.8906
1147.681, 256.9727
1148.163, 155.7695
1148.645, 70.35547
1149.127, 113.2109
1149.609, 203.7773
1150.091, 221.9531
1150.573, 182.6797
1151.056, 163.3398
1151.538, 181.9141
1152.020, 226.0156
1152.502, 311.0664
1152.984, 381.7734
1153.466, 345.5000
1153.948, 248.8086
1154.430, 172.0078
1154.912, 124.6602
1155.395, 123.8555
1155.877, 247.4219
1156.359, 321.9062
1156.841, 283.8516
1157.323, 196.2773
1157.805, 198.5312
1158.287, 261.1172
1158.769, 295.5117
1159.251, 276.1211
1159.734, 255.0039
1160.216, 254.8750
1160.698, 247.9023
1161.180, 207.9570
1161.662, 153.5312
1162.144, 195.5508
1162.626, 307.3320
1163.108, 339.8594
1163.591, 184.9180
1164.073, 54.58594
1164.555, 81.28516
1165.037, 164.1133
1165.519, 228.4531
1166.001, 273.4531
1166.483, 278.6211
1166.965, 246.1133
1167.448, 205.3359
1167.930, 150.0859
1168.412, 116.9336
1168.894, 152.5898
1169.376, 211.5820
1169.858, 223.4180
1170.340, 178.3359
1170.822, 135.4805
1171.304, 98.87109
1171.786, 92.18750
1172.269, 157.8516
1172.751, 235.6836
1173.233, 288.2969
1173.715, 312.0156
1174.197, 311.3008
1174.679, 287.2383
1175.161, 220.6211
1175.643, 98.72656
1176.126, 6.621094
1176.608, 66.76953
1177.090, 159.5781
1177.572, 149.5703
1178.054, 50.33203
1178.536, 47.94141
1179.018, 191.1367
1179.500, 236.7422
1179.983, 109.0781
1180.465, 38.38281
1180.947, 4.492188
1181.429, 115.9766
1181.911, 147.7656
1182.393, 76.40234
1182.875, 6.433594
1183.357, 70.22656
1183.839, 103.7500
1184.322, 69.71484
1184.804, 2.750000
1185.286, 58.56641
1185.768, 111.1445
1186.250, 155.1016
1186.732, 192.8359
1187.214, 201.3672
1187.696, 163.1562
1188.178, 147.7422
1188.661, 202.8281
1189.143, 281.0664
1189.625, 279.3398
1190.107, 232.9258
1190.589, 219.9297
1191.071, 290.0000
1191.553, 327.3945
1192.035, 315.6094
1192.518, 296.4102
1193.000, 292.5156
1193.482, 303.2305
1193.964, 356.8477
1194.446, 422.5312
1194.928, 419.7461
1195.410, 207.3867
1195.892, 107.7930
1196.375, 180.8281
1196.857, 283.3320
1197.339, 277.9492
1197.821, 211.1406
1198.303, 201.9375
1198.785, 236.1055
1199.267, 242.7109
1199.749, 140.4922
1200.231, 93.20703
1200.714, 139.7031
1201.196, 215.2773
1201.678, 272.0781
1202.160, 294.4102
1202.642, 204.7734
1203.124, 21.64844
1203.606, 85.35156
1204.088, 24.24609
1204.570, 120.4727
1205.053, 161.8750
1205.535, 166.3164
1206.017, 145.6367
1206.499, 113.0859
1206.981, 102.6133
1207.463, 117.4648
1207.945, 138.2031
1208.427, 163.3477
1208.910, 187.3789
1209.392, 215.2812
1209.874, 231.0273
1210.356, 181.3633
1210.838, 98.59766
1211.320, 79.14453
1211.802, 146.2383
1212.284, 176.0352
1212.766, 67.82031
1213.249, 6.406250
1213.731, 22.80078
1214.213, 103.8047
1214.695, 117.9375
1215.177, 86.43359
1215.659, 59.53906
1216.141, 45.79297
1216.623, 51.50000
1217.105, 82.10547
1217.588, 130.1094
1218.070, 209.2188
1218.552, 288.6953
1219.034, 269.1445
1219.516, 184.2461
1219.998, 120.5664
1220.480, 106.7617
1220.962, 101.4688
1221.445, 89.21484
1221.927, 93.68750
1222.409, 140.7070
1222.891, 205.5938
1223.373, 206.9727
1223.855, 166.8047
1224.337, 142.7383
1224.819, 164.5234
1225.301, 182.5703
1225.784, 205.1172
1226.266, 194.8281
1226.748, 96.55078
1227.230, 39.89453
1227.712, 62.37500
1228.194, 0.2539060
1228.676, 67.37891
1229.158, 120.5859
1229.641, 163.5273
1230.123, 195.8984
1230.605, 221.4961
1231.087, 250.2188
1231.569, 271.4375
1232.051, 248.8359
1232.533, 195.7773
1233.015, 153.8750
1233.497, 133.4492
1233.979, 138.3438
1234.462, 183.3867
1234.944, 219.4336
1235.426, 183.7773
1235.908, 116.8711
1236.390, 99.09375
1236.872, 122.6133
1237.354, 150.8906
1237.836, 184.8828
1238.319, 198.1523
1238.801, 185.7383
1239.283, 179.3750
1239.765, 244.0000
1240.247, 320.2422
1240.729, 296.8711
1241.211, 186.2500
1241.693, 82.52344
1242.176, 31.89062
1242.658, 34.87500
1243.140, 110.1055
1243.622, 267.9648
1244.104, 303.6953
1244.586, 263.2852
1245.068, 168.1641
1245.550, 44.47266
1246.032, 28.68750
1246.515, 188.8945
1246.997, 254.9375
1247.479, 169.5430
1247.961, 75.43359
1248.443, 163.5938
1248.925, 297.9219
1249.407, 324.2148
1249.889, 249.3438
1250.371, 205.2031
1250.854, 211.3516
1251.336, 184.1680
1251.818, 101.7969
1252.300, 27.86328
1252.782, 27.37500
1253.264, 66.03516
1253.746, 132.7773
1254.228, 213.1406
1254.711, 228.6289
1255.193, 168.0781
1255.675, 155.1250
1256.157, 220.5391
1256.639, 290.6680
1257.121, 310.5820
1257.603, 298.5742
1258.085, 257.3320
1258.568, 190.9102
1259.050, 127.5352
1259.532, 62.14453
1260.014, 62.89062
1260.496, 152.7891
1260.978, 252.1211
1261.460, 313.1992
1261.942, 351.7148
1262.424, 379.5625
1262.906, 394.4336
1263.389, 377.8984
1263.871, 334.7969
1264.353, 299.3242
1264.835, 279.8320
1265.317, 265.9297
1265.799, 266.6875
1266.281, 252.2930
1266.763, 193.0078
1267.246, 118.4688
1267.728, 134.5352
1268.210, 212.2148
1268.692, 229.6836
1269.174, 144.5938
1269.656, 90.12891
1270.138, 161.8984
1270.620, 225.7227
1271.103, 240.9688
1271.585, 213.8047
1272.067, 140.3633
1272.549, 49.44141
1273.031, 21.82812
1273.513, 88.89062
1273.995, 127.6914
1274.477, 84.83984
1274.959, 69.26172
1275.442, 138.6016
1275.924, 232.3359
1276.406, 224.1172
1276.888, 163.6797
1277.370, 134.8203
1277.852, 154.9336
1278.334, 194.7500
1278.816, 264.9844
1279.298, 291.3594
1279.781, 229.1758
1280.263, 141.8555
1280.745, 116.0547
1281.227, 118.5938
1281.709, 97.67578
1282.191, 41.64062
1282.673, 44.23438
1283.155, 110.9492
1283.638, 192.4141
1284.120, 282.6211
1284.602, 347.4453
1285.084, 320.5195
1285.566, 273.6133
1286.048, 293.0039
1286.530, 373.3281
1287.012, 397.0781
1287.495, 366.2695
1287.977, 333.2773
1288.459, 315.1953
1288.941, 303.4414
1289.423, 302.0664
1289.905, 294.6914
1290.387, 265.5156
1290.869, 221.3398
1291.351, 196.4688
1291.833, 190.9492
1292.316, 209.2891
1292.798, 265.6055
1293.280, 303.8242
1293.762, 300.3242
1294.244, 267.0898
1294.726, 187.5195
1295.208, 96.67969
1295.690, 131.8594
1296.172, 235.9141
1296.655, 261.4062
1297.137, 138.3789
1297.619, 55.80469
1298.101, 43.89453
1298.583, 62.12500
1299.065, 99.82031
1299.547, 145.5391
1300.029, 193.0664
1300.512, 228.0352
1300.994, 219.1406
1301.476, 144.7578
1301.958, 107.6367
1302.440, 115.2305
1302.922, 125.0312
1303.404, 119.8359
1303.886, 110.1992
1304.369, 103.6875
1304.851, 102.2227
1305.333, 118.1406
1305.815, 149.4453
1306.297, 106.6250
1306.779, 8.074219
1307.261, 20.91797
1307.743, 171.4531
1308.225, 347.4453
1308.708, 331.7109
1309.190, 251.3789
1309.672, 187.7617
1310.154, 74.37500
1310.636, 79.64453
1311.118, 121.6797
1311.600, 121.3047
1312.082, 51.74219
1312.564, 0.0000000E+00
##END=



