##NAMES=Enstatite
##RRUFFID=R070097
##IDEAL CHEMISTRY=MgSiO_3_
##LOCALITY=Concord, Pennsylvania, USA
##OWNER=RRUFF
##SOURCE=Michael Scott
##DESCRIPTION=Pale brown bladed crystals frozen in matrix
##STATUS=The identification of this mineral has been confirmed by X-ray diffraction and chemical analysis
##URL=rruff.info/R070097
##MEASURED CHEMISTRY=(Mg_0.93_Fe_0.07_)_Î£=1_Si_1.00_O_3_
187.3600, 0.0000000E+00
187.8421, 51.14844
188.3243, 79.64453
188.8064, 5.332031
189.2885, 3.367188
189.7706, 128.3164
190.2527, 290.4805
190.7348, 405.2305
191.2170, 469.2578
191.6991, 549.6367
192.1812, 743.4492
192.6633, 1139.879
193.1454, 1384.328
193.6275, 1436.285
194.1097, 1401.457
194.5918, 1319.891
195.0739, 1207.188
195.5560, 1075.781
196.0381, 936.0312
196.5202, 776.4180
197.0024, 653.1094
197.4845, 574.7773
197.9666, 516.5781
198.4487, 470.6406
198.9308, 433.4844
199.4129, 399.7812
199.8951, 361.3945
200.3772, 310.6055
200.8593, 300.0430
201.3414, 364.1367
201.8235, 428.7891
202.3056, 456.4844
202.7878, 449.8789
203.2699, 436.2422
203.7520, 442.6914
204.2341, 475.7227
204.7162, 463.9922
205.1983, 383.1719
205.6805, 290.4375
206.1626, 191.2266
206.6447, 97.44922
207.1268, 31.53516
207.6089, 11.98438
208.0910, 39.26172
208.5732, 82.72266
209.0553, 182.6953
209.5374, 255.9805
210.0195, 261.5430
210.5016, 217.0430
210.9837, 160.1484
211.4659, 112.0039
211.9480, 75.08203
212.4301, 84.49219
212.9122, 196.2656
213.3943, 289.4492
213.8764, 317.8164
214.3586, 307.0938
214.8407, 304.4297
215.3228, 337.2891
215.8049, 399.2188
216.2870, 454.8516
216.7691, 505.2969
217.2513, 547.8320
217.7334, 588.2070
218.2155, 618.7344
218.6976, 621.1016
219.1797, 584.8477
219.6618, 529.0273
220.1440, 515.0391
220.6261, 592.6836
221.1082, 655.8867
221.5903, 696.8281
222.0724, 720.0234
222.5546, 727.3281
223.0367, 719.6211
223.5188, 702.8516
224.0009, 690.2031
224.4830, 691.2539
224.9651, 683.4023
225.4473, 664.3242
225.9294, 637.7031
226.4115, 604.7305
226.8936, 566.4141
227.3757, 526.6133
227.8578, 491.6172
228.3400, 463.7266
228.8221, 436.8711
229.3042, 388.0938
229.7863, 355.2812
230.2684, 378.6172
230.7505, 458.9414
231.2327, 552.9375
231.7148, 605.6680
232.1969, 602.1016
232.6790, 602.8945
233.1611, 615.3203
233.6432, 625.5352
234.1254, 616.3516
234.6075, 593.1680
235.0896, 583.0586
235.5717, 616.9414
236.0538, 706.3945
236.5359, 760.0391
237.0181, 756.7969
237.5002, 743.1328
237.9823, 730.3477
238.4644, 722.3086
238.9465, 724.1484
239.4286, 742.4531
239.9108, 776.3828
240.3929, 786.7305
240.8750, 745.5625
241.3571, 710.0977
241.8392, 693.0039
242.3213, 697.3477
242.8035, 718.2617
243.2856, 766.7266
243.7677, 832.0938
244.2498, 844.3203
244.7319, 716.8984
245.2140, 627.4727
245.6962, 642.8750
246.1783, 707.1016
246.6604, 760.0000
247.1425, 774.2461
247.6246, 752.7539
248.1067, 696.8828
248.5889, 558.5078
249.0710, 466.5000
249.5531, 451.2500
250.0352, 470.1992
250.5173, 492.9258
250.9994, 508.6641
251.4816, 516.7812
251.9637, 514.1211
252.4458, 492.0312
252.9279, 480.4688
253.4100, 496.2031
253.8921, 510.0820
254.3743, 497.9883
254.8564, 460.8281
255.3385, 423.2422
255.8206, 416.4453
256.3027, 448.8789
256.7848, 468.0078
257.2669, 455.1719
257.7491, 442.6289
258.2312, 437.1797
258.7133, 443.1680
259.1954, 470.2656
259.6775, 541.9375
260.1596, 651.3477
260.6418, 694.7695
261.1239, 618.0820
261.6060, 537.2227
262.0881, 483.0430
262.5702, 454.3477
263.0523, 450.3359
263.5345, 481.9688
264.0166, 528.4492
264.4987, 514.1992
264.9808, 391.7422
265.4629, 302.4648
265.9450, 312.3750
266.4272, 368.2109
266.9093, 416.4102
267.3914, 440.2695
267.8735, 440.1484
268.3556, 403.6680
268.8377, 315.0273
269.3199, 258.3164
269.8020, 304.0586
270.2841, 366.9102
270.7662, 383.2266
271.2483, 340.2539
271.7304, 278.0820
272.2126, 229.7734
272.6947, 195.1562
273.1768, 173.2539
273.6589, 164.0742
274.1410, 169.0938
274.6231, 190.0391
275.1053, 226.0547
275.5874, 267.6953
276.0695, 328.6133
276.5516, 393.4531
277.0337, 395.8047
277.5158, 296.9219
277.9980, 202.4727
278.4801, 209.7891
278.9622, 287.2422
279.4443, 355.7188
279.9264, 381.6641
280.4085, 384.6172
280.8907, 394.1484
281.3728, 412.4961
281.8549, 422.5078
282.3370, 394.6172
282.8191, 354.3125
283.3012, 363.7422
283.7834, 480.4727
284.2655, 593.2422
284.7476, 591.5820
285.2297, 494.2070
285.7118, 425.2969
286.1939, 447.1602
286.6761, 522.6172
287.1582, 571.5039
287.6403, 592.8008
288.1224, 594.2812
288.6045, 555.9766
289.0866, 502.7305
289.5688, 492.5547
290.0509, 549.4961
290.5330, 622.3086
291.0151, 635.0195
291.4972, 580.1016
291.9793, 508.5352
292.4615, 404.0234
292.9436, 298.1445
293.4257, 228.1602
293.9078, 196.9531
294.3899, 170.5859
294.8720, 116.6211
295.3542, 31.51172
295.8363, 42.79297
296.3184, 130.1484
296.8005, 185.8242
297.2826, 176.2969
297.7647, 114.0000
298.2469, 32.12891
298.7290, 52.52734
299.2111, 135.7578
299.6932, 192.3633
300.1753, 204.5352
300.6574, 212.1797
301.1396, 219.2383
301.6217, 225.7734
302.1038, 230.3438
302.5859, 232.4844
303.0680, 235.0977
303.5501, 244.1719
304.0323, 264.8750
304.5144, 283.4180
304.9965, 308.2031
305.4786, 325.0625
305.9607, 316.1836
306.4428, 284.0625
306.9250, 254.6133
307.4071, 262.9375
307.8892, 320.8164
308.3713, 332.9297
308.8534, 227.4375
309.3355, 142.8477
309.8177, 145.2344
310.2998, 204.4766
310.7819, 250.2031
311.2640, 234.4922
311.7461, 172.0039
312.2282, 124.7148
312.7104, 103.4141
313.1925, 78.01172
313.6746, 17.62891
314.1567, 41.80859
314.6388, 51.21875
315.1209, 12.26953
315.6031, 90.24219
316.0852, 91.17578
316.5673, 2.121094
317.0494, 57.04688
317.5315, 37.19531
318.0136, 6.761719
318.4958, 35.65234
318.9779, 47.16797
319.4600, 51.43359
319.9421, 50.21875
320.4242, 46.60938
320.9063, 49.58984
321.3885, 56.02734
321.8706, 78.57812
322.3527, 139.0000
322.8348, 225.1133
323.3169, 303.8867
323.7990, 378.0078
324.2812, 432.8281
324.7633, 444.9453
325.2454, 414.9492
325.7275, 374.3086
326.2096, 336.8711
326.6917, 302.4844
327.1739, 268.0078
327.6560, 219.6562
328.1381, 191.8438
328.6202, 214.2969
329.1023, 266.8984
329.5844, 303.0820
330.0666, 304.0625
330.5487, 301.2852
331.0308, 354.8359
331.5129, 507.0586
331.9950, 588.5938
332.4771, 543.8125
332.9593, 455.6289
333.4414, 389.9609
333.9235, 353.3711
334.4056, 304.8516
334.8877, 198.2344
335.3698, 26.74219
335.8520, 43.91016
336.3341, 84.82031
336.8162, 194.2500
337.2983, 197.0273
337.7804, 136.2578
338.2625, 92.72656
338.7447, 108.5625
339.2268, 158.3789
339.7089, 172.8086
340.1910, 128.0312
340.6731, 87.51562
341.1552, 34.55469
341.6374, 2.429688
342.1195, 32.48828
342.6016, 122.9961
343.0837, 216.0195
343.5658, 234.1172
344.0479, 161.1523
344.5301, 134.0703
345.0122, 185.8320
345.4943, 255.2109
345.9764, 319.2695
346.4585, 378.7734
346.9406, 439.9258
347.4228, 512.7461
347.9049, 584.2812
348.3870, 622.5547
348.8691, 620.2305
349.3512, 614.8594
349.8333, 606.0781
350.3155, 611.1172
350.7976, 660.9570
351.2797, 775.7383
351.7618, 876.5273
352.2439, 882.1250
352.7260, 819.4336
353.2082, 794.0430
353.6903, 832.7773
354.1724, 907.8711
354.6545, 1000.902
355.1366, 1111.203
355.6187, 1208.391
356.1009, 1286.820
356.5830, 1350.602
357.0651, 1398.227
357.5472, 1432.141
358.0293, 1473.352
358.5114, 1540.820
358.9936, 1628.383
359.4757, 1687.160
359.9578, 1698.121
360.4399, 1707.855
360.9220, 1734.508
361.4041, 1766.707
361.8863, 1801.055
362.3684, 1839.504
362.8505, 1843.168
363.3326, 1744.355
363.8147, 1469.027
364.2968, 1262.656
364.7790, 1159.957
365.2611, 1087.902
365.7432, 1013.730
366.2253, 930.7109
366.7074, 839.4062
367.1895, 735.9102
367.6717, 623.7188
368.1538, 528.7109
368.6359, 443.1914
369.1180, 389.9648
369.6001, 384.0547
370.0822, 406.0195
370.5644, 438.2070
371.0465, 475.9961
371.5286, 508.9961
372.0107, 517.4570
372.4928, 499.4219
372.9749, 495.4297
373.4571, 530.6172
373.9392, 561.0312
374.4213, 550.1445
374.9034, 500.7383
375.3855, 446.0000
375.8676, 395.5469
376.3498, 351.5234
376.8319, 312.7070
377.3140, 277.0273
377.7961, 272.4180
378.2782, 348.7539
378.7603, 464.3984
379.2425, 481.9844
379.7246, 314.5898
380.2067, 163.5039
380.6888, 148.2539
381.1709, 215.9688
381.6530, 265.6914
382.1352, 264.6602
382.6173, 227.4375
383.0994, 173.9492
383.5815, 89.08984
384.0636, 36.82812
384.5457, 35.26172
385.0279, 50.28906
385.5100, 58.58594
385.9921, 61.50391
386.4742, 77.58594
386.9563, 123.0000
387.4384, 189.7773
387.9206, 228.7891
388.4027, 240.7930
388.8848, 220.1211
389.3669, 120.7930
389.8490, 15.28906
390.3311, 20.69922
390.8133, 30.50391
391.2954, 116.0820
391.7775, 177.7344
392.2596, 214.5977
392.7417, 229.2812
393.2238, 201.6406
393.7060, 175.8281
394.1881, 188.8789
394.6702, 224.3672
395.1523, 242.8203
395.6344, 228.5000
396.1165, 187.1836
396.5987, 107.1523
397.0808, 13.65234
397.5629, 86.05859
398.0450, 53.23047
398.5271, 31.17578
399.0092, 76.91406
399.4914, 81.33594
399.9735, 60.62109
400.4556, 12.69531
400.9377, 92.94531
401.4198, 106.3008
401.9019, 43.85938
402.3841, 31.62500
402.8662, 63.14844
403.3483, 49.16797
403.8304, 35.89062
404.3125, 20.07031
404.7946, 8.687500
405.2768, 8.375000
405.7589, 13.10156
406.2410, 12.11719
406.7231, 0.9960940
407.2052, 14.32031
407.6873, 23.17578
408.1695, 24.73438
408.6516, 21.16797
409.1337, 3.664063
409.6158, 10.74609
410.0979, 10.20312
410.5800, 2.210938
411.0622, 15.38672
411.5443, 25.69922
412.0264, 29.06250
412.5085, 6.253906
412.9906, 55.26953
413.4727, 107.3008
413.9549, 127.5430
414.4370, 129.7266
414.9191, 120.6016
415.4012, 97.30859
415.8833, 85.25781
416.3654, 107.2695
416.8476, 153.5469
417.3297, 211.2734
417.8118, 288.0742
418.2939, 325.9453
418.7760, 243.5195
419.2581, 49.35156
419.7403, 62.93750
420.2224, 51.44141
420.7045, 9.328125
421.1866, 120.1289
421.6687, 247.7656
422.1508, 316.2109
422.6330, 291.5039
423.1151, 218.9570
423.5972, 189.6055
424.0793, 246.9102
424.5614, 258.7969
425.0435, 174.4414
425.5257, 93.58203
426.0078, 85.09766
426.4899, 136.0312
426.9720, 186.2578
427.4541, 188.7578
427.9362, 162.0000
428.4184, 191.0000
428.9005, 318.6758
429.3826, 406.2812
429.8647, 368.4531
430.3468, 301.3789
430.8289, 290.8281
431.3111, 351.3672
431.7932, 423.4844
432.2753, 473.6445
432.7574, 500.7891
433.2395, 500.9492
433.7216, 472.8594
434.2038, 419.0625
434.6859, 321.0586
435.1680, 195.8477
435.6501, 116.7891
436.1322, 112.8633
436.6143, 129.6016
437.0965, 158.7969
437.5786, 186.8867
438.0607, 178.5117
438.5428, 120.9922
439.0249, 56.38672
439.5070, 49.21484
439.9892, 130.1445
440.4713, 165.5273
440.9534, 121.8398
441.4355, 71.10156
441.9176, 33.35938
442.3997, 16.24609
442.8819, 32.41406
443.3640, 92.50781
443.8461, 173.7617
444.3282, 224.8672
444.8103, 244.2188
445.2924, 241.3906
445.7746, 196.5664
446.2567, 146.5039
446.7388, 114.2070
447.2209, 99.12891
447.7030, 87.05859
448.1852, 63.29297
448.6673, 42.03125
449.1494, 45.83984
449.6315, 76.33594
450.1136, 112.0781
450.5957, 146.2812
451.0779, 175.5117
451.5600, 192.8750
452.0421, 200.3086
452.5242, 193.3594
453.0063, 161.0000
453.4884, 118.6641
453.9706, 71.54297
454.4527, 26.29297
454.9348, 15.86719
455.4169, 78.45703
455.8990, 214.6406
456.3811, 292.4883
456.8633, 266.8359
457.3454, 223.9961
457.8275, 134.9102
458.3096, 54.04688
458.7917, 57.22656
459.2738, 163.1914
459.7560, 288.6211
460.2381, 317.9609
460.7202, 249.8945
461.2023, 234.2305
461.6844, 305.5039
462.1665, 383.5742
462.6487, 424.7539
463.1308, 437.2930
463.6129, 432.9883
464.0950, 403.8672
464.5771, 383.8164
465.0592, 411.7812
465.5414, 470.2930
466.0235, 507.1992
466.5056, 507.3008
466.9877, 495.4531
467.4698, 503.5859
467.9519, 538.5938
468.4341, 536.8750
468.9162, 464.7656
469.3983, 390.9922
469.8804, 347.5703
470.3625, 329.1094
470.8446, 323.2812
471.3268, 323.0234
471.8089, 323.6602
472.2910, 317.1250
472.7731, 303.4375
473.2552, 282.3555
473.7373, 249.4062
474.2195, 212.2891
474.7015, 164.5859
475.1837, 115.0586
475.6658, 84.64062
476.1479, 87.51172
476.6300, 109.2539
477.1121, 130.6055
477.5942, 147.4805
478.0764, 167.6016
478.5585, 199.7266
479.0406, 229.1133
479.5227, 229.7812
480.0048, 200.4727
480.4869, 176.3398
480.9691, 162.2969
481.4512, 158.2109
481.9333, 169.0195
482.4154, 189.4727
482.8975, 207.8398
483.3796, 218.7617
483.8618, 220.7578
484.3439, 206.5742
484.8260, 145.0195
485.3081, 126.5859
485.7902, 200.3320
486.2723, 271.5664
486.7545, 274.1953
487.2366, 221.1836
487.7187, 167.8008
488.2008, 143.8320
488.6829, 148.5273
489.1650, 191.9023
489.6472, 282.7812
490.1293, 342.5156
490.6114, 326.9609
491.0935, 285.3945
491.5756, 278.7070
492.0577, 308.3633
492.5399, 334.7852
493.0220, 346.9297
493.5041, 348.8867
493.9862, 339.8516
494.4683, 322.5938
494.9504, 312.9609
495.4326, 323.8438
495.9147, 338.7773
496.3968, 309.5703
496.8789, 181.7734
497.3610, 92.51172
497.8431, 54.07812
498.3253, 43.16797
498.8074, 62.81250
499.2895, 98.30469
499.7716, 114.1484
500.2537, 75.51172
500.7358, 10.92578
501.2180, 2.824219
501.7001, 43.61719
502.1822, 90.28125
502.6643, 128.8984
503.1464, 153.7109
503.6285, 148.4453
504.1107, 114.5742
504.5928, 107.9102
505.0749, 186.0703
505.5570, 275.9609
506.0391, 293.6523
506.5212, 246.9609
507.0034, 198.4141
507.4855, 178.9531
507.9676, 179.5469
508.4497, 180.1328
508.9318, 177.5508
509.4139, 180.8125
509.8961, 188.0078
510.3782, 204.8477
510.8603, 240.3828
511.3424, 284.7656
511.8245, 319.1094
512.3066, 334.2383
512.7888, 333.9336
513.2709, 317.3945
513.7530, 284.0391
514.2351, 247.4375
514.7172, 186.1797
515.1993, 139.4297
515.6815, 153.5430
516.1636, 214.2109
516.6457, 242.7070
517.1278, 193.4414
517.6099, 121.6172
518.0920, 68.80859
518.5742, 33.21484
519.0563, 3.550781
519.5384, 24.86719
520.0205, 40.97656
520.5026, 23.34766
520.9847, 48.35938
521.4669, 81.93750
521.9490, 38.64453
522.4311, 3.128906
522.9132, 20.42188
523.3953, 65.91797
523.8774, 95.27344
524.3596, 89.43359
524.8417, 70.23047
525.3238, 67.23438
525.8059, 79.93359
526.2880, 89.72266
526.7701, 90.74609
527.2523, 95.57031
527.7344, 125.3516
528.2165, 166.9062
528.6986, 182.4219
529.1807, 150.6445
529.6628, 112.2109
530.1450, 82.47266
530.6271, 61.38281
531.1092, 50.42578
531.5913, 49.41797
532.0734, 52.55469
532.5555, 53.71484
533.0377, 52.45703
533.5198, 56.70312
534.0019, 77.36719
534.4840, 90.83594
534.9661, 88.77734
535.4482, 79.76172
535.9304, 68.62891
536.4125, 57.41797
536.8946, 55.58203
537.3767, 84.91016
537.8588, 128.9961
538.3409, 129.6719
538.8231, 78.24219
539.3052, 40.67578
539.7873, 56.87891
540.2694, 106.1758
540.7515, 141.2188
541.2336, 164.1953
541.7158, 169.9961
542.1979, 145.0391
542.6800, 111.6055
543.1621, 80.81250
543.6442, 59.17188
544.1263, 62.05859
544.6085, 103.1172
545.0906, 159.4688
545.5727, 161.7305
546.0548, 85.24609
546.5369, 29.23047
547.0190, 12.44922
547.5012, 14.86719
547.9833, 32.93359
548.4654, 61.53906
548.9475, 86.67188
549.4296, 109.2617
549.9117, 118.9023
550.3939, 93.86719
550.8760, 45.23438
551.3581, 13.90625
551.8402, 13.10156
552.3223, 23.50000
552.8044, 21.39844
553.2866, 3.398438
553.7687, 3.238281
554.2508, 34.35156
554.7329, 64.80469
555.2150, 96.05469
555.6971, 115.1797
556.1793, 94.13672
556.6614, 31.42578
557.1435, 21.33984
557.6256, 1.144531
558.1077, 85.51172
558.5898, 143.4766
559.0720, 174.1758
559.5541, 183.3047
560.0362, 157.4492
560.5183, 116.7031
561.0004, 103.4570
561.4825, 131.5820
561.9647, 138.9375
562.4468, 81.03906
562.9289, 13.04297
563.4110, 15.91406
563.8931, 5.546875
564.3752, 29.13281
564.8574, 82.01562
565.3395, 139.0977
565.8216, 165.0586
566.3037, 156.0859
566.7858, 125.9883
567.2679, 43.21875
567.7501, 30.01172
568.2322, 71.60938
568.7143, 79.26172
569.1964, 43.28906
569.6785, 73.39062
570.1606, 173.6484
570.6428, 121.3398
571.1249, 24.30859
571.6070, 72.54688
572.0891, 22.60156
572.5712, 142.8047
573.0533, 172.8320
573.5355, 117.5195
574.0176, 117.9531
574.4997, 242.8125
574.9818, 332.4023
575.4639, 345.0234
575.9460, 320.2070
576.4282, 286.3867
576.9103, 252.5859
577.3924, 225.5664
577.8745, 214.4453
578.3566, 216.9414
578.8387, 223.1406
579.3209, 226.6797
579.8030, 220.6523
580.2851, 198.6055
580.7672, 174.6641
581.2493, 168.0625
581.7314, 178.7930
582.2136, 189.0547
582.6957, 202.9492
583.1778, 209.4883
583.6599, 203.4531
584.1420, 185.3555
584.6241, 145.8906
585.1063, 84.99219
585.5884, 37.97266
586.0705, 62.52734
586.5526, 162.4062
587.0347, 232.2344
587.5168, 271.2969
587.9990, 280.3945
588.4811, 231.5469
588.9632, 165.8320
589.4453, 134.4023
589.9274, 147.6328
590.4095, 165.6094
590.8917, 176.8047
591.3738, 178.7500
591.8559, 156.0039
592.3380, 117.2109
592.8201, 107.1367
593.3022, 152.3867
593.7844, 222.9180
594.2665, 249.9883
594.7486, 212.0781
595.2307, 185.9297
595.7128, 196.2109
596.1949, 192.6094
596.6771, 124.6367
597.1592, 35.17578
597.6413, 9.289063
598.1234, 86.29688
598.6055, 180.0664
599.0876, 217.6289
599.5698, 215.2930
600.0519, 205.3164
600.5340, 191.9062
601.0161, 192.3984
601.4982, 225.8594
601.9803, 277.4219
602.4625, 285.9180
602.9446, 189.6094
603.4267, 139.1602
603.9088, 166.0039
604.3909, 211.5078
604.8730, 249.4648
605.3552, 274.2891
605.8373, 283.1875
606.3194, 274.5664
606.8015, 248.6523
607.2836, 191.9570
607.7657, 112.6719
608.2479, 67.99609
608.7300, 72.23438
609.2121, 94.03906
609.6942, 112.9375
610.1763, 128.5977
610.6584, 135.6250
611.1406, 134.0352
611.6227, 124.1992
612.1048, 94.50000
612.5869, 65.71484
613.0690, 57.89062
613.5511, 69.70703
614.0333, 88.16797
614.5154, 107.7930
614.9975, 120.0273
615.4796, 100.9375
615.9617, 48.62891
616.4438, 44.20703
616.9260, 124.7852
617.4081, 219.2344
617.8902, 269.7422
618.3723, 276.3828
618.8544, 250.2891
619.3365, 133.8047
619.8187, 55.17969
620.3008, 89.41406
620.7829, 163.7539
621.2650, 201.6562
621.7471, 193.6875
622.2292, 163.2578
622.7114, 121.6680
623.1935, 78.21094
623.6756, 67.49219
624.1577, 96.67188
624.6398, 111.7617
625.1219, 89.42969
625.6041, 60.58203
626.0862, 68.71484
626.5683, 105.9805
627.0504, 114.2148
627.5325, 53.80078
628.0146, 2.242188
628.4968, 25.41797
628.9789, 24.30078
629.4610, 4.507813
629.9431, 60.60938
630.4252, 99.37109
630.9073, 82.33203
631.3895, 24.40625
631.8716, 13.39453
632.3537, 28.69922
632.8358, 33.37500
633.3179, 26.82812
633.8000, 14.00781
634.2822, 11.55469
634.7643, 43.99219
635.2464, 44.81641
635.7285, 47.48047
636.2106, 113.0859
636.6927, 51.87109
637.1749, 57.32812
637.6570, 96.75000
638.1391, 50.25781
638.6212, 13.28125
639.1033, 36.92578
639.5854, 27.23438
640.0676, 10.50781
640.5497, 15.39453
641.0318, 41.24219
641.5139, 73.78906
641.9960, 95.83203
642.4781, 83.42188
642.9603, 44.54297
643.4424, 21.61328
643.9245, 22.14062
644.4066, 41.16016
644.8887, 101.7891
645.3708, 167.5312
645.8530, 175.7617
646.3351, 125.2852
646.8172, 78.80469
647.2993, 91.81250
647.7814, 144.3086
648.2635, 157.7734
648.7457, 119.0430
649.2278, 99.52344
649.7099, 127.8828
650.1920, 162.3438
650.6741, 169.1094
651.1563, 152.8320
651.6384, 129.6406
652.1205, 74.18750
652.6026, 46.50781
653.0847, 101.2891
653.5668, 182.5195
654.0490, 218.8906
654.5311, 205.8555
655.0132, 188.5430
655.4953, 203.3906
655.9774, 228.0938
656.4595, 183.5820
656.9417, 48.85938
657.4238, 13.32031
657.9059, 41.46484
658.3880, 147.4062
658.8701, 287.4492
659.3522, 439.6758
659.8344, 527.2773
660.3165, 500.0117
660.7986, 473.4414
661.2807, 486.5078
661.7628, 517.3984
662.2449, 537.1289
662.7271, 551.8945
663.2092, 600.5312
663.6913, 712.1992
664.1734, 840.9883
664.6555, 875.5312
665.1376, 811.8750
665.6198, 834.3242
666.1019, 993.3047
666.5840, 1167.086
667.0661, 1267.906
667.5482, 1322.090
668.0303, 1417.449
668.5125, 1581.656
668.9946, 1729.047
669.4767, 1821.305
669.9588, 1910.098
670.4409, 2029.113
670.9230, 2177.062
671.4052, 2349.246
671.8873, 2544.000
672.3694, 2735.309
672.8515, 2888.270
673.3336, 3005.477
673.8157, 3107.383
674.2979, 3197.879
674.7800, 3255.816
675.2621, 3264.230
675.7442, 3239.027
676.2263, 3220.535
676.7084, 3242.938
677.1906, 3175.934
677.6727, 2951.082
678.1548, 2705.332
678.6369, 2495.316
679.1190, 2310.090
679.6011, 2126.859
680.0833, 1938.930
680.5654, 1764.277
681.0475, 1619.586
681.5296, 1500.133
682.0117, 1398.668
682.4938, 1314.164
682.9760, 1221.910
683.4581, 1110.719
683.9402, 994.9961
684.4223, 891.2070
684.9044, 796.1953
685.3865, 739.7969
685.8687, 757.6367
686.3508, 770.6719
686.8329, 784.9023
687.3150, 774.0977
687.7971, 684.0859
688.2792, 526.4062
688.7614, 416.6055
689.2435, 470.6602
689.7256, 559.1328
690.2077, 522.3984
690.6898, 403.8984
691.1719, 324.7422
691.6541, 314.6016
692.1362, 326.1367
692.6183, 314.9531
693.1004, 286.6641
693.5825, 279.9648
694.0646, 310.2344
694.5468, 326.8008
695.0289, 293.4102
695.5110, 266.8516
695.9931, 296.7617
696.4752, 364.2656
696.9573, 407.9648
697.4395, 404.8203
697.9216, 392.8164
698.4037, 400.2930
698.8858, 404.0664
699.3679, 361.8984
699.8500, 284.5469
700.3322, 229.1016
700.8143, 229.7695
701.2964, 263.1797
701.7785, 293.0664
702.2606, 320.5117
702.7427, 308.9688
703.2249, 230.4727
703.7070, 182.4805
704.1891, 247.7227
704.6712, 364.9922
705.1533, 393.7422
705.6354, 304.4648
706.1176, 233.4648
706.5997, 214.3789
707.0818, 201.9805
707.5639, 155.0078
708.0460, 102.6484
708.5281, 101.5391
709.0103, 164.7305
709.4924, 237.9102
709.9745, 274.9336
710.4566, 283.0039
710.9387, 275.1484
711.4208, 252.4844
711.9030, 227.9844
712.3851, 204.1562
712.8672, 187.8398
713.3493, 185.8398
713.8314, 197.9922
714.3135, 232.0625
714.7957, 326.3750
715.2778, 388.5625
715.7599, 390.6797
716.2420, 371.0312
716.7241, 352.8906
717.2062, 335.9609
717.6884, 305.8359
718.1705, 230.6367
718.6526, 181.3242
719.1347, 246.3711
719.6168, 360.0312
720.0989, 401.4922
720.5811, 366.2266
721.0632, 339.2695
721.5453, 379.9531
722.0274, 445.1172
722.5095, 417.5156
722.9916, 273.4180
723.4738, 206.3398
723.9559, 265.3125
724.4380, 326.6289
724.9201, 317.8906
725.4022, 266.5508
725.8843, 227.8867
726.3665, 204.3750
726.8486, 185.2617
727.3307, 156.3906
727.8128, 144.3516
728.2949, 176.9180
728.7770, 231.9023
729.2592, 284.7812
729.7413, 324.7930
730.2234, 330.1250
730.7055, 250.7344
731.1876, 136.0703
731.6697, 109.9219
732.1519, 161.8789
732.6340, 190.9258
733.1161, 165.1836
733.5982, 132.1367
734.0803, 144.1680
734.5624, 195.1992
735.0446, 203.6016
735.5267, 119.5430
736.0088, 78.25391
736.4909, 144.5547
736.9730, 210.6328
737.4551, 201.9219
737.9373, 140.0195
738.4194, 86.56641
738.9015, 48.47266
739.3836, 44.59766
739.8657, 118.8125
740.3478, 210.8906
740.8300, 253.0430
741.3121, 247.1875
741.7942, 216.7305
742.2763, 172.3438
742.7584, 134.1406
743.2405, 142.8594
743.7227, 192.5312
744.2048, 194.1484
744.6869, 135.0938
745.1690, 97.56641
745.6511, 119.1367
746.1332, 166.2344
746.6154, 196.7578
747.0975, 210.6484
747.5796, 229.9023
748.0617, 247.6992
748.5438, 272.5781
749.0259, 342.5703
749.5081, 396.0039
749.9902, 354.6055
750.4723, 235.8438
750.9544, 136.8945
751.4365, 100.4023
751.9186, 98.48828
752.4008, 119.0195
752.8829, 154.4023
753.3650, 197.5312
753.8471, 241.8203
754.3292, 255.5039
754.8113, 215.9648
755.2935, 157.7188
755.7756, 161.7539
756.2577, 240.3594
756.7398, 253.1406
757.2219, 169.3672
757.7040, 85.19531
758.1862, 37.05469
758.6683, 18.71094
759.1504, 27.63672
759.6325, 68.04688
760.1146, 101.0391
760.5967, 131.9062
761.0789, 139.6172
761.5610, 100.6367
762.0431, 50.32422
762.5252, 21.24219
763.0073, 18.57422
763.4894, 38.77344
763.9716, 97.82812
764.4537, 150.5078
764.9358, 119.1484
765.4179, 44.37500
765.9000, 41.85938
766.3821, 120.0430
766.8643, 174.7227
767.3464, 133.4375
767.8285, 47.99609
768.3106, 48.94531
768.7927, 161.0547
769.2748, 198.9180
769.7570, 117.0391
770.2391, 44.95703
770.7212, 51.70703
771.2033, 97.00000
771.6854, 124.3516
772.1675, 135.5664
772.6497, 117.8125
773.1318, 23.85938
773.6139, 44.39844
774.0960, 21.97656
774.5781, 30.49609
775.0602, 45.11328
775.5424, 18.21875
776.0245, 11.08984
776.5066, 26.29297
776.9887, 25.62891
777.4708, 9.558594
777.9529, 58.21484
778.4351, 66.87891
778.9172, 32.47656
779.3993, 12.77344
779.8814, 51.83203
780.3635, 75.12891
780.8456, 56.55078
781.3278, 9.765625
781.8099, 63.79688
782.2920, 107.3633
782.7741, 130.2422
783.2562, 119.5703
783.7383, 93.99609
784.2205, 77.79688
784.7026, 71.35938
785.1847, 67.80469
785.6668, 45.17188
786.1489, 53.10938
786.6310, 146.8828
787.1132, 246.5391
787.5953, 260.7578
788.0774, 208.7070
788.5595, 191.6719
789.0416, 276.6758
789.5237, 358.2812
790.0059, 318.2539
790.4880, 224.2305
790.9701, 187.5625
791.4522, 208.7461
791.9343, 239.4570
792.4164, 257.8828
792.8986, 261.0664
793.3807, 229.4648
793.8628, 167.2578
794.3449, 141.2109
794.8270, 156.3281
795.3091, 181.7461
795.7913, 214.5195
796.2734, 239.2812
796.7555, 238.7500
797.2376, 213.7109
797.7197, 182.5352
798.2018, 137.8750
798.6840, 97.21094
799.1661, 53.66016
799.6482, 22.29297
800.1303, 20.39453
800.6124, 35.85547
801.0945, 42.88281
801.5767, 35.18359
802.0588, 19.72266
802.5409, 12.67578
803.0230, 40.24219
803.5051, 31.00391
803.9872, 4.000000
804.4694, 10.39844
804.9515, 59.83984
805.4336, 95.23438
805.9157, 52.64453
806.3978, 29.39062
806.8799, 58.88672
807.3621, 41.58594
807.8442, 16.32812
808.3263, 10.44141
808.8084, 19.71875
809.2905, 5.851563
809.7726, 54.79297
810.2548, 95.30078
810.7369, 134.0195
811.2190, 142.4961
811.7011, 97.62500
812.1832, 55.72656
812.6653, 45.91016
813.1475, 50.83594
813.6296, 44.94531
814.1117, 26.43359
814.5938, 18.81641
815.0759, 29.89062
815.5580, 46.67969
816.0402, 82.65625
816.5223, 109.1562
817.0044, 76.98828
817.4865, 5.882813
817.9686, 24.46094
818.4507, 30.85938
818.9329, 113.7500
819.4150, 201.1367
819.8971, 266.8320
820.3792, 248.9961
820.8613, 166.7344
821.3434, 101.4531
821.8256, 88.10547
822.3077, 100.9453
822.7898, 109.4492
823.2719, 116.9375
823.7540, 145.5664
824.2361, 197.8125
824.7183, 221.9648
825.2004, 201.1094
825.6825, 162.2930
826.1646, 121.8672
826.6467, 85.58203
827.1288, 82.23047
827.6110, 133.0703
828.0931, 172.2578
828.5752, 206.1680
829.0573, 217.7188
829.5394, 183.3945
830.0215, 131.1445
830.5037, 96.64062
830.9858, 83.26562
831.4679, 83.93750
831.9500, 118.8438
832.4321, 149.5352
832.9142, 146.5273
833.3964, 135.5781
833.8785, 144.8242
834.3606, 174.7539
834.8427, 214.9844
835.3248, 274.2656
835.8069, 310.9727
836.2891, 245.1367
836.7712, 145.7266
837.2533, 151.1445
837.7354, 243.2500
838.2175, 303.6484
838.6996, 286.4844
839.1818, 235.6523
839.6639, 191.4336
840.1460, 154.7383
840.6281, 127.9219
841.1102, 110.6445
841.5923, 117.1055
842.0745, 153.9648
842.5566, 200.3750
843.0387, 246.4336
843.5208, 284.9297
844.0029, 287.0625
844.4850, 232.6914
844.9672, 194.5273
845.4492, 190.5117
845.9313, 178.7773
846.4135, 111.7695
846.8956, 44.26953
847.3777, 59.30469
847.8598, 162.3438
848.3419, 224.1172
848.8240, 213.3203
849.3062, 177.0547
849.7883, 84.71484
850.2704, 9.910156
850.7525, 43.91406
851.2346, 150.3984
851.7167, 214.5859
852.1989, 188.4961
852.6810, 150.7070
853.1631, 150.9570
853.6452, 171.0820
854.1273, 199.1680
854.6094, 228.3438
855.0916, 250.5234
855.5737, 262.1680
856.0558, 255.0156
856.5379, 213.8320
857.0200, 161.7344
857.5021, 148.4648
857.9843, 166.1992
858.4664, 177.7734
858.9485, 178.3086
859.4306, 181.2461
859.9127, 197.8164
860.3948, 211.3672
860.8770, 185.5156
861.3591, 116.5273
861.8412, 102.8242
862.3233, 158.8672
862.8054, 204.0898
863.2875, 215.7031
863.7697, 215.9844
864.2518, 221.5625
864.7339, 227.8516
865.2160, 234.0273
865.6981, 249.6562
866.1802, 247.1523
866.6624, 224.1680
867.1445, 189.6172
867.6266, 125.3750
868.1087, 59.90234
868.5908, 37.08203
869.0729, 62.31641
869.5551, 99.30859
870.0372, 164.3984
870.5193, 208.0156
871.0014, 189.6758
871.4835, 155.5195
871.9656, 155.9336
872.4478, 178.8828
872.9299, 178.1562
873.4120, 130.2109
873.8941, 77.14453
874.3762, 36.71875
874.8583, 18.26172
875.3405, 42.90625
875.8226, 94.66797
876.3047, 145.8984
876.7868, 183.6914
877.2689, 201.4766
877.7510, 193.3281
878.2332, 165.2891
878.7153, 110.1250
879.1974, 44.22266
879.6795, 43.42188
880.1616, 112.4961
880.6437, 181.9258
881.1259, 216.6055
881.6080, 231.9297
882.0901, 255.2148
882.5722, 283.8008
883.0543, 263.2109
883.5364, 182.6367
884.0186, 128.2344
884.5007, 122.9883
884.9828, 134.2773
885.4649, 139.5469
885.9470, 136.9180
886.4291, 118.7969
886.9113, 68.22266
887.3934, 45.17578
887.8755, 59.48438
888.3576, 86.69141
888.8397, 138.0625
889.3218, 183.5625
889.8040, 180.3633
890.2861, 131.2812
890.7682, 99.53125
891.2503, 118.2383
891.7324, 116.3594
892.2145, 50.25000
892.6967, 19.37500
893.1788, 54.87500
893.6609, 58.33203
894.1430, 32.42188
894.6251, 24.66797
895.1072, 74.26562
895.5894, 100.8633
896.0715, 115.2695
896.5536, 117.9961
897.0357, 116.1211
897.5178, 121.9258
897.9999, 131.4453
898.4821, 121.6914
898.9642, 74.90234
899.4463, 43.80469
899.9284, 93.45312
900.4105, 171.3984
900.8926, 223.5312
901.3748, 242.8281
901.8569, 208.3828
902.3390, 124.0977
902.8211, 48.71484
903.3032, 29.02734
903.7853, 43.46875
904.2675, 68.34766
904.7496, 93.87500
905.2317, 81.69531
905.7138, 34.84766
906.1959, 2.726563
906.6780, 7.347656
907.1602, 39.08203
907.6423, 95.48828
908.1244, 162.6133
908.6065, 169.5430
909.0886, 114.8789
909.5707, 82.10547
910.0529, 88.02344
910.5350, 94.47266
911.0171, 73.18750
911.4992, 43.94922
911.9813, 53.74609
912.4634, 111.4570
912.9456, 130.2812
913.4277, 92.91406
913.9098, 69.35547
914.3919, 90.37109
914.8740, 110.9219
915.3561, 84.46094
915.8383, 24.90234
916.3204, 3.207031
916.8025, 23.76953
917.2846, 33.83594
917.7667, 6.500000
918.2488, 10.96484
918.7310, 6.644531
919.2131, 37.24219
919.6952, 63.42188
920.1773, 84.26562
920.6594, 84.97656
921.1415, 36.98438
921.6237, 8.296875
922.1058, 23.09766
922.5879, 46.46484
923.0700, 56.69922
923.5521, 61.81250
924.0342, 83.14453
924.5164, 124.1328
924.9985, 139.1836
925.4806, 79.90625
925.9627, 33.04688
926.4448, 61.16797
926.9269, 102.9023
927.4091, 94.44141
927.8912, 48.18359
928.3733, 5.507813
928.8554, 22.51953
929.3375, 27.55469
929.8196, 13.79688
930.3018, 61.82422
930.7839, 73.22266
931.2660, 74.53125
931.7481, 123.2617
932.2302, 205.9883
932.7123, 239.1250
933.1945, 173.0234
933.6766, 97.74219
934.1587, 108.0742
934.6408, 154.0352
935.1229, 172.4609
935.6050, 166.1094
936.0872, 146.8125
936.5693, 120.0703
937.0514, 94.96875
937.5335, 76.17969
938.0156, 71.32812
938.4977, 104.7930
938.9799, 155.1875
939.4620, 170.8281
939.9441, 151.1523
940.4262, 103.0625
940.9083, 32.16016
941.3904, 13.85156
941.8726, 21.60938
942.3547, 94.83203
942.8368, 86.51562
943.3189, 15.60156
943.8010, 0.9531250
944.2831, 47.02734
944.7653, 106.4023
945.2474, 154.8789
945.7295, 180.2734
946.2116, 157.5469
946.6937, 102.2617
947.1758, 110.5195
947.6580, 183.4570
948.1401, 173.1094
948.6222, 46.64453
949.1043, 58.82422
949.5864, 64.11719
950.0685, 10.16406
950.5507, 36.94141
951.0328, 77.76562
951.5149, 125.9102
951.9970, 190.5977
952.4791, 217.0586
952.9612, 179.0078
953.4434, 140.5391
953.9255, 146.3398
954.4076, 179.3867
954.8897, 202.8906
955.3718, 216.4219
955.8539, 225.5195
956.3361, 237.3438
956.8182, 219.5586
957.3003, 140.2422
957.7824, 75.42578
958.2645, 94.00781
958.7466, 167.9102
959.2288, 213.3750
959.7109, 227.5625
960.1930, 219.6836
960.6751, 171.0801
961.1572, 133.6797
961.6393, 126.4355
962.1215, 132.1562
962.6036, 140.7402
963.0857, 149.1016
963.5678, 142.6133
964.0499, 105.1270
964.5320, 85.82422
965.0142, 114.1719
965.4963, 122.3613
965.9784, 61.20703
966.4605, 9.529297
966.9426, 25.90625
967.4247, 3.662109
967.9069, 19.74219
968.3890, 0.5449220
968.8711, 1.945313
969.3532, 48.45898
969.8353, 89.88281
970.3174, 101.5176
970.7996, 100.2891
971.2817, 98.23242
971.7638, 98.51953
972.2459, 122.7383
972.7280, 220.3418
973.2101, 269.7188
973.6923, 224.4023
974.1744, 159.7070
974.6565, 103.3711
975.1386, 59.00391
975.6207, 28.73047
976.1028, 12.19141
976.5850, 14.81055
977.0671, 47.04492
977.5492, 79.79102
978.0313, 106.2891
978.5134, 131.3555
978.9955, 168.3086
979.4777, 199.7402
979.9598, 196.6387
980.4419, 157.8457
980.9240, 123.2734
981.4061, 107.2500
981.8882, 93.35352
982.3704, 62.96289
982.8525, 43.11133
983.3346, 59.59375
983.8167, 95.41211
984.2988, 124.3711
984.7809, 142.2852
985.2631, 156.4277
985.7452, 169.1250
986.2273, 178.1855
986.7094, 188.7227
987.1915, 188.2324
987.6736, 155.2402
988.1558, 109.5156
988.6379, 96.15430
989.1200, 120.9082
989.6021, 124.3145
990.0842, 45.82812
990.5663, 7.945313
991.0485, 43.96094
991.5306, 107.5840
992.0127, 97.64453
992.4948, 44.41016
992.9769, 11.92383
993.4590, 12.59180
993.9412, 19.33594
994.4233, 25.66016
994.9054, 29.66406
995.3875, 15.60547
995.8696, 12.29883
996.3517, 60.20312
996.8339, 132.2695
997.3160, 178.1719
997.7981, 187.1523
998.2802, 176.7461
998.7623, 124.9492
999.2444, 92.35352
999.7266, 138.4824
1000.209, 193.1504
1000.691, 187.5957
1001.173, 146.0391
1001.655, 119.5449
1002.137, 119.6953
1002.619, 129.0820
1003.101, 141.8711
1003.583, 159.9062
1004.066, 199.9746
1004.548, 231.4395
1005.030, 212.5566
1005.512, 169.7090
1005.994, 157.7695
1006.476, 186.5059
1006.958, 209.5840
1007.440, 218.1289
1007.923, 214.4512
1008.405, 176.8438
1008.887, 140.6074
1009.369, 134.6562
1009.851, 153.0820
1010.333, 190.1211
1010.815, 241.7793
1011.297, 268.8477
1011.779, 237.7168
1012.262, 202.2676
1012.744, 199.8555
1013.226, 190.2852
1013.708, 117.9727
1014.190, 25.87109
1014.672, 10.69141
1015.154, 19.34570
1015.636, 67.90234
1016.119, 142.8438
1016.601, 198.2930
1017.083, 207.5215
1017.565, 199.0391
1018.047, 191.2676
1018.529, 181.3066
1019.011, 157.3613
1019.493, 120.1875
1019.975, 94.94727
1020.458, 94.70312
1020.940, 99.83008
1021.422, 116.3320
1021.904, 123.0293
1022.386, 90.08008
1022.868, 47.71289
1023.350, 44.41797
1023.832, 79.82227
1024.315, 100.8613
1024.797, 75.87500
1025.279, 66.44141
1025.761, 109.9766
1026.243, 146.9922
1026.725, 130.1211
1027.207, 96.49023
1027.689, 100.2402
1028.172, 136.7266
1028.654, 151.3281
1029.136, 115.4121
1029.618, 95.33398
1030.100, 127.6797
1030.582, 149.0215
1031.064, 111.2871
1031.546, 62.02539
1032.028, 64.49023
1032.510, 106.3750
1032.993, 106.3320
1033.475, 12.48242
1033.957, 28.99609
1034.439, 41.14453
1034.921, 107.8926
1035.403, 139.6523
1035.885, 144.0645
1036.367, 116.5195
1036.850, 67.54492
1037.332, 38.58203
1037.814, 44.33008
1038.296, 34.02930
1038.778, 26.06445
1039.260, 54.25391
1039.742, 12.99414
1040.224, 48.32812
1040.707, 107.5391
1041.189, 153.3828
1041.671, 150.1973
1042.153, 79.89844
1042.635, 39.75391
1043.117, 42.12109
1043.599, 51.42578
1044.081, 63.94336
1044.563, 76.28906
1045.046, 86.21484
1045.528, 94.72266
1046.010, 105.8672
1046.492, 121.5234
1046.974, 112.5527
1047.456, 60.28320
1047.938, 43.92969
1048.420, 92.85938
1048.902, 133.0078
1049.385, 116.4375
1049.867, 79.31055
1050.349, 77.60938
1050.831, 108.5332
1051.313, 132.3887
1051.795, 150.3203
1052.277, 149.4199
1052.759, 122.3594
1053.242, 111.1211
1053.724, 139.7031
1054.206, 168.8535
1054.688, 147.2246
1055.170, 91.87500
1055.652, 80.38477
1056.134, 112.5645
1056.616, 158.2266
1057.099, 216.4102
1057.581, 203.0273
1058.063, 83.68164
1058.545, 24.26367
1059.027, 9.033203
1059.509, 83.70898
1059.991, 165.3281
1060.473, 229.4395
1060.955, 222.0352
1061.438, 153.9863
1061.920, 119.7129
1062.402, 142.4922
1062.884, 180.6992
1063.366, 207.3145
1063.848, 220.8535
1064.330, 216.0703
1064.812, 197.6191
1065.294, 174.9121
1065.777, 149.0293
1066.259, 115.7324
1066.741, 79.97461
1067.223, 70.93750
1067.705, 104.4570
1068.187, 139.2793
1068.669, 121.0684
1069.151, 89.15039
1069.634, 96.91406
1070.116, 130.1777
1070.598, 184.9688
1071.080, 239.0742
1071.562, 221.7910
1072.044, 114.7559
1072.526, 35.61523
1073.008, 94.83984
1073.490, 181.1445
1073.973, 205.6992
1074.455, 197.9883
1074.937, 181.0762
1075.419, 161.2812
1075.901, 143.1055
1076.383, 128.0059
1076.865, 118.5918
1077.347, 123.7871
1077.829, 119.9590
1078.312, 70.95508
1078.794, 37.30664
1079.276, 79.55469
1079.758, 146.7520
1080.240, 181.5664
1080.722, 180.3066
1081.204, 156.0312
1081.686, 96.87109
1082.169, 54.84180
1082.651, 45.69922
1083.133, 46.17188
1083.615, 64.87891
1084.097, 74.76562
1084.579, 31.50586
1085.061, 32.79688
1085.543, 26.69531
1086.026, 70.51758
1086.508, 128.0645
1086.990, 120.6777
1087.472, 123.8789
1087.954, 166.0723
1088.436, 189.0312
1088.918, 147.2871
1089.400, 87.65625
1089.882, 84.26172
1090.365, 129.7480
1090.847, 121.0645
1091.329, 40.72852
1091.811, 1.972656
1092.293, 20.24219
1092.775, 53.47656
1093.257, 91.08789
1093.739, 109.9668
1094.221, 80.40039
1094.703, 31.82422
1095.186, 63.12500
1095.668, 161.3398
1096.150, 167.0996
1096.632, 87.30859
1097.114, 53.56836
1097.596, 99.90430
1098.078, 139.2188
1098.560, 114.5195
1099.043, 78.07812
1099.525, 125.2324
1100.007, 201.6680
1100.489, 161.2734
1100.971, 55.54297
1101.453, 19.11328
1101.935, 54.17188
1102.417, 90.61523
1102.900, 101.5820
1103.382, 108.4043
1103.864, 131.2090
1104.346, 147.8379
1104.828, 149.9785
1105.310, 134.1758
1105.792, 65.94336
1106.274, 10.09375
1106.756, 3.386719
1107.239, 104.7852
1107.721, 176.9492
1108.203, 160.3789
1108.685, 141.2188
1109.167, 168.0508
1109.649, 191.5879
1110.131, 172.4043
1110.613, 144.7305
1111.095, 153.3848
1111.578, 183.2070
1112.060, 181.7500
1112.542, 136.3848
1113.024, 93.51562
1113.506, 41.93359
1113.988, 17.37891
1114.470, 33.13867
1114.952, 67.93359
1115.435, 135.3066
1115.917, 191.5254
1116.399, 166.8809
1116.881, 65.91992
1117.363, 17.85156
1117.845, 34.49609
1118.327, 73.29688
1118.809, 140.0898
1119.292, 191.3418
1119.774, 212.9883
1120.256, 212.8008
1120.738, 197.0918
1121.220, 167.3359
1121.702, 121.7656
1122.184, 67.67969
1122.666, 60.64062
1123.148, 94.50781
1123.630, 126.5449
1124.113, 146.2988
1124.595, 134.3320
1125.077, 81.27734
1125.559, 39.27539
1126.041, 75.79688
1126.523, 141.6992
1127.005, 164.1777
1127.487, 155.1934
1127.970, 137.9629
1128.452, 117.4883
1128.934, 100.7617
1129.416, 86.60156
1129.898, 56.86914
1130.380, 12.00391
1130.862, 55.36719
1131.344, 17.66992
1131.827, 42.34180
1132.309, 108.3789
1132.791, 152.7305
1133.273, 134.1523
1133.755, 77.04492
1134.237, 51.85547
1134.719, 74.86719
1135.201, 93.74609
1135.683, 90.90625
1136.166, 97.69727
1136.648, 131.9199
1137.130, 162.4492
1137.612, 181.7852
1138.094, 181.3809
1138.576, 139.0918
1139.058, 67.84961
1139.540, 55.31250
1140.022, 118.0410
1140.505, 157.8652
1140.987, 169.1582
1141.469, 180.1758
1141.951, 200.9434
1142.433, 199.1094
1142.915, 146.8809
1143.397, 85.07031
1143.879, 89.25977
1144.362, 133.8008
1144.844, 116.2383
1145.326, 56.76953
1145.808, 31.61133
1146.290, 46.14453
1146.772, 88.46680
1147.254, 148.3320
1147.736, 173.2422
1148.219, 111.3418
1148.701, 32.92188
1149.183, 2.277344
1149.665, 1.189453
1150.147, 6.400391
1150.629, 22.81836
1151.111, 56.08984
1151.593, 96.86328
1152.075, 116.7598
1152.557, 107.7871
1153.040, 80.22461
1153.522, 2.042969
1154.004, 46.87891
1154.486, 1.316406
1154.968, 69.73438
1155.450, 131.1055
1155.932, 171.7148
1156.414, 167.0273
1156.897, 124.1152
1157.379, 102.2188
1157.861, 112.0254
1158.343, 108.4922
1158.825, 86.71875
1159.307, 68.28711
1159.789, 60.36719
1160.271, 44.56641
1160.754, 2.189453
1161.236, 28.19141
1161.718, 34.02148
1162.200, 152.8203
1162.682, 163.0078
1163.164, 90.55469
1163.646, 50.95117
1164.128, 48.97852
1164.610, 35.08203
1165.093, 3.880859
1165.575, 30.74609
1166.057, 18.85938
1166.539, 9.312500
1167.021, 33.57422
1167.503, 60.71094
1167.985, 108.2266
1168.467, 155.6270
1168.949, 178.4258
1169.432, 176.2422
1169.914, 151.9961
1170.396, 105.3633
1170.878, 68.86133
1171.360, 42.49609
1171.842, 40.27930
1172.324, 113.8438
1172.806, 151.4258
1173.289, 52.47070
1173.771, 53.52539
1174.253, 20.91406
1174.735, 100.2363
1175.217, 136.4336
1175.699, 72.49219
1176.181, 60.28711
1176.663, 110.4180
1177.146, 113.5000
1177.628, 46.73828
1178.110, 1.404297
1178.592, 12.35742
1179.074, 54.81836
1179.556, 97.48438
1180.038, 127.9102
1180.520, 109.2051
1181.002, 66.14453
1181.484, 50.93359
1181.967, 56.85352
1182.449, 63.46094
1182.931, 63.96875
1183.413, 46.28906
1183.895, 2.033203
1184.377, 16.97461
1184.859, 52.33008
1185.341, 112.7598
1185.824, 92.68945
1186.306, 62.82617
1186.788, 83.57812
1187.270, 128.0996
1187.752, 153.8828
1188.234, 164.0098
1188.716, 136.0742
1189.198, 34.95898
1189.681, 6.152344
1190.163, 34.07227
1190.645, 77.11133
1191.127, 111.1035
1191.609, 124.7012
1192.091, 106.9316
1192.573, 84.16992
1193.055, 94.35352
1193.537, 124.5801
1194.020, 130.4668
1194.502, 120.1816
1194.984, 129.1562
1195.466, 154.5156
1195.948, 175.8945
1196.430, 189.5859
1196.912, 207.3145
1197.394, 237.3457
1197.876, 253.4844
1198.359, 219.8750
1198.841, 175.2812
1199.323, 138.1035
1199.805, 112.8672
1200.287, 80.10352
1200.769, 52.83984
1201.251, 62.90625
1201.733, 105.6367
1202.216, 123.0977
1202.698, 87.09961
1203.180, 72.80078
1203.662, 94.07422
1204.144, 130.9023
1204.626, 199.6523
1205.108, 218.6484
1205.590, 141.4062
1206.073, 45.74023
1206.555, 26.48633
1207.037, 65.85742
1207.519, 116.7871
1208.001, 173.3652
1208.483, 205.8398
1208.965, 218.2969
1209.447, 225.9004
1209.929, 254.6895
1210.411, 262.1016
1210.894, 234.4414
1211.376, 196.6445
1211.858, 166.4355
1212.340, 151.1270
1212.822, 161.7012
1213.304, 178.2852
1213.786, 192.5859
1214.268, 194.2090
1214.751, 168.5312
1215.233, 129.8047
1215.715, 105.9473
1216.197, 101.5371
1216.679, 109.9941
1217.161, 141.6641
1217.643, 145.3047
1218.125, 92.17969
1218.608, 69.58984
1219.090, 127.3691
1219.572, 190.3418
1220.054, 178.0996
1220.536, 121.1094
1221.018, 77.78320
1221.500, 51.40820
1221.982, 66.14844
1222.464, 103.2793
1222.947, 101.0215
1223.429, 66.81250
1223.911, 55.69141
1224.393, 85.70117
1224.875, 112.5586
1225.357, 113.4121
1225.839, 98.03125
1226.321, 44.71680
1226.803, 13.96680
1227.286, 70.12500
1227.768, 144.5938
1228.250, 176.8105
1228.732, 170.1816
1229.214, 127.3047
1229.696, 47.14453
1230.178, 29.83008
1230.660, 92.87500
1231.143, 117.8359
1231.625, 90.12695
1232.107, 91.58008
1232.589, 148.0996
1233.071, 183.8086
1233.553, 144.6836
1234.035, 86.32422
1234.517, 84.78125
1235.000, 110.0664
1235.482, 122.1309
1235.964, 120.2773
1236.446, 104.5176
1236.928, 78.18750
1237.410, 42.86523
1237.892, 6.443359
1238.374, 9.888672
1238.856, 2.048828
1239.339, 26.38672
1239.821, 82.38672
1240.303, 115.6582
1240.785, 104.4629
1241.267, 78.19922
1241.749, 25.06445
1242.231, 9.076172
1242.713, 24.88477
1243.195, 53.72656
1243.678, 42.22656
1244.160, 0.0000000E+00
##END=



