##NAMES=Erlichmanite
##RRUFFID=R070095
##IDEAL CHEMISTRY=Os^2+^(S_2_)^2-^
##LOCALITY=placer from Philipp Massif, Kamchatka, Russia
##OWNER=RRUFF
##SOURCE=Michael Scott
##DESCRIPTION=Silver bleb in black isoferroplatinum nugget, polished and embedded in epoxy
##STATUS=The identification of this mineral is not yet confirmed.
##URL=rruff.info/R070095
195.5505, 0.0000000E+00
196.0326, 26.04236
196.5148, 0.2080080
196.9969, 24.52271
197.4790, 69.32898
197.9611, 90.14307
198.4432, 89.89429
198.9253, 78.63989
199.4075, 65.62720
199.8896, 77.36560
200.3717, 79.35242
200.8538, 51.30762
201.3359, 11.94409
201.8180, 1.211792
202.3002, 22.86438
202.7823, 60.76099
203.2644, 81.61145
203.7465, 81.38177
204.2286, 72.61938
204.7107, 43.29108
205.1928, 12.84656
205.6750, 1.837769
206.1571, 2.222717
206.6392, 17.35663
207.1213, 36.54279
207.6034, 57.19830
208.0855, 67.52527
208.5677, 57.42804
209.0498, 45.14038
209.5319, 43.70789
210.0140, 55.02777
210.4961, 73.31787
210.9782, 94.45099
211.4604, 121.9241
211.9425, 137.2492
212.4246, 131.8367
212.9067, 123.5601
213.3888, 123.0159
213.8709, 130.6545
214.3531, 141.5336
214.8352, 152.8784
215.3173, 165.9038
215.7994, 173.4379
216.2815, 185.8314
216.7636, 187.8896
217.2458, 155.4145
217.7279, 102.4373
218.2100, 61.73956
218.6921, 61.28784
219.1742, 104.6035
219.6563, 135.0824
220.1385, 146.7054
220.6206, 147.7631
221.1027, 140.5692
221.5848, 131.9525
222.0669, 128.5957
222.5490, 140.0473
223.0312, 171.2638
223.5133, 191.5607
223.9954, 192.4011
224.4775, 191.0546
224.9596, 193.3986
225.4417, 196.0995
225.9238, 192.1853
226.4060, 175.8598
226.8881, 150.5601
227.3702, 137.3636
227.8523, 148.1092
228.3344, 153.9609
228.8165, 149.0654
229.2987, 136.6803
229.7808, 119.6393
230.2629, 99.77417
230.7450, 79.26877
231.2271, 64.07608
231.7092, 54.49411
232.1914, 49.14352
232.6735, 51.26514
233.1556, 56.28748
233.6377, 58.95139
234.1198, 57.94696
234.6019, 54.28589
235.0841, 49.90070
235.5662, 46.77399
236.0483, 39.62552
236.5304, 20.17264
237.0125, 1.365570
237.4946, 1.959137
237.9768, 13.49329
238.4589, 35.85825
238.9410, 44.31348
239.4231, 26.21909
239.9052, 16.71078
240.3873, 16.80698
240.8695, 23.91116
241.3516, 43.32025
241.8337, 72.63947
242.3158, 95.05841
242.7979, 86.56580
243.2800, 31.30264
243.7622, 4.814941
244.2443, 16.51086
244.7264, 17.56580
245.2085, 11.03690
245.6906, 0.4791560
246.1727, 11.93979
246.6548, 18.10803
247.1370, 18.12653
247.6191, 19.24219
248.1012, 29.53793
248.5833, 33.28391
249.0654, 18.74191
249.5475, 7.666351
250.0297, 30.00320
250.5118, 36.68835
250.9939, 28.06152
251.4760, 14.20636
251.9581, 15.65256
252.4402, 38.21179
252.9224, 42.91205
253.4045, 41.06564
253.8866, 40.03925
254.3687, 47.17438
254.8508, 60.42203
255.3329, 69.87720
255.8151, 71.17938
256.2972, 75.94601
256.7793, 95.10190
257.2614, 115.8370
257.7435, 120.8198
258.2256, 100.7288
258.7078, 70.49573
259.1899, 60.27213
259.6720, 76.55032
260.1541, 96.60550
260.6362, 123.0871
261.1183, 145.7941
261.6005, 153.0030
262.0826, 141.3914
262.5647, 125.6345
263.0468, 126.7301
263.5289, 148.2110
264.0110, 160.7829
264.4932, 153.7939
264.9753, 138.7892
265.4574, 118.8998
265.9395, 95.34659
266.4216, 78.11331
266.9037, 80.68991
267.3859, 100.7695
267.8680, 111.5816
268.3501, 105.4002
268.8322, 94.41751
269.3143, 84.73590
269.7964, 77.25430
270.2786, 76.96741
270.7607, 94.23849
271.2428, 120.8102
271.7249, 132.3100
272.2070, 122.7282
272.6891, 108.8573
273.1713, 100.9218
273.6534, 97.99826
274.1355, 98.96246
274.6176, 107.0460
275.0997, 117.0206
275.5818, 122.5416
276.0640, 123.5849
276.5461, 120.3167
277.0282, 109.1792
277.5103, 94.41003
277.9924, 86.58957
278.4745, 88.51886
278.9566, 95.49646
279.4388, 107.1128
279.9209, 122.1525
280.4030, 133.4068
280.8851, 137.9652
281.3672, 136.2392
281.8493, 128.7929
282.3315, 109.7112
282.8136, 96.89854
283.2957, 103.9930
283.7778, 121.4743
284.2599, 129.6911
284.7420, 121.1862
285.2242, 105.7641
285.7063, 100.4185
286.1884, 110.0665
286.6705, 113.6266
287.1526, 100.4767
287.6347, 83.81612
288.1169, 78.43274
288.5990, 86.63968
289.0811, 99.70319
289.5632, 109.1514
290.0453, 115.0407
290.5274, 115.0060
291.0096, 96.95227
291.4917, 83.72577
291.9738, 94.89325
292.4559, 125.0793
292.9380, 151.7812
293.4201, 157.4362
293.9023, 142.6271
294.3844, 127.9689
294.8665, 110.3467
295.3486, 95.83295
295.8307, 85.82193
296.3128, 80.65134
296.7950, 81.75714
297.2771, 90.10088
297.7592, 102.9453
298.2413, 111.8823
298.7234, 117.8192
299.2055, 118.0340
299.6877, 105.0050
300.1698, 91.29042
300.6519, 88.25366
301.1340, 97.44232
301.6161, 111.5827
302.0982, 121.7191
302.5804, 130.3084
303.0625, 129.8620
303.5446, 105.6906
304.0267, 84.08803
304.5088, 83.22546
304.9909, 100.5240
305.4731, 116.6864
305.9552, 109.8544
306.4373, 81.27774
306.9194, 69.09515
307.4015, 84.78474
307.8836, 99.60684
308.3658, 98.13254
308.8479, 87.51456
309.3300, 82.14468
309.8121, 95.20822
310.2942, 113.8069
310.7763, 108.3625
311.2585, 69.99582
311.7406, 40.86514
312.2227, 52.76254
312.7048, 82.37994
313.1869, 101.5611
313.6690, 103.7261
314.1512, 97.25360
314.6333, 85.81113
315.1154, 70.45506
315.5975, 59.90184
316.0796, 58.94037
316.5617, 61.76782
317.0439, 57.90753
317.5260, 44.97945
318.0081, 38.92207
318.4902, 53.59152
318.9723, 77.18686
319.4544, 89.48373
319.9365, 85.93179
320.4186, 74.02994
320.9008, 58.60081
321.3829, 38.55354
321.8650, 30.25551
322.3471, 45.89528
322.8292, 64.49951
323.3113, 69.76230
323.7935, 62.93976
324.2756, 55.82159
324.7577, 57.52632
325.2398, 67.14630
325.7219, 70.00868
326.2040, 59.29185
326.6862, 51.35612
327.1683, 50.37895
327.6504, 55.52707
328.1325, 69.32796
328.6146, 92.85475
329.0967, 116.1870
329.5789, 115.2660
330.0610, 65.79778
330.5431, 32.24069
331.0252, 16.76601
331.5073, 15.11023
331.9894, 30.99298
332.4716, 61.16780
332.9537, 89.49702
333.4358, 96.74857
333.9179, 79.84262
334.4000, 66.70337
334.8821, 54.64915
335.3643, 49.61490
335.8464, 59.85870
336.3285, 78.95282
336.8106, 92.91234
337.2927, 92.96967
337.7748, 82.66867
338.2570, 70.53329
338.7391, 54.15608
339.2212, 42.73434
339.7033, 43.94795
340.1854, 49.68359
340.6675, 51.62842
341.1497, 46.96429
341.6318, 42.80432
342.1139, 49.67932
342.5960, 66.02861
343.0781, 70.25165
343.5602, 48.83046
344.0424, 24.32782
344.5245, 28.02335
345.0066, 60.77391
345.4887, 87.21684
345.9708, 90.47462
346.4529, 81.93713
346.9351, 77.06183
347.4172, 77.92276
347.8993, 79.18365
348.3814, 75.75183
348.8635, 67.61935
349.3456, 63.21799
349.8278, 64.99394
350.3099, 68.44368
350.7920, 73.96530
351.2741, 78.87572
351.7562, 76.20590
352.2383, 61.40021
352.7205, 39.65137
353.2026, 26.92233
353.6847, 22.76126
354.1668, 29.71872
354.6489, 67.61221
355.1310, 105.4634
355.6132, 111.2835
356.0953, 80.25592
356.5774, 35.40863
357.0595, 2.505127
357.5416, 19.55788
358.0237, 24.30777
358.5059, 10.86606
358.9880, 42.81232
359.4701, 53.75085
359.9522, 48.63800
360.4343, 41.69595
360.9164, 41.67114
361.3985, 46.09088
361.8806, 47.27222
362.3628, 44.61472
362.8449, 40.54385
363.3270, 34.66940
363.8091, 28.29550
364.2912, 21.86356
364.7733, 14.89362
365.2555, 11.02344
365.7376, 17.13220
366.2197, 30.76425
366.7018, 34.76245
367.1839, 19.75320
367.6660, 3.224365
368.1482, 9.144073
368.6303, 35.48935
369.1124, 53.25308
369.5945, 45.24182
370.0766, 30.15826
370.5587, 31.45184
371.0409, 49.10754
371.5230, 62.55573
372.0051, 55.96222
372.4872, 32.44788
372.9693, 18.73596
373.4514, 18.71780
373.9336, 22.19592
374.4157, 31.75778
374.8978, 41.38742
375.3799, 39.12793
375.8620, 20.85272
376.3441, 0.8231200
376.8263, 2.633118
377.3084, 30.29892
377.7905, 50.98120
378.2726, 55.67297
378.7547, 53.58066
379.2368, 47.76675
379.7190, 39.79913
380.2011, 31.86676
380.6832, 26.08975
381.1653, 21.82034
381.6474, 13.50055
382.1295, 6.624313
382.6117, 17.36430
383.0938, 5.397568
383.5759, 11.87251
384.0580, 23.86536
384.5401, 44.29602
385.0222, 50.26962
385.5044, 1.487991
385.9865, 21.36560
386.4686, 14.33588
386.9507, 6.081909
387.4328, 39.44028
387.9149, 3.878342
388.3971, 28.71045
388.8792, 30.89334
389.3613, 46.96173
389.8434, 33.02719
390.3255, 28.49203
390.8076, 54.04184
391.2898, 62.93591
391.7719, 45.65439
392.2540, 62.79269
392.7361, 18.43790
393.2182, 28.03436
393.7003, 60.92824
394.1825, 45.16801
394.6646, 62.86546
395.1467, 67.82275
395.6288, 27.22261
396.1109, 4.429565
396.5930, 9.024643
397.0752, 13.14880
397.5573, 7.219955
398.0394, 27.51558
398.5215, 54.17563
399.0036, 45.10400
399.4857, 10.94951
399.9679, 14.97725
400.4500, 6.685974
400.9321, 24.84979
401.4142, 38.57523
401.8963, 25.93291
402.3784, 15.79822
402.8605, 24.16428
403.3427, 36.80695
403.8248, 37.95609
404.3069, 22.74223
404.7890, 8.762634
405.2711, 15.85980
405.7532, 37.01817
406.2354, 43.72070
406.7175, 27.13422
407.1996, 5.456863
407.6817, 4.539719
408.1638, 3.572678
408.6459, 1.995163
409.1281, 17.24422
409.6102, 31.97453
410.0923, 39.74751
410.5744, 40.78961
411.0565, 35.59167
411.5386, 20.49586
412.0208, 3.224304
412.5029, 3.261871
412.9850, 49.42514
413.4671, 75.66797
413.9492, 71.39923
414.4313, 54.21852
414.9135, 32.12384
415.3956, 10.39828
415.8777, 1.722427
416.3598, 6.794083
416.8419, 36.30054
417.3240, 50.20847
417.8062, 34.71893
418.2883, 22.39020
418.7704, 29.99689
419.2525, 45.36987
419.7346, 49.68982
420.2167, 33.62366
420.6989, 14.47026
421.1810, 15.01236
421.6631, 33.89032
422.1452, 48.64404
422.6273, 53.97961
423.1094, 53.18324
423.5916, 47.74486
424.0737, 37.93532
424.5558, 31.33968
425.0379, 32.53360
425.5200, 36.01784
426.0021, 36.59314
426.4843, 34.43892
426.9664, 32.29550
427.4485, 31.80856
427.9306, 32.71667
428.4127, 33.97357
428.8948, 34.28563
429.3770, 36.62238
429.8591, 43.86813
430.3412, 51.74156
430.8233, 57.76012
431.3054, 60.65866
431.7875, 57.81860
432.2697, 43.75499
432.7518, 17.49207
433.2339, 2.396423
433.7160, 3.244873
434.1981, 9.920517
434.6802, 25.10457
435.1624, 41.83453
435.6445, 47.94926
436.1266, 36.57014
436.6087, 20.60049
437.0908, 15.28940
437.5729, 19.98373
438.0551, 26.13394
438.5372, 32.33063
439.0193, 38.15706
439.5014, 44.49355
439.9835, 51.20847
440.4656, 51.89706
440.9478, 39.90652
441.4299, 26.25455
441.9120, 23.50079
442.3941, 29.44308
442.8762, 33.72415
443.3583, 29.79913
443.8404, 21.75787
444.3225, 18.54056
444.8047, 31.25748
445.2868, 36.13754
445.7689, 22.49141
446.2510, 7.558121
446.7331, 7.601456
447.2152, 22.63315
447.6974, 37.83513
448.1795, 37.28462
448.6616, 22.87663
449.1437, 20.64743
449.6258, 40.84087
450.1079, 54.68161
450.5901, 40.47426
451.0722, 17.36467
451.5543, 12.05785
452.0364, 35.86931
452.5185, 60.21631
453.0006, 57.31366
453.4828, 35.35446
453.9649, 22.35812
454.4470, 24.61075
454.9291, 33.30370
455.4112, 42.76596
455.8933, 53.08356
456.3755, 52.13815
456.8576, 25.16463
457.3397, 1.334259
457.8218, 2.225723
458.3039, 9.174591
458.7860, 23.69566
459.2682, 36.21078
459.7503, 44.75014
460.2324, 41.95079
460.7145, 18.38806
461.1966, 5.899826
461.6787, 15.51843
462.1609, 26.44930
462.6430, 24.84796
463.1251, 15.48485
463.6072, 13.36433
464.0893, 34.20673
464.5714, 63.76688
465.0536, 68.41551
465.5357, 44.60561
466.0178, 26.62486
466.4999, 32.74498
466.9820, 46.26350
467.4641, 39.59958
467.9463, 7.373291
468.4284, 11.55098
468.9105, 5.105194
469.3926, 36.84596
469.8747, 67.33694
470.3568, 92.38641
470.8390, 101.3995
471.3211, 84.63272
471.8032, 46.73059
472.2853, 15.69641
472.7674, 18.97246
473.2495, 31.97443
473.7317, 1.340302
474.2138, 39.55099
474.6959, 59.50049
475.1780, 53.95346
475.6601, 40.18906
476.1422, 32.96780
476.6244, 4.093979
477.1065, 39.09952
477.5886, 58.82648
478.0707, 64.09579
478.5528, 11.60706
479.0349, 33.69952
479.5171, 25.90228
479.9992, 16.87897
480.4813, 49.57695
480.9634, 6.176468
481.4455, 38.48381
481.9276, 40.06467
482.4098, 55.53317
482.8918, 40.92764
483.3740, 35.61089
483.8561, 60.37666
484.3382, 68.48444
484.8203, 50.41492
485.3024, 66.76282
485.7845, 21.61537
486.2667, 46.58073
486.7488, 50.73006
487.2309, 43.93536
487.7130, 34.20634
488.1951, 34.15930
488.6772, 45.42307
489.1594, 48.55981
489.6415, 36.11572
490.1236, 24.52942
490.6057, 24.80327
491.0878, 31.88437
491.5699, 35.21045
492.0521, 30.10696
492.5342, 22.72763
493.0163, 16.03542
493.4984, 11.24443
493.9805, 14.47511
494.4626, 28.87721
494.9448, 43.57083
495.4269, 44.05025
495.9090, 26.23544
496.3911, 17.13684
496.8732, 23.57942
497.3553, 31.01756
497.8375, 32.07925
498.3196, 29.75156
498.8017, 31.66646
499.2838, 41.15578
499.7659, 50.04855
500.2480, 40.13634
500.7302, 5.362869
501.2123, 11.25298
501.6944, 6.509995
502.1765, 28.92705
502.6586, 40.95250
503.1407, 43.53189
503.6229, 39.56462
504.1050, 24.79834
504.5871, 9.608398
505.0692, 3.532455
505.5513, 5.443954
506.0334, 12.27310
506.5156, 24.00388
506.9977, 35.99020
507.4798, 41.86920
507.9619, 40.01814
508.4440, 37.90823
508.9261, 34.45413
509.4083, 31.85793
509.8904, 31.94240
510.3725, 33.45258
510.8546, 33.77020
511.3367, 31.64554
511.8188, 29.02382
512.3010, 30.39519
512.7831, 36.91420
513.2652, 38.20537
513.7473, 31.77817
514.2294, 21.34846
514.7115, 5.076279
515.1937, 14.06819
515.6758, 22.62903
516.1579, 12.87183
516.6400, 5.750641
517.1221, 33.66055
517.6042, 64.59424
518.0864, 80.53220
518.5685, 74.97978
519.0506, 56.81696
519.5327, 35.42401
520.0148, 5.632751
520.4969, 3.720871
520.9791, 24.73315
521.4612, 52.11333
521.9433, 63.66315
522.4254, 64.34152
522.9075, 63.64951
523.3896, 65.48128
523.8718, 65.13943
524.3539, 50.32901
524.8360, 21.84120
525.3181, 15.56897
525.8002, 46.27811
526.2823, 79.31946
526.7645, 91.80067
527.2466, 86.72733
527.7287, 72.66589
528.2108, 35.85457
528.6929, 7.824249
529.1750, 7.603851
529.6572, 24.16833
530.1393, 42.07443
530.6214, 55.24217
531.1035, 62.95770
531.5856, 65.94872
532.0677, 62.05246
532.5499, 58.45703
533.0320, 57.02768
533.5141, 53.54083
533.9962, 45.32152
534.4783, 35.23058
534.9604, 26.37637
535.4426, 19.41930
535.9247, 14.90805
536.4068, 15.85413
536.8889, 19.69521
537.3710, 15.94154
537.8531, 2.118484
538.3353, 7.798096
538.8174, 2.873413
539.2995, 13.72578
539.7816, 26.27060
540.2637, 36.67438
540.7458, 41.17087
541.2280, 32.77632
541.7101, 21.97998
542.1922, 20.82629
542.6743, 29.29823
543.1564, 36.98007
543.6385, 34.10594
544.1207, 23.58348
544.6027, 21.41225
545.0848, 30.59810
545.5670, 40.34360
546.0491, 50.99484
546.5312, 58.35129
547.0133, 56.66516
547.4954, 45.52313
547.9775, 35.64830
548.4597, 32.09561
548.9418, 32.00638
549.4239, 33.34798
549.9060, 35.44952
550.3881, 36.21890
550.8702, 34.67769
551.3524, 30.88875
551.8345, 24.64656
552.3166, 12.04149
552.7987, 4.859848
553.2808, 3.208221
553.7629, 6.055908
554.2451, 18.25369
554.7272, 34.22470
555.2093, 40.57927
555.6914, 27.52635
556.1735, 10.15099
556.6556, 12.49126
557.1378, 32.34164
557.6199, 46.27475
558.1020, 48.01863
558.5841, 45.81819
559.0662, 47.77342
559.5483, 55.63745
560.0305, 57.02859
560.5126, 43.92090
560.9947, 33.09592
561.4768, 32.04973
561.9589, 36.89088
562.4410, 42.69498
562.9232, 47.78534
563.4053, 52.60406
563.8874, 59.35197
564.3695, 67.61890
564.8516, 63.43143
565.3337, 39.20428
565.8159, 18.34485
566.2980, 12.85696
566.7801, 15.73199
567.2622, 19.64195
567.7443, 24.10747
568.2264, 28.45584
568.7086, 32.60104
569.1907, 36.34462
569.6728, 41.60045
570.1549, 47.09073
570.6370, 44.67926
571.1191, 28.02126
571.6013, 3.639938
572.0834, 7.275146
572.5655, 1.726852
573.0476, 10.00381
573.5297, 18.19524
574.0118, 25.96327
574.4940, 33.51279
574.9761, 39.40862
575.4582, 42.05980
575.9403, 38.85812
576.4224, 34.75305
576.9045, 38.99115
577.3867, 48.41527
577.8688, 44.73013
578.3509, 19.92271
578.8330, 1.509872
579.3151, 9.721786
579.7972, 58.55710
580.2794, 79.43500
580.7615, 48.88950
581.2436, 22.73936
581.7257, 19.30382
582.2078, 26.51335
582.6899, 30.11142
583.1721, 26.69423
583.6542, 21.59081
584.1363, 21.85794
584.6184, 24.91626
585.1005, 16.78236
585.5826, 5.663284
586.0648, 19.78543
586.5469, 11.71291
587.0290, 8.553802
587.5111, 20.93910
587.9932, 24.25169
588.4753, 26.27144
588.9575, 22.12299
589.4396, 18.54440
589.9217, 26.82703
590.4038, 42.68544
590.8859, 55.45062
591.3680, 59.82153
591.8502, 56.65262
592.3323, 43.08015
592.8144, 16.80147
593.2965, 6.476364
593.7786, 23.26956
594.2607, 43.61331
594.7429, 52.41647
595.2250, 52.45923
595.7071, 49.71472
596.1892, 45.05472
596.6713, 37.40002
597.1534, 18.14517
597.6356, 1.320923
598.1177, 0.6902010
598.5998, 20.08920
599.0819, 39.30675
599.5640, 37.68690
600.0461, 20.82181
600.5283, 19.86406
601.0104, 44.73027
601.4925, 61.16275
601.9746, 48.54765
602.4567, 35.61176
602.9388, 52.07257
603.4210, 92.96439
603.9031, 114.0309
604.3852, 80.95865
604.8673, 36.99727
605.3494, 18.43721
605.8315, 18.85449
606.3137, 21.79401
606.7958, 21.94690
607.2779, 20.17178
607.7600, 17.12555
608.2421, 12.54474
608.7242, 10.25621
609.2064, 11.67989
609.6885, 13.49580
610.1706, 14.28183
610.6527, 15.21342
611.1348, 18.44060
611.6169, 24.40886
612.0991, 28.53143
612.5812, 26.17688
613.0633, 21.32506
613.5454, 19.90852
614.0275, 21.60770
614.5096, 22.67809
614.9918, 21.36328
615.4739, 18.44121
615.9560, 15.14496
616.4381, 10.38849
616.9202, 8.419296
617.4023, 11.03812
617.8845, 14.51462
618.3666, 17.80493
618.8487, 21.58438
619.3308, 25.02953
619.8129, 25.93259
620.2950, 29.86887
620.7772, 48.73097
621.2593, 71.31387
621.7414, 68.37244
622.2235, 38.36382
622.7056, 11.54964
623.1877, 7.489578
623.6699, 20.27478
624.1520, 31.47324
624.6341, 45.57613
625.1162, 49.94293
625.5983, 31.93631
626.0804, 16.83362
626.5626, 24.82103
627.0446, 46.59845
627.5267, 57.33054
628.0089, 42.71603
628.4910, 25.67171
628.9731, 31.44427
629.4552, 52.38641
629.9373, 60.19908
630.4194, 50.97879
630.9016, 40.03091
631.3837, 36.64256
631.8658, 40.87802
632.3479, 47.64615
632.8300, 69.34845
633.3121, 75.08987
633.7943, 45.87453
634.2764, 14.70518
634.7585, 4.653336
635.2406, 14.05138
635.7227, 29.23134
636.2048, 47.08340
636.6870, 62.02097
637.1691, 66.85437
637.6512, 63.01538
638.1333, 54.34906
638.6154, 41.26862
639.0975, 29.40706
639.5797, 23.88069
640.0618, 24.51851
640.5439, 28.00351
641.0260, 41.05020
641.5081, 47.76248
641.9902, 41.84372
642.4724, 32.38441
642.9545, 25.32448
643.4366, 21.27654
643.9187, 19.44972
644.4008, 26.47481
644.8829, 32.23727
645.3651, 13.84816
645.8472, 19.29369
646.3293, 26.52386
646.8114, 4.664581
647.2935, 44.63799
647.7756, 62.51682
648.2578, 58.14102
648.7399, 52.81136
649.2220, 42.32899
649.7041, 35.74496
650.1862, 38.09596
650.6683, 42.34048
651.1505, 42.10951
651.6326, 37.23367
652.1147, 32.28006
652.5968, 28.83734
653.0789, 27.11317
653.5610, 29.27435
654.0432, 33.49541
654.5253, 32.79208
655.0074, 25.00188
655.4895, 16.37956
655.9716, 14.90157
656.4537, 20.72203
656.9359, 21.02264
657.4180, 8.382385
657.9001, 2.010361
658.3822, 12.16127
658.8643, 25.82253
659.3464, 30.96500
659.8286, 27.22893
660.3107, 24.07497
660.7928, 29.23306
661.2749, 33.91055
661.7570, 24.27647
662.2391, 7.977280
662.7213, 7.799011
663.2034, 29.89818
663.6855, 53.71996
664.1676, 53.90340
664.6497, 32.31259
665.1318, 28.20023
665.6140, 53.67450
666.0961, 73.55408
666.5782, 70.11972
667.0603, 62.05836
667.5424, 68.97186
668.0245, 90.56136
668.5067, 103.3108
668.9888, 94.17993
669.4709, 79.36494
669.9530, 66.85391
670.4351, 57.55843
670.9172, 54.89337
671.3994, 58.67802
671.8815, 59.50543
672.3636, 45.17744
672.8457, 19.32262
673.3278, 8.335968
673.8099, 16.46440
674.2921, 23.62924
674.7742, 25.18869
675.2563, 21.95613
675.7384, 10.33746
676.2205, 9.231140
676.7026, 15.46289
677.1848, 6.110428
677.6669, 28.42247
678.1490, 43.67596
678.6311, 50.32193
679.1132, 44.97173
679.5953, 30.51717
680.0775, 20.22737
680.5596, 27.82680
681.0417, 46.57147
681.5238, 56.62299
682.0059, 57.75780
682.4880, 61.24751
682.9702, 72.99210
683.4523, 81.75815
683.9344, 74.22440
684.4165, 49.55362
684.8986, 27.08148
685.3807, 3.191498
685.8629, 18.93561
686.3450, 0.1887660
686.8271, 25.65866
687.3092, 25.65941
687.7913, 2.117676
688.2734, 13.69499
688.7556, 3.300583
689.2377, 31.97121
689.7198, 41.53954
690.2019, 36.69553
690.6840, 37.51590
691.1661, 49.14017
691.6483, 61.07852
692.1304, 63.63901
692.6125, 57.60144
693.0946, 50.54312
693.5767, 40.88118
694.0588, 32.99380
694.5410, 23.86166
695.0231, 19.71004
695.5052, 28.30345
695.9873, 46.19487
696.4694, 59.80147
696.9515, 62.49876
697.4337, 62.50734
697.9158, 67.22552
698.3979, 72.20087
698.8800, 68.15948
699.3621, 55.42694
699.8442, 44.24286
700.3264, 41.90349
700.8085, 46.52394
701.2906, 53.43915
701.7727, 63.20808
702.2548, 72.63577
702.7369, 83.93588
703.2191, 90.42485
703.7012, 85.58994
704.1833, 71.47009
704.6654, 53.98489
705.1475, 23.41515
705.6296, 1.845352
706.1118, 4.570526
706.5939, 0.4555050
707.0760, 18.10995
707.5581, 43.53479
708.0402, 58.10066
708.5223, 52.37927
709.0044, 38.08557
709.4865, 28.53688
709.9686, 23.34695
710.4507, 21.69896
710.9329, 23.72711
711.4150, 25.17935
711.8971, 22.95468
712.3792, 20.20349
712.8613, 23.06892
713.3434, 33.46701
713.8256, 41.57854
714.3077, 46.17256
714.7898, 49.97026
715.2719, 56.31818
715.7540, 61.59752
716.2361, 58.92747
716.7183, 46.04636
717.2004, 35.44371
717.6825, 37.00902
718.1646, 42.73859
718.6467, 40.42191
719.1288, 34.04089
719.6110, 42.21909
720.0931, 72.02524
720.5752, 97.43872
721.0573, 75.44257
721.5394, 8.788437
722.0215, 7.653091
722.5037, 46.90639
722.9858, 85.36444
723.4679, 67.70825
723.9500, 29.92426
724.4321, 17.90486
724.9142, 31.47737
725.3964, 44.23196
725.8785, 56.84686
726.3606, 64.67975
726.8427, 64.12177
727.3248, 58.92055
727.8069, 49.56491
728.2891, 38.67929
728.7712, 36.63217
729.2533, 56.84424
729.7354, 82.59268
730.2175, 84.08180
730.6996, 66.88394
731.1818, 57.72726
731.6639, 62.78029
732.1460, 68.26088
732.6281, 60.04082
733.1102, 41.69609
733.5923, 31.44089
734.0745, 36.27100
734.5566, 32.11858
735.0387, 1.849045
735.5208, 21.76428
736.0029, 13.03775
736.4850, 16.64317
736.9672, 38.08913
737.4493, 43.63116
737.9314, 44.66409
738.4135, 41.46107
738.8956, 39.51216
739.3777, 46.47659
739.8599, 59.72015
740.3420, 70.91606
740.8241, 76.09332
741.3062, 76.81494
741.7883, 74.31827
742.2704, 69.04865
742.7526, 63.27420
743.2347, 56.61050
743.7168, 49.72604
744.1989, 44.50261
744.6810, 42.33942
745.1631, 48.83095
745.6453, 68.97888
746.1274, 76.33202
746.6095, 63.69696
747.0916, 50.39635
747.5737, 38.26663
748.0558, 30.27641
748.5380, 31.26921
749.0201, 41.12434
749.5022, 50.78082
749.9843, 57.40405
750.4664, 60.86278
750.9485, 59.68994
751.4307, 55.65155
751.9128, 52.54411
752.3949, 50.78372
752.8770, 46.40363
753.3591, 34.62984
753.8412, 19.90817
754.3234, 14.98526
754.8055, 20.04657
755.2876, 32.79361
755.7697, 56.81747
756.2518, 76.52609
756.7339, 78.97945
757.2161, 67.02487
757.6982, 53.91805
758.1803, 28.02693
758.6624, 18.15767
759.1445, 42.10791
759.6266, 64.86856
760.1088, 64.78659
760.5909, 49.79883
761.0730, 36.81734
761.5551, 31.32408
762.0372, 27.76450
762.5193, 21.83510
763.0015, 18.45621
763.4836, 21.62915
763.9657, 32.16071
764.4478, 59.13467
764.9299, 104.7119
765.4120, 141.5208
765.8942, 127.8066
766.3763, 71.42978
766.8584, 39.62564
767.3405, 35.29344
767.8226, 35.47589
768.3047, 35.21260
768.7869, 31.47804
769.2690, 17.05193
769.7511, 8.870544
770.2332, 14.25203
770.7153, 28.54243
771.1974, 54.13794
771.6796, 34.05647
772.1617, 8.880463
772.6438, 13.65828
773.1259, 42.23367
773.6080, 64.32230
774.0901, 70.27379
774.5723, 64.44518
775.0544, 40.34032
775.5365, 11.62759
776.0186, 4.298599
776.5007, 6.635849
776.9828, 0.3721620
777.4650, 12.38374
777.9471, 26.71837
778.4292, 34.96205
778.9113, 37.58913
779.3934, 38.44044
779.8755, 36.66170
780.3577, 38.25330
780.8398, 45.74257
781.3219, 54.50095
781.8040, 56.50607
782.2861, 49.96448
782.7682, 47.94968
783.2504, 59.26086
783.7325, 63.52896
784.2146, 47.41002
784.6967, 29.02594
785.1788, 27.21600
785.6609, 40.75771
786.1431, 49.89807
786.6252, 45.09573
787.1073, 37.95850
787.5894, 36.84790
788.0715, 35.71062
788.5536, 22.78806
789.0358, 2.470200
789.5179, 8.487076
790.0000, 0.9702610
790.4821, 18.72997
790.9642, 26.64893
791.4463, 27.13425
791.9284, 29.59932
792.4105, 34.94226
792.8926, 41.35703
793.3748, 46.34625
793.8569, 53.35023
794.3390, 67.61732
794.8211, 92.24031
795.3032, 95.48470
795.7853, 58.98192
796.2675, 36.34268
796.7496, 62.30627
797.2317, 98.71181
797.7138, 97.05679
798.1959, 57.62323
798.6780, 32.60834
799.1602, 40.18248
799.6423, 48.74928
800.1244, 47.97253
800.6065, 42.68483
801.0886, 34.43707
801.5707, 26.16966
802.0529, 26.24843
802.5350, 42.55901
803.0171, 58.80563
803.4992, 56.51758
803.9813, 44.45612
804.4634, 38.75130
804.9456, 40.32507
805.4277, 40.17911
805.9098, 32.79964
806.3919, 23.84503
806.8740, 19.07796
807.3561, 18.71634
807.8383, 33.69403
808.3204, 69.17101
808.8025, 87.60278
809.2846, 69.12262
809.7667, 39.66490
810.2488, 33.62933
810.7310, 52.59991
811.2131, 58.55991
811.6952, 41.71703
812.1773, 25.74683
812.6594, 11.21194
813.1415, 1.183929
813.6237, 9.7793996E-02
814.1058, 5.658447
814.5879, 9.258865
815.0700, 4.385345
815.5521, 5.032135
816.0342, 24.23813
816.5164, 45.58437
816.9985, 57.45096
817.4806, 58.36499
817.9627, 44.19539
818.4448, 13.39561
818.9269, 11.54578
819.4091, 1.701767
819.8912, 26.12859
820.3733, 38.45457
820.8554, 37.26529
821.3375, 37.74414
821.8196, 44.56386
822.3018, 49.84077
822.7839, 43.76759
823.2660, 30.24266
823.7481, 32.76157
824.2302, 55.71642
824.7123, 67.30139
825.1945, 58.44183
825.6766, 45.04977
826.1587, 36.01266
826.6408, 32.31200
827.1229, 38.29283
827.6050, 67.13654
828.0872, 79.64006
828.5693, 66.52567
829.0514, 49.88785
829.5335, 32.18758
830.0156, 21.10620
830.4977, 28.44200
830.9799, 57.31401
831.4620, 76.74771
831.9441, 66.89024
832.4262, 53.15340
832.9083, 54.56003
833.3904, 59.95010
833.8726, 47.55092
834.3547, 20.11139
834.8368, 8.071838
835.3189, 37.24277
835.8010, 72.19363
836.2831, 62.19965
836.7653, 25.02188
837.2474, 2.558975
837.7295, 1.272186
838.2116, 1.536072
838.6937, 4.743866
839.1758, 10.67303
839.6580, 27.50900
840.1401, 54.75275
840.6222, 58.89619
841.1043, 34.80725
841.5864, 20.75700
842.0685, 33.20370
842.5507, 53.23442
843.0328, 58.93301
843.5149, 50.86975
843.9970, 48.82011
844.4791, 64.57832
844.9612, 66.06752
845.4434, 33.02899
845.9255, 0.2295230
846.4076, 14.00951
846.8897, 12.29724
847.3718, 0.4065090
847.8539, 29.98973
848.3361, 49.91786
848.8182, 47.36488
849.3003, 37.66475
849.7824, 23.18010
850.2645, 11.04630
850.7466, 15.39003
851.2288, 36.95021
851.7109, 50.46951
852.1930, 31.56323
852.6751, 5.765427
853.1572, 4.908844
853.6393, 3.985565
854.1215, 5.551102
854.6036, 20.77191
855.0857, 32.96045
855.5678, 36.09735
856.0499, 35.84294
856.5320, 45.41132
857.0142, 61.02072
857.4963, 55.20860
857.9784, 29.39034
858.4605, 15.15828
858.9426, 27.68132
859.4247, 49.80437
859.9069, 58.78287
860.3890, 54.87247
860.8711, 43.81647
861.3532, 22.56955
861.8353, 5.093887
862.3174, 7.822220
862.7996, 11.28207
863.2817, 2.706924
863.7638, 29.77493
864.2459, 47.60913
864.7280, 57.51633
865.2101, 55.81989
865.6923, 26.44809
866.1744, 3.616180
866.6565, 8.205414
867.1386, 25.83734
867.6207, 35.11295
868.1028, 33.17883
868.5850, 31.56982
869.0671, 36.00009
869.5492, 38.21425
870.0313, 33.44957
870.5134, 24.99577
870.9955, 12.88664
871.4777, 0.2226100
871.9598, 2.427429
872.4419, 13.64250
872.9240, 30.98347
873.4061, 33.86768
873.8882, 30.94691
874.3703, 35.84738
874.8524, 45.38399
875.3345, 44.97382
875.8167, 29.64723
876.2988, 15.38905
876.7809, 21.96613
877.2630, 40.87206
877.7451, 49.55334
878.2272, 48.89641
878.7094, 41.35574
879.1915, 27.93451
879.6736, 18.83046
880.1557, 22.63307
880.6378, 34.49751
881.1199, 42.64236
881.6021, 47.07619
882.0842, 45.86833
882.5663, 36.76108
883.0484, 34.91103
883.5305, 51.37793
884.0126, 70.16533
884.4948, 65.15729
884.9769, 34.21829
885.4590, 16.77106
885.9411, 21.45287
886.4232, 21.30873
886.9053, 2.251770
887.3875, 13.35275
887.8696, 2.371857
888.3517, 27.45670
888.8338, 42.99292
889.3159, 35.49011
889.7980, 30.23987
890.2802, 31.18124
890.7623, 32.13127
891.2444, 30.64522
891.7265, 27.25482
892.2086, 20.58470
892.6907, 10.81204
893.1729, 8.648956
893.6550, 29.16158
894.1371, 43.93390
894.6192, 31.37451
895.1013, 12.36870
895.5834, 8.642807
896.0656, 18.69962
896.5477, 30.25523
897.0298, 39.66699
897.5119, 43.82684
897.9940, 33.92162
898.4761, 22.57303
898.9583, 26.77122
899.4404, 40.83603
899.9225, 52.55099
900.4046, 57.85690
900.8867, 54.45329
901.3688, 33.39256
901.8510, 13.76134
902.3331, 37.49150
902.8152, 84.24080
903.2973, 93.70934
903.7794, 63.04727
904.2615, 31.93126
904.7437, 22.41061
905.2258, 25.48802
905.7079, 25.63626
906.1900, 24.21043
906.6721, 35.08450
907.1542, 58.12257
907.6364, 62.72295
908.1185, 37.49927
908.6006, 17.45099
909.0827, 38.01828
909.5648, 84.18539
910.0469, 95.28552
910.5291, 65.06680
911.0112, 36.76968
911.4933, 10.45990
911.9754, 0.9127200
912.4575, 23.81531
912.9396, 53.29593
913.4218, 44.20586
913.9039, 9.080109
914.3860, 28.63568
914.8681, 7.958984
915.3502, 35.07544
915.8323, 36.26672
916.3145, 28.61861
916.7966, 19.03340
917.2787, 10.83978
917.7608, 16.83627
918.2429, 51.85120
918.7250, 68.33704
919.2072, 46.77800
919.6893, 27.50682
920.1714, 27.01399
920.6535, 35.43146
921.1356, 42.19559
921.6177, 46.03104
922.0999, 52.34552
922.5820, 67.10510
923.0641, 78.55807
923.5462, 87.08328
924.0283, 85.78165
924.5104, 59.12143
924.9926, 21.48073
925.4747, 0.2100220
925.9568, 3.026245
926.4389, 13.04948
926.9210, 27.82492
927.4031, 41.43428
927.8853, 50.02724
928.3674, 53.71626
928.8495, 51.28647
929.3316, 43.52618
929.8137, 33.13052
930.2958, 20.68260
930.7780, 10.10464
931.2601, 4.001633
931.7422, 2.395264
932.2243, 6.410751
932.7064, 14.65257
933.1885, 25.65416
933.6707, 38.25371
934.1528, 47.54672
934.6349, 48.71773
935.1170, 45.90627
935.5991, 44.92288
936.0812, 44.38344
936.5634, 39.78897
937.0455, 32.03893
937.5276, 28.11092
938.0097, 31.38068
938.4918, 36.23378
938.9739, 35.14133
939.4561, 30.34221
939.9382, 29.09674
940.4203, 30.12950
940.9024, 24.98285
941.3845, 12.39061
941.8666, 3.717056
942.3488, 7.514725
942.8309, 18.94872
943.3130, 30.65479
943.7951, 41.78606
944.2772, 42.64851
944.7593, 32.99290
945.2415, 28.49820
945.7236, 37.24910
946.2057, 49.32028
946.6878, 55.20874
947.1699, 54.71227
947.6520, 43.33249
948.1342, 19.64539
948.6163, 12.40778
949.0984, 28.94865
949.5805, 40.81059
950.0626, 34.12828
950.5447, 21.96741
951.0269, 26.73076
951.5090, 48.74673
951.9911, 58.83441
952.4732, 54.87883
952.9553, 47.22052
953.4374, 35.67847
953.9196, 27.59213
954.4017, 29.86226
954.8838, 38.24553
955.3659, 40.21504
955.8480, 32.47446
956.3301, 31.85690
956.8122, 43.89554
957.2943, 50.55750
957.7764, 45.39684
958.2585, 33.02563
958.7407, 13.18964
959.2228, 10.73389
959.7049, 12.28265
960.1870, 26.32721
960.6691, 50.23950
961.1512, 49.64813
961.6334, 45.17865
962.1155, 47.46913
962.5976, 49.78426
963.0797, 39.52521
963.5618, 15.07881
964.0439, 5.364563
964.5261, 28.15720
965.0082, 39.43040
965.4903, 22.40134
965.9724, 4.879654
966.4545, 4.103897
966.9366, 13.36307
967.4188, 18.75162
967.9009, 17.90147
968.3830, 21.99005
968.8651, 38.59662
969.3472, 51.03917
969.8293, 54.30588
970.3115, 52.38979
970.7936, 47.12991
971.2757, 39.47015
971.7578, 30.56590
972.2399, 17.09050
972.7220, 12.27036
973.2042, 23.70178
973.6863, 32.77740
974.1684, 27.49506
974.6505, 18.99600
975.1326, 21.99966
975.6147, 34.63275
976.0969, 38.86240
976.5790, 24.33252
977.0611, 12.85590
977.5432, 7.090546
978.0253, 8.347717
978.5074, 28.08536
978.9896, 49.59531
979.4717, 44.03174
979.9538, 10.20377
980.4359, 9.649277
980.9180, 11.92178
981.4001, 27.68753
981.8823, 11.20273
982.3644, 6.688766
982.8465, 3.766693
983.3286, 27.62744
983.8107, 31.46625
984.2928, 7.627533
984.7750, 7.031143
985.2571, 7.726318
985.7392, 23.83679
986.2213, 31.04144
986.7034, 33.96744
987.1855, 37.03885
987.6677, 39.77823
988.1498, 39.10696
988.6319, 33.38153
989.1140, 29.62363
989.5961, 34.85690
990.0782, 37.94238
990.5604, 28.37991
991.0425, 16.32986
991.5246, 14.39810
992.0067, 20.88965
992.4888, 24.74118
992.9709, 21.64282
993.4531, 19.25775
993.9352, 18.03152
994.4173, 19.08130
994.8994, 27.87030
995.3815, 36.49167
995.8636, 30.66742
996.3458, 12.99466
996.8279, 5.173126
997.3100, 18.09061
997.7921, 35.75162
998.2742, 62.23712
998.7563, 79.21469
999.2385, 63.52484
999.7206, 33.71906
1000.203, 17.70126
1000.685, 19.28610
1001.167, 23.82278
1001.649, 23.68304
1002.131, 27.69641
1002.613, 51.26443
1003.095, 70.31781
1003.578, 57.22507
1004.060, 28.20792
1004.542, 15.85095
1005.024, 25.33884
1005.506, 27.43329
1005.988, 7.541931
1006.470, 31.34811
1006.952, 6.194000
1007.434, 28.11481
1007.917, 35.56665
1008.399, 24.34415
1008.881, 15.88626
1009.363, 15.07715
1009.845, 17.87482
1010.327, 24.70142
1010.809, 32.12460
1011.291, 39.86664
1011.773, 46.10559
1012.256, 48.88889
1012.738, 48.86850
1013.220, 47.41809
1013.702, 44.59641
1014.184, 43.00098
1014.666, 45.91742
1015.148, 47.53418
1015.630, 43.57764
1016.113, 38.25470
1016.595, 35.38947
1017.077, 34.13907
1017.559, 32.89041
1018.041, 31.07349
1018.523, 34.20218
1019.005, 50.53238
1019.487, 64.99280
1019.969, 74.93353
1020.452, 75.53406
1020.934, 53.12091
1021.416, 17.71042
1021.898, 2.285980
1022.380, 21.45447
1022.862, 35.84998
1023.344, 32.35422
1023.826, 24.04370
1024.308, 10.92834
1024.791, 0.7100220
1025.273, 3.983551
1025.755, 17.32788
1026.237, 25.45969
1026.719, 23.80734
1027.201, 21.43011
1027.683, 20.28241
1028.165, 18.74615
1028.648, 15.06000
1029.130, 13.38284
1029.612, 14.57294
1030.094, 19.27905
1030.576, 28.79453
1031.058, 49.51395
1031.540, 62.00269
1032.022, 59.47812
1032.505, 53.49252
1032.987, 43.30637
1033.469, 35.93188
1033.951, 43.53049
1034.433, 62.52979
1034.915, 67.26547
1035.397, 41.84729
1035.879, 27.32132
1036.361, 32.87927
1036.844, 40.44077
1037.326, 45.83038
1037.808, 48.27808
1038.290, 45.53436
1038.772, 39.24258
1039.254, 33.31024
1039.736, 21.49829
1040.218, 22.28473
1040.700, 55.29065
1041.183, 71.63358
1041.665, 38.85501
1042.147, 3.332855
1042.629, 11.25343
1043.111, 11.64816
1043.593, 32.47659
1044.075, 55.43823
1044.557, 64.68002
1045.040, 53.05740
1045.522, 42.10074
1046.004, 40.66345
1046.486, 42.67166
1046.968, 41.93765
1047.450, 38.57303
1047.932, 31.65662
1048.414, 17.34390
1048.896, 19.22864
1049.379, 47.23801
1049.861, 57.21323
1050.343, 24.63278
1050.825, 10.68590
1051.307, 2.115356
1051.789, 38.13147
1052.271, 49.37299
1052.753, 28.08997
1053.235, 19.24042
1053.718, 26.51733
1054.200, 42.95209
1054.682, 68.30408
1055.164, 85.41565
1055.646, 73.22650
1056.128, 44.11984
1056.610, 43.65210
1057.092, 68.64136
1057.575, 67.60806
1058.057, 38.15485
1058.539, 26.00031
1059.021, 47.51144
1059.503, 69.95782
1059.985, 61.31644
1060.467, 36.08655
1060.949, 26.16635
1061.432, 28.59760
1061.914, 33.27817
1062.396, 38.70236
1062.878, 40.91910
1063.360, 39.02472
1063.842, 37.90796
1064.324, 41.81927
1064.806, 48.73767
1065.288, 47.99716
1065.771, 43.20004
1066.253, 42.55209
1066.735, 45.70099
1067.217, 49.55988
1067.699, 53.29175
1068.181, 58.12659
1068.663, 66.13150
1069.145, 72.79257
1069.627, 74.05328
1070.110, 68.29022
1070.592, 49.97513
1071.074, 26.02209
1071.556, 7.738312
1072.038, 1.230286
1072.520, 3.901428
1073.002, 33.34705
1073.484, 56.79407
1073.967, 47.10376
1074.449, 27.63684
1074.931, 14.62408
1075.413, 8.185760
1075.895, 7.847076
1076.377, 12.34036
1076.859, 17.11505
1077.341, 20.74957
1077.823, 24.14288
1078.306, 22.45560
1078.788, 26.59982
1079.270, 56.11575
1079.752, 85.18405
1080.234, 77.87119
1080.716, 41.84613
1081.198, 21.87762
1081.680, 32.35883
1082.162, 40.02911
1082.645, 33.92822
1083.127, 32.58878
1083.609, 51.24442
1084.091, 69.65253
1084.573, 71.28348
1085.055, 58.10416
1085.537, 33.32861
1086.019, 14.87111
1086.501, 34.80118
1086.984, 13.91522
1087.466, 10.42355
1087.948, 35.18292
1088.430, 50.14743
1088.912, 44.26590
1089.394, 27.38260
1089.876, 22.65961
1090.358, 31.21796
1090.841, 37.96524
1091.323, 42.51779
1091.805, 48.39459
1092.287, 57.29816
1092.769, 61.12198
1093.251, 54.42395
1093.733, 41.55942
1094.215, 27.00635
1094.698, 12.60532
1095.180, 9.481537
1095.662, 17.01944
1096.144, 33.31073
1096.626, 56.31458
1097.108, 64.46518
1097.590, 46.97086
1098.072, 25.02682
1098.554, 21.86371
1099.036, 32.85110
1099.519, 58.84711
1100.001, 87.90002
1100.483, 84.67810
1100.965, 56.51212
1101.447, 36.87915
1101.929, 37.90952
1102.411, 46.21964
1102.893, 55.33908
1103.376, 61.46030
1103.858, 57.70316
1104.340, 51.09146
1104.822, 53.48727
1105.304, 58.80792
1105.786, 49.38358
1106.268, 24.42871
1106.750, 10.26996
1107.233, 27.68497
1107.715, 43.03430
1108.197, 37.46249
1108.679, 26.93561
1109.161, 23.39304
1109.643, 25.24551
1110.125, 30.07394
1110.607, 37.31137
1111.089, 45.75363
1111.572, 59.78253
1112.054, 66.00266
1112.536, 54.24725
1113.018, 46.13153
1113.500, 56.28644
1113.982, 64.89322
1114.464, 52.55469
1114.946, 26.70724
1115.428, 8.482208
1115.911, 9.2160003E-03
1116.393, 0.6553650
1116.875, 8.952148
1117.357, 18.55893
1117.839, 26.84348
1118.321, 29.16693
1118.803, 18.98611
1119.285, 10.44495
1119.768, 36.76880
1120.250, 91.22894
1120.732, 102.0103
1121.214, 72.58127
1121.696, 59.41248
1122.178, 69.87119
1122.660, 68.46194
1123.142, 37.49438
1123.625, 10.81473
1124.107, 36.65469
1124.589, 82.30957
1125.071, 86.25336
1125.553, 62.04913
1126.035, 27.06009
1126.517, 6.455994
1126.999, 8.202881
1127.481, 27.59579
1127.964, 58.92764
1128.446, 55.65945
1128.928, 42.68307
1129.410, 34.51709
1129.892, 30.51297
1130.374, 34.49438
1130.856, 40.19672
1131.338, 33.48648
1131.820, 17.06128
1132.303, 17.47504
1132.785, 53.63089
1133.267, 81.01871
1133.749, 85.93710
1134.231, 83.16989
1134.713, 73.63342
1135.195, 63.60318
1135.677, 58.79297
1136.160, 58.08487
1136.642, 58.82101
1137.124, 62.50513
1137.606, 59.73645
1138.088, 44.14526
1138.570, 41.43921
1139.052, 62.43481
1139.534, 80.40262
1140.016, 81.50122
1140.499, 69.85904
1140.981, 49.05505
1141.463, 22.09048
1141.945, 12.18793
1142.427, 18.25525
1142.909, 26.63696
1143.391, 35.42123
1143.873, 43.60355
1144.355, 50.75714
1144.838, 56.09589
1145.320, 56.39752
1145.802, 51.46622
1146.284, 35.64279
1146.766, 19.43771
1147.248, 28.84351
1147.730, 51.28207
1148.212, 52.91681
1148.695, 30.63553
1149.177, 11.80612
1149.659, 10.46094
1150.141, 11.71246
1150.623, 3.061401
1151.105, 1.770691
1151.587, 9.658966
1152.069, 27.25644
1152.552, 45.22131
1153.034, 58.89578
1153.516, 55.66092
1153.998, 28.01776
1154.480, 10.33603
1154.962, 5.081696
1155.444, 11.74478
1155.926, 44.07211
1156.408, 65.86618
1156.891, 49.55933
1157.373, 22.75232
1157.855, 28.25308
1158.337, 61.01651
1158.819, 72.18884
1159.301, 60.46817
1159.783, 41.74725
1160.265, 16.83127
1160.747, 4.651489
1161.230, 12.08224
1161.712, 20.52182
1162.194, 12.95538
1162.676, 0.6190490
1163.158, 6.787781
1163.640, 21.35522
1164.122, 20.98853
1164.604, 9.947845
1165.086, 4.333862
1165.569, 15.72214
1166.051, 4.517303
1166.533, 41.19000
1167.015, 76.42001
1167.497, 56.15753
1167.979, 32.68967
1168.461, 46.12302
1168.943, 68.77094
1169.426, 76.26398
1169.908, 71.05096
1170.390, 62.59229
1170.872, 52.15417
1171.354, 35.16251
1171.836, 12.03738
1172.318, 26.53091
1172.800, 18.59784
1173.282, 57.11383
1173.765, 56.85547
1174.247, 53.47638
1174.729, 88.63629
1175.211, 142.0543
1175.693, 142.8570
1176.175, 89.41724
1176.657, 46.89423
1177.139, 16.31183
1177.621, 2.393707
1178.104, 5.391266
1178.586, 9.501129
1179.068, 5.243805
1179.550, 6.510590
1180.032, 42.58670
1180.514, 84.32272
1180.996, 74.24033
1181.478, 42.53052
1181.961, 46.98206
1182.443, 73.99274
1182.925, 70.35544
1183.407, 26.64224
1183.889, 4.922058
1184.371, 4.291656
1184.853, 19.71332
1185.335, 37.20993
1185.818, 46.49835
1186.300, 34.29407
1186.782, 17.13516
1187.264, 12.47510
1187.746, 18.40439
1188.228, 27.90277
1188.710, 43.96753
1189.192, 46.98776
1189.674, 29.32904
1190.156, 27.97592
1190.639, 54.22043
1191.121, 75.83902
1191.603, 75.13559
1192.085, 62.69846
1192.567, 50.33234
1193.049, 39.08676
1193.531, 32.27029
1194.013, 29.24878
1194.496, 31.34207
1194.978, 35.08798
1195.460, 23.38879
1195.942, 3.449768
1196.424, 14.02408
1196.906, 14.58655
1197.388, 43.03836
1197.870, 36.74802
1198.353, 24.23260
1198.835, 24.44247
1199.317, 32.11685
1199.799, 48.18790
1200.281, 64.26205
1200.763, 56.91574
1201.245, 18.02356
1201.727, 3.686371
1202.209, 35.97269
1202.692, 54.21588
1203.174, 49.27847
1203.656, 36.32858
1204.138, 15.88937
1204.620, 7.181000
1205.102, 35.54358
1205.584, 81.64041
1206.066, 86.59387
1206.548, 56.86682
1207.031, 33.95776
1207.513, 20.15219
1207.995, 23.71652
1208.477, 42.58011
1208.959, 56.57443
1209.441, 56.13892
1209.923, 51.71359
1210.405, 54.04446
1210.888, 54.69162
1211.370, 42.12915
1211.852, 27.92133
1212.334, 23.83969
1212.816, 26.61209
1213.298, 27.17838
1213.780, 26.04742
1214.262, 38.25385
1214.745, 84.71210
1215.227, 106.5867
1215.709, 92.27032
1216.191, 74.19418
1216.673, 57.13751
1217.155, 46.32608
1217.637, 46.88931
1218.119, 51.75067
1218.601, 48.39551
1219.083, 38.29218
1219.566, 26.77042
1220.048, 15.57797
1220.530, 13.94409
1221.012, 21.26489
1221.494, 28.18616
1221.976, 34.82751
1222.458, 44.77863
1222.940, 62.60254
1223.423, 77.38681
1223.905, 83.37872
1224.387, 78.81107
1224.869, 47.05978
1225.351, 16.45370
1225.833, 14.09085
1226.315, 31.09735
1226.797, 38.01428
1227.280, 29.22717
1227.762, 31.95139
1228.244, 58.97742
1228.726, 69.51337
1229.208, 54.15378
1229.690, 38.72116
1230.172, 33.18024
1230.654, 29.75333
1231.136, 21.41605
1231.619, 13.98413
1232.101, 24.16333
1232.583, 46.24106
1233.065, 61.93286
1233.547, 70.70502
1234.029, 69.76794
1234.511, 61.37738
1234.993, 55.63950
1235.475, 55.90039
1235.958, 50.75223
1236.440, 23.86801
1236.922, 1.404175
1237.404, 3.827728
1237.886, 13.56824
1238.368, 28.50098
1238.850, 38.60913
1239.332, 24.00482
1239.815, 3.699219
1240.297, 4.607635
1240.779, 27.31137
1241.261, 46.31851
1241.743, 51.37756
1242.225, 48.96576
1242.707, 39.46387
1243.189, 33.38019
1243.672, 35.48898
1244.154, 42.88568
1244.636, 54.89291
1245.118, 65.22906
1245.600, 61.94208
1246.082, 51.80029
1246.564, 44.73123
1247.046, 38.99152
1247.528, 26.84427
1248.010, 12.06021
1248.493, 12.07004
1248.975, 34.54849
1249.457, 47.16098
1249.939, 30.30087
1250.421, 19.93387
1250.903, 22.96872
1251.385, 34.75488
1251.867, 60.65854
1252.349, 80.82697
1252.832, 72.27359
1253.314, 45.93100
1253.796, 31.57971
1254.278, 28.97162
1254.760, 42.93390
1255.242, 67.96436
1255.724, 72.88635
1256.206, 57.78799
1256.689, 52.73392
1257.171, 68.51324
1257.653, 76.08371
1258.135, 46.20398
1258.617, 15.41403
1259.099, 8.443787
1259.581, 11.65295
1260.063, 20.86227
1260.546, 27.71045
1261.028, 16.78458
1261.510, 2.848389
1261.992, 0.8973690
1262.474, 32.61841
1262.956, 40.41980
1263.438, 19.13754
1263.920, 8.593567
1264.402, 14.22229
1264.885, 20.38760
1265.367, 21.12939
1265.849, 19.03503
1266.331, 13.81866
1266.813, 16.62207
1267.295, 56.10760
1267.777, 100.2922
1268.259, 106.3127
1268.741, 89.18018
1269.224, 58.40036
1269.706, 24.23624
1270.188, 28.00729
1270.670, 72.40945
1271.152, 87.07236
1271.634, 22.66632
1272.116, 5.052765
1272.598, 30.94907
1273.081, 53.87726
1273.563, 36.45099
1274.045, 16.56955
1274.527, 20.77283
1275.009, 19.51987
1275.491, 30.62173
1275.973, 26.16248
1276.455, 16.92316
1276.938, 0.0000000E+00
##END=



