##NAMES=Eucairite
##RRUFFID=R060639
##IDEAL CHEMISTRY=CuAgSe
##LOCALITY=Mina Santa Brigida, Sierra de Famatina, La Rioja, Argentina
##OWNER=RRUFF
##SOURCE=Michael Scott
##DESCRIPTION=Black metallic coarsely crystalline massive
##STATUS=The identification of this mineral has been confirmed by X-ray diffraction and chemical analysis
##URL=rruff.info/R060639
##MEASURED CHEMISTRY=Cu_1.00_Ag_1.00_Se_1.00_
111.404, 0.000
111.886, 0.263
112.368, 18.804
112.850, 51.924
113.332, 95.076
113.814, 157.026
114.296, 217.885
114.778, 273.252
115.260, 342.008
115.743, 421.179
116.225, 431.611
116.707, 422.346
117.189, 389.090
117.671, 322.404
118.153, 236.508
118.635, 148.255
119.117, 13.507
119.600, 37.594
120.082, 25.100
120.564, 24.911
121.046, 66.287
121.528, 99.484
122.010, 98.941
122.492, 142.688
122.974, 169.100
123.456, 204.499
123.939, 264.013
124.421, 375.911
124.903, 515.103
125.385, 667.743
125.867, 835.343
126.349, 982.102
126.831, 1081.282
127.313, 1183.155
127.796, 1298.416
128.278, 1429.083
128.760, 1578.341
129.242, 1757.443
129.724, 1985.119
130.206, 2144.042
130.688, 2223.534
131.170, 2254.211
131.652, 2250.667
132.135, 2212.633
132.617, 2127.895
133.099, 1976.929
133.581, 1728.203
134.063, 1500.221
134.545, 1281.385
135.027, 1086.279
135.509, 923.678
135.992, 795.257
136.474, 699.660
136.956, 638.014
137.438, 630.039
137.920, 619.446
138.402, 592.212
138.884, 570.326
139.366, 572.374
139.848, 603.059
140.331, 654.044
140.813, 712.045
141.295, 781.799
141.777, 852.016
142.259, 929.295
142.741, 1004.065
143.223, 1064.726
143.705, 1107.355
144.188, 1137.586
144.670, 1165.775
145.152, 1191.267
145.634, 1216.014
146.116, 1240.761
146.598, 1264.795
147.080, 1288.300
147.562, 1312.172
148.044, 1333.144
148.527, 1342.534
149.009, 1339.321
149.491, 1330.349
149.973, 1318.401
150.455, 1301.850
150.937, 1275.077
151.419, 1232.592
151.901, 1184.114
152.383, 1153.001
152.866, 1142.426
153.348, 1138.405
153.830, 1140.498
154.312, 1145.738
154.794, 1145.435
155.276, 1134.553
155.758, 1117.084
156.240, 1102.177
156.723, 1086.549
157.205, 1078.169
157.687, 1083.800
158.169, 1101.119
158.651, 1122.472
159.133, 1150.979
159.615, 1175.690
160.097, 1175.301
160.579, 1137.748
161.062, 1095.078
161.544, 1065.012
162.026, 1047.132
162.508, 1038.498
162.990, 1044.049
163.472, 1054.883
163.954, 1052.858
164.436, 1029.484
164.919, 1004.801
165.401, 997.095
165.883, 1005.530
166.365, 1010.907
166.847, 1001.896
167.329, 985.293
167.811, 973.029
168.293, 968.526
168.775, 965.093
169.258, 953.894
169.740, 936.581
170.222, 921.351
170.704, 916.963
171.186, 914.636
171.668, 901.262
172.150, 870.528
172.632, 835.073
173.115, 807.680
173.597, 788.772
174.079, 772.010
174.561, 755.997
175.043, 739.751
175.525, 721.789
176.007, 700.694
176.489, 679.456
176.971, 659.718
177.454, 641.102
177.936, 627.097
178.418, 625.108
178.900, 625.030
179.382, 616.390
179.864, 593.951
180.346, 566.697
180.828, 545.344
181.311, 530.482
181.793, 518.593
182.275, 511.825
182.757, 505.935
183.239, 496.098
183.721, 479.480
184.203, 461.255
184.685, 449.070
185.167, 444.572
185.650, 438.181
186.132, 422.344
186.614, 403.907
187.096, 389.278
187.578, 380.711
188.060, 375.475
188.542, 368.602
189.024, 358.476
189.507, 353.669
189.989, 368.119
190.471, 385.145
190.953, 388.644
191.435, 372.054
191.917, 345.732
192.399, 320.991
192.881, 296.901
193.363, 280.381
193.846, 278.224
194.328, 281.698
194.810, 284.745
195.292, 286.201
195.774, 286.288
196.256, 285.265
196.738, 283.222
197.220, 279.874
197.702, 271.376
198.185, 263.193
198.667, 261.354
199.149, 268.803
199.631, 276.876
200.113, 273.588
200.595, 256.841
201.077, 239.710
201.559, 225.159
202.042, 212.404
202.524, 200.446
203.006, 188.597
203.488, 179.843
203.970, 180.111
204.452, 191.410
204.934, 198.105
205.416, 190.145
205.898, 178.717
206.380, 172.337
206.863, 172.904
207.345, 175.229
207.827, 174.578
208.309, 171.153
208.791, 164.075
209.273, 149.592
209.755, 133.285
210.238, 117.714
210.720, 103.259
211.202, 93.176
211.684, 92.165
212.166, 100.604
212.648, 108.714
213.130, 116.119
213.612, 120.888
214.094, 120.785
214.577, 115.633
215.059, 109.284
215.541, 106.268
216.023, 106.698
216.505, 103.564
216.987, 92.235
217.469, 79.959
217.951, 70.824
218.434, 65.080
218.916, 63.071
219.398, 68.568
219.880, 80.329
220.362, 83.757
220.844, 66.647
221.326, 51.604
221.808, 59.857
222.290, 89.013
222.773, 115.068
223.255, 118.995
223.737, 104.967
224.219, 97.260
224.701, 104.239
225.183, 109.848
225.665, 97.730
226.147, 72.003
226.629, 52.209
227.112, 53.152
227.594, 68.022
228.076, 73.587
228.558, 64.818
229.040, 53.193
229.522, 46.172
230.004, 43.373
230.486, 45.172
230.969, 58.391
231.451, 73.785
231.933, 73.703
232.415, 53.179
232.897, 30.951
233.379, 16.766
233.861, 9.441
234.343, 6.441
234.825, 7.524
235.307, 12.682
235.790, 19.608
236.272, 29.888
236.754, 35.778
237.236, 28.832
237.718, 14.291
238.200, 2.278
238.682, 4.923
239.165, 8.897
239.647, 11.407
240.129, 12.571
240.611, 10.691
241.093, 1.896
241.575, 10.046
242.057, 16.690
242.539, 15.059
243.021, 11.205
243.503, 9.657
243.986, 9.953
244.468, 8.592
244.950, 2.667
245.432, 4.677
245.914, 6.050
246.396, 2.802
246.878, 10.386
247.361, 8.278
247.843, 0.310
248.325, 4.244
248.807, 3.209
249.289, 14.405
249.771, 12.087
250.253, 10.238
250.735, 27.518
251.217, 26.646
251.699, 14.570
252.182, 3.397
252.664, 3.657
253.146, 7.051
253.628, 5.929
254.110, 1.796
254.592, 5.245
255.074, 1.325
255.556, 11.738
256.039, 19.078
256.521, 21.869
257.003, 21.016
257.485, 16.322
257.967, 5.714
258.449, 0.262
258.931, 3.044
259.413, 9.462
259.896, 14.153
260.378, 17.157
260.860, 19.873
261.342, 24.068
261.824, 29.305
262.306, 33.103
262.788, 37.463
263.270, 38.608
263.752, 33.722
264.234, 23.422
264.717, 12.388
265.199, 3.465
265.681, 3.329
266.163, 7.927
266.645, 12.795
267.127, 13.300
267.609, 4.536
268.091, 9.283
268.574, 20.719
269.056, 25.551
269.538, 25.045
270.020, 24.577
270.502, 25.986
270.984, 25.239
271.466, 21.302
271.948, 15.182
272.431, 7.920
272.913, 0.132
273.395, 7.652
273.877, 14.687
274.359, 22.741
274.841, 26.482
275.323, 22.164
275.805, 16.295
276.287, 14.843
276.770, 18.664
277.252, 22.990
277.734, 20.131
278.216, 5.707
278.698, 1.493
279.180, 5.922
279.662, 14.555
280.144, 19.589
280.626, 20.023
281.109, 15.881
281.591, 5.003
282.073, 12.818
282.555, 23.712
283.037, 13.861
283.519, 13.167
284.001, 0.031
284.483, 17.131
284.966, 26.975
285.448, 29.896
285.930, 5.027
286.412, 15.418
286.894, 15.485
287.376, 18.023
287.858, 2.323
288.340, 9.683
288.823, 5.713
289.305, 14.450
289.787, 16.888
290.269, 5.816
290.751, 3.971
291.233, 0.720
291.715, 3.093
292.197, 11.208
292.679, 7.892
293.161, 4.327
293.644, 12.111
294.126, 22.129
294.608, 33.331
295.090, 38.915
295.572, 35.214
296.054, 27.926
296.536, 22.944
297.018, 19.431
297.501, 19.095
297.983, 26.981
298.465, 37.490
298.947, 39.383
299.429, 29.574
299.911, 17.593
300.393, 12.480
300.875, 14.283
301.358, 19.341
301.840, 33.937
302.322, 46.839
302.804, 44.834
303.286, 29.336
303.768, 17.093
304.250, 21.840
304.732, 41.625
305.214, 49.987
305.697, 38.955
306.179, 26.786
306.661, 16.508
307.143, 10.401
307.625, 14.916
308.107, 34.257
308.589, 60.586
309.071, 72.173
309.553, 48.738
310.036, 35.994
310.518, 44.239
311.000, 59.412
311.482, 68.114
311.964, 66.570
312.446, 59.002
312.928, 51.500
313.410, 43.998
313.892, 36.514
314.375, 24.874
314.857, 16.618
315.339, 10.151
315.821, 9.507
316.303, 27.393
316.785, 10.658
317.267, 35.128
317.750, 49.568
318.232, 54.546
318.714, 21.655
319.196, 37.660
319.678, 33.975
320.160, 29.479
320.642, 52.311
321.124, 24.765
321.606, 47.149
322.089, 49.593
322.571, 61.155
323.053, 52.955
323.535, 50.713
324.017, 68.052
324.499, 74.224
324.981, 63.156
325.463, 75.050
325.945, 46.754
326.428, 53.901
326.910, 76.339
327.392, 60.032
327.874, 60.063
328.356, 42.283
328.838, 29.130
329.320, 34.525
329.802, 49.781
330.284, 58.979
330.767, 59.329
331.249, 59.400
331.731, 69.791
332.213, 88.176
332.695, 94.529
333.177, 73.243
333.659, 52.367
334.141, 56.565
334.624, 79.500
335.106, 93.492
335.588, 82.216
336.070, 54.318
336.552, 40.362
337.034, 51.852
337.516, 60.857
337.998, 63.050
338.480, 60.432
338.963, 53.820
339.445, 44.033
339.927, 34.866
340.409, 32.010
340.891, 40.354
341.373, 43.218
341.855, 34.270
342.337, 25.932
342.819, 24.573
343.302, 30.065
343.784, 38.292
344.266, 47.364
344.748, 56.845
345.230, 63.196
345.712, 66.433
346.194, 64.724
346.677, 55.633
347.159, 43.498
347.641, 34.625
348.123, 30.954
348.605, 32.423
349.087, 37.098
349.569, 46.696
350.051, 52.628
350.533, 45.927
351.016, 37.535
351.498, 35.868
351.980, 42.046
352.462, 45.694
352.944, 33.806
353.426, 12.255
353.908, 5.631
354.390, 22.153
354.872, 42.090
355.355, 46.270
355.837, 38.309
356.319, 30.278
356.801, 24.327
357.283, 19.862
357.765, 14.717
358.247, 9.481
358.729, 9.847
359.211, 20.878
359.694, 39.334
360.176, 50.940
360.658, 58.249
361.140, 57.034
361.622, 45.458
362.104, 26.176
362.586, 50.951
363.069, 65.068
363.551, 69.100
364.033, 32.753
364.515, 48.122
364.997, 42.407
365.479, 35.997
365.961, 47.562
366.443, 47.171
366.925, 35.957
367.408, 25.069
367.890, 23.639
368.372, 30.269
368.854, 32.836
369.336, 39.935
369.818, 25.357
370.300, 41.048
370.782, 49.387
371.264, 50.812
371.747, 24.473
372.229, 33.715
372.711, 28.326
373.193, 22.098
373.675, 35.846
374.157, 13.252
374.639, 26.705
375.121, 23.524
375.603, 18.063
376.086, 12.200
376.568, 18.669
377.050, 32.263
377.532, 43.955
378.014, 53.419
378.496, 57.849
378.978, 51.758
379.460, 38.055
379.943, 29.702
380.425, 30.464
380.907, 32.919
381.389, 33.536
381.871, 32.981
382.353, 32.965
382.835, 34.313
383.317, 35.552
383.799, 33.638
384.282, 24.197
384.764, 19.825
385.246, 25.485
385.728, 32.414
386.210, 32.377
386.692, 26.248
387.174, 23.014
387.656, 31.740
388.138, 51.575
388.621, 61.674
389.103, 56.508
389.585, 47.626
390.067, 33.343
390.549, 18.768
391.031, 11.461
391.513, 15.064
391.996, 21.432
392.478, 15.299
392.960, 5.713
393.442, 14.822
393.924, 1.553
394.406, 23.903
394.888, 40.050
395.370, 49.607
395.852, 52.726
396.335, 44.010
396.817, 29.976
397.299, 20.555
397.781, 16.124
398.263, 14.705
398.745, 12.199
399.227, 10.925
399.709, 17.095
400.191, 44.755
400.674, 63.816
401.156, 53.690
401.638, 29.201
402.120, 16.448
402.602, 24.166
403.084, 39.922
403.566, 44.476
404.048, 31.792
404.530, 24.255
405.013, 27.277
405.495, 29.828
405.977, 23.284
406.459, 10.898
406.941, 2.955
407.423, 7.335
407.905, 20.381
408.387, 26.143
408.870, 21.549
409.352, 15.493
409.834, 8.282
410.316, 1.780
410.798, 2.461
411.280, 4.203
411.762, 3.383
412.244, 1.968
412.727, 10.701
413.209, 16.156
413.691, 16.377
414.173, 15.594
414.655, 15.912
415.137, 17.740
415.619, 23.632
416.101, 42.955
416.583, 59.220
417.065, 55.212
417.548, 36.027
418.030, 21.201
418.512, 19.746
418.994, 26.750
419.476, 31.411
419.958, 33.448
420.440, 33.380
420.922, 26.676
421.405, 21.027
421.887, 25.005
422.369, 37.325
422.851, 48.087
423.333, 48.016
423.815, 38.077
424.297, 33.169
424.779, 38.254
425.262, 41.533
425.744, 38.778
426.226, 33.550
426.708, 30.348
427.190, 30.738
427.672, 30.720
428.154, 23.058
428.636, 8.644
429.118, 3.173
429.601, 12.608
430.083, 26.038
430.565, 35.817
431.047, 42.036
431.529, 44.073
432.011, 37.233
432.493, 29.469
432.975, 20.378
433.457, 13.953
433.940, 1.756
434.422, 18.623
434.904, 30.311
435.386, 33.729
435.868, 4.112
436.350, 17.338
436.832, 13.283
437.314, 8.526
437.797, 27.568
438.279, 2.910
438.761, 21.572
439.243, 22.924
439.725, 32.207
440.207, 24.252
440.689, 21.610
441.171, 36.173
441.654, 41.207
442.136, 31.276
442.618, 41.052
443.100, 15.657
443.582, 21.095
444.064, 39.849
444.546, 30.773
445.028, 40.831
445.510, 43.602
445.992, 13.252
446.475, 40.501
446.957, 42.839
447.439, 19.599
447.921, 44.872
448.403, 25.142
448.885, 21.398
449.367, 29.203
449.849, 17.012
450.332, 9.797
450.814, 6.754
451.296, 11.810
451.778, 9.718
452.260, 21.994
452.742, 25.270
453.224, 7.378
453.706, 6.360
454.189, 1.512
454.671, 4.096
455.153, 16.173
455.635, 11.284
456.117, 8.520
456.599, 9.431
457.081, 18.968
457.563, 9.859
458.045, 6.063
458.527, 6.261
459.010, 10.255
459.492, 14.549
459.974, 16.286
460.456, 16.931
460.938, 20.069
461.420, 26.259
461.902, 31.454
462.384, 32.699
462.867, 30.694
463.349, 29.296
463.831, 28.189
464.313, 27.941
464.795, 28.827
465.277, 30.736
465.759, 35.202
466.241, 41.735
466.724, 44.859
467.206, 37.142
467.688, 16.969
468.170, 2.656
468.652, 5.214
469.134, 7.228
469.616, 0.715
470.098, 10.983
470.580, 24.184
471.063, 37.970
471.545, 49.150
472.027, 51.553
472.509, 45.992
472.991, 45.579
473.473, 56.461
473.955, 66.170
474.437, 60.153
474.919, 42.471
475.402, 28.708
475.884, 24.258
476.366, 23.032
476.848, 21.820
477.330, 20.418
477.812, 18.304
478.294, 15.113
478.776, 12.409
479.259, 13.496
479.741, 22.389
480.223, 24.906
480.705, 14.032
481.187, 26.774
481.669, 33.783
482.151, 35.367
482.633, 15.278
483.116, 23.175
483.598, 19.855
484.080, 16.076
484.562, 27.910
485.044, 10.972
485.526, 21.026
486.008, 17.721
486.490, 10.783
486.972, 23.249
487.454, 31.071
487.937, 34.434
488.419, 19.935
488.901, 28.501
489.383, 27.823
489.865, 26.766
490.347, 38.578
490.829, 26.676
491.311, 37.018
491.794, 33.662
492.276, 29.819
492.758, 16.999
493.240, 10.145
493.722, 4.638
494.204, 12.046
494.686, 21.102
495.168, 22.920
495.651, 4.044
496.133, 5.613
496.615, 1.134
497.097, 0.681
497.579, 11.335
498.061, 23.692
498.543, 24.572
499.025, 13.216
499.507, 2.815
499.990, 1.217
500.472, 0.529
500.954, 4.530
501.436, 13.213
501.918, 20.134
502.400, 21.864
502.882, 19.904
503.364, 19.055
503.846, 21.341
504.329, 21.976
504.811, 17.689
505.293, 14.089
505.775, 16.141
506.257, 23.326
506.739, 31.754
507.221, 39.431
507.703, 45.317
508.185, 43.538
508.668, 29.882
509.150, 20.391
509.632, 1.985
510.114, 25.768
510.596, 39.311
511.078, 43.254
511.560, 9.677
512.042, 25.511
512.525, 20.415
513.007, 14.689
513.489, 36.509
513.971, 8.221
514.453, 27.862
514.935, 28.907
515.417, 30.320
515.899, 35.463
516.381, 36.000
516.864, 27.128
517.346, 17.528
517.828, 13.520
518.310, 14.701
518.792, 17.120
519.274, 18.512
519.756, 18.758
520.239, 17.073
520.721, 12.904
521.203, 9.382
521.685, 5.036
522.167, 4.120
522.649, 13.991
523.131, 35.097
523.613, 49.050
524.095, 46.562
524.578, 37.522
525.060, 26.282
525.542, 15.080
526.024, 8.070
526.506, 7.174
526.988, 11.146
527.470, 18.030
527.952, 32.280
528.434, 39.656
528.917, 38.446
529.399, 32.878
529.881, 20.542
530.363, 5.708
530.845, 2.631
531.327, 0.151
531.809, 11.599
532.291, 5.579
532.773, 18.052
533.256, 31.776
533.738, 36.125
534.220, 3.022
534.702, 18.280
535.184, 14.156
535.666, 9.238
536.148, 31.301
536.630, 3.643
537.112, 25.278
537.595, 27.236
538.077, 24.633
538.559, 20.353
539.041, 17.001
539.523, 13.040
540.005, 7.335
540.487, 7.948
540.969, 22.248
541.452, 33.851
541.934, 36.038
542.416, 31.652
542.898, 23.949
543.380, 12.097
543.862, 3.338
544.344, 7.297
544.826, 18.703
545.308, 22.088
545.791, 14.369
546.273, 8.841
546.755, 18.576
547.237, 41.425
547.719, 50.826
548.201, 35.191
548.683, 22.391
549.166, 17.189
549.648, 17.070
550.130, 21.620
550.612, 29.451
551.094, 35.740
551.576, 35.870
552.058, 31.133
552.540, 12.376
553.022, 32.697
553.505, 43.374
553.987, 45.233
554.469, 11.182
554.951, 23.451
555.433, 17.197
555.915, 10.182
556.397, 29.003
556.879, 0.336
557.362, 16.854
557.844, 37.734
558.326, 53.754
558.808, 53.276
559.290, 42.786
559.772, 36.501
560.254, 35.089
560.736, 36.169
561.218, 47.124
561.701, 53.468
562.183, 43.251
562.665, 23.684
563.147, 12.313
563.629, 19.362
564.111, 29.860
564.593, 26.032
565.075, 12.266
565.557, 5.227
566.040, 9.128
566.522, 16.083
567.004, 19.532
567.486, 19.457
567.968, 14.127
568.450, 6.713
568.932, 19.509
569.414, 10.887
569.896, 3.976
570.379, 7.084
570.861, 3.538
571.343, 13.870
571.825, 9.222
572.307, 6.362
572.789, 15.619
573.271, 17.638
573.753, 17.634
574.235, 16.327
574.718, 15.223
575.200, 17.407
575.682, 23.896
576.164, 27.865
576.646, 26.790
577.128, 23.422
577.610, 17.006
578.093, 10.152
578.575, 9.764
579.057, 19.484
579.539, 33.491
580.021, 41.755
580.503, 44.731
580.985, 38.887
581.467, 11.100
581.949, 9.180
582.432, 0.308
582.914, 26.254
583.396, 41.635
583.878, 36.401
584.360, 27.283
584.842, 25.136
585.324, 26.808
585.806, 27.218
586.289, 25.412
586.771, 21.329
587.253, 14.241
587.735, 5.143
588.217, 0.559
588.699, 0.386
589.181, 4.885
589.663, 25.281
590.145, 44.084
590.628, 48.147
591.110, 38.725
591.592, 28.727
592.074, 25.495
592.556, 25.641
593.038, 24.032
593.520, 21.206
594.002, 20.641
594.484, 23.587
594.967, 28.662
595.449, 35.257
595.931, 44.581
596.413, 45.815
596.895, 26.849
597.377, 14.965
597.859, 23.707
598.341, 41.669
598.823, 57.317
599.306, 67.076
599.788, 70.846
600.270, 62.771
600.752, 44.355
601.234, 33.086
601.716, 30.563
602.198, 30.049
602.680, 29.486
603.162, 28.219
603.645, 23.620
604.127, 12.368
604.609, 9.755
605.091, 25.600
605.573, 42.769
606.055, 51.881
606.537, 53.904
607.019, 51.392
607.502, 45.360
607.984, 38.993
608.466, 36.649
608.948, 38.291
609.430, 43.364
609.912, 55.340
610.394, 61.825
610.876, 50.898
611.359, 30.245
611.841, 19.128
612.323, 23.128
612.805, 25.411
613.287, 18.909
613.769, 10.104
614.251, 1.204
614.733, 7.337
615.216, 11.565
615.698, 23.810
616.180, 29.760
616.662, 10.553
617.144, 23.829
617.626, 24.086
618.108, 23.810
618.590, 41.656
619.072, 26.106
619.555, 43.664
620.037, 48.006
620.519, 49.283
621.001, 61.731
621.483, 53.486
621.965, 36.439
622.447, 24.325
622.929, 19.390
623.411, 19.968
623.894, 25.776
624.376, 34.228
624.858, 34.625
625.340, 22.487
625.822, 17.198
626.304, 23.608
626.786, 35.192
627.268, 53.820
627.750, 76.070
628.233, 86.674
628.715, 74.039
629.197, 56.766
629.679, 45.769
630.161, 39.427
630.643, 34.655
631.125, 30.651
631.607, 25.924
632.089, 18.500
632.572, 9.671
633.054, 8.625
633.536, 21.053
634.018, 26.274
634.500, 13.338
634.982, 29.969
635.464, 39.412
635.946, 41.988
636.429, 17.581
636.911, 28.096
637.393, 24.568
637.875, 20.468
638.357, 35.806
638.839, 15.324
639.321, 30.354
639.803, 30.550
640.286, 37.826
640.768, 28.217
641.250, 22.660
641.732, 43.394
642.214, 55.390
642.696, 39.866
643.178, 20.170
643.660, 15.428
644.143, 24.710
644.625, 34.078
645.107, 40.635
645.589, 44.198
646.071, 43.886
646.553, 40.645
647.035, 35.630
647.517, 29.303
647.999, 23.485
648.482, 19.919
648.964, 18.603
649.446, 19.413
649.928, 22.617
650.410, 27.521
650.892, 38.962
651.374, 47.930
651.856, 44.452
652.338, 29.651
652.821, 17.655
653.303, 13.020
653.785, 11.924
654.267, 11.076
654.749, 12.199
655.231, 23.644
655.713, 44.969
656.195, 55.767
656.677, 30.711
657.160, 21.363
657.642, 39.083
658.124, 10.900
658.606, 16.142
659.088, 31.156
659.570, 38.661
660.052, 41.723
660.534, 40.834
661.016, 41.424
661.499, 51.186
661.981, 55.561
662.463, 39.031
662.945, 15.654
663.427, 6.958
663.909, 16.248
664.391, 30.809
664.873, 41.201
665.356, 46.565
665.838, 39.999
666.320, 17.825
666.802, 5.811
667.284, 15.744
667.766, 30.755
668.248, 32.753
668.730, 23.388
669.213, 16.920
669.695, 11.373
670.177, 12.690
670.659, 31.295
671.141, 53.099
671.623, 62.110
672.105, 56.887
672.587, 44.669
673.070, 29.572
673.552, 15.698
674.034, 16.920
674.516, 33.272
674.998, 42.618
675.480, 37.917
675.962, 31.461
676.444, 34.740
676.926, 46.850
677.409, 55.881
677.891, 69.457
678.373, 70.134
678.855, 39.349
679.337, 6.553
679.819, 1.672
680.301, 11.546
680.783, 25.932
681.265, 30.732
681.748, 31.294
682.230, 31.084
682.712, 30.768
683.194, 28.690
683.676, 24.588
684.158, 20.738
684.640, 19.182
685.122, 19.705
685.604, 21.519
686.087, 26.343
686.569, 29.616
687.051, 30.944
687.533, 31.071
688.015, 29.307
688.497, 26.814
688.979, 26.157
689.461, 28.723
689.943, 31.536
690.426, 34.586
690.908, 35.792
691.390, 27.327
691.872, 9.726
692.354, 2.788
692.836, 1.950
693.318, 6.418
693.800, 8.189
694.283, 1.346
694.765, 1.054
695.247, 28.798
695.729, 50.582
696.211, 45.178
696.693, 28.125
697.175, 23.847
697.657, 38.745
698.140, 47.717
698.622, 34.822
699.104, 17.319
699.586, 8.796
700.068, 8.403
700.550, 12.635
701.032, 19.961
701.514, 27.790
701.997, 33.122
702.479, 36.047
702.961, 37.172
703.443, 35.959
703.925, 35.744
704.407, 39.637
704.889, 43.273
705.371, 37.978
705.853, 22.204
706.336, 13.418
706.818, 16.604
707.300, 21.792
707.782, 24.915
708.264, 28.272
708.746, 36.360
709.228, 48.722
709.710, 58.296
710.192, 59.307
710.675, 55.214
711.157, 51.543
711.639, 48.021
712.121, 41.976
712.603, 32.305
713.085, 25.522
713.567, 28.748
714.049, 40.304
714.531, 45.296
715.014, 35.517
715.496, 30.051
715.978, 36.860
716.460, 47.400
716.942, 60.614
717.424, 73.049
717.906, 74.663
718.388, 53.706
718.870, 39.525
719.353, 28.110
719.835, 41.212
720.317, 48.364
720.799, 49.885
721.281, 28.909
721.763, 36.986
722.245, 33.421
722.727, 29.378
723.210, 41.546
723.692, 23.844
724.174, 35.755
724.656, 35.846
725.138, 41.348
725.620, 35.134
726.102, 32.540
726.584, 41.665
727.067, 44.301
727.549, 36.741
728.031, 42.781
728.513, 24.679
728.995, 27.598
729.477, 39.586
729.959, 32.623
730.441, 38.694
730.924, 39.803
731.406, 18.355
731.888, 36.136
732.370, 36.953
732.852, 20.350
733.334, 36.788
733.816, 22.587
734.298, 19.323
734.780, 24.290
735.263, 23.430
735.745, 41.612
736.227, 51.736
736.709, 33.401
737.191, 11.609
737.673, 0.364
738.155, 2.241
738.637, 4.924
739.119, 16.343
739.602, 13.508
740.084, 30.949
740.566, 36.647
741.048, 3.918
741.530, 17.384
742.012, 13.323
742.494, 7.412
742.976, 35.302
743.458, 0.906
743.941, 28.261
744.423, 30.966
744.905, 27.958
745.387, 25.312
745.869, 21.839
746.351, 18.067
746.833, 15.097
747.315, 13.454
747.797, 10.489
748.280, 5.810
748.762, 8.600
749.244, 27.286
749.726, 69.555
750.208, 80.715
750.690, 59.552
751.172, 40.000
751.654, 36.486
752.137, 41.394
752.619, 56.262
753.101, 72.762
753.583, 74.298
754.065, 59.694
754.547, 42.614
755.029, 33.157
755.511, 28.858
755.994, 22.819
756.476, 14.798
756.958, 12.865
757.440, 19.955
757.922, 27.264
758.404, 28.074
758.886, 25.339
759.368, 28.295
759.851, 44.821
760.333, 51.167
760.815, 35.833
761.297, 22.590
761.779, 19.620
762.261, 2.702
762.743, 26.583
763.225, 43.340
763.707, 48.243
764.190, 5.785
764.672, 24.483
765.154, 18.672
765.636, 11.856
766.118, 39.161
766.600, 3.591
767.082, 30.355
767.564, 32.236
768.046, 45.505
768.529, 34.115
769.011, 30.340
769.493, 51.234
769.975, 58.469
770.457, 31.703
770.939, 39.377
771.421, 43.467
771.903, 41.473
772.385, 28.001
772.868, 17.272
773.350, 6.455
773.832, 1.957
774.314, 14.196
774.796, 32.861
775.278, 38.660
775.760, 25.578
776.242, 14.210
776.724, 23.344
777.207, 36.460
777.689, 32.505
778.171, 17.749
778.653, 11.704
779.135, 18.975
779.617, 29.222
780.099, 31.916
780.581, 28.786
781.064, 31.190
781.546, 41.230
782.028, 21.028
782.510, 36.672
782.992, 43.612
783.474, 42.321
783.956, 8.134
784.438, 16.424
784.920, 7.692
785.403, 1.168
785.885, 4.228
786.367, 18.593
786.849, 34.015
787.331, 46.218
787.813, 46.400
788.295, 31.133
788.778, 17.807
789.260, 14.991
789.742, 18.038
790.224, 25.122
790.706, 34.146
791.188, 41.849
791.670, 47.292
792.152, 51.350
792.634, 54.834
793.117, 57.469
793.599, 57.699
794.081, 55.832
794.563, 57.458
795.045, 64.615
795.527, 68.553
796.009, 61.779
796.491, 47.479
796.973, 35.895
797.456, 33.199
797.938, 23.531
798.420, 8.662
798.902, 29.221
799.384, 11.964
799.866, 20.382
800.348, 34.991
800.830, 26.787
801.312, 19.766
801.795, 22.099
802.277, 25.417
802.759, 25.559
803.241, 23.559
803.723, 21.618
804.205, 19.612
804.687, 14.130
805.169, 0.692
805.652, 13.854
806.134, 5.425
806.616, 15.685
807.098, 21.841
807.580, 10.387
808.062, 4.904
808.544, 20.651
809.026, 44.487
809.508, 47.256
809.991, 25.605
810.473, 22.475
810.955, 49.841
811.437, 58.932
811.919, 18.071
812.401, 5.642
812.883, 25.625
813.365, 37.740
813.847, 42.411
814.330, 17.339
814.812, 30.673
815.294, 28.616
815.776, 25.927
816.258, 44.667
816.740, 23.920
817.222, 42.320
817.705, 45.094
818.187, 55.018
818.669, 49.457
819.151, 48.272
819.633, 39.629
820.115, 47.630
820.597, 50.129
821.079, 38.967
821.561, 26.704
822.044, 28.742
822.526, 39.024
823.008, 40.025
823.490, 32.829
823.972, 26.915
824.454, 24.802
824.936, 23.003
825.418, 17.794
825.900, 11.132
826.383, 12.287
826.865, 24.584
827.347, 32.356
827.829, 31.712
828.311, 31.149
828.793, 38.910
829.275, 48.104
829.757, 43.023
830.239, 18.577
830.722, 2.733
831.204, 1.186
831.686, 3.936
832.168, 12.743
832.650, 20.411
833.132, 16.090
833.614, 2.078
834.096, 4.289
834.578, 11.808
835.061, 26.150
835.543, 13.816
836.025, 5.177
836.507, 0.488
836.989, 22.526
837.471, 35.458
837.953, 25.308
838.435, 9.317
838.917, 10.329
839.400, 21.712
839.882, 21.231
840.364, 10.141
840.846, 6.337
841.328, 15.871
841.810, 23.993
842.292, 13.604
842.774, 9.070
843.257, 8.086
843.739, 25.819
844.221, 43.768
844.703, 31.884
845.185, 19.450
845.667, 25.571
846.149, 42.368
846.631, 52.850
847.114, 56.249
847.596, 54.909
848.078, 40.549
848.560, 31.611
849.042, 41.052
849.524, 53.685
850.006, 52.375
850.488, 37.970
850.971, 25.703
851.453, 22.268
851.935, 19.432
852.417, 9.775
852.899, 1.226
853.381, 3.916
853.863, 14.470
854.345, 22.718
854.827, 24.679
855.310, 24.773
855.792, 29.213
856.274, 32.617
856.756, 22.813
857.238, 6.542
857.720, 0.987
858.202, 3.034
858.684, 11.933
859.166, 20.999
859.649, 29.058
860.131, 32.360
860.613, 31.001
861.095, 30.832
861.577, 32.984
862.059, 32.339
862.541, 25.385
863.023, 15.846
863.505, 9.308
863.988, 7.199
864.470, 9.349
864.952, 16.835
865.434, 25.398
865.916, 38.259
866.398, 47.708
866.880, 44.130
867.362, 30.885
867.844, 22.473
868.327, 21.834
868.809, 21.763
869.291, 22.013
869.773, 21.971
870.255, 20.112
870.737, 18.314
871.219, 20.240
871.701, 26.336
872.184, 30.458
872.666, 27.547
873.148, 24.397
873.630, 24.412
874.112, 27.448
874.594, 38.160
875.076, 51.993
875.558, 52.282
876.041, 28.533
876.523, 2.685
877.005, 3.477
877.487, 3.985
877.969, 24.348
878.451, 50.745
878.933, 57.180
879.415, 37.032
879.898, 11.990
880.380, 3.201
880.862, 6.613
881.344, 13.645
881.826, 23.083
882.308, 26.492
882.790, 22.661
883.272, 17.156
883.754, 14.832
884.237, 13.205
884.719, 13.533
885.201, 16.207
885.683, 19.787
886.165, 22.261
886.647, 26.922
887.129, 37.491
887.611, 45.445
888.093, 40.264
888.576, 25.290
889.058, 19.756
889.540, 12.531
890.022, 22.162
890.504, 27.701
890.986, 29.369
891.468, 15.568
891.950, 21.458
892.432, 19.627
892.915, 17.468
893.397, 26.454
893.879, 14.567
894.361, 22.239
894.843, 26.143
895.325, 35.841
895.807, 21.914
896.289, 40.344
896.771, 50.923
897.254, 54.075
897.736, 27.535
898.218, 39.336
898.700, 35.772
899.182, 31.657
899.664, 48.857
900.146, 40.898
900.628, 44.271
901.111, 55.175
901.593, 49.355
902.075, 35.512
902.557, 19.129
903.039, 4.734
903.521, 4.161
904.003, 15.915
904.485, 32.124
904.968, 49.409
905.450, 61.846
905.932, 59.256
906.414, 46.170
906.896, 36.620
907.378, 30.346
907.860, 25.602
908.342, 22.072
908.825, 21.943
909.307, 27.146
909.789, 34.074
910.271, 34.000
910.753, 26.442
911.235, 29.797
911.717, 46.914
912.199, 58.034
912.681, 56.320
913.164, 49.132
913.646, 42.345
914.128, 36.329
914.610, 32.816
915.092, 32.556
915.574, 32.835
916.056, 34.404
916.538, 34.922
917.020, 31.633
917.503, 28.279
917.985, 31.286
918.467, 41.280
918.949, 45.081
919.431, 35.707
919.913, 30.314
920.395, 36.535
920.877, 41.438
921.359, 30.960
921.842, 11.449
922.324, 34.630
922.806, 47.447
923.288, 50.458
923.770, 14.294
924.252, 28.717
924.734, 22.867
925.216, 16.186
925.698, 37.729
926.181, 7.262
926.663, 28.358
927.145, 28.871
927.627, 38.804
928.109, 28.338
928.591, 24.173
929.073, 40.413
929.555, 22.659
930.038, 23.516
930.520, 39.683
931.002, 52.796
931.484, 52.482
931.966, 47.294
932.448, 45.487
932.930, 41.892
933.412, 23.210
933.894, 1.452
934.377, 7.087
934.859, 12.975
935.341, 33.871
935.823, 30.501
936.305, 21.226
936.787, 5.241
937.269, 24.270
937.752, 40.193
938.234, 43.258
938.716, 5.046
939.198, 12.979
939.680, 4.421
940.162, 5.227
940.644, 22.130
941.126, 18.710
941.608, 8.050
942.091, 2.878
942.573, 3.518
943.055, 13.815
943.537, 3.101
944.019, 31.238
944.501, 42.983
944.983, 40.212
945.465, 32.438
945.947, 20.326
946.430, 15.426
946.912, 21.421
947.394, 29.676
947.876, 31.876
948.358, 32.084
948.840, 23.101
949.322, 6.457
949.804, 34.197
950.286, 51.162
950.769, 57.933
951.251, 23.974
951.733, 42.611
952.215, 40.171
952.697, 48.164
953.179, 48.847
953.661, 59.879
954.143, 57.855
954.625, 33.023
955.108, 12.589
955.590, 8.443
956.072, 21.985
956.554, 0.583
957.036, 24.081
957.518, 36.460
958.000, 39.035
958.482, 0.230
958.965, 14.289
959.447, 7.163
959.929, 0.833
960.411, 8.999
960.893, 7.453
961.375, 42.010
961.857, 51.225
962.339, 14.071
962.821, 10.569
963.304, 6.673
963.786, 7.377
964.268, 20.063
964.750, 32.758
965.232, 50.761
965.714, 80.702
966.196, 95.133
966.679, 87.055
967.161, 72.611
967.643, 47.559
968.125, 24.317
968.607, 12.508
969.089, 10.753
969.571, 14.667
970.053, 28.392
970.535, 37.603
971.018, 41.565
971.500, 40.536
971.982, 28.810
972.464, 16.537
972.946, 13.556
973.428, 19.161
973.910, 27.807
974.392, 42.202
974.875, 52.850
975.357, 59.120
975.839, 60.286
976.321, 50.981
976.803, 39.758
977.285, 37.558
977.767, 43.705
978.249, 47.113
978.731, 44.469
979.214, 40.661
979.696, 34.982
980.178, 30.410
980.660, 29.750
981.142, 30.638
981.624, 27.297
982.106, 20.451
982.588, 23.334
983.070, 53.947
983.553, 74.089
984.035, 62.677
984.517, 46.358
984.999, 43.633
985.481, 48.282
985.963, 47.491
986.445, 40.070
986.927, 38.724
987.409, 56.854
987.892, 69.671
988.374, 63.410
988.856, 52.594
989.338, 47.775
989.820, 45.364
990.302, 33.843
990.784, 11.845
991.266, 1.265
991.748, 8.879
992.231, 21.066
992.713, 25.006
993.195, 25.863
993.677, 8.579
994.159, 33.908
994.641, 49.351
995.123, 54.546
995.606, 20.634
996.088, 37.218
996.570, 33.223
997.052, 28.740
997.534, 52.430
998.016, 23.846
998.498, 47.088
998.980, 44.814
999.462, 68.023
999.945, 90.204
1000.427, 111.579
1000.909, 116.685
1001.391, 81.963
1001.873, 42.008
1002.355, 34.643
1002.837, 48.634
1003.319, 51.031
1003.801, 33.285
1004.284, 22.430
1004.766, 37.598
1005.248, 54.308
1005.730, 61.038
1006.212, 61.739
1006.694, 60.858
1007.176, 57.345
1007.658, 45.909
1008.141, 24.658
1008.623, 8.328
1009.105, 5.654
1009.587, 6.806
1010.069, 10.758
1010.551, 12.526
1011.033, 1.668
1011.515, 13.669
1011.997, 12.863
1012.480, 9.873
1012.962, 29.485
1013.444, 30.306
1013.926, 32.255
1014.408, 2.507
1014.890, 9.450
1015.372, 5.021
1015.854, 17.673
1016.336, 31.221
1016.819, 36.359
1017.301, 7.384
1017.783, 22.260
1018.265, 19.677
1018.747, 16.369
1019.229, 37.635
1019.711, 13.619
1020.193, 32.084
1020.676, 50.935
1021.158, 79.871
1021.640, 88.626
1022.122, 42.400
1022.604, 5.937
1023.086, 16.181
1023.568, 35.741
1024.050, 32.601
1024.532, 16.668
1025.015, 13.121
1025.497, 26.917
1025.979, 33.592
1026.461, 18.724
1026.943, 7.314
1027.425, 7.784
1027.907, 14.058
1028.389, 26.208
1028.872, 39.074
1029.354, 43.456
1029.836, 37.793
1030.318, 33.397
1030.800, 32.110
1031.282, 32.601
1031.764, 36.034
1032.246, 39.858
1032.729, 45.156
1033.211, 48.521
1033.693, 42.251
1034.175, 25.295
1034.657, 15.968
1035.139, 13.966
1035.621, 22.724
1036.103, 57.567
1036.585, 86.872
1037.068, 88.782
1037.550, 78.128
1038.032, 78.899
1038.514, 91.764
1038.996, 89.647
1039.478, 53.920
1039.960, 32.827
1040.442, 23.722
1040.924, 4.225
1041.407, 31.449
1041.889, 47.331
1042.371, 52.481
1042.853, 14.760
1043.335, 32.403
1043.817, 27.862
1044.299, 22.411
1044.781, 35.632
1045.264, 27.194
1045.746, 6.407
1046.228, 9.161
1046.710, 3.548
1047.192, 38.389
1047.674, 59.410
1048.156, 67.237
1048.638, 56.071
1049.120, 14.155
1049.603, 13.550
1050.085, 10.446
1050.567, 4.079
1051.049, 1.421
1051.531, 6.183
1052.013, 13.021
1052.495, 17.319
1052.977, 35.631
1053.459, 42.562
1053.942, 4.030
1054.424, 24.208
1054.906, 20.856
1055.388, 16.538
1055.870, 44.985
1056.352, 13.065
1056.834, 40.993
1057.316, 45.034
1057.799, 60.013
1058.281, 46.423
1058.763, 48.433
1059.245, 51.473
1059.727, 56.611
1060.209, 61.780
1060.691, 62.883
1061.173, 61.166
1061.656, 64.241
1062.138, 70.514
1062.620, 68.256
1063.102, 56.705
1063.584, 48.158
1064.066, 48.990
1064.548, 52.112
1065.030, 49.803
1065.512, 43.213
1065.995, 31.217
1066.477, 17.906
1066.959, 16.908
1067.441, 26.295
1067.923, 30.310
1068.405, 23.475
1068.887, 18.022
1069.369, 28.051
1069.851, 38.376
1070.334, 20.972
1070.816, 4.938
1071.298, 5.481
1071.780, 12.621
1072.262, 27.620
1072.744, 33.938
1073.226, 33.671
1073.708, 26.613
1074.190, 20.075
1074.673, 22.202
1075.155, 25.960
1075.637, 22.029
1076.119, 16.148
1076.601, 19.078
1077.083, 30.524
1077.565, 40.383
1078.047, 44.311
1078.530, 18.955
1079.012, 45.153
1079.494, 58.838
1079.976, 60.685
1080.458, 15.231
1080.940, 30.857
1081.422, 22.005
1081.904, 12.150
1082.386, 36.375
1082.869, 2.202
1083.351, 21.482
1083.833, 15.763
1084.315, 24.424
1084.797, 30.171
1085.279, 23.371
1085.761, 10.693
1086.243, 5.059
1086.725, 6.735
1087.208, 12.910
1087.690, 14.221
1088.172, 3.230
1088.654, 21.539
1089.136, 36.061
1089.618, 40.884
1090.100, 6.963
1090.582, 22.395
1091.065, 29.505
1091.547, 30.040
1092.029, 21.648
1092.511, 19.653
1092.993, 25.878
1093.475, 33.998
1093.957, 42.243
1094.439, 50.160
1094.922, 58.430
1095.404, 63.281
1095.886, 50.084
1096.368, 21.937
1096.850, 16.427
1097.332, 32.065
1097.814, 38.183
1098.296, 28.470
1098.778, 18.062
1099.260, 16.006
1099.743, 20.560
1100.225, 35.670
1100.707, 53.069
1101.189, 46.721
1101.671, 26.985
1102.153, 20.499
1102.635, 28.082
1103.117, 39.530
1103.600, 50.237
1104.082, 51.564
1104.564, 30.990
1105.046, 9.120
1105.528, 10.512
1106.010, 21.267
1106.492, 26.188
1106.974, 26.506
1107.457, 27.649
1107.939, 30.907
1108.421, 29.366
1108.903, 10.606
1109.385, 31.409
1109.867, 41.806
1110.349, 43.920
1110.831, 9.731
1111.313, 22.421
1111.796, 16.323
1112.278, 9.460
1112.760, 28.751
1113.242, 0.152
1113.724, 18.725
1114.206, 18.530
1114.688, 27.065
1115.170, 16.697
1115.652, 12.168
1116.135, 10.547
1116.617, 7.929
1117.099, 5.149
1117.581, 2.307
1118.063, 5.463
1118.545, 16.377
1119.027, 27.152
1119.509, 38.675
1119.992, 41.621
1120.474, 30.238
1120.956, 14.205
1121.438, 35.781
1121.920, 48.229
1122.402, 52.660
1122.884, 21.996
1123.366, 35.860
1123.849, 31.867
1124.331, 27.656
1124.813, 38.999
1125.295, 36.503
1125.777, 52.005
1126.259, 68.851
1126.741, 64.415
1127.223, 49.014
1127.705, 37.190
1128.188, 29.872
1128.670, 31.669
1129.152, 39.024
1129.634, 39.901
1130.116, 31.299
1130.598, 26.196
1131.080, 36.914
1131.562, 45.716
1132.044, 36.148
1132.527, 25.318
1133.009, 30.369
1133.491, 40.830
1133.973, 39.548
1134.455, 28.356
1134.937, 24.725
1135.419, 34.281
1135.901, 40.962
1136.384, 38.933
1136.866, 38.243
1137.348, 45.335
1137.830, 50.622
1138.312, 47.879
1138.794, 39.273
1139.276, 26.754
1139.758, 10.343
1140.240, 6.495
1140.723, 18.923
1141.205, 27.905
1141.687, 31.355
1142.169, 31.804
1142.651, 30.091
1143.133, 26.250
1143.615, 19.872
1144.097, 12.719
1144.579, 5.552
1145.062, 1.255
1145.544, 22.218
1146.026, 60.330
1146.508, 73.004
1146.990, 56.046
1147.472, 39.088
1147.954, 37.028
1148.436, 37.951
1148.919, 27.404
1149.401, 16.581
1149.883, 22.276
1150.365, 32.205
1150.847, 27.576
1151.329, 15.172
1151.811, 12.534
1152.293, 21.424
1152.776, 27.813
1153.258, 24.372
1153.740, 22.664
1154.222, 31.947
1154.704, 37.378
1155.186, 26.080
1155.668, 12.615
1156.150, 14.234
1156.632, 23.554
1157.115, 18.651
1157.597, 3.891
1158.079, 13.659
1158.561, 5.977
1159.043, 1.636
1159.525, 7.555
1160.007, 11.360
1160.489, 12.976
1160.971, 11.322
1161.454, 3.560
1161.936, 4.969
1162.418, 6.277
1162.900, 32.480
1163.382, 36.321
1163.864, 21.526
1164.346, 22.129
1164.828, 42.223
1165.311, 55.524
1165.793, 48.330
1166.275, 33.737
1166.757, 16.571
1167.239, 7.565
1167.721, 29.415
1168.203, 58.970
1168.685, 67.340
1169.167, 58.451
1169.650, 42.051
1170.132, 21.641
1170.614, 11.142
1171.096, 18.048
1171.578, 28.291
1172.060, 42.785
1172.542, 53.269
1173.024, 52.860
1173.506, 50.302
1173.989, 54.305
1174.471, 60.224
1174.953, 58.553
1175.435, 49.037
1175.917, 40.344
1176.399, 32.218
1176.881, 25.580
1177.363, 19.911
1177.846, 21.934
1178.328, 35.603
1178.810, 41.742
1179.292, 20.449
1179.774, 8.190
1180.256, 3.443
1180.738, 36.199
1181.220, 27.623
1181.703, 6.300
1182.185, 14.584
1182.667, 3.008
1183.149, 13.609
1183.631, 5.867
1184.113, 1.611
1184.595, 5.290
1185.077, 13.792
1185.559, 15.434
1186.042, 15.310
1186.524, 17.983
1187.006, 20.903
1187.488, 19.048
1187.970, 14.122
1188.452, 14.349
1188.934, 22.989
1189.416, 27.627
1189.898, 25.424
1190.381, 25.082
1190.863, 31.017
1191.345, 30.107
1191.827, 11.575
1192.309, 4.234
1192.791, 9.276
1193.273, 39.914
1193.755, 44.083
1194.238, 26.730
1194.720, 20.245
1195.202, 29.383
1195.684, 21.396
1196.166, 34.079
1196.648, 41.745
1197.130, 42.988
1197.612, 26.297
1198.094, 34.716
1198.577, 33.324
1199.059, 30.972
1199.541, 42.825
1200.023, 29.508
1200.505, 41.157
1200.987, 41.017
1201.469, 53.216
1201.951, 59.577
1202.433, 39.930
1202.916, 28.273
1203.398, 38.092
1203.880, 41.483
1204.362, 28.800
1204.844, 18.040
1205.326, 20.384
1205.808, 25.856
1206.290, 20.523
1206.773, 9.248
1207.255, 15.410
1207.737, 36.689
1208.219, 31.429
1208.701, 6.059
1209.183, 0.182
1209.665, 25.530
1210.147, 41.785
1210.630, 31.638
1211.112, 18.595
1211.594, 29.114
1212.076, 41.199
1212.558, 29.143
1213.040, 10.789
1213.522, 1.511
1214.004, 15.039
1214.486, 21.730
1214.969, 24.453
1215.451, 6.199
1215.933, 15.006
1216.415, 12.952
1216.897, 10.492
1217.379, 23.135
1217.861, 7.952
1218.343, 20.351
1218.825, 21.725
1219.308, 28.130
1219.790, 21.349
1220.272, 40.068
1220.754, 44.059
1221.236, 35.388
1221.718, 25.394
1222.200, 16.381
1222.682, 17.675
1223.165, 29.460
1223.647, 34.729
1224.129, 27.179
1224.611, 16.429
1225.093, 6.700
1225.575, 1.122
1226.057, 0.165
1226.539, 3.718
1227.021, 5.443
1227.504, 10.770
1227.986, 20.845
1228.468, 25.119
1228.950, 6.234
1229.432, 17.309
1229.914, 16.430
1230.396, 15.067
1230.878, 29.064
1231.360, 22.065
1231.843, 14.255
1232.325, 11.790
1232.807, 10.409
1233.289, 14.026
1233.771, 18.138
1234.253, 17.320
1234.735, 11.927
1235.217, 6.351
1235.700, 0.000
##END=



