##NAMES=Euchroite
##RRUFFID=R050579
##IDEAL CHEMISTRY=Cu^2+^_2_As^5+^O_4_(OH)&#183;3H_2_O
##LOCALITY=Lubietova, Banskobystricky, Slovakia
##OWNER=RRUFF
##SOURCE=University of Arizona Mineral Museum
##DESCRIPTION=Green prismatic crystal
##STATUS=The identification of this mineral is confirmed by single-crystal X-ray diffraction and chemical analysis.
##URL=rruff.info/R050579
##MEASURED CHEMISTRY=Cu_2.00_((As_0.99_P_0.01_)_Σ=1_O_4_)(OH)·3H_2_O; = gray phase. The dark phase: Cu_2.00_((As_0.96_P_0.04_)_Σ=1_O_4_)(OH)·3H_2_O; light phase: olivenite: Cu_2.00_((As_0.98_P_0.02_)_Σ=1_O_4_)(OH)
149.9194, 0.0000000E+00
150.4015, 9.6653998E-02
150.8836, 6.7830002E-03
151.3657, 0.1669880
151.8479, 0.4567980
152.3300, 0.5802690
152.8121, 0.6006590
153.2942, 0.9411790
153.7763, 1.742397
154.2584, 2.363692
154.7406, 2.143517
155.2227, 1.169075
155.7048, 0.2618890
156.1869, 6.9390997E-02
156.6690, 0.8524070
157.1511, 1.702330
157.6333, 2.970874
158.1154, 4.162307
158.5975, 4.715210
159.0796, 4.588213
159.5617, 4.027822
160.0438, 3.155230
160.5260, 2.122249
161.0081, 1.921739
161.4902, 2.041159
161.9723, 2.283297
162.4544, 2.493219
162.9365, 2.611099
163.4187, 2.634420
163.9008, 2.546837
164.3829, 2.370728
164.8650, 2.155549
165.3471, 1.793977
165.8292, 1.370519
166.3113, 1.413283
166.7935, 2.455296
167.2756, 3.612141
167.7577, 4.273065
168.2398, 4.417573
168.7219, 4.252668
169.2040, 3.801459
169.6862, 2.959867
170.1683, 2.081634
170.6504, 0.9259520
171.1325, 5.5190999E-02
171.6146, 0.6087100
172.0967, 0.6704190
172.5789, 0.3609910
173.0610, 0.2352900
173.5431, 1.430542
174.0252, 2.193533
174.5073, 2.294976
174.9894, 2.131573
175.4716, 1.949953
175.9537, 1.839722
176.4358, 1.780321
176.9179, 1.733753
177.4000, 1.743938
177.8821, 1.702330
178.3643, 1.369031
178.8464, 1.082787
179.3285, 1.339697
179.8106, 2.342489
180.2927, 3.664398
180.7748, 4.122478
181.2570, 2.622024
181.7391, 1.598344
182.2212, 1.592909
182.7033, 2.177842
183.1854, 2.756706
183.6675, 3.081654
184.1497, 3.216210
184.6318, 3.112993
185.1139, 2.807864
185.5960, 2.394251
186.0781, 1.753319
186.5602, 0.9972030
187.0423, 0.4003140
187.5245, 2.5067000E-02
188.0066, 2.0440999E-02
188.4887, 0.4696420
188.9708, 1.847413
189.4529, 3.130797
189.9350, 3.591722
190.4172, 3.297038
190.8993, 3.008004
191.3814, 3.190653
191.8635, 3.488257
192.3456, 3.371468
192.8277, 2.653527
193.3099, 1.789646
193.7920, 1.201106
194.2741, 0.8791280
194.7562, 0.7358500
195.2383, 0.8253240
195.7204, 1.045071
196.2026, 1.354929
196.6847, 1.769460
197.1668, 2.188605
197.6489, 2.464500
198.1310, 2.576496
198.6131, 2.594707
199.0953, 2.511059
199.5774, 2.366976
200.0595, 2.117065
200.5416, 1.713155
201.0237, 1.375463
201.5058, 1.724900
201.9880, 3.583363
202.4701, 4.607355
202.9522, 3.741488
203.4343, 2.241198
203.9164, 1.389499
204.3985, 1.777768
204.8807, 2.991987
205.3628, 3.778570
205.8449, 3.732255
206.3270, 3.735840
206.8091, 4.147658
207.2912, 4.573207
207.7733, 4.494838
208.2555, 3.598459
208.7376, 2.169079
209.2197, 1.264527
209.7018, 1.453951
210.1839, 1.558378
210.6660, 1.338939
211.1482, 0.9911520
211.6303, 0.8090540
212.1124, 0.9510250
212.5945, 1.333963
213.0766, 1.625947
213.5587, 1.767712
214.0409, 1.886338
214.5230, 1.944676
215.0051, 2.009397
215.4872, 2.319008
215.9693, 3.094816
216.4514, 4.034747
216.9336, 3.882557
217.4157, 1.514247
217.8978, 0.2520250
218.3799, 6.2930003E-02
218.8620, 1.728906
219.3441, 2.867464
219.8263, 2.441795
220.3084, 1.063841
220.7905, 0.4455630
221.2726, 0.8922350
221.7547, 1.451191
222.2368, 1.707434
222.7190, 1.697867
223.2011, 1.532559
223.6832, 1.119535
224.1653, 0.7086060
224.6474, 0.7658800
225.1295, 1.463162
225.6117, 2.194175
226.0938, 2.551775
226.5759, 2.569737
227.0580, 2.502340
227.5401, 2.301552
228.0222, 2.180359
228.5043, 2.464722
228.9865, 3.272748
229.4686, 3.967782
229.9507, 4.013721
230.4328, 3.439919
230.9149, 2.769433
231.3970, 1.935596
231.8792, 1.187701
232.3613, 0.7045380
232.8434, 0.5084720
233.3255, 0.5992030
233.8076, 1.084104
234.2897, 2.005482
234.7719, 2.837298
235.2540, 3.850980
235.7361, 4.437046
236.2182, 3.855758
236.7003, 2.063686
237.1824, 0.2654540
237.6646, 0.1357630
238.1467, 1.112381
238.6288, 2.327806
239.1109, 3.545724
239.5930, 4.475720
240.0751, 4.935975
240.5573, 4.911878
241.0394, 4.526018
241.5215, 3.808508
242.0036, 2.531312
242.4857, 1.840506
242.9678, 1.989320
243.4500, 2.480749
243.9321, 3.311284
244.4142, 4.320085
244.8963, 5.030971
245.3784, 4.703737
245.8605, 2.820053
246.3427, 1.856198
246.8248, 2.606008
247.3069, 3.532659
247.7890, 3.938167
248.2711, 3.750751
248.7532, 3.359200
249.2354, 3.171850
249.7175, 3.290747
250.1996, 3.166907
250.6817, 2.597054
251.1638, 1.998428
251.6459, 1.478528
252.1281, 1.091117
252.6102, 0.9030260
253.0923, 0.9865260
253.5744, 1.368125
254.0565, 1.880433
254.5386, 3.025610
255.0208, 3.828027
255.5029, 3.527319
255.9850, 2.386613
256.4671, 1.398358
256.9492, 1.499314
257.4313, 2.854322
257.9135, 3.334398
258.3956, 2.358407
258.8777, 1.282909
259.3598, 0.5582350
259.8419, 0.2145200
260.3240, 0.1498010
260.8062, 0.2973270
261.2883, 0.6456090
261.7704, 1.229897
262.2525, 2.544257
262.7346, 3.555400
263.2167, 3.714992
263.6989, 3.211648
264.1810, 2.548559
264.6631, 2.001097
265.1452, 1.587130
265.6273, 1.467807
266.1094, 1.749032
266.5916, 2.139084
267.0737, 2.628426
267.5558, 3.152225
268.0379, 3.592669
268.5200, 3.905411
269.0021, 4.061391
269.4843, 3.927180
269.9664, 3.201257
270.4485, 2.617871
270.9306, 2.537785
271.4127, 2.764583
271.8948, 2.802701
272.3770, 2.340930
272.8591, 1.736402
273.3412, 2.066211
273.8233, 3.899434
274.3054, 5.284808
274.7875, 5.296133
275.2697, 4.487475
275.7518, 3.918111
276.2339, 4.052562
276.7160, 4.451745
277.1981, 4.230340
277.6802, 3.309454
278.1623, 2.411307
278.6444, 1.620289
279.1266, 1.005306
279.6087, 0.7094500
280.0908, 0.7957890
280.5729, 1.101239
281.0550, 1.546644
281.5371, 2.164829
282.0193, 2.422513
282.5014, 1.690040
282.9835, 0.6857380
283.4656, 0.6725130
283.9477, 2.026725
284.4298, 3.431033
284.9120, 3.201634
285.3941, 1.588704
285.8762, 0.3941570
286.3583, 7.1355000E-02
286.8404, 0.3259780
287.3225, 1.003377
287.8047, 2.173038
288.2868, 3.146515
288.7689, 3.128007
289.2510, 2.415188
289.7331, 2.082554
290.2152, 2.704420
290.6974, 3.538336
291.1795, 3.855194
291.6616, 3.635279
292.1437, 3.109898
292.6258, 2.177444
293.1079, 1.083071
293.5901, 0.3798410
294.0722, 0.1538190
294.5543, 0.2997630
295.0364, 0.9627220
295.5185, 2.100113
296.0006, 2.932622
296.4828, 3.054675
296.9649, 2.623967
297.4470, 1.986989
297.9291, 1.068553
298.4112, 0.1427040
298.8933, 0.9259990
299.3755, 1.986192
299.8576, 1.972631
300.3397, 0.1267330
300.8218, 2.766801
301.3039, 3.765031
301.7860, 2.924310
302.2682, 1.968060
302.7503, 2.078989
303.2324, 2.882197
303.7145, 2.951644
304.1966, 1.644700
304.6787, 0.1487790
305.1609, 0.2496720
305.6430, 0.3185460
306.1251, 0.9310700
306.6072, 1.053407
307.0893, 0.9799000
307.5714, 1.515089
308.0536, 3.041442
308.5357, 4.345442
309.0178, 4.046821
309.4999, 2.658541
309.9820, 1.483377
310.4641, 0.9114290
310.9463, 0.8067260
311.4284, 1.172883
311.9105, 2.138589
312.3926, 2.837357
312.8747, 2.294952
313.3568, 1.162987
313.8390, 0.6178290
314.3211, 1.098746
314.8032, 2.024652
315.2853, 3.098693
315.7674, 4.333700
316.2495, 4.788373
316.7317, 3.477675
317.2138, 1.404599
317.6959, 0.1275270
318.1780, 8.2488999E-02
318.6601, 9.3961000E-02
319.1422, 0.1922040
319.6243, 0.2369460
320.1064, 0.3828940
320.5886, 0.6906330
321.0707, 1.125872
321.5528, 1.672882
322.0349, 2.349507
322.5170, 2.929428
322.9991, 3.238866
323.4813, 3.355791
323.9634, 3.546894
324.4455, 3.943845
324.9276, 4.233278
325.4097, 3.994931
325.8918, 3.333374
326.3740, 2.738636
326.8561, 2.346632
327.3382, 2.135987
327.8203, 2.066376
328.3024, 2.131448
328.7845, 2.365797
329.2667, 3.017832
329.7488, 3.863099
330.2309, 4.322947
330.7130, 4.108587
331.1951, 3.589143
331.6772, 2.974023
332.1594, 2.269315
332.6415, 1.922774
333.1236, 2.508977
333.6057, 3.444468
334.0878, 3.423184
334.5699, 1.787455
335.0521, 0.3305340
335.5342, 0.4742070
336.0163, 1.861563
336.4984, 2.937913
336.9805, 3.089782
337.4626, 2.796222
337.9448, 2.889759
338.4269, 3.476308
338.9090, 3.721512
339.3911, 2.775301
339.8732, 1.354589
340.3553, 1.050448
340.8375, 2.400729
341.3196, 3.960774
341.8017, 3.949493
342.2838, 2.531448
342.7659, 1.332314
343.2480, 0.4191210
343.7302, 0.1208780
344.2123, 0.1283830
344.6944, 0.4015950
345.1765, 1.063135
345.6586, 1.673639
346.1407, 2.150857
346.6229, 2.278665
347.1050, 1.646650
347.5871, 1.028836
348.0692, 1.021532
348.5513, 1.465373
349.0334, 1.676490
349.5156, 1.193332
349.9977, 0.4071060
350.4798, 0.4244450
350.9619, 1.519948
351.4440, 2.678521
351.9261, 3.792613
352.4083, 4.713203
352.8904, 5.103562
353.3725, 4.818775
353.8546, 4.275022
354.3367, 4.133890
354.8188, 4.600054
355.3010, 4.570140
355.7831, 3.296165
356.2652, 1.887812
356.7473, 1.383695
357.2294, 1.855397
357.7115, 2.614056
358.1937, 3.180613
358.6758, 3.413054
359.1579, 3.390183
359.6400, 3.104903
360.1221, 2.603704
360.6042, 1.698180
361.0863, 0.5744520
361.5685, 0.2943940
362.0506, 0.6365460
362.5327, 0.5470830
363.0148, 0.4069550
363.4969, 9.0697996E-02
363.9790, 0.1739910
364.4612, 0.2860360
364.9433, 0.3563490
365.4254, 0.5279090
365.9075, 0.8459940
366.3896, 1.237916
366.8717, 1.596681
367.3539, 1.956038
367.8360, 2.184490
368.3181, 2.076287
368.8002, 2.002884
369.2823, 2.422547
369.7644, 3.275284
370.2466, 3.851906
370.7287, 3.281791
371.2108, 1.522563
371.6929, 0.7611330
372.1750, 1.898340
372.6571, 2.991681
373.1393, 3.685705
373.6214, 3.909697
374.1035, 3.542930
374.5856, 2.480536
375.0677, 1.009041
375.5498, 5.5348001E-02
376.0320, 6.9489002E-02
376.5141, 7.2554000E-02
376.9962, 0.1139610
377.4783, 2.1865999E-02
377.9604, 0.4743160
378.4425, 1.390822
378.9247, 2.335213
379.4068, 2.757443
379.8889, 2.521035
380.3710, 2.230121
380.8531, 1.740656
381.3352, 1.325777
381.8174, 1.071799
382.2995, 0.9954430
382.7816, 1.110376
383.2637, 1.467295
383.7458, 2.024831
384.2279, 2.510134
384.7101, 3.005911
385.1922, 3.279838
385.6743, 3.112617
386.1564, 2.775924
386.6385, 2.645515
387.1206, 2.903633
387.6028, 3.229107
388.0849, 2.959188
388.5670, 1.863790
389.0491, 1.287117
389.5312, 2.205846
390.0133, 3.278356
390.4955, 3.478167
390.9776, 2.789993
391.4597, 2.184455
391.9418, 2.570427
392.4239, 3.758435
392.9060, 4.646597
393.3882, 5.184396
393.8703, 5.355102
394.3524, 5.003601
394.8345, 4.313455
395.3166, 3.661548
395.7987, 3.172091
396.2809, 2.803718
396.7630, 2.491884
397.2451, 2.229271
397.7272, 2.133293
398.2093, 2.533198
398.6914, 2.949990
399.1736, 2.436107
399.6557, 0.4693110
400.1378, 0.8207340
400.6199, 0.7937280
401.1020, 4.076181
401.5841, 5.391448
402.0662, 3.516074
402.5483, 0.7754600
403.0305, 5.8474999E-02
403.5126, 0.8805400
403.9947, 1.680357
404.4768, 1.986157
404.9589, 2.042965
405.4410, 1.978989
405.9232, 1.833665
406.4053, 1.828456
406.8874, 2.188636
407.3695, 2.784353
407.8516, 2.956327
408.3337, 2.147295
408.8159, 1.620590
409.2980, 2.193016
409.7801, 3.198339
410.2622, 3.451615
410.7443, 2.531165
411.2264, 1.140105
411.7086, 0.3802800
412.1907, 0.4551160
412.6728, 0.7679380
413.1549, 1.802241
413.6370, 2.686397
414.1191, 2.595679
414.6013, 1.704666
415.0834, 0.9119650
415.5655, 0.9342390
416.0476, 1.730771
416.5297, 2.603610
417.0118, 4.103416
417.4940, 5.031058
417.9761, 5.004979
418.4582, 4.357846
418.9403, 3.298966
419.4224, 1.919621
419.9045, 0.6676660
420.3867, 0.4700370
420.8688, 1.875540
421.3509, 2.901424
421.8330, 3.275858
422.3151, 3.403816
422.7972, 3.499964
423.2794, 3.548486
423.7615, 3.378890
424.2436, 2.731580
424.7257, 1.732860
425.2078, 1.324588
425.6899, 2.096035
426.1721, 2.410061
426.6542, 0.9655230
427.1363, 0.9257480
427.6184, 1.546346
428.1005, 0.2049850
428.5826, 1.725395
429.0648, 2.591326
429.5469, 2.386042
430.0290, 2.063833
430.5111, 1.732940
430.9932, 1.453391
431.4753, 1.334018
431.9575, 1.343922
432.4396, 1.230085
432.9217, 0.5265100
433.4038, 0.2604400
433.8859, 0.1445820
434.3680, 1.004726
434.8502, 2.322394
435.3323, 3.546995
435.8144, 4.462321
436.2965, 4.646315
436.7786, 3.454562
437.2607, 2.247667
437.7429, 1.924480
438.2250, 2.230717
438.7071, 2.557596
439.1892, 2.753786
439.6713, 2.729719
440.1534, 2.248831
440.6356, 1.104964
441.1177, 0.4908550
441.5998, 0.7409940
442.0819, 1.326515
442.5640, 2.091104
443.0461, 2.892059
443.5282, 3.320590
444.0103, 3.025300
444.4925, 2.209047
444.9746, 2.022655
445.4567, 3.349458
445.9388, 4.216685
446.4209, 4.015269
446.9030, 3.462249
447.3852, 3.408396
447.8673, 4.015162
448.3494, 4.621799
448.8315, 4.298407
449.3136, 2.771830
449.7957, 1.690508
450.2779, 1.196337
450.7600, 1.018950
451.2421, 1.371201
451.7242, 1.944949
452.2063, 2.136026
452.6884, 1.530982
453.1706, 0.5814990
453.6527, 0.4458120
454.1348, 1.432625
454.6169, 2.257481
455.0990, 2.626971
455.5811, 2.695538
456.0633, 2.331950
456.5454, 1.591170
457.0275, 1.143479
457.5096, 1.843172
457.9917, 3.215760
458.4738, 3.816309
458.9560, 3.330257
459.4381, 2.483014
459.9202, 1.247373
460.4023, 6.2940001E-02
460.8844, 0.1130210
461.3665, 1.466956
461.8487, 3.280849
462.3308, 4.336304
462.8129, 4.707699
463.2950, 4.483788
463.7771, 3.505759
464.2592, 2.537641
464.7414, 2.971752
465.2235, 5.184249
465.7056, 6.213961
466.1877, 4.748665
466.6698, 2.739198
467.1519, 1.487303
467.6341, 1.093657
468.1162, 1.446938
468.5983, 2.607080
469.0804, 4.267699
469.5625, 4.967671
470.0446, 3.584075
470.5268, 2.650304
471.0089, 2.579599
471.4910, 2.910371
471.9731, 3.321855
472.4552, 3.693515
472.9373, 3.919229
473.4195, 3.853977
473.9016, 3.471956
474.3837, 3.158516
474.8658, 3.147851
475.3479, 2.937201
475.8300, 2.141743
476.3122, 1.137720
476.7943, 0.4164420
477.2764, 0.1760090
477.7585, 0.3455430
478.2406, 1.014892
478.7227, 2.294317
479.2049, 3.028363
479.6870, 2.666696
480.1691, 2.031123
480.6512, 1.709201
481.1333, 1.656809
481.6154, 1.601460
482.0976, 1.269829
482.5797, 0.9213030
483.0618, 1.031673
483.5439, 1.616081
484.0260, 2.235455
484.5081, 2.809185
484.9902, 3.130148
485.4724, 2.845715
485.9545, 1.680255
486.4366, 0.9664890
486.9187, 1.716452
487.4008, 2.964034
487.8829, 3.246552
488.3651, 2.392871
488.8472, 1.528587
489.3293, 1.687564
489.8114, 2.860378
490.2935, 3.677325
490.7756, 4.232196
491.2578, 4.381068
491.7399, 4.064850
492.2220, 3.359756
492.7041, 2.114450
493.1862, 0.3503070
493.6683, 1.267234
494.1505, 1.695685
494.6326, 0.6219430
495.1147, 0.3996950
495.5968, 1.456198
496.0789, 2.364419
496.5610, 3.124769
497.0432, 3.674206
497.5253, 3.860079
498.0074, 3.534934
498.4895, 2.998575
498.9716, 2.833947
499.4537, 3.103518
499.9359, 3.361905
500.4180, 3.643782
500.9001, 3.741310
501.3822, 3.421991
501.8643, 2.723083
502.3464, 2.060814
502.8286, 1.419190
503.3107, 0.9824990
503.7928, 1.194247
504.2749, 2.076041
504.7570, 2.810915
505.2391, 2.964992
505.7213, 2.653763
506.2034, 2.098685
506.6855, 0.8997570
507.1676, 0.3856230
507.6497, 1.609744
508.1318, 3.324857
508.6140, 4.078314
509.0961, 3.710309
509.5782, 2.966216
510.0603, 2.438599
510.5424, 2.128816
511.0245, 2.107756
511.5067, 2.997613
511.9888, 3.420340
512.4709, 2.719203
512.9530, 1.651538
513.4351, 1.017621
513.9172, 1.030906
514.3994, 1.390967
514.8815, 1.804463
515.3636, 2.287529
515.8457, 2.619334
516.3278, 2.690813
516.8099, 2.752630
517.2921, 2.957781
517.7742, 3.206362
518.2563, 3.385226
518.7384, 3.500053
519.2205, 3.373838
519.7026, 2.581118
520.1848, 1.235880
520.6669, 0.2122370
521.1490, 0.3243600
521.6311, 0.4629230
522.1132, 2.2740999E-02
522.5953, 0.8562220
523.0775, 1.349757
523.5596, 0.5232130
524.0417, 2.3456000E-02
524.5238, 1.361055
525.0059, 3.977977
525.4880, 5.760795
525.9702, 5.810528
526.4523, 5.012669
526.9344, 4.939754
527.4165, 6.279730
527.8986, 6.476152
528.3807, 4.354734
528.8629, 2.276603
529.3450, 1.524577
529.8271, 1.879934
530.3092, 2.670504
530.7913, 3.565711
531.2734, 4.391379
531.7556, 4.641703
532.2377, 4.025268
532.7198, 3.658308
533.2019, 4.188949
533.6840, 4.605418
534.1661, 4.192413
534.6483, 3.098698
535.1304, 2.089790
535.6125, 1.637248
536.0946, 1.512897
536.5767, 1.208717
537.0588, 0.6973650
537.5410, 0.6419420
538.0231, 1.584412
538.5052, 2.844403
538.9873, 3.262222
539.4694, 2.722886
539.9515, 2.386571
540.4337, 3.090800
540.9158, 3.802027
541.3979, 3.216121
541.8800, 1.514575
542.3621, 1.2774000E-02
542.8442, 0.4771370
543.3264, 0.1808360
543.8085, 0.1598980
544.2906, 0.2931730
544.7726, 0.7417870
545.2548, 2.019894
545.7369, 3.220168
546.2190, 3.520843
546.7011, 3.048455
547.1832, 2.593533
547.6653, 2.829864
548.1475, 3.481001
548.6296, 3.255389
549.1117, 1.516476
549.5938, 0.5799470
550.0759, 2.183524
550.5580, 4.152082
551.0402, 4.736594
551.5223, 3.770984
552.0044, 2.701164
552.4865, 2.491723
552.9686, 2.744144
553.4507, 2.703414
553.9329, 2.338588
554.4150, 2.113559
554.8971, 2.244592
555.3792, 2.697694
555.8613, 3.534519
556.3434, 5.279352
556.8256, 6.058588
557.3077, 4.841144
557.7898, 2.975891
558.2719, 1.578964
558.7540, 0.7427860
559.2361, 0.1115580
559.7183, 0.5854360
560.2004, 1.240819
560.6825, 1.382017
561.1646, 0.6334030
561.6467, 3.2400000E-03
562.1288, 0.2856300
562.6110, 0.5510430
563.0931, 1.132796
563.5752, 1.968245
564.0573, 2.665604
564.5394, 2.954912
565.0215, 2.910814
565.5037, 2.620086
565.9858, 2.006159
566.4679, 1.667316
566.9500, 2.054785
567.4321, 2.632530
567.9142, 2.633953
568.3964, 2.013736
568.8785, 1.490891
569.3606, 1.410835
569.8427, 1.470420
570.3248, 1.319293
570.8069, 0.9948430
571.2891, 0.7495670
571.7712, 0.7072050
572.2533, 0.8779730
572.7354, 1.306838
573.2175, 2.342853
573.6996, 3.013504
574.1818, 3.228993
574.6639, 3.186479
575.1460, 2.764471
575.6281, 2.186877
576.1102, 2.042028
576.5923, 2.780602
577.0745, 3.793899
577.5566, 3.484278
578.0387, 1.460541
578.5208, 0.2913890
579.0029, 1.093439
579.4850, 2.227693
579.9672, 2.344993
580.4493, 1.673736
580.9314, 1.312203
581.4135, 1.860145
581.8956, 2.760631
582.3777, 3.632772
582.8599, 4.383409
583.3420, 4.315573
583.8241, 3.023974
584.3062, 1.660725
584.7883, 1.958791
585.2704, 4.518328
585.7526, 5.714730
586.2347, 4.544826
586.7168, 3.188355
587.1989, 2.395203
587.6810, 2.095746
588.1631, 2.121937
588.6453, 2.400069
589.1274, 2.839662
589.6095, 3.391251
590.0916, 4.101642
590.5737, 4.489115
591.0558, 4.505678
591.5380, 4.244206
592.0201, 3.382163
592.5022, 2.415003
592.9843, 2.229523
593.4664, 3.267027
593.9485, 4.243637
594.4307, 3.967009
594.9128, 2.925284
595.3949, 2.294091
595.8770, 2.271222
596.3591, 2.329404
596.8412, 1.956576
597.3234, 1.238098
597.8055, 0.9662670
598.2876, 1.559046
598.7697, 2.037346
599.2518, 2.404164
599.7339, 2.482886
600.2161, 1.694257
600.6982, 0.2586900
601.1803, 0.4835000
601.6624, 0.6942500
602.1445, 3.266505
602.6266, 4.877324
603.1088, 5.338828
603.5909, 5.308598
604.0730, 4.641012
604.5551, 3.747852
605.0372, 2.724157
605.5193, 1.655603
606.0015, 1.080699
606.4836, 1.605435
606.9657, 2.536108
607.4478, 3.097753
607.9299, 3.293841
608.4120, 3.119172
608.8942, 2.516009
609.3763, 1.848760
609.8584, 1.903848
610.3405, 3.130011
610.8226, 3.436805
611.3047, 1.794176
611.7869, 0.3472170
612.2690, 0.1383760
612.7511, 0.7866890
613.2332, 1.779903
613.7153, 2.892095
614.1974, 3.664123
614.6796, 3.047549
615.1617, 0.9000500
615.6438, 0.4938860
616.1259, 3.182408
616.6080, 5.418932
617.0901, 4.668543
617.5723, 2.561449
618.0544, 1.559244
618.5365, 2.417841
619.0186, 3.270604
619.5007, 2.701006
619.9828, 1.490880
620.4650, 0.9445020
620.9471, 1.188588
621.4292, 1.721070
621.9113, 2.256406
622.3934, 2.756456
622.8755, 3.062988
623.3577, 2.911461
623.8398, 2.946319
624.3219, 3.635107
624.8040, 4.118792
625.2861, 3.613917
625.7682, 2.383715
626.2504, 1.281361
626.7325, 0.8026740
627.2145, 0.7212830
627.6967, 0.6620840
628.1788, 0.6250280
628.6609, 0.5993850
629.1430, 0.5410560
629.6251, 0.5599380
630.1072, 0.9342760
630.5894, 1.512062
631.0715, 1.690027
631.5536, 0.7915320
632.0357, 0.1170670
632.5178, 0.6663480
632.9999, 1.739327
633.4821, 2.204540
633.9642, 1.863369
634.4463, 1.473749
634.9284, 1.799471
635.4105, 2.771501
635.8926, 3.354383
636.3748, 3.411612
636.8569, 3.272219
637.3390, 3.065204
637.8211, 2.659024
638.3032, 1.609720
638.7853, 9.9151000E-02
639.2675, 0.7481110
639.7496, 0.3225110
640.2317, 2.142328
640.7138, 2.749537
641.1959, 2.227008
641.6780, 1.701383
642.1602, 1.552293
642.6423, 1.560824
643.1244, 1.400931
643.6065, 1.001965
644.0886, 0.9625360
644.5707, 1.536094
645.0529, 2.184558
645.5350, 2.914912
646.0171, 3.492788
646.4992, 3.528117
646.9813, 2.958833
647.4634, 2.208587
647.9456, 1.636950
648.4277, 1.267723
648.9098, 1.495454
649.3919, 2.642436
649.8740, 3.617079
650.3561, 3.816743
650.8383, 3.529087
651.3204, 3.240464
651.8025, 3.000629
652.2846, 2.520951
652.7667, 1.373485
653.2488, 0.1791120
653.7310, 0.4953740
654.2131, 0.6789010
654.6952, 0.4881590
655.1773, 4.5717001E-02
655.6594, 0.6485290
656.1415, 0.8759270
656.6237, 0.6394590
657.1058, 0.4367650
657.5879, 5.7076000E-02
658.0700, 0.1392290
658.5521, 0.7770310
659.0342, 2.007761
659.5164, 2.695050
659.9985, 2.607760
660.4806, 2.522278
660.9627, 3.304728
661.4448, 4.497316
661.9269, 5.097164
662.4091, 5.052691
662.8912, 4.378190
663.3733, 2.829641
663.8554, 1.038499
664.3375, 0.2994500
664.8196, 1.270046
665.3018, 1.617495
665.7839, 0.4305730
666.2660, 0.5271870
666.7481, 7.4832998E-02
667.2302, 1.202211
667.7123, 2.270507
668.1945, 2.743188
668.6766, 2.821547
669.1587, 2.669363
669.6408, 2.306118
670.1229, 2.002698
670.6050, 1.712262
671.0872, 1.665875
671.5693, 2.290829
672.0514, 3.061857
672.5335, 2.981592
673.0156, 1.793755
673.4977, 0.9613500
673.9799, 1.248092
674.4620, 1.792391
674.9441, 1.851940
675.4262, 1.539997
675.9083, 1.329893
676.3904, 1.431547
676.8726, 1.634033
677.3547, 1.518798
677.8368, 0.9596770
678.3189, 0.9659140
678.8010, 2.106011
679.2831, 2.984169
679.7653, 2.744457
680.2474, 2.120577
680.7295, 2.056171
681.2116, 2.728572
681.6937, 3.332488
682.1758, 3.413560
682.6580, 3.173670
683.1401, 2.687089
683.6222, 2.073214
684.1043, 1.876864
684.5864, 2.392933
685.0685, 3.184454
685.5507, 3.489263
686.0328, 3.186048
686.5149, 2.881920
686.9970, 2.436331
687.4791, 2.243619
687.9612, 2.665956
688.4434, 3.169713
688.9255, 2.757122
689.4076, 1.234206
689.8897, 6.0459999E-03
690.3718, 0.4255800
690.8539, 1.770608
691.3361, 2.624346
691.8182, 2.948798
692.3003, 2.909037
692.7824, 2.488169
693.2645, 1.966270
693.7466, 1.737034
694.2288, 1.738555
694.7109, 2.358106
695.1930, 4.794482
695.6751, 6.420431
696.1572, 5.433733
696.6393, 3.537953
697.1215, 3.088329
697.6036, 4.601407
698.0857, 6.178326
698.5678, 6.103255
699.0499, 4.836893
699.5320, 3.424717
700.0142, 1.827417
700.4963, 1.382005
700.9784, 3.117327
701.4605, 5.257187
701.9426, 5.088725
702.4247, 2.140480
702.9069, 0.6711830
703.3890, 1.936668
703.8711, 3.304004
704.3532, 3.961965
704.8353, 4.050313
705.3174, 3.748628
705.7996, 3.129039
706.2817, 2.215647
706.7638, 0.7863770
707.2459, 0.7695520
707.7280, 1.054232
708.2101, 0.1119460
708.6923, 1.262041
709.1743, 2.130104
709.6564, 2.780855
710.1385, 3.328058
710.6207, 3.753664
711.1028, 3.780988
711.5849, 2.795779
712.0670, 2.067632
712.5491, 2.174016
713.0313, 2.784332
713.5134, 3.739998
713.9955, 4.824319
714.4776, 5.358222
714.9597, 4.729383
715.4418, 3.386238
715.9240, 2.496841
716.4061, 2.093601
716.8882, 2.132735
717.3703, 2.950204
717.8524, 3.664114
718.3345, 3.447025
718.8167, 2.516694
719.2988, 1.589014
719.7809, 0.6074490
720.2630, 0.1893820
720.7451, 1.160581
721.2272, 1.610481
721.7094, 0.2856690
722.1915, 2.346855
722.6736, 4.343585
723.1557, 4.486400
723.6378, 3.654724
724.1199, 3.793789
724.6021, 5.138815
725.0842, 5.343330
725.5663, 3.552930
726.0484, 1.834004
726.5305, 1.659754
727.0126, 2.362739
727.4948, 2.577361
727.9769, 2.066572
728.4590, 1.678309
728.9411, 1.661757
729.4232, 1.850648
729.9053, 2.218246
730.3875, 2.683197
730.8696, 3.089383
731.3517, 3.369856
731.8338, 3.554739
732.3159, 3.732710
732.7980, 3.902402
733.2802, 3.681121
733.7623, 2.836879
734.2444, 2.278351
734.7265, 2.653477
735.2086, 3.326844
735.6907, 3.415346
736.1729, 2.892310
736.6550, 2.198130
737.1371, 0.9993510
737.6192, 8.4136002E-02
738.1013, 1.6150000E-02
738.5834, 0.5099750
739.0656, 1.184049
739.5477, 1.899170
740.0298, 2.532523
740.5119, 2.986332
740.9940, 3.254581
741.4761, 3.266856
741.9583, 2.970358
742.4404, 2.760785
742.9225, 2.953850
743.4046, 2.967260
743.8867, 1.755276
744.3688, 0.3264370
744.8510, 1.137283
745.3331, 0.4846820
745.8152, 2.158009
746.2973, 3.285925
746.7794, 3.970398
747.2615, 4.299417
747.7437, 4.270222
748.2258, 3.842134
748.7079, 2.891457
749.1900, 1.801117
749.6721, 1.316973
750.1542, 1.429666
750.6364, 1.580825
751.1185, 1.724465
751.6006, 1.856982
752.0827, 2.034024
752.5648, 2.176132
753.0469, 1.992189
753.5291, 1.140894
754.0112, 0.8865500
754.4933, 2.145025
754.9754, 3.308072
755.4575, 2.974955
755.9396, 1.953282
756.4218, 1.998885
756.9039, 3.614195
757.3860, 5.142790
757.8681, 4.392552
758.3502, 2.137379
758.8323, 1.171664
759.3145, 1.548684
759.7966, 2.409042
760.2787, 3.657828
760.7608, 4.765112
761.2429, 4.991064
761.7250, 4.242032
762.2072, 3.686987
762.6893, 3.297910
763.1714, 3.123809
763.6535, 3.723275
764.1356, 4.150948
764.6177, 3.056606
765.0999, 0.7501940
765.5820, 0.6971860
766.0641, 0.2746090
766.5462, 2.056882
767.0283, 2.672647
767.5104, 2.348650
767.9926, 1.766934
768.4747, 1.028306
768.9568, 0.6606520
769.4389, 1.113264
769.9210, 2.117513
770.4031, 2.783293
770.8853, 3.035108
771.3674, 3.091296
771.8495, 3.015750
772.3316, 2.685822
772.8137, 1.552670
773.2958, 0.3219860
773.7780, 0.2193570
774.2601, 1.578737
774.7422, 2.909834
775.2243, 3.102373
775.7064, 2.851025
776.1885, 3.110465
776.6707, 3.734480
777.1528, 4.096167
777.6349, 3.975631
778.1170, 3.458863
778.5991, 2.593183
779.0812, 1.435503
779.5634, 0.5847780
780.0455, 0.1819590
780.5276, 0.3112850
781.0097, 0.9808740
781.4918, 2.382306
781.9739, 2.838088
782.4561, 2.522845
782.9382, 2.215269
783.4203, 2.289901
783.9024, 2.108124
784.3845, 0.9989770
784.8666, 0.3009230
785.3488, 0.9436520
785.8309, 0.9214870
786.3130, 0.6201930
786.7951, 0.2432340
787.2772, 0.1994030
787.7593, 0.8110400
788.2415, 1.574127
788.7236, 1.653121
789.2057, 0.7049690
789.6878, 0.2794130
790.1699, 1.552598
790.6520, 3.391187
791.1342, 3.696456
791.6162, 2.148188
792.0983, 1.130826
792.5804, 1.235774
793.0626, 1.350996
793.5447, 0.7892950
794.0268, 0.1482560
794.5089, 0.2055690
794.9910, 0.9899200
795.4731, 1.891302
795.9553, 2.667003
796.4374, 3.162530
796.9195, 2.892964
797.4016, 2.048772
797.8837, 1.525644
798.3658, 1.495344
798.8480, 1.506549
799.3301, 1.195457
799.8122, 0.7243760
800.2943, 0.6584550
800.7764, 1.257329
801.2585, 1.702776
801.7407, 2.124040
802.2228, 2.200689
802.7049, 1.363059
803.1870, 0.4226470
803.6691, 0.4475640
804.1512, 1.688714
804.6334, 2.519694
805.1155, 1.561898
805.5976, 0.3354000
806.0797, 0.3767600
806.5618, 1.237509
807.0439, 1.866851
807.5261, 1.984913
808.0082, 2.020825
808.4903, 2.434762
808.9724, 3.019084
809.4545, 2.833251
809.9366, 1.696509
810.4188, 1.018468
810.9009, 1.108555
811.3830, 1.591558
811.8651, 2.271804
812.3472, 3.125161
812.8293, 4.096733
813.3115, 5.502343
813.7936, 6.350243
814.2757, 6.117376
814.7578, 5.664820
815.2399, 5.704064
815.7220, 5.828402
816.2042, 4.997504
816.6863, 3.018272
817.1684, 1.506371
817.6505, 2.375052
818.1326, 4.396824
818.6147, 5.303363
819.0969, 5.241758
819.5790, 5.127656
820.0611, 5.225219
820.5432, 5.139180
821.0253, 4.330757
821.5074, 3.073115
821.9896, 3.357618
822.4717, 6.468445
822.9538, 8.179143
823.4359, 7.011724
823.9180, 5.429272
824.4001, 4.374014
824.8823, 3.860391
825.3644, 4.081159
825.8465, 5.401977
826.3286, 6.076950
826.8107, 4.704804
827.2928, 3.094287
827.7750, 2.644767
828.2571, 3.118756
828.7392, 4.114798
829.2213, 5.404201
829.7034, 6.307096
830.1855, 5.996289
830.6677, 4.964378
831.1498, 4.685552
831.6319, 5.136340
832.1140, 5.336575
832.5961, 4.946079
833.0782, 5.048537
833.5604, 6.801687
834.0425, 9.426250
834.5246, 10.08683
835.0067, 6.733634
835.4888, 4.921882
835.9709, 6.026785
836.4531, 7.076655
836.9352, 6.509944
837.4173, 5.187219
837.8994, 4.456977
838.3815, 4.579572
838.8636, 4.775725
839.3458, 4.523081
839.8279, 4.259841
840.3100, 4.480649
840.7921, 4.963671
841.2742, 5.210892
841.7563, 5.152878
842.2385, 5.210572
842.7206, 5.808833
843.2027, 6.483760
843.6848, 5.809863
844.1669, 3.758056
844.6490, 3.036793
845.1312, 4.315038
845.6133, 5.669587
846.0954, 5.992816
846.5775, 5.623477
847.0596, 5.263035
847.5417, 4.904065
848.0239, 4.582826
848.5060, 4.446221
848.9881, 4.166964
849.4702, 3.490410
849.9523, 2.714153
850.4344, 2.168567
850.9166, 1.858207
851.3987, 1.515646
851.8808, 0.7155020
852.3629, 0.2607180
852.8450, 1.164139
853.3271, 2.691582
853.8093, 3.913043
854.2914, 4.579905
854.7735, 4.208659
855.2556, 2.471356
855.7377, 0.4796150
856.2198, 0.2361360
856.7020, 1.670970
857.1841, 2.802567
857.6662, 3.680535
858.1483, 3.815729
858.6304, 2.708115
859.1125, 1.347076
859.5947, 0.9595230
860.0768, 1.553515
860.5589, 1.859002
861.0410, 1.505734
861.5231, 1.559715
862.0052, 2.337357
862.4874, 3.144874
862.9695, 3.928154
863.4516, 4.415761
863.9337, 3.906008
864.4158, 1.974507
864.8979, 0.3926930
865.3801, 0.4722910
865.8622, 1.273872
866.3443, 1.999289
866.8264, 2.564507
867.3085, 2.955728
867.7906, 3.156306
868.2728, 3.009145
868.7549, 2.158470
869.2370, 1.115509
869.7191, 1.771469
870.2012, 4.102452
870.6833, 4.991206
871.1655, 3.627659
871.6476, 2.259462
872.1297, 2.514956
872.6118, 3.675752
873.0939, 3.862236
873.5760, 2.398770
874.0581, 1.962965
874.5402, 4.052911
875.0223, 5.369198
875.5045, 4.313884
875.9866, 2.538043
876.4687, 1.670228
876.9508, 1.758228
877.4329, 1.923538
877.9150, 1.917655
878.3972, 1.873599
878.8793, 1.767039
879.3614, 1.725096
879.8435, 1.951205
880.3256, 2.374076
880.8077, 2.843486
881.2899, 3.298951
881.7720, 3.404253
882.2541, 2.395890
882.7362, 0.7954180
883.2183, 0.2233850
883.7004, 0.6200320
884.1826, 1.190477
884.6647, 1.725471
885.1468, 1.902987
885.6289, 1.290519
886.1110, 0.1360880
886.5931, 0.1222190
887.0753, 1.002364
887.5574, 1.530707
888.0395, 0.9514180
888.5216, 0.2555470
889.0037, 3.4262002E-02
889.4858, 1.2364000E-02
889.9680, 0.4170980
890.4501, 1.452596
890.9322, 1.697825
891.4143, 0.1362560
891.8964, 1.265887
892.3785, 1.572549
892.8607, 1.392155
893.3428, 1.225270
893.8249, 1.215826
894.3070, 1.534158
894.7891, 2.378866
895.2712, 3.209020
895.7534, 3.621660
896.2355, 3.660974
896.7176, 3.158364
897.1997, 2.319745
897.6818, 1.858273
898.1639, 2.042491
898.6461, 2.539877
899.1282, 3.116297
899.6103, 3.619463
900.0924, 3.143254
900.5745, 1.638781
901.0566, 0.8922740
901.5388, 1.287646
902.0209, 2.254311
902.5030, 3.621913
902.9851, 4.991828
903.4672, 5.167712
903.9493, 3.590432
904.4315, 2.389336
904.9136, 1.460683
905.3957, 1.058184
905.8778, 1.763993
906.3599, 2.661836
906.8420, 2.789701
907.3242, 2.189418
907.8063, 1.635342
908.2884, 1.136157
908.7705, 0.9481140
909.2526, 1.603693
909.7347, 2.249364
910.2169, 1.954198
910.6990, 1.067966
911.1811, 0.4533050
911.6632, 0.4055260
912.1453, 0.6481640
912.6274, 1.284137
913.1096, 1.849254
913.5917, 1.157462
914.0738, 0.1308650
914.5559, 0.2301090
915.0380, 2.551538
915.5201, 4.577014
916.0023, 4.671809
916.4844, 3.523896
916.9665, 2.568795
917.4486, 1.801232
917.9307, 0.6516780
918.4128, 1.104936
918.8950, 2.014264
919.3771, 1.259443
919.8592, 6.2688999E-02
920.3413, 0.5550360
920.8234, 0.2491710
921.3055, 0.4046120
921.7877, 1.245298
922.2698, 2.153309
922.7519, 3.552674
923.2340, 4.492959
923.7161, 4.032057
924.1982, 2.923269
924.6804, 2.616063
925.1625, 3.426729
925.6446, 3.860678
926.1267, 2.965982
926.6088, 2.290994
927.0909, 3.065497
927.5731, 4.161958
928.0552, 4.249731
928.5373, 3.385901
929.0194, 2.449787
929.5015, 1.677688
929.9836, 1.271720
930.4658, 1.576043
930.9479, 2.245610
931.4300, 3.045982
931.9121, 3.747943
932.3942, 3.545303
932.8763, 2.317393
933.3585, 1.384063
933.8406, 2.125756
934.3227, 3.787932
934.8048, 4.525320
935.2869, 4.417730
935.7690, 4.100348
936.2512, 3.646232
936.7333, 3.480259
937.2154, 3.775687
937.6975, 4.103136
938.1796, 3.810823
938.6617, 2.851431
939.1439, 2.333905
939.6260, 2.276234
940.1081, 2.688415
940.5902, 4.060349
941.0723, 5.148896
941.5544, 4.672050
942.0366, 3.166256
942.5187, 2.526920
943.0008, 3.240993
943.4829, 3.597041
943.9650, 3.325629
944.4471, 2.927513
944.9293, 2.302453
945.4114, 1.851230
945.8935, 2.168422
946.3756, 3.133445
946.8577, 3.855566
947.3398, 4.162431
947.8220, 3.981917
948.3041, 2.525748
948.7862, 1.194675
949.2683, 1.813890
949.7504, 3.383413
950.2325, 3.763666
950.7147, 2.504291
951.1968, 1.480615
951.6789, 2.416503
952.1610, 3.945197
952.6431, 4.430511
953.1252, 4.180318
953.6074, 3.678642
954.0895, 3.096075
954.5716, 2.791453
955.0537, 2.947990
955.5358, 3.353051
956.0179, 3.682396
956.5000, 3.812706
956.9821, 2.925505
957.4642, 1.083585
957.9464, 0.1058630
958.4285, 0.2719980
958.9106, 0.4383160
959.3927, 2.098111
959.8748, 4.129201
960.3569, 4.867057
960.8391, 4.018879
961.3212, 3.509772
961.8033, 3.431441
962.2854, 3.446312
962.7675, 3.511800
963.2496, 3.536990
963.7318, 3.442586
964.2139, 3.226709
964.6960, 2.788605
965.1781, 1.406523
965.6602, 1.000611
966.1423, 2.789779
966.6245, 4.137286
967.1066, 3.439476
967.5887, 2.028953
968.0708, 1.577369
968.5529, 2.153358
969.0350, 2.779746
969.5172, 3.930146
969.9993, 4.188793
970.4814, 2.003133
970.9635, 0.2285360
971.4456, 0.5813770
971.9277, 0.4043800
972.4099, 1.751092
972.8920, 3.163942
973.3741, 3.986693
973.8562, 3.227934
974.3383, 2.395388
974.8204, 2.915456
975.3026, 3.971047
975.7847, 4.452615
976.2668, 4.267071
976.7489, 3.883540
977.2310, 3.599118
977.7131, 3.580307
978.1953, 4.179731
978.6774, 4.870345
979.1595, 4.558140
979.6416, 3.580172
980.1237, 2.988126
980.6058, 2.969374
981.0880, 3.097068
981.5701, 3.082195
982.0522, 3.168123
982.5343, 4.166972
983.0164, 5.722366
983.4985, 5.300373
983.9807, 2.968752
984.4628, 1.758468
984.9449, 2.660019
985.4270, 3.479202
985.9091, 2.107428
986.3912, 0.3270940
986.8734, 1.8870000E-02
987.3555, 3.723496
987.8376, 5.061676
988.3197, 3.114733
988.8018, 1.830939
989.2839, 2.983105
989.7661, 4.718900
990.2482, 5.045651
990.7303, 4.116602
991.2124, 3.445031
991.6945, 3.223846
992.1766, 2.863650
992.6588, 2.376441
993.1409, 1.699218
993.6230, 0.3162480
994.1051, 0.9350290
994.5872, 0.7057130
995.0693, 0.9746320
995.5515, 1.879712
996.0336, 1.498352
996.5157, 1.056080
996.9978, 0.3867860
997.4799, 1.6452000E-02
997.9620, 0.5560810
998.4442, 1.488629
998.9263, 2.069130
999.4084, 2.216594
999.8905, 2.248645
1000.373, 2.256182
1000.855, 2.141363
1001.337, 1.527208
1001.819, 1.090557
1002.301, 1.657053
1002.783, 2.718434
1003.265, 3.186963
1003.747, 2.816470
1004.230, 2.522148
1004.712, 2.789522
1005.194, 3.240165
1005.676, 3.878855
1006.158, 4.386268
1006.640, 4.396384
1007.122, 3.951325
1007.604, 3.145586
1008.086, 2.015141
1008.569, 1.148953
1009.051, 1.091318
1009.533, 1.447872
1010.015, 1.947838
1010.497, 2.481628
1010.979, 3.111705
1011.461, 3.618965
1011.943, 3.060650
1012.426, 0.9506560
1012.908, 0.9569200
1013.390, 0.3708440
1013.872, 1.429740
1014.354, 2.049408
1014.836, 1.871873
1015.318, 1.951972
1015.800, 2.485321
1016.282, 3.652809
1016.765, 5.647239
1017.247, 7.281497
1017.729, 6.549119
1018.211, 4.171460
1018.693, 2.666330
1019.175, 1.946244
1019.657, 1.167345
1020.139, 0.1857090
1020.622, 3.6766000E-02
1021.104, 1.500979
1021.586, 3.553240
1022.068, 4.350776
1022.550, 3.996201
1023.032, 3.542728
1023.514, 2.984714
1023.996, 2.640243
1024.478, 2.574003
1024.961, 2.954098
1025.443, 4.048165
1025.925, 5.239798
1026.407, 4.981946
1026.889, 3.178403
1027.371, 1.991153
1027.853, 1.477468
1028.335, 1.270577
1028.818, 1.320343
1029.300, 1.313610
1029.782, 0.9462530
1030.264, 0.5593540
1030.746, 1.398113
1031.228, 3.957612
1031.710, 4.527325
1032.192, 2.216679
1032.674, 0.5773370
1033.156, 0.7547430
1033.639, 1.468084
1034.121, 1.800898
1034.603, 1.823131
1035.085, 1.718194
1035.567, 1.426118
1036.049, 1.205185
1036.531, 0.8393230
1037.013, 0.9918260
1037.496, 2.213053
1037.978, 3.539495
1038.460, 4.437571
1038.942, 4.776769
1039.424, 3.954347
1039.906, 1.033682
1040.388, 0.1576870
1040.870, 2.092404
1041.353, 3.594867
1041.835, 2.345598
1042.317, 0.9013310
1042.799, 1.848056
1043.281, 4.121833
1043.763, 4.381268
1044.245, 1.430870
1044.727, 9.0640001E-02
1045.209, 1.137306
1045.692, 2.265572
1046.174, 2.766860
1046.656, 2.687793
1047.138, 1.332881
1047.620, 0.4687230
1048.102, 0.1907290
1048.584, 3.414009
1049.066, 5.072771
1049.548, 2.174885
1050.031, 0.2486980
1050.513, 0.3304360
1050.995, 0.4560150
1051.477, 1.034751
1051.959, 1.387290
1052.441, 2.097165
1052.923, 3.550962
1053.405, 3.921761
1053.888, 1.309442
1054.370, 0.4751570
1054.852, 0.9551740
1055.334, 2.920261
1055.816, 3.080661
1056.298, 2.001357
1056.780, 1.335200
1057.262, 1.397574
1057.745, 1.640694
1058.227, 2.279042
1058.709, 2.595971
1059.191, 1.705903
1059.673, 0.9756730
1060.155, 1.813363
1060.637, 3.477754
1061.119, 3.880812
1061.601, 2.509457
1062.083, 1.684798
1062.566, 3.046541
1063.048, 4.024263
1063.530, 3.009146
1064.012, 1.559758
1064.494, 0.9929540
1064.976, 1.064803
1065.458, 0.9752270
1065.940, 0.6056600
1066.423, 0.6876710
1066.905, 2.263871
1067.387, 3.501053
1067.869, 3.530094
1068.351, 2.899262
1068.833, 1.343908
1069.315, 0.2228400
1069.797, 1.0351000E-02
1070.280, 2.250926
1070.762, 3.968344
1071.244, 4.335728
1071.726, 3.966722
1072.208, 2.482644
1072.690, 0.9422530
1073.172, 0.1347390
1073.654, 9.1516003E-02
1074.136, 0.1245830
1074.619, 1.2990000E-02
1075.101, 0.5150100
1075.583, 2.022578
1076.065, 3.207132
1076.547, 3.315175
1077.029, 2.988877
1077.511, 2.586422
1077.993, 2.154558
1078.475, 1.615068
1078.958, 1.039102
1079.440, 0.7550220
1079.922, 0.9159930
1080.404, 1.321210
1080.886, 2.227710
1081.368, 2.981786
1081.850, 2.832067
1082.332, 2.393592
1082.814, 2.605137
1083.297, 3.380986
1083.779, 3.766512
1084.261, 3.252434
1084.743, 2.966187
1085.225, 3.964041
1085.707, 4.751248
1086.189, 3.880721
1086.671, 2.608549
1087.154, 2.637394
1087.636, 3.652196
1088.118, 4.065979
1088.600, 3.344466
1089.082, 2.496629
1089.564, 1.680458
1090.046, 1.156974
1090.528, 1.239898
1091.010, 1.551055
1091.493, 1.793155
1091.975, 1.902477
1092.457, 2.024105
1092.939, 2.196835
1093.421, 2.212254
1093.903, 1.918046
1094.385, 1.548095
1094.867, 1.047526
1095.349, 0.6646820
1095.832, 0.5345810
1096.314, 0.7029820
1096.796, 1.327894
1097.278, 2.419319
1097.760, 3.345331
1098.242, 4.308773
1098.724, 4.547966
1099.206, 2.856106
1099.689, 1.309267
1100.171, 1.683648
1100.653, 2.920940
1101.135, 3.402556
1101.617, 3.046926
1102.099, 2.729710
1102.581, 2.506476
1103.063, 2.505522
1103.546, 3.221078
1104.028, 3.588297
1104.510, 2.556249
1104.992, 1.232421
1105.474, 0.9295140
1105.956, 1.545336
1106.438, 1.966078
1106.920, 1.949898
1107.402, 1.881714
1107.885, 1.585222
1108.367, 1.519770
1108.849, 2.005378
1109.331, 2.682091
1109.813, 3.655326
1110.295, 4.527226
1110.777, 4.012932
1111.259, 1.408970
1111.741, 4.5733001E-02
1112.224, 1.147382
1112.706, 2.107200
1113.188, 2.436562
1113.670, 2.341582
1114.152, 1.516408
1114.634, 0.5381980
1115.116, 0.7251200
1115.598, 2.277993
1116.081, 2.511893
1116.563, 0.1223090
1117.045, 1.370690
1117.527, 0.2434430
1118.009, 1.721465
1118.491, 1.311527
1118.973, 0.4226000
1119.455, 1.000864
1119.938, 2.803452
1120.420, 3.507738
1120.902, 2.522896
1121.384, 1.935322
1121.866, 2.125799
1122.348, 1.919431
1122.830, 0.4247130
1123.312, 0.6838760
1123.794, 0.4342140
1124.276, 2.918821
1124.759, 4.043461
1125.241, 3.634539
1125.723, 2.673922
1126.205, 0.7175050
1126.687, 0.1304060
1127.169, 1.902588
1127.651, 3.502588
1128.133, 3.082494
1128.616, 1.751742
1129.098, 1.573295
1129.580, 2.448559
1130.062, 2.537864
1130.544, 1.742015
1131.026, 1.346028
1131.508, 1.537661
1131.990, 2.155874
1132.473, 3.249331
1132.955, 3.817025
1133.437, 2.370738
1133.919, 3.699332
1134.401, 0.5947610
1134.883, 3.948002
1135.365, 4.996622
1135.847, 3.540192
1136.329, 2.341555
1136.812, 2.256413
1137.294, 2.197216
1137.776, 1.263147
1138.258, 8.7838002E-02
1138.740, 0.1948770
1139.222, 0.2131910
1139.704, 0.8057480
1140.186, 1.475424
1140.668, 1.833842
1141.151, 1.838200
1141.633, 1.726424
1142.115, 1.620107
1142.597, 1.394855
1143.079, 0.6537010
1143.561, 6.4429998E-02
1144.043, 0.1215220
1144.525, 1.019385
1145.008, 2.764294
1145.490, 4.801869
1145.972, 5.549665
1146.454, 4.613561
1146.936, 3.082085
1147.418, 1.384714
1147.900, 9.9956997E-02
1148.382, 5.0464999E-02
1148.865, 0.5548060
1149.347, 0.3965640
1149.829, 0.2168400
1150.311, 1.150091
1150.793, 2.939034
1151.275, 3.811732
1151.757, 2.933963
1152.239, 1.779627
1152.721, 0.6224120
1153.203, 0.1249200
1153.686, 1.658327
1154.168, 3.295774
1154.650, 2.678403
1155.132, 0.6685010
1155.614, 0.5082180
1156.096, 0.4365810
1156.578, 0.1942880
1157.060, 7.9451002E-02
1157.543, 0.2367060
1158.025, 0.1534810
1158.507, 3.6343001E-02
1158.989, 0.4737730
1159.471, 0.6305570
1159.953, 1.115967
1160.435, 4.329424
1160.917, 5.623020
1161.400, 3.711577
1161.882, 2.235087
1162.364, 1.164272
1162.846, 0.6441410
1163.328, 0.9207720
1163.810, 1.509194
1164.292, 2.278463
1164.774, 2.943367
1165.256, 2.769975
1165.739, 3.209085
1166.221, 3.596042
1166.703, 3.178372
1167.185, 4.094446
1167.667, 3.891561
1168.149, 3.397963
1168.631, 2.950897
1169.113, 2.508681
1169.595, 2.029217
1170.078, 1.504607
1170.560, 0.7417070
1171.042, 0.8179550
1171.524, 0.1311470
1172.006, 1.045570
1172.488, 2.031480
1172.970, 2.502147
1173.452, 2.718993
1173.934, 2.913218
1174.417, 2.821897
1174.899, 2.016966
1175.381, 1.016688
1175.863, 0.7585420
1176.345, 1.104467
1176.827, 1.369872
1177.309, 1.524659
1177.791, 1.663842
1178.274, 1.810883
1178.756, 1.933156
1179.238, 2.039346
1179.720, 2.027676
1180.202, 1.683476
1180.684, 1.244855
1181.166, 0.7747910
1181.648, 0.5697970
1182.130, 1.190265
1182.613, 2.390278
1183.095, 2.994854
1183.577, 2.492956
1184.059, 2.185827
1184.541, 3.249732
1185.023, 4.050408
1185.505, 3.183419
1185.987, 2.180177
1186.469, 2.481463
1186.952, 3.491397
1187.434, 4.199962
1187.916, 4.477894
1188.398, 4.286310
1188.880, 3.214968
1189.362, 2.372332
1189.844, 1.933481
1190.326, 1.637437
1190.809, 1.444057
1191.291, 1.355583
1191.773, 1.426704
1192.255, 1.577354
1192.737, 1.616573
1193.219, 1.536852
1193.701, 1.372190
1194.183, 0.9551610
1194.666, 1.204207
1195.148, 2.485475
1195.630, 3.389182
1196.112, 3.239463
1196.594, 2.550457
1197.076, 1.833141
1197.558, 1.187356
1198.040, 0.9855300
1198.522, 1.177742
1199.005, 1.276657
1199.487, 1.303751
1199.969, 1.575818
1200.451, 2.156415
1200.933, 3.089159
1201.415, 4.407688
1201.897, 5.279593
1202.379, 4.485489
1202.861, 2.966160
1203.344, 2.128080
1203.826, 1.701347
1204.308, 1.198519
1204.790, 0.6941130
1205.272, 0.5560660
1205.754, 0.7968570
1206.236, 0.9873930
1206.718, 0.8679500
1207.201, 0.7671960
1207.683, 0.8075000
1208.165, 0.9063660
1208.647, 1.146018
1209.129, 1.293217
1209.611, 0.7674920
1210.093, 8.5253999E-02
1210.575, 0.6240650
1211.057, 2.610405
1211.540, 3.645377
1212.022, 2.586263
1212.504, 1.814559
1212.986, 1.719612
1213.468, 1.769138
1213.950, 1.906497
1214.432, 2.048053
1214.914, 2.011472
1215.396, 1.976466
1215.879, 2.585574
1216.361, 2.387136
1216.843, 2.438165
1217.325, 2.756204
1217.807, 2.345559
1218.289, 3.359611
1218.771, 3.621484
1219.253, 2.068617
1219.736, 0.3515100
1220.218, 0.2315810
1220.700, 0.9727920
1221.182, 1.024717
1221.664, 0.5679170
1222.146, 9.0609998E-02
1222.628, 0.6829820
1223.110, 0.1312790
1223.593, 1.441876
1224.075, 2.576985
1224.557, 2.634664
1225.039, 2.287525
1225.521, 1.776699
1226.003, 1.522056
1226.485, 2.033930
1226.967, 2.783510
1227.449, 3.360448
1227.932, 3.730853
1228.414, 3.900063
1228.896, 3.897399
1229.378, 3.923103
1229.860, 4.210538
1230.342, 3.744170
1230.824, 0.6076790
1231.306, 0.9342350
1231.788, 2.593028
1232.271, 5.469581
1232.753, 3.480411
1233.235, 0.1641930
1233.717, 1.367716
1234.199, 0.3940310
1234.681, 1.256924
1235.163, 4.087443
1235.645, 4.956844
1236.128, 3.437025
1236.610, 2.320953
1237.092, 2.277030
1237.574, 2.708947
1238.056, 3.319354
1238.538, 3.700688
1239.020, 3.177169
1239.502, 2.223035
1239.984, 2.032994
1240.467, 2.405541
1240.949, 2.954422
1241.431, 3.486616
1241.913, 3.342768
1242.395, 2.612875
1242.877, 2.565095
1243.359, 3.911133
1243.841, 5.154619
1244.323, 5.087992
1244.806, 4.635171
1245.288, 4.725531
1245.770, 4.521114
1246.252, 2.430124
1246.734, 7.7085003E-02
1247.216, 0.2316160
1247.698, 1.821507
1248.180, 2.938692
1248.662, 2.204637
1249.145, 1.714494
1249.627, 1.838675
1250.109, 1.755497
1250.591, 0.8964200
1251.073, 0.6021180
1251.555, 1.998950
1252.037, 3.687460
1252.519, 3.609562
1253.002, 4.308007
1253.484, 4.480996
1253.966, 3.895246
1254.448, 4.060679
1254.930, 2.835675
1255.412, 2.065924
1255.894, 2.024991
1256.376, 2.060714
1256.859, 1.828170
1257.341, 1.526666
1257.823, 1.187281
1258.305, 1.143040
1258.787, 2.240685
1259.269, 3.466677
1259.751, 3.913939
1260.233, 3.454852
1260.715, 2.639925
1261.198, 1.684277
1261.680, 1.448444
1262.162, 2.335519
1262.644, 2.925053
1263.126, 2.247742
1263.608, 1.979721
1264.090, 3.542580
1264.572, 4.510536
1265.054, 2.750004
1265.537, 0.6132660
1266.019, 0.6898780
1266.501, 2.330956
1266.983, 3.366799
1267.465, 3.937749
1267.947, 3.590702
1268.429, 2.167893
1268.911, 1.905201
1269.394, 3.170506
1269.876, 3.997425
1270.358, 3.575055
1270.840, 2.642289
1271.322, 1.684047
1271.804, 1.274793
1272.286, 3.104578
1272.768, 2.356034
1273.250, 5.021068
1273.733, 3.266458
1274.215, 3.265693
1274.697, 4.678616
1275.179, 5.542756
1275.661, 5.369430
1276.143, 4.796359
1276.625, 3.855783
1277.107, 3.023656
1277.589, 1.982379
1278.072, 1.665183
1278.554, 3.547925
1279.036, 5.213891
1279.518, 4.444803
1280.000, 2.523141
1280.482, 1.489258
1280.964, 1.323538
1281.446, 2.081108
1281.929, 1.445243
1282.411, 3.982041
1282.893, 1.461270
1283.375, 0.1214780
1283.857, 4.9532000E-02
1284.339, 1.373130
1284.821, 3.508162
1285.303, 3.440284
1285.786, 2.399988
1286.268, 0.0000000E+00
##END=



