##NAMES=Euxenite-(Y)
##RRUFFID=R060856
##IDEAL CHEMISTRY=(Y^3+^,Ca,Ce^3+^,U^4+^,Th^4+^)(Nb^5+^,Ta^5+^,Ti^4+^)_2_O_6_
##LOCALITY=Betafo, Madagascar
##OWNER=RRUFF
##SOURCE=Michael Scott
##DESCRIPTION=Black glassy submetallic metamict, confirmed by X-ray diffraction after heating, R080101
##STATUS=The identification of this mineral has been confirmed by X-ray diffraction.
##URL=rruff.info/R060856
149.0037, 17180.38
149.4858, 17191.97
149.9679, 17199.06
150.4500, 17203.48
150.9321, 17201.18
151.4142, 17203.10
151.8963, 17213.20
152.3785, 17229.57
152.8606, 17244.21
153.3427, 17249.84
153.8248, 17260.55
154.3069, 17283.64
154.7890, 17359.66
155.2712, 17407.62
155.7533, 17394.23
156.2354, 17329.67
156.7175, 17297.17
157.1996, 17326.82
157.6817, 17387.08
158.1639, 17453.95
158.6460, 17529.57
159.1281, 17602.73
159.6102, 17672.42
160.0923, 17737.97
160.5744, 17788.86
161.0566, 17816.16
161.5387, 17826.70
162.0208, 17828.21
162.5029, 17809.63
162.9850, 17791.60
163.4671, 17784.89
163.9493, 17791.50
164.4314, 17800.93
164.9135, 17820.76
165.3956, 17839.05
165.8777, 17836.57
166.3598, 17787.16
166.8419, 17725.76
167.3241, 17677.54
167.8062, 17648.01
168.2883, 17627.19
168.7704, 17614.76
169.2525, 17607.23
169.7346, 17595.39
170.2168, 17584.51
170.6989, 17563.31
171.1810, 17514.96
171.6631, 17420.56
172.1452, 17328.20
172.6273, 17278.89
173.1095, 17267.33
173.5916, 17269.91
174.0737, 17279.85
174.5558, 17292.71
175.0379, 17301.88
175.5201, 17305.25
176.0022, 17304.42
176.4843, 17296.90
176.9664, 17283.83
177.4485, 17276.51
177.9306, 17292.46
178.4128, 17320.55
178.8949, 17337.11
179.3770, 17331.16
179.8591, 17311.39
180.3412, 17286.93
180.8233, 17257.39
181.3055, 17234.17
181.7876, 17231.48
182.2697, 17244.69
182.7518, 17258.21
183.2339, 17268.49
183.7160, 17274.41
184.1981, 17266.78
184.6803, 17242.61
185.1624, 17225.49
185.6445, 17262.88
186.1266, 17342.16
186.6087, 17388.10
187.0908, 17328.63
187.5730, 17200.42
188.0551, 17159.46
188.5372, 17222.82
189.0193, 17322.27
189.5014, 17365.93
189.9835, 17356.23
190.4657, 17335.13
190.9478, 17323.75
191.4299, 17319.89
191.9120, 17307.27
192.3941, 17284.33
192.8762, 17254.68
193.3584, 17221.22
193.8405, 17183.81
194.3226, 17151.80
194.8047, 17130.45
195.2868, 17119.80
195.7689, 17118.80
196.2511, 17129.66
196.7332, 17148.04
197.2153, 17163.97
197.6974, 17177.51
198.1795, 17190.49
198.6616, 17209.47
199.1437, 17236.10
199.6259, 17238.78
200.1080, 17203.90
200.5901, 17148.40
201.0722, 17126.92
201.5543, 17142.52
202.0364, 17178.43
202.5186, 17229.34
203.0007, 17298.54
203.4828, 17353.42
203.9649, 17387.65
204.4470, 17403.20
204.9291, 17408.65
205.4113, 17400.98
205.8934, 17389.52
206.3755, 17380.77
206.8576, 17374.22
207.3397, 17371.97
207.8218, 17376.57
208.3040, 17386.69
208.7861, 17389.21
209.2682, 17382.10
209.7503, 17372.63
210.2324, 17367.78
210.7145, 17369.26
211.1967, 17372.73
211.6788, 17379.40
212.1609, 17389.49
212.6430, 17393.45
213.1251, 17388.73
213.6072, 17382.79
214.0893, 17383.36
214.5715, 17392.06
215.0536, 17402.75
215.5357, 17413.43
216.0178, 17423.67
216.4999, 17435.50
216.9820, 17445.63
217.4642, 17459.45
217.9463, 17488.22
218.4284, 17545.31
218.9105, 17582.22
219.3926, 17578.92
219.8747, 17528.91
220.3569, 17499.04
220.8390, 17498.64
221.3211, 17510.05
221.8032, 17508.55
222.2853, 17485.46
222.7674, 17468.80
223.2496, 17469.26
223.7317, 17491.67
224.2138, 17507.52
224.6959, 17515.08
225.1780, 17518.41
225.6601, 17522.56
226.1423, 17524.75
226.6244, 17533.36
227.1065, 17554.39
227.5886, 17595.13
228.0707, 17616.18
228.5528, 17607.13
229.0349, 17583.88
229.5171, 17574.47
229.9992, 17585.73
230.4813, 17598.08
230.9634, 17604.03
231.4455, 17599.87
231.9276, 17602.83
232.4098, 17621.86
232.8919, 17643.65
233.3740, 17640.34
233.8561, 17595.71
234.3382, 17552.73
234.8203, 17527.23
235.3025, 17526.48
235.7846, 17523.51
236.2667, 17515.63
236.7488, 17506.97
237.2309, 17506.92
237.7130, 17521.35
238.1952, 17535.72
238.6773, 17542.17
239.1594, 17530.63
239.6415, 17540.93
240.1236, 17590.50
240.6057, 17656.46
241.0879, 17683.02
241.5700, 17639.63
242.0521, 17602.80
242.5342, 17607.15
243.0163, 17680.78
243.4984, 17724.89
243.9805, 17724.40
244.4627, 17698.31
244.9448, 17691.69
245.4269, 17708.51
245.9090, 17737.58
246.3911, 17779.66
246.8732, 17855.50
247.3554, 17889.57
247.8375, 17863.15
248.3196, 17799.68
248.8017, 17757.38
249.2838, 17741.36
249.7659, 17739.37
250.2481, 17750.27
250.7302, 17788.63
251.2123, 17805.31
251.6944, 17793.28
252.1765, 17763.39
252.6586, 17741.14
253.1408, 17731.01
253.6229, 17723.25
254.1050, 17716.55
254.5871, 17720.03
255.0692, 17699.52
255.5513, 17635.89
256.0334, 17556.10
256.5156, 17529.13
256.9977, 17581.64
257.4798, 17640.46
257.9619, 17672.61
258.4440, 17668.70
258.9261, 17662.43
259.4083, 17648.35
259.8904, 17633.58
260.3725, 17636.66
260.8546, 17662.03
261.3367, 17695.37
261.8188, 17733.51
262.3010, 17783.48
262.7831, 17813.28
263.2652, 17814.65
263.7473, 17800.18
264.2294, 17801.46
264.7115, 17828.07
265.1937, 17848.44
265.6758, 17843.27
266.1579, 17801.70
266.6400, 17781.70
267.1221, 17790.15
267.6042, 17815.97
268.0864, 17836.67
268.5685, 17852.49
269.0506, 17864.26
269.5327, 17874.11
270.0148, 17884.29
270.4969, 17880.30
270.9791, 17855.88
271.4612, 17824.43
271.9433, 17817.55
272.4254, 17844.89
272.9075, 17863.28
273.3896, 17842.14
273.8718, 17771.94
274.3539, 17750.84
274.8360, 17794.89
275.3181, 17866.42
275.8002, 17894.61
276.2823, 17870.62
276.7645, 17846.04
277.2466, 17846.69
277.7287, 17874.85
278.2108, 17883.56
278.6929, 17866.64
279.1750, 17840.99
279.6572, 17833.49
280.1393, 17845.43
280.6214, 17862.40
281.1035, 17876.17
281.5856, 17887.03
282.0677, 17915.30
282.5498, 17967.84
283.0320, 18020.60
283.5141, 18035.17
283.9962, 18010.29
284.4783, 17980.93
284.9604, 17959.69
285.4425, 17946.09
285.9247, 17936.68
286.4068, 17932.84
286.8889, 17929.05
287.3710, 17912.15
287.8531, 17883.63
288.3352, 17870.69
288.8174, 17896.21
289.2995, 17947.16
289.7816, 17960.51
290.2637, 17930.27
290.7458, 17897.01
291.2279, 17916.48
291.7101, 17979.66
292.1922, 18026.45
292.6743, 18025.54
293.1564, 17994.97
293.6385, 17983.12
294.1206, 17991.38
294.6028, 18002.93
295.0849, 18001.26
295.5670, 17989.44
296.0491, 17977.91
296.5312, 17969.99
297.0133, 17965.60
297.4955, 17965.82
297.9776, 17971.04
298.4597, 17977.21
298.9418, 17974.95
299.4239, 17970.88
299.9060, 17981.95
300.3882, 18022.41
300.8703, 18072.06
301.3524, 18099.41
301.8345, 18105.77
302.3166, 18109.71
302.7987, 18122.85
303.2809, 18142.45
303.7630, 18164.57
304.2451, 18187.03
304.7272, 18211.10
305.2093, 18243.93
305.6914, 18282.18
306.1736, 18307.31
306.6557, 18299.49
307.1378, 18274.92
307.6199, 18252.25
308.1020, 18230.70
308.5841, 18221.54
309.0663, 18251.32
309.5484, 18306.74
310.0305, 18339.83
310.5126, 18302.61
310.9947, 18242.94
311.4768, 18206.31
311.9590, 18209.77
312.4411, 18217.70
312.9232, 18204.29
313.4053, 18178.63
313.8874, 18162.57
314.3695, 18177.95
314.8516, 18198.06
315.3337, 18206.58
315.8159, 18202.22
316.2980, 18183.06
316.7801, 18137.25
317.2622, 18077.29
317.7443, 18024.42
318.2264, 17984.88
318.7086, 17956.32
319.1907, 17940.01
319.6728, 17938.46
320.1549, 17938.61
320.6370, 17934.21
321.1191, 17930.17
321.6013, 17932.62
322.0834, 17947.71
322.5655, 17964.52
323.0476, 17981.51
323.5297, 17999.23
324.0118, 18008.57
324.4940, 17998.46
324.9761, 17983.11
325.4582, 17976.02
325.9403, 17980.10
326.4224, 17990.68
326.9045, 18012.29
327.3867, 18045.79
327.8688, 18065.27
328.3509, 18060.89
328.8330, 18047.90
329.3151, 18037.04
329.7972, 18036.67
330.2794, 18027.09
330.7615, 17995.11
331.2436, 17946.62
331.7257, 17933.89
332.2078, 17991.57
332.6899, 18048.15
333.1721, 18057.78
333.6542, 17988.77
334.1363, 17937.94
334.6184, 17911.40
335.1005, 17906.88
335.5826, 17920.61
336.0648, 17968.29
336.5469, 18005.45
337.0290, 18004.12
337.5111, 17948.45
337.9932, 17911.84
338.4753, 17895.49
338.9575, 17898.60
339.4396, 17931.19
339.9217, 18007.11
340.4038, 18056.83
340.8859, 18036.60
341.3680, 17942.69
341.8502, 17886.53
342.3323, 17879.11
342.8144, 17887.20
343.2965, 17856.03
343.7786, 17783.91
344.2607, 17734.23
344.7428, 17740.47
345.2249, 17790.63
345.7071, 17823.85
346.1892, 17839.78
346.6713, 17845.74
347.1534, 17847.44
347.6355, 17845.21
348.1176, 17840.42
348.5998, 17827.99
349.0819, 17815.73
349.5640, 17820.24
350.0461, 17840.89
350.5282, 17870.29
351.0103, 17918.86
351.4925, 17970.36
351.9746, 17985.85
352.4567, 17937.58
352.9388, 17876.04
353.4209, 17869.95
353.9030, 17907.96
354.3852, 17938.25
354.8673, 17920.32
355.3494, 17880.02
355.8315, 17847.01
356.3136, 17826.59
356.7957, 17815.53
357.2779, 17824.21
357.7600, 17841.75
358.2421, 17842.89
358.7242, 17789.50
359.2063, 17733.40
359.6884, 17716.75
360.1706, 17750.72
360.6527, 17782.68
361.1348, 17777.26
361.6169, 17757.33
362.0990, 17753.72
362.5811, 17809.14
363.0633, 17852.33
363.5454, 17845.61
364.0275, 17785.54
364.5096, 17735.42
364.9917, 17711.79
365.4738, 17704.18
365.9560, 17704.12
366.4381, 17712.11
366.9202, 17726.07
367.4023, 17754.98
367.8844, 17795.54
368.3665, 17815.66
368.8487, 17790.89
369.3308, 17762.82
369.8129, 17751.69
370.2950, 17760.33
370.7771, 17782.68
371.2592, 17832.52
371.7414, 17894.16
372.2235, 17926.09
372.7056, 17915.10
373.1877, 17893.14
373.6698, 17867.29
374.1519, 17829.34
374.6340, 17823.18
375.1161, 17861.88
375.5983, 17917.35
376.0804, 17944.96
376.5625, 17936.61
377.0446, 17930.67
377.5267, 17943.71
378.0089, 17973.46
378.4910, 17981.87
378.9731, 17966.54
379.4552, 17940.00
379.9373, 17910.43
380.4194, 17878.33
380.9016, 17857.64
381.3837, 17853.16
381.8658, 17861.71
382.3479, 17877.18
382.8300, 17899.67
383.3121, 17923.32
383.7943, 17944.98
384.2764, 17964.10
384.7585, 17979.05
385.2406, 17988.49
385.7227, 17994.74
386.2048, 17993.42
386.6870, 17988.70
387.1691, 17996.31
387.6512, 18045.27
388.1333, 18101.33
388.6154, 18115.92
389.0975, 18078.87
389.5797, 18042.20
390.0618, 18060.57
390.5439, 18102.76
391.0260, 18120.56
391.5081, 18058.05
391.9902, 17995.81
392.4724, 17995.16
392.9545, 18053.68
393.4366, 18092.96
393.9187, 18056.36
394.4008, 17999.03
394.8829, 17964.72
395.3651, 17990.27
395.8472, 18011.70
396.3293, 18009.87
396.8114, 17990.67
397.2935, 17975.68
397.7756, 17966.53
398.2578, 17963.39
398.7399, 17967.15
399.2220, 17985.01
399.7041, 17994.80
400.1862, 17995.42
400.6683, 17987.78
401.1505, 17971.56
401.6326, 17928.39
402.1147, 17904.59
402.5968, 17924.40
403.0789, 17995.24
403.5610, 18010.65
404.0432, 17943.68
404.5253, 17859.12
405.0074, 17821.45
405.4895, 17840.92
405.9716, 17867.14
406.4537, 17895.12
406.9358, 17922.02
407.4179, 17937.03
407.9001, 17939.77
408.3822, 17932.10
408.8643, 17908.28
409.3464, 17870.91
409.8285, 17848.84
410.3106, 17848.34
410.7928, 17855.55
411.2749, 17845.85
411.7570, 17822.78
412.2391, 17808.56
412.7212, 17815.71
413.2033, 17838.63
413.6855, 17874.61
414.1676, 17924.41
414.6497, 17961.28
415.1318, 17948.01
415.6139, 17907.16
416.0960, 17877.41
416.5782, 17876.35
417.0603, 17886.25
417.5424, 17897.78
418.0245, 17909.55
418.5066, 17915.45
418.9887, 17905.86
419.4709, 17892.95
419.9530, 17886.80
420.4351, 17894.17
420.9172, 17898.80
421.3993, 17893.04
421.8814, 17881.57
422.3636, 17872.81
422.8457, 17884.26
423.3278, 17885.12
423.8099, 17858.30
424.2920, 17793.84
424.7741, 17751.20
425.2563, 17744.02
425.7384, 17753.33
426.2205, 17763.78
426.7026, 17779.31
427.1847, 17789.55
427.6668, 17792.49
428.1490, 17788.57
428.6311, 17777.48
429.1132, 17747.77
429.5953, 17731.88
430.0774, 17759.37
430.5595, 17841.99
431.0417, 17882.21
431.5238, 17863.70
432.0059, 17819.48
432.4880, 17809.08
432.9701, 17833.83
433.4522, 17853.74
433.9344, 17848.92
434.4165, 17826.41
434.8986, 17811.89
435.3807, 17805.69
435.8628, 17805.42
436.3449, 17816.73
436.8270, 17832.77
437.3091, 17833.24
437.7913, 17803.86
438.2734, 17770.16
438.7555, 17760.29
439.2376, 17770.88
439.7197, 17789.35
440.2018, 17820.96
440.6840, 17849.63
441.1661, 17856.63
441.6482, 17834.06
442.1303, 17813.87
442.6124, 17814.04
443.0945, 17825.96
443.5767, 17837.81
444.0588, 17851.35
444.5409, 17859.13
445.0230, 17859.84
445.5051, 17853.39
445.9872, 17837.23
446.4694, 17801.31
446.9515, 17762.79
447.4336, 17731.80
447.9157, 17706.13
448.3978, 17691.89
448.8799, 17690.31
449.3621, 17700.25
449.8442, 17720.73
450.3263, 17758.54
450.8084, 17793.62
451.2905, 17822.01
451.7726, 17844.29
452.2548, 17840.79
452.7369, 17803.09
453.2190, 17757.41
453.7011, 17729.12
454.1832, 17718.41
454.6653, 17721.79
455.1475, 17743.53
455.6296, 17773.89
456.1117, 17791.51
456.5938, 17796.66
457.0759, 17795.94
457.5580, 17782.01
458.0402, 17767.32
458.5223, 17787.96
459.0044, 17856.55
459.4865, 17914.80
459.9686, 17888.14
460.4507, 17813.14
460.9329, 17759.34
461.4150, 17778.29
461.8971, 17813.11
462.3792, 17827.43
462.8613, 17822.20
463.3434, 17813.53
463.8256, 17806.96
464.3077, 17800.72
464.7898, 17792.59
465.2719, 17774.64
465.7540, 17767.10
466.2361, 17783.65
466.7183, 17812.24
467.2004, 17828.05
467.6825, 17813.83
468.1646, 17802.86
468.6467, 17804.40
469.1288, 17819.96
469.6109, 17831.84
470.0930, 17834.95
470.5752, 17840.02
471.0573, 17860.97
471.5394, 17906.85
472.0215, 17929.80
472.5036, 17917.98
472.9857, 17883.52
473.4679, 17856.04
473.9500, 17835.88
474.4321, 17821.46
474.9142, 17812.32
475.3963, 17808.68
475.8784, 17813.32
476.3606, 17827.83
476.8427, 17842.22
477.3248, 17847.80
477.8069, 17845.75
478.2890, 17837.41
478.7711, 17819.57
479.2533, 17800.77
479.7354, 17785.06
480.2175, 17774.35
480.6996, 17775.99
481.1817, 17815.77
481.6638, 17854.91
482.1460, 17856.42
482.6281, 17799.75
483.1102, 17761.53
483.5923, 17785.14
484.0744, 17834.62
484.5565, 17866.60
485.0387, 17844.52
485.5208, 17832.77
486.0029, 17856.83
486.4850, 17910.57
486.9671, 17930.61
487.4492, 17889.44
487.9314, 17847.11
488.4135, 17838.48
488.8956, 17880.81
489.3777, 17906.53
489.8598, 17914.92
490.3419, 17908.78
490.8241, 17888.79
491.3062, 17853.64
491.7883, 17820.24
492.2704, 17791.15
492.7525, 17768.85
493.2346, 17762.31
493.7168, 17771.59
494.1989, 17787.71
494.6810, 17805.05
495.1631, 17823.51
495.6452, 17847.96
496.1273, 17884.34
496.6095, 17907.02
497.0916, 17875.20
497.5737, 17811.94
498.0558, 17762.09
498.5379, 17752.06
499.0200, 17757.25
499.5021, 17769.67
499.9843, 17788.12
500.4664, 17797.11
500.9485, 17777.66
501.4306, 17755.90
501.9127, 17750.19
502.3948, 17781.96
502.8770, 17800.67
503.3591, 17781.26
503.8412, 17751.68
504.3233, 17763.24
504.8054, 17856.13
505.2875, 17923.43
505.7697, 17927.18
506.2518, 17869.94
506.7339, 17849.70
507.2160, 17874.35
507.6981, 17914.12
508.1802, 17952.76
508.6624, 17990.03
509.1445, 18006.44
509.6266, 17997.57
510.1087, 17973.46
510.5908, 17941.62
511.0729, 17905.50
511.5551, 17881.48
512.0372, 17886.62
512.5193, 17904.24
513.0014, 17905.14
513.4835, 17891.91
513.9656, 17892.84
514.4478, 17952.23
514.9299, 18022.04
515.4120, 18047.89
515.8941, 17987.13
516.3762, 17950.22
516.8583, 18016.11
517.3405, 18127.89
517.8226, 18193.03
518.3047, 18139.41
518.7868, 18090.00
519.2689, 18083.19
519.7510, 18118.72
520.2332, 18140.10
520.7153, 18133.30
521.1974, 18128.69
521.6795, 18151.60
522.1616, 18221.62
522.6437, 18245.60
523.1259, 18208.45
523.6080, 18141.28
524.0901, 18083.94
524.5722, 18035.43
525.0543, 18025.79
525.5364, 18085.80
526.0186, 18180.47
526.5007, 18217.35
526.9828, 18198.64
527.4649, 18166.97
527.9470, 18144.76
528.4291, 18132.38
528.9113, 18132.88
529.3934, 18150.07
529.8755, 18164.77
530.3576, 18157.57
530.8397, 18140.65
531.3218, 18131.70
531.8040, 18152.91
532.2861, 18167.70
532.7682, 18161.30
533.2503, 18135.86
533.7324, 18105.80
534.2145, 18066.62
534.6967, 18029.42
535.1788, 17998.19
535.6609, 17973.18
536.1430, 17954.88
536.6251, 17942.82
537.1072, 17938.80
537.5894, 17949.04
538.0715, 17978.16
538.5536, 17994.09
539.0357, 17979.88
539.5178, 17956.35
539.9999, 17994.39
540.4821, 18092.24
540.9642, 18175.43
541.4463, 18181.75
541.9284, 18145.38
542.4105, 18145.35
542.8926, 18186.39
543.3748, 18229.61
543.8569, 18239.41
544.3390, 18231.61
544.8210, 18228.16
545.3032, 18239.76
545.7853, 18249.73
546.2674, 18250.93
546.7495, 18244.41
547.2316, 18232.54
547.7137, 18193.40
548.1959, 18170.92
548.6780, 18190.61
549.1601, 18260.06
549.6422, 18299.84
550.1243, 18287.26
550.6064, 18269.62
551.0886, 18284.05
551.5707, 18347.48
552.0528, 18381.52
552.5349, 18375.48
553.0170, 18346.70
553.4991, 18318.79
553.9813, 18291.71
554.4634, 18278.50
554.9455, 18292.29
555.4276, 18318.38
555.9097, 18314.30
556.3918, 18284.53
556.8740, 18269.96
557.3561, 18322.35
557.8382, 18395.78
558.3203, 18431.37
558.8024, 18415.16
559.2845, 18394.07
559.7667, 18397.93
560.2488, 18411.05
560.7309, 18414.67
561.2130, 18386.45
561.6951, 18367.27
562.1772, 18367.43
562.6594, 18384.31
563.1415, 18406.74
563.6236, 18442.07
564.1057, 18471.90
564.5878, 18488.81
565.0699, 18491.44
565.5521, 18493.45
566.0342, 18495.04
566.5163, 18495.00
566.9984, 18488.76
567.4805, 18477.12
567.9626, 18477.38
568.4448, 18494.48
568.9269, 18518.49
569.4090, 18538.94
569.8911, 18554.87
570.3732, 18563.58
570.8553, 18554.50
571.3375, 18543.75
571.8196, 18544.12
572.3017, 18555.94
572.7838, 18581.30
573.2659, 18649.38
573.7480, 18711.75
574.2302, 18731.11
574.7123, 18681.84
575.1944, 18647.20
575.6765, 18657.16
576.1586, 18680.41
576.6407, 18682.70
577.1229, 18642.05
577.6050, 18623.25
578.0871, 18643.63
578.5692, 18688.10
579.0513, 18709.94
579.5334, 18706.57
580.0156, 18695.80
580.4977, 18678.17
580.9798, 18658.92
581.4619, 18667.26
581.9440, 18703.66
582.4261, 18743.57
582.9083, 18762.12
583.3904, 18769.84
583.8725, 18787.98
584.3546, 18825.46
584.8367, 18855.82
585.3188, 18853.99
585.8010, 18834.22
586.2831, 18818.79
586.7652, 18809.26
587.2473, 18811.02
587.7294, 18836.86
588.2115, 18880.43
588.6937, 18900.79
589.1758, 18884.35
589.6579, 18859.17
590.1400, 18832.41
590.6221, 18801.99
591.1042, 18788.17
591.5864, 18795.38
592.0685, 18809.60
592.5506, 18814.57
593.0327, 18811.48
593.5148, 18826.96
593.9969, 18873.22
594.4791, 18919.37
594.9612, 18904.34
595.4433, 18850.01
595.9254, 18821.71
596.4075, 18869.14
596.8896, 18940.46
597.3718, 19005.08
597.8539, 19058.81
598.3360, 19079.07
598.8181, 19011.19
599.3002, 18941.10
599.7823, 18925.92
600.2645, 18992.68
600.7466, 19030.82
601.2287, 18996.10
601.7108, 18956.30
602.1929, 18974.06
602.6750, 19084.03
603.1572, 19154.44
603.6393, 19161.97
604.1214, 19137.70
604.6035, 19146.21
605.0856, 19188.40
605.5677, 19221.88
606.0498, 19222.23
606.5319, 19208.14
607.0140, 19225.46
607.4962, 19269.91
607.9783, 19310.44
608.4604, 19324.18
608.9425, 19324.09
609.4246, 19319.41
609.9067, 19309.46
610.3889, 19308.43
610.8710, 19328.21
611.3531, 19356.93
611.8352, 19383.88
612.3173, 19416.89
612.7994, 19435.85
613.2816, 19432.06
613.7637, 19417.30
614.2458, 19412.51
614.7279, 19417.14
615.2100, 19437.14
615.6921, 19487.10
616.1743, 19551.87
616.6564, 19549.66
617.1385, 19477.95
617.6206, 19407.93
618.1027, 19380.81
618.5848, 19389.35
619.0670, 19425.02
619.5491, 19488.22
620.0312, 19547.81
620.5133, 19579.06
620.9954, 19593.78
621.4775, 19605.10
621.9597, 19613.32
622.4418, 19622.96
622.9239, 19639.17
623.4060, 19656.57
623.8881, 19666.50
624.3702, 19648.89
624.8524, 19648.88
625.3345, 19684.06
625.8166, 19743.84
626.2987, 19773.64
626.7808, 19766.85
627.2629, 19754.53
627.7451, 19752.16
628.2272, 19758.06
628.7093, 19756.90
629.1914, 19748.18
629.6735, 19744.75
630.1556, 19765.04
630.6378, 19796.58
631.1199, 19820.12
631.6020, 19833.90
632.0841, 19834.04
632.5662, 19810.21
633.0483, 19773.94
633.5305, 19739.94
634.0126, 19697.99
634.4947, 19676.26
634.9768, 19692.61
635.4589, 19734.66
635.9410, 19765.51
636.4232, 19783.33
636.9053, 19793.10
637.3874, 19795.91
637.8695, 19791.48
638.3516, 19776.19
638.8337, 19747.44
639.3159, 19722.54
639.7980, 19711.44
640.2801, 19713.68
640.7622, 19735.63
641.2443, 19780.71
641.7264, 19814.55
642.2086, 19792.67
642.6907, 19746.82
643.1728, 19720.32
643.6549, 19736.30
644.1370, 19752.05
644.6191, 19739.11
645.1013, 19717.39
645.5834, 19720.29
646.0655, 19796.94
646.5476, 19843.67
647.0297, 19831.80
647.5118, 19775.98
647.9940, 19743.34
648.4761, 19738.58
648.9582, 19737.60
649.4403, 19723.88
649.9224, 19702.23
650.4045, 19706.59
650.8867, 19737.18
651.3688, 19770.89
651.8509, 19799.88
652.3330, 19816.27
652.8151, 19801.86
653.2972, 19749.55
653.7794, 19696.09
654.2615, 19649.80
654.7436, 19621.84
655.2257, 19624.15
655.7078, 19715.96
656.1899, 19769.99
656.6721, 19747.00
657.1542, 19681.85
657.6363, 19635.14
658.1184, 19614.91
658.6005, 19591.46
659.0826, 19553.37
659.5648, 19507.45
660.0469, 19486.70
660.5290, 19491.65
661.0111, 19488.61
661.4932, 19447.14
661.9753, 19388.15
662.4575, 19351.92
662.9396, 19338.95
663.4217, 19331.86
663.9038, 19318.78
664.3859, 19307.13
664.8680, 19309.83
665.3502, 19342.88
665.8323, 19344.46
666.3144, 19268.84
666.7965, 19170.79
667.2786, 19103.39
667.7607, 19071.16
668.2428, 19059.67
668.7249, 19070.83
669.2070, 19097.52
669.6891, 19133.56
670.1713, 19179.03
670.6534, 19206.44
671.1355, 19205.21
671.6176, 19181.68
672.0997, 19136.79
672.5818, 19077.46
673.0640, 19031.62
673.5461, 19037.11
674.0282, 19047.17
674.5103, 19023.05
674.9924, 18965.53
675.4745, 18907.96
675.9567, 18851.17
676.4388, 18807.66
676.9209, 18789.96
677.4030, 18809.56
677.8851, 18808.01
678.3672, 18770.29
678.8494, 18734.13
679.3315, 18745.20
679.8136, 18805.33
680.2957, 18821.76
680.7778, 18771.39
681.2599, 18712.08
681.7421, 18741.64
682.2242, 18824.64
682.7063, 18865.14
683.1884, 18799.55
683.6705, 18725.07
684.1526, 18719.76
684.6348, 18759.93
685.1169, 18793.58
685.5990, 18809.06
686.0811, 18811.16
686.5632, 18799.16
687.0453, 18775.11
687.5275, 18743.13
688.0096, 18693.33
688.4917, 18657.53
688.9738, 18651.56
689.4559, 18673.78
689.9380, 18705.15
690.4202, 18746.83
690.9023, 18778.12
691.3844, 18776.49
691.8665, 18753.16
692.3486, 18722.84
692.8307, 18684.16
693.3129, 18661.19
693.7950, 18679.88
694.2771, 18717.04
694.7592, 18750.17
695.2413, 18781.15
695.7234, 18797.02
696.2056, 18783.27
696.6877, 18759.66
697.1698, 18754.14
697.6519, 18781.20
698.1340, 18782.20
698.6161, 18738.35
699.0983, 18674.47
699.5804, 18644.77
700.0625, 18647.51
700.5446, 18660.18
701.0267, 18682.11
701.5089, 18701.83
701.9910, 18698.61
702.4731, 18678.11
702.9552, 18663.02
703.4373, 18675.59
703.9194, 18687.27
704.4016, 18679.79
704.8837, 18651.10
705.3658, 18626.02
705.8479, 18600.30
706.3300, 18584.90
706.8121, 18585.78
707.2943, 18604.28
707.7764, 18630.38
708.2585, 18666.45
708.7406, 18702.02
709.2227, 18733.10
709.7048, 18756.06
710.1870, 18753.12
710.6691, 18718.13
711.1512, 18677.62
711.6333, 18633.95
712.1154, 18605.87
712.5975, 18621.83
713.0797, 18736.66
713.5618, 18825.16
714.0439, 18834.24
714.5260, 18798.37
715.0081, 18775.63
715.4902, 18772.17
715.9724, 18769.98
716.4545, 18763.05
716.9366, 18757.33
717.4187, 18773.72
717.9008, 18812.28
718.3829, 18844.54
718.8651, 18862.74
719.3472, 18864.75
719.8293, 18830.00
720.3114, 18770.73
720.7935, 18739.36
721.2756, 18789.88
721.7578, 18857.89
722.2399, 18904.30
722.7220, 18927.35
723.2041, 18946.08
723.6862, 18962.53
724.1683, 18976.49
724.6505, 18987.90
725.1326, 18996.79
725.6147, 19000.09
726.0968, 18995.96
726.5789, 18992.09
727.0610, 19000.67
727.5432, 19015.68
728.0253, 19008.62
728.5074, 18973.36
728.9895, 18946.34
729.4716, 18973.54
729.9537, 19022.55
730.4358, 19051.87
730.9179, 19040.34
731.4000, 19033.79
731.8821, 19067.79
732.3643, 19103.19
732.8464, 19086.01
733.3285, 18973.41
733.8106, 18904.65
734.2927, 18906.09
734.7748, 18945.15
735.2570, 18962.32
735.7391, 18958.83
736.2212, 18955.37
736.7033, 18960.14
737.1854, 18966.00
737.6675, 18956.52
738.1497, 18940.01
738.6318, 18938.30
739.1139, 18982.95
739.5960, 19024.41
740.0781, 19041.60
740.5602, 19036.05
741.0424, 19017.06
741.5245, 18954.56
742.0066, 18926.05
742.4887, 18974.20
742.9708, 19085.53
743.4529, 19132.97
743.9351, 19110.82
744.4172, 19074.00
744.8993, 19045.27
745.3814, 19029.69
745.8635, 19047.24
746.3456, 19095.65
746.8278, 19137.70
747.3099, 19136.11
747.7920, 19126.44
748.2741, 19143.04
748.7562, 19202.42
749.2383, 19228.00
749.7205, 19205.30
750.2026, 19152.30
750.6847, 19076.10
751.1668, 18970.14
751.6489, 18865.43
752.1310, 18751.63
752.6132, 18676.23
753.0953, 18719.97
753.5774, 18848.12
754.0595, 18948.20
754.5416, 19001.70
755.0237, 19024.60
755.5059, 19003.21
755.9880, 18969.02
756.4701, 18961.92
756.9522, 19032.05
757.4343, 19074.18
757.9164, 19051.70
758.3986, 19000.73
758.8807, 18968.09
759.3628, 18961.45
759.8449, 18946.79
760.3270, 18915.13
760.8091, 18879.71
761.2913, 18863.25
761.7734, 18865.24
762.2555, 18881.53
762.7376, 18933.51
763.2197, 18972.49
763.7018, 18926.41
764.1840, 18832.72
764.6661, 18777.96
765.1482, 18846.80
765.6303, 18901.00
766.1124, 18881.34
766.5945, 18811.76
767.0767, 18778.20
767.5588, 18784.56
768.0409, 18814.63
768.5230, 18871.66
769.0051, 18942.99
769.4872, 18997.55
769.9694, 19033.77
770.4515, 19037.13
770.9336, 18960.87
771.4157, 18873.66
771.8978, 18856.43
772.3799, 18901.56
772.8621, 18930.72
773.3442, 18912.73
773.8263, 18875.61
774.3084, 18824.90
774.7905, 18760.69
775.2726, 18721.24
775.7548, 18714.81
776.2369, 18713.58
776.7190, 18698.74
777.2011, 18674.00
777.6832, 18661.94
778.1653, 18662.67
778.6475, 18665.85
779.1296, 18659.58
779.6117, 18653.45
780.0938, 18660.30
780.5759, 18683.01
781.0580, 18700.55
781.5402, 18705.58
782.0223, 18702.72
782.5044, 18697.65
782.9865, 18696.61
783.4686, 18662.63
783.9507, 18581.92
784.4329, 18500.75
784.9150, 18460.86
785.3971, 18456.55
785.8792, 18467.94
786.3613, 18496.12
786.8434, 18512.53
787.3256, 18475.00
787.8077, 18420.20
788.2898, 18390.37
788.7719, 18403.43
789.2540, 18419.00
789.7361, 18436.04
790.2183, 18445.58
790.7004, 18435.07
791.1825, 18390.63
791.6646, 18373.94
792.1467, 18393.29
792.6288, 18428.09
793.1109, 18464.04
793.5930, 18494.45
794.0751, 18496.10
794.5573, 18460.96
795.0394, 18405.29
795.5215, 18321.99
796.0036, 18235.78
796.4857, 18177.32
796.9678, 18170.16
797.4500, 18172.97
797.9321, 18192.13
798.4142, 18212.14
798.8963, 18210.41
799.3784, 18182.25
799.8605, 18160.21
800.3427, 18152.59
800.8248, 18145.32
801.3069, 18111.24
801.7890, 18059.55
802.2711, 18016.43
802.7532, 17993.92
803.2354, 17975.59
803.7175, 17945.70
804.1996, 17913.59
804.6817, 17894.64
805.1638, 17926.41
805.6459, 17923.22
806.1281, 17858.76
806.6102, 17767.40
807.0923, 17718.00
807.5744, 17711.76
808.0565, 17710.93
808.5386, 17705.86
809.0208, 17701.20
809.5029, 17715.78
809.9850, 17736.22
810.4671, 17730.22
810.9492, 17647.48
811.4313, 17575.67
811.9135, 17570.90
812.3956, 17600.95
812.8777, 17588.44
813.3598, 17499.65
813.8419, 17428.30
814.3240, 17391.75
814.8062, 17382.61
815.2883, 17391.23
815.7704, 17415.18
816.2525, 17430.28
816.7346, 17431.33
817.2167, 17414.42
817.6989, 17363.00
818.1810, 17290.69
818.6631, 17228.80
819.1452, 17190.14
819.6273, 17161.59
820.1094, 17144.86
820.5916, 17135.35
821.0737, 17120.29
821.5558, 17093.99
822.0379, 17087.03
822.5200, 17120.94
823.0021, 17163.57
823.4843, 17133.54
823.9664, 17047.29
824.4485, 16970.77
824.9306, 16942.43
825.4127, 16926.05
825.8948, 16885.02
826.3770, 16835.57
826.8591, 16818.52
827.3412, 16889.03
827.8233, 16935.36
828.3054, 16935.04
828.7875, 16898.79
829.2697, 16851.93
829.7518, 16792.92
830.2339, 16742.39
830.7160, 16709.73
831.1981, 16685.20
831.6802, 16655.62
832.1624, 16621.80
832.6445, 16586.28
833.1266, 16535.16
833.6087, 16498.88
834.0908, 16509.29
834.5729, 16544.19
835.0551, 16535.55
835.5372, 16460.46
836.0193, 16395.29
836.5014, 16359.52
836.9835, 16341.34
837.4656, 16312.51
837.9478, 16275.59
838.4299, 16244.70
838.9120, 16228.11
839.3941, 16216.12
839.8762, 16204.68
840.3583, 16190.87
840.8405, 16168.30
841.3226, 16111.50
841.8047, 16077.19
842.2868, 16090.39
842.7689, 16124.71
843.2510, 16116.18
843.7332, 16059.87
844.2153, 16004.36
844.6974, 15962.66
845.1795, 15928.64
845.6616, 15894.11
846.1437, 15859.61
846.6259, 15826.94
847.1080, 15796.37
847.5901, 15768.05
848.0722, 15744.80
848.5543, 15723.24
849.0364, 15695.72
849.5186, 15655.94
850.0007, 15625.43
850.4828, 15610.36
850.9649, 15602.66
851.4470, 15590.78
851.9291, 15574.00
852.4113, 15546.19
852.8933, 15501.01
853.3754, 15454.17
853.8575, 15432.30
854.3397, 15414.46
854.8218, 15367.95
855.3039, 15211.60
855.7860, 15127.79
856.2681, 15178.94
856.7502, 15272.97
857.2324, 15266.71
857.7145, 15152.02
858.1966, 15085.63
858.6787, 15103.02
859.1608, 15146.98
859.6429, 15159.42
860.1251, 15143.56
860.6072, 15101.63
861.0893, 15013.33
861.5714, 14941.86
862.0535, 14926.45
862.5356, 14931.24
863.0178, 14912.81
863.4999, 14857.17
863.9820, 14824.21
864.4641, 14826.89
864.9462, 14829.19
865.4283, 14775.64
865.9105, 14686.86
866.3926, 14624.74
866.8747, 14603.36
867.3568, 14592.04
867.8389, 14580.38
868.3210, 14562.65
868.8032, 14532.06
869.2853, 14478.93
869.7674, 14434.63
870.2495, 14404.74
870.7316, 14375.62
871.2137, 14329.00
871.6959, 14268.08
872.1780, 14238.66
872.6601, 14245.22
873.1422, 14250.39
873.6243, 14216.20
874.1064, 14166.46
874.5886, 14125.06
875.0707, 14094.82
875.5528, 14072.64
876.0349, 14076.80
876.5170, 14069.08
876.9991, 14023.17
877.4813, 13935.78
877.9634, 13878.33
878.4455, 13852.69
878.9276, 13839.81
879.4097, 13829.69
879.8918, 13821.69
880.3740, 13817.18
880.8561, 13815.56
881.3382, 13808.86
881.8203, 13795.08
882.3024, 13774.00
882.7845, 13742.73
883.2667, 13702.74
883.7488, 13664.96
884.2309, 13627.87
884.7130, 13599.06
885.1951, 13588.13
885.6772, 13584.87
886.1594, 13564.80
886.6415, 13529.63
887.1236, 13486.32
887.6057, 13419.07
888.0878, 13363.63
888.5699, 13348.51
889.0521, 13364.34
889.5342, 13369.56
890.0163, 13362.57
890.4984, 13345.68
890.9805, 13316.91
891.4626, 13281.03
891.9448, 13246.87
892.4269, 13215.21
892.9090, 13189.14
893.3911, 13171.45
893.8732, 13156.71
894.3553, 13143.55
894.8375, 13129.24
895.3196, 13109.49
895.8017, 13080.48
896.2838, 13049.44
896.7659, 13017.31
897.2480, 12982.64
897.7302, 12940.21
898.2123, 12891.96
898.6944, 12848.23
899.1765, 12812.16
899.6586, 12780.16
900.1407, 12758.19
900.6229, 12735.15
901.1050, 12695.59
901.5871, 12621.88
902.0692, 12563.55
902.5513, 12530.86
903.0334, 12508.18
903.5156, 12485.14
903.9977, 12461.69
904.4798, 12427.06
904.9619, 12379.70
905.4440, 12330.09
905.9261, 12286.09
906.4083, 12246.10
906.8904, 12206.55
907.3725, 12166.77
907.8546, 12134.36
908.3367, 12109.76
908.8188, 12095.73
909.3010, 12098.38
909.7831, 12117.14
910.2652, 12117.74
910.7473, 12099.13
911.2294, 12076.46
911.7115, 12063.73
912.1937, 12050.12
912.6758, 12014.26
913.1579, 11960.81
913.6400, 11912.86
914.1221, 11890.86
914.6042, 11863.37
915.0863, 11812.17
915.5684, 11747.41
916.0505, 11708.20
916.5327, 11698.79
917.0148, 11683.88
917.4969, 11648.96
917.9790, 11607.28
918.4611, 11581.63
918.9432, 11565.68
919.4254, 11544.84
919.9075, 11504.99
920.3896, 11469.57
920.8717, 11448.28
921.3538, 11434.73
921.8359, 11422.63
922.3181, 11414.08
922.8002, 11393.51
923.2823, 11356.38
923.7644, 11313.87
924.2465, 11271.95
924.7286, 11237.68
925.2108, 11231.06
925.6929, 11264.17
926.1750, 11286.49
926.6571, 11276.85
927.1392, 11246.31
927.6213, 11197.67
928.1035, 11122.06
928.5856, 11091.66
929.0677, 11116.34
929.5498, 11141.85
930.0319, 11120.14
930.5140, 11072.32
930.9962, 11038.95
931.4783, 11020.44
931.9604, 11001.44
932.4425, 10976.15
932.9246, 10946.32
933.4067, 10907.76
933.8889, 10863.80
934.3710, 10833.84
934.8531, 10820.19
935.3352, 10809.56
935.8173, 10796.01
936.2994, 10783.35
936.7816, 10789.41
937.2637, 10803.02
937.7458, 10793.32
938.2279, 10720.66
938.7100, 10652.52
939.1921, 10612.67
939.6743, 10593.38
940.1564, 10584.27
940.6385, 10589.33
941.1206, 10585.20
941.6027, 10566.46
942.0848, 10544.76
942.5670, 10539.06
943.0491, 10540.23
943.5312, 10533.07
944.0133, 10516.21
944.4954, 10483.17
944.9775, 10414.81
945.4597, 10341.99
945.9418, 10285.51
946.4239, 10244.56
946.9060, 10233.22
947.3881, 10257.17
947.8702, 10272.31
948.3524, 10225.53
948.8345, 10157.79
949.3166, 10143.83
949.7987, 10178.35
950.2808, 10198.74
950.7629, 10159.52
951.2451, 10120.36
951.7272, 10105.69
952.2093, 10109.42
952.6914, 10109.35
953.1735, 10106.10
953.6556, 10088.60
954.1378, 10045.33
954.6199, 9997.538
955.1020, 9969.934
955.5841, 9959.991
956.0662, 9962.792
956.5483, 10004.72
957.0305, 10021.79
957.5126, 9984.010
957.9947, 9931.956
958.4768, 9915.704
958.9589, 9937.146
959.4410, 9940.401
959.9232, 9918.206
960.4053, 9890.104
960.8874, 9878.043
961.3695, 9868.898
961.8516, 9841.664
962.3337, 9789.215
962.8159, 9757.852
963.2980, 9774.396
963.7801, 9790.966
964.2622, 9781.401
964.7443, 9750.446
965.2264, 9753.391
965.7086, 9787.469
966.1907, 9800.542
966.6728, 9736.897
967.1549, 9660.103
967.6370, 9627.293
968.1191, 9628.587
968.6013, 9632.602
969.0834, 9631.114
969.5655, 9637.669
970.0476, 9661.357
970.5297, 9685.589
971.0118, 9670.995
971.4940, 9626.956
971.9761, 9606.774
972.4582, 9631.220
972.9403, 9649.972
973.4224, 9605.162
973.9045, 9547.023
974.3867, 9533.153
974.8688, 9598.282
975.3509, 9611.316
975.8330, 9548.516
976.3151, 9492.745
976.7972, 9532.345
977.2793, 9626.441
977.7614, 9645.500
978.2435, 9592.281
978.7256, 9529.233
979.2078, 9466.590
979.6899, 9428.414
980.1720, 9447.579
980.6541, 9505.053
981.1362, 9518.303
981.6183, 9476.157
982.1005, 9441.314
982.5826, 9434.234
983.0647, 9439.472
983.5468, 9433.059
984.0289, 9419.638
984.5110, 9408.191
984.9932, 9395.860
985.4753, 9396.401
985.9574, 9437.391
986.4395, 9476.112
986.9216, 9469.079
987.4037, 9408.826
987.8859, 9380.281
988.3680, 9389.257
988.8501, 9399.454
989.3322, 9369.124
989.8143, 9329.513
990.2964, 9322.362
990.7786, 9348.527
991.2607, 9361.306
991.7428, 9341.519
992.2249, 9318.057
992.7070, 9296.922
993.1891, 9279.568
993.6713, 9275.610
994.1534, 9282.423
994.6355, 9279.833
995.1176, 9248.500
995.5997, 9223.529
996.0818, 9243.891
996.5640, 9283.780
997.0461, 9305.146
997.5282, 9302.946
998.0103, 9279.336
998.4924, 9221.724
998.9745, 9171.646
999.4567, 9184.630
999.9388, 9237.505
1000.421, 9268.180
1000.903, 9271.754
1001.385, 9264.468
1001.867, 9249.668
1002.349, 9231.700
1002.831, 9207.337
1003.314, 9180.000
1003.796, 9180.907
1004.278, 9215.831
1004.760, 9233.893
1005.242, 9206.352
1005.724, 9164.179
1006.206, 9146.212
1006.688, 9148.837
1007.171, 9163.893
1007.653, 9212.942
1008.135, 9240.542
1008.617, 9233.620
1009.099, 9211.618
1009.581, 9191.313
1010.063, 9172.911
1010.545, 9163.822
1011.027, 9164.411
1011.510, 9174.928
1011.992, 9211.668
1012.474, 9245.993
1012.956, 9249.670
1013.438, 9220.862
1013.920, 9199.059
1014.402, 9187.391
1014.884, 9179.880
1015.367, 9177.513
1015.849, 9174.706
1016.331, 9153.629
1016.813, 9120.870
1017.295, 9095.560
1017.777, 9081.249
1018.259, 9082.293
1018.741, 9116.640
1019.223, 9157.607
1019.706, 9172.236
1020.188, 9150.705
1020.670, 9171.028
1021.152, 9243.195
1021.634, 9303.684
1022.116, 9269.594
1022.598, 9206.486
1023.080, 9201.411
1023.563, 9255.171
1024.045, 9288.516
1024.527, 9269.656
1025.009, 9246.854
1025.491, 9234.333
1025.973, 9225.657
1026.455, 9193.673
1026.937, 9146.471
1027.419, 9131.756
1027.901, 9186.062
1028.384, 9231.805
1028.866, 9191.338
1029.348, 9127.540
1029.830, 9121.155
1030.312, 9212.537
1030.794, 9226.860
1031.276, 9146.360
1031.758, 9065.306
1032.241, 9073.760
1032.723, 9127.973
1033.205, 9157.294
1033.687, 9161.686
1034.169, 9162.189
1034.651, 9164.267
1035.133, 9166.575
1035.615, 9170.807
1036.098, 9173.321
1036.580, 9161.035
1037.062, 9135.952
1037.544, 9122.195
1038.026, 9126.237
1038.508, 9140.024
1038.990, 9163.786
1039.472, 9189.326
1039.954, 9209.918
1040.437, 9228.090
1040.919, 9223.810
1041.401, 9189.699
1041.883, 9156.538
1042.365, 9144.816
1042.847, 9148.149
1043.329, 9160.706
1043.811, 9176.664
1044.293, 9172.786
1044.776, 9111.395
1045.258, 9063.222
1045.740, 9054.901
1046.222, 9066.823
1046.704, 9069.833
1047.186, 9063.935
1047.668, 9055.305
1048.150, 9042.302
1048.633, 9045.136
1049.115, 9108.219
1049.597, 9178.117
1050.079, 9201.193
1050.561, 9165.487
1051.043, 9135.605
1051.525, 9111.975
1052.007, 9096.947
1052.490, 9092.295
1052.972, 9096.254
1053.454, 9110.396
1053.936, 9129.798
1054.418, 9141.206
1054.900, 9133.776
1055.382, 9124.505
1055.864, 9116.243
1056.346, 9108.876
1056.828, 9102.656
1057.311, 9097.496
1057.793, 9087.896
1058.275, 9073.124
1058.757, 9070.384
1059.239, 9116.508
1059.721, 9161.096
1060.203, 9148.408
1060.685, 9087.530
1061.168, 9073.312
1061.650, 9129.881
1062.132, 9173.040
1062.614, 9181.231
1063.096, 9165.508
1063.578, 9128.860
1064.060, 9085.175
1064.542, 9064.114
1065.025, 9081.245
1065.507, 9094.633
1065.989, 9092.545
1066.471, 9081.021
1066.953, 9056.139
1067.435, 9020.667
1067.917, 9024.626
1068.399, 9064.266
1068.881, 9093.102
1069.364, 9065.110
1069.846, 9035.593
1070.328, 9053.023
1070.810, 9093.729
1071.292, 9101.091
1071.774, 9056.341
1072.256, 9042.801
1072.738, 9075.274
1073.220, 9115.103
1073.703, 9124.713
1074.185, 9110.122
1074.667, 9068.356
1075.149, 8999.016
1075.631, 8958.133
1076.113, 8977.754
1076.595, 9004.242
1077.077, 9021.515
1077.559, 9033.962
1078.042, 9061.445
1078.524, 9096.740
1079.006, 9106.792
1079.488, 9068.223
1079.970, 9030.643
1080.452, 9017.776
1080.934, 9021.990
1081.416, 9036.269
1081.899, 9062.999
1082.381, 9079.812
1082.863, 9085.994
1083.345, 9088.456
1083.827, 9095.023
1084.309, 9097.465
1084.791, 9077.864
1085.273, 9046.176
1085.755, 9037.198
1086.238, 9070.181
1086.720, 9094.673
1087.202, 9103.411
1087.684, 9104.329
1088.166, 9113.841
1088.648, 9122.265
1089.130, 9101.167
1089.612, 9045.413
1090.094, 9002.232
1090.577, 8993.315
1091.059, 9001.404
1091.541, 9026.525
1092.023, 9060.440
1092.505, 9061.930
1092.987, 9036.918
1093.469, 9034.578
1093.951, 9085.005
1094.434, 9134.948
1094.916, 9149.834
1095.398, 9141.378
1095.880, 9118.721
1096.362, 9074.969
1096.844, 9058.793
1097.326, 9072.884
1097.808, 9092.154
1098.291, 9102.071
1098.773, 9105.304
1099.255, 9102.210
1099.737, 9095.212
1100.219, 9091.305
1100.701, 9092.959
1101.183, 9097.195
1101.665, 9105.360
1102.147, 9113.031
1102.630, 9109.016
1103.112, 9101.029
1103.594, 9117.507
1104.076, 9161.265
1104.558, 9177.781
1105.040, 9093.586
1105.522, 9033.506
1106.004, 9061.347
1106.486, 9143.414
1106.969, 9162.237
1107.451, 9125.699
1107.933, 9092.967
1108.415, 9082.542
1108.897, 9079.014
1109.379, 9078.769
1109.861, 9075.353
1110.343, 9058.762
1110.826, 9025.972
1111.308, 9018.442
1111.790, 9038.752
1112.272, 9060.098
1112.754, 9066.003
1113.236, 9065.289
1113.718, 9071.604
1114.200, 9078.417
1114.682, 9069.891
1115.165, 9024.326
1115.647, 9003.052
1116.129, 9014.425
1116.611, 9036.619
1117.093, 9053.294
1117.575, 9062.440
1118.057, 9053.741
1118.539, 9029.729
1119.021, 9017.683
1119.504, 9042.692
1119.986, 9062.063
1120.468, 9063.938
1120.950, 9056.273
1121.432, 9058.823
1121.914, 9066.807
1122.396, 9056.228
1122.878, 9018.719
1123.361, 8986.805
1123.843, 8977.700
1124.325, 8982.899
1124.807, 9001.473
1125.289, 9029.858
1125.771, 9036.415
1126.253, 9022.025
1126.735, 9011.809
1127.218, 9016.617
1127.700, 9027.840
1128.182, 9034.709
1128.664, 9045.310
1129.146, 9075.647
1129.628, 9140.802
1130.110, 9157.042
1130.592, 9117.219
1131.074, 9073.979
1131.557, 9059.166
1132.039, 9066.169
1132.521, 9094.466
1133.003, 9137.679
1133.485, 9179.520
1133.967, 9242.302
1134.449, 9248.059
1134.931, 9172.670
1135.413, 9085.311
1135.896, 9081.289
1136.378, 9117.638
1136.860, 9103.050
1137.342, 9035.337
1137.824, 8994.304
1138.306, 9038.733
1138.788, 9073.270
1139.270, 9070.746
1139.752, 9049.161
1140.235, 9042.736
1140.717, 9049.435
1141.199, 9066.091
1141.681, 9094.418
1142.163, 9116.507
1142.645, 9123.736
1143.127, 9120.615
1143.609, 9108.779
1144.092, 9089.438
1144.574, 9067.193
1145.056, 9043.313
1145.538, 9028.139
1146.020, 9026.962
1146.502, 9034.387
1146.984, 9060.597
1147.466, 9084.668
1147.948, 9082.211
1148.431, 9048.138
1148.913, 9031.694
1149.395, 9032.933
1149.877, 9044.258
1150.359, 9068.615
1150.841, 9092.919
1151.323, 9105.196
1151.805, 9109.268
1152.287, 9115.308
1152.770, 9126.452
1153.252, 9126.506
1153.734, 9111.695
1154.216, 9099.238
1154.698, 9115.210
1155.180, 9136.022
1155.662, 9130.094
1156.144, 9100.762
1156.627, 9081.910
1157.109, 9081.367
1157.591, 9079.369
1158.073, 9071.000
1158.555, 9063.886
1159.037, 9072.125
1159.519, 9086.862
1160.001, 9093.938
1160.484, 9091.074
1160.966, 9083.830
1161.448, 9063.026
1161.930, 9057.262
1162.412, 9081.616
1162.894, 9119.138
1163.376, 9133.852
1163.858, 9132.702
1164.340, 9131.872
1164.823, 9135.496
1165.305, 9140.771
1165.787, 9154.975
1166.269, 9160.571
1166.751, 9144.865
1167.233, 9114.236
1167.715, 9091.584
1168.197, 9076.492
1168.679, 9067.090
1169.162, 9060.979
1169.644, 9062.806
1170.126, 9075.974
1170.608, 9095.997
1171.090, 9126.215
1171.572, 9163.760
1172.054, 9163.204
1172.536, 9129.299
1173.019, 9111.940
1173.501, 9163.283
1173.983, 9210.943
1174.465, 9216.060
1174.947, 9200.208
1175.429, 9187.256
1175.911, 9177.425
1176.393, 9181.287
1176.875, 9199.726
1177.358, 9213.852
1177.840, 9197.380
1178.322, 9184.384
1178.804, 9208.457
1179.286, 9251.087
1179.768, 9260.774
1180.250, 9236.066
1180.732, 9214.882
1181.214, 9202.629
1181.697, 9202.845
1182.179, 9231.685
1182.661, 9263.583
1183.143, 9281.153
1183.625, 9282.278
1184.107, 9251.188
1184.589, 9182.416
1185.071, 9142.421
1185.554, 9154.277
1186.036, 9184.839
1186.518, 9211.169
1187.000, 9230.990
1187.482, 9241.264
1187.964, 9242.040
1188.446, 9233.360
1188.928, 9213.795
1189.411, 9194.203
1189.893, 9173.565
1190.375, 9165.190
1190.857, 9203.063
1191.339, 9254.866
1191.821, 9273.613
1192.303, 9245.404
1192.785, 9213.840
1193.267, 9174.925
1193.750, 9153.666
1194.232, 9174.376
1194.714, 9212.048
1195.196, 9246.830
1195.678, 9272.033
1196.160, 9272.029
1196.642, 9219.242
1197.124, 9202.005
1197.606, 9227.967
1198.089, 9259.995
1198.571, 9272.512
1199.053, 9270.406
1199.535, 9249.196
1200.017, 9218.778
1200.499, 9210.872
1200.981, 9251.101
1201.463, 9265.532
1201.945, 9243.758
1202.428, 9212.263
1202.910, 9188.007
1203.392, 9176.206
1203.874, 9190.847
1204.356, 9227.527
1204.838, 9255.449
1205.320, 9267.776
1205.802, 9276.367
1206.285, 9282.406
1206.767, 9286.796
1207.249, 9295.460
1207.731, 9300.569
1208.213, 9282.771
1208.695, 9242.062
1209.177, 9225.413
1209.659, 9246.794
1210.141, 9270.971
1210.624, 9290.421
1211.106, 9306.631
1211.588, 9328.007
1212.070, 9344.878
1212.552, 9337.765
1213.034, 9301.305
1213.516, 9274.393
1213.998, 9256.499
1214.480, 9260.056
1214.963, 9295.923
1215.445, 9343.354
1215.927, 9372.815
1216.409, 9387.025
1216.891, 9390.697
1217.373, 9385.182
1217.855, 9362.877
1218.337, 9313.228
1218.820, 9274.929
1219.302, 9267.540
1219.784, 9278.716
1220.266, 9290.981
1220.748, 9303.799
1221.230, 9315.181
1221.712, 9321.545
1222.194, 9337.845
1222.677, 9371.065
1223.159, 9395.560
1223.641, 9391.387
1224.123, 9373.755
1224.605, 9369.115
1225.087, 9371.958
1225.569, 9371.852
1226.051, 9368.129
1226.533, 9354.255
1227.016, 9325.034
1227.498, 9300.727
1227.980, 9294.502
1228.462, 9303.005
1228.944, 9331.529
1229.426, 9369.245
1229.908, 9390.170
1230.390, 9381.359
1230.872, 9364.491
1231.355, 9334.307
1231.837, 9317.457
1232.319, 9351.536
1232.801, 9402.827
1233.283, 9423.345
1233.765, 9419.601
1234.247, 9415.205
1234.729, 9415.713
1235.212, 9409.436
1235.694, 9392.114
1236.176, 9381.913
1236.658, 9408.261
1237.140, 9442.675
1237.622, 9439.616
1238.104, 9410.581
1238.586, 9415.555
1239.068, 9479.297
1239.551, 9507.207
1240.033, 9484.459
1240.515, 9445.736
1240.997, 9408.199
1241.479, 9386.660
1241.961, 9410.552
1242.443, 9469.438
1242.925, 9500.724
1243.407, 9497.542
1243.890, 9484.545
1244.372, 9462.276
1244.854, 9449.569
1245.336, 9475.003
1245.818, 9512.202
1246.300, 9536.525
1246.782, 9547.385
1247.264, 9556.989
1247.747, 9564.657
1248.229, 9576.598
1248.711, 9597.037
1249.193, 9604.896
1249.675, 9573.129
1250.157, 9525.999
1250.639, 9471.537
1251.121, 9419.758
1251.604, 9426.079
1252.086, 9494.482
1252.568, 9541.497
1253.050, 9545.635
1253.532, 9533.441
1254.014, 9510.793
1254.496, 9495.165
1254.978, 9511.021
1255.460, 9546.907
1255.943, 9540.692
1256.425, 9494.598
1256.907, 9459.435
1257.389, 9447.899
1257.871, 9450.061
1258.353, 9469.956
1258.835, 9490.229
1259.317, 9499.850
1259.799, 9499.659
1260.281, 9491.879
1260.764, 9477.889
1261.246, 9465.430
1261.728, 9456.162
1262.210, 9452.293
1262.692, 9463.909
1263.174, 9472.273
1263.656, 9463.714
1264.138, 9445.329
1264.621, 9450.964
1265.103, 9472.667
1265.585, 9478.060
1266.067, 9450.524
1266.549, 9425.331
1267.031, 9401.056
1267.513, 9401.550
1267.995, 9452.637
1268.478, 9528.598
1268.960, 9548.022
1269.442, 9528.292
1269.924, 9516.983
1270.406, 9531.398
1270.888, 9545.557
1271.370, 9557.404
1271.852, 9562.494
1272.334, 9554.431
1272.817, 9540.999
1273.299, 9533.719
##END=



