##NAMES=Fencooperite
##RRUFFID=R061032
##IDEAL CHEMISTRY=Ba_6_Fe^3+^_3_Si_8_O_23_(CO_3_)_2_Cl_3_&#183;H_2_O
##LOCALITY=Trumbull Peak, Mariposa County, California, USA
##OWNER=RRUFF
##SOURCE=Michael Scott
##DESCRIPTION=Dark gray massive embedded in quartz with reddish-orange halo around the grains
##STATUS=The identification of this mineral is not yet confirmed.
##URL=rruff.info/R061032
123.4562, 0.0000000E+00
123.9384, 0.6389770
124.4205, 0.9323730
124.9026, 7.005432
125.3847, 8.696533
125.8668, 3.019470
126.3489, 0.7896730
126.8311, 11.49261
127.3132, 31.17151
127.7953, 53.79108
128.2774, 78.74194
128.7595, 104.9239
129.2416, 130.0317
129.7238, 154.1660
130.2059, 176.4813
130.6880, 198.4883
131.1701, 218.9171
131.6522, 233.4991
132.1344, 240.4508
132.6165, 239.8230
133.0986, 230.5237
133.5807, 205.7563
134.0628, 180.7047
134.5449, 164.2863
135.0271, 155.1319
135.5092, 147.8453
135.9913, 138.4648
136.4734, 127.0968
136.9555, 117.2656
137.4376, 108.3447
137.9198, 102.1228
138.4019, 99.93976
138.8840, 101.3928
139.3661, 104.6076
139.8482, 106.2839
140.3303, 105.2104
140.8125, 112.1899
141.2946, 142.3923
141.7767, 169.5995
142.2588, 178.8228
142.7409, 170.9894
143.2230, 160.6401
143.7052, 164.4403
144.1873, 186.1729
144.6694, 208.5347
145.1515, 234.5519
145.6336, 258.6089
146.1157, 278.1364
146.5979, 292.5090
147.0800, 302.0959
147.5621, 306.6732
148.0442, 303.7664
148.5263, 301.6939
149.0084, 299.6228
149.4906, 299.0245
149.9727, 301.1649
150.4548, 306.2108
150.9369, 313.0645
151.4190, 320.6439
151.9011, 332.7144
152.3833, 337.7151
152.8654, 333.3262
153.3475, 324.3017
153.8296, 314.5460
154.3117, 305.1283
154.7938, 293.9886
155.2760, 276.8578
155.7581, 244.4547
156.2402, 220.2259
156.7223, 208.4726
157.2044, 203.2462
157.6865, 197.8961
158.1687, 188.9946
158.6508, 179.1293
159.1329, 171.5298
159.6150, 164.4025
160.0971, 162.4992
160.5792, 169.8734
161.0614, 180.6580
161.5435, 189.5339
162.0256, 194.3954
162.5077, 195.5524
162.9898, 193.6180
163.4719, 187.1506
163.9541, 178.9302
164.4362, 165.7146
164.9183, 151.8965
165.4004, 143.3319
165.8825, 142.4513
166.3646, 146.3680
166.8468, 147.7919
167.3289, 147.3235
167.8110, 145.3129
168.2931, 137.2055
168.7752, 129.0447
169.2573, 126.3835
169.7395, 133.1596
170.2216, 144.5085
170.7037, 146.7827
171.1858, 130.6776
171.6679, 118.5323
172.1500, 117.0455
172.6322, 120.7870
173.1143, 121.1035
173.5964, 113.9409
174.0785, 103.3413
174.5606, 97.45862
175.0427, 99.36194
175.5249, 100.3361
176.0070, 100.0474
176.4891, 98.45679
176.9712, 95.07849
177.4533, 89.59851
177.9354, 83.02399
178.4176, 78.27869
178.8997, 70.94263
179.3818, 63.77625
179.8639, 58.97009
180.3460, 55.85492
180.8281, 52.58685
181.3103, 47.25970
181.7924, 42.32568
182.2745, 43.91138
182.7566, 58.31000
183.2387, 67.54199
183.7208, 62.33356
184.2030, 48.66962
184.6851, 37.99231
185.1672, 35.14954
185.6493, 37.52692
186.1314, 39.16071
186.6135, 41.64587
187.0957, 40.61304
187.5778, 31.53406
188.0599, 18.28357
188.5420, 9.213135
189.0241, 8.532593
189.5062, 12.03125
189.9884, 8.849182
190.4705, 5.372009
190.9526, 15.81226
191.4347, 16.10455
191.9168, 9.504028
192.3989, 2.400940
192.8811, 2.856873
193.3632, 7.366760
193.8453, 14.42780
194.3274, 27.48376
194.8095, 35.00177
195.2916, 28.14038
195.7738, 13.65900
196.2559, 5.616943
196.7380, 10.04431
197.2201, 20.41840
197.7022, 23.23175
198.1843, 16.49152
198.6665, 10.45282
199.1486, 8.244995
199.6307, 8.798279
200.1128, 10.30914
200.5949, 12.33612
201.0770, 14.74689
201.5592, 17.76495
202.0413, 22.21521
202.5234, 24.53467
203.0055, 21.70264
203.4876, 16.42609
203.9697, 13.70093
204.4519, 15.33539
204.9340, 18.69116
205.4161, 19.50140
205.8982, 17.73303
206.3803, 14.88336
206.8624, 9.143738
207.3446, 3.072632
207.8267, 1.721558
208.3088, 7.140747
208.7909, 14.09216
209.2730, 14.50159
209.7551, 7.699768
210.2373, 0.6121830
210.7194, 7.859802
211.2015, 14.99585
211.6836, 15.66449
212.1657, 8.143982
212.6479, 1.202820
213.1300, 3.068298
213.6121, 3.947510
214.0942, 6.591614
214.5763, 0.8421020
215.0584, 12.06470
215.5406, 19.70801
216.0227, 22.39655
216.5048, 23.44885
216.9869, 27.55029
217.4690, 35.59106
217.9511, 37.21692
218.4333, 22.87677
218.9154, 6.404541
219.3975, 3.560242
219.8796, 16.30280
220.3617, 31.66730
220.8438, 37.20398
221.3260, 31.59705
221.8081, 26.06897
222.2902, 21.39844
222.7723, 16.66156
223.2544, 10.27661
223.7365, 2.362427
224.2187, 4.309082
224.7008, 7.146912
225.1829, 5.789246
225.6650, 4.619141
226.1471, 5.672852
226.6292, 5.446777
227.1114, 0.1080930
227.5935, 9.671448
228.0756, 18.43188
228.5577, 22.08130
229.0398, 20.75507
229.5219, 19.12787
230.0041, 16.78925
230.4862, 14.26099
230.9683, 12.07910
231.4504, 9.705688
231.9325, 5.052490
232.4146, 3.677429
232.8968, 15.00977
233.3789, 18.90112
233.8610, 10.44336
234.3431, 1.328796
234.8252, 4.305420
235.3073, 7.390991
235.7895, 10.67865
236.2716, 15.86047
236.7537, 22.03992
237.2358, 25.13330
237.7179, 22.37286
238.2000, 20.26025
238.6822, 19.69763
239.1643, 20.78387
239.6464, 24.35724
240.1285, 31.02985
240.6106, 38.96161
241.0927, 43.00824
241.5749, 42.95856
242.0570, 39.21155
242.5391, 26.98730
243.0212, 12.88727
243.5033, 5.039307
243.9854, 6.235596
244.4676, 12.74506
244.9497, 17.67688
245.4318, 19.54865
245.9139, 22.02606
246.3960, 26.65448
246.8781, 30.98535
247.3603, 32.01147
247.8424, 29.37231
248.3245, 26.13110
248.8066, 26.73083
249.2887, 34.67047
249.7708, 39.40460
250.2530, 39.56952
250.7351, 37.78851
251.2172, 34.77771
251.6993, 31.18585
252.1814, 28.39594
252.6635, 28.08395
253.1457, 30.86053
253.6278, 33.15210
254.1099, 37.12363
254.5920, 38.73956
255.0741, 33.48666
255.5562, 23.68222
256.0384, 16.36545
256.5205, 18.13739
257.0026, 29.20987
257.4847, 35.88370
257.9668, 35.57675
258.4489, 33.14151
258.9311, 25.64429
259.4132, 17.17371
259.8953, 15.56973
260.3774, 27.28357
260.8595, 48.61594
261.3416, 59.28629
261.8238, 51.67227
262.3059, 42.70340
262.7880, 32.99359
263.2701, 25.12543
263.7522, 23.05356
264.2343, 29.23755
264.7165, 39.38919
265.1986, 42.40460
265.6807, 33.00189
266.1628, 27.66107
266.6449, 33.34329
267.1270, 42.04630
267.6092, 46.91000
268.0913, 45.83212
268.5734, 41.48825
269.0555, 37.87494
269.5376, 35.59253
270.0197, 33.44046
270.5019, 28.57626
270.9840, 25.15485
271.4661, 27.28711
271.9482, 35.14755
272.4303, 43.13724
272.9124, 44.73798
273.3946, 40.08490
273.8767, 35.98273
274.3588, 33.18005
274.8409, 31.18896
275.3230, 29.72861
275.8051, 28.73566
276.2873, 27.88614
276.7694, 26.01105
277.2515, 24.00998
277.7336, 25.86835
278.2157, 34.30194
278.6978, 41.31589
279.1800, 40.22537
279.6621, 33.53357
280.1442, 26.74582
280.6263, 21.48090
281.1084, 17.32578
281.5905, 13.70038
282.0727, 10.31598
282.5548, 7.265198
283.0369, 3.970764
283.5190, 1.411591
284.0011, 1.932831
284.4832, 9.168365
284.9654, 16.05423
285.4475, 15.95609
285.9296, 9.601532
286.4117, 2.040253
286.8938, 5.571533
287.3759, 12.04269
287.8581, 14.41898
288.3402, 12.41724
288.8223, 7.398010
289.3044, 2.783783
289.7865, 15.28265
290.2686, 23.72787
290.7508, 25.71399
291.2329, 24.76437
291.7150, 26.47269
292.1971, 31.92603
292.6792, 36.11600
293.1613, 37.66776
293.6435, 37.72183
294.1256, 36.79285
294.6077, 35.14609
295.0898, 34.28485
295.5719, 35.93314
296.0540, 40.62198
296.5362, 45.33868
297.0183, 50.39688
297.5004, 55.17712
297.9825, 59.52588
298.4646, 63.32129
298.9467, 66.45511
299.4289, 68.97620
299.9110, 70.80170
300.3931, 70.49545
300.8752, 64.35553
301.3573, 60.14664
301.8394, 61.92535
302.3216, 66.55566
302.8037, 68.59323
303.2858, 65.23373
303.7679, 58.96097
304.2500, 57.07315
304.7321, 64.04926
305.2143, 68.35413
305.6964, 67.38281
306.1785, 65.08185
306.6606, 64.41412
307.1427, 64.08026
307.6248, 64.30447
308.1070, 63.83539
308.5891, 62.46945
309.0712, 61.21466
309.5533, 60.02814
310.0354, 59.05139
310.5175, 57.83469
310.9997, 56.71371
311.4818, 56.93176
311.9639, 59.99747
312.4460, 65.58652
312.9281, 70.72427
313.4102, 75.21338
313.8924, 79.50992
314.3745, 85.39536
314.8566, 91.19269
315.3387, 93.34348
315.8208, 87.68475
316.3029, 79.63574
316.7851, 79.30493
317.2672, 88.06387
317.7493, 96.07169
318.2314, 99.09906
318.7135, 98.45709
319.1956, 95.62454
319.6778, 89.71109
320.1599, 83.96713
320.6420, 80.86932
321.1241, 79.98047
321.6062, 79.57803
322.0883, 79.64163
322.5705, 79.13162
323.0526, 75.61014
323.5347, 68.38278
324.0168, 63.39417
324.4989, 66.04504
324.9810, 70.32651
325.4632, 65.81522
325.9453, 50.83505
326.4274, 38.01532
326.9095, 41.76913
327.3916, 64.86389
327.8737, 76.44788
328.3559, 69.15387
328.8380, 57.38184
329.3201, 47.19839
329.8022, 39.30389
330.2843, 33.73758
330.7664, 30.68686
331.2486, 29.85037
331.7307, 29.60046
332.2128, 28.86578
332.6949, 30.04617
333.1770, 36.56744
333.6591, 43.95206
334.1413, 46.67804
334.6234, 42.84439
335.1055, 35.35358
335.5876, 28.99728
336.0698, 23.53867
336.5519, 19.84167
337.0340, 17.45834
337.5161, 16.93033
337.9982, 20.10199
338.4803, 26.06720
338.9625, 31.00854
339.4446, 31.33420
339.9267, 27.11810
340.4088, 21.65454
340.8909, 10.75208
341.3730, 4.506531
341.8552, 11.99496
342.3373, 26.02612
342.8194, 32.87839
343.3015, 23.62570
343.7836, 7.523163
344.2657, 1.187500
344.7479, 6.169037
345.2300, 9.845276
345.7121, 6.258148
346.1942, 0.1853030
346.6763, 3.522308
347.1584, 4.473328
347.6406, 1.875458
348.1227, 8.426086
348.6048, 23.04099
349.0869, 30.68185
349.5690, 27.71173
350.0511, 20.25568
350.5333, 13.87277
351.0154, 8.391998
351.4975, 6.890320
351.9796, 14.83279
352.4617, 23.73819
352.9438, 24.11075
353.4260, 16.41718
353.9081, 10.00308
354.3902, 12.25854
354.8723, 21.95374
355.3544, 24.97211
355.8365, 13.66251
356.3187, 5.856140
356.8008, 10.22931
357.2829, 20.29105
357.7650, 26.02206
358.2471, 23.37479
358.7292, 16.05432
359.2114, 11.18030
359.6935, 9.938354
360.1756, 9.199799
360.6577, 7.171051
361.1398, 6.906342
361.6219, 14.10129
362.1041, 26.55103
362.5862, 33.55634
363.0683, 21.61545
363.5504, 8.589905
364.0325, 20.83200
364.5146, 4.9805000E-02
364.9968, 18.97870
365.4789, 21.62009
365.9610, 15.03668
366.4431, 10.55740
366.9252, 13.52881
367.4073, 19.34494
367.8895, 20.27478
368.3716, 15.65622
368.8537, 12.76572
369.3358, 13.70825
369.8179, 17.79849
370.3000, 24.59647
370.7822, 34.36496
371.2643, 43.97159
371.7464, 52.54373
372.2285, 59.57324
372.7106, 63.94574
373.1927, 65.44370
373.6749, 64.49408
374.1570, 60.03696
374.6391, 52.40738
375.1212, 50.27350
375.6033, 56.33173
376.0854, 65.89899
376.5676, 79.63995
377.0497, 95.08533
377.5318, 105.6667
378.0139, 107.6690
378.4960, 103.2012
378.9781, 99.16559
379.4603, 91.63589
379.9424, 89.82224
380.4245, 100.6910
380.9066, 113.3121
381.3887, 117.6201
381.8708, 111.4982
382.3530, 102.3120
382.8351, 100.8932
383.3172, 108.4364
383.7993, 114.3779
384.2814, 121.9160
384.7635, 124.3861
385.2457, 114.9702
385.7278, 99.41437
386.2099, 88.59286
386.6920, 88.62189
387.1741, 94.99149
387.6563, 100.0708
388.1384, 104.7034
388.6205, 103.7236
389.1026, 90.15295
389.5847, 73.65665
390.0668, 63.16660
390.5490, 59.61581
391.0311, 60.04626
391.5132, 65.66397
391.9953, 73.66089
392.4774, 77.17731
392.9595, 74.76035
393.4417, 70.09573
393.9238, 65.06796
394.4059, 60.08020
394.8880, 59.24567
395.3701, 67.98596
395.8522, 76.06369
396.3344, 77.08615
396.8165, 72.69882
397.2986, 67.08548
397.7807, 61.92288
398.2628, 57.60992
398.7449, 55.16788
399.2271, 57.66302
399.7092, 57.48160
400.1913, 52.94070
400.6734, 46.89059
401.1555, 41.17966
401.6376, 36.08521
402.1198, 30.78110
402.6019, 23.68277
403.0840, 14.91086
403.5661, 14.99640
404.0482, 33.45444
404.5303, 47.61084
405.0125, 50.34732
405.4946, 45.42340
405.9767, 36.12308
406.4588, 22.14172
406.9409, 9.272919
407.4230, 5.975220
407.9052, 12.13754
408.3873, 18.37759
408.8694, 23.29703
409.3515, 26.54541
409.8336, 27.76181
410.3157, 27.03796
410.7979, 25.24213
411.2800, 20.47321
411.7621, 16.00400
412.2442, 16.30182
412.7263, 21.32037
413.2084, 27.22696
413.6906, 31.71152
414.1727, 35.04059
414.6548, 38.86230
415.1369, 46.43719
415.6190, 50.38223
416.1011, 47.41449
416.5833, 40.79852
417.0654, 33.59161
417.5475, 26.87646
418.0296, 21.45374
418.5117, 18.62592
418.9938, 19.17410
419.4760, 18.48431
419.9581, 13.22372
420.4402, 10.07294
420.9223, 13.94095
421.4044, 20.69641
421.8865, 23.05991
422.3687, 18.72812
422.8508, 10.62491
423.3329, 6.628357
423.8150, 7.286560
424.2971, 8.584106
424.7792, 9.162323
425.2614, 10.26001
425.7435, 13.98959
426.2256, 20.46274
426.7077, 24.68015
427.1898, 21.48938
427.6719, 15.51737
428.1541, 15.55710
428.6362, 22.40710
429.1183, 26.85797
429.6004, 20.77957
430.0825, 6.597229
430.5646, 0.7769780
431.0468, 11.08908
431.5289, 19.50140
432.0110, 20.56924
432.4931, 16.77258
432.9752, 10.19107
433.4573, 1.798431
433.9395, 5.789886
434.4216, 9.224609
434.9037, 8.276794
435.3858, 3.916595
435.8679, 9.194763
436.3500, 20.38144
436.8322, 27.58353
437.3143, 29.76566
437.7964, 23.86438
438.2785, 5.640656
438.7606, 14.89813
439.2427, 15.65729
439.7249, 7.309113
440.2070, 22.02472
440.6891, 14.66599
441.1712, 0.4275510
441.6533, 6.663239
442.1354, 6.216278
442.6176, 3.425781
443.0997, 0.4945370
443.5818, 4.997864
444.0639, 8.140778
444.5460, 10.09869
445.0281, 16.29980
445.5103, 32.75391
445.9924, 55.42422
446.4745, 63.62115
446.9566, 43.80276
447.4387, 29.21249
447.9208, 29.45215
448.4030, 35.75772
448.8851, 39.58823
449.3672, 38.83365
449.8493, 35.21207
450.3314, 29.90820
450.8135, 22.57526
451.2957, 18.58365
451.7778, 20.89590
452.2599, 23.10974
452.7420, 24.05502
453.2241, 23.87579
453.7062, 20.88809
454.1884, 13.44348
454.6705, 7.205872
455.1526, 10.59863
455.6347, 22.83105
456.1168, 33.09784
456.5989, 39.58218
457.0811, 43.44229
457.5632, 45.51086
458.0453, 46.19165
458.5274, 44.68008
459.0095, 38.20612
459.4916, 31.64050
459.9738, 29.87527
460.4559, 31.42703
460.9380, 30.88907
461.4201, 25.44949
461.9022, 17.60831
462.3843, 12.85855
462.8665, 12.39670
463.3486, 13.37030
463.8307, 16.78839
464.3128, 20.69409
464.7949, 24.69101
465.2770, 28.13425
465.7592, 29.37228
466.2413, 25.97955
466.7234, 20.46487
467.2055, 23.11908
467.6876, 38.15668
468.1697, 48.84821
468.6519, 45.27386
469.1340, 37.60037
469.6161, 34.57547
470.0982, 37.15799
470.5803, 41.70059
471.0624, 50.27808
471.5446, 58.13187
472.0267, 54.28717
472.5088, 37.72235
472.9909, 22.41861
473.4730, 18.33722
473.9551, 23.62173
474.4373, 26.52206
474.9194, 23.28580
475.4015, 22.85266
475.8836, 30.43625
476.3657, 40.07022
476.8478, 44.40887
477.3300, 42.22601
477.8121, 38.43066
478.2942, 38.80914
478.7763, 43.56277
479.2584, 42.60773
479.7405, 31.09094
480.2227, 20.70944
480.7048, 13.49451
481.1869, 10.14377
481.6690, 12.54630
482.1511, 21.91800
482.6332, 32.87296
483.1154, 43.56802
483.5975, 52.22571
484.0796, 49.15298
484.5617, 29.69110
485.0438, 10.20401
485.5259, 5.878998
486.0081, 16.12891
486.4902, 23.11130
486.9723, 22.68863
487.4544, 23.17279
487.9365, 31.40338
488.4186, 41.91013
488.9008, 44.63895
489.3829, 36.44461
489.8650, 25.23999
490.3471, 22.90845
490.8292, 32.30945
491.3113, 36.28586
491.7935, 27.37250
492.2756, 20.12057
492.7577, 21.99265
493.2398, 28.66833
493.7219, 32.01022
494.2040, 27.80341
494.6862, 21.44754
495.1683, 19.03671
495.6504, 20.35260
496.1325, 24.48938
496.6146, 32.75000
497.0967, 38.16562
497.5789, 29.69467
498.0610, 7.912567
498.5431, 2.966980
499.0252, 10.56927
499.5073, 23.97305
499.9895, 21.27463
500.4716, 9.431854
500.9537, 3.048920
501.4358, 7.483459
501.9179, 17.13651
502.4001, 23.48972
502.8822, 26.01837
503.3643, 26.96939
503.8464, 25.84915
504.3285, 23.57559
504.8106, 18.00449
505.2928, 11.90320
505.7749, 11.01041
506.2570, 19.30670
506.7391, 29.22281
507.2212, 29.77255
507.7033, 21.97308
508.1855, 17.20044
508.6676, 19.46317
509.1497, 21.97382
509.6318, 15.84439
510.1139, 1.622406
510.5960, 6.907593
511.0782, 6.809570
511.5603, 2.486755
512.0424, 8.681702
512.5245, 21.41110
513.0066, 23.76068
513.4887, 11.47446
513.9708, 4.286896
514.4529, 5.255829
514.9351, 13.49588
515.4172, 26.72672
515.8993, 32.00992
516.3814, 33.87314
516.8635, 33.72073
517.3456, 31.29535
517.8278, 25.33987
518.3099, 13.08139
518.7920, 1.650146
519.2741, 8.7798998E-02
519.7562, 6.403259
520.2383, 9.722626
520.7205, 6.863770
521.2026, 4.272461
521.6847, 9.435303
522.1668, 22.34113
522.6489, 28.89362
523.1310, 22.99789
523.6132, 17.45996
524.0953, 18.61453
524.5774, 23.32532
525.0595, 24.78772
525.5416, 21.65836
526.0237, 18.26993
526.5059, 20.80176
526.9880, 30.05573
527.4701, 34.63940
527.9522, 32.64392
528.4343, 28.56183
528.9164, 20.60770
529.3986, 13.16449
529.8807, 14.08466
530.3628, 27.59930
530.8449, 39.40082
531.3270, 37.04776
531.8091, 25.55927
532.2913, 14.63785
532.7734, 6.017365
533.2555, 8.4229996E-03
533.7376, 3.162018
534.2197, 3.477814
534.7018, 0.5795590
535.1840, 7.316895
535.6661, 16.06552
536.1482, 28.24902
536.6303, 38.78845
537.1124, 40.75949
537.5945, 34.44357
538.0767, 28.30725
538.5588, 30.53540
539.0409, 39.04361
539.5230, 43.23303
540.0051, 42.18518
540.4872, 39.72354
540.9694, 36.24179
541.4515, 33.12106
541.9336, 30.62393
542.4157, 28.75699
542.8978, 29.55576
543.3799, 38.67038
543.8621, 47.64554
544.3442, 43.66821
544.8263, 29.94351
545.3084, 22.56830
545.7905, 31.61435
546.2726, 50.16208
546.7548, 57.64340
547.2369, 46.39648
547.7190, 39.09979
548.2011, 38.83926
548.6832, 40.25418
549.1653, 40.74780
549.6475, 40.42960
550.1296, 40.54846
550.6117, 42.38367
551.0938, 43.94556
551.5759, 41.49396
552.0580, 35.55984
552.5402, 31.47336
553.0223, 31.12347
553.5044, 31.71628
553.9865, 30.18097
554.4686, 26.25854
554.9507, 22.33426
555.4329, 16.84039
555.9150, 13.05444
556.3971, 12.30801
556.8792, 14.31000
557.3613, 18.91928
557.8434, 25.75037
558.3256, 31.24460
558.8077, 30.09366
559.2898, 22.22665
559.7719, 15.94916
560.2540, 10.53540
560.7361, 8.128967
561.2183, 12.80469
561.7004, 20.03143
562.1825, 23.83456
562.6646, 22.95227
563.1467, 20.60022
563.6288, 6.011841
564.1110, 18.10031
564.5931, 24.81357
565.0752, 26.44040
565.5573, 7.747650
566.0394, 15.29251
566.5215, 12.32205
567.0037, 8.919769
567.4858, 20.15643
567.9679, 4.393799
568.4500, 14.96246
568.9321, 14.86154
569.4142, 19.91772
569.8964, 14.55057
570.3785, 12.45117
570.8606, 20.93472
571.3427, 23.55817
571.8248, 16.70465
572.3069, 16.94012
572.7891, 23.14001
573.2712, 30.89218
573.7533, 35.07108
574.2354, 27.41534
574.7175, 5.306580
575.1996, 4.538452
575.6818, 9.914459
576.1639, 22.15198
576.6460, 20.06818
577.1281, 11.42957
577.6102, 6.716949
578.0923, 8.766937
578.5745, 13.61441
579.0566, 18.31100
579.5387, 22.54388
580.0208, 22.95432
580.5029, 18.80157
580.9850, 12.87616
581.4672, 2.173248
581.9493, 6.993561
582.4315, 1.301666
582.9136, 26.16544
583.3957, 43.10300
583.8778, 30.80597
584.3599, 11.34317
584.8420, 3.095032
585.3242, 5.662048
585.8063, 12.32831
586.2884, 19.90036
586.7705, 26.06866
587.2526, 24.91351
587.7347, 13.88934
588.2169, 5.365509
588.6990, 1.076843
589.1811, 3.063782
589.6632, 3.895233
590.1453, 15.65857
590.6274, 22.62161
591.1096, 21.15210
591.5917, 16.23413
592.0738, 9.797821
592.5559, 2.453156
593.0380, 3.072205
593.5201, 6.320831
594.0023, 6.963959
594.4844, 4.315277
594.9665, 1.093628
595.4486, 4.946075
595.9307, 6.156830
596.4128, 7.477722
596.8950, 11.36273
597.3771, 13.85376
597.8592, 9.763519
598.3413, 0.5846250
598.8234, 5.146545
599.3055, 0.5266720
599.7877, 8.343506
600.2698, 15.06403
600.7519, 19.21344
601.2340, 16.75412
601.7161, 5.120605
602.1982, 6.338623
602.6804, 5.154480
603.1625, 11.12595
603.6446, 19.91803
604.1267, 14.72757
604.6088, 10.53784
605.0909, 13.09692
605.5731, 17.79663
606.0552, 17.70624
606.5373, 12.00247
607.0194, 8.544281
607.5015, 17.95154
607.9836, 34.20795
608.4658, 39.65173
608.9479, 33.80698
609.4300, 27.57736
609.9121, 25.66357
610.3942, 25.73230
610.8763, 22.69556
611.3585, 14.04590
611.8406, 10.56210
612.3227, 16.29794
612.8048, 23.37454
613.2869, 29.27798
613.7690, 33.25623
614.2512, 34.79376
614.7333, 33.69894
615.2154, 29.87585
615.6975, 20.68369
616.1796, 7.592682
616.6617, 1.778961
617.1439, 4.571442
617.6260, 11.87759
618.1081, 25.03296
618.5902, 39.39465
619.0723, 41.98798
619.5544, 26.20944
620.0366, 16.53583
620.5187, 22.64825
621.0008, 31.39127
621.4829, 33.13568
621.9650, 29.36124
622.4471, 25.66611
622.9293, 24.81509
623.4114, 25.63721
623.8935, 27.13318
624.3756, 29.29495
624.8577, 27.83142
625.3398, 20.66812
625.8220, 13.80670
626.3041, 10.37851
626.7862, 10.49698
627.2683, 14.34476
627.7504, 26.51620
628.2325, 33.99988
628.7147, 28.60831
629.1968, 20.69217
629.6789, 19.33957
630.1610, 24.13434
630.6431, 29.70758
631.1252, 33.23294
631.6074, 33.85049
632.0895, 27.54666
632.5716, 13.25027
633.0537, 6.202026
633.5358, 11.26334
634.0179, 20.46405
634.5001, 31.12082
634.9822, 41.53128
635.4643, 46.12338
635.9464, 41.63196
636.4285, 35.61102
636.9106, 28.71463
637.3928, 22.66754
637.8749, 20.04340
638.3570, 20.23251
638.8391, 19.61331
639.3212, 15.45447
639.8033, 9.502167
640.2855, 8.459839
640.7676, 12.75574
641.2497, 15.10004
641.7318, 12.60428
642.2139, 10.77518
642.6960, 15.59058
643.1782, 24.90933
643.6603, 30.84821
644.1424, 31.74649
644.6245, 30.59695
645.1066, 26.07660
645.5887, 21.47314
646.0709, 21.41290
646.5530, 26.50290
647.0351, 30.78018
647.5172, 30.10431
647.9993, 25.61926
648.4814, 15.61664
648.9636, 1.256409
649.4457, 8.107574
649.9278, 2.022797
650.4099, 15.84314
650.8920, 22.98608
651.3741, 24.38263
651.8563, 24.77322
652.3384, 24.59595
652.8205, 23.74771
653.3026, 19.31284
653.7847, 15.55960
654.2668, 19.46970
654.7490, 29.11279
655.2311, 33.77896
655.7132, 24.57483
656.1953, 10.43857
656.6774, 13.75104
657.1595, 35.92853
657.6417, 47.02927
658.1238, 38.94727
658.6059, 25.17432
659.0880, 13.58484
659.5701, 5.246033
660.0522, 4.238556
660.5344, 20.55334
661.0165, 32.21558
661.4986, 30.58633
661.9807, 24.82080
662.4628, 21.97018
662.9449, 22.63046
663.4271, 25.47241
663.9092, 30.75183
664.3913, 34.66269
664.8734, 28.66644
665.3555, 13.84464
665.8376, 2.472931
666.3198, 4.049805
666.8019, 4.018036
667.2840, 6.115448
667.7661, 23.86636
668.2482, 36.08514
668.7303, 45.49588
669.2125, 45.97681
669.6946, 25.27869
670.1767, 5.543365
670.6588, 5.719757
671.1409, 20.23199
671.6230, 30.77579
672.1052, 28.16000
672.5873, 20.28839
673.0694, 14.03000
673.5515, 10.39853
674.0336, 16.48334
674.5157, 34.00171
674.9979, 45.51370
675.4800, 37.65829
675.9621, 16.92920
676.4442, 5.217682
676.9263, 6.999207
677.4084, 10.58691
677.8906, 19.52341
678.3727, 26.60123
678.8548, 26.28705
679.3369, 21.77911
679.8190, 19.88019
680.3011, 23.42517
680.7833, 26.83691
681.2654, 23.10577
681.7475, 17.03369
682.2296, 19.58890
682.7117, 30.29385
683.1938, 38.00165
683.6760, 36.53876
684.1581, 29.01804
684.6402, 21.53558
685.1223, 13.76932
685.6044, 7.103546
686.0865, 0.7329410
686.5687, 4.450287
687.0508, 0.1315610
687.5329, 8.438232
688.0150, 16.29446
688.4971, 22.66150
688.9792, 28.52924
689.4614, 36.86087
689.9435, 43.02097
690.4256, 40.07156
690.9077, 30.93030
691.3898, 24.66495
691.8719, 24.81763
692.3541, 26.43298
692.8362, 21.98898
693.3183, 11.50845
693.8004, 5.569977
694.2825, 4.624268
694.7646, 7.233276
695.2468, 16.39386
695.7289, 26.10715
696.2110, 27.26022
696.6931, 19.28146
697.1752, 13.64038
697.6573, 14.09070
698.1395, 15.19608
698.6216, 12.04654
699.1037, 8.854919
699.5858, 12.83493
700.0679, 24.62006
700.5500, 37.26575
701.0322, 45.67657
701.5143, 49.88214
701.9964, 50.79684
702.4785, 48.34906
702.9606, 35.30209
703.4427, 5.500549
703.9249, 21.60468
704.4070, 24.29294
704.8891, 3.374817
705.3712, 10.73840
705.8533, 12.60254
706.3354, 15.15076
706.8176, 21.34897
707.2997, 27.21210
707.7818, 30.74799
708.2639, 31.69904
708.7460, 32.02838
709.2281, 33.04865
709.7103, 34.16714
710.1924, 33.88629
710.6745, 32.03854
711.1566, 29.45099
711.6387, 26.44174
712.1208, 25.59631
712.6030, 29.20132
713.0851, 34.83109
713.5672, 34.78073
714.0493, 25.82880
714.5314, 22.16464
715.0135, 29.90118
715.4957, 36.08286
715.9778, 31.45886
716.4599, 21.45221
716.9420, 15.08890
717.4241, 13.27484
717.9063, 15.60983
718.3884, 24.77448
718.8705, 35.67444
719.3526, 48.19104
719.8347, 58.28812
720.3168, 55.26447
720.7990, 35.52740
721.2811, 13.84756
721.7632, 10.19013
722.2453, 21.05661
722.7274, 25.59348
723.2095, 22.95859
723.6917, 20.70486
724.1738, 21.07990
724.6559, 24.05807
725.1380, 30.25958
725.6201, 40.50964
726.1022, 46.11719
726.5844, 44.26157
727.0665, 41.79892
727.5486, 39.39923
728.0307, 37.82379
728.5128, 39.13409
728.9949, 42.48508
729.4771, 42.56729
729.9592, 33.34415
730.4413, 23.39490
730.9234, 22.41379
731.4055, 27.37317
731.8876, 32.31546
732.3698, 35.75809
732.8519, 36.20758
733.3340, 32.20911
733.8161, 24.96869
734.2982, 17.50958
734.7803, 8.418427
735.2625, 5.799713
735.7446, 15.25259
736.2267, 24.09903
736.7088, 22.25751
737.1909, 14.38888
737.6730, 10.76089
738.1552, 12.98425
738.6373, 16.58560
739.1194, 22.99448
739.6015, 28.17108
740.0836, 27.43381
740.5657, 24.22495
741.0479, 24.59314
741.5300, 30.32364
742.0121, 37.85345
742.4942, 46.30301
742.9763, 53.20120
743.4584, 50.64264
743.9406, 39.28290
744.4227, 29.09668
744.9048, 24.66965
745.3869, 21.93573
745.8690, 16.64902
746.3511, 8.597534
746.8333, 9.617401
747.3154, 29.07690
747.7975, 41.86557
748.2796, 36.03680
748.7617, 27.58633
749.2438, 30.26199
749.7260, 41.59158
750.2081, 47.28604
750.6902, 37.43784
751.1723, 29.78296
751.6544, 37.96573
752.1365, 50.19504
752.6187, 50.59595
753.1008, 41.15158
753.5829, 37.05023
754.0650, 47.68985
754.5471, 60.44788
755.0292, 51.45966
755.5114, 25.22192
755.9935, 13.72855
756.4756, 20.86682
756.9577, 28.82138
757.4398, 28.74213
757.9219, 23.80856
758.4041, 19.00073
758.8862, 12.56580
759.3683, 13.36282
759.8504, 32.38470
760.3325, 45.46036
760.8146, 42.51785
761.2968, 33.41345
761.7789, 26.48816
762.2610, 23.89798
762.7431, 24.01343
763.2252, 26.40869
763.7073, 27.78296
764.1895, 25.55951
764.6716, 21.00568
765.1537, 15.93445
765.6358, 10.68942
766.1179, 4.416962
766.6000, 4.326843
767.0822, 12.04529
767.5643, 10.02618
768.0464, 1.093811
768.5285, 11.00555
769.0106, 18.40298
769.4927, 24.19672
769.9749, 28.73730
770.4570, 32.22137
770.9391, 35.15079
771.4212, 37.43860
771.9033, 39.34976
772.3854, 41.32559
772.8676, 42.43979
773.3497, 41.65891
773.8318, 40.23758
774.3139, 40.30856
774.7960, 42.07504
775.2781, 41.84335
775.7603, 34.10141
776.2424, 27.64337
776.7245, 33.15598
777.2066, 42.95563
777.6887, 42.57193
778.1708, 30.86649
778.6530, 19.87808
779.1351, 18.50745
779.6172, 23.97119
780.0993, 34.32339
780.5814, 48.23700
781.0635, 45.80664
781.5457, 21.26648
782.0278, 1.840820
782.5099, 7.031342
782.9920, 27.88770
783.4741, 40.75446
783.9562, 44.93317
784.4384, 42.70645
784.9205, 23.64429
785.4026, 10.69366
785.8847, 17.38730
786.3668, 31.48215
786.8489, 37.13470
787.3311, 32.51294
787.8132, 29.93484
788.2953, 36.78888
788.7774, 43.38840
789.2595, 41.56104
789.7416, 36.91165
790.2238, 39.25140
790.7059, 48.27142
791.1880, 53.47757
791.6701, 46.72961
792.1522, 34.60556
792.6343, 27.00806
793.1165, 23.19104
793.5986, 19.98114
794.0807, 16.96539
794.5628, 16.15030
795.0449, 19.18130
795.5270, 23.88028
796.0092, 25.79230
796.4913, 25.18701
796.9734, 20.00153
797.4555, 6.689697
797.9376, 4.723969
798.4197, 10.91095
798.9019, 12.74191
799.3840, 10.57114
799.8661, 4.302063
800.3482, 1.263916
800.8303, 7.448792
801.3124, 10.37521
801.7946, 2.855042
802.2767, 4.389648
802.7588, 2.733185
803.2409, 20.68857
803.7230, 31.70767
804.2051, 25.20175
804.6873, 16.01062
805.1694, 16.18207
805.6515, 21.53711
806.1336, 29.43927
806.6157, 38.42813
807.0978, 40.87988
807.5800, 33.04999
808.0621, 23.17444
808.5442, 24.31601
809.0263, 35.42789
809.5084, 41.88074
809.9905, 43.44373
810.4727, 40.88022
810.9548, 32.22742
811.4369, 24.45264
811.9190, 26.65970
812.4011, 37.88400
812.8832, 40.16153
813.3654, 21.99155
813.8475, 12.05267
814.3296, 19.44852
814.8117, 29.31445
815.2938, 31.87619
815.7759, 30.73349
816.2581, 34.23700
816.7402, 46.44592
817.2223, 53.66412
817.7044, 44.84113
818.1865, 33.61841
818.6686, 30.26233
819.1508, 32.92563
819.6329, 38.33035
820.1150, 45.02698
820.5971, 50.48688
821.0792, 53.67865
821.5613, 53.41711
822.0435, 43.13361
822.5256, 27.17709
823.0077, 25.35342
823.4898, 40.72821
823.9719, 54.17661
824.4540, 51.46222
824.9362, 38.23633
825.4183, 29.46225
825.9004, 26.08487
826.3825, 24.06760
826.8646, 23.00409
827.3467, 23.94351
827.8289, 27.83673
828.3110, 33.62146
828.7931, 41.16626
829.2752, 52.11569
829.7573, 53.30936
830.2394, 32.70837
830.7216, 18.53949
831.2037, 21.41171
831.6858, 29.35788
832.1679, 34.26382
832.6500, 35.36176
833.1321, 32.81497
833.6143, 23.39865
834.0964, 17.51660
834.5785, 25.35211
835.0606, 35.46112
835.5427, 35.96664
836.0248, 29.29214
836.5070, 21.57004
836.9891, 15.29709
837.4712, 14.26501
837.9533, 28.52420
838.4354, 47.52737
838.9175, 46.92020
839.3997, 31.40475
839.8818, 20.80716
840.3639, 19.97806
840.8460, 23.60287
841.3281, 27.90921
841.8102, 32.18207
842.2924, 34.34790
842.7745, 34.34525
843.2566, 32.11926
843.7387, 26.50555
844.2208, 22.47086
844.7029, 23.18103
845.1851, 26.18155
845.6672, 27.24142
846.1493, 25.99951
846.6314, 24.75137
847.1135, 20.91080
847.5956, 20.48584
848.0778, 28.22058
848.5599, 36.89108
849.0420, 40.65024
849.5241, 40.01480
850.0062, 38.56915
850.4883, 37.86115
850.9705, 34.97351
851.4526, 25.56329
851.9347, 16.54700
852.4168, 13.26233
852.8989, 14.77762
853.3810, 18.92282
853.8632, 24.91568
854.3453, 31.35846
854.8274, 40.89767
855.3095, 47.35654
855.7916, 37.11853
856.2737, 18.42612
856.7559, 12.65295
857.2380, 22.38187
857.7201, 32.64264
858.2022, 32.48331
858.6843, 27.17776
859.1664, 27.64499
859.6486, 33.01996
860.1307, 37.15784
860.6128, 40.40814
861.0949, 33.80914
861.5770, 11.28244
862.0591, 13.15607
862.5413, 19.39999
863.0234, 7.635742
863.5055, 4.616425
863.9876, 18.55273
864.4697, 29.90475
864.9518, 38.89120
865.4340, 43.53714
865.9161, 40.80368
866.3982, 32.58539
866.8803, 25.83093
867.3624, 19.37332
867.8445, 16.69119
868.3267, 19.87225
868.8088, 24.58975
869.2909, 33.83713
869.7730, 40.81418
870.2551, 34.90970
870.7372, 16.19284
871.2194, 0.8756710
871.7015, 9.394806
872.1836, 9.988037
872.6657, 12.87955
873.1478, 38.06549
873.6299, 41.03311
874.1121, 26.63919
874.5942, 15.31360
875.0763, 15.50720
875.5584, 18.15433
876.0405, 13.18433
876.5226, 7.490631
877.0048, 14.18341
877.4869, 28.16437
877.9690, 34.10330
878.4511, 28.84546
878.9332, 22.45670
879.4153, 23.80032
879.8975, 27.94553
880.3796, 21.91144
880.8617, 8.264008
881.3438, 5.462555
881.8259, 15.44434
882.3080, 23.25958
882.7902, 20.98053
883.2723, 15.45166
883.7544, 18.02798
884.2365, 28.48779
884.7186, 30.29108
885.2007, 20.67194
885.6829, 14.63101
886.1650, 17.61591
886.6471, 20.61337
887.1292, 14.20325
887.6113, 2.164703
888.0934, 8.0565996E-02
888.5756, 13.87042
889.0577, 23.95920
889.5398, 31.27780
890.0219, 33.34470
890.5040, 24.50739
890.9861, 12.93192
891.4683, 8.332336
891.9504, 10.79483
892.4325, 12.00345
892.9146, 9.160309
893.3967, 7.204254
893.8788, 7.347443
894.3610, 9.040527
894.8431, 12.98065
895.3252, 17.55151
895.8073, 18.46628
896.2894, 13.96222
896.7715, 12.32291
897.2537, 23.43692
897.7358, 32.98178
898.2179, 25.65985
898.7000, 12.31140
899.1821, 11.08441
899.6642, 21.63760
900.1464, 28.00208
900.6285, 19.90543
901.1106, 8.994781
901.5927, 6.923004
902.0748, 10.02554
902.5569, 12.47125
903.0391, 14.51651
903.5212, 19.62363
904.0033, 28.63879
904.4854, 36.75299
904.9675, 39.02249
905.4496, 37.57108
905.9318, 38.59137
906.4139, 40.57980
906.8960, 32.87921
907.3781, 14.81277
907.8602, 4.354889
908.3423, 12.60065
908.8245, 28.28568
909.3066, 31.75064
909.7887, 23.82227
910.2708, 21.90765
910.7529, 27.09723
911.2351, 29.98013
911.7172, 27.70483
912.1993, 23.69229
912.6815, 20.66098
913.1636, 18.13257
913.6457, 13.95029
914.1278, 6.768066
914.6099, 3.236115
915.0920, 5.473663
915.5742, 7.094055
916.0563, 5.134888
916.5384, 1.720337
917.0205, 1.171265
917.5026, 3.532532
917.9847, 2.412720
918.4669, 7.153625
918.9490, 12.40179
919.4311, 8.843414
919.9132, 3.503296
920.3953, 0.5563960
920.8774, 0.2917480
921.3596, 1.051758
921.8417, 2.279419
922.3238, 3.735474
922.8059, 4.193634
923.2880, 6.417389
923.7701, 14.77545
924.2523, 22.37872
924.7344, 21.76694
925.2165, 15.35132
925.6986, 11.60666
926.1807, 13.26855
926.6628, 15.42572
927.1450, 13.70422
927.6271, 14.44815
928.1092, 27.50500
928.5913, 42.46204
929.0734, 43.51572
929.5555, 30.19156
930.0377, 17.40030
930.5198, 11.98068
931.0019, 10.44974
931.4840, 10.82547
931.9661, 13.94543
932.4482, 25.90759
932.9304, 40.10730
933.4125, 39.83990
933.8946, 21.96835
934.3767, 4.704926
934.8588, 2.029694
935.3409, 6.887695
935.8231, 15.39792
936.3052, 23.19629
936.7873, 18.62445
937.2694, 4.523987
937.7515, 2.760498
938.2336, 4.026764
938.7158, 14.75055
939.1979, 18.10693
939.6800, 17.27731
940.1621, 20.22736
940.6442, 25.24573
941.1263, 25.60593
941.6085, 20.40598
942.0906, 13.97672
942.5727, 8.927460
943.0548, 4.857605
943.5369, 0.5135190
944.0190, 3.500244
944.5012, 3.241608
944.9833, 0.9721680
945.4654, 3.783234
945.9475, 3.666718
946.4296, 1.943726
946.9117, 1.061859
947.3939, 2.875641
947.8760, 6.064148
948.3581, 25.44772
948.8402, 31.72314
949.3223, 22.26663
949.8044, 15.25119
950.2866, 18.40027
950.7687, 21.91415
951.2508, 13.11789
951.7329, 3.620575
952.2150, 0.5143740
952.6971, 27.57230
953.1793, 40.35742
953.6614, 30.35818
954.1435, 17.82153
954.6256, 11.54697
955.1077, 9.591858
955.5898, 9.533752
956.0720, 11.34799
956.5541, 13.08884
957.0362, 14.49646
957.5183, 16.77478
958.0004, 20.80569
958.4825, 24.28101
958.9647, 25.83817
959.4468, 25.98090
959.9289, 25.89645
960.4110, 26.00128
960.8931, 22.37643
961.3752, 9.996490
961.8574, 3.882782
962.3395, 11.51904
962.8216, 20.65192
963.3037, 23.12589
963.7858, 18.71960
964.2679, 13.25409
964.7501, 4.623260
965.2322, 2.154846
965.7143, 13.37103
966.1964, 21.01038
966.6785, 18.58466
967.1606, 12.53979
967.6428, 4.954010
968.1249, 2.575012
968.6070, 1.823303
969.0891, 13.47333
969.5712, 23.03613
970.0533, 23.94928
970.5355, 21.38635
971.0176, 13.79590
971.4997, 6.031830
971.9818, 2.439697
972.4639, 2.886200
972.9460, 5.430298
973.4282, 8.746338
973.9103, 16.29553
974.3924, 37.12906
974.8745, 52.21332
975.3566, 47.25299
975.8387, 35.66641
976.3209, 31.50269
976.8030, 35.66470
977.2851, 45.79877
977.7672, 75.19550
978.2493, 88.80316
978.7314, 62.03412
979.2136, 35.65280
979.6957, 35.62640
980.1778, 48.81348
980.6599, 57.92090
981.1420, 60.66473
981.6241, 58.26022
982.1063, 45.98862
982.5884, 35.68069
983.0705, 28.52408
983.5526, 26.87170
984.0347, 37.35406
984.5168, 52.07614
984.9990, 57.66202
985.4811, 52.52548
985.9632, 49.43283
986.4453, 55.19601
986.9274, 60.23062
987.4095, 61.16568
987.8917, 59.59750
988.3738, 57.87131
988.8559, 54.15997
989.3380, 42.59842
989.8201, 22.31372
990.3022, 8.741791
990.7844, 12.07721
991.2665, 17.78076
991.7486, 22.05688
992.2307, 23.42648
992.7128, 18.18097
993.1949, 9.916565
993.6771, 4.673767
994.1592, 3.765991
994.6413, 9.161255
995.1234, 28.96890
995.6055, 46.18414
996.0876, 51.73871
996.5698, 51.34152
997.0519, 50.22971
997.5340, 47.82080
998.0161, 39.50470
998.4982, 23.70209
998.9803, 14.31152
999.4625, 22.11349
999.9446, 32.57825
1000.427, 40.71658
1000.909, 45.19699
1001.391, 41.37137
1001.873, 33.65967
1002.355, 33.54901
1002.837, 44.66504
1003.319, 54.12616
1003.802, 54.09225
1004.284, 53.47839
1004.766, 55.30057
1005.248, 60.60825
1005.730, 78.05087
1006.212, 98.37778
1006.694, 97.34470
1007.176, 66.81485
1007.658, 37.76367
1008.141, 21.33740
1008.623, 13.25977
1009.105, 15.17526
1009.587, 21.11487
1010.069, 25.85727
1010.551, 29.75949
1011.033, 37.03406
1011.515, 49.69702
1011.997, 56.02252
1012.480, 44.63565
1012.962, 33.40289
1013.444, 32.78278
1013.926, 36.16696
1014.408, 37.44312
1014.890, 36.77780
1015.372, 36.45517
1015.854, 37.08752
1016.337, 37.40411
1016.819, 36.77087
1017.301, 35.87994
1017.783, 35.32968
1018.265, 34.46741
1018.747, 35.09833
1019.229, 34.37793
1019.711, 22.80508
1020.193, 4.088226
1020.676, 18.68710
1021.158, 1.994568
1021.640, 19.45239
1022.122, 13.40338
1022.604, 7.3199999E-04
1023.086, 9.103363
1023.568, 13.29312
1024.050, 14.23041
1024.532, 12.15362
1025.015, 7.289337
1025.497, 4.772736
1025.979, 13.50226
1026.461, 12.93912
1026.943, 10.35684
1027.425, 10.34915
1027.907, 12.73984
1028.389, 15.79379
1028.872, 18.90726
1029.354, 26.17136
1029.836, 47.72791
1030.318, 60.77734
1030.800, 53.94910
1031.282, 41.09998
1031.764, 26.06558
1032.246, 14.17722
1032.729, 17.17743
1033.211, 38.07855
1033.693, 52.66428
1034.175, 53.16931
1034.657, 51.30283
1035.139, 50.13577
1035.621, 48.63174
1036.103, 44.80200
1036.585, 40.79684
1037.068, 41.06729
1037.550, 46.41611
1038.032, 48.29102
1038.514, 42.67557
1038.996, 39.26056
1039.478, 40.93631
1039.960, 42.73285
1040.442, 42.42163
1040.924, 40.61728
1041.407, 37.84827
1041.889, 34.07178
1042.371, 31.47556
1042.853, 31.93967
1043.335, 29.51099
1043.817, 19.65482
1044.299, 13.79678
1044.781, 18.90649
1045.264, 29.50726
1045.746, 39.89853
1046.228, 49.70068
1046.710, 53.59775
1047.192, 49.94443
1047.674, 44.97818
1048.156, 38.27707
1048.638, 31.87619
1049.120, 24.77963
1049.603, 22.37372
1050.085, 32.89542
1050.567, 52.33728
1051.049, 58.72025
1051.531, 48.72931
1052.013, 44.74597
1052.495, 49.46439
1052.977, 51.99854
1053.459, 48.59122
1053.942, 41.33109
1054.424, 30.77350
1054.906, 20.25345
1055.388, 21.43768
1055.870, 34.66467
1056.352, 43.28165
1056.834, 46.60052
1057.316, 48.89203
1057.799, 51.19043
1058.281, 55.80493
1058.763, 65.58701
1059.245, 74.78217
1059.727, 69.16534
1060.209, 51.62701
1060.691, 41.14542
1061.173, 37.54495
1061.656, 38.64490
1062.138, 43.35013
1062.620, 42.61319
1063.102, 30.22430
1063.584, 16.69583
1064.066, 20.57971
1064.548, 34.05508
1065.030, 34.06113
1065.512, 25.15594
1065.995, 23.65768
1066.477, 30.63022
1066.959, 35.80194
1067.441, 34.40472
1067.923, 32.18304
1068.405, 34.64795
1068.887, 40.37912
1069.369, 49.93683
1069.851, 59.88635
1070.334, 64.60110
1070.816, 63.46301
1071.298, 55.34653
1071.780, 40.66425
1072.262, 28.14209
1072.744, 22.88785
1073.226, 24.21622
1073.708, 38.28403
1074.191, 53.10147
1074.673, 53.77905
1075.155, 44.46387
1075.637, 33.49399
1076.119, 23.59747
1076.601, 18.32202
1077.083, 21.01117
1077.565, 25.17612
1078.047, 29.41718
1078.530, 30.72449
1079.012, 24.70798
1079.494, 17.68335
1079.976, 21.72873
1080.458, 34.57440
1080.940, 39.48111
1081.422, 28.80524
1081.904, 21.50659
1082.387, 26.23273
1082.869, 30.63956
1083.351, 27.78467
1083.833, 23.71951
1084.315, 24.45416
1084.797, 29.04352
1085.279, 34.75317
1085.761, 43.73679
1086.244, 45.40527
1086.726, 33.76840
1087.208, 24.15421
1087.690, 16.88214
1088.172, 16.17361
1088.654, 30.29816
1089.136, 47.49823
1089.618, 45.76706
1090.100, 24.76691
1090.583, 5.964081
1091.065, 14.24594
1091.547, 15.79480
1092.029, 10.12277
1092.511, 30.88977
1092.993, 30.74115
1093.475, 20.89056
1093.957, 13.03079
1094.439, 8.227905
1094.922, 12.29623
1095.404, 24.98923
1095.886, 34.91409
1096.368, 41.34290
1096.850, 45.20670
1097.332, 46.80402
1097.814, 46.22110
1098.296, 43.45154
1098.779, 38.91162
1099.261, 33.60934
1099.743, 27.09921
1100.225, 15.56134
1100.707, 1.754456
1101.189, 3.911224
1101.671, 0.6149600
1102.153, 4.273773
1102.635, 7.045959
1103.118, 8.157684
1103.600, 4.581818
1104.082, 2.777985
1104.564, 15.08755
1105.046, 31.86633
1105.528, 36.97171
1106.010, 33.11603
1106.492, 33.54547
1106.974, 41.57663
1107.457, 45.44769
1107.939, 34.66599
1108.421, 23.28217
1108.903, 18.42807
1109.385, 16.82764
1109.867, 18.47876
1110.349, 20.12357
1110.831, 15.82022
1111.314, 6.343872
1111.796, 0.9410100
1112.278, 1.055542
1112.760, 6.351379
1113.242, 38.01071
1113.724, 61.43622
1114.206, 60.80438
1114.688, 50.37286
1115.171, 42.43106
1115.653, 35.78290
1116.135, 26.68042
1116.617, 13.65408
1117.099, 7.257294
1117.581, 10.69485
1118.063, 11.89285
1118.545, 7.914246
1119.027, 3.546234
1119.510, 0.4145810
1119.992, 1.196106
1120.474, 11.43106
1120.956, 28.02713
1121.438, 31.80276
1121.920, 23.09811
1122.402, 14.44034
1122.884, 7.337830
1123.366, 12.69580
1123.849, 33.97000
1124.331, 49.89981
1124.813, 40.72879
1125.295, 21.53342
1125.777, 20.30908
1126.259, 29.40314
1126.741, 31.40894
1127.223, 28.59464
1127.706, 29.00302
1128.188, 33.42392
1128.670, 39.00208
1129.152, 44.65894
1129.634, 45.90350
1130.116, 36.34161
1130.598, 24.09265
1131.080, 12.45227
1131.563, 4.755524
1132.045, 6.496674
1132.527, 14.12119
1133.009, 21.29724
1133.491, 26.65289
1133.973, 29.09683
1134.455, 29.20795
1134.937, 24.92484
1135.419, 6.156403
1135.901, 5.565460
1136.384, 6.381256
1136.866, 25.66940
1137.348, 37.78659
1137.830, 42.62152
1138.312, 38.82852
1138.794, 21.74796
1139.276, 16.29068
1139.758, 28.33325
1140.241, 35.03159
1140.723, 30.04498
1141.205, 24.66064
1141.687, 24.95508
1142.169, 29.79611
1142.651, 39.53857
1143.133, 51.03122
1143.615, 45.39047
1144.098, 24.66794
1144.580, 11.62372
1145.062, 8.030579
1145.544, 13.78101
1146.026, 27.59711
1146.508, 33.55206
1146.990, 17.89240
1147.472, 1.451599
1147.954, 2.119293
1148.437, 15.58896
1148.919, 19.46643
1149.401, 17.19302
1149.883, 12.12173
1150.365, 6.328339
1150.847, 9.390076
1151.329, 24.52838
1151.811, 34.68341
1152.293, 27.16382
1152.776, 16.71207
1153.258, 6.739899
1153.740, 0.8608400
1154.222, 4.997772
1154.704, 12.86798
1155.186, 14.71066
1155.668, 10.87875
1156.150, 10.56674
1156.633, 18.59241
1157.115, 20.85620
1157.597, 10.15237
1158.079, 8.014313
1158.561, 25.09470
1159.043, 41.46033
1159.525, 44.16312
1160.007, 37.20813
1160.490, 26.22519
1160.972, 12.46970
1161.454, 9.897003
1161.936, 18.28891
1162.418, 22.62820
1162.900, 21.52231
1163.382, 20.23422
1163.864, 20.67963
1164.346, 22.16455
1164.828, 23.97064
1165.311, 27.00821
1165.793, 35.03305
1166.275, 43.48837
1166.757, 44.16089
1167.239, 39.55151
1167.721, 33.15945
1168.203, 26.99973
1168.685, 25.44455
1169.168, 30.07721
1169.650, 33.04825
1170.132, 31.60806
1170.614, 25.84155
1171.096, 6.093903
1171.578, 7.605042
1172.060, 7.687531
1172.542, 31.62964
1173.025, 33.36908
1173.507, 15.70645
1173.989, 10.35712
1174.471, 23.46411
1174.953, 32.24384
1175.435, 37.20071
1175.917, 35.40601
1176.399, 22.74158
1176.881, 14.97577
1177.364, 23.36035
1177.846, 36.17392
1178.328, 35.52808
1178.810, 24.41934
1179.292, 12.78003
1179.774, 1.594696
1180.256, 1.069336
1180.738, 3.299133
1181.220, 2.273163
1181.703, 6.247955
1182.185, 9.522156
1182.667, 1.274933
1183.149, 13.68710
1183.631, 15.91461
1184.113, 13.64786
1184.595, 9.162994
1185.077, 6.279877
1185.560, 10.90964
1186.042, 20.48849
1186.524, 25.54810
1187.006, 24.88239
1187.488, 30.51184
1187.970, 59.15738
1188.452, 72.30783
1188.934, 53.40720
1189.417, 32.95990
1189.899, 17.68423
1190.381, 9.046539
1190.863, 8.896515
1191.345, 15.72311
1191.827, 28.61844
1192.309, 47.26868
1192.791, 46.72302
1193.273, 26.48233
1193.755, 20.82837
1194.238, 33.32233
1194.720, 38.80023
1195.202, 28.08157
1195.684, 17.31488
1196.166, 20.63562
1196.648, 28.01944
1197.130, 24.07932
1197.612, 16.56079
1198.095, 18.62396
1198.577, 24.41321
1199.059, 21.03238
1199.541, 11.72647
1200.023, 11.92944
1200.505, 25.79932
1200.987, 33.64365
1201.469, 22.68909
1201.952, 12.79742
1202.434, 9.560822
1202.916, 8.579407
1203.398, 8.560516
1203.880, 9.024841
1204.362, 6.640137
1204.844, 2.735565
1205.326, 1.207214
1205.808, 2.349731
1206.291, 0.4966130
1206.773, 5.066254
1207.255, 4.076294
1207.737, 4.767975
1208.219, 14.94537
1208.701, 21.22946
1209.183, 27.03940
1209.665, 28.81439
1210.147, 29.00058
1210.630, 31.68478
1211.112, 35.00275
1211.594, 36.73502
1212.076, 36.49918
1212.558, 32.52826
1213.040, 26.38074
1213.522, 22.73593
1214.004, 22.84943
1214.487, 23.29227
1214.969, 21.41653
1215.451, 21.81717
1215.933, 28.75049
1216.415, 34.39410
1216.897, 34.75473
1217.379, 32.68759
1217.861, 29.65320
1218.344, 26.75485
1218.826, 26.92520
1219.308, 30.18045
1219.790, 32.09720
1220.272, 32.18680
1220.754, 37.50180
1221.236, 45.43893
1221.718, 44.89178
1222.200, 27.36353
1222.682, 12.88684
1223.165, 17.80917
1223.647, 28.87161
1224.129, 31.64319
1224.611, 29.65808
1225.093, 24.78668
1225.575, 19.76276
1226.057, 19.64716
1226.539, 21.83990
1227.022, 18.96310
1227.504, 9.976135
1227.986, 2.920898
1228.468, 0.9127200
1228.950, 1.316833
1229.432, 3.456238
1229.914, 8.895203
1230.396, 14.14795
1230.879, 19.39401
1231.361, 25.34650
1231.843, 26.60843
1232.325, 21.11389
1232.807, 15.36188
1233.289, 11.80438
1233.771, 10.75174
1234.253, 6.400391
1234.735, 0.0000000E+00
##END=



