##NAMES=Fergusonite-(Ce)
##RRUFFID=R110050
##IDEAL CHEMISTRY=Ce^3+^Nb^5+^O_4_&#183;0.3H_2_O
##LOCALITY=Mount Malosa, Zomba District, Malawi
##OWNER=RRUFF
##SOURCE=Donald M Doell
##DESCRIPTION=Brown prismatic crystals on microcline, associated with zircon
##STATUS=The identification of this mineral has been confirmed only by single crystal X-ray diffraction.
##URL=rruff.info/R110050
194.4631, 3599.269
194.9452, 3645.972
195.4273, 3692.255
195.9094, 3738.078
196.3915, 3778.725
196.8737, 3813.339
197.3558, 3842.356
197.8379, 3867.073
198.3200, 3887.204
198.8021, 3904.711
199.2842, 3921.391
199.7664, 3937.566
200.2485, 3950.811
200.7306, 3960.008
201.2127, 3966.115
201.6948, 3974.867
202.1769, 3987.285
202.6591, 3999.536
203.1412, 4007.101
203.6233, 4009.291
204.1054, 4012.808
204.5875, 4019.133
205.0696, 4028.049
205.5518, 4037.643
206.0339, 4047.326
206.5160, 4058.766
206.9981, 4074.396
207.4802, 4094.954
207.9623, 4115.161
208.4445, 4133.563
208.9266, 4150.303
209.4087, 4167.306
209.8908, 4184.197
210.3729, 4202.060
210.8550, 4223.045
211.3372, 4248.569
211.8193, 4271.348
212.3014, 4288.562
212.7835, 4300.055
213.2656, 4315.173
213.7477, 4335.247
214.2299, 4357.072
214.7120, 4377.130
215.1941, 4396.171
215.6762, 4411.705
216.1583, 4422.464
216.6404, 4428.043
217.1226, 4434.716
217.6047, 4443.638
218.0868, 4452.242
218.5689, 4457.168
219.0510, 4456.794
219.5331, 4456.714
220.0153, 4458.753
220.4974, 4463.325
220.9795, 4465.887
221.4616, 4465.662
221.9437, 4464.447
222.4258, 4464.764
222.9080, 4468.050
223.3901, 4469.817
223.8722, 4467.890
224.3543, 4461.311
224.8364, 4459.255
225.3185, 4463.341
225.8007, 4470.277
226.2828, 4476.061
226.7649, 4480.067
227.2470, 4483.749
227.7291, 4487.354
228.2112, 4490.909
228.6934, 4493.996
229.1755, 4496.661
229.6576, 4498.757
230.1397, 4500.073
230.6218, 4500.584
231.1039, 4500.443
231.5861, 4499.383
232.0682, 4497.101
232.5503, 4496.634
233.0324, 4498.729
233.5145, 4502.208
233.9966, 4505.583
234.4788, 4508.453
234.9609, 4512.164
235.4430, 4517.712
235.9251, 4525.788
236.4072, 4530.822
236.8893, 4531.304
237.3715, 4529.937
237.8536, 4530.106
238.3357, 4532.669
238.8178, 4535.042
239.2999, 4536.201
239.7820, 4535.695
240.2642, 4536.968
240.7463, 4541.491
241.2284, 4546.369
241.7105, 4548.017
242.1926, 4545.267
242.6747, 4541.182
243.1569, 4536.049
243.6390, 4529.551
244.1211, 4524.212
244.6032, 4520.275
245.0853, 4517.205
245.5674, 4514.600
246.0496, 4513.380
246.5317, 4511.024
247.0138, 4506.806
247.4959, 4500.599
247.9780, 4494.354
248.4601, 4487.353
248.9423, 4481.137
249.4244, 4477.620
249.9065, 4478.189
250.3886, 4478.970
250.8707, 4479.221
251.3528, 4478.952
251.8350, 4478.712
252.3171, 4478.595
252.7992, 4478.396
253.2813, 4477.868
253.7634, 4476.876
254.2455, 4475.680
254.7277, 4474.104
255.2098, 4472.067
255.6919, 4470.633
256.1740, 4469.859
256.6561, 4469.438
257.1382, 4468.985
257.6204, 4468.067
258.1025, 4468.101
258.5846, 4469.821
259.0667, 4473.087
259.5488, 4474.770
260.0309, 4474.555
260.5131, 4473.248
260.9952, 4471.515
261.4773, 4469.371
261.9594, 4466.854
262.4415, 4463.675
262.9236, 4460.037
263.4058, 4458.076
263.8879, 4458.417
264.3700, 4459.456
264.8521, 4459.767
265.3342, 4458.842
265.8163, 4458.987
266.2985, 4460.735
266.7806, 4463.819
267.2627, 4467.139
267.7448, 4471.254
268.2269, 4474.298
268.7090, 4474.240
269.1912, 4469.896
269.6733, 4467.331
270.1554, 4467.456
270.6375, 4469.768
271.1196, 4472.641
271.6017, 4476.339
272.0839, 4479.733
272.5660, 4481.706
273.0481, 4481.931
273.5302, 4482.990
274.0123, 4485.271
274.4944, 4488.513
274.9766, 4492.112
275.4587, 4496.211
275.9408, 4500.266
276.4229, 4503.848
276.9050, 4506.969
277.3871, 4510.200
277.8693, 4513.799
278.3514, 4517.356
278.8335, 4519.643
279.3156, 4520.439
279.7977, 4521.457
280.2798, 4523.782
280.7620, 4527.390
281.2441, 4530.704
281.7262, 4533.428
282.2083, 4536.123
282.6904, 4540.100
283.1725, 4545.438
283.6547, 4550.386
284.1368, 4553.709
284.6189, 4555.557
285.1010, 4557.975
285.5831, 4560.800
286.0652, 4564.739
286.5474, 4571.923
287.0295, 4582.258
287.5116, 4591.075
287.9937, 4594.967
288.4758, 4595.142
288.9579, 4599.049
289.4401, 4607.375
289.9222, 4616.166
290.4043, 4619.355
290.8864, 4617.802
291.3685, 4618.408
291.8506, 4624.806
292.3328, 4635.197
292.8149, 4644.667
293.2970, 4653.317
293.7791, 4660.381
294.2612, 4663.633
294.7433, 4664.162
295.2255, 4666.292
295.7076, 4671.837
296.1897, 4679.635
296.6718, 4687.778
297.1539, 4696.212
297.6360, 4704.269
298.1182, 4711.397
298.6003, 4717.644
299.0824, 4723.216
299.5645, 4727.692
300.0466, 4732.053
300.5287, 4737.598
301.0109, 4744.267
301.4930, 4751.878
301.9751, 4760.416
302.4572, 4769.772
302.9393, 4779.779
303.4214, 4791.090
303.9036, 4802.079
304.3857, 4811.221
304.8678, 4818.643
305.3499, 4824.902
305.8320, 4828.096
306.3141, 4831.161
306.7963, 4837.871
307.2784, 4849.640
307.7605, 4862.968
308.2426, 4875.313
308.7247, 4886.971
309.2068, 4898.681
309.6890, 4909.731
310.1711, 4921.500
310.6532, 4935.624
311.1353, 4952.712
311.6174, 4969.107
312.0995, 4980.892
312.5817, 4990.375
313.0638, 5001.482
313.5459, 5017.361
314.0280, 5034.315
314.5101, 5050.782
314.9922, 5066.720
315.4744, 5080.792
315.9565, 5090.440
316.4386, 5098.574
316.9207, 5108.367
317.4028, 5122.931
317.8849, 5137.714
318.3671, 5150.661
318.8492, 5161.983
319.3313, 5173.728
319.8134, 5185.982
320.2955, 5199.315
320.7776, 5214.015
321.2598, 5231.102
321.7419, 5248.553
322.2240, 5265.514
322.7061, 5282.198
323.1882, 5299.961
323.6703, 5319.711
324.1525, 5340.138
324.6346, 5360.288
325.1167, 5379.428
325.5988, 5399.360
326.0809, 5422.318
326.5630, 5446.423
327.0452, 5466.555
327.5273, 5476.305
328.0094, 5487.177
328.4915, 5503.577
328.9736, 5528.357
329.4557, 5552.024
329.9379, 5574.409
330.4200, 5595.815
330.9021, 5616.196
331.3842, 5633.239
331.8663, 5652.412
332.3484, 5675.972
332.8306, 5704.341
333.3127, 5731.193
333.7948, 5756.453
334.2769, 5780.276
334.7590, 5802.144
335.2411, 5820.630
335.7233, 5840.924
336.2054, 5864.555
336.6875, 5891.486
337.1696, 5916.521
337.6517, 5938.505
338.1339, 5960.948
338.6160, 5986.921
339.0981, 6017.546
339.5802, 6047.029
340.0623, 6074.080
340.5444, 6099.564
341.0266, 6124.180
341.5087, 6147.633
341.9908, 6172.721
342.4729, 6203.450
342.9550, 6239.419
343.4371, 6269.188
343.9193, 6289.776
344.4014, 6306.986
344.8835, 6330.826
345.3656, 6361.261
345.8477, 6393.763
346.3298, 6428.297
346.8120, 6463.787
347.2941, 6492.748
347.7762, 6514.514
348.2583, 6534.462
348.7404, 6558.702
349.2225, 6586.719
349.7047, 6616.205
350.1868, 6647.729
350.6689, 6679.415
351.1510, 6707.314
351.6331, 6731.369
352.1152, 6756.157
352.5974, 6786.125
353.0795, 6819.382
353.5616, 6852.645
354.0437, 6885.730
354.5258, 6917.347
355.0079, 6946.354
355.4901, 6972.912
355.9722, 6998.282
356.4543, 7021.569
356.9364, 7044.876
357.4185, 7070.644
357.9006, 7099.487
358.3828, 7130.344
358.8649, 7164.456
359.3470, 7200.278
359.8291, 7234.950
360.3112, 7267.144
360.7933, 7297.818
361.2755, 7326.667
361.7576, 7352.956
362.2397, 7382.378
362.7218, 7421.862
363.2039, 7463.841
363.6860, 7499.884
364.1682, 7520.654
364.6503, 7542.294
365.1324, 7570.271
365.6145, 7604.606
366.0966, 7637.555
366.5787, 7666.893
367.0609, 7695.087
367.5430, 7723.724
368.0251, 7755.820
368.5072, 7785.224
368.9893, 7808.724
369.4714, 7828.689
369.9536, 7852.360
370.4357, 7883.555
370.9178, 7914.602
371.3999, 7942.107
371.8820, 7964.906
372.3641, 7987.795
372.8463, 8011.350
373.3284, 8034.325
373.8105, 8054.525
374.2926, 8070.065
374.7747, 8087.134
375.2568, 8108.257
375.7390, 8133.534
376.2211, 8156.703
376.7032, 8178.250
377.1853, 8196.946
377.6674, 8211.649
378.1495, 8222.054
378.6317, 8231.246
379.1138, 8239.976
379.5959, 8247.890
380.0780, 8253.557
380.5601, 8256.771
381.0422, 8260.331
381.5244, 8267.342
382.0065, 8276.971
382.4886, 8283.566
382.9707, 8286.255
383.4528, 8287.267
383.9349, 8289.421
384.4171, 8292.697
384.8992, 8296.606
385.3813, 8300.735
385.8634, 8305.449
386.3455, 8311.483
386.8276, 8318.808
387.3098, 8327.017
387.7919, 8336.484
388.2740, 8346.474
388.7561, 8355.615
389.2382, 8362.607
389.7203, 8369.278
390.2025, 8375.841
390.6846, 8382.716
391.1667, 8392.447
391.6488, 8409.440
392.1309, 8428.103
392.6130, 8443.966
393.0952, 8455.916
393.5773, 8465.124
394.0594, 8469.075
394.5415, 8470.857
395.0236, 8476.159
395.5057, 8489.707
395.9879, 8504.654
396.4700, 8518.296
396.9521, 8530.207
397.4342, 8542.813
397.9163, 8556.433
398.3984, 8571.024
398.8806, 8586.538
399.3627, 8608.291
399.8448, 8624.726
400.3269, 8630.372
400.8090, 8627.567
401.2911, 8634.225
401.7733, 8656.585
402.2554, 8680.990
402.7375, 8699.790
403.2196, 8708.646
403.7017, 8723.324
404.1838, 8746.281
404.6660, 8773.348
405.1481, 8795.736
405.6302, 8812.294
406.1123, 8829.050
406.5944, 8848.862
407.0765, 8871.527
407.5587, 8889.704
408.0408, 8902.149
408.5229, 8914.981
409.0050, 8934.694
409.4871, 8960.860
409.9692, 8989.475
410.4514, 9020.986
410.9335, 9053.003
411.4156, 9079.483
411.8977, 9100.688
412.3798, 9122.974
412.8619, 9152.705
413.3441, 9185.796
413.8262, 9213.791
414.3083, 9234.987
414.7904, 9255.631
415.2725, 9282.179
415.7546, 9312.893
416.2368, 9344.795
416.7189, 9376.672
417.2010, 9408.746
417.6831, 9442.356
418.1652, 9477.056
418.6473, 9510.247
419.1295, 9537.661
419.6116, 9564.040
420.0937, 9593.389
420.5758, 9630.424
421.0579, 9665.528
421.5400, 9695.516
422.0222, 9721.575
422.5043, 9747.494
422.9864, 9777.213
423.4685, 9804.072
423.9506, 9825.778
424.4327, 9841.453
424.9149, 9854.177
425.3970, 9861.238
425.8791, 9867.042
426.3612, 9876.402
426.8433, 9894.463
427.3254, 9907.713
427.8076, 9914.598
428.2897, 9915.033
428.7718, 9908.089
429.2539, 9892.327
429.7360, 9871.948
430.2181, 9849.646
430.7003, 9825.670
431.1824, 9796.622
431.6645, 9760.692
432.1466, 9722.594
432.6287, 9692.483
433.1108, 9670.910
433.5930, 9646.483
434.0751, 9614.037
434.5572, 9575.782
435.0393, 9538.038
435.5214, 9501.034
436.0035, 9465.358
436.4857, 9433.212
436.9678, 9403.303
437.4499, 9371.434
437.9320, 9336.051
438.4141, 9299.644
438.8962, 9263.105
439.3784, 9227.369
439.8605, 9195.304
440.3426, 9170.810
440.8247, 9149.037
441.3068, 9125.293
441.7889, 9099.137
442.2711, 9073.723
442.7532, 9051.270
443.2353, 9030.103
443.7174, 9008.476
444.1995, 8983.943
444.6816, 8960.899
445.1638, 8939.561
445.6459, 8920.424
446.1280, 8904.720
446.6101, 8894.266
447.0922, 8885.971
447.5743, 8878.688
448.0565, 8872.862
448.5386, 8867.110
449.0207, 8863.016
449.5028, 8858.049
449.9849, 8848.292
450.4670, 8830.030
450.9492, 8815.498
451.4313, 8808.757
451.9134, 8808.520
452.3955, 8805.126
452.8776, 8798.215
453.3597, 8790.106
453.8419, 8781.703
454.3240, 8773.160
454.8061, 8766.904
455.2882, 8763.568
455.7703, 8761.583
456.2524, 8758.455
456.7346, 8754.380
457.2167, 8751.090
457.6988, 8749.156
458.1809, 8748.344
458.6630, 8749.292
459.1451, 8751.704
459.6273, 8752.187
460.1094, 8745.551
460.5915, 8736.270
461.0736, 8730.584
461.5557, 8731.380
462.0378, 8732.530
462.5200, 8730.263
463.0021, 8725.590
463.4842, 8720.468
463.9663, 8715.763
464.4484, 8710.851
464.9305, 8705.458
465.4127, 8699.586
465.8948, 8694.011
466.3769, 8687.996
466.8590, 8683.014
467.3411, 8680.182
467.8232, 8683.165
468.3054, 8683.534
468.7875, 8680.624
469.2696, 8674.975
469.7517, 8667.273
470.2338, 8654.968
470.7159, 8645.435
471.1981, 8643.103
471.6802, 8648.505
472.1623, 8644.745
472.6444, 8629.137
473.1265, 8611.739
473.6086, 8604.977
474.0908, 8608.550
474.5729, 8605.069
475.0550, 8589.570
475.5371, 8568.200
476.0192, 8552.512
476.5013, 8541.723
476.9835, 8530.802
477.4656, 8516.087
477.9477, 8499.553
478.4298, 8484.959
478.9119, 8472.514
479.3940, 8459.056
479.8762, 8441.345
480.3583, 8421.342
480.8404, 8401.650
481.3225, 8383.229
481.8046, 8364.983
482.2867, 8347.336
482.7689, 8329.688
483.2510, 8310.315
483.7331, 8287.078
484.2152, 8263.581
484.6973, 8242.212
485.1794, 8224.097
485.6616, 8202.994
486.1437, 8173.508
486.6258, 8143.839
487.1079, 8120.416
487.5900, 8108.763
488.0721, 8092.981
488.5543, 8069.552
489.0364, 8041.591
489.5185, 8019.250
490.0006, 8004.893
490.4827, 7988.640
490.9648, 7965.003
491.4470, 7934.366
491.9291, 7908.122
492.4112, 7887.024
492.8933, 7867.382
493.3754, 7845.560
493.8575, 7822.041
494.3397, 7799.059
494.8218, 7777.562
495.3039, 7756.648
495.7860, 7735.681
496.2681, 7714.658
496.7502, 7693.490
497.2324, 7670.813
497.7145, 7648.573
498.1966, 7628.642
498.6787, 7610.912
499.1608, 7594.216
499.6429, 7580.252
500.1251, 7565.539
500.6072, 7546.248
501.0893, 7515.167
501.5714, 7488.349
502.0535, 7473.003
502.5356, 7463.982
503.0178, 7449.505
503.4999, 7424.381
503.9820, 7398.097
504.4641, 7373.023
504.9462, 7349.258
505.4283, 7325.804
505.9105, 7302.862
506.3926, 7280.463
506.8747, 7258.750
507.3568, 7237.967
507.8389, 7216.925
508.3210, 7195.333
508.8032, 7174.494
509.2853, 7157.451
509.7674, 7143.944
510.2495, 7130.528
510.7316, 7116.086
511.2137, 7100.358
511.6959, 7082.144
512.1780, 7061.651
512.6601, 7040.663
513.1422, 7018.088
513.6243, 6996.718
514.1064, 6982.240
514.5886, 6978.817
515.0707, 6970.704
515.5528, 6942.646
516.0349, 6905.308
516.5170, 6873.652
516.9991, 6857.350
517.4813, 6842.725
517.9634, 6825.746
518.4455, 6806.663
518.9276, 6787.760
519.4097, 6768.882
519.8918, 6750.832
520.3740, 6734.208
520.8561, 6719.179
521.3382, 6704.702
521.8203, 6691.363
522.3024, 6677.649
522.7845, 6661.150
523.2667, 6641.127
523.7488, 6621.800
524.2309, 6604.283
524.7130, 6587.827
525.1951, 6569.782
525.6772, 6550.148
526.1594, 6532.129
526.6415, 6519.492
527.1236, 6509.271
527.6057, 6494.458
528.0878, 6474.930
528.5699, 6454.447
529.0521, 6435.515
529.5342, 6418.044
530.0163, 6402.291
530.4984, 6390.083
530.9805, 6376.706
531.4626, 6356.932
531.9448, 6334.476
532.4269, 6316.600
532.9090, 6310.179
533.3911, 6303.704
533.8732, 6292.757
534.3553, 6277.034
534.8375, 6261.793
535.3196, 6247.658
535.8017, 6233.456
536.2838, 6218.530
536.7659, 6202.393
537.2480, 6186.210
537.7302, 6170.144
538.2123, 6153.752
538.6944, 6136.930
539.1765, 6119.612
539.6586, 6100.758
540.1407, 6079.076
540.6229, 6056.927
541.1050, 6042.536
541.5871, 6035.118
542.0692, 6025.976
542.5513, 6007.417
543.0334, 5984.539
543.5156, 5965.396
543.9977, 5950.694
544.4798, 5936.648
544.9619, 5920.221
545.4440, 5903.354
545.9261, 5888.066
546.4083, 5874.347
546.8904, 5862.867
547.3725, 5855.638
547.8546, 5850.646
548.3367, 5843.532
548.8188, 5832.237
549.3010, 5819.961
549.7831, 5807.058
550.2652, 5793.510
550.7473, 5780.742
551.2294, 5769.128
551.7115, 5757.655
552.1937, 5745.618
552.6758, 5733.040
553.1579, 5720.509
553.6400, 5708.193
554.1221, 5695.916
554.6042, 5683.299
555.0864, 5670.467
555.5685, 5657.774
556.0506, 5644.864
556.5327, 5632.924
557.0148, 5624.639
557.4969, 5619.065
557.9791, 5612.772
558.4612, 5603.570
558.9433, 5592.925
559.4254, 5581.910
559.9075, 5570.516
560.3896, 5559.086
560.8718, 5547.540
561.3539, 5536.267
561.8360, 5525.635
562.3181, 5516.402
562.8002, 5506.853
563.2823, 5497.131
563.7645, 5487.123
564.2466, 5476.294
564.7287, 5463.398
565.2108, 5453.145
565.6929, 5447.517
566.1750, 5445.310
566.6572, 5439.936
567.1393, 5430.714
567.6214, 5423.247
568.1035, 5423.683
568.5856, 5428.863
569.0677, 5425.215
569.5499, 5411.787
570.0320, 5397.135
570.5141, 5390.574
570.9962, 5387.899
571.4783, 5381.686
571.9604, 5367.438
572.4426, 5354.737
572.9247, 5352.407
573.4068, 5355.469
573.8889, 5354.949
574.3710, 5344.564
574.8531, 5333.639
575.3353, 5324.807
575.8174, 5318.226
576.2995, 5313.466
576.7816, 5312.962
577.2637, 5311.474
577.7458, 5306.022
578.2280, 5295.303
578.7101, 5287.641
579.1922, 5283.276
579.6743, 5281.395
580.1564, 5282.464
580.6385, 5286.186
581.1207, 5286.849
581.6028, 5282.651
582.0849, 5276.742
582.5670, 5274.414
583.0491, 5274.503
583.5313, 5273.144
584.0134, 5267.122
584.4955, 5259.829
584.9776, 5253.099
585.4597, 5247.368
585.9418, 5244.928
586.4240, 5252.229
586.9061, 5258.981
587.3882, 5257.896
587.8703, 5245.132
588.3524, 5236.510
588.8345, 5236.893
589.3167, 5240.162
589.7988, 5241.718
590.2809, 5240.878
590.7630, 5239.814
591.2451, 5238.509
591.7272, 5237.234
592.2094, 5236.729
592.6915, 5237.097
593.1736, 5236.786
593.6557, 5234.540
594.1378, 5231.789
594.6199, 5233.179
595.1021, 5238.078
595.5842, 5241.294
596.0663, 5236.650
596.5484, 5229.948
597.0305, 5228.021
597.5126, 5231.509
597.9948, 5236.740
598.4769, 5244.680
598.9590, 5251.714
599.4411, 5254.563
599.9232, 5249.479
600.4053, 5245.361
600.8875, 5243.862
601.3696, 5243.976
601.8517, 5244.352
602.3338, 5244.748
602.8159, 5246.017
603.2980, 5248.729
603.7802, 5252.304
604.2623, 5254.287
604.7444, 5254.343
605.2265, 5255.324
605.7086, 5259.445
606.1907, 5265.607
606.6729, 5270.128
607.1550, 5272.965
607.6371, 5275.102
608.1192, 5276.865
608.6013, 5278.506
609.0834, 5280.094
609.5656, 5281.373
610.0477, 5283.904
610.5298, 5289.107
611.0119, 5295.865
611.4940, 5303.010
611.9761, 5313.165
612.4583, 5320.368
612.9404, 5321.479
613.4225, 5319.598
613.9046, 5321.691
614.3867, 5329.578
614.8688, 5337.642
615.3510, 5343.837
615.8331, 5348.790
616.3152, 5357.228
616.7973, 5369.345
617.2794, 5381.717
617.7615, 5391.675
618.2437, 5399.800
618.7258, 5407.674
619.2079, 5415.281
619.6900, 5423.924
620.1721, 5437.292
620.6542, 5451.265
621.1364, 5460.025
621.6185, 5459.632
622.1006, 5460.134
622.5827, 5468.077
623.0648, 5479.086
623.5469, 5487.037
624.0291, 5487.202
624.5112, 5489.034
624.9933, 5494.672
625.4754, 5503.085
625.9575, 5509.935
626.4396, 5513.915
626.9218, 5520.682
627.4039, 5533.708
627.8860, 5551.591
628.3681, 5565.321
628.8502, 5574.751
629.3323, 5583.537
629.8145, 5594.987
630.2966, 5607.483
630.7787, 5617.322
631.2608, 5623.807
631.7429, 5631.667
632.2250, 5646.252
632.7072, 5663.132
633.1893, 5677.447
633.6714, 5684.640
634.1535, 5694.499
634.6356, 5713.562
635.1177, 5735.614
635.5999, 5750.828
636.0820, 5753.406
636.5641, 5758.344
637.0462, 5768.771
637.5283, 5783.048
638.0104, 5796.125
638.4926, 5808.175
638.9747, 5818.724
639.4568, 5826.039
639.9389, 5832.154
640.4210, 5843.991
640.9031, 5861.506
641.3853, 5881.290
641.8674, 5903.438
642.3495, 5925.323
642.8316, 5942.728
643.3137, 5954.967
643.7958, 5967.048
644.2780, 5980.842
644.7601, 5996.111
645.2422, 6012.518
645.7243, 6029.644
646.2064, 6048.509
646.6885, 6070.853
647.1707, 6093.763
647.6528, 6112.595
648.1349, 6125.936
648.6170, 6140.034
649.0991, 6156.415
649.5812, 6173.958
650.0634, 6190.066
650.5455, 6205.048
651.0276, 6221.349
651.5097, 6241.069
651.9918, 6262.476
652.4739, 6283.417
652.9561, 6303.654
653.4382, 6323.423
653.9203, 6342.743
654.4024, 6361.338
654.8845, 6378.846
655.3666, 6394.989
655.8488, 6411.947
656.3309, 6431.437
656.8130, 6450.978
657.2951, 6468.797
657.7772, 6483.299
658.2593, 6500.839
658.7415, 6522.912
659.2236, 6545.640
659.7057, 6564.708
660.1878, 6580.095
660.6699, 6592.914
661.1520, 6601.825
661.6342, 6611.590
662.1163, 6631.354
662.5984, 6657.476
663.0805, 6680.271
663.5626, 6692.354
664.0447, 6703.264
664.5269, 6720.963
665.0090, 6742.916
665.4911, 6762.230
665.9732, 6773.109
666.4553, 6784.624
666.9374, 6800.175
667.4196, 6819.687
667.9017, 6840.457
668.3838, 6863.639
668.8659, 6886.518
669.3480, 6908.727
669.8301, 6930.264
670.3123, 6946.120
670.7944, 6955.564
671.2765, 6965.464
671.7586, 6982.657
672.2407, 7004.871
672.7228, 7027.046
673.2050, 7048.722
673.6871, 7069.575
674.1692, 7089.522
674.6513, 7108.596
675.1334, 7126.505
675.6155, 7141.837
676.0977, 7158.181
676.5798, 7176.876
677.0619, 7196.568
677.5440, 7215.087
678.0261, 7231.850
678.5082, 7248.440
678.9904, 7265.245
679.4725, 7282.101
679.9546, 7298.421
680.4367, 7313.990
680.9188, 7332.057
681.4009, 7356.253
681.8831, 7382.265
682.3652, 7399.883
682.8473, 7410.994
683.3294, 7423.896
683.8115, 7445.068
684.2936, 7468.787
684.7758, 7492.187
685.2579, 7514.806
685.7400, 7535.554
686.2221, 7549.321
686.7042, 7564.922
687.1863, 7587.491
687.6685, 7618.956
688.1506, 7648.692
688.6327, 7676.820
689.1148, 7703.740
689.5969, 7730.045
690.0790, 7755.756
690.5612, 7778.322
691.0433, 7796.610
691.5254, 7815.273
692.0075, 7840.451
692.4896, 7869.169
692.9717, 7895.736
693.4539, 7917.606
693.9360, 7938.757
694.4181, 7961.020
694.9002, 7983.973
695.3823, 8007.069
695.8644, 8031.825
696.3466, 8054.407
696.8287, 8071.597
697.3108, 8087.287
697.7929, 8111.993
698.2750, 8148.487
698.7571, 8184.733
699.2393, 8217.936
699.7214, 8247.899
700.2035, 8270.615
700.6856, 8287.267
701.1677, 8307.218
701.6498, 8339.408
702.1320, 8375.598
702.6141, 8404.879
703.0962, 8428.140
703.5783, 8454.748
704.0604, 8492.919
704.5425, 8532.645
705.0247, 8567.472
705.5068, 8595.819
705.9889, 8625.223
706.4710, 8655.241
706.9531, 8686.801
707.4352, 8721.438
707.9174, 8759.704
708.3995, 8792.368
708.8816, 8818.364
709.3637, 8843.466
709.8458, 8873.795
710.3279, 8907.890
710.8101, 8943.484
711.2922, 8980.682
711.7743, 9016.564
712.2564, 9048.540
712.7385, 9078.589
713.2206, 9109.158
713.7028, 9140.911
714.1849, 9173.044
714.6670, 9204.635
715.1491, 9236.585
715.6312, 9270.588
716.1133, 9306.759
716.5955, 9343.973
717.0776, 9382.114
717.5597, 9420.517
718.0418, 9456.456
718.5239, 9490.369
719.0060, 9524.457
719.4882, 9560.150
719.9703, 9595.467
720.4524, 9626.780
720.9345, 9655.517
721.4166, 9687.152
721.8987, 9728.150
722.3809, 9768.527
722.8630, 9802.218
723.3451, 9829.782
723.8272, 9858.021
724.3093, 9888.813
724.7914, 9917.824
725.2736, 9943.143
725.7557, 9965.098
726.2378, 9985.770
726.7199, 10005.17
727.2020, 10026.62
727.6841, 10054.18
728.1663, 10085.46
728.6484, 10115.04
729.1305, 10142.75
729.6126, 10168.16
730.0947, 10190.66
730.5768, 10210.89
731.0590, 10228.18
731.5411, 10241.21
732.0232, 10257.67
732.5053, 10280.54
732.9874, 10305.69
733.4695, 10331.67
733.9517, 10359.95
734.4338, 10382.58
734.9159, 10398.79
735.3980, 10411.63
735.8801, 10422.31
736.3622, 10432.07
736.8444, 10446.86
737.3265, 10468.47
737.8086, 10491.38
738.2907, 10512.47
738.7728, 10531.00
739.2549, 10545.71
739.7371, 10555.33
740.2192, 10563.13
740.7013, 10565.24
741.1834, 10568.20
741.6655, 10581.36
742.1476, 10610.86
742.6298, 10634.67
743.1119, 10647.64
743.5940, 10656.78
744.0761, 10676.95
744.5582, 10706.47
745.0403, 10731.10
745.5225, 10745.24
746.0046, 10754.56
746.4867, 10765.45
746.9688, 10776.91
747.4509, 10786.89
747.9330, 10794.94
748.4152, 10800.87
748.8973, 10802.84
749.3794, 10802.67
749.8615, 10806.01
750.3436, 10814.68
750.8257, 10824.70
751.3079, 10836.73
751.7900, 10849.07
752.2721, 10853.53
752.7542, 10850.28
753.2363, 10847.39
753.7184, 10848.24
754.2006, 10852.32
754.6827, 10859.58
755.1648, 10869.62
755.6469, 10880.33
756.1290, 10892.27
756.6111, 10903.22
757.0933, 10910.83
757.5754, 10915.25
758.0575, 10923.22
758.5396, 10935.36
759.0217, 10950.26
759.5038, 10968.87
759.9860, 10990.31
760.4681, 11005.08
760.9502, 11012.35
761.4323, 11021.38
761.9144, 11042.28
762.3965, 11067.61
762.8787, 11081.90
763.3608, 11085.63
763.8429, 11090.59
764.3250, 11104.99
764.8071, 11122.16
765.2892, 11137.31
765.7714, 11149.83
766.2535, 11164.00
766.7356, 11182.14
767.2177, 11199.39
767.6998, 11212.84
768.1819, 11222.42
768.6641, 11231.96
769.1462, 11241.45
769.6283, 11250.76
770.1104, 11258.70
770.5925, 11266.68
771.0746, 11277.84
771.5568, 11292.55
772.0389, 11307.80
772.5210, 11325.07
773.0031, 11339.74
773.4852, 11347.45
773.9673, 11344.54
774.4495, 11344.08
774.9316, 11348.07
775.4137, 11352.54
775.8958, 11354.02
776.3779, 11352.07
776.8600, 11353.03
777.3422, 11357.43
777.8243, 11363.06
778.3064, 11370.52
778.7885, 11377.03
779.2706, 11376.70
779.7527, 11368.08
780.2349, 11356.65
780.7170, 11342.99
781.1991, 11329.86
781.6812, 11320.06
782.1633, 11318.17
782.6454, 11311.55
783.1276, 11297.03
783.6097, 11281.67
784.0918, 11273.57
784.5739, 11272.92
785.0560, 11269.37
785.5381, 11262.05
786.0203, 11251.14
786.5024, 11234.14
786.9845, 11214.48
787.4666, 11197.58
787.9487, 11184.46
788.4308, 11174.49
788.9130, 11169.03
789.3951, 11165.34
789.8772, 11160.79
790.3593, 11159.75
790.8414, 11147.91
791.3235, 11118.94
791.8057, 11087.61
792.2878, 11075.80
792.7699, 11081.57
793.2520, 11076.82
793.7341, 11055.98
794.2162, 11030.50
794.6984, 11012.11
795.1805, 10997.23
795.6626, 10980.55
796.1447, 10960.31
796.6268, 10938.77
797.1089, 10915.55
797.5911, 10892.00
798.0732, 10869.84
798.5553, 10851.03
799.0374, 10828.38
799.5195, 10799.89
800.0016, 10770.91
800.4838, 10748.57
800.9659, 10731.80
801.4480, 10713.83
801.9301, 10693.75
802.4122, 10671.40
802.8943, 10643.79
803.3765, 10615.29
803.8586, 10591.55
804.3407, 10577.39
804.8228, 10561.81
805.3049, 10538.11
805.7870, 10514.26
806.2692, 10499.44
806.7513, 10497.50
807.2334, 10488.13
807.7155, 10468.32
808.1976, 10444.08
808.6797, 10423.86
809.1619, 10405.53
809.6440, 10381.68
810.1261, 10348.61
810.6082, 10317.92
811.0903, 10302.79
811.5724, 10292.88
812.0546, 10276.97
812.5367, 10249.73
813.0188, 10221.44
813.5009, 10190.46
813.9830, 10161.12
814.4651, 10140.38
814.9473, 10129.03
815.4294, 10111.10
815.9115, 10083.95
816.3936, 10054.83
816.8757, 10031.89
817.3578, 10012.92
817.8400, 9993.721
818.3221, 9973.313
818.8042, 9952.363
819.2863, 9929.609
819.7684, 9907.079
820.2505, 9886.999
820.7327, 9872.046
821.2148, 9853.343
821.6969, 9830.054
822.1790, 9803.757
822.6611, 9777.162
823.1432, 9749.425
823.6254, 9716.631
824.1075, 9677.486
824.5896, 9639.073
825.0717, 9610.082
825.5538, 9584.688
826.0359, 9556.849
826.5181, 9525.243
827.0002, 9492.696
827.4823, 9460.033
827.9644, 9426.698
828.4465, 9391.573
828.9286, 9354.362
829.4108, 9319.731
829.8929, 9288.395
830.3750, 9258.275
830.8571, 9228.177
831.3392, 9197.909
831.8214, 9165.875
832.3035, 9132.115
832.7856, 9099.135
833.2677, 9066.943
833.7498, 9037.448
834.2319, 9013.817
834.7141, 8999.649
835.1962, 8974.972
835.6783, 8933.949
836.1604, 8891.906
836.6425, 8860.408
837.1246, 8838.454
837.6068, 8811.145
838.0889, 8778.350
838.5710, 8745.403
839.0531, 8717.498
839.5352, 8691.003
840.0173, 8661.896
840.4995, 8629.743
840.9816, 8597.797
841.4637, 8568.998
841.9458, 8538.715
842.4279, 8503.661
842.9100, 8463.968
843.3922, 8428.785
843.8743, 8398.644
844.3564, 8369.672
844.8385, 8341.870
845.3206, 8312.700
845.8027, 8273.465
846.2849, 8226.292
846.7670, 8184.170
847.2491, 8161.265
847.7312, 8139.257
848.2133, 8106.898
848.6954, 8064.898
849.1776, 8025.608
849.6597, 7990.292
850.1418, 7955.638
850.6239, 7920.518
851.1060, 7885.806
851.5881, 7856.095
852.0703, 7830.698
852.5524, 7803.324
853.0345, 7769.336
853.5166, 7733.724
853.9987, 7699.917
854.4808, 7667.750
854.9630, 7636.814
855.4451, 7608.396
855.9272, 7579.655
856.4093, 7549.673
856.8914, 7519.150
857.3735, 7488.181
857.8557, 7456.481
858.3378, 7425.932
858.8199, 7397.243
859.3020, 7368.867
859.7841, 7339.093
860.2662, 7308.063
860.7484, 7276.632
861.2305, 7245.079
861.7126, 7213.367
862.1947, 7181.890
862.6768, 7150.404
863.1589, 7119.039
863.6411, 7087.455
864.1232, 7056.031
864.6053, 7024.342
865.0874, 6993.981
865.5695, 6968.924
866.0516, 6946.734
866.5338, 6918.507
867.0159, 6881.037
867.4980, 6844.131
867.9801, 6813.721
868.4622, 6787.438
868.9443, 6763.081
869.4265, 6742.497
869.9086, 6717.790
870.3907, 6687.671
870.8728, 6655.612
871.3549, 6623.217
871.8370, 6590.851
872.3192, 6566.023
872.8013, 6548.846
873.2834, 6531.101
873.7655, 6504.790
874.2476, 6475.209
874.7297, 6446.935
875.2119, 6420.124
875.6940, 6395.843
876.1761, 6378.077
876.6582, 6359.108
877.1403, 6335.514
877.6224, 6307.666
878.1046, 6280.894
878.5867, 6255.406
879.0688, 6229.264
879.5509, 6200.956
880.0330, 6172.244
880.5151, 6145.946
880.9973, 6121.712
881.4794, 6097.959
881.9615, 6074.653
882.4436, 6051.185
882.9257, 6026.750
883.4078, 6002.242
883.8900, 5978.990
884.3721, 5957.210
884.8542, 5935.331
885.3363, 5912.502
885.8184, 5889.882
886.3005, 5869.757
886.7827, 5851.360
887.2648, 5833.126
887.7469, 5814.763
888.2290, 5795.958
888.7111, 5776.250
889.1932, 5756.140
889.6754, 5736.175
890.1575, 5716.187
890.6396, 5697.779
891.1217, 5682.250
891.6038, 5665.921
892.0859, 5641.237
892.5681, 5611.853
893.0502, 5589.819
893.5323, 5578.115
894.0144, 5567.438
894.4965, 5553.094
894.9786, 5536.065
895.4608, 5516.330
895.9429, 5492.651
896.4250, 5471.672
896.9071, 5454.201
897.3892, 5438.052
897.8713, 5421.752
898.3535, 5405.481
898.8356, 5392.380
899.3177, 5382.126
899.7998, 5369.834
900.2819, 5349.896
900.7640, 5328.462
901.2462, 5310.399
901.7283, 5295.625
902.2104, 5279.003
902.6925, 5258.808
903.1746, 5239.443
903.6567, 5222.222
904.1389, 5206.685
904.6210, 5190.936
905.1031, 5175.032
905.5852, 5158.792
906.0673, 5141.164
906.5494, 5124.491
907.0316, 5111.938
907.5137, 5101.625
907.9958, 5090.069
908.4779, 5076.889
908.9600, 5061.553
909.4421, 5043.015
909.9243, 5023.502
910.4064, 5005.146
910.8885, 4988.056
911.3706, 4973.149
911.8527, 4960.896
912.3348, 4948.835
912.8170, 4934.791
913.2991, 4919.553
913.7812, 4903.703
914.2633, 4886.904
914.7454, 4871.571
915.2275, 4858.871
915.7097, 4846.737
916.1918, 4833.755
916.6739, 4819.968
917.1560, 4808.392
917.6381, 4799.134
918.1202, 4789.340
918.6024, 4776.458
919.0845, 4762.409
919.5666, 4749.472
920.0487, 4737.438
920.5308, 4724.197
921.0129, 4707.576
921.4951, 4691.419
921.9772, 4676.379
922.4593, 4662.425
922.9414, 4649.442
923.4235, 4637.497
923.9056, 4627.085
924.3878, 4619.818
924.8699, 4611.165
925.3520, 4593.305
925.8341, 4571.234
926.3162, 4552.625
926.7983, 4541.437
927.2805, 4531.470
927.7626, 4523.688
928.2447, 4515.033
928.7268, 4501.663
929.2089, 4483.665
929.6910, 4467.828
930.1732, 4454.920
930.6553, 4443.114
931.1374, 4430.159
931.6195, 4417.869
932.1016, 4409.313
932.5837, 4405.229
933.0659, 4397.356
933.5480, 4379.679
934.0301, 4362.682
934.5122, 4351.040
934.9943, 4343.570
935.4764, 4333.167
935.9586, 4319.692
936.4407, 4306.161
936.9228, 4293.618
937.4049, 4281.723
937.8870, 4270.833
938.3691, 4260.202
938.8513, 4248.399
939.3334, 4233.866
939.8155, 4219.536
940.2976, 4205.950
940.7797, 4192.986
941.2618, 4181.306
941.7440, 4170.783
942.2261, 4158.329
942.7082, 4142.872
943.1903, 4128.131
943.6724, 4118.590
944.1545, 4111.220
944.6367, 4102.813
945.1188, 4092.594
945.6009, 4082.323
946.0830, 4073.038
946.5651, 4062.044
947.0472, 4046.218
947.5294, 4026.479
948.0115, 4014.500
948.4936, 4009.418
948.9757, 4002.261
949.4578, 3984.158
949.9399, 3964.671
950.4221, 3952.028
950.9042, 3944.550
951.3863, 3935.222
951.8684, 3923.114
952.3505, 3909.777
952.8326, 3895.287
953.3148, 3880.304
953.7969, 3865.723
954.2790, 3851.676
954.7611, 3838.549
955.2432, 3826.716
955.7253, 3815.294
956.2075, 3803.394
956.6896, 3791.713
957.1717, 3780.751
957.6538, 3770.326
958.1359, 3760.945
958.6180, 3752.558
959.1002, 3744.947
959.5823, 3739.037
960.0644, 3733.543
960.5465, 3723.370
961.0286, 3709.148
961.5107, 3696.868
961.9929, 3692.729
962.4750, 3688.497
962.9571, 3678.438
963.4392, 3664.581
963.9213, 3654.965
964.4034, 3651.519
964.8856, 3644.742
965.3677, 3631.524
965.8498, 3615.575
966.3319, 3601.185
966.8140, 3588.748
967.2961, 3580.026
967.7783, 3577.371
968.2604, 3573.033
968.7425, 3563.489
969.2246, 3551.400
969.7067, 3538.396
970.1888, 3524.435
970.6710, 3510.908
971.1531, 3497.728
971.6352, 3486.627
972.1173, 3481.054
972.5994, 3477.198
973.0815, 3469.570
973.5637, 3458.656
974.0458, 3448.323
974.5279, 3440.787
975.0100, 3432.845
975.4921, 3423.529
975.9742, 3413.369
976.4564, 3403.321
976.9385, 3393.390
977.4206, 3384.862
977.9027, 3378.868
978.3848, 3372.388
978.8669, 3361.848
979.3491, 3349.501
979.8312, 3338.080
980.3133, 3328.897
980.7954, 3318.385
981.2775, 3304.766
981.7596, 3292.486
982.2418, 3285.977
982.7239, 3283.618
983.2060, 3275.788
983.6881, 3263.109
984.1702, 3251.907
984.6523, 3248.420
985.1345, 3245.196
985.6166, 3237.119
986.0987, 3225.406
986.5808, 3215.305
987.0629, 3207.363
987.5450, 3199.325
988.0272, 3190.672
988.5093, 3182.001
988.9914, 3175.146
989.4735, 3168.884
989.9556, 3160.328
990.4377, 3148.154
990.9199, 3136.885
991.4020, 3129.011
991.8841, 3122.278
992.3662, 3115.363
992.8483, 3108.412
993.3304, 3100.399
993.8126, 3091.304
994.2947, 3081.383
994.7768, 3069.219
995.2589, 3057.427
995.7410, 3049.662
996.2231, 3044.791
996.7053, 3039.307
997.1874, 3032.048
997.6695, 3024.204
998.1516, 3015.311
998.6337, 3006.591
999.1158, 3000.301
999.5980, 2995.951
1000.080, 2990.508
1000.562, 2983.378
1001.044, 2975.802
1001.526, 2969.032
1002.009, 2961.927
1002.491, 2953.394
1002.973, 2943.114
1003.455, 2933.365
1003.937, 2923.938
1004.419, 2915.913
1004.901, 2910.188
1005.383, 2905.776
1005.865, 2900.871
1006.348, 2895.378
1006.830, 2888.866
1007.312, 2880.793
1007.794, 2872.159
1008.276, 2861.054
1008.758, 2850.782
1009.240, 2845.708
1009.722, 2846.635
1010.205, 2844.110
1010.687, 2837.223
1011.169, 2829.469
1011.651, 2823.976
1012.133, 2819.187
1012.615, 2813.230
1013.097, 2806.086
1013.579, 2799.520
1014.061, 2794.875
1014.544, 2789.065
1015.026, 2780.856
1015.508, 2771.336
1015.990, 2762.610
1016.472, 2754.714
1016.954, 2748.022
1017.436, 2743.251
1017.918, 2737.971
1018.401, 2729.681
1018.883, 2720.751
1019.365, 2713.508
1019.847, 2708.329
1020.329, 2703.333
1020.811, 2698.593
1021.293, 2693.741
1021.775, 2688.180
1022.257, 2682.544
1022.740, 2678.270
1023.222, 2674.825
1023.704, 2670.143
1024.186, 2662.050
1024.668, 2654.463
1025.150, 2648.419
1025.632, 2643.036
1026.114, 2636.610
1026.596, 2629.395
1027.079, 2622.968
1027.561, 2617.634
1028.043, 2612.629
1028.525, 2607.531
1029.007, 2602.340
1029.489, 2597.131
1029.971, 2591.760
1030.453, 2586.546
1030.936, 2580.864
1031.418, 2575.207
1031.900, 2569.662
1032.382, 2564.181
1032.864, 2558.554
1033.346, 2552.958
1033.828, 2547.985
1034.310, 2544.876
1034.792, 2540.815
1035.275, 2534.177
1035.757, 2527.165
1036.239, 2522.022
1036.721, 2518.802
1037.203, 2513.183
1037.685, 2505.160
1038.167, 2497.435
1038.649, 2492.220
1039.132, 2488.007
1039.614, 2483.486
1040.096, 2478.829
1040.578, 2475.198
1041.060, 2473.638
1041.542, 2469.994
1042.024, 2462.628
1042.506, 2454.534
1042.989, 2450.603
1043.471, 2449.123
1043.953, 2446.312
1044.435, 2441.041
1044.917, 2436.494
1045.399, 2435.228
1045.881, 2433.550
1046.363, 2429.516
1046.845, 2423.436
1047.328, 2417.380
1047.810, 2411.356
1048.292, 2406.401
1048.774, 2404.157
1049.256, 2401.542
1049.738, 2394.979
1050.220, 2386.766
1050.702, 2380.716
1051.184, 2378.604
1051.667, 2374.871
1052.149, 2368.937
1052.631, 2362.843
1053.113, 2358.310
1053.595, 2354.760
1054.077, 2351.203
1054.559, 2347.553
1055.041, 2343.686
1055.523, 2339.265
1056.006, 2335.046
1056.488, 2331.688
1056.970, 2328.303
1057.452, 2322.315
1057.934, 2314.198
1058.416, 2308.456
1058.898, 2306.245
1059.380, 2304.647
1059.863, 2301.818
1060.345, 2298.294
1060.827, 2294.059
1061.309, 2289.074
1061.791, 2286.303
1062.273, 2286.330
1062.755, 2285.642
1063.237, 2282.418
1063.719, 2277.984
1064.202, 2273.705
1064.684, 2269.861
1065.166, 2267.093
1065.648, 2267.339
1066.130, 2265.499
1066.612, 2260.298
1067.094, 2254.186
1067.576, 2248.666
1068.059, 2243.866
1068.541, 2241.482
1069.023, 2241.166
1069.505, 2240.077
1069.987, 2236.068
1070.469, 2231.344
1070.951, 2227.048
1071.433, 2222.874
1071.916, 2218.088
1072.398, 2212.560
1072.880, 2207.857
1073.362, 2204.228
1073.844, 2201.488
1074.326, 2200.723
1074.808, 2199.992
1075.290, 2196.508
1075.772, 2190.083
1076.255, 2186.270
1076.737, 2186.948
1077.219, 2186.550
1077.701, 2182.744
1078.183, 2177.667
1078.665, 2175.927
1079.147, 2176.166
1079.629, 2175.249
1080.111, 2172.152
1080.594, 2168.315
1081.076, 2163.085
1081.558, 2158.295
1082.040, 2155.109
1082.522, 2153.391
1083.004, 2152.824
1083.486, 2153.123
1083.968, 2151.699
1084.450, 2145.182
1084.933, 2138.625
1085.415, 2135.599
1085.897, 2134.501
1086.379, 2132.534
1086.861, 2129.298
1087.343, 2126.898
1087.825, 2125.633
1088.307, 2123.974
1088.790, 2119.813
1089.272, 2115.054
1089.754, 2112.475
1090.236, 2111.627
1090.718, 2109.297
1091.200, 2103.514
1091.682, 2098.848
1092.164, 2096.379
1092.646, 2094.759
1093.129, 2091.748
1093.611, 2087.982
1094.093, 2084.877
1094.575, 2082.633
1095.057, 2081.141
1095.539, 2081.907
1096.021, 2081.648
1096.503, 2078.757
1096.986, 2073.863
1097.468, 2068.777
1097.950, 2063.630
1098.432, 2059.736
1098.914, 2057.667
1099.396, 2056.462
1099.878, 2056.580
1100.360, 2056.445
1100.843, 2054.361
1101.325, 2050.129
1101.807, 2045.594
1102.289, 2040.568
1102.771, 2037.033
1103.253, 2037.479
1103.735, 2038.697
1104.217, 2036.158
1104.699, 2031.797
1105.182, 2029.377
1105.664, 2033.024
1106.146, 2031.717
1106.628, 2023.536
1107.110, 2014.794
1107.592, 2011.137
1108.074, 2010.935
1108.556, 2011.158
1109.038, 2011.590
1109.521, 2011.876
1110.003, 2013.079
1110.485, 2012.260
1110.967, 2007.837
1111.449, 2002.386
1111.931, 2000.441
1112.413, 2000.998
1112.895, 1999.076
1113.377, 1994.033
1113.860, 1989.426
1114.342, 1987.446
1114.824, 1986.527
1115.306, 1986.180
1115.788, 1986.148
1116.270, 1986.214
1116.752, 1986.336
1117.234, 1983.180
1117.717, 1974.788
1118.199, 1967.555
1118.681, 1969.156
1119.163, 1973.210
1119.645, 1973.396
1120.127, 1969.184
1120.609, 1965.802
1121.091, 1963.122
1121.573, 1962.245
1122.056, 1965.043
1122.538, 1967.568
1123.020, 1963.151
1123.502, 1955.593
1123.984, 1950.984
1124.466, 1952.744
1124.948, 1952.433
1125.430, 1949.285
1125.913, 1945.856
1126.395, 1943.920
1126.877, 1942.911
1127.359, 1941.802
1127.841, 1940.511
1128.323, 1938.781
1128.805, 1935.384
1129.287, 1933.365
1129.770, 1934.114
1130.252, 1934.749
1130.734, 1931.676
1131.216, 1926.041
1131.698, 1922.563
1132.180, 1921.173
1132.662, 1920.060
1133.144, 1918.379
1133.626, 1916.556
1134.109, 1914.239
1134.591, 1912.168
1135.073, 1911.784
1135.555, 1912.923
1136.037, 1913.826
1136.519, 1914.318
1137.001, 1913.912
1137.483, 1912.133
1137.965, 1909.529
1138.448, 1906.363
1138.930, 1902.677
1139.412, 1897.925
1139.894, 1891.931
1140.376, 1888.567
1140.858, 1888.966
1141.340, 1890.514
1141.822, 1892.059
1142.304, 1892.680
1142.787, 1891.063
1143.269, 1887.177
1143.751, 1884.009
1144.233, 1881.564
1144.715, 1879.866
1145.197, 1879.204
1145.679, 1878.628
1146.161, 1876.115
1146.644, 1873.331
1147.126, 1872.747
1147.608, 1875.712
1148.090, 1877.230
1148.572, 1877.287
1149.054, 1875.561
1149.536, 1871.048
1150.018, 1865.670
1150.500, 1862.686
1150.983, 1861.396
1151.465, 1860.333
1151.947, 1858.808
1152.429, 1858.539
1152.911, 1860.929
1153.393, 1861.866
1153.875, 1857.073
1154.357, 1849.239
1154.840, 1846.180
1155.322, 1846.482
1155.804, 1845.786
1156.286, 1840.783
1156.768, 1836.870
1157.250, 1834.875
1157.732, 1833.990
1158.214, 1834.083
1158.697, 1834.662
1159.179, 1833.053
1159.661, 1829.662
1160.143, 1827.236
1160.625, 1827.820
1161.107, 1828.751
1161.589, 1829.402
1162.071, 1829.780
1162.553, 1830.216
1163.036, 1830.490
1163.518, 1828.453
1164.000, 1824.135
1164.482, 1820.786
1164.964, 1821.849
1165.446, 1822.737
1165.928, 1820.847
1166.410, 1817.643
1166.892, 1815.934
1167.375, 1815.592
1167.857, 1814.684
1168.339, 1812.930
1168.821, 1811.227
1169.303, 1809.857
1169.785, 1809.081
1170.267, 1809.017
1170.749, 1809.652
1171.231, 1811.872
1171.714, 1815.640
1172.196, 1815.965
1172.678, 1811.308
1173.160, 1806.339
1173.642, 1804.884
1174.124, 1804.887
1174.606, 1805.153
1175.088, 1805.462
1175.571, 1804.881
1176.053, 1803.386
1176.535, 1801.483
1177.017, 1799.120
1177.499, 1797.032
1177.981, 1796.413
1178.463, 1796.070
1178.945, 1794.572
1179.427, 1791.866
1179.910, 1790.190
1180.392, 1789.583
1180.874, 1789.514
1181.356, 1790.197
1181.838, 1790.358
1182.320, 1788.261
1182.802, 1785.098
1183.284, 1781.938
1183.767, 1778.692
1184.249, 1777.948
1184.731, 1780.335
1185.213, 1780.781
1185.695, 1775.738
1186.177, 1769.440
1186.659, 1766.867
1187.141, 1766.232
1187.624, 1765.043
1188.106, 1762.813
1188.588, 1760.689
1189.070, 1758.665
1189.552, 1756.966
1190.034, 1755.401
1190.516, 1754.606
1190.998, 1756.875
1191.480, 1759.995
1191.963, 1759.825
1192.445, 1753.301
1192.927, 1749.927
1193.409, 1750.037
1193.891, 1751.643
1194.373, 1754.927
1194.855, 1757.684
1195.337, 1755.802
1195.819, 1751.316
1196.302, 1748.932
1196.784, 1751.339
1197.266, 1750.828
1197.748, 1746.576
1198.230, 1742.290
1198.712, 1741.063
1199.194, 1741.508
1199.676, 1742.230
1200.158, 1743.077
1200.641, 1743.772
1201.123, 1744.834
1201.605, 1744.233
1202.087, 1741.432
1202.569, 1738.811
1203.051, 1739.337
1203.533, 1740.799
1204.015, 1739.817
1204.498, 1737.135
1204.980, 1735.722
1205.462, 1736.374
1205.944, 1737.520
1206.426, 1739.337
1206.908, 1740.395
1207.390, 1737.811
1207.872, 1734.625
1208.354, 1736.087
1208.837, 1740.869
1209.319, 1741.797
1209.801, 1736.359
1210.283, 1731.576
1210.765, 1727.991
1211.247, 1726.105
1211.729, 1727.482
1212.211, 1730.076
1212.694, 1732.015
1213.176, 1732.909
1213.658, 1730.901
1214.140, 1724.262
1214.622, 1720.330
1215.104, 1720.717
1215.586, 1721.764
1216.068, 1718.762
1216.551, 1714.687
1217.033, 1713.220
1217.515, 1714.319
1217.997, 1715.778
1218.479, 1718.226
1218.961, 1717.677
1219.443, 1712.598
1219.925, 1708.000
1220.407, 1711.524
1220.890, 1717.199
1221.372, 1717.647
1221.854, 1712.958
1222.336, 1710.281
1222.818, 1710.315
1223.300, 1710.648
1223.782, 1710.939
1224.264, 1710.819
1224.746, 1709.309
1225.229, 1707.602
1225.711, 1707.112
1226.193, 1707.829
1226.675, 1708.174
1227.157, 1708.248
1227.639, 1707.220
1228.121, 1704.686
1228.603, 1702.156
1229.085, 1701.244
1229.568, 1701.120
1230.050, 1701.136
1230.532, 1701.213
1231.014, 1701.085
1231.496, 1700.629
1231.978, 1701.258
1232.460, 1703.633
1232.942, 1705.432
1233.425, 1704.090
1233.907, 1701.458
1234.389, 1698.580
1234.871, 1695.808
1235.353, 1694.886
1235.835, 1695.906
1236.317, 1696.921
1236.799, 1697.369
1237.281, 1698.292
1237.764, 1702.795
1238.246, 1706.234
1238.728, 1703.051
1239.210, 1695.484
1239.692, 1693.459
1240.174, 1696.750
1240.656, 1698.372
1241.138, 1696.317
1241.621, 1694.431
1242.103, 1696.342
1242.585, 1698.639
1243.067, 1698.754
1243.549, 1697.438
1244.031, 1697.479
1244.513, 1698.763
1244.995, 1700.563
1245.478, 1702.787
1245.960, 1705.013
1246.442, 1708.685
1246.924, 1710.302
1247.406, 1707.839
1247.888, 1702.378
1248.370, 1696.188
1248.852, 1689.921
1249.334, 1686.557
1249.817, 1687.150
1250.299, 1688.285
1250.781, 1688.750
1251.263, 1688.978
1251.745, 1689.293
1252.227, 1689.393
1252.709, 1688.465
1253.191, 1686.684
1253.673, 1684.205
1254.156, 1680.813
1254.638, 1678.765
1255.120, 1679.185
1255.602, 1680.544
1256.084, 1682.844
1256.566, 1685.084
1257.048, 1684.728
1257.530, 1682.929
1258.012, 1682.094
1258.495, 1682.709
1258.977, 1683.342
1259.459, 1683.950
1259.941, 1683.958
1260.423, 1682.839
1260.905, 1681.738
1261.387, 1683.181
1261.869, 1685.500
1262.352, 1686.025
1262.834, 1684.242
1263.316, 1683.361
1263.798, 1684.125
1264.280, 1683.600
1264.762, 1680.573
1265.244, 1677.104
1265.726, 1675.341
1266.208, 1674.742
1266.691, 1674.993
1267.173, 1676.024
1267.655, 1676.594
1268.137, 1676.707
1268.619, 1676.197
1269.101, 1674.802
1269.583, 1673.732
1270.065, 1674.981
1270.548, 1676.365
1271.030, 1675.525
1271.512, 1673.032
1271.994, 1671.492
1272.476, 1670.894
1272.958, 1670.029
1273.440, 1668.546
1273.922, 1667.520
1274.405, 1668.773
1274.887, 1669.627
1275.369, 1668.001
1275.851, 1665.110
1276.333, 1664.588
1276.815, 1665.951
1277.297, 1666.603
1277.779, 1665.999
1278.261, 1665.582
1278.744, 1666.347
1279.226, 1667.056
1279.708, 1667.062
1280.190, 1666.933
1280.672, 1668.101
1281.154, 1669.964
1281.636, 1671.220
1282.118, 1671.679
1282.600, 1670.830
1283.083, 1667.516
1283.565, 1664.648
1284.047, 1663.011
1284.529, 1661.787
1285.011, 1659.130
1285.493, 1656.486
1285.975, 1656.937
1286.457, 1660.409
1286.939, 1661.317
1287.422, 1658.358
1287.904, 1656.132
1288.386, 1655.549
1288.868, 1655.811
1289.350, 1656.226
1289.832, 1656.906
1290.314, 1658.620
1290.796, 1660.723
1291.279, 1660.144
1291.761, 1656.428
1292.243, 1654.577
1292.725, 1655.353
1293.207, 1656.563
1293.689, 1656.253
1294.171, 1655.921
1294.653, 1657.366
1295.135, 1655.790
1295.618, 1657.730
1296.100, 1653.832
1296.582, 1651.285
1297.064, 1650.625
1297.546, 1651.538
1298.028, 1655.509
1298.510, 1658.056
1298.992, 1657.587
1299.475, 1655.893
1299.957, 1655.279
1300.439, 1655.375
1300.921, 1654.242
1301.403, 1652.365
1301.885, 1652.489
##END=



