##NAMES=Fergusonite-(Ce)
##RRUFFID=R110050
##IDEAL CHEMISTRY=Ce^3+^Nb^5+^O_4_&#183;0.3H_2_O
##LOCALITY=Mount Malosa, Zomba District, Malawi
##OWNER=RRUFF
##SOURCE=Donald M Doell
##DESCRIPTION=Brown prismatic crystals on microcline, associated with zircon
##STATUS=The identification of this mineral has been confirmed only by single crystal X-ray diffraction.
##URL=rruff.info/R110050
105.1810, 6764.867
105.6631, 6786.653
106.1452, 6803.298
106.6273, 6816.553
107.1094, 6834.431
107.5915, 6859.561
108.0737, 6886.081
108.5558, 6912.776
109.0379, 6938.914
109.5200, 6962.884
110.0021, 6982.643
110.4842, 6996.865
110.9664, 7013.340
111.4485, 7029.886
111.9306, 7050.129
112.4127, 7077.834
112.8948, 7112.420
113.3769, 7149.375
113.8591, 7181.763
114.3412, 7205.975
114.8233, 7232.213
115.3054, 7262.573
115.7875, 7293.913
116.2696, 7322.473
116.7517, 7346.781
117.2339, 7369.451
117.7160, 7396.716
118.1981, 7428.843
118.6802, 7463.107
119.1623, 7499.620
119.6444, 7537.657
120.1266, 7575.647
120.6087, 7612.563
121.0908, 7648.904
121.5729, 7686.088
122.0550, 7724.885
122.5371, 7763.065
123.0193, 7797.537
123.5014, 7827.859
123.9835, 7858.768
124.4656, 7891.275
124.9477, 7925.848
125.4298, 7963.778
125.9120, 8005.657
126.3941, 8050.563
126.8762, 8096.507
127.3583, 8146.348
127.8404, 8192.473
128.3225, 8231.635
128.8047, 8266.859
129.2868, 8301.843
129.7689, 8338.922
130.2510, 8377.975
130.7331, 8416.896
131.2152, 8456.956
131.6974, 8495.935
132.1795, 8530.579
132.6616, 8563.250
133.1437, 8599.216
133.6258, 8643.738
134.1079, 8698.962
134.5901, 8750.003
135.0722, 8795.978
135.5543, 8839.541
136.0364, 8881.350
136.5185, 8921.748
137.0006, 8961.774
137.4828, 9002.448
137.9649, 9044.535
138.4470, 9083.436
138.9291, 9115.872
139.4112, 9146.323
139.8933, 9180.749
140.3755, 9220.980
140.8576, 9262.600
141.3397, 9299.214
141.8218, 9331.237
142.3039, 9363.252
142.7860, 9397.551
143.2681, 9433.382
143.7503, 9468.542
144.2324, 9503.478
144.7145, 9536.045
145.1966, 9563.568
145.6787, 9586.035
146.1608, 9609.206
146.6430, 9639.702
147.1251, 9678.730
147.6072, 9713.480
148.0893, 9737.662
148.5714, 9759.377
149.0535, 9783.677
149.5357, 9811.333
150.0178, 9838.616
150.4999, 9858.729
150.9820, 9866.504
151.4641, 9878.813
151.9462, 9897.881
152.4284, 9920.798
152.9105, 9947.804
153.3926, 9978.467
153.8747, 10008.81
154.3568, 10028.54
154.8389, 10023.21
155.3211, 10023.73
155.8032, 10033.68
156.2853, 10049.54
156.7674, 10067.85
157.2495, 10087.12
157.7316, 10106.51
158.2138, 10122.36
158.6959, 10132.75
159.1780, 10142.33
159.6601, 10150.29
160.1422, 10158.04
160.6243, 10168.98
161.1065, 10185.50
161.5886, 10206.59
162.0707, 10226.57
162.5528, 10248.87
163.0349, 10267.13
163.5170, 10274.55
163.9991, 10272.30
164.4813, 10271.85
164.9634, 10281.39
165.4455, 10297.66
165.9276, 10312.41
166.4097, 10322.95
166.8918, 10333.14
167.3740, 10348.41
167.8561, 10370.07
168.3382, 10390.33
168.8203, 10402.25
169.3024, 10410.47
169.7845, 10420.86
170.2667, 10436.83
170.7488, 10455.51
171.2309, 10469.71
171.7130, 10476.49
172.1951, 10484.14
172.6772, 10495.63
173.1594, 10510.01
173.6415, 10526.12
174.1236, 10543.33
174.6057, 10561.71
175.0878, 10581.43
175.5699, 10606.16
176.0521, 10628.07
176.5342, 10642.85
177.0163, 10653.54
177.4984, 10665.39
177.9805, 10682.57
178.4626, 10705.18
178.9448, 10725.78
179.4269, 10743.04
179.9090, 10759.64
180.3911, 10775.45
180.8732, 10791.08
181.3553, 10807.37
181.8375, 10824.91
182.3196, 10843.61
182.8017, 10864.59
183.2838, 10889.64
183.7659, 10914.68
184.2480, 10938.27
184.7301, 10960.04
185.2123, 10979.47
185.6944, 10995.38
186.1765, 11007.05
186.6586, 11021.96
187.1407, 11043.04
187.6228, 11065.03
188.1050, 11084.02
188.5871, 11099.54
189.0692, 11113.83
189.5513, 11128.40
190.0334, 11143.34
190.5155, 11159.96
190.9977, 11181.01
191.4798, 11202.58
191.9619, 11219.28
192.4440, 11229.70
192.9261, 11239.88
193.4082, 11256.69
193.8904, 11278.31
194.3725, 11299.72
194.8546, 11321.38
195.3367, 11341.58
195.8188, 11355.86
196.3009, 11361.23
196.7831, 11366.46
197.2652, 11379.02
197.7473, 11396.70
198.2294, 11413.82
198.7115, 11426.14
199.1936, 11435.23
199.6758, 11447.98
200.1579, 11466.61
200.6400, 11486.28
201.1221, 11505.54
201.6042, 11523.72
202.0863, 11539.10
202.5685, 11549.66
203.0506, 11555.71
203.5327, 11562.08
204.0148, 11566.62
204.4969, 11573.92
204.9790, 11588.15
205.4612, 11606.71
205.9433, 11623.50
206.4254, 11632.70
206.9075, 11633.76
207.3896, 11637.72
207.8717, 11649.59
208.3539, 11659.93
208.8360, 11665.05
209.3181, 11665.86
209.8002, 11665.51
210.2823, 11666.94
210.7644, 11670.56
211.2466, 11672.28
211.7287, 11668.58
212.2108, 11666.50
212.6929, 11669.73
213.1750, 11677.43
213.6571, 11686.42
214.1393, 11694.05
214.6214, 11700.52
215.1035, 11703.88
215.5856, 11703.99
216.0677, 11702.00
216.5498, 11696.53
217.0320, 11688.76
217.5141, 11682.89
217.9962, 11683.28
218.4783, 11690.99
218.9604, 11695.22
219.4425, 11693.42
219.9247, 11690.63
220.4068, 11689.75
220.8889, 11690.86
221.3710, 11692.59
221.8531, 11693.97
222.3352, 11694.90
222.8174, 11694.72
223.2995, 11694.05
223.7816, 11691.84
224.2637, 11686.00
224.7458, 11676.71
225.2279, 11668.33
225.7100, 11664.96
226.1922, 11666.08
226.6743, 11665.93
227.1564, 11663.87
227.6385, 11660.58
228.1206, 11656.03
228.6027, 11650.15
229.0849, 11645.28
229.5670, 11644.70
230.0491, 11646.47
230.5312, 11645.12
231.0133, 11637.09
231.4954, 11627.04
231.9776, 11620.91
232.4597, 11619.39
232.9418, 11617.03
233.4239, 11609.44
233.9060, 11598.84
234.3881, 11588.11
234.8703, 11576.34
235.3524, 11566.11
235.8345, 11562.20
236.3166, 11566.34
236.7987, 11569.40
237.2808, 11565.87
237.7630, 11558.82
238.2451, 11551.26
238.7272, 11544.22
239.2093, 11536.85
239.6914, 11527.23
240.1735, 11514.20
240.6557, 11502.66
241.1378, 11496.26
241.6199, 11491.51
242.1020, 11484.74
242.5841, 11474.31
243.0662, 11462.83
243.5484, 11455.17
244.0305, 11453.15
244.5126, 11450.17
244.9947, 11444.59
245.4768, 11437.33
245.9589, 11428.60
246.4410, 11418.34
246.9232, 11407.88
247.4053, 11400.05
247.8874, 11397.41
248.3695, 11391.03
248.8516, 11374.83
249.3337, 11357.39
249.8159, 11346.07
250.2980, 11342.96
250.7801, 11343.38
251.2622, 11339.43
251.7443, 11329.12
252.2264, 11318.70
252.7086, 11307.89
253.1907, 11297.70
253.6728, 11289.06
254.1549, 11282.15
254.6370, 11276.02
255.1191, 11269.23
255.6013, 11261.45
256.0834, 11253.79
256.5655, 11246.74
257.0476, 11239.55
257.5297, 11231.06
258.0118, 11221.42
258.4940, 11212.29
258.9761, 11206.29
259.4582, 11205.63
259.9403, 11202.48
260.4224, 11195.98
260.9045, 11188.23
261.3867, 11179.46
261.8688, 11170.29
262.3509, 11162.78
262.8330, 11160.04
263.3151, 11165.34
263.7972, 11162.97
264.2794, 11147.04
264.7615, 11130.00
265.2436, 11118.40
265.7257, 11112.55
266.2078, 11109.27
266.6899, 11105.59
267.1721, 11101.35
267.6542, 11097.82
268.1363, 11095.71
268.6184, 11093.51
269.1005, 11092.00
269.5826, 11090.13
270.0648, 11084.51
270.5469, 11071.40
271.0290, 11050.36
271.5111, 11036.88
271.9932, 11036.61
272.4753, 11036.58
272.9575, 11030.06
273.4396, 11019.00
273.9217, 11010.24
274.4038, 11009.29
274.8859, 11014.90
275.3680, 11011.38
275.8501, 10988.73
276.3322, 10970.02
276.8144, 10965.00
277.2965, 10969.78
277.7786, 10976.36
278.2607, 10981.24
278.7428, 10983.40
279.2249, 10977.52
279.7071, 10955.29
280.1892, 10936.45
280.6713, 10929.44
281.1534, 10928.76
281.6355, 10924.02
282.1176, 10910.30
282.5998, 10891.65
283.0819, 10878.93
283.5640, 10874.50
284.0461, 10870.39
284.5282, 10864.40
285.0103, 10857.99
285.4925, 10853.81
285.9746, 10852.97
286.4567, 10853.04
286.9388, 10849.30
287.4209, 10840.02
287.9030, 10833.23
288.3852, 10831.97
288.8673, 10833.17
289.3494, 10833.60
289.8315, 10832.58
290.3136, 10829.74
290.7957, 10823.79
291.2779, 10814.06
291.7600, 10806.23
292.2421, 10802.36
292.7242, 10799.71
293.2063, 10795.56
293.6884, 10789.52
294.1706, 10783.13
294.6527, 10777.48
295.1348, 10772.69
295.6169, 10769.37
296.0990, 10767.71
296.5811, 10767.43
297.0633, 10770.27
297.5454, 10775.64
298.0275, 10777.43
298.5096, 10769.70
298.9917, 10754.39
299.4738, 10744.91
299.9560, 10744.43
300.4381, 10746.78
300.9202, 10748.88
301.4023, 10750.85
301.8844, 10753.63
302.3665, 10758.25
302.8487, 10763.56
303.3308, 10766.20
303.8129, 10764.90
304.2950, 10763.28
304.7771, 10763.10
305.2592, 10763.83
305.7414, 10763.92
306.2235, 10762.44
306.7056, 10760.75
307.1877, 10762.20
307.6698, 10767.87
308.1519, 10771.89
308.6341, 10771.16
309.1162, 10767.84
309.5983, 10765.58
310.0804, 10765.38
310.5625, 10766.15
311.0446, 10766.14
311.5268, 10765.17
312.0089, 10766.17
312.4910, 10770.20
312.9731, 10776.23
313.4552, 10783.89
313.9373, 10793.19
314.4195, 10801.71
314.9016, 10807.10
315.3837, 10809.41
315.8658, 10810.99
316.3479, 10812.57
316.8300, 10813.08
317.3121, 10810.23
317.7943, 10804.39
318.2764, 10800.54
318.7585, 10802.44
319.2406, 10809.26
319.7227, 10815.47
320.2048, 10823.29
320.6870, 10828.49
321.1691, 10827.21
321.6512, 10821.03
322.1333, 10815.54
322.6154, 10813.55
323.0975, 10813.66
323.5797, 10812.02
324.0618, 10806.52
324.5439, 10803.92
325.0260, 10809.03
325.5081, 10818.32
325.9902, 10825.12
326.4724, 10827.21
326.9545, 10826.73
327.4366, 10826.44
327.9187, 10826.00
328.4008, 10827.17
328.8829, 10833.84
329.3651, 10840.61
329.8472, 10840.06
330.3293, 10830.88
330.8114, 10819.52
331.2935, 10811.80
331.7756, 10808.07
332.2578, 10806.53
332.7399, 10808.70
333.2220, 10811.77
333.7041, 10812.03
334.1862, 10810.26
334.6683, 10813.20
335.1505, 10827.59
335.6326, 10850.77
336.1147, 10863.07
336.5968, 10859.74
337.0789, 10852.22
337.5610, 10844.69
338.0432, 10836.65
338.5253, 10825.99
339.0074, 10811.05
339.4895, 10794.63
339.9716, 10784.92
340.4537, 10785.17
340.9359, 10785.17
341.4180, 10783.57
341.9001, 10780.50
342.3822, 10776.03
342.8643, 10770.21
343.3464, 10763.17
343.8286, 10754.92
344.3107, 10744.83
344.7928, 10735.29
345.2749, 10725.04
345.7570, 10716.26
346.2391, 10711.31
346.7213, 10710.03
347.2034, 10709.89
347.6855, 10708.98
348.1676, 10707.31
348.6497, 10703.83
349.1318, 10698.23
349.6140, 10691.59
350.0961, 10684.65
350.5782, 10677.14
351.0603, 10667.48
351.5424, 10654.28
352.0245, 10639.45
352.5067, 10631.29
352.9888, 10636.28
353.4709, 10639.89
353.9530, 10640.26
354.4351, 10638.36
354.9172, 10635.50
355.3994, 10632.09
355.8815, 10624.84
356.3636, 10619.27
356.8457, 10606.07
357.3278, 10593.69
357.8099, 10579.45
358.2920, 10567.77
358.7741, 10564.59
359.2563, 10568.49
359.7384, 10570.84
360.2205, 10562.64
360.7026, 10542.47
361.1847, 10525.37
361.6668, 10512.43
362.1490, 10501.23
362.6311, 10492.33
363.1132, 10484.47
363.5953, 10475.67
364.0774, 10464.62
364.5595, 10451.90
365.0417, 10440.02
365.5238, 10431.48
366.0059, 10420.19
366.4880, 10400.30
366.9701, 10380.06
367.4522, 10369.56
367.9344, 10371.45
368.4165, 10376.84
368.8986, 10371.07
369.3807, 10348.79
369.8628, 10329.88
370.3449, 10319.30
370.8271, 10308.44
371.3092, 10291.79
371.7913, 10270.08
372.2734, 10248.01
372.7555, 10230.20
373.2376, 10216.51
373.7198, 10200.61
374.2019, 10178.52
374.6840, 10159.34
375.1661, 10149.33
375.6482, 10143.28
376.1303, 10132.98
376.6125, 10113.78
377.0946, 10089.40
377.5767, 10067.23
378.0588, 10046.52
378.5409, 10030.18
379.0230, 10024.17
379.5052, 10019.54
379.9873, 10008.65
380.4694, 9990.029
380.9515, 9969.493
381.4336, 9952.940
381.9157, 9940.232
382.3979, 9927.444
382.8800, 9914.640
383.3621, 9900.787
383.8442, 9884.783
384.3263, 9867.168
384.8084, 9849.500
385.2906, 9833.199
385.7727, 9817.475
386.2548, 9799.817
386.7369, 9779.353
387.2190, 9760.310
387.7011, 9747.424
388.1833, 9736.818
388.6654, 9722.434
389.1475, 9701.036
389.6296, 9679.558
390.1117, 9665.990
390.5938, 9659.021
391.0760, 9648.263
391.5581, 9629.229
392.0402, 9606.331
392.5223, 9586.067
393.0044, 9568.812
393.4865, 9550.079
393.9687, 9525.501
394.4508, 9499.274
394.9329, 9479.329
395.4150, 9467.105
395.8971, 9455.854
396.3792, 9438.731
396.8614, 9416.458
397.3435, 9398.132
397.8256, 9388.103
398.3077, 9378.355
398.7898, 9363.797
399.2719, 9344.968
399.7540, 9323.856
400.2361, 9300.791
400.7183, 9277.093
401.2004, 9257.291
401.6825, 9243.288
402.1646, 9229.044
402.6467, 9212.553
403.1288, 9195.729
403.6110, 9181.655
404.0931, 9170.885
404.5752, 9160.218
405.0573, 9146.109
405.5394, 9128.488
406.0215, 9107.564
406.5037, 9078.907
406.9858, 9051.726
407.4679, 9029.949
407.9500, 9013.337
408.4321, 9000.973
408.9142, 8992.671
409.3964, 8986.815
409.8785, 8975.814
410.3606, 8955.192
410.8427, 8934.793
411.3248, 8913.376
411.8069, 8893.562
412.2891, 8878.777
412.7712, 8869.449
413.2533, 8861.724
413.7354, 8850.558
414.2175, 8835.185
414.6996, 8819.097
415.1818, 8802.040
415.6639, 8784.576
416.1460, 8766.732
416.6281, 8748.608
417.1102, 8730.343
417.5923, 8711.190
418.0745, 8692.574
418.5566, 8679.760
419.0387, 8675.780
419.5208, 8671.105
420.0029, 8664.001
420.4850, 8654.379
420.9672, 8641.435
421.4493, 8624.926
421.9314, 8607.325
422.4135, 8590.648
422.8956, 8574.954
423.3777, 8561.065
423.8599, 8551.022
424.3420, 8540.186
424.8241, 8523.861
425.3062, 8503.596
425.7883, 8484.832
426.2704, 8470.345
426.7526, 8458.460
427.2347, 8447.233
427.7168, 8436.661
428.1989, 8425.793
428.6810, 8413.902
429.1631, 8401.577
429.6453, 8390.243
430.1274, 8380.396
430.6095, 8370.361
431.0916, 8359.784
431.5737, 8348.379
432.0558, 8334.623
432.5380, 8317.767
433.0201, 8301.438
433.5022, 8290.314
433.9843, 8285.224
434.4664, 8278.880
434.9485, 8270.530
435.4307, 8261.208
435.9128, 8251.557
436.3949, 8241.541
436.8770, 8230.687
437.3591, 8218.575
437.8412, 8205.737
438.3234, 8194.409
438.8055, 8187.352
439.2876, 8178.295
439.7697, 8162.948
440.2518, 8147.718
440.7339, 8140.875
441.2160, 8142.971
441.6982, 8145.389
442.1803, 8137.602
442.6624, 8117.599
443.1445, 8102.185
443.6266, 8094.399
444.1087, 8088.236
444.5909, 8082.945
445.0730, 8077.921
445.5551, 8072.878
446.0372, 8067.945
446.5193, 8061.732
447.0014, 8049.837
447.4836, 8028.651
447.9657, 8012.613
448.4478, 8009.451
448.9299, 8008.523
449.4120, 8002.990
449.8941, 7992.649
450.3763, 7982.007
450.8584, 7974.951
451.3405, 7970.515
451.8226, 7964.506
452.3047, 7955.968
452.7868, 7948.054
453.2690, 7944.302
453.7511, 7941.904
454.2332, 7936.669
454.7153, 7927.075
455.1974, 7915.724
455.6795, 7902.889
456.1617, 7889.607
456.6438, 7880.879
457.1259, 7879.391
457.6080, 7880.238
458.0901, 7877.219
458.5722, 7870.538
459.0544, 7862.648
459.5365, 7851.718
460.0186, 7841.482
460.5007, 7836.386
460.9828, 7835.680
461.4649, 7834.349
461.9471, 7829.322
462.4292, 7821.319
462.9113, 7813.049
463.3934, 7804.851
463.8755, 7795.975
464.3576, 7784.587
464.8398, 7773.295
465.3219, 7764.542
465.8040, 7758.842
466.2861, 7755.874
466.7682, 7755.983
467.2503, 7759.960
467.7325, 7758.891
468.2146, 7749.805
468.6967, 7738.603
469.1788, 7724.396
469.6609, 7709.680
470.1430, 7697.744
470.6252, 7690.013
471.1073, 7685.823
471.5894, 7685.626
472.0715, 7691.678
472.5536, 7691.875
473.0357, 7678.751
473.5179, 7664.119
474.0000, 7653.734
474.4821, 7647.757
474.9642, 7644.597
475.4463, 7645.166
475.9284, 7647.344
476.4106, 7646.409
476.8927, 7642.085
477.3748, 7636.293
477.8569, 7628.568
478.3390, 7620.599
478.8211, 7615.617
479.3033, 7615.015
479.7854, 7612.671
480.2675, 7602.968
480.7496, 7590.056
481.2317, 7581.856
481.7138, 7579.851
482.1959, 7579.891
482.6780, 7578.898
483.1602, 7576.716
483.6423, 7572.383
484.1244, 7563.569
484.6065, 7555.276
485.0886, 7550.089
485.5707, 7546.650
486.0529, 7542.313
486.5350, 7536.089
487.0171, 7529.458
487.4992, 7525.033
487.9813, 7524.029
488.4634, 7521.845
488.9456, 7518.466
489.4277, 7514.177
489.9098, 7508.681
490.3919, 7502.436
490.8740, 7496.438
491.3561, 7491.410
491.8383, 7486.772
492.3204, 7480.438
492.8025, 7470.925
493.2846, 7463.921
493.7667, 7463.319
494.2488, 7463.751
494.7310, 7462.218
495.2131, 7458.358
495.6952, 7452.566
496.1773, 7442.722
496.6594, 7431.366
497.1415, 7426.757
497.6237, 7430.620
498.1058, 7433.662
498.5879, 7429.750
499.0700, 7422.072
499.5521, 7416.840
500.0342, 7414.849
500.5164, 7414.052
500.9985, 7414.301
501.4806, 7414.821
501.9627, 7414.264
502.4448, 7412.359
502.9269, 7409.457
503.4091, 7405.749
503.8912, 7401.179
504.3733, 7396.810
504.8554, 7392.044
505.3375, 7388.132
505.8196, 7387.498
506.3018, 7387.419
506.7839, 7382.281
507.2660, 7370.406
507.7481, 7358.042
508.2302, 7355.700
508.7123, 7367.370
509.1945, 7374.590
509.6766, 7374.531
510.1587, 7372.789
510.6408, 7370.459
511.1229, 7368.124
511.6050, 7366.479
512.0872, 7365.933
512.5693, 7366.071
513.0514, 7366.381
513.5335, 7366.989
514.0156, 7366.788
514.4977, 7365.083
514.9799, 7362.913
515.4620, 7361.474
515.9441, 7360.544
516.4262, 7358.641
516.9083, 7354.170
517.3904, 7348.909
517.8726, 7345.123
518.3547, 7342.759
518.8368, 7340.798
519.3189, 7338.813
519.8010, 7336.851
520.2831, 7334.945
520.7653, 7332.604
521.2474, 7331.556
521.7295, 7334.747
522.2116, 7337.485
522.6937, 7334.139
523.1758, 7325.639
523.6580, 7318.142
524.1401, 7316.158
524.6222, 7318.804
525.1043, 7321.704
525.5864, 7328.071
526.0685, 7329.785
526.5507, 7320.593
527.0328, 7310.609
527.5149, 7309.552
527.9970, 7317.458
528.4791, 7325.903
528.9612, 7327.965
529.4434, 7324.237
529.9255, 7317.682
530.4076, 7307.003
530.8897, 7296.622
531.3718, 7286.632
531.8539, 7278.858
532.3361, 7276.102
532.8182, 7279.402
533.3003, 7283.552
533.7824, 7286.040
534.2645, 7286.804
534.7466, 7284.849
535.2288, 7279.787
535.7109, 7275.724
536.1930, 7276.555
536.6751, 7281.124
537.1572, 7282.165
537.6393, 7275.803
538.1215, 7270.947
538.6036, 7271.176
539.0857, 7273.774
539.5678, 7275.158
540.0499, 7274.679
540.5320, 7274.470
541.0142, 7277.042
541.4963, 7282.521
541.9784, 7285.798
542.4604, 7286.219
542.9426, 7284.919
543.4247, 7279.917
543.9068, 7274.348
544.3889, 7272.379
544.8710, 7274.929
545.3531, 7277.959
545.8353, 7276.448
546.3174, 7270.868
546.7995, 7267.018
547.2816, 7265.525
547.7637, 7265.080
548.2458, 7265.118
548.7280, 7265.627
549.2101, 7266.765
549.6922, 7268.927
550.1743, 7270.970
550.6564, 7272.170
551.1385, 7272.775
551.6207, 7273.658
552.1028, 7275.062
552.5849, 7275.299
553.0670, 7272.621
553.5491, 7267.016
554.0313, 7261.607
554.5134, 7255.060
554.9955, 7250.328
555.4776, 7249.238
555.9597, 7249.945
556.4418, 7250.063
556.9240, 7249.042
557.4061, 7248.327
557.8882, 7250.083
558.3703, 7254.470
558.8524, 7255.926
559.3345, 7253.017
559.8167, 7248.916
560.2988, 7244.220
560.7809, 7239.213
561.2630, 7234.089
561.7451, 7228.847
562.2272, 7223.836
562.7094, 7218.898
563.1915, 7214.384
563.6736, 7211.660
564.1557, 7211.017
564.6378, 7211.530
565.1199, 7213.662
565.6021, 7216.367
566.0842, 7215.458
566.5663, 7208.132
567.0484, 7201.339
567.5305, 7198.269
568.0126, 7196.726
568.4948, 7194.201
568.9769, 7190.183
569.4590, 7184.911
569.9411, 7178.423
570.4232, 7170.850
570.9053, 7164.784
571.3875, 7161.362
571.8696, 7157.993
572.3517, 7154.298
572.8338, 7150.443
573.3159, 7146.591
573.7980, 7142.748
574.2802, 7138.850
574.7623, 7134.909
575.2444, 7130.863
575.7265, 7126.249
576.2086, 7120.787
576.6907, 7115.984
577.1729, 7113.380
577.6550, 7111.417
578.1371, 7107.207
578.6192, 7099.896
579.1013, 7093.999
579.5834, 7093.422
580.0656, 7093.848
580.5477, 7089.641
581.0298, 7081.004
581.5119, 7072.040
581.9940, 7065.068
582.4761, 7060.167
582.9583, 7057.594
583.4404, 7057.616
583.9225, 7059.708
584.4046, 7068.987
584.8867, 7075.859
585.3688, 7072.686
585.8510, 7061.148
586.3331, 7048.080
586.8152, 7037.529
587.2973, 7028.522
587.7794, 7018.817
588.2615, 7008.132
588.7437, 6998.507
589.2258, 6990.656
589.7079, 6983.765
590.1900, 6978.466
590.6721, 6974.112
591.1542, 6966.180
591.6364, 6949.545
592.1185, 6932.066
592.6006, 6921.884
593.0827, 6916.678
593.5648, 6908.741
594.0469, 6895.175
594.5291, 6879.860
595.0112, 6868.045
595.4933, 6860.242
595.9754, 6853.954
596.4575, 6853.364
596.9396, 6849.548
597.4218, 6835.892
597.9039, 6818.310
598.3860, 6805.619
598.8681, 6800.708
599.3502, 6798.559
599.8323, 6793.214
600.3145, 6784.735
600.7966, 6776.023
601.2787, 6766.745
601.7608, 6758.128
602.2429, 6753.119
602.7250, 6748.456
603.2072, 6738.269
603.6893, 6719.327
604.1714, 6702.179
604.6535, 6693.764
605.1356, 6689.585
605.6177, 6683.725
606.0999, 6675.338
606.5820, 6664.971
607.0641, 6652.729
607.5462, 6639.239
608.0283, 6627.137
608.5104, 6616.308
608.9926, 6607.353
609.4747, 6603.622
609.9568, 6599.075
610.4389, 6588.211
610.9210, 6572.396
611.4031, 6557.417
611.8853, 6547.000
612.3674, 6539.558
612.8495, 6531.969
613.3316, 6524.214
613.8137, 6516.467
614.2958, 6510.454
614.7780, 6502.163
615.2601, 6484.492
615.7422, 6459.503
616.2243, 6440.534
616.7064, 6435.898
617.1885, 6432.509
617.6707, 6421.148
618.1528, 6405.096
618.6349, 6391.349
619.1170, 6381.943
619.5991, 6373.825
620.0812, 6363.307
620.5634, 6350.087
621.0455, 6338.308
621.5276, 6331.008
622.0097, 6321.321
622.4918, 6305.922
622.9739, 6288.621
623.4561, 6273.173
623.9382, 6260.420
624.4203, 6249.142
624.9023, 6239.146
625.3845, 6229.841
625.8666, 6219.614
626.3487, 6208.368
626.8308, 6196.944
627.3129, 6185.818
627.7950, 6174.602
628.2772, 6162.240
628.7593, 6148.537
629.2414, 6135.037
629.7235, 6122.627
630.2056, 6109.826
630.6877, 6094.048
631.1699, 6077.094
631.6520, 6063.660
632.1341, 6055.974
632.6162, 6050.463
633.0983, 6041.073
633.5804, 6027.054
634.0626, 6012.812
634.5447, 5998.571
635.0268, 5984.014
635.5089, 5969.151
635.9910, 5953.912
636.4731, 5938.142
636.9553, 5921.853
637.4374, 5905.124
637.9195, 5886.408
638.4016, 5867.908
638.8837, 5854.483
639.3658, 5846.554
639.8480, 5839.148
640.3301, 5829.358
640.8122, 5817.334
641.2943, 5803.473
641.7764, 5786.133
642.2585, 5769.280
642.7407, 5752.065
643.2228, 5736.080
643.7049, 5722.896
644.1870, 5711.733
644.6691, 5700.703
645.1512, 5689.055
645.6334, 5676.327
646.1155, 5661.422
646.5976, 5644.383
647.0797, 5627.291
647.5618, 5609.950
648.0439, 5593.934
648.5261, 5582.172
649.0082, 5572.762
649.4903, 5559.912
649.9724, 5540.904
650.4545, 5521.974
650.9366, 5506.286
651.4188, 5491.631
651.9009, 5474.946
652.3830, 5456.280
652.8651, 5438.295
653.3472, 5422.912
653.8293, 5409.823
654.3115, 5398.204
654.7936, 5389.553
655.2757, 5378.720
655.7578, 5362.997
656.2399, 5346.522
656.7220, 5332.547
657.2042, 5319.727
657.6863, 5303.579
658.1684, 5280.155
658.6505, 5256.318
659.1326, 5239.438
659.6147, 5227.342
660.0969, 5213.725
660.5790, 5197.269
661.0611, 5179.907
661.5432, 5163.091
662.0253, 5146.822
662.5074, 5131.318
662.9896, 5118.283
663.4717, 5103.798
663.9538, 5084.969
664.4359, 5066.494
664.9180, 5053.395
665.4001, 5044.483
665.8823, 5033.915
666.3644, 5017.562
666.8465, 4998.247
667.3286, 4980.667
667.8107, 4964.788
668.2928, 4949.205
668.7750, 4933.469
669.2571, 4918.514
669.7392, 4906.456
670.2213, 4896.596
670.7034, 4883.096
671.1855, 4862.462
671.6677, 4842.326
672.1498, 4825.206
672.6319, 4809.855
673.1140, 4795.120
673.5961, 4780.674
674.0782, 4766.419
674.5604, 4752.358
675.0425, 4738.131
675.5246, 4722.264
676.0067, 4704.320
676.4888, 4686.783
676.9709, 4670.240
677.4531, 4654.047
677.9352, 4637.687
678.4173, 4621.271
678.8994, 4605.278
679.3815, 4590.849
679.8636, 4575.601
680.3458, 4556.126
680.8279, 4535.729
681.3100, 4519.990
681.7921, 4509.591
682.2742, 4500.856
682.7563, 4491.168
683.2385, 4480.180
683.7206, 4465.924
684.2027, 4447.100
684.6848, 4427.851
685.1669, 4406.939
685.6490, 4387.406
686.1312, 4371.716
686.6133, 4358.952
687.0954, 4346.133
687.5775, 4332.204
688.0596, 4317.869
688.5417, 4303.616
689.0239, 4289.523
689.5060, 4276.238
689.9881, 4263.755
690.4702, 4250.473
690.9523, 4234.924
691.4344, 4217.587
691.9166, 4200.455
692.3987, 4182.570
692.8808, 4166.504
693.3629, 4154.121
693.8450, 4141.952
694.3271, 4127.502
694.8093, 4111.458
695.2914, 4096.103
695.7735, 4082.582
696.2556, 4069.546
696.7377, 4055.398
697.2198, 4040.441
697.7020, 4025.706
698.1841, 4011.493
698.6662, 3996.434
699.1483, 3979.139
699.6304, 3960.539
700.1125, 3944.450
700.5947, 3932.864
701.0768, 3920.954
701.5589, 3908.818
702.0410, 3896.258
702.5231, 3883.228
703.0052, 3869.721
703.4874, 3855.367
703.9695, 3840.011
704.4516, 3824.727
704.9337, 3811.406
705.4158, 3799.596
705.8979, 3786.748
706.3801, 3772.492
706.8622, 3758.401
707.3442, 3745.665
707.8264, 3733.372
708.3085, 3718.761
708.7906, 3699.527
709.2727, 3683.849
709.7548, 3675.628
710.2369, 3667.667
710.7191, 3656.065
711.2012, 3641.584
711.6833, 3625.682
712.1654, 3608.867
712.6475, 3592.648
713.1296, 3579.293
713.6118, 3568.172
714.0939, 3555.142
714.5760, 3539.851
715.0581, 3524.563
715.5402, 3509.551
716.0223, 3496.131
716.5045, 3487.592
716.9866, 3485.295
717.4687, 3479.430
717.9508, 3467.087
718.4329, 3453.258
718.9150, 3439.597
719.3972, 3426.365
719.8793, 3413.543
720.3614, 3401.179
720.8435, 3389.472
721.3256, 3379.413
721.8077, 3369.961
722.2899, 3356.336
722.7720, 3337.719
723.2541, 3321.008
723.7362, 3308.901
724.2183, 3298.869
724.7004, 3288.117
725.1826, 3276.606
725.6647, 3266.289
726.1468, 3259.784
726.6289, 3251.442
727.1110, 3236.242
727.5931, 3219.898
728.0753, 3209.790
728.5574, 3206.042
729.0395, 3203.239
729.5216, 3197.973
730.0037, 3190.094
730.4858, 3178.219
730.9680, 3162.181
731.4501, 3147.512
731.9322, 3135.217
732.4143, 3124.642
732.8964, 3116.000
733.3785, 3108.750
733.8607, 3100.032
734.3428, 3089.035
734.8249, 3077.907
735.3070, 3066.421
735.7891, 3055.435
736.2712, 3045.651
736.7534, 3036.934
737.2355, 3028.822
737.7176, 3021.049
738.1997, 3013.348
738.6818, 3005.249
739.1639, 2996.808
739.6461, 2988.415
740.1282, 2980.178
740.6103, 2971.841
741.0924, 2963.490
741.5745, 2954.846
742.0566, 2945.109
742.5388, 2933.816
743.0209, 2923.130
743.5030, 2913.711
743.9851, 2904.445
744.4672, 2894.022
744.9493, 2883.645
745.4315, 2875.365
745.9136, 2869.684
746.3957, 2864.914
746.8778, 2859.990
747.3599, 2854.647
747.8420, 2847.598
748.3242, 2838.763
748.8063, 2831.145
749.2884, 2826.197
749.7705, 2821.704
750.2526, 2814.787
750.7347, 2805.273
751.2169, 2797.026
751.6990, 2792.044
752.1811, 2785.649
752.6632, 2774.845
753.1453, 2763.590
753.6274, 2755.829
754.1096, 2751.267
754.5917, 2746.796
755.0738, 2740.771
755.5559, 2733.722
756.0380, 2725.931
756.5201, 2717.679
757.0023, 2710.381
757.4844, 2704.267
757.9665, 2698.898
758.4486, 2694.276
758.9307, 2689.843
759.4128, 2683.512
759.8950, 2671.388
760.3771, 2664.525
760.8592, 2668.617
761.3413, 2671.611
761.8234, 2667.179
762.3055, 2658.100
762.7877, 2648.648
763.2698, 2639.940
763.7519, 2632.554
764.2340, 2627.530
764.7161, 2623.783
765.1982, 2619.963
765.6804, 2615.872
766.1625, 2610.884
766.6446, 2604.676
767.1267, 2598.344
767.6088, 2593.611
768.0909, 2586.915
768.5731, 2585.223
769.0552, 2575.031
769.5373, 2566.552
770.0194, 2561.485
770.5015, 2558.332
770.9836, 2557.127
771.4658, 2557.145
771.9479, 2555.406
772.4300, 2549.953
772.9121, 2543.683
773.3942, 2538.337
773.8763, 2533.630
774.3585, 2528.845
774.8406, 2524.104
775.3227, 2520.894
775.8048, 2520.448
776.2869, 2520.887
776.7690, 2517.341
777.2512, 2509.067
777.7333, 2501.811
778.2154, 2495.947
778.6975, 2491.140
779.1796, 2488.089
779.6617, 2485.637
780.1439, 2481.658
780.6260, 2475.573
781.1081, 2470.347
781.5902, 2467.177
782.0723, 2464.569
782.5544, 2461.739
783.0366, 2458.702
783.5187, 2455.731
784.0008, 2452.822
784.4829, 2449.447
784.9650, 2444.947
785.4471, 2439.708
785.9293, 2434.987
786.4114, 2430.808
786.8935, 2426.217
787.3756, 2420.465
787.8577, 2415.927
788.3398, 2415.489
788.8220, 2418.475
789.3040, 2419.073
789.7861, 2415.871
790.2682, 2412.466
790.7504, 2408.833
791.2325, 2405.354
791.7146, 2402.417
792.1967, 2399.787
792.6788, 2396.882
793.1609, 2393.474
793.6431, 2390.012
794.1252, 2387.543
794.6073, 2385.006
795.0894, 2379.359
795.5715, 2371.167
796.0536, 2365.843
796.5358, 2365.833
797.0179, 2366.990
797.5000, 2363.287
797.9821, 2354.395
798.4642, 2348.048
798.9464, 2345.587
799.4285, 2343.184
799.9106, 2340.290
800.3927, 2336.821
800.8748, 2332.297
801.3569, 2327.035
801.8391, 2322.577
802.3212, 2319.939
802.8033, 2317.323
803.2854, 2313.959
803.7675, 2310.067
804.2496, 2305.319
804.7318, 2300.251
805.2139, 2296.773
805.6960, 2296.066
806.1781, 2295.796
806.6602, 2291.578
807.1423, 2283.813
807.6245, 2278.649
808.1066, 2277.031
808.5887, 2274.119
809.0708, 2267.046
809.5529, 2258.595
810.0350, 2253.107
810.5172, 2251.197
810.9993, 2248.281
811.4814, 2244.612
811.9635, 2239.667
812.4456, 2232.806
812.9277, 2224.976
813.4099, 2216.270
813.8920, 2207.379
814.3741, 2200.456
814.8562, 2197.237
815.3383, 2194.999
815.8204, 2191.007
816.3026, 2185.880
816.7847, 2181.157
817.2668, 2176.900
817.7489, 2171.739
818.2310, 2164.771
818.7131, 2157.127
819.1953, 2151.089
819.6774, 2146.932
820.1595, 2142.687
820.6416, 2139.086
821.1237, 2133.883
821.6058, 2125.017
822.0880, 2114.975
822.5701, 2106.281
823.0522, 2098.950
823.5343, 2092.739
824.0164, 2089.007
824.4985, 2084.746
824.9807, 2078.199
825.4628, 2070.704
825.9449, 2063.680
826.4270, 2057.251
826.9091, 2050.942
827.3912, 2044.479
827.8734, 2037.915
828.3555, 2030.964
828.8376, 2023.924
829.3197, 2018.539
829.8018, 2015.004
830.2839, 2010.352
830.7661, 2003.019
831.2482, 1994.069
831.7303, 1984.867
832.2124, 1975.095
832.6945, 1967.772
833.1766, 1965.657
833.6588, 1962.064
834.1409, 1954.311
834.6230, 1945.581
835.1051, 1938.589
835.5872, 1933.055
836.0693, 1926.641
836.5515, 1917.461
837.0336, 1909.170
837.5157, 1904.906
837.9978, 1901.804
838.4799, 1896.108
838.9620, 1888.347
839.4442, 1881.665
839.9263, 1877.564
840.4084, 1873.992
840.8905, 1867.888
841.3726, 1859.790
841.8547, 1852.773
842.3369, 1846.943
842.8190, 1842.079
843.3011, 1838.515
843.7832, 1834.882
844.2653, 1829.606
844.7474, 1822.705
845.2296, 1815.507
845.7117, 1807.367
846.1938, 1799.907
846.6759, 1793.771
847.1580, 1787.819
847.6401, 1781.219
848.1223, 1774.238
848.6044, 1767.399
849.0865, 1760.663
849.5686, 1754.872
850.0507, 1750.998
850.5328, 1747.851
851.0150, 1744.758
851.4971, 1741.258
851.9792, 1736.222
852.4613, 1729.498
852.9434, 1722.626
853.4255, 1717.372
853.9077, 1713.016
854.3898, 1706.970
854.8719, 1699.224
855.3540, 1693.066
855.8361, 1689.547
856.3182, 1685.958
856.8004, 1680.091
857.2825, 1672.780
857.7646, 1666.673
858.2467, 1662.251
858.7288, 1658.026
859.2109, 1654.444
859.6931, 1650.532
860.1752, 1645.391
860.6573, 1640.035
861.1394, 1636.082
861.6215, 1633.569
862.1036, 1630.048
862.5858, 1623.580
863.0679, 1616.772
863.5500, 1611.407
864.0321, 1606.833
864.5142, 1601.920
864.9963, 1596.773
865.4785, 1592.934
865.9606, 1591.474
866.4427, 1590.335
866.9248, 1585.780
867.4069, 1578.618
867.8890, 1573.451
868.3712, 1570.620
868.8533, 1567.151
869.3354, 1561.620
869.8175, 1555.535
870.2996, 1550.974
870.7817, 1547.938
871.2639, 1544.784
871.7459, 1540.649
872.2280, 1537.921
872.7101, 1539.866
873.1923, 1540.664
873.6744, 1535.901
874.1565, 1527.418
874.6386, 1519.613
875.1207, 1513.077
875.6028, 1507.730
876.0850, 1504.694
876.5671, 1501.775
877.0492, 1496.984
877.5313, 1491.301
878.0134, 1486.450
878.4955, 1482.851
878.9777, 1479.962
879.4598, 1478.014
879.9419, 1475.757
880.4240, 1469.978
880.9061, 1462.042
881.3882, 1457.650
881.8704, 1457.492
882.3525, 1456.942
882.8346, 1453.005
883.3167, 1447.267
883.7988, 1443.191
884.2809, 1441.128
884.7631, 1437.961
885.2452, 1433.400
885.7273, 1428.355
886.2094, 1422.444
886.6915, 1416.885
887.1736, 1413.427
887.6558, 1411.886
888.1379, 1409.286
888.6200, 1404.303
889.1021, 1400.007
889.5842, 1397.417
890.0663, 1395.192
890.5485, 1392.567
891.0306, 1389.570
891.5127, 1386.562
891.9948, 1383.651
892.4769, 1380.116
892.9590, 1374.731
893.4412, 1369.129
893.9233, 1365.588
894.4054, 1363.058
894.8875, 1358.969
895.3696, 1353.066
895.8517, 1347.439
896.3339, 1343.597
896.8160, 1341.219
897.2981, 1340.400
897.7802, 1340.828
898.2623, 1339.121
898.7444, 1334.860
899.2266, 1329.820
899.7087, 1324.631
900.1908, 1319.592
900.6729, 1315.211
901.1550, 1311.532
901.6371, 1307.411
902.1193, 1302.664
902.6014, 1297.747
903.0835, 1291.525
903.5656, 1286.366
904.0477, 1285.042
904.5298, 1285.880
905.0120, 1284.606
905.4941, 1280.400
905.9762, 1275.189
906.4583, 1268.128
906.9404, 1261.617
907.4225, 1257.716
907.9047, 1255.010
908.3868, 1251.396
908.8689, 1246.653
909.3510, 1242.042
909.8331, 1238.257
910.3152, 1235.040
910.7974, 1232.761
911.2795, 1230.576
911.7616, 1226.477
912.2437, 1220.763
912.7258, 1215.667
913.2079, 1212.248
913.6901, 1209.619
914.1722, 1206.797
914.6543, 1203.714
915.1364, 1199.194
915.6185, 1193.082
916.1006, 1190.623
916.5828, 1194.159
917.0649, 1196.640
917.5470, 1191.717
918.0291, 1181.585
918.5112, 1174.381
918.9933, 1171.805
919.4755, 1167.631
919.9576, 1160.347
920.4397, 1153.642
920.9218, 1149.106
921.4039, 1145.799
921.8860, 1143.232
922.3682, 1141.304
922.8503, 1138.301
923.3324, 1133.682
923.8145, 1128.381
924.2966, 1121.131
924.7787, 1114.668
925.2609, 1111.420
925.7430, 1110.598
926.2251, 1110.907
926.7072, 1112.043
927.1893, 1111.359
927.6714, 1105.650
928.1536, 1098.582
928.6357, 1093.374
929.1178, 1089.742
929.5999, 1087.350
930.0820, 1085.795
930.5641, 1083.917
931.0463, 1080.990
931.5284, 1077.312
932.0105, 1072.910
932.4926, 1068.164
932.9747, 1064.880
933.4568, 1063.073
933.9390, 1061.225
934.4211, 1058.829
934.9032, 1055.889
935.3853, 1052.403
935.8674, 1048.381
936.3495, 1043.685
936.8317, 1037.955
937.3138, 1033.085
937.7959, 1029.232
938.2780, 1026.419
938.7601, 1025.275
939.2422, 1024.626
939.7244, 1022.171
940.2065, 1017.425
940.6886, 1013.723
941.1707, 1012.370
941.6528, 1010.208
942.1349, 1004.997
942.6171, 1000.246
943.0992, 999.7858
943.5813, 1001.698
944.0634, 1000.590
944.5455, 994.5066
945.0276, 988.9305
945.5098, 986.2819
945.9919, 984.2477
946.4740, 981.3923
946.9561, 978.1981
947.4382, 975.4312
947.9203, 973.1701
948.4025, 971.0142
948.8846, 968.8209
949.3667, 966.4793
949.8488, 963.6210
950.3309, 960.6795
950.8130, 958.4482
951.2952, 956.7410
951.7773, 954.7121
952.2594, 952.1046
952.7415, 949.5196
953.2236, 947.5051
953.7057, 945.9352
954.1878, 944.7393
954.6699, 943.7787
955.1520, 942.0905
955.6342, 939.5306
956.1163, 936.4817
956.5984, 933.0184
957.0805, 929.8585
957.5626, 928.3303
958.0447, 928.3867
958.5269, 927.8190
959.0090, 926.7040
959.4911, 924.4436
959.9732, 920.2521
960.4553, 916.4508
960.9374, 915.1151
961.4196, 915.2817
961.9017, 914.2048
962.3838, 911.3638
962.8659, 908.8629
963.3480, 906.7983
963.8301, 904.9393
964.3123, 902.9841
964.7944, 901.3846
965.2765, 900.8929
965.7586, 901.1625
966.2407, 900.6337
966.7228, 898.9607
967.2050, 896.7923
967.6871, 893.9581
968.1692, 890.9983
968.6513, 887.7686
969.1334, 884.8758
969.6155, 883.4128
970.0977, 883.2761
970.5798, 882.7922
971.0619, 881.0909
971.5440, 879.1063
972.0261, 877.6057
972.5082, 875.9862
972.9904, 873.1400
973.4725, 869.7485
973.9546, 867.5167
974.4367, 866.8793
974.9188, 866.5578
975.4009, 865.6007
975.8831, 864.3400
976.3652, 863.1612
976.8473, 862.0321
977.3294, 861.0026
977.8115, 859.9705
978.2936, 858.3219
978.7758, 855.7611
979.2579, 853.5113
979.7400, 853.5052
980.2221, 854.8864
980.7042, 854.7237
981.1863, 853.1847
981.6685, 851.6211
982.1506, 850.3098
982.6327, 848.5795
983.1148, 845.9416
983.5969, 842.9265
984.0790, 840.5140
984.5612, 838.7130
985.0433, 837.1782
985.5254, 835.9471
986.0075, 834.7416
986.4896, 833.4329
986.9717, 832.2151
987.4539, 831.0303
987.9360, 830.2574
988.4181, 831.4457
988.9002, 836.0353
989.3823, 837.3176
989.8644, 833.8889
990.3466, 829.7589
990.8287, 825.2528
991.3108, 821.5481
991.7929, 820.4427
992.2750, 821.3059
992.7571, 820.3437
993.2393, 816.2694
993.7214, 812.7200
994.2035, 809.0392
994.6856, 806.7275
995.1677, 807.9102
995.6498, 809.6902
996.1320, 808.4831
996.6141, 804.6425
997.0962, 802.0158
997.5783, 802.4021
998.0604, 802.2466
998.5425, 800.0598
999.0247, 797.6845
999.5068, 796.4093
999.9889, 795.6136
1000.471, 794.1137
1000.953, 791.8969
1001.435, 790.4530
1001.917, 791.2060
1002.399, 791.6378
1002.882, 789.6998
1003.364, 787.4103
1003.846, 787.0433
1004.328, 787.6749
1004.810, 787.2717
1005.292, 785.3461
1005.774, 782.6955
1006.256, 779.0844
1006.739, 775.9404
1007.221, 775.3212
1007.703, 775.5734
1008.185, 773.5458
1008.667, 770.2801
1009.149, 769.9994
1009.631, 773.9058
1010.113, 777.6542
1010.595, 777.8565
1011.078, 775.2034
1011.560, 768.8523
1012.042, 760.9932
1012.524, 757.1161
1013.006, 757.1815
1013.488, 757.7596
1013.970, 757.3195
1014.452, 756.2589
1014.935, 754.7502
1015.417, 753.1676
1015.899, 752.7286
1016.381, 753.1142
1016.863, 752.8273
1017.345, 751.6759
1017.827, 750.2421
1018.309, 748.8323
1018.791, 747.1448
1019.274, 744.3895
1019.756, 741.1104
1020.238, 740.2961
1020.720, 741.8431
1021.202, 742.9144
1021.684, 743.0381
1022.166, 742.2281
1022.648, 740.3786
1023.130, 738.1642
1023.613, 736.7345
1024.095, 734.9922
1024.577, 733.2484
1025.059, 732.2244
1025.541, 730.4935
1026.023, 729.6465
1026.505, 729.4484
1026.987, 729.9935
1027.469, 730.5411
1027.952, 729.5502
1028.434, 729.1262
1028.916, 728.4352
1029.398, 726.3388
1029.880, 725.9670
1030.362, 723.4423
1030.844, 720.8831
1031.326, 719.8897
1031.809, 717.4141
1032.291, 717.6736
1032.773, 714.0547
1033.255, 711.6909
1033.737, 710.9027
1034.219, 710.7484
1034.701, 711.5670
1035.183, 712.1718
1035.666, 711.2353
1036.148, 709.8959
1036.630, 711.0151
1037.112, 715.6258
1037.594, 716.8011
1038.076, 711.7904
1038.558, 707.7242
1039.040, 706.2098
1039.522, 705.5505
1040.005, 704.9212
1040.487, 704.3002
1040.969, 703.7390
1041.451, 703.3611
1041.933, 702.3627
1042.415, 700.0179
1042.897, 698.0497
1043.379, 697.3190
1043.861, 696.5273
1044.344, 694.1649
1044.826, 691.3859
1045.308, 690.8408
1045.790, 693.2114
1046.272, 694.1475
1046.754, 691.9289
1047.236, 689.9852
1047.718, 689.5212
1048.201, 689.2471
1048.683, 688.2355
1049.165, 686.7761
1049.647, 685.2296
1050.129, 683.5355
1050.611, 683.0623
1051.093, 685.6087
1051.575, 687.3026
1052.057, 685.9596
1052.540, 684.3521
1053.022, 684.8033
1053.504, 686.3239
1053.986, 687.2629
1054.468, 687.4117
1054.950, 685.7899
1055.432, 679.8722
1055.914, 675.2193
1056.396, 674.3287
1056.879, 674.8151
1057.361, 675.4422
1057.843, 675.9363
1058.325, 676.1656
1058.807, 676.1044
1059.289, 675.5898
1059.771, 674.4570
1060.253, 673.0190
1060.736, 671.1708
1061.218, 669.2784
1061.700, 667.4406
1062.182, 665.8225
1062.664, 664.7676
1063.146, 664.2758
1063.628, 663.6729
1064.110, 662.1696
1064.593, 661.2813
1065.075, 662.6468
1065.557, 663.8585
1066.039, 662.7635
1066.521, 660.4241
1067.003, 658.6258
1067.485, 657.5964
1067.967, 656.3916
1068.449, 654.1110
1068.932, 652.5574
1069.414, 653.0489
1069.896, 654.0513
1070.378, 654.7797
1070.860, 655.0646
1071.342, 654.6614
1071.824, 653.6566
1072.306, 652.6604
1072.788, 651.8918
1073.271, 651.1677
1073.753, 650.5818
1074.235, 649.8184
1074.717, 648.3126
1075.199, 646.6992
1075.681, 645.8588
1076.163, 645.7689
1076.645, 645.7171
1077.127, 645.3474
1077.610, 645.3580
1078.092, 647.0751
1078.574, 648.1877
1079.056, 646.5807
1079.538, 643.8746
1080.020, 641.8160
1080.502, 640.5784
1080.984, 639.8263
1081.467, 639.5441
1081.949, 639.3226
1082.431, 638.7848
1082.913, 638.4747
1083.395, 639.1375
1083.877, 639.8824
1084.359, 639.6521
1084.841, 638.6736
1085.323, 637.6100
1085.806, 636.5316
1086.288, 636.4293
1086.770, 639.5011
1087.252, 641.4394
1087.734, 638.6656
1088.216, 634.8957
1088.698, 633.8595
1089.180, 634.5674
1089.662, 634.1639
1090.145, 632.0497
1090.627, 630.5758
1091.109, 630.8326
1091.591, 631.6221
1092.073, 633.1885
1092.555, 634.3603
1093.037, 633.8279
1093.519, 632.4249
1094.002, 631.7357
1094.484, 631.9102
1094.966, 631.5375
1095.448, 629.7185
1095.930, 627.9669
1096.412, 626.8527
1096.894, 625.8786
1097.376, 624.6932
1097.859, 623.4619
1098.341, 622.1437
1098.823, 620.9280
1099.305, 620.8645
1099.787, 623.0047
1100.269, 624.6068
1100.751, 625.4647
1101.233, 625.0278
1101.715, 621.5110
1102.198, 617.7189
1102.680, 617.1567
1103.162, 618.9918
1103.644, 619.2675
1104.126, 616.6158
1104.608, 614.9657
1105.090, 615.8300
1105.572, 616.7366
1106.054, 616.7468
1106.537, 616.5403
1107.019, 616.7761
1107.501, 617.2164
1107.983, 617.1318
1108.465, 617.3152
1108.947, 617.5922
1109.429, 617.0675
1109.911, 617.5714
1110.394, 616.8503
1110.876, 615.6552
1111.358, 613.8321
1111.840, 612.0995
1112.322, 611.9127
1112.804, 613.3973
1113.286, 613.9705
1113.768, 612.6454
1114.250, 612.0549
1114.733, 612.9486
1115.215, 613.8327
1115.697, 614.2864
1116.179, 614.2139
1116.661, 613.1650
1117.143, 611.3992
1117.625, 610.9182
1118.107, 612.8566
1118.589, 613.2803
1119.072, 610.9761
1119.554, 609.6234
1120.036, 610.9792
1120.518, 612.6518
1121.000, 612.4532
1121.482, 613.1134
1121.964, 613.1119
1122.446, 612.1929
1122.929, 612.0222
1123.411, 609.8137
1123.893, 607.9817
1124.375, 606.9641
1124.857, 606.6718
1125.339, 607.1870
1125.821, 608.1070
1126.303, 608.8137
1126.786, 609.2861
1127.268, 609.1083
1127.750, 608.2095
1128.232, 607.2397
1128.714, 606.2451
1129.196, 605.5142
1129.678, 605.1920
1130.160, 605.1312
1130.642, 605.1570
1131.125, 605.3287
1131.607, 606.1026
1132.089, 607.3912
1132.571, 607.2073
1133.053, 605.5069
1133.535, 605.0052
1134.017, 606.5298
1134.499, 608.2098
1134.981, 608.5920
1135.464, 608.2746
1135.946, 608.5128
1136.428, 608.9586
1136.910, 607.7229
1137.392, 605.3514
1137.874, 604.8156
1138.356, 606.4171
1138.838, 608.0243
1139.321, 608.5481
1139.803, 608.6420
1140.285, 608.8423
1140.767, 609.2963
1141.249, 610.8750
1141.731, 612.6804
1142.213, 612.4084
1142.695, 610.4236
1143.177, 608.5677
1143.660, 607.4889
1144.142, 607.0695
1144.624, 607.3611
1145.106, 607.9532
1145.588, 608.7787
1146.070, 609.3680
1146.552, 608.6140
1147.034, 607.4053
1147.516, 607.3843
1147.999, 608.6826
1148.481, 610.6141
1148.963, 613.1194
1149.445, 614.7964
1149.927, 613.8395
1150.409, 612.7763
1150.891, 612.9174
1151.373, 614.3265
1151.856, 618.0880
1152.338, 622.8029
1152.820, 625.3392
1153.302, 625.0482
1153.784, 624.5980
1154.266, 625.2716
1154.748, 625.3753
1155.230, 624.0258
1155.713, 622.3016
1156.195, 620.6307
1156.677, 619.1391
1157.159, 617.3880
1157.641, 615.7188
1158.123, 616.4817
1158.605, 621.8082
1159.087, 625.4742
1159.569, 625.2824
1160.052, 625.9568
1160.534, 631.2336
1161.016, 634.9543
1161.498, 631.1180
1161.980, 623.3437
1162.462, 619.5947
1162.944, 620.2604
1163.426, 620.6666
1163.908, 620.7103
1164.391, 620.6487
1164.873, 620.0876
1165.355, 620.8593
1165.837, 624.3819
1166.319, 628.1362
1166.801, 628.9521
1167.283, 627.7138
1167.765, 628.1584
1168.247, 630.3464
1168.730, 632.5623
1169.212, 634.7565
1169.694, 635.6280
1170.176, 634.7839
1170.658, 634.1915
1171.140, 635.2560
1171.622, 636.9728
1172.104, 637.6912
1172.587, 637.7571
1173.069, 638.3542
1173.551, 639.3362
1174.033, 640.1929
1174.515, 640.8524
1174.997, 641.2983
1175.479, 641.5582
1175.961, 641.9590
1176.443, 642.6455
1176.926, 643.8922
1177.408, 647.0751
1177.890, 650.2727
1178.372, 649.9774
1178.854, 647.7782
1179.336, 646.8834
1179.818, 647.7520
1180.300, 649.5224
1180.782, 651.9811
1181.265, 654.1263
1181.747, 655.1717
1182.229, 655.9131
1182.711, 656.7925
1183.193, 657.6826
1183.675, 658.2360
1184.157, 658.7889
1184.639, 659.9462
1185.122, 661.7923
1185.604, 664.0735
1186.086, 668.2419
1186.568, 670.4114
1187.050, 667.4216
1187.532, 665.4431
1188.014, 668.1748
1188.496, 672.1036
1188.979, 673.8864
1189.461, 674.2971
1189.943, 675.6234
1190.425, 678.1911
1190.907, 679.6625
1191.389, 679.5698
1191.871, 679.6517
1192.353, 680.1310
1192.835, 680.9202
1193.318, 681.9049
1193.800, 683.4248
1194.282, 686.0299
1194.764, 689.3452
1195.246, 691.9969
1195.728, 693.9797
1196.210, 694.6164
1196.692, 693.9933
1197.174, 694.6766
1197.657, 697.2452
1198.139, 700.1491
1198.621, 702.4507
1199.103, 704.2498
1199.585, 705.2020
1200.067, 706.0908
1200.549, 709.0894
1201.031, 713.0299
1201.514, 715.2136
1201.996, 715.9150
1202.478, 716.6274
1202.960, 717.8890
1203.442, 720.0189
1203.924, 723.5732
1204.406, 726.9333
1204.888, 728.9528
1205.370, 730.1813
1205.853, 730.4036
1206.335, 730.5955
1206.817, 731.8770
1207.299, 734.1163
1207.781, 737.1042
1208.263, 740.9473
1208.745, 742.7493
1209.227, 738.6012
1209.709, 737.1555
1210.192, 741.9717
1210.674, 747.8019
1211.156, 753.2070
1211.638, 757.3204
1212.120, 758.5264
1212.602, 757.8610
1213.084, 759.3903
1213.566, 763.7157
1214.049, 767.2001
1214.531, 769.7369
1215.013, 771.7634
1215.495, 773.2406
1215.977, 774.9206
1216.459, 777.3259
1216.941, 779.2914
1217.423, 778.9612
1217.906, 782.0616
1218.388, 780.7416
1218.870, 786.9274
1219.352, 791.8289
1219.834, 795.2756
1220.316, 797.3671
1220.798, 798.5078
1221.280, 801.0420
1221.762, 806.3124
1222.245, 811.5873
1222.727, 813.6797
1223.209, 814.7737
1223.691, 817.3951
1224.173, 820.5232
1224.655, 822.5898
1225.137, 824.1456
1225.619, 826.6053
1226.101, 830.0324
1226.584, 833.2797
1227.066, 836.0401
1227.548, 838.2798
1228.030, 839.6989
1228.512, 840.9698
1228.994, 841.2288
1229.476, 842.5875
1229.958, 847.9742
1230.441, 854.9407
1230.923, 858.9210
1231.405, 860.0326
1231.887, 861.9618
1232.369, 864.8349
1232.851, 868.0609
1233.333, 871.4547
1233.815, 875.9960
1234.297, 882.3156
1234.780, 888.3347
1235.262, 892.5349
1235.744, 895.7145
1236.226, 899.3928
1236.708, 903.1484
1237.190, 904.7748
1237.672, 904.9041
1238.154, 906.1369
1238.636, 908.8010
1239.119, 913.5477
1239.601, 920.0787
1240.083, 925.0778
1240.565, 926.1276
1241.047, 926.6645
1241.529, 929.9556
1242.011, 934.3793
1242.493, 938.6098
1242.975, 942.8671
1243.458, 947.8685
1243.940, 953.0571
1244.422, 956.9677
1244.904, 959.5195
1245.386, 962.6277
1245.868, 967.5567
1246.350, 971.6381
1246.832, 972.8147
1247.315, 975.3055
1247.797, 981.9338
1248.279, 988.5939
1248.761, 992.0651
1249.243, 994.0172
1249.725, 997.4445
1250.207, 1002.268
1250.689, 1007.507
1251.172, 1013.241
1251.654, 1018.238
1252.136, 1022.381
1252.618, 1026.676
1253.100, 1031.426
1253.582, 1036.483
1254.064, 1041.775
1254.546, 1046.737
1255.028, 1049.952
1255.510, 1055.103
1255.993, 1057.716
1256.475, 1063.849
1256.957, 1068.995
1257.439, 1073.233
1257.921, 1077.376
1258.403, 1081.565
1258.885, 1085.349
1259.367, 1088.210
1259.850, 1091.881
1260.332, 1097.485
1260.814, 1103.667
1261.296, 1110.102
1261.778, 1116.572
1262.260, 1122.765
1262.742, 1129.016
1263.224, 1136.072
1263.707, 1143.771
1264.189, 1150.298
1264.671, 1155.426
1265.153, 1160.030
1265.635, 1163.763
1266.117, 1168.610
1266.599, 1175.178
1267.081, 1181.848
1267.563, 1187.755
1268.046, 1193.003
1268.528, 1197.653
1269.010, 1201.986
1269.492, 1206.112
1269.974, 1210.712
1270.456, 1218.153
1270.938, 1227.485
1271.420, 1236.094
1271.902, 1243.568
1272.385, 1250.734
1272.867, 1257.902
1273.349, 1263.966
1273.831, 1267.148
1274.313, 1270.666
1274.795, 1275.986
1275.277, 1282.409
1275.759, 1290.194
1276.242, 1298.307
1276.724, 1305.619
1277.206, 1312.349
1277.688, 1319.271
1278.170, 1326.523
1278.652, 1332.476
1279.134, 1336.120
1279.616, 1342.592
1280.099, 1353.226
1280.581, 1361.935
1281.063, 1366.220
1281.545, 1370.826
1282.027, 1379.684
1282.509, 1390.392
1282.991, 1397.527
1283.473, 1404.095
1283.955, 1416.815
##END=



