##NAMES=Fernandinite
##RRUFFID=R070694
##IDEAL CHEMISTRY=(Ca,Na,K)_0.9_(V^5+^,V^4+^,Fe^2+^,Ti^4+^)_8_O_20_&#183;4H_2_O
##LOCALITY=Ragra mine, Junin, Cerro de Pasco, Pasco, Peru
##OWNER=RRUFF
##SOURCE=James Shigley
##DESCRIPTION=Yellowish green to dark green submetallic granules (some platy)
##STATUS=The identification of this mineral is not yet confirmed.
##URL=rruff.info/R070694
108.8036, 0.0000000E+00
109.2858, 7.069092
109.7679, 19.62012
110.2500, 38.90283
110.7321, 33.10669
111.2142, 9.248535
111.6964, 1.521729
112.1785, 7.779053
112.6606, 23.55798
113.1427, 45.81055
113.6248, 65.87024
114.1069, 77.01123
114.5891, 84.19849
115.0712, 91.72412
115.5533, 90.80164
116.0354, 67.56470
116.5175, 37.23987
116.9996, 12.41833
117.4818, 1.472778
117.9639, 7.006836
118.4460, 25.08057
118.9281, 69.95837
119.4102, 105.8358
119.8923, 121.8971
120.3745, 121.2767
120.8566, 108.8265
121.3387, 80.30933
121.8208, 43.56213
122.3029, 40.30994
122.7850, 108.3792
123.2672, 184.1774
123.7493, 205.3661
124.2314, 162.4341
124.7135, 102.6494
125.1956, 63.65820
125.6777, 40.20288
126.1599, 18.17749
126.6420, 3.291382
127.1241, 3.781372
127.6062, 1.750488
128.0883, 11.34729
128.5704, 34.05774
129.0526, 71.35254
129.5347, 119.2593
130.0168, 155.9847
130.4989, 154.5330
130.9810, 109.0807
131.4631, 75.94678
131.9453, 71.37378
132.4274, 76.71118
132.9095, 85.88855
133.3916, 96.69666
133.8737, 104.3223
134.3558, 96.97253
134.8380, 59.85962
135.3201, 43.49268
135.8022, 45.54053
136.2843, 57.52307
136.7664, 68.14404
137.2485, 71.89392
137.7307, 73.34009
138.2128, 90.65991
138.6949, 139.4696
139.1770, 164.4415
139.6591, 158.3311
140.1412, 130.3052
140.6234, 92.51599
141.1055, 51.48523
141.5876, 3.005615
142.0697, 9.575317
142.5518, 47.89709
143.0339, 103.9871
143.5161, 120.0219
143.9982, 98.26538
144.4803, 68.84021
144.9624, 56.42896
145.4445, 63.67139
145.9266, 74.12073
146.4088, 94.44324
146.8909, 113.1643
147.3730, 117.3071
147.8551, 103.2599
148.3372, 86.15723
148.8193, 84.21387
149.3015, 95.06738
149.7836, 103.0670
150.2657, 97.55200
150.7478, 84.51099
151.2299, 81.86792
151.7120, 99.69556
152.1942, 121.2721
152.6763, 131.5477
153.1584, 130.8804
153.6405, 122.7737
154.1226, 103.0037
154.6047, 71.54993
155.0869, 47.06372
155.5690, 35.70178
156.0511, 33.03235
156.5332, 39.14880
157.0153, 54.59473
157.4974, 72.12341
157.9796, 81.11914
158.4617, 77.52856
158.9438, 75.53809
159.4259, 87.23401
159.9080, 97.50562
160.3901, 88.21167
160.8723, 50.07068
161.3544, 1.671143
161.8365, 19.77173
162.3186, 25.80554
162.8007, 66.26331
163.2828, 92.86316
163.7650, 108.2456
164.2471, 116.2382
164.7292, 119.3668
165.2113, 117.2461
165.6934, 101.9045
166.1755, 54.61780
166.6577, 15.27942
167.1398, 12.74158
167.6219, 27.68445
168.1040, 26.22632
168.5861, 2.610840
169.0682, 46.17578
169.5504, 72.27869
170.0325, 65.00183
170.5146, 49.93018
170.9967, 38.32556
171.4788, 31.39478
171.9609, 25.34558
172.4431, 14.85217
172.9252, 2.348511
173.4073, 5.607056
173.8894, 17.79211
174.3715, 47.70605
174.8536, 65.34619
175.3358, 67.30750
175.8179, 65.10693
176.3000, 73.78699
176.7821, 94.43896
177.2642, 109.5881
177.7463, 114.6005
178.2285, 112.2948
178.7106, 105.6841
179.1927, 93.49109
179.6748, 81.70862
180.1569, 80.45776
180.6390, 90.24829
181.1212, 97.53406
181.6033, 94.68274
182.0854, 83.70569
182.5675, 71.22717
183.0496, 52.61450
183.5317, 40.71692
184.0139, 51.57593
184.4960, 88.22083
184.9781, 123.4822
185.4602, 136.9558
185.9423, 128.8578
186.4244, 113.0497
186.9066, 79.77380
187.3887, 53.37134
187.8708, 49.44885
188.3529, 71.84167
188.8350, 106.7814
189.3171, 140.7905
189.7993, 178.8646
190.2814, 197.0703
190.7635, 170.9470
191.2456, 132.9867
191.7277, 106.5411
192.2098, 100.1207
192.6920, 105.6212
193.1741, 108.8020
193.6562, 110.0242
194.1383, 108.4116
194.6204, 101.9348
195.1025, 93.87952
195.5847, 88.71594
196.0668, 89.10510
196.5489, 91.39221
197.0310, 82.18738
197.5131, 41.30688
197.9952, 15.92078
198.4774, 21.43835
198.9595, 43.68970
199.4416, 63.95569
199.9237, 70.97327
200.4058, 69.95032
200.8879, 79.72046
201.3701, 121.4808
201.8522, 151.9891
202.3343, 161.0764
202.8164, 153.5573
203.2985, 137.3990
203.7806, 116.9666
204.2628, 92.55994
204.7449, 76.48474
205.2270, 70.41394
205.7091, 69.53418
206.1912, 72.28040
206.6733, 79.06213
207.1555, 92.82458
207.6376, 117.7590
208.1197, 155.1072
208.6018, 171.4572
209.0839, 154.4462
209.5660, 132.5916
210.0482, 118.5094
210.5303, 112.1820
211.0124, 107.7882
211.4945, 99.75305
211.9766, 87.60388
212.4588, 83.77942
212.9409, 100.4191
213.4230, 115.7595
213.9051, 108.3444
214.3872, 79.36841
214.8693, 55.84082
215.3515, 66.42773
215.8336, 116.8873
216.3157, 148.4181
216.7978, 151.8710
217.2799, 140.9021
217.7620, 121.3256
218.2442, 93.79041
218.7263, 72.06152
219.2084, 72.27820
219.6905, 94.06677
220.1726, 116.6689
220.6547, 143.6417
221.1369, 164.5985
221.6190, 163.6932
222.1011, 136.1547
222.5832, 102.0781
223.0653, 81.60120
223.5474, 72.79175
224.0296, 67.50134
224.5117, 66.72131
224.9938, 66.32690
225.4759, 58.26196
225.9580, 38.44067
226.4401, 25.15015
226.9223, 44.50061
227.4044, 88.84351
227.8865, 119.8091
228.3686, 107.8899
228.8507, 73.11090
229.3328, 63.81940
229.8150, 96.11572
230.2971, 135.8901
230.7792, 157.3937
231.2613, 162.2584
231.7434, 151.3112
232.2255, 107.8380
232.7077, 45.19775
233.1898, 10.32800
233.6719, 18.50403
234.1540, 43.26965
234.6361, 65.62390
235.1182, 85.47156
235.6004, 102.1849
236.0825, 119.5662
236.5646, 135.0381
237.0467, 133.0148
237.5288, 100.4114
238.0109, 63.47522
238.4931, 37.20068
238.9752, 21.76752
239.4573, 16.06165
239.9394, 25.07141
240.4215, 46.80859
240.9036, 59.29858
241.3858, 51.22290
241.8679, 43.39624
242.3500, 57.39783
242.8321, 87.32617
243.3142, 103.2170
243.7963, 65.12097
244.2785, 24.86914
244.7606, 73.36560
245.2427, 47.36957
245.7248, 1.145142
246.2069, 47.51123
246.6890, 92.40680
247.1712, 122.4760
247.6533, 119.9771
248.1354, 83.33215
248.6175, 60.03546
249.0996, 60.28485
249.5817, 67.31775
250.0639, 77.28156
250.5460, 88.44165
251.0281, 96.98914
251.5102, 98.26624
251.9923, 91.48096
252.4744, 87.32092
252.9566, 87.43811
253.4387, 89.18542
253.9208, 92.78320
254.4029, 97.24286
254.8850, 101.0093
255.3671, 100.7879
255.8493, 95.48871
256.3314, 97.46643
256.8135, 120.9760
257.2956, 140.1235
257.7777, 142.0099
258.2598, 128.7832
258.7419, 113.2378
259.2241, 106.9631
259.7062, 110.6401
260.1883, 113.9794
260.6704, 114.7452
261.1525, 117.1494
261.6346, 127.2862
262.1168, 141.4987
262.5989, 149.2909
263.0810, 139.2234
263.5631, 109.4154
264.0452, 84.86908
264.5273, 60.60931
265.0095, 47.03680
265.4916, 56.28424
265.9737, 81.16046
266.4558, 103.2163
266.9379, 106.6859
267.4200, 90.86694
267.9022, 70.38116
268.3843, 29.61414
268.8664, 1.464050
269.3485, 12.21954
269.8306, 5.247498
270.3127, 12.12622
270.7949, 36.86371
271.2770, 69.38007
271.7591, 89.34949
272.2412, 81.30347
272.7233, 74.35272
273.2054, 79.28546
273.6876, 91.99237
274.1697, 101.5031
274.6518, 98.82922
275.1339, 84.48682
275.6160, 75.83862
276.0981, 82.10046
276.5803, 85.13464
277.0624, 74.55377
277.5445, 57.94519
278.0266, 51.24866
278.5087, 67.99316
278.9908, 104.6852
279.4730, 119.3944
279.9551, 84.87579
280.4372, 55.35059
280.9193, 42.24799
281.4014, 41.81671
281.8835, 47.52625
282.3657, 56.00574
282.8478, 66.57794
283.3299, 74.83295
283.8120, 78.76440
284.2941, 84.75702
284.7762, 91.78204
285.2584, 100.0364
285.7405, 107.8405
286.2226, 114.6597
286.7047, 118.8839
287.1868, 113.5596
287.6689, 80.48309
288.1511, 62.60217
288.6332, 78.37317
289.1153, 108.2839
289.5974, 130.2335
290.0795, 133.4976
290.5616, 121.9563
291.0438, 106.4734
291.5259, 78.68195
292.0080, 61.33490
292.4901, 59.60559
292.9722, 67.35101
293.4543, 80.90039
293.9365, 98.71454
294.4186, 116.2013
294.9007, 122.4243
295.3828, 108.6922
295.8649, 98.86639
296.3470, 104.3524
296.8292, 109.3643
297.3113, 95.69171
297.7934, 58.88031
298.2755, 16.80719
298.7576, 1.100952
299.2397, 24.59021
299.7219, 49.58698
300.2040, 88.39905
300.6861, 119.3648
301.1682, 122.1918
301.6503, 94.25354
302.1324, 52.08612
302.6146, 16.99792
303.0967, 9.027405
303.5788, 12.76990
304.0609, 31.09827
304.5430, 72.71655
305.0251, 79.42950
305.5073, 50.95300
305.9894, 13.89557
306.4715, 3.486206
306.9536, 2.397461
307.4357, 11.96161
307.9178, 26.16461
308.4000, 43.42523
308.8821, 72.39032
309.3642, 106.9109
309.8463, 126.3779
310.3284, 104.0867
310.8105, 37.04517
311.2927, 2.803406
311.7748, 4.425842
312.2569, 23.36475
312.7390, 50.00781
313.2211, 76.58856
313.7032, 87.78674
314.1854, 66.23572
314.6675, 18.13361
315.1496, 3.748779
315.6317, 19.01746
316.1138, 45.67218
316.5959, 64.58527
317.0781, 76.74768
317.5602, 84.79700
318.0423, 91.34637
318.5244, 94.02057
319.0065, 81.95032
319.4886, 40.96564
319.9708, 12.57153
320.4529, 17.18555
320.9350, 38.41180
321.4171, 57.45288
321.8992, 67.42603
322.3813, 70.36597
322.8635, 69.43451
323.3456, 63.51788
323.8277, 57.51599
324.3098, 53.90485
324.7919, 50.31262
325.2740, 42.22107
325.7562, 26.79883
326.2383, 15.04895
326.7204, 27.02295
327.2025, 67.32001
327.6846, 92.46295
328.1667, 77.86328
328.6489, 50.66998
329.1310, 29.87494
329.6131, 17.72961
330.0952, 12.57800
330.5773, 14.94629
331.0594, 24.47278
331.5416, 34.81458
332.0237, 45.81610
332.5058, 56.19623
332.9879, 64.72357
333.4700, 71.49365
333.9521, 78.26447
334.4343, 92.43610
334.9164, 108.4928
335.3985, 102.7480
335.8806, 60.58929
336.3628, 18.74042
336.8449, 11.82159
337.3270, 31.78821
337.8091, 48.98413
338.2912, 48.20099
338.7733, 38.54065
339.2555, 38.76361
339.7376, 53.35400
340.2197, 61.28699
340.7018, 33.40326
341.1839, 14.08319
341.6660, 36.34680
342.1482, 3.8940001E-02
342.6303, 48.89636
343.1124, 61.88153
343.5945, 39.70813
344.0766, 17.64417
344.5587, 15.78729
345.0409, 29.54895
345.5230, 40.45062
346.0051, 46.15723
346.4872, 51.80981
346.9693, 64.61975
347.4514, 80.99689
347.9336, 85.61285
348.4157, 67.72803
348.8978, 39.83081
349.3799, 31.71991
349.8620, 48.96521
350.3441, 68.71594
350.8263, 86.89771
351.3084, 102.3990
351.7905, 115.3500
352.2726, 126.6929
352.7547, 129.3495
353.2368, 107.8421
353.7190, 47.10602
354.2011, 10.53613
354.6832, 27.48059
355.1653, 56.85413
355.6474, 50.95752
356.1295, 5.524658
356.6117, 34.23889
357.0938, 15.18170
357.5759, 80.89215
358.0580, 127.1929
358.5401, 87.50024
359.0222, 35.44794
359.5044, 6.598267
359.9865, 1.438965
360.4686, 7.101685
360.9507, 14.39795
361.4328, 23.70435
361.9149, 37.16083
362.3971, 62.14740
362.8792, 81.29071
363.3613, 88.22162
363.8434, 86.63177
364.3255, 82.31866
364.8076, 78.61853
365.2898, 74.90790
365.7719, 69.45795
366.2540, 57.54852
366.7361, 50.86847
367.2182, 60.69910
367.7003, 70.28009
368.1825, 59.95679
368.6646, 25.34363
369.1467, 15.97449
369.6288, 35.59772
370.1109, 28.04822
370.5930, 15.48761
371.0752, 10.36804
371.5573, 33.29126
372.0394, 39.96967
372.5215, 32.52142
373.0036, 26.51660
373.4857, 43.71173
373.9679, 84.79761
374.4500, 97.54474
374.9321, 53.86987
375.4142, 13.70465
375.8963, 2.077148
376.3784, 12.35632
376.8606, 29.56909
377.3427, 49.32343
377.8248, 67.89673
378.3069, 74.36310
378.7890, 64.96729
379.2711, 53.01495
379.7533, 39.89105
380.2354, 29.03131
380.7175, 25.37628
381.1996, 31.61365
381.6817, 42.10455
382.1638, 53.92352
382.6460, 67.25800
383.1281, 69.89148
383.6102, 49.72461
384.0923, 24.27594
384.5744, 17.26068
385.0565, 32.02148
385.5387, 44.26221
386.0208, 33.61578
386.5029, 10.34271
386.9850, 3.794922
387.4671, 24.34106
387.9492, 48.88245
388.4314, 48.22687
388.9135, 24.94287
389.3956, 8.799438
389.8777, 9.437805
390.3598, 17.79468
390.8419, 26.41479
391.3241, 34.43427
391.8062, 40.69727
392.2883, 43.94019
392.7704, 44.43842
393.2525, 46.00342
393.7346, 51.04431
394.2168, 54.56519
394.6989, 50.38049
395.1810, 43.21570
395.6631, 45.32617
396.1452, 63.81287
396.6273, 90.18359
397.1095, 101.2217
397.5916, 79.02771
398.0737, 64.52881
398.5558, 65.62854
399.0379, 71.02686
399.5201, 70.02277
400.0022, 63.83624
400.4843, 55.07166
400.9664, 49.54517
401.4485, 48.11957
401.9306, 47.08557
402.4128, 50.39862
402.8949, 50.49652
403.3770, 37.01031
403.8591, 16.20544
404.3412, 6.684326
404.8233, 26.58020
405.3055, 70.12427
405.7876, 84.92273
406.2697, 42.68341
406.7518, 10.90790
407.2339, 15.29529
407.7160, 36.12836
408.1982, 48.49988
408.6803, 41.77417
409.1624, 26.65759
409.6445, 19.57697
410.1266, 21.09094
410.6087, 27.89447
411.0909, 48.34491
411.5730, 67.34265
412.0551, 71.19434
412.5372, 59.01715
413.0193, 46.33020
413.5014, 47.94867
413.9836, 59.15796
414.4657, 56.57135
414.9478, 34.44904
415.4299, 14.71838
415.9120, 15.83502
416.3941, 33.66302
416.8763, 57.88055
417.3584, 105.0802
417.8405, 145.2512
418.3226, 136.2133
418.8047, 80.44067
419.2868, 29.64551
419.7690, 11.96088
420.2511, 21.31439
420.7332, 33.62225
421.2153, 51.60156
421.6974, 68.39050
422.1795, 86.28381
422.6617, 100.4495
423.1438, 99.11377
423.6259, 77.89404
424.1080, 51.59021
424.5901, 44.74097
425.0722, 73.86902
425.5544, 81.35181
426.0365, 44.15057
426.5186, 4.141479
427.0007, 7.917480
427.4828, 5.421875
427.9649, 21.63885
428.4471, 19.45502
428.9292, 0.1213380
429.4113, 3.651001
429.8934, 32.96344
430.3755, 60.43085
430.8576, 65.48981
431.3398, 57.32648
431.8219, 46.57300
432.3040, 37.39447
432.7861, 32.81952
433.2682, 42.96918
433.7503, 78.21405
434.2325, 94.69196
434.7146, 56.56281
435.1967, 18.30414
435.6788, 20.47174
436.1609, 62.54431
436.6430, 103.4387
437.1252, 109.4528
437.6073, 86.51556
438.0894, 62.30530
438.5715, 35.37183
439.0536, 13.24841
439.5357, 1.921265
440.0179, 8.985168
440.5000, 2.734070
440.9821, 26.89813
441.4642, 64.22986
441.9463, 91.45587
442.4284, 107.4672
442.9106, 125.4138
443.3927, 160.0562
443.8748, 194.8781
444.3569, 190.6298
444.8390, 132.5364
445.3211, 82.71063
445.8033, 57.73645
446.2854, 50.66315
446.7675, 60.58502
447.2496, 84.39197
447.7317, 107.6718
448.2138, 118.8109
448.6960, 116.3218
449.1781, 117.5502
449.6602, 133.0542
450.1423, 141.4183
450.6244, 126.7578
451.1065, 98.48224
451.5887, 75.67627
452.0708, 69.08014
452.5529, 74.91602
453.0350, 82.07159
453.5171, 89.70667
453.9992, 100.3455
454.4814, 122.6874
454.9635, 142.1047
455.4456, 143.5215
455.9277, 126.2072
456.4098, 106.9897
456.8919, 106.0801
457.3741, 122.8786
457.8562, 127.8870
458.3383, 109.6978
458.8204, 95.06555
459.3025, 104.2946
459.7846, 127.0920
460.2668, 141.3384
460.7489, 134.3573
461.2310, 119.5161
461.7131, 114.7096
462.1952, 119.5873
462.6773, 120.4124
463.1595, 107.3466
463.6416, 91.36035
464.1237, 94.12292
464.6058, 122.4180
465.0879, 143.2375
465.5700, 141.6345
466.0522, 127.9534
466.5343, 109.7889
467.0164, 89.53375
467.4985, 84.01233
467.9806, 115.1227
468.4627, 187.3806
468.9449, 221.7913
469.4270, 195.5591
469.9091, 161.6766
470.3912, 135.3477
470.8733, 116.3530
471.3554, 101.6844
471.8376, 89.93933
472.3197, 81.64929
472.8018, 78.52350
473.2839, 83.88910
473.7660, 87.13464
474.2481, 88.12085
474.7303, 86.65527
475.2124, 78.21497
475.6945, 65.43732
476.1766, 59.77631
476.6587, 73.83240
477.1408, 103.8412
477.6230, 130.8729
478.1051, 161.3355
478.5872, 174.2690
479.0693, 142.1997
479.5514, 91.59656
480.0335, 58.59711
480.5157, 56.29932
480.9978, 62.31256
481.4799, 56.68793
481.9620, 43.08160
482.4441, 38.34125
482.9262, 50.04431
483.4084, 64.88940
483.8905, 62.55762
484.3726, 40.56293
484.8547, 29.00854
485.3368, 39.63153
485.8189, 56.48096
486.3011, 69.41559
486.7832, 77.63641
487.2653, 82.69977
487.7474, 85.73688
488.2295, 86.34174
488.7116, 82.85022
489.1938, 67.08344
489.6759, 57.44586
490.1580, 62.35950
490.6401, 69.61823
491.1222, 64.28778
491.6043, 45.36230
492.0865, 28.83386
492.5686, 34.64404
493.0507, 64.52106
493.5328, 89.02863
494.0149, 110.9815
494.4970, 122.9381
494.9792, 117.6492
495.4613, 102.1597
495.9434, 89.39191
496.4255, 86.42908
496.9076, 83.99817
497.3897, 68.88519
497.8719, 41.67487
498.3540, 13.84296
498.8361, 18.63373
499.3182, 40.87616
499.8003, 24.30042
500.2824, 33.53101
500.7646, 75.93768
501.2467, 78.68481
501.7288, 65.64569
502.2109, 63.67438
502.6930, 71.67242
503.1751, 65.48785
503.6573, 24.05151
504.1394, 42.51019
504.6215, 74.45630
505.1036, 44.43805
505.5857, 14.47223
506.0678, 10.26843
506.5500, 30.86456
507.0321, 49.26874
507.5142, 66.26776
507.9963, 79.52234
508.4784, 83.50134
508.9605, 78.60675
509.4427, 76.11694
509.9248, 81.74109
510.4069, 82.25854
510.8890, 69.07349
511.3711, 48.59357
511.8532, 30.81653
512.3353, 18.95374
512.8174, 12.46857
513.2996, 11.36292
513.7817, 15.47968
514.2638, 23.86908
514.7459, 38.95593
515.2280, 54.19385
515.7101, 61.71338
516.1923, 62.13025
516.6744, 57.36719
517.1565, 41.61920
517.6386, 25.51190
518.1207, 18.25427
518.6028, 19.29877
519.0850, 23.70239
519.5671, 28.96893
520.0492, 34.76892
520.5313, 39.94098
521.0134, 42.18030
521.4955, 46.95697
521.9777, 60.40765
522.4598, 72.33014
522.9419, 71.16809
523.4240, 58.07361
523.9061, 46.34882
524.3882, 49.96143
524.8704, 66.81842
525.3525, 75.29712
525.8346, 70.82672
526.3167, 66.32275
526.7988, 67.45490
527.2809, 70.96436
527.7631, 74.25726
528.2452, 77.78778
528.7273, 76.48749
529.2094, 59.96161
529.6915, 34.75635
530.1736, 24.01868
530.6558, 34.24115
531.1379, 49.06110
531.6200, 52.93726
532.1021, 45.70587
532.5842, 43.23029
533.0663, 50.23663
533.5485, 57.43030
534.0306, 61.62769
534.5127, 62.60730
534.9948, 59.10852
535.4769, 50.66095
535.9590, 41.33917
536.4412, 38.71259
536.9233, 46.39368
537.4054, 51.04706
537.8875, 51.46960
538.3696, 50.17200
538.8517, 48.13727
539.3339, 45.26196
539.8160, 40.24634
540.2981, 30.58020
540.7802, 21.46960
541.2623, 26.12115
541.7444, 46.58820
542.2266, 58.51251
542.7087, 47.48901
543.1908, 31.91711
543.6729, 36.83130
544.1550, 63.15778
544.6371, 79.52765
545.1193, 62.16187
545.6014, 38.67938
546.0835, 42.53644
546.5656, 71.41156
547.0477, 97.94250
547.5298, 105.9448
548.0120, 100.2834
548.4941, 97.84808
548.9762, 104.0128
549.4583, 106.4324
549.9404, 106.1265
550.4225, 101.1235
550.9047, 85.19904
551.3868, 61.30133
551.8689, 43.33868
552.3510, 45.44690
552.8331, 63.05737
553.3152, 69.47943
553.7974, 60.81519
554.2795, 49.84863
554.7616, 33.73273
555.2437, 21.48010
555.7258, 25.69141
556.2079, 50.15186
556.6901, 72.05884
557.1722, 76.37054
557.6543, 71.81335
558.1364, 69.45813
558.6185, 67.49268
559.1006, 72.47260
559.5828, 94.12903
560.0649, 127.7341
560.5470, 134.6855
561.0291, 92.23737
561.5112, 56.03308
561.9933, 34.66034
562.4755, 23.46173
562.9576, 24.84967
563.4397, 35.91602
563.9218, 43.80914
564.4039, 29.45862
564.8860, 7.265564
565.3682, 16.70081
565.8503, 19.02881
566.3324, 55.50671
566.8145, 86.19757
567.2966, 105.7812
567.7787, 103.6345
568.2609, 73.87524
568.7430, 41.37726
569.2251, 26.92889
569.7072, 25.82013
570.1893, 23.48871
570.6714, 16.68872
571.1536, 16.04523
571.6357, 35.13336
572.1178, 71.03778
572.5999, 86.08392
573.0820, 61.51794
573.5641, 39.66742
574.0463, 34.77435
574.5284, 40.03357
575.0105, 46.65210
575.4926, 52.18793
575.9747, 59.88348
576.4568, 77.02161
576.9390, 105.5353
577.4211, 110.2346
577.9032, 70.08453
578.3853, 34.71710
578.8674, 20.44977
579.3495, 21.27631
579.8317, 32.42804
580.3138, 55.21948
580.7959, 74.38019
581.2781, 74.28668
581.7602, 59.60120
582.2423, 43.31506
582.7244, 26.65582
583.2065, 13.37073
583.6887, 4.825256
584.1708, 2.291321
584.6529, 14.90710
585.1350, 65.34607
585.6171, 97.70123
586.0992, 76.11047
586.5814, 34.82770
587.0635, 18.67633
587.5456, 37.39233
588.0277, 67.19287
588.5098, 83.65173
588.9919, 86.68958
589.4741, 79.68945
589.9562, 49.31061
590.4383, 29.90302
590.9204, 41.22510
591.4025, 65.78522
591.8846, 82.60028
592.3668, 86.38348
592.8489, 86.55798
593.3310, 91.89325
593.8131, 98.38037
594.2952, 96.17096
594.7773, 83.77338
595.2595, 66.16937
595.7416, 43.50977
596.2237, 18.48138
596.7058, 12.78937
597.1879, 43.71204
597.6700, 68.75250
598.1522, 78.47418
598.6343, 79.87286
599.1164, 81.23907
599.5985, 82.98346
600.0806, 77.20612
600.5627, 51.81403
601.0449, 12.20184
601.5270, 2.928894
602.0091, 14.06500
602.4912, 37.38135
602.9733, 69.97351
603.4554, 97.30597
603.9376, 99.74170
604.4197, 72.50128
604.9018, 49.88562
605.3839, 59.70685
605.8660, 78.50024
606.3481, 66.11542
606.8303, 24.65979
607.3124, 0.5050660
607.7945, 26.18591
608.2766, 82.61444
608.7587, 106.5371
609.2408, 56.48730
609.7230, 34.42633
610.2051, 71.61877
610.6872, 111.4944
611.1693, 112.7389
611.6514, 80.26147
612.1335, 44.94336
612.6157, 25.89880
613.0978, 17.60999
613.5799, 5.151184
614.0620, 11.73126
614.5441, 23.29865
615.0262, 28.33313
615.5084, 24.96320
615.9905, 6.979675
616.4726, 25.07172
616.9547, 51.19354
617.4368, 62.97626
617.9189, 71.56488
618.4011, 83.66064
618.8832, 98.93018
619.3653, 118.6378
619.8474, 143.4760
620.3295, 163.6179
620.8116, 161.4307
621.2938, 132.1693
621.7759, 98.68909
622.2580, 43.87958
622.7401, 2.978333
623.2222, 7.652893
623.7043, 5.657959
624.1865, 30.50507
624.6686, 68.09979
625.1507, 100.0329
625.6328, 104.4578
626.1149, 89.25708
626.5970, 80.13947
627.0792, 82.22992
627.5613, 82.88910
628.0434, 68.12012
628.5255, 40.40063
629.0076, 34.61053
629.4897, 74.11688
629.9719, 102.2993
630.4540, 102.5513
630.9361, 89.35242
631.4182, 73.01740
631.9003, 57.68213
632.3824, 49.05688
632.8646, 55.86243
633.3467, 72.74725
633.8288, 72.54242
634.3109, 49.45959
634.7930, 31.54987
635.2751, 29.17114
635.7573, 37.33240
636.2394, 52.86896
636.7215, 75.92017
637.2036, 87.24908
637.6857, 74.16400
638.1678, 54.78253
638.6500, 43.27924
639.1321, 39.73950
639.6142, 43.53491
640.0963, 55.12207
640.5784, 65.64459
641.0605, 52.71429
641.5427, 3.103577
642.0248, 27.03497
642.5069, 13.88794
642.9890, 55.37213
643.4711, 75.45093
643.9532, 76.72156
644.4354, 63.55060
644.9175, 31.10010
645.3996, 2.212341
645.8817, 1.874268
646.3638, 22.12152
646.8459, 40.17706
647.3281, 51.87817
647.8102, 63.34387
648.2923, 81.29761
648.7744, 104.2861
649.2565, 115.6893
649.7386, 105.6157
650.2208, 97.39594
650.7029, 96.13458
651.1850, 96.82080
651.6671, 95.35193
652.1492, 91.08496
652.6313, 85.07941
653.1135, 77.79431
653.5956, 69.55035
654.0777, 59.96338
654.5598, 48.42725
655.0419, 41.99786
655.5240, 44.41345
656.0062, 51.18964
656.4883, 57.82019
656.9704, 64.79999
657.4525, 66.39056
657.9346, 54.84729
658.4167, 44.54993
658.8989, 47.78436
659.3810, 57.52240
659.8631, 58.50568
660.3452, 45.29028
660.8273, 31.19800
661.3094, 40.45618
661.7916, 76.42505
662.2737, 83.28229
662.7558, 41.15796
663.2379, 5.254944
663.7200, 9.117859
664.2021, 32.38202
664.6843, 50.77673
665.1664, 62.16370
665.6485, 65.10675
666.1306, 52.34406
666.6127, 34.47229
667.0948, 23.55493
667.5770, 20.34662
668.0591, 23.13007
668.5412, 31.46838
669.0233, 39.00012
669.5054, 34.13934
669.9875, 6.212646
670.4697, 8.318665
670.9518, 4.526123
671.4339, 20.41650
671.9160, 26.63898
672.3981, 26.24420
672.8802, 28.87909
673.3624, 40.33887
673.8445, 53.44775
674.3266, 63.02216
674.8087, 67.16547
675.2908, 58.28497
675.7729, 34.94318
676.2551, 14.36523
676.7372, 12.85461
677.2193, 27.92889
677.7014, 34.93903
678.1835, 18.55396
678.6656, 15.11731
679.1478, 46.62439
679.6299, 78.13623
680.1120, 76.11786
680.5941, 44.77203
681.0762, 18.03552
681.5583, 20.79144
682.0405, 39.13501
682.5226, 49.90680
683.0047, 52.80652
683.4868, 56.41553
683.9689, 65.89941
684.4510, 71.92218
684.9332, 60.39960
685.4153, 28.03369
685.8974, 14.89807
686.3795, 30.31458
686.8616, 51.64337
687.3438, 78.20880
687.8259, 104.2033
688.3080, 127.2605
688.7901, 145.1288
689.2722, 149.3682
689.7543, 121.4916
690.2365, 76.43719
690.7186, 64.39185
691.2007, 88.12555
691.6828, 98.11926
692.1649, 70.57526
692.6470, 27.07941
693.1292, 3.411743
693.6113, 22.54248
694.0934, 18.70782
694.5755, 38.01831
695.0576, 86.69952
695.5397, 95.62714
696.0219, 78.52875
696.5040, 53.78827
696.9861, 28.47296
697.4682, 9.339294
697.9503, 6.520020
698.4324, 17.37921
698.9146, 27.16705
699.3967, 36.16315
699.8788, 38.15533
700.3609, 30.63635
700.8430, 18.81512
701.3251, 16.98358
701.8073, 28.07990
702.2894, 36.01489
702.7715, 37.25098
703.2536, 36.05060
703.7357, 35.43164
704.2178, 34.44904
704.7000, 29.61969
705.1821, 19.60046
705.6642, 9.739502
706.1463, 6.717834
706.6284, 10.35071
707.1105, 18.72290
707.5927, 33.32520
708.0748, 47.67218
708.5569, 60.51117
709.0390, 69.65961
709.5211, 69.24713
710.0032, 54.47833
710.4854, 44.85352
710.9675, 45.41553
711.4496, 51.09222
711.9317, 60.94293
712.4138, 72.58453
712.8959, 82.66553
713.3781, 89.75336
713.8602, 92.34082
714.3423, 86.50409
714.8244, 72.59802
715.3065, 61.09863
715.7886, 54.50842
716.2708, 48.11707
716.7529, 35.32794
717.2350, 22.22095
717.7171, 20.78656
718.1992, 33.62915
718.6813, 51.05963
719.1635, 89.34595
719.6456, 116.3681
720.1277, 92.97266
720.6098, 38.57965
721.0919, 5.205139
721.5740, 19.34766
722.0562, 53.38531
722.5383, 63.76617
723.0204, 53.01550
723.5025, 51.14496
723.9846, 65.95721
724.4667, 70.97955
724.9489, 39.88031
725.4310, 8.789612
725.9131, 21.35187
726.3952, 22.82062
726.8773, 53.05646
727.3594, 42.53363
727.8416, 27.21924
728.3237, 35.08173
728.8058, 60.00201
729.2879, 81.06390
729.7700, 89.19061
730.2521, 85.32361
730.7343, 57.78986
731.2164, 12.88733
731.6985, 16.41705
732.1806, 86.26843
732.6627, 147.7760
733.1448, 154.7238
733.6270, 123.8279
734.1091, 100.0325
734.5912, 86.84741
735.0733, 72.47076
735.5554, 50.25043
736.0375, 31.90802
736.5197, 27.62988
737.0018, 32.27557
737.4839, 35.88599
737.9660, 34.64032
738.4481, 27.88116
738.9302, 8.781006
739.4124, 17.38123
739.8945, 26.24152
740.3766, 15.00134
740.8587, 4.274658
741.3408, 28.85425
741.8229, 52.95270
742.3051, 62.16528
742.7872, 47.02753
743.2693, 37.31689
743.7514, 36.99103
744.2335, 37.84570
744.7156, 34.22302
745.1978, 29.68231
745.6799, 31.55267
746.1620, 42.38464
746.6441, 53.30432
747.1262, 56.29303
747.6083, 53.45563
748.0905, 47.84131
748.5726, 39.99921
749.0547, 35.65607
749.5368, 38.40631
750.0189, 43.37115
750.5010, 40.86731
750.9832, 26.02887
751.4653, 18.73035
751.9474, 30.06158
752.4295, 40.47113
752.9116, 40.34686
753.3937, 35.58441
753.8759, 34.29761
754.3580, 38.13068
754.8401, 40.86780
755.3222, 36.49335
755.8043, 30.25812
756.2864, 30.13263
756.7686, 34.54761
757.2507, 34.31403
757.7328, 25.55219
758.2149, 19.77887
758.6970, 35.99939
759.1791, 76.76758
759.6613, 95.81116
760.1434, 79.21973
760.6255, 64.71979
761.1076, 70.57153
761.5897, 79.81677
762.0718, 75.00385
762.5540, 55.40826
763.0361, 38.13892
763.5182, 28.16724
764.0003, 23.24170
764.4824, 25.43036
764.9645, 30.62927
765.4467, 30.45221
765.9288, 22.05945
766.4109, 15.47247
766.8930, 24.57019
767.3751, 44.32343
767.8572, 44.20575
768.3394, 15.93817
768.8215, 13.78442
769.3036, 70.88690
769.7857, 133.3098
770.2678, 140.5720
770.7499, 97.84619
771.2321, 65.46802
771.7142, 56.89825
772.1963, 46.38446
772.6784, 15.26465
773.1605, 14.66718
773.6426, 16.66315
774.1248, 6.656433
774.6069, 29.86243
775.0890, 37.42328
775.5711, 35.13629
776.0532, 28.47345
776.5353, 19.10046
777.0175, 22.15051
777.4996, 43.00421
777.9817, 55.54712
778.4638, 33.84460
778.9459, 9.818665
779.4280, 17.53064
779.9102, 52.97430
780.3923, 93.37793
780.8744, 80.57983
781.3565, 58.71985
781.8386, 48.77808
782.3207, 49.26819
782.8029, 53.88684
783.2850, 60.84937
783.7671, 66.67358
784.2492, 67.35297
784.7313, 67.85999
785.2134, 84.36725
785.6956, 113.2609
786.1777, 130.6853
786.6598, 124.3281
787.1419, 101.3484
787.6240, 69.75360
788.1061, 24.43359
788.5883, 6.389709
789.0704, 31.05682
789.5525, 54.97418
790.0346, 56.29816
790.5167, 47.91888
790.9988, 46.44427
791.4810, 53.16693
791.9631, 60.87341
792.4452, 69.72656
792.9273, 77.07104
793.4094, 83.81909
793.8915, 86.97791
794.3737, 79.43207
794.8558, 60.74683
795.3379, 42.29956
795.8200, 36.27991
796.3021, 37.61237
796.7842, 28.98761
797.2664, 9.316406
797.7485, 2.5024001E-02
798.2306, 10.42346
798.7127, 26.91199
799.1948, 34.32812
799.6769, 32.92700
800.1591, 32.90509
800.6412, 33.52155
801.1233, 36.62152
801.6054, 44.42535
802.0875, 53.09314
802.5696, 61.78040
803.0518, 68.96655
803.5339, 70.63190
804.0160, 63.84668
804.4981, 54.43530
804.9802, 45.96295
805.4623, 37.56989
805.9445, 23.12445
806.4266, 4.942810
806.9087, 0.4050900
807.3908, 18.31555
807.8729, 48.23358
808.3550, 61.41504
808.8372, 56.17810
809.3193, 49.29993
809.8014, 38.02832
810.2835, 33.12354
810.7656, 44.83105
811.2477, 63.84900
811.7299, 72.07477
812.2120, 66.67468
812.6941, 63.34741
813.1762, 66.31818
813.6583, 69.66827
814.1404, 69.64746
814.6226, 68.35089
815.1047, 71.88519
815.5868, 80.25684
816.0689, 81.10205
816.5510, 54.65112
817.0331, 19.58966
817.5153, 12.56842
817.9974, 28.75018
818.4795, 43.29333
818.9616, 49.36292
819.4437, 54.28607
819.9258, 66.92950
820.4080, 84.56390
820.8901, 83.74988
821.3722, 55.79663
821.8543, 28.66888
822.3364, 2.035461
822.8185, 21.86749
823.3007, 16.76208
823.7828, 6.122192
824.2649, 27.20935
824.7470, 45.50891
825.2291, 56.88458
825.7112, 56.51007
826.1934, 50.98328
826.6755, 45.27679
827.1576, 39.82599
827.6397, 32.43665
828.1218, 22.04791
828.6039, 15.24115
829.0861, 26.01630
829.5682, 47.30481
830.0503, 48.24579
830.5324, 27.50732
831.0145, 7.079590
831.4966, 4.315063
831.9788, 2.446777
832.4609, 20.62579
832.9430, 67.74225
833.4251, 90.41943
833.9072, 75.39795
834.3893, 58.36023
834.8715, 40.46344
835.3536, 28.57141
835.8357, 32.50037
836.3178, 49.52527
836.7999, 60.80835
837.2820, 58.41803
837.7642, 53.84869
838.2463, 49.79022
838.7284, 46.28973
839.2105, 42.17883
839.6926, 38.46411
840.1747, 40.86389
840.6569, 54.30188
841.1390, 66.41840
841.6211, 48.90204
842.1032, 8.377563
842.5853, 1.441650
843.0674, 36.16071
843.5496, 66.20721
844.0317, 66.30688
844.5138, 50.27869
844.9959, 44.75201
845.4780, 53.57208
845.9601, 56.77802
846.4423, 40.92218
846.9244, 36.80945
847.4065, 68.13702
847.8886, 104.7655
848.3707, 113.4271
848.8528, 93.41852
849.3350, 73.99054
849.8171, 67.07257
850.2992, 61.46356
850.7813, 47.62732
851.2634, 32.50586
851.7455, 24.31042
852.2277, 24.71136
852.7098, 34.33856
853.1919, 55.57184
853.6740, 79.83588
854.1561, 92.34448
854.6382, 94.91504
855.1204, 101.1464
855.6025, 113.0625
856.0846, 111.8777
856.5667, 82.61877
857.0488, 42.99152
857.5309, 31.54834
858.0131, 56.63879
858.4952, 77.31122
858.9773, 100.2513
859.4594, 109.3224
859.9415, 91.59454
860.4236, 62.49567
860.9058, 33.89313
861.3879, 6.693665
861.8700, 6.360046
862.3521, 7.525757
862.8342, 25.19385
863.3163, 42.28748
863.7985, 52.42126
864.2806, 39.48822
864.7627, 10.03558
865.2448, 3.118530
865.7269, 24.07227
866.2090, 61.52289
866.6912, 68.70044
867.1733, 53.34387
867.6554, 33.88647
868.1375, 13.91541
868.6196, 10.28296
869.1017, 34.50360
869.5839, 68.64380
870.0660, 77.18347
870.5481, 55.39301
871.0302, 48.28717
871.5123, 66.27319
871.9944, 74.81091
872.4766, 54.79651
872.9587, 25.39166
873.4408, 9.520996
873.9229, 6.798584
874.4050, 7.277344
874.8871, 9.957703
875.3693, 16.34290
875.8514, 29.57654
876.3335, 46.02130
876.8156, 66.50073
877.2977, 86.22473
877.7798, 90.75861
878.2620, 68.55688
878.7441, 45.69275
879.2262, 46.49878
879.7083, 58.74884
880.1904, 65.27045
880.6725, 64.51855
881.1547, 63.27533
881.6368, 64.44318
882.1189, 64.36792
882.6010, 56.04535
883.0831, 42.44000
883.5652, 50.55670
884.0474, 84.05347
884.5295, 92.67102
885.0116, 53.32410
885.4937, 8.946472
885.9758, 6.039124
886.4579, 39.77893
886.9401, 52.60034
887.4222, 27.39429
887.9043, 10.56665
888.3864, 15.95007
888.8685, 20.75677
889.3506, 3.517151
889.8328, 21.30981
890.3149, 20.59058
890.7970, 19.26343
891.2791, 53.05066
891.7612, 66.82294
892.2433, 66.84546
892.7255, 49.90668
893.2076, 26.09888
893.6897, 8.639221
894.1718, 1.491821
894.6539, 5.705750
895.1360, 31.11060
895.6182, 59.86438
896.1003, 60.11523
896.5824, 41.18787
897.0645, 34.45099
897.5466, 44.33661
898.0287, 47.30072
898.5109, 24.33612
898.9930, 7.483093
899.4751, 0.2644040
899.9572, 52.43213
900.4393, 70.40802
900.9214, 38.61304
901.4036, 12.72998
901.8857, 23.89661
902.3678, 48.87006
902.8499, 49.32599
903.3320, 19.58789
903.8141, 2.540405
904.2963, 7.997070
904.7784, 13.27631
905.2605, 12.02435
905.7426, 10.76556
906.2247, 11.77502
906.7068, 17.24072
907.1890, 36.53906
907.6711, 88.48346
908.1532, 126.1420
908.6353, 121.4995
909.1174, 99.36523
909.5995, 75.62061
910.0817, 54.92975
910.5638, 43.21094
911.0459, 42.46747
911.5280, 41.36469
912.0101, 23.25610
912.4922, 1.494873
912.9744, 2.201294
913.4565, 20.97845
913.9386, 39.99249
914.4207, 54.40808
914.9028, 65.73767
915.3849, 75.55176
915.8671, 82.53357
916.3492, 83.43781
916.8313, 78.26880
917.3134, 64.93420
917.7955, 39.84241
918.2776, 19.26215
918.7598, 11.81842
919.2419, 15.13324
919.7240, 25.62640
920.2061, 47.10077
920.6882, 62.24976
921.1703, 73.83582
921.6525, 74.92926
922.1346, 54.88544
922.6167, 30.92322
923.0988, 15.36292
923.5809, 9.272034
924.0630, 12.91833
924.5452, 38.33136
925.0273, 56.52643
925.5094, 56.19202
925.9915, 47.47186
926.4736, 32.82233
926.9557, 17.73212
927.4379, 12.44403
927.9200, 20.56464
928.4021, 28.78131
928.8842, 26.95905
929.3663, 20.66339
929.8484, 11.05145
930.3306, 3.365723
930.8127, 15.42236
931.2948, 46.65143
931.7769, 66.07935
932.2590, 47.05237
932.7411, 8.766724
933.2233, 16.64636
933.7054, 28.10046
934.1875, 10.56470
934.6696, 37.41095
935.1517, 71.30640
935.6339, 66.18719
936.1160, 41.89478
936.5981, 30.85278
937.0802, 33.74243
937.5623, 32.16449
938.0444, 22.74371
938.5266, 19.91595
939.0087, 30.96686
939.4908, 44.50073
939.9729, 49.66052
940.4550, 47.88831
940.9371, 49.45605
941.4193, 66.68579
941.9014, 68.40210
942.3835, 30.39044
942.8656, 2.680237
943.3477, 16.76141
943.8298, 52.40869
944.3120, 84.38525
944.7941, 110.5831
945.2762, 113.7924
945.7583, 65.12030
946.2404, 19.90564
946.7225, 10.03186
947.2047, 15.49292
947.6868, 13.23035
948.1689, 3.640442
948.6510, 2.799805
949.1331, 4.791809
949.6152, 1.060364
950.0974, 26.10193
950.5795, 55.28992
951.0616, 67.34735
951.5437, 64.91168
952.0258, 57.87970
952.5079, 50.28357
952.9901, 45.70868
953.4722, 49.76788
953.9543, 57.11774
954.4364, 49.02521
954.9185, 30.91833
955.4006, 41.75226
955.8828, 86.93219
956.3649, 118.5867
956.8470, 104.0859
957.3291, 65.29279
957.8112, 43.97717
958.2933, 41.26630
958.7755, 32.39581
959.2576, 13.26489
959.7397, 7.402344
960.2218, 27.73846
960.7039, 53.24542
961.1860, 61.88043
961.6682, 54.66333
962.1503, 42.32318
962.6324, 19.52100
963.1145, 2.369995
963.5966, 10.51379
964.0787, 14.20728
964.5609, 1.967224
965.0430, 19.87091
965.5251, 44.26459
966.0072, 74.64648
966.4893, 87.18018
966.9714, 64.60828
967.4536, 42.53345
967.9357, 34.69476
968.4178, 30.74005
968.8999, 15.39673
969.3820, 5.446228
969.8641, 5.575256
970.3463, 35.48206
970.8284, 64.73773
971.3105, 44.54663
971.7926, 15.00342
972.2747, 3.768860
972.7568, 9.648438
973.2390, 33.28241
973.7211, 71.10449
974.2032, 96.40015
974.6853, 83.17242
975.1674, 58.68933
975.6495, 50.91937
976.1317, 51.92969
976.6138, 45.36969
977.0959, 33.24323
977.5780, 33.63824
978.0601, 55.63092
978.5422, 81.03125
979.0244, 85.04614
979.5065, 76.46161
979.9886, 82.73834
980.4707, 99.40948
980.9528, 95.33173
981.4349, 63.09979
981.9171, 28.48309
982.3992, 12.06091
982.8813, 8.325562
983.3634, 4.207458
983.8455, 0.2169800
984.3276, 1.970764
984.8098, 1.070129
985.2919, 5.386353
985.7740, 20.17035
986.2561, 35.53754
986.7382, 41.32477
987.2203, 38.00555
987.7025, 30.26453
988.1846, 14.43774
988.6667, 8.162964
989.1488, 17.79089
989.6309, 29.90826
990.1130, 37.62109
990.5952, 40.72028
991.0773, 36.89917
991.5594, 24.01593
992.0415, 19.41132
992.5236, 21.78412
993.0057, 29.76862
993.4879, 54.26770
993.9700, 75.28918
994.4521, 71.47119
994.9342, 49.38574
995.4163, 38.32056
995.8984, 49.49396
996.3806, 54.39154
996.8627, 42.42096
997.3448, 31.76636
997.8269, 34.80750
998.3090, 42.14008
998.7911, 38.71661
999.2733, 24.09180
999.7554, 16.43237
1000.237, 25.75330
1000.720, 36.62622
1001.202, 49.01843
1001.684, 55.63275
1002.166, 45.16022
1002.648, 25.45197
1003.130, 13.41675
1003.612, 13.47076
1004.094, 15.90234
1004.577, 4.185181
1005.059, 4.392212
1005.541, 57.85529
1006.023, 123.9036
1006.505, 143.1836
1006.987, 117.2795
1007.469, 84.47876
1007.951, 60.65875
1008.433, 45.46747
1008.916, 43.35620
1009.398, 46.19385
1009.880, 43.96710
1010.362, 37.28461
1010.844, 24.57507
1011.326, 8.463562
1011.808, 6.375732
1012.290, 35.85425
1012.773, 73.67285
1013.255, 85.53540
1013.737, 79.73981
1014.219, 76.18311
1014.701, 75.43506
1015.183, 67.96387
1015.665, 50.66467
1016.147, 37.50934
1016.629, 46.96967
1017.112, 67.58875
1017.594, 68.78412
1018.076, 53.72784
1018.558, 38.83984
1019.040, 26.84808
1019.522, 19.54401
1020.004, 17.89282
1020.486, 21.62915
1020.969, 33.03217
1021.451, 49.33136
1021.933, 52.19043
1022.415, 42.47986
1022.897, 37.91382
1023.379, 42.82056
1023.861, 48.56519
1024.343, 48.65094
1024.825, 46.32349
1025.307, 52.38525
1025.790, 68.98993
1026.272, 63.35217
1026.754, 29.32697
1027.236, 5.027039
1027.718, 4.025452
1028.200, 12.85901
1028.682, 18.90405
1029.164, 22.88525
1029.647, 26.86963
1030.129, 29.21948
1030.611, 39.07831
1031.093, 61.56409
1031.575, 79.02710
1032.057, 82.51172
1032.539, 80.23639
1033.021, 82.00494
1033.504, 87.54291
1033.986, 91.95599
1034.468, 97.48956
1034.950, 96.32837
1035.432, 86.41962
1035.914, 71.80939
1036.396, 51.65851
1036.878, 29.96442
1037.360, 10.88635
1037.843, 6.783569
1038.325, 7.323669
1038.807, 28.38953
1039.289, 50.00830
1039.771, 42.61804
1040.253, 28.61493
1040.735, 18.16962
1041.217, 11.56897
1041.699, 9.812988
1042.182, 13.84625
1042.664, 18.17566
1043.146, 16.91290
1043.628, 23.90009
1044.110, 55.01221
1044.592, 83.52734
1045.074, 87.08240
1045.556, 72.64807
1046.039, 59.87213
1046.521, 48.77582
1047.003, 43.88098
1047.485, 60.43488
1047.967, 66.19562
1048.449, 33.91370
1048.931, 5.639221
1049.413, 20.69287
1049.896, 14.87610
1050.378, 9.402039
1050.860, 11.28717
1051.342, 3.934448
1051.824, 29.10144
1052.306, 56.35291
1052.788, 61.53040
1053.270, 54.58459
1053.752, 39.74927
1054.234, 21.67383
1054.717, 21.34058
1055.199, 57.81262
1055.681, 85.13965
1056.163, 88.15479
1056.645, 81.38843
1057.127, 65.65918
1057.609, 49.91919
1058.091, 49.46277
1058.574, 62.62732
1059.056, 62.87207
1059.538, 28.26660
1060.020, 1.328857
1060.502, 3.242554
1060.984, 4.135742
1061.466, 24.32410
1061.948, 47.64771
1062.431, 61.83972
1062.913, 64.90344
1063.395, 60.26819
1063.877, 36.08606
1064.359, 21.22595
1064.841, 39.84924
1065.323, 60.58679
1065.805, 52.87903
1066.287, 30.86292
1066.770, 24.42236
1067.252, 38.72925
1067.734, 48.44409
1068.216, 36.22681
1068.698, 26.09851
1069.180, 31.36108
1069.662, 42.26917
1070.144, 53.23755
1070.626, 61.55579
1071.109, 62.15613
1071.591, 53.90930
1072.073, 50.17102
1072.555, 65.84473
1073.037, 75.35217
1073.519, 57.11475
1074.001, 33.56628
1074.483, 24.50281
1074.966, 28.49341
1075.448, 39.26221
1075.930, 55.73389
1076.412, 66.23926
1076.894, 62.12415
1077.376, 55.03394
1077.858, 47.70618
1078.340, 43.81189
1078.823, 52.86938
1079.305, 67.29883
1079.787, 65.50012
1080.269, 39.74927
1080.751, 19.27100
1081.233, 17.01270
1081.715, 23.98584
1082.197, 43.87073
1082.679, 63.42957
1083.162, 68.23621
1083.644, 61.16479
1084.126, 51.96851
1084.608, 42.49780
1085.090, 36.86157
1085.572, 43.61292
1086.054, 48.60229
1086.536, 35.91919
1087.019, 24.00720
1087.501, 38.59045
1087.983, 68.74329
1088.465, 77.11877
1088.947, 49.43347
1089.429, 28.04712
1089.911, 38.42102
1090.393, 49.68079
1090.875, 43.35266
1091.358, 31.10657
1091.840, 23.60706
1092.322, 21.40881
1092.804, 22.15540
1093.286, 25.57739
1093.768, 30.03442
1094.250, 35.71069
1094.732, 41.45166
1095.214, 49.59863
1095.697, 54.99097
1096.179, 51.58789
1096.661, 42.26892
1097.143, 34.80212
1097.625, 31.51294
1098.107, 28.18213
1098.589, 21.78674
1099.071, 17.37415
1099.554, 18.57959
1100.036, 21.70898
1100.518, 23.08215
1101.000, 23.45959
1101.482, 24.65991
1101.964, 25.00879
1102.446, 34.82837
1102.928, 77.87000
1103.411, 103.3857
1103.893, 80.11401
1104.375, 41.35632
1104.857, 5.227295
1105.339, 20.81079
1105.821, 19.59631
1106.303, 18.05286
1106.785, 53.85120
1107.267, 97.96753
1107.750, 119.2290
1108.232, 86.32751
1108.714, 45.71411
1109.196, 39.30005
1109.678, 54.54895
1110.160, 53.14954
1110.642, 23.17883
1111.124, 13.78992
1111.606, 42.05212
1112.089, 71.28589
1112.571, 103.6849
1113.053, 124.8647
1113.535, 119.7770
1114.017, 96.88843
1114.499, 73.09497
1114.981, 43.83459
1115.463, 34.62756
1115.946, 65.62549
1116.428, 82.81433
1116.910, 67.15601
1117.392, 47.34082
1117.874, 42.77832
1118.356, 46.39099
1118.838, 44.91052
1119.320, 35.50110
1119.802, 26.31201
1120.285, 12.83313
1120.767, 11.97644
1121.249, 33.65735
1121.731, 54.56458
1122.213, 61.27710
1122.695, 58.11255
1123.177, 50.64819
1123.659, 38.36121
1124.141, 38.80481
1124.624, 57.41858
1125.106, 68.68860
1125.588, 68.85718
1126.070, 58.70105
1126.552, 33.61914
1127.034, 11.74329
1127.516, 25.40991
1127.998, 68.83130
1128.481, 71.30115
1128.963, 27.28918
1129.445, 1.643188
1129.927, 2.927490
1130.409, 19.54712
1130.891, 49.69971
1131.373, 73.62292
1131.855, 62.22949
1132.338, 27.02649
1132.820, 17.21338
1133.302, 31.70837
1133.784, 58.47644
1134.266, 95.07849
1134.748, 112.2753
1135.230, 98.10522
1135.712, 73.22070
1136.194, 57.48242
1136.677, 49.53357
1137.159, 39.23572
1137.641, 30.09375
1138.123, 44.59448
1138.605, 78.35010
1139.087, 96.17078
1139.569, 87.34082
1140.051, 66.06091
1140.533, 40.08105
1141.016, 18.35034
1141.498, 22.76721
1141.980, 36.91638
1142.462, 15.08362
1142.944, 25.88745
1143.426, 22.36499
1143.908, 32.67603
1144.390, 81.45593
1144.873, 87.94995
1145.355, 76.05676
1145.837, 63.82886
1146.319, 52.79150
1146.801, 41.23193
1147.283, 34.07764
1147.765, 45.76868
1148.247, 71.45483
1148.729, 83.85815
1149.212, 68.50244
1149.694, 46.16357
1150.176, 27.76978
1150.658, 21.48962
1151.140, 41.38794
1151.622, 64.71082
1152.104, 60.69348
1152.586, 35.59680
1153.068, 15.91455
1153.551, 6.466187
1154.033, 15.78748
1154.515, 75.45911
1154.997, 117.9758
1155.479, 94.62500
1155.961, 59.02209
1156.443, 59.91296
1156.925, 81.16589
1157.408, 83.68823
1157.890, 61.98193
1158.372, 45.19458
1158.854, 36.89978
1159.336, 33.45154
1159.818, 33.99817
1160.300, 39.32898
1160.782, 53.89819
1161.265, 71.79749
1161.747, 81.70886
1162.229, 84.72620
1162.711, 87.41431
1163.193, 87.77722
1163.675, 89.64746
1164.157, 100.2650
1164.639, 97.10730
1165.121, 61.80237
1165.604, 28.00940
1166.086, 34.61877
1166.568, 71.42139
1167.050, 95.09473
1167.532, 104.4146
1168.014, 102.2958
1168.496, 81.66113
1168.978, 72.65454
1169.460, 88.89465
1169.943, 95.71204
1170.425, 65.43958
1170.907, 24.58179
1171.389, 34.53394
1171.871, 83.89893
1172.353, 103.4506
1172.835, 96.78906
1173.317, 83.29236
1173.800, 66.91907
1174.282, 57.39209
1174.764, 59.04419
1175.246, 58.17383
1175.728, 26.80273
1176.210, 9.665649
1176.692, 7.842407
1177.174, 52.04883
1177.656, 61.45642
1178.139, 39.99072
1178.621, 28.78394
1179.103, 41.86157
1179.585, 62.00977
1180.067, 83.24304
1180.549, 97.42737
1181.031, 89.83777
1181.513, 74.82166
1181.995, 66.72888
1182.478, 62.05237
1182.960, 52.66333
1183.442, 38.47729
1183.924, 29.01331
1184.406, 28.05713
1184.888, 31.16248
1185.370, 39.25488
1185.852, 48.22546
1186.335, 24.49268
1186.817, 2.151855
1187.299, 1.555298
1187.781, 23.12292
1188.263, 56.06995
1188.745, 110.1024
1189.227, 128.3179
1189.709, 88.56812
1190.192, 53.39404
1190.674, 15.26917
1191.156, 2.857788
1191.638, 4.087524
1192.120, 11.62048
1192.602, 15.76294
1193.084, 17.19458
1193.566, 0.0000000E+00
##END=



