##NAMES=Ferrierite-K
##RRUFFID=R110200
##IDEAL CHEMISTRY=(K,Na)_5_(Si_31_Al_5_)O_72_&#183;18H_2_O
##LOCALITY=Conejo Volcanics, Agoura, Santa Monica Mountains, Los Angeles County, California, USA
##OWNER=RRUFF
##SOURCE=Donald Doell
##DESCRIPTION=Radial aggregates of acicular colorless crystals associated with clinoptilolite-K R110201
##STATUS=The identification of this mineral is not yet confirmed.
##URL=rruff.info/R110200
219.6994, 12130.70
220.1816, 12152.82
220.6637, 12177.88
221.1458, 12202.10
221.6279, 12222.81
222.1100, 12239.47
222.5921, 12254.09
223.0743, 12266.25
223.5564, 12276.55
224.0385, 12288.82
224.5206, 12305.81
225.0027, 12320.58
225.4848, 12328.04
225.9670, 12323.95
226.4491, 12323.35
226.9312, 12327.79
227.4133, 12336.80
227.8954, 12348.54
228.3775, 12364.58
228.8597, 12380.89
229.3418, 12394.29
229.8239, 12401.84
230.3060, 12413.41
230.7881, 12432.27
231.2702, 12455.75
231.7524, 12469.65
232.2345, 12465.85
232.7166, 12463.08
233.1987, 12473.64
233.6808, 12507.26
234.1629, 12531.59
234.6451, 12541.36
235.1272, 12539.92
235.6093, 12542.97
236.0914, 12554.14
236.5735, 12564.83
237.0556, 12569.32
237.5378, 12561.54
238.0199, 12562.00
238.5020, 12577.16
238.9841, 12601.91
239.4662, 12613.36
239.9483, 12603.48
240.4305, 12592.12
240.9126, 12590.39
241.3947, 12604.58
241.8768, 12615.03
242.3589, 12618.69
242.8410, 12618.29
243.3232, 12624.20
243.8053, 12641.69
244.2874, 12658.02
244.7695, 12665.32
245.2516, 12655.66
245.7337, 12654.40
246.2159, 12665.21
246.6980, 12684.16
247.1801, 12698.74
247.6622, 12706.81
248.1443, 12713.48
248.6264, 12720.76
249.1086, 12728.10
249.5907, 12737.84
250.0728, 12753.31
250.5549, 12770.42
251.0370, 12776.72
251.5191, 12764.17
252.0013, 12754.07
252.4834, 12756.63
252.9655, 12777.48
253.4476, 12797.12
253.9297, 12816.65
254.4118, 12834.69
254.8940, 12848.18
255.3761, 12855.83
255.8582, 12861.17
256.3403, 12864.05
256.8224, 12860.84
257.3046, 12867.17
257.7867, 12887.21
258.2688, 12913.59
258.7509, 12932.13
259.2330, 12940.66
259.7151, 12944.81
260.1973, 12945.37
260.6794, 12940.53
261.1615, 12940.17
261.6436, 12946.10
262.1257, 12955.10
262.6078, 12961.59
263.0900, 12964.61
263.5721, 12968.19
264.0542, 12974.49
264.5363, 12984.67
265.0184, 12991.69
265.5005, 12994.25
265.9827, 12995.87
266.4648, 13001.83
266.9469, 13013.32
267.4290, 13025.87
267.9111, 13039.03
268.3932, 13052.93
268.8754, 13061.88
269.3575, 13063.40
269.8396, 13063.19
270.3217, 13068.09
270.8038, 13078.23
271.2859, 13091.73
271.7681, 13108.07
272.2502, 13126.97
272.7323, 13149.32
273.2144, 13177.21
273.6965, 13203.32
274.1786, 13218.64
274.6608, 13221.57
275.1429, 13223.17
275.6250, 13225.24
276.1071, 13228.10
276.5892, 13235.05
277.0714, 13247.36
277.5535, 13259.94
278.0356, 13267.65
278.5177, 13269.99
278.9998, 13271.79
279.4819, 13273.89
279.9641, 13276.10
280.4462, 13278.35
280.9283, 13281.04
281.4104, 13281.73
281.8925, 13277.85
282.3746, 13269.40
282.8568, 13260.37
283.3389, 13250.67
283.8210, 13241.92
284.3031, 13239.75
284.7852, 13245.25
285.2673, 13250.98
285.7495, 13250.80
286.2316, 13245.49
286.7137, 13242.60
287.1958, 13242.61
287.6779, 13246.51
288.1600, 13258.95
288.6422, 13280.06
289.1243, 13298.98
289.6064, 13303.81
290.0885, 13298.37
290.5706, 13304.38
291.0527, 13325.67
291.5349, 13353.36
292.0170, 13374.62
292.4991, 13389.33
292.9812, 13400.58
293.4633, 13407.80
293.9454, 13412.47
294.4276, 13419.84
294.9097, 13430.57
295.3918, 13442.09
295.8739, 13450.93
296.3560, 13457.60
296.8381, 13464.57
297.3203, 13472.36
297.8024, 13481.39
298.2845, 13493.68
298.7666, 13509.76
299.2487, 13525.20
299.7308, 13535.70
300.2130, 13542.14
300.6951, 13546.84
301.1772, 13549.37
301.6593, 13551.32
302.1414, 13555.50
302.6235, 13561.78
303.1057, 13567.66
303.5878, 13565.48
304.0699, 13561.91
304.5520, 13570.41
305.0341, 13607.37
305.5162, 13647.17
305.9984, 13660.20
306.4805, 13649.49
306.9626, 13636.40
307.4447, 13634.90
307.9268, 13639.88
308.4089, 13644.68
308.8911, 13646.58
309.3732, 13649.45
309.8553, 13657.53
310.3374, 13669.45
310.8195, 13680.78
311.3016, 13688.48
311.7838, 13694.52
312.2659, 13700.36
312.7480, 13705.45
313.2301, 13712.08
313.7122, 13723.40
314.1943, 13737.32
314.6765, 13749.30
315.1586, 13755.21
315.6407, 13760.03
316.1228, 13767.84
316.6049, 13780.38
317.0870, 13790.58
317.5692, 13791.68
318.0513, 13789.35
318.5334, 13791.47
319.0155, 13810.16
319.4976, 13825.70
319.9797, 13826.04
320.4619, 13808.76
320.9440, 13797.26
321.4261, 13803.90
321.9082, 13817.11
322.3903, 13825.91
322.8724, 13821.64
323.3546, 13818.78
323.8367, 13821.20
324.3188, 13828.79
324.8009, 13837.43
325.2830, 13848.16
325.7651, 13858.82
326.2473, 13868.05
326.7294, 13879.06
327.2115, 13885.42
327.6936, 13884.20
328.1757, 13877.38
328.6578, 13873.85
329.1400, 13874.87
329.6221, 13878.75
330.1042, 13885.05
330.5863, 13895.84
331.0684, 13905.59
331.5505, 13910.19
332.0327, 13914.20
332.5148, 13928.97
332.9969, 13966.73
333.4790, 13997.74
333.9611, 14008.96
334.4432, 13991.48
334.9254, 13988.80
335.4075, 14008.17
335.8896, 14035.45
336.3717, 14049.94
336.8538, 14044.27
337.3359, 14042.96
337.8180, 14054.61
338.3001, 14078.91
338.7823, 14097.44
339.2644, 14110.89
339.7465, 14117.58
340.2286, 14113.41
340.7107, 14096.32
341.1928, 14082.63
341.6750, 14075.79
342.1571, 14075.05
342.6392, 14079.94
343.1213, 14092.33
343.6034, 14101.32
344.0855, 14094.74
344.5677, 14073.66
345.0498, 14063.57
345.5319, 14069.92
346.0140, 14084.77
346.4961, 14092.70
346.9782, 14093.98
347.4604, 14095.79
347.9425, 14103.03
348.4246, 14114.23
348.9067, 14123.19
349.3888, 14129.01
349.8709, 14135.45
350.3531, 14148.45
350.8352, 14166.31
351.3173, 14182.82
351.7994, 14197.40
352.2815, 14208.22
352.7636, 14209.03
353.2458, 14199.73
353.7279, 14192.62
354.2100, 14198.55
354.6921, 14213.50
355.1742, 14231.20
355.6563, 14254.88
356.1385, 14274.99
356.6206, 14277.15
357.1027, 14265.28
357.5848, 14259.06
358.0669, 14279.84
358.5490, 14307.09
359.0312, 14319.70
359.5133, 14307.57
359.9954, 14294.76
360.4775, 14296.83
360.9596, 14308.60
361.4417, 14318.88
361.9239, 14326.22
362.4060, 14328.86
362.8881, 14323.14
363.3702, 14306.05
363.8523, 14295.40
364.3344, 14301.67
364.8166, 14315.83
365.2987, 14327.65
365.7808, 14333.70
366.2629, 14338.00
366.7450, 14338.15
367.2271, 14334.29
367.7093, 14340.07
368.1914, 14371.39
368.6735, 14403.59
369.1556, 14420.61
369.6377, 14403.63
370.1198, 14393.51
370.6020, 14393.99
371.0841, 14402.53
371.5662, 14410.56
372.0483, 14419.54
372.5304, 14425.80
373.0125, 14427.18
373.4947, 14421.40
373.9768, 14416.86
374.4589, 14412.96
374.9410, 14410.74
375.4231, 14411.62
375.9052, 14415.31
376.3874, 14424.17
376.8695, 14442.93
377.3516, 14471.44
377.8337, 14481.46
378.3158, 14468.35
378.7979, 14451.19
379.2801, 14450.05
379.7622, 14465.81
380.2443, 14481.12
380.7264, 14493.34
381.2085, 14502.56
381.6906, 14507.33
382.1728, 14507.35
382.6549, 14509.26
383.1370, 14518.19
383.6191, 14532.58
384.1012, 14547.74
384.5833, 14564.06
385.0655, 14577.24
385.5476, 14576.54
386.0297, 14566.25
386.5118, 14562.52
386.9939, 14579.96
387.4760, 14605.86
387.9582, 14621.96
388.4403, 14628.06
388.9224, 14630.30
389.4045, 14632.06
389.8866, 14633.78
390.3687, 14636.13
390.8509, 14640.79
391.3330, 14645.01
391.8151, 14645.27
392.2972, 14643.04
392.7793, 14643.91
393.2614, 14656.04
393.7436, 14668.87
394.2257, 14673.18
394.7078, 14660.91
395.1899, 14655.58
395.6720, 14670.25
396.1541, 14696.05
396.6363, 14718.78
397.1184, 14731.79
397.6005, 14743.98
398.0826, 14760.16
398.5647, 14781.88
399.0468, 14795.74
399.5290, 14794.58
400.0111, 14788.31
400.4932, 14784.86
400.9753, 14784.71
401.4574, 14786.83
401.9395, 14789.76
402.4217, 14794.68
402.9038, 14808.19
403.3859, 14837.70
403.8680, 14865.04
404.3501, 14880.61
404.8322, 14880.19
405.3144, 14882.13
405.7965, 14886.50
406.2786, 14893.07
406.7607, 14901.78
407.2428, 14912.92
407.7249, 14924.67
408.2071, 14937.21
408.6892, 14949.90
409.1713, 14957.15
409.6534, 14957.90
410.1355, 14959.06
410.6176, 14967.71
411.0998, 14982.65
411.5819, 14997.16
412.0640, 15009.90
412.5461, 15021.58
413.0282, 15034.50
413.5103, 15048.03
413.9925, 15058.95
414.4746, 15063.22
414.9567, 15064.42
415.4388, 15069.29
415.9209, 15079.07
416.4030, 15086.48
416.8852, 15082.31
417.3673, 15072.37
417.8494, 15066.06
418.3315, 15068.57
418.8136, 15074.87
419.2957, 15083.17
419.7779, 15093.22
420.2600, 15103.01
420.7421, 15112.53
421.2242, 15121.20
421.7063, 15128.27
422.1884, 15133.01
422.6706, 15137.97
423.1527, 15143.13
423.6348, 15149.12
424.1169, 15156.99
424.5990, 15169.71
425.0811, 15181.53
425.5633, 15189.59
426.0454, 15192.69
426.5275, 15198.94
427.0096, 15208.92
427.4917, 15221.14
427.9738, 15234.73
428.4560, 15250.93
428.9381, 15265.35
429.4202, 15278.21
429.9023, 15288.44
430.3844, 15292.52
430.8665, 15289.02
431.3487, 15283.22
431.8308, 15276.74
432.3129, 15269.50
432.7950, 15265.08
433.2771, 15263.33
433.7592, 15265.39
434.2414, 15277.81
434.7235, 15299.08
435.2056, 15308.48
435.6877, 15293.31
436.1698, 15266.81
436.6519, 15256.60
437.1341, 15262.37
437.6162, 15274.91
438.0983, 15293.60
438.5804, 15313.21
439.0625, 15323.34
439.5446, 15320.19
440.0268, 15314.63
440.5089, 15315.27
440.9910, 15320.64
441.4731, 15327.63
441.9552, 15336.61
442.4373, 15345.24
442.9195, 15350.78
443.4016, 15353.21
443.8837, 15358.08
444.3658, 15372.21
444.8479, 15386.82
445.3300, 15394.71
445.8122, 15387.19
446.2943, 15382.12
446.7764, 15382.84
447.2585, 15388.01
447.7406, 15394.34
448.2227, 15403.50
448.7049, 15412.01
449.1870, 15419.41
449.6691, 15426.10
450.1512, 15430.03
450.6333, 15431.86
451.1154, 15430.65
451.5976, 15424.26
452.0797, 15410.15
452.5618, 15401.45
453.0439, 15403.54
453.5260, 15411.01
454.0081, 15403.52
454.4903, 15378.15
454.9724, 15357.29
455.4545, 15353.48
455.9366, 15365.25
456.4187, 15385.76
456.9008, 15416.55
457.3830, 15444.60
457.8651, 15450.02
458.3472, 15438.74
458.8293, 15429.95
459.3114, 15430.47
459.7935, 15435.38
460.2757, 15439.55
460.7578, 15442.79
461.2399, 15445.00
461.7220, 15445.49
462.2041, 15445.22
462.6862, 15445.54
463.1684, 15447.30
463.6505, 15447.46
464.1326, 15442.89
464.6147, 15436.59
465.0968, 15432.32
465.5789, 15433.19
466.0611, 15434.85
466.5432, 15437.96
467.0253, 15442.11
467.5074, 15441.89
467.9895, 15432.07
468.4716, 15421.71
468.9538, 15414.82
469.4359, 15411.08
469.9180, 15411.79
470.4001, 15419.60
470.8822, 15429.74
471.3643, 15434.05
471.8465, 15428.91
472.3286, 15428.22
472.8107, 15437.68
473.2928, 15454.49
473.7749, 15462.55
474.2570, 15460.46
474.7392, 15456.25
475.2213, 15455.58
475.7034, 15458.04
476.1855, 15461.19
476.6676, 15465.15
477.1497, 15469.01
477.6319, 15470.54
478.1140, 15470.87
478.5961, 15473.37
479.0782, 15481.65
479.5603, 15491.69
480.0424, 15498.90
480.5246, 15503.49
481.0067, 15507.04
481.4888, 15508.71
481.9709, 15510.64
482.4530, 15514.89
482.9352, 15522.37
483.4173, 15530.46
483.8994, 15540.83
484.3815, 15550.39
484.8636, 15554.45
485.3457, 15540.37
485.8279, 15532.38
486.3100, 15541.33
486.7921, 15567.40
487.2742, 15583.42
487.7563, 15583.64
488.2384, 15580.32
488.7206, 15580.36
489.2027, 15585.78
489.6848, 15589.76
490.1669, 15591.56
490.6490, 15593.01
491.1311, 15597.51
491.6133, 15605.55
492.0954, 15612.78
492.5775, 15616.58
493.0596, 15618.73
493.5417, 15627.71
494.0238, 15643.41
494.5060, 15657.68
494.9881, 15662.83
495.4702, 15661.55
495.9523, 15660.71
496.4344, 15660.88
496.9165, 15661.81
497.3987, 15662.01
497.8808, 15662.86
498.3629, 15667.07
498.8450, 15680.71
499.3271, 15694.07
499.8092, 15701.02
500.2914, 15702.32
500.7735, 15701.34
501.2556, 15698.77
501.7377, 15695.24
502.2198, 15690.53
502.7019, 15682.63
503.1841, 15679.43
503.6662, 15686.98
504.1483, 15697.91
504.6304, 15703.31
505.1125, 15698.28
505.5946, 15695.73
506.0768, 15698.59
506.5589, 15705.43
507.0410, 15708.94
507.5231, 15707.61
508.0052, 15706.63
508.4873, 15707.73
508.9695, 15710.78
509.4516, 15718.92
509.9337, 15732.52
510.4158, 15749.16
510.8979, 15769.64
511.3800, 15791.90
511.8622, 15805.53
512.3443, 15805.15
512.8264, 15798.75
513.3085, 15796.37
513.7906, 15797.12
514.2728, 15797.74
514.7549, 15799.56
515.2370, 15798.64
515.7191, 15789.65
516.2012, 15771.84
516.6833, 15756.44
517.1655, 15746.53
517.6476, 15742.59
518.1297, 15745.16
518.6118, 15761.77
519.0939, 15775.86
519.5760, 15785.64
520.0582, 15791.06
520.5403, 15791.89
521.0224, 15778.28
521.5045, 15774.00
521.9866, 15789.26
522.4688, 15823.98
522.9509, 15845.74
523.4330, 15850.45
523.9151, 15851.51
524.3972, 15858.58
524.8793, 15871.61
525.3615, 15887.24
525.8436, 15906.26
526.3257, 15924.61
526.8078, 15936.61
527.2899, 15942.59
527.7720, 15943.91
528.2542, 15938.87
528.7363, 15931.08
529.2184, 15923.18
529.7005, 15915.99
530.1826, 15913.57
530.6647, 15924.61
531.1469, 15937.93
531.6290, 15942.96
532.1111, 15936.46
532.5932, 15931.33
533.0753, 15935.37
533.5574, 15942.48
534.0396, 15946.24
534.5217, 15943.48
535.0038, 15940.15
535.4859, 15936.63
535.9680, 15933.28
536.4501, 15930.97
536.9323, 15929.48
537.4144, 15929.50
537.8965, 15931.57
538.3786, 15935.68
538.8607, 15938.14
539.3428, 15937.28
539.8250, 15939.26
540.3071, 15953.33
540.7892, 15977.35
541.2713, 15992.52
541.7534, 15993.94
542.2355, 15990.70
542.7177, 15996.65
543.1998, 16008.79
543.6819, 16017.44
544.1640, 16016.08
544.6461, 16010.64
545.1282, 16002.70
545.6104, 15993.91
546.0925, 15993.81
546.5746, 16015.52
547.0567, 16041.90
547.5388, 16061.22
548.0209, 16069.38
548.5031, 16078.72
548.9852, 16095.22
549.4673, 16112.51
549.9494, 16123.84
550.4315, 16126.20
550.9136, 16126.69
551.3958, 16124.55
551.8779, 16121.16
552.3600, 16121.63
552.8421, 16127.49
553.3242, 16131.44
553.8063, 16128.50
554.2885, 16120.25
554.7706, 16120.66
555.2527, 16130.54
555.7348, 16141.27
556.2169, 16146.52
556.6990, 16146.85
557.1812, 16142.19
557.6633, 16130.87
558.1454, 16121.62
558.6275, 16127.45
559.1096, 16140.70
559.5917, 16147.86
560.0739, 16135.21
560.5560, 16123.03
561.0381, 16122.36
561.5202, 16131.07
562.0023, 16139.43
562.4844, 16144.23
562.9666, 16148.55
563.4487, 16154.22
563.9308, 16162.16
564.4129, 16166.15
564.8950, 16163.98
565.3771, 16159.94
565.8593, 16157.21
566.3414, 16155.63
566.8235, 16155.83
567.3056, 16158.52
567.7877, 16161.93
568.2698, 16162.49
568.7520, 16160.46
569.2341, 16158.71
569.7162, 16156.79
570.1983, 16157.21
570.6804, 16169.38
571.1625, 16191.02
571.6447, 16205.47
572.1268, 16192.63
572.6089, 16172.97
573.0910, 16168.02
573.5731, 16182.06
574.0552, 16196.31
574.5374, 16201.03
575.0195, 16202.56
575.5016, 16206.76
575.9837, 16216.50
576.4658, 16226.25
576.9479, 16236.82
577.4301, 16246.22
577.9122, 16249.82
578.3943, 16241.44
578.8764, 16238.67
579.3585, 16247.49
579.8406, 16265.91
580.3228, 16283.05
580.8049, 16299.63
581.2870, 16309.79
581.7691, 16306.10
582.2512, 16292.40
582.7333, 16284.77
583.2155, 16284.90
583.6975, 16286.02
584.1796, 16277.93
584.6617, 16267.70
585.1439, 16267.66
585.6260, 16286.37
586.1081, 16307.16
586.5902, 16324.94
587.0723, 16337.18
587.5544, 16338.81
588.0366, 16311.82
588.5187, 16290.57
589.0008, 16288.80
589.4829, 16305.45
589.9650, 16317.11
590.4471, 16319.94
590.9293, 16321.87
591.4114, 16326.77
591.8935, 16335.14
592.3756, 16340.46
592.8577, 16341.18
593.3398, 16342.72
593.8220, 16353.75
594.3041, 16372.49
594.7862, 16384.71
595.2683, 16388.06
595.7504, 16384.13
596.2325, 16370.36
596.7147, 16350.86
597.1968, 16336.19
597.6789, 16328.48
598.1610, 16329.58
598.6431, 16350.15
599.1252, 16383.99
599.6074, 16402.80
600.0895, 16379.39
600.5716, 16353.28
601.0537, 16345.54
601.5358, 16363.40
602.0179, 16371.86
602.5001, 16364.25
602.9822, 16353.32
603.4643, 16348.84
603.9464, 16352.92
604.4285, 16354.77
604.9106, 16352.93
605.3928, 16350.25
605.8749, 16350.99
606.3570, 16354.96
606.8391, 16360.45
607.3212, 16367.93
607.8033, 16375.16
608.2855, 16376.64
608.7676, 16374.26
609.2497, 16375.35
609.7318, 16386.83
610.2139, 16400.97
610.6960, 16411.59
611.1782, 16418.39
611.6603, 16424.94
612.1424, 16434.98
612.6245, 16443.43
613.1066, 16447.18
613.5887, 16445.33
614.0709, 16440.59
614.5530, 16430.05
615.0351, 16419.71
615.5172, 16415.47
615.9993, 16417.87
616.4814, 16425.46
616.9636, 16440.17
617.4457, 16456.79
617.9278, 16465.02
618.4099, 16465.34
618.8920, 16463.74
619.3741, 16463.99
619.8563, 16462.51
620.3384, 16448.68
620.8205, 16425.99
621.3026, 16412.64
621.7847, 16429.77
622.2668, 16452.45
622.7490, 16460.21
623.2311, 16449.77
623.7132, 16443.37
624.1953, 16453.81
624.6774, 16466.10
625.1595, 16469.79
625.6417, 16460.89
626.1238, 16451.73
626.6059, 16442.05
627.0880, 16433.19
627.5701, 16427.18
628.0522, 16424.40
628.5344, 16420.93
629.0165, 16412.99
629.4986, 16408.31
629.9807, 16429.67
630.4628, 16471.34
630.9449, 16502.33
631.4271, 16494.27
631.9092, 16476.10
632.3913, 16480.56
632.8734, 16504.59
633.3555, 16528.56
633.8376, 16546.80
634.3198, 16558.49
634.8019, 16560.22
635.2840, 16548.05
635.7661, 16545.19
636.2482, 16564.48
636.7303, 16585.15
637.2125, 16592.28
637.6946, 16579.79
638.1767, 16572.46
638.6588, 16573.14
639.1409, 16576.32
639.6230, 16572.32
640.1052, 16562.04
640.5873, 16557.95
641.0694, 16564.80
641.5515, 16576.96
642.0336, 16587.72
642.5157, 16596.83
642.9979, 16603.62
643.4800, 16607.51
643.9621, 16608.96
644.4442, 16605.90
644.9263, 16599.59
645.4084, 16597.30
645.8906, 16606.68
646.3727, 16616.05
646.8548, 16618.18
647.3369, 16611.07
647.8190, 16613.28
648.3011, 16632.36
648.7833, 16649.42
649.2654, 16646.30
649.7475, 16620.23
650.2296, 16609.23
650.7117, 16617.29
651.1938, 16632.89
651.6760, 16642.31
652.1581, 16647.54
652.6402, 16654.65
653.1223, 16665.81
653.6044, 16677.78
654.0865, 16691.50
654.5687, 16703.55
655.0508, 16707.63
655.5329, 16689.01
656.0150, 16674.73
656.4971, 16678.13
656.9792, 16695.69
657.4614, 16707.82
657.9435, 16708.75
658.4256, 16711.13
658.9077, 16720.04
659.3898, 16735.02
659.8719, 16746.02
660.3541, 16752.74
660.8362, 16756.68
661.3183, 16760.95
661.8004, 16763.59
662.2825, 16752.70
662.7646, 16726.60
663.2468, 16705.79
663.7289, 16717.24
664.2110, 16741.53
664.6931, 16752.18
665.1752, 16738.50
665.6573, 16724.47
666.1395, 16721.52
666.6216, 16723.94
667.1037, 16724.65
667.5858, 16716.18
668.0679, 16714.89
668.5500, 16725.32
669.0322, 16742.17
669.5143, 16753.85
669.9964, 16759.76
670.4785, 16763.49
670.9606, 16766.41
671.4427, 16767.50
671.9249, 16761.03
672.4070, 16748.25
672.8891, 16740.34
673.3712, 16746.84
673.8533, 16760.00
674.3354, 16773.33
674.8176, 16786.15
675.2997, 16793.83
675.7818, 16787.51
676.2639, 16780.32
676.7460, 16781.62
677.2281, 16795.95
677.7103, 16804.47
678.1924, 16800.46
678.6745, 16796.60
679.1566, 16802.58
679.6387, 16820.33
680.1208, 16839.84
680.6030, 16862.29
681.0851, 16882.20
681.5672, 16892.38
682.0493, 16894.10
682.5314, 16892.64
683.0135, 16887.26
683.4957, 16883.54
683.9778, 16890.24
684.4599, 16902.50
684.9420, 16911.02
685.4241, 16909.54
685.9063, 16906.84
686.3884, 16905.14
686.8705, 16904.83
687.3526, 16906.82
687.8347, 16910.05
688.3168, 16917.96
688.7990, 16935.15
689.2811, 16958.80
689.7632, 16965.77
690.2453, 16953.87
690.7274, 16941.03
691.2095, 16936.82
691.6917, 16939.74
692.1738, 16949.43
692.6559, 16965.04
693.1380, 16972.89
693.6201, 16953.60
694.1022, 16926.89
694.5844, 16910.95
695.0665, 16908.68
695.5486, 16913.15
696.0307, 16928.31
696.5128, 16944.91
696.9949, 16955.88
697.4771, 16960.27
697.9592, 16960.58
698.4413, 16955.30
698.9234, 16948.34
699.4055, 16945.36
699.8876, 16946.72
700.3698, 16944.68
700.8519, 16937.08
701.3340, 16929.05
701.8161, 16930.82
702.2982, 16938.11
702.7803, 16939.41
703.2625, 16924.35
703.7446, 16909.63
704.2267, 16906.17
704.7088, 16911.26
705.1909, 16919.08
705.6730, 16930.73
706.1552, 16941.39
706.6373, 16947.69
707.1194, 16951.31
707.6015, 16962.24
708.0836, 16983.67
708.5657, 17001.10
709.0479, 17006.82
709.5300, 17003.73
710.0121, 17005.04
710.4942, 17010.44
710.9763, 17015.43
711.4584, 17017.49
711.9406, 17017.13
712.4227, 17014.42
712.9048, 17009.55
713.3869, 17004.90
713.8690, 17000.86
714.3511, 16998.40
714.8333, 16999.35
715.3154, 17007.05
715.7975, 17008.56
716.2796, 17001.68
716.7617, 16992.02
717.2438, 16984.65
717.7260, 16980.53
718.2081, 16969.79
718.6902, 16949.98
719.1723, 16932.38
719.6544, 16933.08
720.1365, 16946.38
720.6187, 16957.32
721.1008, 16961.05
721.5829, 16966.24
722.0650, 16981.21
722.5471, 17000.71
723.0292, 17018.14
723.5114, 17032.44
723.9935, 17042.38
724.4756, 17043.58
724.9577, 17041.51
725.4398, 17045.80
725.9219, 17058.00
726.4041, 17071.12
726.8862, 17083.51
727.3683, 17095.84
727.8504, 17112.04
728.3325, 17130.65
728.8146, 17141.61
729.2968, 17136.09
729.7789, 17124.06
730.2610, 17114.25
730.7431, 17107.07
731.2252, 17103.96
731.7073, 17108.22
732.1895, 17114.10
732.6716, 17120.21
733.1537, 17126.30
733.6358, 17129.75
734.1179, 17129.16
734.6000, 17128.94
735.0822, 17133.02
735.5643, 17140.23
736.0464, 17134.09
736.5285, 17113.88
737.0106, 17096.95
737.4927, 17101.11
737.9749, 17114.81
738.4570, 17116.70
738.9391, 17106.08
739.4212, 17097.12
739.9033, 17097.93
740.3854, 17103.61
740.8676, 17112.41
741.3497, 17126.82
741.8318, 17132.20
742.3139, 17122.12
742.7960, 17109.25
743.2781, 17101.44
743.7603, 17098.93
744.2424, 17100.71
744.7245, 17107.56
745.2066, 17115.92
745.6887, 17123.79
746.1708, 17130.40
746.6530, 17132.33
747.1351, 17128.08
747.6172, 17124.95
748.0993, 17128.70
748.5814, 17136.53
749.0635, 17145.40
749.5457, 17156.99
750.0278, 17165.54
750.5099, 17161.92
750.9920, 17159.84
751.4741, 17179.54
751.9562, 17229.85
752.4384, 17260.28
752.9205, 17259.36
753.4026, 17244.46
753.8847, 17241.79
754.3668, 17248.77
754.8489, 17255.58
755.3311, 17258.83
755.8132, 17261.48
756.2953, 17266.09
756.7774, 17271.94
757.2595, 17277.66
757.7416, 17287.83
758.2238, 17292.38
758.7059, 17284.36
759.1880, 17270.91
759.6701, 17268.55
760.1522, 17283.76
760.6343, 17289.19
761.1165, 17274.27
761.5986, 17249.54
762.0807, 17240.20
762.5628, 17244.63
763.0449, 17253.05
763.5270, 17264.23
764.0092, 17274.34
764.4913, 17279.20
764.9734, 17279.87
765.4555, 17279.88
765.9376, 17275.91
766.4197, 17276.02
766.9019, 17286.14
767.3840, 17303.16
767.8661, 17313.43
768.3482, 17316.15
768.8303, 17313.63
769.3124, 17304.14
769.7946, 17290.93
770.2767, 17284.48
770.7588, 17284.66
771.2409, 17290.36
771.7230, 17306.61
772.2051, 17324.13
772.6873, 17334.65
773.1694, 17338.24
773.6515, 17336.94
774.1336, 17325.20
774.6157, 17315.13
775.0978, 17313.40
775.5800, 17319.68
776.0621, 17320.71
776.5442, 17312.86
777.0263, 17310.46
777.5084, 17325.03
777.9905, 17351.92
778.4727, 17369.24
778.9548, 17377.18
779.4369, 17380.98
779.9190, 17383.84
780.4011, 17384.40
780.8832, 17379.04
781.3654, 17367.68
781.8475, 17361.14
782.3296, 17366.33
782.8117, 17374.22
783.2938, 17382.03
783.7759, 17390.61
784.2581, 17387.77
784.7402, 17369.10
785.2223, 17353.77
785.7044, 17362.59
786.1865, 17386.68
786.6686, 17386.21
787.1508, 17360.54
787.6329, 17336.27
788.1150, 17332.62
788.5971, 17340.19
789.0792, 17351.15
789.5613, 17364.88
790.0435, 17379.14
790.5256, 17396.82
791.0077, 17411.30
791.4898, 17418.45
791.9719, 17416.79
792.4540, 17414.28
792.9362, 17409.72
793.4183, 17408.27
793.9004, 17419.04
794.3825, 17435.89
794.8646, 17439.88
795.3467, 17429.61
795.8289, 17417.84
796.3110, 17413.66
796.7931, 17412.61
797.2752, 17412.04
797.7573, 17412.77
798.2394, 17409.73
798.7216, 17400.33
799.2037, 17390.02
799.6858, 17380.42
800.1679, 17370.22
800.6500, 17375.77
801.1321, 17399.81
801.6143, 17423.27
802.0964, 17425.49
802.5785, 17415.75
803.0606, 17411.81
803.5427, 17415.88
804.0248, 17421.12
804.5070, 17422.46
804.9891, 17423.76
805.4712, 17428.57
805.9533, 17439.53
806.4354, 17445.31
806.9175, 17440.89
807.3997, 17438.27
807.8818, 17449.92
808.3639, 17475.13
808.8460, 17486.25
809.3281, 17481.64
809.8102, 17471.88
810.2924, 17461.60
810.7745, 17454.42
811.2566, 17457.81
811.7387, 17474.20
812.2208, 17487.02
812.7029, 17482.12
813.1851, 17477.11
813.6672, 17486.39
814.1493, 17516.22
814.6314, 17532.96
815.1135, 17533.05
815.5956, 17528.68
816.0778, 17528.16
816.5599, 17531.17
817.0420, 17537.12
817.5241, 17545.89
818.0062, 17555.18
818.4883, 17564.52
818.9705, 17572.38
819.4526, 17574.32
819.9347, 17567.56
820.4168, 17571.54
820.8989, 17608.67
821.3810, 17640.39
821.8632, 17646.48
822.3453, 17624.80
822.8274, 17596.16
823.3095, 17559.02
823.7916, 17528.98
824.2737, 17523.80
824.7559, 17533.83
825.2380, 17541.38
825.7201, 17545.32
826.2022, 17545.58
826.6843, 17541.09
827.1664, 17533.75
827.6486, 17521.84
828.1307, 17503.04
828.6128, 17498.34
829.0949, 17511.70
829.5770, 17532.09
830.0591, 17558.28
830.5413, 17588.18
831.0234, 17598.85
831.5055, 17590.34
831.9876, 17576.82
832.4697, 17565.36
832.9518, 17556.02
833.4340, 17546.70
833.9161, 17538.01
834.3982, 17538.05
834.8803, 17562.25
835.3624, 17583.40
835.8445, 17588.64
836.3267, 17578.76
836.8088, 17572.01
837.2909, 17569.47
837.7730, 17565.72
838.2551, 17555.77
838.7372, 17543.21
839.2194, 17533.61
839.7015, 17528.29
840.1836, 17534.75
840.6657, 17573.36
841.1478, 17610.62
841.6299, 17624.42
842.1121, 17615.94
842.5942, 17603.57
843.0763, 17579.35
843.5584, 17568.07
844.0405, 17582.85
844.5226, 17614.59
845.0048, 17627.07
845.4869, 17621.09
845.9690, 17610.72
846.4511, 17598.43
846.9332, 17589.23
847.4153, 17590.81
847.8975, 17600.30
848.3796, 17609.36
848.8617, 17621.16
849.3438, 17625.37
849.8259, 17616.16
850.3080, 17598.69
850.7902, 17584.11
851.2723, 17571.65
851.7544, 17568.98
852.2365, 17580.97
852.7186, 17599.78
853.2007, 17610.67
853.6829, 17616.79
854.1650, 17626.91
854.6471, 17648.10
855.1292, 17669.14
855.6113, 17687.16
856.0934, 17700.44
856.5756, 17705.82
857.0577, 17698.47
857.5398, 17692.89
858.0219, 17690.21
858.5040, 17690.21
858.9861, 17690.68
859.4683, 17692.81
859.9504, 17706.50
860.4325, 17738.97
860.9146, 17766.45
861.3967, 17759.42
861.8788, 17737.74
862.3610, 17726.35
862.8431, 17740.98
863.3252, 17748.16
863.8073, 17741.17
864.2894, 17730.23
864.7715, 17725.09
865.2537, 17726.17
865.7358, 17731.44
866.2179, 17742.36
866.7000, 17749.10
867.1821, 17737.71
867.6642, 17717.88
868.1464, 17703.09
868.6285, 17695.44
869.1106, 17692.71
869.5927, 17694.25
870.0748, 17700.38
870.5569, 17711.86
871.0391, 17729.57
871.5212, 17742.99
872.0033, 17750.65
872.4854, 17756.93
872.9675, 17766.18
873.4496, 17775.50
873.9318, 17774.35
874.4139, 17763.57
874.8960, 17759.57
875.3781, 17786.40
875.8602, 17810.49
876.3423, 17805.21
876.8245, 17770.11
877.3066, 17754.64
877.7887, 17769.26
878.2708, 17781.75
878.7529, 17779.57
879.2350, 17766.52
879.7172, 17749.64
880.1993, 17731.14
880.6814, 17721.18
881.1635, 17732.15
881.6456, 17747.83
882.1277, 17756.85
882.6099, 17760.58
883.0920, 17763.46
883.5741, 17760.20
884.0562, 17764.13
884.5383, 17779.76
885.0204, 17800.70
885.5026, 17811.63
885.9847, 17813.12
886.4668, 17820.04
886.9489, 17839.58
887.4310, 17858.74
887.9131, 17857.92
888.3953, 17848.92
888.8774, 17850.17
889.3595, 17885.56
889.8416, 17903.02
890.3237, 17883.99
890.8058, 17854.73
891.2880, 17842.47
891.7701, 17848.78
892.2522, 17855.58
892.7343, 17861.93
893.2164, 17865.50
893.6985, 17861.84
894.1807, 17854.63
894.6628, 17849.66
895.1449, 17848.32
895.6270, 17845.07
896.1091, 17833.98
896.5912, 17823.90
897.0734, 17821.31
897.5555, 17827.51
898.0376, 17825.50
898.5197, 17813.71
899.0018, 17805.09
899.4839, 17811.61
899.9661, 17826.68
900.4482, 17838.89
900.9303, 17848.30
901.4124, 17856.01
901.8945, 17863.70
902.3766, 17868.70
902.8588, 17865.21
903.3409, 17856.78
903.8230, 17861.72
904.3051, 17883.94
904.7872, 17902.93
905.2693, 17910.90
905.7515, 17912.61
906.2336, 17917.26
906.7157, 17923.81
907.1978, 17929.39
907.6799, 17930.00
908.1620, 17932.90
908.6442, 17946.91
909.1263, 17963.65
909.6084, 17969.00
910.0905, 17958.32
910.5726, 17948.71
911.0547, 17941.20
911.5369, 17936.62
912.0190, 17937.41
912.5011, 17941.96
912.9832, 17944.99
913.4653, 17945.20
913.9474, 17946.72
914.4296, 17953.87
914.9117, 17962.20
915.3938, 17966.88
915.8759, 17965.16
916.3580, 17970.54
916.8401, 17985.95
917.3223, 18000.46
917.8044, 18008.30
918.2865, 18009.03
918.7686, 17995.13
919.2507, 17969.16
919.7328, 17953.52
920.2150, 17977.40
920.6971, 18002.66
921.1792, 18003.29
921.6613, 17981.79
922.1434, 17964.86
922.6255, 17951.65
923.1077, 17947.40
923.5898, 17955.76
924.0719, 17971.69
924.5540, 17984.65
925.0361, 17994.91
925.5182, 18003.87
926.0004, 18013.02
926.4825, 18018.71
926.9646, 18015.44
927.4467, 18007.99
927.9288, 18003.89
928.4109, 18005.74
928.8931, 18005.77
929.3752, 18002.71
929.8573, 17999.60
930.3394, 18001.71
930.8215, 18006.95
931.3036, 18007.41
931.7858, 18002.26
932.2679, 17994.58
932.7500, 17980.00
933.2321, 17969.17
933.7142, 17975.43
934.1964, 18004.41
934.6785, 18007.82
935.1606, 17973.96
935.6427, 17943.98
936.1248, 17942.56
936.6069, 17960.77
937.0891, 17968.15
937.5712, 17966.89
938.0533, 17967.78
938.5354, 17977.09
939.0175, 17989.38
939.4996, 18004.62
939.9818, 18019.81
940.4639, 18025.40
940.9460, 18012.11
941.4281, 18013.40
941.9102, 18039.58
942.3923, 18073.60
942.8745, 18088.63
943.3566, 18088.83
943.8387, 18085.07
944.3208, 18079.03
944.8029, 18073.37
945.2850, 18069.73
945.7672, 18067.38
946.2493, 18066.75
946.7314, 18070.54
947.2135, 18064.27
947.6956, 18044.65
948.1777, 18026.99
948.6599, 18023.25
949.1420, 18030.56
949.6241, 18046.48
950.1062, 18069.05
950.5883, 18085.11
951.0704, 18077.25
951.5526, 18070.88
952.0347, 18083.88
952.5168, 18109.50
952.9989, 18121.91
953.4810, 18119.13
953.9631, 18111.87
954.4453, 18102.18
954.9274, 18091.40
955.4095, 18079.43
955.8916, 18068.53
956.3737, 18063.74
956.8558, 18070.39
957.3380, 18076.63
957.8201, 18079.96
958.3022, 18080.29
958.7843, 18075.67
959.2664, 18063.35
959.7485, 18065.08
960.2307, 18083.37
960.7128, 18102.04
961.1949, 18103.77
961.6770, 18098.46
962.1591, 18100.05
962.6412, 18109.20
963.1234, 18119.25
963.6055, 18126.64
964.0876, 18135.90
964.5697, 18150.62
965.0518, 18167.89
965.5339, 18174.89
966.0161, 18171.46
966.4982, 18165.24
966.9803, 18154.68
967.4624, 18149.66
967.9445, 18171.03
968.4266, 18203.21
968.9088, 18220.10
969.3909, 18204.17
969.8730, 18186.93
970.3551, 18168.21
970.8372, 18152.37
971.3193, 18144.96
971.8015, 18145.28
972.2836, 18143.24
972.7657, 18138.13
973.2478, 18136.58
973.7299, 18152.79
974.2120, 18168.15
974.6942, 18161.83
975.1763, 18132.45
975.6584, 18121.33
976.1405, 18139.14
976.6226, 18154.56
977.1047, 18152.07
977.5869, 18142.41
978.0690, 18161.25
978.5511, 18200.09
979.0332, 18227.76
979.5153, 18226.68
979.9974, 18218.68
980.4796, 18213.65
980.9617, 18209.31
981.4438, 18201.81
981.9259, 18187.54
982.4080, 18181.95
982.8901, 18187.21
983.3723, 18196.00
983.8544, 18201.69
984.3365, 18205.68
984.8186, 18209.89
985.3007, 18214.71
985.7828, 18221.93
986.2650, 18239.04
986.7471, 18251.48
987.2292, 18249.63
987.7113, 18237.61
988.1934, 18239.27
988.6755, 18255.13
989.1577, 18268.25
989.6398, 18270.61
990.1219, 18269.03
990.6040, 18269.76
991.0861, 18272.61
991.5682, 18277.50
992.0504, 18285.99
992.5325, 18294.09
993.0146, 18303.11
993.4967, 18309.64
993.9788, 18309.55
994.4609, 18303.78
994.9431, 18299.01
995.4252, 18295.73
995.9073, 18294.96
996.3894, 18306.36
996.8715, 18313.28
997.3536, 18296.55
997.8358, 18258.93
998.3179, 18240.87
998.8000, 18249.27
999.2821, 18261.54
999.7642, 18272.26
1000.246, 18281.68
1000.728, 18292.00
1001.211, 18301.18
1001.693, 18302.67
1002.175, 18290.15
1002.657, 18279.57
1003.139, 18280.16
1003.621, 18284.41
1004.103, 18284.67
1004.585, 18278.95
1005.068, 18280.29
1005.550, 18288.71
1006.032, 18302.33
1006.514, 18327.28
1006.996, 18351.35
1007.478, 18355.08
1007.960, 18341.90
1008.442, 18335.11
1008.924, 18347.66
1009.407, 18358.40
1009.889, 18362.61
1010.371, 18363.11
1010.853, 18367.54
1011.335, 18374.69
1011.817, 18374.18
1012.299, 18361.72
1012.781, 18351.26
1013.263, 18358.63
1013.746, 18370.36
1014.228, 18372.63
1014.710, 18362.63
1015.192, 18355.18
1015.674, 18349.07
1016.156, 18350.79
1016.638, 18371.50
1017.120, 18399.18
1017.603, 18404.42
1018.085, 18392.71
1018.567, 18383.74
1019.049, 18382.61
1019.531, 18389.08
1020.013, 18404.17
1020.495, 18424.70
1020.977, 18450.14
1021.459, 18480.61
1021.942, 18495.01
1022.424, 18489.29
1022.906, 18477.43
1023.388, 18472.03
1023.870, 18467.71
1024.352, 18458.80
1024.834, 18444.68
1025.316, 18431.75
1025.799, 18419.95
1026.281, 18411.63
1026.763, 18407.82
1027.245, 18408.74
1027.727, 18415.43
1028.209, 18427.12
1028.691, 18441.18
1029.173, 18461.35
1029.656, 18476.03
1030.138, 18471.72
1030.620, 18463.84
1031.102, 18471.03
1031.584, 18498.62
1032.066, 18505.24
1032.548, 18487.32
1033.030, 18472.48
1033.512, 18487.68
1033.995, 18515.92
1034.477, 18541.90
1034.959, 18563.28
1035.441, 18572.96
1035.923, 18561.76
1036.405, 18549.50
1036.887, 18539.50
1037.369, 18531.18
1037.851, 18522.01
1038.334, 18513.41
1038.816, 18511.33
1039.298, 18519.48
1039.780, 18524.06
1040.262, 18510.48
1040.744, 18494.92
1041.226, 18491.12
1041.708, 18500.01
1042.191, 18506.86
1042.673, 18511.54
1043.155, 18516.81
1043.637, 18527.54
1044.119, 18536.93
1044.601, 18531.50
1045.083, 18517.72
1045.565, 18510.63
1046.047, 18518.22
1046.530, 18528.42
1047.012, 18543.20
1047.494, 18555.48
1047.976, 18553.92
1048.458, 18542.26
1048.940, 18539.37
1049.422, 18546.43
1049.904, 18555.77
1050.386, 18566.96
1050.869, 18574.87
1051.351, 18569.57
1051.833, 18557.48
1052.315, 18569.47
1052.797, 18610.22
1053.279, 18638.11
1053.761, 18639.96
1054.243, 18630.82
1054.726, 18623.23
1055.208, 18619.68
1055.690, 18625.09
1056.172, 18645.09
1056.654, 18659.27
1057.136, 18666.86
1057.618, 18667.31
1058.100, 18656.55
1058.583, 18639.11
1059.065, 18633.45
1059.547, 18637.74
1060.029, 18643.48
1060.511, 18646.98
1060.993, 18650.21
1061.475, 18651.90
1061.957, 18655.01
1062.439, 18664.38
1062.922, 18681.06
1063.404, 18697.48
1063.886, 18713.93
1064.368, 18721.42
1064.850, 18703.20
1065.332, 18678.41
1065.814, 18665.12
1066.296, 18664.31
1066.778, 18670.01
1067.261, 18688.38
1067.743, 18695.73
1068.225, 18681.70
1068.707, 18660.45
1069.189, 18659.74
1069.671, 18672.40
1070.153, 18681.79
1070.635, 18682.75
1071.118, 18684.00
1071.600, 18694.27
1072.082, 18700.57
1072.564, 18693.18
1073.046, 18674.06
1073.528, 18666.56
1074.010, 18670.21
1074.492, 18673.96
1074.974, 18672.99
1075.457, 18669.21
1075.939, 18658.86
1076.421, 18648.54
1076.903, 18651.22
1077.385, 18676.56
1077.867, 18682.84
1078.349, 18663.46
1078.831, 18644.57
1079.313, 18655.11
1079.796, 18678.66
1080.278, 18692.21
1080.760, 18695.07
1081.242, 18692.77
1081.724, 18678.76
1082.206, 18670.62
1082.688, 18673.22
1083.170, 18682.12
1083.652, 18690.96
1084.135, 18699.38
1084.617, 18705.26
1085.099, 18708.28
1085.581, 18709.56
1086.063, 18709.97
1086.545, 18708.74
1087.027, 18703.82
1087.509, 18696.25
1087.992, 18696.74
1088.474, 18705.40
1088.956, 18717.16
1089.438, 18733.74
1089.920, 18745.94
1090.402, 18739.83
1090.884, 18726.00
1091.366, 18719.26
1091.849, 18724.34
1092.331, 18728.86
1092.813, 18732.25
1093.295, 18736.95
1093.777, 18747.82
1094.259, 18759.55
1094.741, 18757.61
1095.223, 18746.98
1095.705, 18745.70
1096.188, 18768.63
1096.670, 18790.54
1097.152, 18810.12
1097.634, 18822.72
1098.116, 18815.36
1098.598, 18794.66
1099.080, 18796.07
1099.562, 18822.45
1100.044, 18846.32
1100.527, 18854.44
1101.009, 18851.87
1101.491, 18837.25
1101.973, 18815.67
1102.455, 18800.99
1102.937, 18793.37
1103.419, 18794.19
1103.901, 18805.87
1104.384, 18818.48
1104.866, 18819.89
1105.348, 18818.97
1105.830, 18827.45
1106.312, 18848.84
1106.794, 18852.39
1107.276, 18832.49
1107.758, 18816.76
1108.240, 18819.47
1108.723, 18831.07
1109.205, 18837.74
1109.687, 18841.39
1110.169, 18845.68
1110.651, 18849.15
1111.133, 18858.78
1111.615, 18879.89
1112.097, 18897.95
1112.579, 18898.11
1113.062, 18886.34
1113.544, 18884.46
1114.026, 18890.82
1114.508, 18896.75
1114.990, 18900.83
1115.472, 18900.16
1115.954, 18890.14
1116.436, 18878.44
1116.919, 18876.35
1117.401, 18883.14
1117.883, 18885.43
1118.365, 18882.26
1118.847, 18880.69
1119.329, 18886.43
1119.811, 18895.07
1120.293, 18908.08
1120.776, 18921.35
1121.258, 18917.08
1121.740, 18891.70
1122.222, 18886.36
1122.704, 18914.72
1123.186, 18941.55
1123.668, 18920.58
1124.150, 18885.20
1124.632, 18872.36
1125.115, 18888.89
1125.597, 18897.35
1126.079, 18894.98
1126.561, 18892.43
1127.043, 18894.87
1127.525, 18898.04
1128.007, 18893.29
1128.489, 18885.13
1128.971, 18881.71
1129.454, 18888.69
1129.936, 18891.63
1130.418, 18887.82
1130.900, 18883.63
1131.382, 18882.68
1131.864, 18884.55
1132.346, 18889.58
1132.828, 18896.17
1133.311, 18899.10
1133.793, 18884.21
1134.275, 18881.03
1134.757, 18899.79
1135.239, 18927.12
1135.721, 18955.58
1136.203, 18982.71
1136.685, 18985.85
1137.167, 18966.86
1137.650, 18954.70
1138.132, 18976.88
1138.614, 18998.95
1139.096, 19002.40
1139.578, 18995.92
1140.060, 18992.59
1140.542, 18992.73
1141.024, 18992.02
1141.506, 18990.25
1141.989, 18989.71
1142.471, 18997.82
1142.953, 19003.49
1143.435, 18995.26
1143.917, 18976.67
1144.399, 18963.88
1144.881, 18956.24
1145.363, 18961.51
1145.846, 18983.59
1146.328, 19008.23
1146.810, 19023.13
1147.292, 19029.38
1147.774, 19022.96
1148.256, 19001.81
1148.738, 19003.13
1149.220, 19035.57
1149.703, 19059.93
1150.185, 19061.06
1150.667, 19050.19
1151.149, 19037.41
1151.631, 19026.56
1152.113, 19024.89
1152.595, 19038.01
1153.077, 19045.72
1153.559, 19044.70
1154.042, 19043.83
1154.524, 19049.39
1155.006, 19057.13
1155.488, 19056.67
1155.970, 19050.63
1156.452, 19045.29
1156.934, 19043.70
1157.416, 19041.37
1157.898, 19037.61
1158.381, 19033.74
1158.863, 19031.77
1159.345, 19030.49
1159.827, 19021.21
1160.309, 19007.20
1160.791, 19002.13
1161.273, 19016.80
1161.755, 19035.39
1162.238, 19058.46
1162.720, 19078.06
1163.202, 19084.38
1163.684, 19078.94
1164.166, 19071.15
1164.648, 19061.78
1165.130, 19054.61
1165.612, 19045.40
1166.094, 19046.89
1166.577, 19076.85
1167.059, 19112.48
1167.541, 19113.29
1168.023, 19082.86
1168.505, 19064.71
1168.987, 19063.45
1169.469, 19066.51
1169.951, 19067.26
1170.433, 19067.78
1170.916, 19068.91
1171.398, 19070.86
1171.880, 19074.31
1172.362, 19079.16
1172.844, 19083.06
1173.326, 19084.82
1173.808, 19089.96
1174.290, 19109.73
1174.773, 19128.75
1175.255, 19130.94
1175.737, 19120.38
1176.219, 19120.89
1176.701, 19133.35
1177.183, 19137.76
1177.665, 19126.78
1178.147, 19113.69
1178.630, 19107.13
1179.112, 19107.77
1179.594, 19119.43
1180.076, 19141.98
1180.558, 19158.55
1181.040, 19169.35
1181.522, 19174.60
1182.004, 19174.38
1182.486, 19168.80
1182.969, 19150.88
1183.451, 19131.47
1183.933, 19124.52
1184.415, 19132.79
1184.897, 19142.66
1185.379, 19154.58
1185.861, 19163.99
1186.343, 19166.37
1186.825, 19167.71
1187.308, 19177.75
1187.790, 19190.56
1188.272, 19196.78
1188.754, 19194.96
1189.236, 19185.62
1189.718, 19166.93
1190.200, 19151.34
1190.682, 19148.57
1191.165, 19152.44
1191.647, 19158.83
1192.129, 19165.10
1192.611, 19165.15
1193.093, 19151.93
1193.575, 19147.65
1194.057, 19154.48
1194.539, 19163.07
1195.021, 19164.13
1195.504, 19163.83
1195.986, 19172.87
1196.468, 19187.50
1196.950, 19196.13
1197.432, 19191.59
1197.914, 19193.20
1198.396, 19203.95
1198.878, 19213.57
1199.360, 19211.05
1199.843, 19202.14
1200.325, 19192.17
1200.807, 19183.09
1201.289, 19181.71
1201.771, 19193.79
1202.253, 19204.29
1202.735, 19212.36
1203.217, 19217.25
1203.700, 19212.84
1204.182, 19207.84
1204.664, 19215.43
1205.146, 19234.95
1205.628, 19257.89
1206.110, 19289.74
1206.592, 19306.74
1207.074, 19301.66
1207.557, 19289.40
1208.039, 19286.29
1208.521, 19288.94
1209.003, 19293.56
1209.485, 19299.40
1209.967, 19304.33
1210.449, 19308.40
1210.931, 19310.58
1211.413, 19310.09
1211.896, 19309.79
1212.378, 19317.01
1212.860, 19325.44
1213.342, 19324.85
1213.824, 19314.35
1214.306, 19304.04
1214.788, 19295.18
1215.270, 19287.38
1215.752, 19280.97
1216.235, 19275.22
1216.717, 19271.46
1217.199, 19266.60
1217.681, 19252.67
1218.163, 19227.35
1218.645, 19218.47
1219.127, 19233.54
1219.609, 19246.72
1220.092, 19249.54
1220.574, 19247.50
1221.056, 19243.33
1221.538, 19242.20
1222.020, 19254.76
1222.502, 19285.37
1222.984, 19302.13
1223.466, 19300.09
1223.948, 19295.16
1224.431, 19291.50
1224.913, 19290.45
1225.395, 19295.56
1225.877, 19303.71
1226.359, 19312.49
1226.841, 19323.39
1227.323, 19318.33
1227.805, 19290.83
1228.287, 19275.28
1228.770, 19292.71
1229.252, 19316.80
1229.734, 19306.81
1230.216, 19283.00
1230.698, 19274.81
1231.180, 19291.79
1231.662, 19293.58
1232.144, 19276.85
1232.627, 19265.76
1233.109, 19276.13
1233.591, 19289.79
1234.073, 19290.25
1234.555, 19278.25
1235.037, 19248.55
1235.519, 19193.36
1236.001, 19177.75
1236.484, 19206.35
1236.966, 19237.05
1237.448, 19250.45
1237.930, 19254.04
1238.412, 19248.56
1238.894, 19241.30
1239.376, 19242.77
1239.858, 19253.83
1240.340, 19265.23
1240.823, 19276.45
1241.305, 19286.58
1241.787, 19293.97
1242.269, 19300.60
1242.751, 19307.15
1243.233, 19313.94
1243.715, 19322.33
1244.197, 19333.06
1244.679, 19334.13
1245.162, 19325.86
1245.644, 19321.86
1246.126, 19332.71
1246.608, 19346.56
1247.090, 19366.23
1247.572, 19377.30
1248.054, 19360.49
1248.536, 19314.21
1249.019, 19294.66
1249.501, 19300.34
1249.983, 19312.00
1250.465, 19321.53
1250.947, 19331.42
1251.429, 19342.65
1251.911, 19354.78
1252.393, 19369.96
1252.875, 19386.97
1253.358, 19382.20
1253.840, 19359.37
1254.322, 19345.63
1254.804, 19366.29
1255.286, 19382.96
1255.768, 19375.87
1256.250, 19366.01
1256.732, 19371.79
1257.214, 19390.69
1257.697, 19411.99
1258.179, 19433.17
1258.661, 19441.94
1259.143, 19423.03
1259.625, 19405.72
1260.107, 19394.33
1260.589, 19388.69
1261.071, 19388.48
1261.554, 19393.99
1262.036, 19409.86
1262.518, 19432.34
1263.000, 19449.50
1263.482, 19451.49
1263.964, 19455.90
1264.446, 19467.08
1264.928, 19473.44
1265.411, 19460.25
1265.893, 19438.13
1266.375, 19425.85
1266.857, 19422.11
1267.339, 19422.82
1267.821, 19428.20
1268.303, 19439.21
1268.785, 19459.65
1269.267, 19473.28
1269.750, 19458.75
1270.232, 19436.75
1270.714, 19434.14
1271.196, 19445.14
1271.678, 19456.22
1272.160, 19466.41
1272.642, 19473.88
1273.124, 19478.11
1273.606, 19480.64
1274.089, 19479.17
1274.571, 19479.11
1275.053, 19488.48
1275.535, 19501.02
1276.017, 19504.61
1276.499, 19495.96
1276.981, 19502.81
1277.463, 19525.42
1277.946, 19539.91
1278.428, 19521.29
1278.910, 19500.66
1279.392, 19501.94
1279.874, 19486.23
1280.356, 19501.55
1280.838, 19479.40
1281.320, 19476.76
1281.802, 19491.87
1282.285, 19504.50
1282.767, 19501.44
1283.249, 19496.44
1283.731, 19488.80
1284.213, 19486.93
1284.695, 19504.70
1285.177, 19534.96
1285.659, 19540.39
1286.141, 19526.33
1286.624, 19516.09
1287.106, 19520.80
1287.588, 19529.13
1288.070, 19541.50
1288.552, 19552.20
1289.034, 19553.85
1289.516, 19551.54
1289.998, 19559.35
1290.481, 19560.03
1290.963, 19560.90
1291.445, 19567.97
1291.927, 19564.15
1292.409, 19569.57
1292.891, 19575.43
1293.373, 19572.27
1293.855, 19568.66
1294.338, 19580.80
1294.820, 19576.05
1295.302, 19575.73
1295.784, 19581.01
1296.266, 19574.99
1296.748, 19584.10
1297.230, 19595.48
1297.712, 19600.46
1298.194, 19605.35
1298.677, 19615.70
1299.159, 19627.62
1299.641, 19636.23
1300.123, 19641.35
1300.605, 19637.75
1301.087, 19625.63
1301.569, 19607.63
1302.051, 19581.88
1302.533, 19551.28
1303.016, 19515.90
##END=



