##NAMES=Ferrierite-Mg
##RRUFFID=R070119
##IDEAL CHEMISTRY=[Mg_2_(K,Na)_2_Ca_0.5_](Si_29_Al_7_)O_72_&#183;18H_2_O
##LOCALITY=Libous, Chomutov, Ústí Region, Bohemia (Böhmen; Boehmen), Czech Republic
##OWNER=RRUFF
##SOURCE=Michael Scott
##DESCRIPTION=Radiating aggregate of tan colored fibrous crystals associated with calcite
##STATUS=The identification of this mineral is confirmed by single-crystal X-ray diffraction and chemical analysis.
##URL=rruff.info/R070119
##MEASURED CHEMISTRY=(K_0.84_Ca_0.03_[box]_0.13_)_Σ=1_(Mg_1.60_Fe^2+^_0.40_)_Σ=2_Ca_0.50_(Si_30.10_Al_5.90_)O_72_·22.91H_2_O ; H_2_O estimated by difference
188.3242, 0.0000000E+00
188.8063, 1.156250
189.2884, 11.70312
189.7706, 75.06250
190.2527, 97.41406
190.7348, 48.04688
191.2169, 15.99219
191.6990, 15.60938
192.1811, 64.99219
192.6633, 124.2578
193.1454, 83.57031
193.6275, 32.80469
194.1096, 44.93750
194.5917, 140.0312
195.0738, 260.6641
195.5560, 326.5781
196.0381, 319.8359
196.5202, 347.3906
197.0023, 485.4297
197.4844, 635.4062
197.9665, 723.9922
198.4487, 737.3438
198.9308, 739.7422
199.4129, 811.4453
199.8950, 965.9609
200.3771, 1103.719
200.8592, 1194.594
201.3414, 1269.508
201.8235, 1353.383
202.3056, 1445.242
202.7877, 1513.312
203.2698, 1509.906
203.7519, 1423.961
204.2341, 1355.938
204.7162, 1324.508
205.1983, 1308.242
205.6804, 1300.281
206.1625, 1298.883
206.6446, 1302.125
207.1267, 1316.273
207.6089, 1344.367
208.0910, 1342.258
208.5731, 1272.141
209.0552, 1202.914
209.5373, 1170.367
210.0194, 1168.727
210.5016, 1168.539
210.9837, 1146.562
211.4658, 1102.773
211.9479, 1053.008
212.4300, 975.9453
212.9121, 916.8047
213.3943, 898.5625
213.8764, 912.7188
214.3585, 935.8750
214.8406, 946.3828
215.3227, 948.9609
215.8048, 994.1562
216.2870, 1139.273
216.7691, 1252.828
217.2512, 1253.547
217.7333, 1193.828
218.2154, 1170.344
218.6975, 1252.219
219.1797, 1409.469
219.6618, 1512.242
220.1439, 1516.602
220.6260, 1531.211
221.1081, 1630.055
221.5902, 1747.383
222.0724, 1787.797
222.5545, 1689.789
223.0366, 1513.391
223.5187, 1417.789
224.0008, 1435.305
224.4829, 1475.312
224.9651, 1535.039
225.4472, 1592.297
225.9293, 1620.797
226.4114, 1609.406
226.8935, 1575.984
227.3756, 1555.461
227.8578, 1558.688
228.3399, 1545.039
228.8220, 1490.891
229.3041, 1426.445
229.7862, 1366.695
230.2683, 1316.125
230.7505, 1288.477
231.2326, 1317.523
231.7147, 1426.625
232.1968, 1492.539
232.6789, 1440.109
233.1610, 1376.781
233.6432, 1377.234
234.1253, 1446.273
234.6074, 1516.766
235.0895, 1498.000
235.5716, 1374.234
236.0537, 1321.227
236.5358, 1436.164
237.0180, 1556.969
237.5001, 1588.039
237.9822, 1541.422
238.4643, 1496.336
238.9464, 1524.719
239.4285, 1623.633
239.9107, 1709.258
240.3928, 1786.461
240.8749, 1840.430
241.3570, 1855.703
241.8391, 1843.508
242.3212, 1830.992
242.8034, 1842.133
243.2855, 1866.547
243.7676, 1851.414
244.2497, 1752.492
244.7318, 1693.031
245.2139, 1775.938
245.6961, 1918.328
246.1782, 1973.078
246.6603, 1868.461
247.1424, 1686.398
247.6245, 1601.781
248.1066, 1651.898
248.5888, 1692.203
249.0709, 1651.547
249.5530, 1576.969
250.0351, 1514.625
250.5172, 1480.062
250.9993, 1453.984
251.4815, 1405.219
251.9636, 1327.906
252.4457, 1270.977
252.9278, 1253.477
253.4099, 1262.812
253.8920, 1301.086
254.3742, 1372.742
254.8563, 1430.695
255.3384, 1415.258
255.8205, 1332.117
256.3026, 1285.414
256.7847, 1318.445
257.2668, 1373.164
257.7490, 1396.516
258.2311, 1389.586
258.7132, 1380.391
259.1953, 1382.375
259.6774, 1395.094
260.1595, 1422.750
260.6417, 1480.141
261.1238, 1523.859
261.6059, 1509.633
262.0880, 1451.930
262.5701, 1394.758
263.0522, 1345.148
263.5344, 1309.336
264.0165, 1308.031
264.4986, 1350.344
264.9807, 1385.945
265.4628, 1367.906
265.9449, 1318.750
266.4271, 1286.070
266.9092, 1297.672
267.3913, 1313.000
267.8734, 1285.195
268.3555, 1215.891
268.8376, 1154.422
269.3198, 1128.227
269.8019, 1122.906
270.2840, 1107.484
270.7661, 1078.648
271.2482, 1045.531
271.7303, 1008.531
272.2125, 970.6094
272.6946, 938.1172
273.1767, 906.5391
273.6588, 892.7969
274.1409, 936.7734
274.6230, 1050.727
275.1052, 1147.828
275.5873, 1197.422
276.0694, 1214.414
276.5515, 1224.141
277.0336, 1232.953
277.5157, 1225.172
277.9979, 1172.539
278.4800, 1068.281
278.9621, 990.6641
279.4442, 945.5938
279.9263, 930.6953
280.4084, 952.7422
280.8906, 1008.539
281.3727, 1077.938
281.8548, 1153.891
282.3369, 1232.961
282.8190, 1254.227
283.3011, 1173.680
283.7833, 1085.992
284.2654, 1039.289
284.7475, 1020.469
285.2296, 987.5078
285.7117, 910.4609
286.1938, 815.6719
286.6760, 805.1641
287.1581, 971.0078
287.6402, 1098.812
288.1223, 1158.797
288.6044, 1164.508
289.0865, 1120.102
289.5687, 1028.078
290.0508, 917.9531
290.5329, 840.2734
291.0150, 809.8281
291.4971, 786.8828
291.9792, 779.3906
292.4614, 774.3281
292.9435, 762.4922
293.4256, 741.6250
293.9077, 714.5234
294.3898, 683.8359
294.8719, 651.1875
295.3541, 601.7500
295.8362, 472.7812
296.3183, 390.4219
296.8004, 459.1797
297.2825, 608.5000
297.7646, 679.3203
298.2468, 552.3672
298.7289, 280.9062
299.2110, 146.3672
299.6931, 272.6562
300.1752, 371.9688
300.6573, 366.8047
301.1395, 321.7891
301.6216, 314.2422
302.1037, 373.6328
302.5858, 453.3906
303.0679, 461.6250
303.5500, 359.8281
304.0321, 306.4766
304.5143, 363.3594
304.9964, 444.3281
305.4785, 506.6406
305.9606, 543.4922
306.4427, 564.1172
306.9248, 575.1562
307.4070, 576.3281
307.8891, 555.7656
308.3712, 493.1016
308.8533, 434.8125
309.3354, 391.5000
309.8175, 367.3750
310.2997, 377.4766
310.7818, 457.8984
311.2639, 565.0000
311.7460, 597.1797
312.2281, 535.8906
312.7102, 471.3672
313.1924, 472.5938
313.6745, 487.6641
314.1566, 442.4297
314.6387, 298.0625
315.1208, 148.3594
315.6029, 71.87500
316.0851, 63.21875
316.5672, 91.71875
317.0493, 175.4141
317.5314, 257.9219
318.0135, 256.2578
318.4956, 164.7812
318.9778, 74.37500
319.4599, 7.117188
319.9420, 33.60938
320.4241, 31.24219
320.9062, 20.53125
321.3883, 76.10156
321.8705, 90.87500
322.3526, 64.51562
322.8347, 44.51562
323.3168, 25.03125
323.7989, 18.96094
324.2810, 56.03125
324.7632, 120.9062
325.2453, 144.0859
325.7274, 71.29688
326.2095, 60.67188
326.6916, 88.17969
327.1737, 108.2891
327.6559, 246.9766
328.1380, 233.7578
328.6201, 151.0156
329.1022, 96.52344
329.5843, 101.6719
330.0664, 145.6562
330.5486, 199.0547
331.0307, 263.3984
331.5128, 322.6562
331.9949, 407.4141
332.4770, 470.7812
332.9591, 463.7500
333.4413, 409.3750
333.9234, 384.1328
334.4055, 465.2500
334.8876, 644.1719
335.3697, 693.0391
335.8518, 476.6406
336.3340, 286.0547
336.8161, 180.8984
337.2982, 135.3047
337.7803, 113.7812
338.2624, 101.7969
338.7445, 99.22656
339.2267, 113.7578
339.7088, 162.4297
340.1909, 173.5625
340.6730, 82.92969
341.1551, 12.29688
341.6372, 43.28125
342.1194, 8.484375
342.6015, 32.03906
343.0836, 17.64062
343.5657, 40.09375
344.0478, 60.44531
344.5299, 27.46094
345.0121, 23.50000
345.4942, 71.68750
345.9763, 119.8672
346.4584, 177.5078
346.9405, 280.0234
347.4226, 365.1016
347.9048, 334.7891
348.3869, 189.9219
348.8690, 54.02344
349.3511, 31.17969
349.8332, 64.27344
350.3153, 47.21875
350.7975, 34.76562
351.2796, 119.0859
351.7617, 179.3281
352.2438, 223.7656
352.7259, 271.6406
353.2080, 328.8672
353.6902, 372.2734
354.1723, 365.8594
354.6544, 290.1562
355.1365, 276.1094
355.6186, 420.2422
356.1007, 548.2812
356.5829, 528.8828
357.0650, 392.6250
357.5471, 252.4141
358.0292, 174.6953
358.5113, 152.3203
358.9934, 157.3828
359.4755, 250.1094
359.9576, 296.7969
360.4398, 251.1953
360.9219, 172.6172
361.4040, 123.2266
361.8861, 117.6875
362.3682, 123.4141
362.8503, 93.40625
363.3325, 13.05469
363.8146, 41.92969
364.2967, 44.71094
364.7788, 46.90625
365.2609, 79.26562
365.7430, 127.1562
366.2252, 154.1875
366.7073, 134.4375
367.1894, 81.84375
367.6715, 36.81250
368.1536, 9.3750000E-02
368.6357, 30.53906
369.1179, 34.97656
369.6000, 44.93750
370.0821, 103.4062
370.5642, 223.3750
371.0463, 329.6953
371.5284, 343.9688
372.0106, 281.6250
372.4927, 229.4062
372.9748, 197.9766
373.4569, 185.6328
373.9390, 205.1328
374.4211, 246.7188
374.9033, 269.0078
375.3854, 239.1094
375.8675, 201.1797
376.3496, 206.3359
376.8317, 249.6328
377.3138, 281.8672
377.7960, 274.4766
378.2781, 239.3359
378.7602, 210.1875
379.2423, 155.8281
379.7244, 155.0859
380.2065, 297.1250
380.6887, 469.2500
381.1708, 520.8672
381.6529, 425.4766
382.1350, 291.6719
382.6171, 247.8750
383.0992, 319.7812
383.5814, 329.0312
384.0635, 227.6016
384.5456, 122.0469
385.0277, 48.33594
385.5098, 1.937500
385.9919, 29.30469
386.4741, 51.36719
386.9562, 65.11719
387.4383, 75.69531
387.9204, 97.42969
388.4025, 83.91406
388.8846, 47.18750
389.3668, 158.2812
389.8489, 121.1016
390.3310, 59.89062
390.8131, 228.9453
391.2952, 239.6562
391.7773, 116.9062
392.2595, 9.765625
392.7416, 73.36719
393.2237, 156.0391
393.7058, 274.7891
394.1879, 395.6016
394.6700, 457.0391
395.1522, 413.4141
395.6343, 356.6016
396.1164, 376.3281
396.5985, 456.0547
397.0806, 522.5625
397.5627, 559.3438
398.0449, 559.9766
398.5270, 495.1172
399.0091, 351.5859
399.4912, 251.1172
399.9733, 227.9375
400.4554, 245.0234
400.9376, 292.2578
401.4197, 356.7109
401.9018, 395.7578
402.3839, 377.5000
402.8660, 318.2891
403.3481, 297.1875
403.8303, 365.2812
404.3124, 397.2344
404.7945, 354.1719
405.2766, 284.0234
405.7587, 234.6328
406.2408, 217.9219
406.7230, 213.3516
407.2051, 192.3750
407.6872, 150.1875
408.1693, 129.8125
408.6514, 147.8984
409.1335, 171.6484
409.6157, 210.7656
410.0978, 245.1719
410.5799, 229.1250
411.0620, 121.1562
411.5441, 6.851563
412.0262, 31.61719
412.5083, 55.80469
412.9904, 124.6797
413.4726, 128.6484
413.9547, 108.1562
414.4368, 104.5625
414.9189, 117.9844
415.4010, 144.8438
415.8831, 199.8672
416.3653, 259.9062
416.8474, 288.6641
417.3295, 284.4062
417.8116, 277.3594
418.2937, 283.7969
418.7758, 305.3672
419.2580, 345.7656
419.7401, 434.4844
420.2222, 502.1406
420.7043, 529.5234
421.1864, 530.2578
421.6685, 506.7422
422.1507, 463.0391
422.6328, 422.4844
423.1149, 415.8125
423.5970, 452.8203
424.0791, 454.9219
424.5612, 394.5781
425.0434, 335.1094
425.5255, 291.5312
426.0076, 263.1250
426.4897, 243.8281
426.9718, 229.9766
427.4539, 222.0234
427.9361, 216.3203
428.4182, 212.0938
428.9003, 239.5938
429.3824, 357.7969
429.8645, 458.2422
430.3466, 437.1797
430.8288, 314.3438
431.3109, 217.3047
431.7930, 223.8672
432.2751, 283.5781
432.7572, 329.8906
433.2393, 361.1953
433.7215, 368.0938
434.2036, 332.1484
434.6857, 278.0703
435.1678, 276.6953
435.6499, 360.7266
436.1320, 416.7969
436.6142, 393.6953
437.0963, 340.3906
437.5784, 301.6172
438.0605, 287.6250
438.5426, 306.7344
439.0247, 375.8203
439.5069, 493.5312
439.9890, 541.2578
440.4711, 415.1328
440.9532, 338.9766
441.4353, 392.1719
441.9174, 497.8359
442.3996, 576.8984
442.8817, 602.0156
443.3638, 578.7500
443.8459, 487.3984
444.3280, 320.0859
444.8102, 242.4531
445.2923, 339.7578
445.7744, 424.5000
446.2565, 364.6484
446.7386, 227.5625
447.2207, 141.8828
447.7029, 170.5859
448.1850, 233.3359
448.6671, 265.7812
449.1492, 274.8984
449.6313, 254.2656
450.1134, 186.7812
450.5956, 112.2031
451.0777, 88.44531
451.5598, 119.1562
452.0419, 156.1406
452.5240, 212.5000
453.0061, 258.2891
453.4883, 257.1172
453.9704, 226.1953
454.4525, 223.4688
454.9346, 284.3750
455.4167, 376.5391
455.8988, 404.6250
456.3810, 310.4453
456.8631, 255.1094
457.3452, 286.5859
457.8273, 319.3125
458.3094, 298.2031
458.7915, 225.7656
459.2737, 129.2344
459.7558, 2.148438
460.2379, 120.8359
460.7200, 103.2188
461.2021, 102.3047
461.6842, 274.9062
462.1664, 315.5938
462.6485, 289.6562
463.1306, 261.2109
463.6127, 231.5469
464.0948, 222.1016
464.5769, 262.1328
465.0591, 321.7266
465.5412, 359.8984
466.0233, 371.4922
466.5054, 347.1953
466.9875, 263.0625
467.4696, 140.0625
467.9517, 108.5703
468.4338, 256.5000
468.9160, 367.8047
469.3981, 384.8047
469.8802, 358.6094
470.3623, 331.7422
470.8444, 315.1875
471.3265, 317.9453
471.8087, 356.9219
472.2908, 431.2578
472.7729, 477.9375
473.2550, 491.8906
473.7371, 484.7344
474.2192, 461.5938
474.7014, 420.8594
475.1835, 350.0234
475.6656, 241.6562
476.1477, 149.8125
476.6298, 147.2266
477.1119, 204.8906
477.5941, 201.7812
478.0762, 107.6016
478.5583, 15.95312
479.0404, 4.812500
479.5225, 61.60156
480.0046, 102.4062
480.4868, 100.5469
480.9689, 109.7812
481.4510, 185.7188
481.9331, 275.0312
482.4152, 286.2344
482.8973, 198.6719
483.3795, 79.85156
483.8616, 4.710938
484.3437, 25.71094
484.8258, 22.09375
485.3079, 78.69531
485.7900, 144.1094
486.2722, 102.7656
486.7543, 23.95312
487.2364, 4.281250
487.7185, 76.31250
488.2006, 174.4766
488.6827, 215.3750
489.1649, 205.7422
489.6470, 233.5781
490.1291, 322.7266
490.6112, 414.0781
491.0933, 468.9453
491.5754, 494.0234
492.0576, 498.7188
492.5397, 450.1953
493.0218, 424.9141
493.5039, 506.8203
493.9860, 635.5547
494.4681, 684.9531
494.9503, 622.2422
495.4324, 517.4688
495.9145, 452.5312
496.3966, 434.0156
496.8787, 390.5078
497.3608, 288.5000
497.8430, 203.4844
498.3251, 155.5469
498.8072, 135.2344
499.2893, 136.5625
499.7714, 157.5156
500.2535, 178.5859
500.7357, 167.5234
501.2178, 126.7500
501.6999, 102.2422
502.1820, 102.2578
502.6641, 107.6406
503.1462, 96.21875
503.6284, 84.37500
504.1105, 109.1562
504.5926, 202.8516
505.0747, 282.4453
505.5568, 288.1875
506.0389, 249.6016
506.5211, 220.3203
507.0032, 211.8828
507.4853, 208.2656
507.9674, 192.4531
508.4495, 163.3203
508.9316, 152.0625
509.4138, 150.9453
509.8959, 178.4922
510.3780, 262.3906
510.8601, 364.2500
511.3422, 447.3438
511.8243, 501.7188
512.3065, 533.4609
512.7886, 545.2812
513.2707, 538.1250
513.7528, 529.3516
514.2349, 531.9453
514.7170, 501.8984
515.1992, 374.5625
515.6813, 218.1562
516.1634, 124.4141
516.6455, 114.2266
517.1276, 136.5625
517.6097, 166.1406
518.0919, 191.6328
518.5740, 209.5938
519.0561, 226.9219
519.5382, 243.8281
520.0203, 265.8438
520.5024, 288.5703
520.9846, 287.3516
521.4667, 237.7812
521.9488, 195.1016
522.4309, 151.6797
522.9130, 123.8984
523.3951, 138.2734
523.8773, 186.3672
524.3594, 223.4219
524.8415, 210.9141
525.3236, 163.8750
525.8057, 134.1328
526.2878, 127.0078
526.7700, 122.9219
527.2521, 113.3672
527.7342, 106.7031
528.2163, 111.5156
528.6984, 127.8672
529.1805, 154.6797
529.6627, 216.2969
530.1448, 269.7109
530.6269, 265.2031
531.1090, 214.6719
531.5911, 164.3438
532.0732, 135.5234
532.5554, 127.6016
533.0375, 141.2812
533.5196, 191.1484
534.0017, 229.0938
534.4838, 248.9453
534.9659, 266.4062
535.4481, 300.4141
535.9302, 333.9062
536.4123, 323.6406
536.8944, 238.5000
537.3765, 153.9609
537.8586, 200.8672
538.3408, 360.1016
538.8229, 411.8047
539.3050, 275.9062
539.7871, 127.3281
540.2692, 145.8125
540.7513, 305.3594
541.2335, 382.0938
541.7156, 286.1953
542.1977, 193.9375
542.6798, 189.8203
543.1619, 233.8125
543.6440, 267.2031
544.1262, 273.2500
544.6083, 260.8125
545.0904, 242.5703
545.5725, 220.7578
546.0546, 174.5156
546.5367, 57.45312
547.0189, 9.281250
547.5010, 50.06250
547.9831, 146.7500
548.4652, 193.6406
548.9473, 177.6562
549.4294, 154.3359
549.9115, 173.9609
550.3936, 202.3828
550.8757, 167.1172
551.3578, 69.71875
551.8400, 11.04688
552.3221, 35.11719
552.8042, 14.95312
553.2863, 25.66406
553.7684, 125.6328
554.2505, 167.0391
554.7327, 97.22656
555.2148, 16.57031
555.6969, 16.85938
556.1790, 12.52344
556.6611, 10.08594
557.1432, 32.60938
557.6254, 45.93750
558.1075, 30.42969
558.5896, 204.2109
559.0717, 304.6953
559.5538, 274.0781
560.0359, 222.6016
560.5181, 255.2344
561.0002, 334.8359
561.4823, 357.0781
561.9644, 253.5391
562.4465, 160.6719
562.9286, 159.1016
563.4108, 207.3828
563.8929, 245.1094
564.3750, 256.7422
564.8571, 263.3359
565.3392, 285.8047
565.8214, 320.7578
566.3035, 330.3125
566.7856, 297.0469
567.2677, 266.9766
567.7498, 254.1797
568.2319, 243.9062
568.7141, 213.5703
569.1962, 167.5078
569.6783, 145.2969
570.1604, 201.4609
570.6425, 279.4766
571.1246, 281.0234
571.6068, 215.3828
572.0889, 178.3203
572.5710, 217.0938
573.0531, 263.9609
573.5352, 206.8125
574.0173, 3.562500
574.4995, 114.0078
574.9816, 51.28125
575.4637, 28.16406
575.9458, 72.73438
576.4279, 88.00000
576.9100, 75.61719
577.3922, 39.14844
577.8743, 20.34375
578.3564, 94.60938
578.8385, 237.8516
579.3206, 291.5938
579.8027, 219.2109
580.2849, 161.6016
580.7670, 208.6406
581.2491, 311.6719
581.7312, 365.5312
582.2133, 350.2344
582.6954, 348.2109
583.1776, 419.4766
583.6597, 485.6875
584.1418, 457.8984
584.6239, 356.7266
585.1060, 267.4062
585.5881, 228.9062
586.0703, 234.2031
586.5524, 284.7031
587.0345, 413.2344
587.5166, 451.4688
587.9987, 303.2344
588.4808, 162.5859
588.9630, 150.1797
589.4451, 213.1641
589.9272, 233.9141
590.4093, 158.1094
590.8914, 93.21094
591.3735, 140.6953
591.8557, 241.2188
592.3378, 282.9922
592.8199, 252.2188
593.3020, 209.0391
593.7841, 196.7344
594.2662, 211.3438
594.7484, 236.8750
595.2305, 301.2500
595.7126, 328.3984
596.1947, 288.0391
596.6768, 234.4531
597.1589, 193.8516
597.6411, 169.8984
598.1232, 164.9219
598.6053, 186.7188
599.0874, 216.2734
599.5695, 233.2891
600.0516, 238.2031
600.5338, 230.3516
601.0159, 207.5469
601.4980, 183.0000
601.9801, 161.7734
602.4622, 145.6562
602.9443, 179.3125
603.4265, 351.0078
603.9086, 454.6484
604.3907, 396.1562
604.8728, 289.8203
605.3549, 241.5234
605.8370, 255.5781
606.3192, 268.0938
606.8013, 231.0625
607.2834, 166.8359
607.7655, 121.9531
608.2476, 96.50781
608.7297, 93.21094
609.2119, 124.4766
609.6940, 152.9922
610.1761, 130.2109
610.6582, 57.66406
611.1403, 18.83594
611.6224, 38.18750
612.1046, 65.05469
612.5867, 79.60156
613.0688, 91.10156
613.5509, 116.3516
614.0330, 160.0156
614.5151, 201.5703
614.9973, 214.3125
615.4794, 207.8516
615.9615, 208.1875
616.4436, 217.7891
616.9257, 208.8984
617.4078, 156.9766
617.8900, 101.3281
618.3721, 97.31250
618.8542, 140.7812
619.3363, 153.6250
619.8184, 95.34375
620.3005, 32.39844
620.7827, 18.07031
621.2648, 42.40625
621.7469, 3.898438
622.2290, 97.36719
622.7111, 191.5312
623.1932, 200.2188
623.6754, 138.4688
624.1575, 122.8828
624.6396, 174.5859
625.1217, 208.1328
625.6038, 181.7422
626.0859, 139.4453
626.5681, 120.6641
627.0502, 125.3750
627.5323, 152.5703
628.0144, 222.0625
628.4965, 294.3516
628.9786, 358.5938
629.4608, 402.8047
629.9429, 396.6719
630.4250, 335.8359
630.9071, 263.1953
631.3892, 225.1641
631.8713, 217.4531
632.3535, 194.3125
632.8356, 156.9219
633.3177, 133.2734
633.7998, 156.3984
634.2819, 173.6172
634.7640, 111.4688
635.2462, 22.51562
635.7283, 89.39062
636.2104, 13.21094
636.6925, 143.3359
637.1746, 209.0234
637.6567, 222.4297
638.1389, 206.6875
638.6210, 170.2500
639.1031, 124.1562
639.5852, 74.65625
640.0673, 24.60156
640.5494, 20.39844
641.0316, 99.77344
641.5137, 139.0000
641.9958, 40.39844
642.4779, 60.75000
642.9600, 20.66406
643.4421, 143.4297
643.9243, 241.2500
644.4064, 153.8828
644.8885, 34.53125
645.3706, 24.91406
645.8527, 31.60938
646.3348, 21.92188
646.8170, 127.7578
647.2991, 206.8516
647.7812, 173.7500
648.2633, 47.28125
648.7454, 27.13281
649.2275, 35.01562
649.7097, 26.64844
650.1918, 4.882813
650.6739, 23.08594
651.1560, 51.17969
651.6381, 80.15625
652.1202, 114.7266
652.6024, 178.5234
653.0845, 224.7812
653.5666, 214.8125
654.0487, 171.9375
654.5308, 122.4688
655.0129, 76.85156
655.4951, 54.18750
655.9772, 72.13281
656.4593, 123.6953
656.9414, 186.7188
657.4235, 277.3125
657.9056, 324.8125
658.3878, 300.2500
658.8699, 246.4219
659.3519, 188.1875
659.8340, 127.6719
660.3162, 70.45312
660.7983, 10.96875
661.2804, 47.37500
661.7625, 39.82812
662.2446, 166.6641
662.7267, 223.8281
663.2089, 206.6094
663.6910, 175.6406
664.1731, 170.9062
664.6552, 184.5156
665.1373, 201.8750
665.6194, 226.9531
666.1016, 226.7891
666.5837, 183.8047
667.0658, 137.5859
667.5479, 113.3594
668.0300, 105.9531
668.5121, 104.5078
668.9943, 113.4219
669.4764, 118.0703
669.9585, 127.7578
670.4406, 120.3984
670.9227, 40.35156
671.4048, 75.41406
671.8870, 114.7812
672.3691, 18.04688
672.8512, 134.6719
673.3333, 212.2578
673.8154, 217.2891
674.2975, 243.3203
674.7797, 308.5156
675.2618, 353.4375
675.7439, 340.6328
676.2260, 289.4375
676.7081, 237.6562
677.1902, 180.1406
677.6724, 139.5625
678.1545, 127.5469
678.6366, 123.8984
679.1187, 119.9219
679.6008, 117.9688
680.0829, 110.9141
680.5651, 97.76562
681.0472, 100.8906
681.5293, 171.0078
682.0114, 276.1484
682.4935, 281.6172
682.9756, 179.7188
683.4578, 108.7578
683.9399, 129.8281
684.4220, 189.9141
684.9041, 214.8203
685.3862, 196.8672
685.8683, 193.1641
686.3505, 228.8672
686.8326, 247.0469
687.3147, 209.1484
687.7968, 160.1875
688.2789, 154.1562
688.7610, 191.8281
689.2432, 223.5859
689.7253, 213.2031
690.2074, 183.4062
690.6895, 162.4062
691.1716, 149.9844
691.6537, 146.6016
692.1359, 152.7734
692.6180, 155.5156
693.1001, 132.9609
693.5822, 94.01562
694.0643, 142.9219
694.5464, 366.9922
695.0286, 510.2734
695.5107, 490.0312
695.9928, 435.5000
696.4749, 409.5156
696.9570, 412.8438
697.4391, 436.8828
697.9213, 492.8750
698.4034, 537.5391
698.8855, 543.1328
699.3676, 518.5703
699.8497, 459.0234
700.3318, 373.6250
700.8140, 321.1641
701.2961, 333.5000
701.7782, 377.6094
702.2603, 379.3672
702.7424, 323.2891
703.2245, 334.1406
703.7067, 464.7109
704.1888, 574.3984
704.6709, 587.6719
705.1530, 536.8594
705.6351, 454.6172
706.1172, 323.1406
706.5994, 268.0859
707.0815, 419.1875
707.5636, 559.1875
708.0457, 506.1016
708.5278, 354.0234
709.0099, 274.5469
709.4921, 312.8672
709.9742, 380.4922
710.4563, 389.1797
710.9384, 360.2031
711.4205, 374.7656
711.9026, 434.7969
712.3848, 451.1562
712.8669, 387.6250
713.3490, 297.0703
713.8311, 225.1953
714.3132, 172.3750
714.7953, 167.1484
715.2775, 239.5859
715.7596, 316.4062
716.2417, 413.5078
716.7238, 490.7812
717.2059, 511.7188
717.6880, 484.3125
718.1702, 439.7969
718.6523, 382.4844
719.1344, 332.9766
719.6165, 317.8750
720.0986, 325.8125
720.5807, 345.7578
721.0629, 372.6484
721.5450, 380.3047
722.0271, 351.0391
722.5092, 305.1719
722.9913, 291.5234
723.4734, 324.3750
723.9556, 326.4375
724.4377, 275.9688
724.9198, 229.1641
725.4019, 217.4844
725.8840, 220.4688
726.3661, 205.4141
726.8483, 166.2969
727.3304, 159.7656
727.8125, 235.0000
728.2946, 314.4453
728.7767, 348.8047
729.2589, 350.5000
729.7410, 353.3281
730.2231, 368.9844
730.7052, 362.3438
731.1873, 295.0625
731.6694, 196.8750
732.1516, 144.8047
732.6337, 137.5312
733.1158, 137.7734
733.5979, 138.4375
734.0800, 140.3281
734.5621, 146.6953
735.0443, 154.8828
735.5264, 148.7500
736.0085, 86.35156
736.4906, 75.46875
736.9727, 172.6328
737.4548, 265.7969
737.9370, 301.8594
738.4191, 289.3281
738.9012, 244.4375
739.3833, 165.1172
739.8654, 94.83594
740.3475, 70.48438
740.8297, 67.41406
741.3118, 48.17188
741.7939, 19.98438
742.2760, 22.91406
742.7581, 74.13281
743.2402, 134.6562
743.7224, 154.3750
744.2045, 136.4531
744.6866, 131.3438
745.1687, 139.4297
745.6508, 168.5781
746.1329, 238.7422
746.6151, 308.6016
747.0972, 325.2188
747.5793, 293.9297
748.0614, 292.2422
748.5435, 361.9766
749.0256, 409.3281
749.5078, 397.9062
749.9899, 366.0312
750.4720, 337.7734
750.9541, 317.6875
751.4362, 310.7656
751.9183, 323.4297
752.4005, 328.7969
752.8826, 280.2734
753.3647, 209.0469
753.8468, 192.6328
754.3289, 230.5703
754.8110, 266.7344
755.2932, 275.4297
755.7753, 259.2422
756.2574, 217.0547
756.7395, 145.3594
757.2216, 89.74219
757.7037, 40.81250
758.1859, 29.74219
758.6680, 92.98438
759.1501, 178.1484
759.6322, 244.9609
760.1143, 291.3750
760.5964, 290.3438
761.0786, 197.2812
761.5607, 106.2188
762.0428, 50.44531
762.5249, 14.36719
763.0070, 27.64062
763.4891, 66.92969
763.9713, 61.21094
764.4534, 20.93750
764.9355, 113.3906
765.4176, 119.7656
765.8997, 70.95312
766.3818, 66.42188
766.8640, 112.8906
767.3461, 153.2188
767.8282, 164.1562
768.3103, 154.3984
768.7924, 133.0938
769.2745, 96.16406
769.7566, 82.77344
770.2387, 100.7891
770.7208, 128.6719
771.2029, 169.0625
771.6851, 209.8594
772.1672, 256.1484
772.6493, 300.7266
773.1314, 286.5781
773.6135, 126.7031
774.0956, 3.015625
774.5778, 13.46094
775.0599, 71.96094
775.5420, 97.82812
776.0241, 88.46875
776.5062, 74.94531
776.9883, 71.62500
777.4705, 73.46875
777.9526, 78.21875
778.4347, 82.39062
778.9168, 73.71875
779.3989, 53.05469
779.8810, 34.32812
780.3632, 20.10156
780.8453, 20.93750
781.3274, 60.73438
781.8095, 142.2734
782.2916, 160.5234
782.7737, 70.71094
783.2559, 18.85938
783.7380, 70.43750
784.2201, 145.4688
784.7022, 179.2188
785.1843, 175.4609
785.6664, 151.2656
786.1486, 83.96094
786.6307, 31.33594
787.1128, 7.000000
787.5949, 5.414063
788.0770, 26.25781
788.5591, 65.96875
789.0413, 120.5469
789.5234, 188.5859
790.0055, 258.2891
790.4876, 339.3750
790.9697, 404.9844
791.4518, 400.8750
791.9340, 335.9297
792.4161, 245.3008
792.8982, 144.4531
793.3803, 57.59766
793.8624, 1.359375
794.3445, 27.22266
794.8267, 33.02734
795.3088, 209.9023
795.7909, 327.9805
796.2730, 336.6523
796.7551, 320.1484
797.2372, 348.3555
797.7194, 395.6094
798.2015, 369.3008
798.6836, 228.7344
799.1657, 107.5977
799.6478, 2.203125
800.1299, 67.26562
800.6121, 75.77734
801.0942, 48.76172
801.5763, 15.55469
802.0584, 17.08203
802.5405, 45.19141
803.0226, 68.65625
803.5048, 84.40234
803.9869, 93.26562
804.4690, 91.01562
804.9511, 58.60547
805.4332, 1.437500
805.9153, 37.73047
806.3975, 28.39062
806.8796, 10.58594
807.3617, 46.54297
807.8438, 79.56250
808.3259, 104.1250
808.8080, 116.7109
809.2902, 164.5547
809.7723, 286.8711
810.2544, 411.2266
810.7365, 405.9531
811.2186, 247.2305
811.7007, 147.1094
812.1829, 137.3320
812.6650, 139.5469
813.1471, 123.4727
813.6292, 122.9805
814.1113, 198.3867
814.5934, 320.6953
815.0756, 352.5898
815.5577, 187.1523
816.0398, 65.00781
816.5219, 110.5977
817.0040, 199.3594
817.4861, 243.7109
817.9683, 243.0898
818.4504, 210.0039
818.9325, 150.0469
819.4146, 98.04688
819.8967, 86.56641
820.3788, 100.9492
820.8610, 120.8086
821.3431, 142.8828
821.8252, 175.5742
822.3073, 220.4258
822.7894, 224.4688
823.2715, 134.8203
823.7537, 3.500000
824.2358, 51.34375
824.7179, 2.769531
825.2000, 89.47266
825.6821, 246.1953
826.1642, 353.4688
826.6464, 324.8086
827.1285, 234.2305
827.6106, 233.7305
828.0927, 368.8164
828.5748, 395.6406
829.0569, 186.1641
829.5391, 34.01562
830.0212, 45.02734
830.5033, 106.7852
830.9854, 127.5430
831.4675, 107.9375
831.9496, 82.44531
832.4318, 43.59375
832.9139, 31.88281
833.3960, 91.93359
833.8781, 165.0508
834.3602, 200.4766
834.8423, 202.8281
835.3245, 195.6055
835.8066, 186.4961
836.2887, 164.4258
836.7708, 84.58594
837.2529, 5.417969
837.7350, 63.67578
838.2172, 212.5586
838.6993, 279.8750
839.1814, 229.2539
839.6635, 148.5352
840.1456, 103.9414
840.6277, 89.02734
841.1099, 91.07422
841.5920, 112.0430
842.0741, 129.3945
842.5562, 140.4766
843.0383, 152.9180
843.5204, 172.8906
844.0026, 192.7578
844.4847, 202.1406
844.9668, 202.7969
845.4489, 178.5273
845.9310, 91.21094
846.4131, 35.92969
846.8953, 40.49219
847.3774, 70.13281
847.8595, 122.5234
848.3416, 179.1992
848.8237, 186.8516
849.3058, 119.2656
849.7880, 48.14062
850.2701, 38.59766
850.7522, 88.45703
851.2343, 33.77734
851.7164, 67.15625
852.1985, 129.8633
852.6807, 139.5703
853.1628, 116.9648
853.6449, 51.15234
854.1270, 9.851563
854.6091, 5.257813
855.0912, 37.52344
855.5734, 68.42969
856.0555, 83.65234
856.5376, 108.9180
857.0197, 159.3008
857.5018, 207.3438
857.9839, 210.5430
858.4661, 178.8516
858.9482, 139.4922
859.4303, 94.18750
859.9124, 71.01953
860.3945, 79.09766
860.8766, 103.0586
861.3588, 131.1172
861.8409, 158.0117
862.3230, 153.5352
862.8051, 102.7812
863.2872, 72.52734
863.7693, 75.50781
864.2515, 88.40234
864.7336, 110.7188
865.2157, 126.4883
865.6978, 98.26953
866.1799, 3.277344
866.6620, 24.82031
867.1442, 74.66797
867.6263, 162.1445
868.1084, 203.7266
868.5905, 220.4727
869.0726, 219.1523
869.5547, 208.6719
870.0369, 217.0625
870.5190, 272.1211
871.0011, 290.1406
871.4832, 199.3359
871.9653, 94.34766
872.4474, 41.11719
872.9296, 28.01562
873.4117, 27.19141
873.8938, 31.51172
874.3759, 51.21875
874.8580, 106.8164
875.3401, 160.4141
875.8223, 168.4180
876.3044, 144.5273
876.7865, 99.56641
877.2686, 46.36328
877.7507, 25.14453
878.2328, 56.57812
878.7149, 115.4414
879.1970, 178.0039
879.6791, 239.4141
880.1613, 288.5078
880.6434, 322.8359
881.1255, 294.0625
881.6076, 183.6250
882.0897, 80.43359
882.5718, 68.87500
883.0540, 124.5469
883.5361, 184.4062
884.0182, 256.7578
884.5003, 271.3594
884.9824, 209.1641
885.4645, 132.4492
885.9467, 52.94141
886.4288, 6.828125
886.9109, 13.85547
887.3930, 31.86328
887.8751, 87.11719
888.3572, 185.1758
888.8394, 238.5703
889.3215, 181.7383
889.8036, 133.8984
890.2857, 192.0273
890.7678, 294.4922
891.2499, 316.8984
891.7321, 234.5938
892.2142, 150.4922
892.6963, 56.36719
893.1784, 0.6015630
893.6605, 16.14844
894.1426, 57.35547
894.6248, 74.70703
895.1069, 75.82422
895.5890, 119.2578
896.0711, 250.3555
896.5532, 351.2461
897.0353, 337.5195
897.5175, 277.9297
897.9996, 203.4961
898.4817, 144.4219
898.9638, 166.7891
899.4459, 269.3125
899.9280, 334.1133
900.4102, 254.7695
900.8923, 138.3672
901.3744, 116.0781
901.8565, 147.0938
902.3386, 155.3281
902.8207, 136.1133
903.3029, 113.2227
903.7850, 96.80078
904.2671, 81.01953
904.7492, 48.69922
905.2313, 16.78516
905.7134, 55.53125
906.1956, 148.9453
906.6777, 176.2969
907.1598, 114.6406
907.6419, 67.51172
908.1240, 107.5742
908.6061, 177.5586
909.0883, 149.4297
909.5704, 19.71094
910.0525, 16.96484
910.5346, 57.04688
911.0167, 103.3828
911.4988, 67.81641
911.9810, 30.37891
912.4631, 82.75391
912.9452, 198.4453
913.4273, 223.4258
913.9094, 102.7969
914.3915, 56.98047
914.8737, 144.3086
915.3558, 214.5273
915.8379, 186.8672
916.3200, 122.8555
916.8021, 105.8945
917.2842, 137.2109
917.7664, 142.1523
918.2485, 62.96484
918.7306, 44.32422
919.2127, 159.3984
919.6948, 273.5938
920.1769, 315.6016
920.6591, 307.0820
921.1412, 283.2969
921.6233, 245.4375
922.1054, 205.7891
922.5875, 144.4258
923.0696, 110.8516
923.5518, 133.3125
924.0339, 180.7969
924.5160, 248.6211
924.9981, 317.9844
925.4802, 335.9258
925.9623, 280.1406
926.4445, 216.4102
926.9266, 152.3984
927.4087, 111.0625
927.8908, 120.8750
928.3729, 154.2266
928.8550, 177.6836
929.3372, 187.8164
929.8193, 199.8008
930.3014, 229.5195
930.7835, 234.1367
931.2656, 146.4648
931.7477, 45.43750
932.2299, 21.56641
932.7120, 53.43750
933.1941, 91.69531
933.6762, 122.5156
934.1583, 150.8672
934.6404, 180.6680
935.1226, 208.4297
935.6047, 240.3242
936.0868, 262.1992
936.5689, 239.8008
937.0510, 182.0000
937.5331, 118.6680
938.0153, 63.33594
938.4974, 37.46875
938.9795, 68.12500
939.4616, 136.2227
939.9437, 226.3828
940.4258, 320.4648
940.9080, 342.3281
941.3901, 290.8438
941.8722, 232.7344
942.3543, 199.8750
942.8364, 183.7188
943.3185, 177.0039
943.8007, 175.9961
944.2828, 163.3008
944.7649, 140.6797
945.2470, 136.1719
945.7291, 154.5508
946.2112, 158.4961
946.6934, 121.8867
947.1755, 75.37500
947.6576, 80.58203
948.1397, 133.6406
948.6218, 155.2578
949.1039, 145.2500
949.5861, 97.40234
950.0682, 1.554688
950.5503, 71.12891
951.0324, 46.08984
951.5145, 40.08984
951.9966, 113.4922
952.4788, 179.8828
952.9609, 171.6914
953.4430, 56.20312
953.9251, 3.480469
954.4072, 90.16016
954.8893, 184.4023
955.3715, 159.8203
955.8536, 56.24219
956.3357, 26.26562
956.8178, 104.4180
957.2999, 140.4492
957.7820, 111.4961
958.2642, 91.74609
958.7463, 113.7031
959.2284, 144.1758
959.7105, 144.5039
960.1926, 122.4805
960.6747, 132.7891
961.1569, 207.8711
961.6390, 245.0859
962.1211, 215.9883
962.6032, 189.2773
963.0853, 203.9531
963.5674, 223.4727
964.0496, 196.0781
964.5317, 126.6211
965.0138, 93.55469
965.4959, 132.9492
965.9780, 152.1992
966.4601, 132.9727
966.9423, 111.1055
967.4244, 93.70703
967.9065, 85.78906
968.3886, 110.3047
968.8707, 165.0547
969.3528, 163.1953
969.8350, 38.82031
970.3171, 51.91797
970.7992, 87.55469
971.2813, 89.22266
971.7634, 43.95312
972.2455, 16.62500
972.7277, 44.47656
973.2098, 35.72656
973.6919, 40.00391
974.1740, 45.31641
974.6561, 92.17969
975.1382, 278.8164
975.6204, 421.2461
976.1025, 344.9531
976.5846, 164.8672
977.0667, 75.64453
977.5488, 100.6094
978.0309, 127.0859
978.5131, 111.5664
978.9952, 118.5859
979.4773, 211.8086
979.9594, 291.9727
980.4415, 266.7344
980.9236, 185.4453
981.4058, 143.6328
981.8879, 149.8711
982.3700, 166.9375
982.8521, 197.1836
983.3342, 220.7227
983.8163, 225.2383
984.2985, 216.4219
984.7806, 184.0547
985.2627, 146.2891
985.7448, 137.1875
986.2269, 163.7617
986.7090, 208.9648
987.1912, 305.9023
987.6733, 370.1445
988.1554, 355.3359
988.6375, 298.5117
989.1196, 195.5156
989.6017, 87.96094
990.0838, 64.25000
990.5659, 148.2539
991.0480, 214.3281
991.5302, 204.0078
992.0123, 181.8125
992.4944, 140.4219
992.9765, 113.2656
993.4586, 150.9180
993.9407, 216.6484
994.4229, 208.7578
994.9050, 101.9258
995.3871, 56.00000
995.8692, 221.0078
996.3513, 368.8945
996.8334, 359.5898
997.3156, 289.2578
997.7977, 225.2188
998.2798, 184.4805
998.7619, 187.5000
999.2440, 240.9258
999.7261, 285.9570
1000.208, 305.1680
1000.690, 297.6484
1001.172, 222.9062
1001.655, 154.0156
1002.137, 183.7656
1002.619, 270.7891
1003.101, 310.7656
1003.583, 277.1133
1004.065, 231.5391
1004.547, 180.6055
1005.029, 150.0977
1005.512, 159.1641
1005.994, 191.1406
1006.476, 251.3984
1006.958, 316.0078
1007.440, 325.9883
1007.922, 269.5586
1008.404, 217.7461
1008.886, 204.5781
1009.368, 214.8125
1009.851, 256.0273
1010.333, 298.6953
1010.815, 325.3867
1011.297, 329.1172
1011.779, 294.1211
1012.261, 217.9414
1012.743, 154.0469
1013.225, 113.0625
1013.708, 102.9102
1014.190, 150.8164
1014.672, 211.0234
1015.154, 262.1289
1015.636, 287.7461
1016.118, 250.2773
1016.600, 145.6016
1017.082, 68.45312
1017.564, 68.31641
1018.047, 82.87891
1018.529, 97.38672
1019.011, 107.2852
1019.493, 106.0547
1019.975, 99.12500
1020.457, 94.16406
1020.939, 92.42578
1021.421, 98.21094
1021.904, 107.6328
1022.386, 133.2188
1022.868, 196.1328
1023.350, 259.4375
1023.832, 309.7148
1024.314, 336.9922
1024.796, 322.7734
1025.278, 268.1680
1025.760, 212.5352
1026.243, 159.4844
1026.725, 115.4922
1027.207, 69.48438
1027.689, 45.59766
1028.171, 77.01562
1028.653, 123.7852
1029.135, 127.4648
1029.617, 92.86328
1030.099, 83.78516
1030.582, 139.1758
1031.064, 166.1875
1031.546, 137.1562
1032.028, 92.28516
1032.510, 14.33984
1032.992, 43.43359
1033.474, 3.636719
1033.956, 118.4648
1034.439, 206.2227
1034.921, 244.7461
1035.403, 258.8906
1035.885, 223.2539
1036.367, 197.6133
1036.849, 239.9609
1037.331, 272.1523
1037.813, 182.8164
1038.296, 13.08984
1038.778, 42.18359
1039.260, 97.84375
1039.742, 157.5156
1040.224, 52.73047
1040.706, 22.55859
1041.188, 7.421875
1041.670, 62.12109
1042.152, 84.10547
1042.635, 79.96875
1043.117, 68.14844
1043.599, 43.80469
1044.081, 27.11328
1044.563, 14.39844
1045.045, 17.73047
1045.527, 49.59766
1046.009, 78.67188
1046.491, 74.70312
1046.974, 64.24219
1047.456, 116.3438
1047.938, 245.3789
1048.420, 231.5898
1048.902, 2.625000
1049.384, 101.5859
1049.866, 17.36328
1050.348, 145.5234
1050.830, 162.1484
1051.313, 110.0977
1051.795, 38.01562
1052.277, 46.34375
1052.759, 19.75391
1053.241, 138.4648
1053.723, 219.1992
1054.205, 186.3555
1054.687, 151.0586
1055.170, 166.2070
1055.652, 187.8711
1056.134, 161.0547
1056.616, 99.80859
1057.098, 53.91016
1057.580, 23.65234
1058.062, 13.67969
1058.544, 24.41797
1059.026, 55.21875
1059.509, 105.6523
1059.991, 146.2305
1060.473, 146.5938
1060.955, 127.4805
1061.437, 141.6250
1061.919, 177.8125
1062.401, 191.2109
1062.883, 179.1875
1063.365, 119.7930
1063.848, 18.58984
1064.330, 12.77344
1064.812, 109.8008
1065.294, 267.9688
1065.776, 301.2344
1066.258, 250.1602
1066.740, 166.3281
1067.222, 77.92188
1067.705, 67.85938
1068.187, 128.7305
1068.669, 159.3906
1069.151, 111.7109
1069.633, 55.92969
1070.115, 71.58203
1070.597, 103.6562
1071.079, 73.91406
1071.562, 23.18359
1072.044, 16.69531
1072.526, 48.49219
1073.008, 82.61719
1073.490, 107.6133
1073.972, 132.4297
1074.454, 161.4805
1074.936, 189.6016
1075.418, 220.8477
1075.901, 242.6250
1076.383, 244.8047
1076.865, 227.5625
1077.347, 171.9961
1077.829, 88.83594
1078.311, 70.32812
1078.793, 205.4062
1079.275, 298.0312
1079.757, 218.5430
1080.240, 144.0859
1080.722, 211.0625
1081.204, 314.7656
1081.686, 318.2812
1082.168, 242.8359
1082.650, 218.7891
1083.132, 293.2344
1083.614, 332.8789
1084.097, 279.2109
1084.579, 247.6641
1085.061, 280.8594
1085.543, 337.9023
1086.025, 409.9023
1086.507, 476.5664
1086.989, 495.6875
1087.471, 466.6211
1087.953, 385.0273
1088.436, 194.1406
1088.918, 95.09766
1089.400, 151.1992
1089.882, 222.5508
1090.364, 245.4570
1090.846, 228.6328
1091.328, 185.2461
1091.810, 122.2500
1092.292, 106.0859
1092.775, 143.6914
1093.257, 152.7891
1093.739, 124.5898
1094.221, 99.87891
1094.703, 93.10156
1095.185, 96.06641
1095.667, 105.3359
1096.149, 106.0586
1096.632, 39.92969
1097.114, 61.29688
1097.596, 38.30078
1098.078, 85.96094
1098.560, 151.6914
1099.042, 133.4727
1099.524, 82.29688
1100.006, 25.30859
1100.489, 18.40625
1100.971, 36.51562
1101.453, 18.91406
1101.935, 86.67188
1102.417, 224.8555
1102.899, 288.4414
1103.381, 279.1719
1103.863, 235.6445
1104.345, 174.1133
1104.828, 120.0430
1105.310, 87.92969
1105.792, 72.47266
1106.274, 85.07031
1106.756, 95.42969
1107.238, 35.74609
1107.720, 17.84375
1108.202, 65.33203
1108.684, 259.3320
1109.167, 349.1758
1109.649, 224.3047
1110.131, 123.3945
1110.613, 176.2891
1111.095, 217.8359
1111.577, 146.0898
1112.059, 51.58984
1112.541, 0.1835940
1113.024, 8.898438
1113.506, 29.63281
1113.988, 133.9219
1114.470, 169.4258
1114.952, 91.51953
1115.434, 26.91406
1115.916, 8.710938
1116.398, 30.16016
1116.880, 44.96094
1117.363, 48.86328
1117.845, 36.09766
1118.327, 7.765625
1118.809, 35.59375
1119.291, 99.08203
1119.773, 133.9805
1120.255, 136.1367
1120.737, 122.6797
1121.219, 95.17188
1121.702, 98.56250
1122.184, 171.4258
1122.666, 264.5898
1123.148, 262.1836
1123.630, 200.7383
1124.112, 254.5508
1124.594, 376.4609
1125.076, 359.5508
1125.559, 203.6484
1126.041, 56.38672
1126.523, 20.22266
1127.005, 16.54297
1127.487, 117.0078
1127.969, 266.7773
1128.451, 296.6523
1128.933, 268.7109
1129.416, 268.9141
1129.898, 272.3672
1130.380, 189.7148
1130.862, 38.73438
1131.344, 19.19922
1131.826, 115.6758
1132.308, 215.8203
1132.790, 140.5664
1133.272, 52.38672
1133.755, 18.45312
1134.237, 24.59766
1134.719, 85.87109
1135.201, 165.5898
1135.683, 176.9961
1136.165, 103.1367
1136.647, 73.17578
1137.129, 96.81250
1137.611, 156.8086
1138.094, 312.3398
1138.576, 388.3438
1139.058, 270.4531
1139.540, 116.8008
1140.022, 98.24219
1140.504, 172.1680
1140.986, 185.4453
1141.468, 132.9297
1141.951, 102.2383
1142.433, 95.10156
1142.915, 77.81641
1143.397, 43.10938
1143.879, 44.22656
1144.361, 114.0938
1144.843, 200.0000
1145.325, 239.9805
1145.807, 244.2578
1146.290, 230.2773
1146.772, 201.3281
1147.254, 146.0742
1147.736, 85.99609
1148.218, 94.16016
1148.700, 178.1641
1149.182, 254.3516
1149.664, 273.0312
1150.146, 279.2578
1150.629, 329.1133
1151.111, 355.8984
1151.593, 278.2109
1152.075, 168.7461
1152.557, 94.01562
1153.039, 66.42578
1153.521, 116.4336
1154.003, 261.9141
1154.485, 314.9492
1154.968, 123.0273
1155.450, 11.03125
1155.932, 116.8281
1156.414, 201.8047
1156.896, 136.5977
1157.378, 46.30078
1157.860, 70.06641
1158.342, 173.2617
1158.825, 224.3633
1159.307, 214.3086
1159.789, 238.9883
1160.271, 302.6406
1160.753, 338.6758
1161.235, 332.6211
1161.717, 315.3477
1162.199, 305.0430
1162.682, 275.9531
1163.164, 176.9375
1163.646, 63.77734
1164.128, 87.57422
1164.610, 186.4297
1165.092, 203.0625
1165.574, 150.6250
1166.056, 95.94922
1166.538, 63.55859
1167.021, 92.13672
1167.503, 217.0078
1167.985, 321.8281
1168.467, 307.8320
1168.949, 264.0898
1169.431, 239.0273
1169.913, 229.0117
1170.395, 225.6445
1170.877, 233.7383
1171.360, 278.9453
1171.842, 362.4141
1172.324, 389.9297
1172.806, 304.6523
1173.288, 239.2070
1173.770, 195.9648
1174.252, 177.8398
1174.734, 195.9297
1175.217, 221.6875
1175.699, 230.2344
1176.181, 236.7500
1176.663, 278.8398
1177.145, 349.6836
1177.627, 361.9883
1178.109, 319.8438
1178.591, 320.1445
1179.073, 369.6094
1179.556, 388.5195
1180.038, 350.1523
1180.520, 329.5352
1181.002, 397.5000
1181.484, 477.2852
1181.966, 457.5195
1182.448, 399.3711
1182.930, 389.3750
1183.412, 402.4492
1183.895, 379.5234
1184.377, 328.6914
1184.859, 298.6719
1185.341, 302.2930
1185.823, 299.1914
1186.305, 242.9805
1186.787, 221.0547
1187.269, 297.7812
1187.752, 370.1523
1188.234, 390.1250
1188.716, 371.5625
1189.198, 304.0781
1189.680, 218.9727
1190.162, 216.8281
1190.644, 307.2500
1191.126, 412.1484
1191.609, 546.7734
1192.091, 582.0625
1192.573, 492.1250
1193.055, 374.4336
1193.537, 269.9414
1194.019, 208.8711
1194.501, 228.2422
1194.983, 290.5469
1195.465, 342.2891
1195.948, 377.8984
1196.430, 376.1797
1196.912, 352.7070
1197.394, 340.1211
1197.876, 341.6797
1198.358, 347.2578
1198.840, 353.4609
1199.322, 359.8281
1199.804, 363.0312
1200.287, 370.7461
1200.769, 389.2656
1201.251, 410.1484
1201.733, 441.7578
1202.215, 462.5469
1202.697, 431.1211
1203.179, 370.6602
1203.661, 359.4062
1204.144, 408.8633
1204.626, 428.7031
1205.108, 413.2422
1205.590, 392.4297
1206.072, 369.8359
1206.554, 342.0430
1207.036, 305.4414
1207.518, 292.2969
1208.000, 339.0742
1208.483, 411.0469
1208.965, 457.5078
1209.447, 473.1758
1209.929, 429.3750
1210.411, 352.2461
1210.893, 291.2734
1211.375, 255.6055
1211.857, 247.9922
1212.339, 267.5469
1212.822, 277.5469
1213.304, 245.2500
1213.786, 222.6992
1214.268, 232.7461
1214.750, 256.0469
1215.232, 299.1484
1215.714, 335.0156
1216.196, 331.8750
1216.679, 305.0547
1217.161, 289.8828
1217.643, 287.1367
1218.125, 276.3477
1218.607, 255.7969
1219.089, 234.2852
1219.571, 211.1953
1220.053, 214.9570
1220.536, 255.4297
1221.018, 314.3789
1221.500, 382.5664
1221.982, 432.0859
1222.464, 403.4023
1222.946, 345.9219
1223.428, 352.0156
1223.910, 378.9648
1224.392, 353.8555
1224.875, 287.4648
1225.357, 212.7422
1225.839, 141.3867
1226.321, 96.87891
1226.803, 84.37109
1227.285, 104.5586
1227.767, 216.1172
1228.249, 277.9844
1228.731, 217.5312
1229.214, 127.5312
1229.696, 39.71484
1230.178, 14.61328
1230.660, 22.74609
1231.142, 125.3281
1231.624, 150.9648
1232.106, 103.1406
1232.588, 75.01562
1233.071, 67.84375
1233.553, 39.88281
1234.035, 7.933594
1234.517, 0.1679690
1234.999, 112.7852
1235.481, 220.1719
1235.963, 232.4531
1236.445, 175.1250
1236.927, 80.14062
1237.410, 0.6445310
1237.892, 2.703125
1238.374, 0.0000000E+00
##END=



