##NAMES=Ferri-pedrizite
##RRUFFID=R070344
##IDEAL CHEMISTRY=NaLi_2_[Fe^3+^_2_Mg_2_Li]Si_8_O_22_(OH)_2_
##LOCALITY=east Pedriza Massif, Sierra de Guadarrama, Spain
##OWNER=RRUFF
##SOURCE=Michael Scott
##DESCRIPTION=Black bladed crystals
##STATUS=The identification of this mineral is confirmed by single-crystal X-ray diffraction and chemical analysis.
##URL=rruff.info/R070344
##MEASURED CHEMISTRY=(Na_0.78_[box]_0.10_Ca_0.06_K_0.06_)_Σ=1_Li_2.00_[Fe^3+^_2.52_Mg_0.99_Fe^2+^_0.20_Al_0.16_Mn_0.07_Ti_0.03_Cr_0.03_Li_1.00_]Si_8.00_O_22_((OH)_1.27_F_0.73_)_Σ=2_; H_2_O from stoichiometry after deducting F; Li_2_O by difference
201.0508, 0.0000000E+00
201.5329, 54.05859
202.0150, 80.08203
202.4971, 70.92578
202.9792, 42.47461
203.4613, 22.13867
203.9435, 12.74609
204.4256, 36.11719
204.9077, 94.91992
205.3898, 149.5879
205.8719, 149.4941
206.3540, 90.16602
206.8362, 16.86133
207.3183, 4.146484
207.8004, 57.62695
208.2825, 114.7051
208.7646, 129.6211
209.2467, 116.5840
209.7289, 98.89844
210.2110, 80.49219
210.6931, 67.85742
211.1752, 71.06250
211.6573, 96.94922
212.1395, 113.1582
212.6216, 121.8691
213.1037, 119.9648
213.5858, 100.8047
214.0679, 66.38281
214.5500, 29.58008
215.0322, 0.3554690
215.5143, 25.55273
215.9964, 28.06250
216.4785, 22.75195
216.9606, 67.57617
217.4427, 80.28711
217.9249, 69.24023
218.4070, 53.25977
218.8891, 41.16211
219.3712, 36.82227
219.8533, 53.55078
220.3354, 135.2461
220.8176, 195.6738
221.2997, 199.6426
221.7818, 163.9590
222.2639, 124.1250
222.7460, 104.4707
223.2281, 103.1836
223.7103, 101.7773
224.1924, 110.5137
224.6745, 106.9395
225.1566, 71.62891
225.6387, 23.96680
226.1208, 5.882813
226.6030, 1.248047
227.0851, 35.24414
227.5672, 52.91406
228.0493, 35.77734
228.5314, 26.86914
229.0135, 38.56836
229.4957, 59.90820
229.9778, 80.75391
230.4599, 96.87305
230.9420, 105.2754
231.4241, 95.69727
231.9062, 46.86914
232.3884, 17.45508
232.8705, 33.21680
233.3526, 58.69531
233.8347, 57.24609
234.3168, 17.87109
234.7989, 31.96875
235.2811, 42.80273
235.7632, 3.712891
236.2453, 46.82617
236.7274, 93.67773
237.2095, 128.0254
237.6916, 131.0820
238.1738, 102.7422
238.6559, 68.39258
239.1380, 63.41602
239.6201, 100.2617
240.1022, 120.1406
240.5843, 104.5020
241.0665, 85.02930
241.5486, 73.96289
242.0307, 73.19922
242.5128, 80.67383
242.9949, 98.94922
243.4770, 130.2480
243.9592, 145.3145
244.4413, 117.4648
244.9234, 98.56055
245.4055, 118.5000
245.8876, 164.7188
246.3697, 202.6211
246.8519, 204.6836
247.3340, 175.3184
247.8161, 154.2090
248.2982, 144.2266
248.7803, 139.5215
249.2624, 144.5645
249.7446, 151.9160
250.2267, 148.0547
250.7088, 121.5625
251.1909, 83.72656
251.6730, 69.10156
252.1551, 90.05273
252.6373, 109.5625
253.1194, 116.0898
253.6015, 115.0957
254.0836, 111.6113
254.5657, 107.1074
255.0478, 102.0684
255.5300, 94.16016
256.0121, 78.96875
256.4942, 77.98828
256.9763, 115.8457
257.4584, 159.8223
257.9406, 187.0664
258.4227, 192.5918
258.9048, 185.2422
259.3869, 172.0703
259.8690, 152.6992
260.3511, 134.9863
260.8333, 110.8105
261.3154, 98.48828
261.7975, 121.8105
262.2796, 177.9863
262.7617, 221.7148
263.2438, 207.1230
263.7260, 146.5605
264.2081, 114.5078
264.6902, 131.5254
265.1723, 157.4102
265.6544, 168.8320
266.1365, 166.4707
266.6187, 155.2383
267.1008, 128.2500
267.5829, 95.66797
268.0650, 81.60938
268.5471, 91.52148
269.0292, 103.9512
269.5114, 101.1543
269.9935, 90.96680
270.4756, 87.06445
270.9577, 96.03320
271.4398, 110.1504
271.9219, 124.7793
272.4041, 140.2520
272.8862, 142.9785
273.3683, 116.8184
273.8504, 78.13672
274.3325, 57.51562
274.8146, 56.59766
275.2968, 67.46875
275.7789, 95.88672
276.2610, 134.9004
276.7431, 154.3457
277.2252, 138.9297
277.7073, 104.9961
278.1895, 77.08398
278.6716, 53.16406
279.1537, 40.85156
279.6358, 49.67969
280.1179, 70.50781
280.6000, 87.14648
281.0822, 95.62695
281.5643, 102.8926
282.0464, 119.5156
282.5285, 146.6230
283.0106, 165.1562
283.4927, 159.4102
283.9749, 152.5117
284.4570, 171.8301
284.9391, 216.9355
285.4212, 258.2930
285.9033, 270.8457
286.3854, 254.4277
286.8676, 242.2500
287.3497, 237.1914
287.8318, 233.1309
288.3139, 226.9258
288.7960, 219.2812
289.2781, 210.4258
289.7603, 198.8184
290.2424, 188.8301
290.7245, 199.8809
291.2066, 265.2109
291.6887, 309.2383
292.1708, 308.9980
292.6530, 284.6055
293.1351, 260.7422
293.6172, 247.7559
294.0993, 240.8984
294.5814, 234.0332
295.0635, 225.9941
295.5457, 220.4453
296.0278, 223.0234
296.5099, 223.9141
296.9920, 213.6602
297.4741, 192.8281
297.9562, 170.8438
298.4384, 156.6777
298.9205, 150.3301
299.4026, 152.4922
299.8847, 174.8633
300.3668, 193.8125
300.8489, 198.8008
301.3311, 194.0078
301.8131, 188.3398
302.2953, 186.5625
302.7774, 189.7754
303.2595, 204.3750
303.7416, 238.9609
304.2237, 272.8008
304.7058, 310.8164
305.1880, 342.0820
305.6701, 354.9141
306.1522, 344.8535
306.6343, 316.9824
307.1164, 270.8418
307.5985, 193.3262
308.0807, 147.4199
308.5628, 169.1523
309.0449, 209.6211
309.5270, 247.6797
310.0091, 279.0762
310.4912, 299.5605
310.9734, 303.3730
311.4555, 291.6094
311.9376, 274.7246
312.4197, 249.1035
312.9018, 224.6602
313.3839, 201.5645
313.8661, 183.4727
314.3482, 181.2695
314.8303, 211.0938
315.3124, 254.8457
315.7945, 282.3418
316.2766, 293.0371
316.7588, 290.0625
317.2409, 265.3203
317.7230, 230.6953
318.2051, 205.8418
318.6872, 194.9062
319.1693, 191.0176
319.6515, 192.8105
320.1336, 198.5840
320.6157, 200.2988
321.0978, 194.5293
321.5799, 184.5508
322.0620, 175.0566
322.5442, 166.0723
323.0263, 157.4434
323.5084, 145.2344
323.9905, 134.9902
324.4726, 134.5645
324.9547, 145.2598
325.4369, 162.3027
325.9190, 184.2949
326.4011, 212.0996
326.8832, 223.0449
327.3653, 207.6816
327.8474, 184.9707
328.3296, 155.0703
328.8117, 125.3438
329.2938, 118.6250
329.7759, 152.3418
330.2580, 212.2910
330.7401, 233.0430
331.2223, 157.2031
331.7044, 113.3535
332.1865, 137.9746
332.6686, 190.3379
333.1507, 231.4043
333.6328, 247.8477
334.1150, 243.2441
334.5971, 219.6113
335.0792, 164.6328
335.5613, 124.4805
336.0434, 106.7520
336.5255, 95.24609
337.0077, 86.53906
337.4898, 77.48242
337.9719, 61.76758
338.4540, 31.50195
338.9361, 10.29102
339.4182, 36.89453
339.9004, 49.43164
340.3825, 42.63672
340.8646, 1.121094
341.3467, 56.81445
341.8288, 92.50977
342.3109, 95.30469
342.7931, 79.36914
343.2752, 60.95117
343.7573, 38.15625
344.2394, 26.74023
344.7215, 34.74609
345.2036, 52.96680
345.6858, 79.58203
346.1679, 113.6680
346.6500, 137.6406
347.1321, 125.9375
347.6142, 95.81055
348.0963, 104.0547
348.5785, 171.4961
349.0606, 232.7383
349.5427, 213.2012
350.0248, 140.5176
350.5069, 101.6523
350.9890, 139.6094
351.4712, 198.8984
351.9533, 240.6855
352.4354, 265.7695
352.9175, 277.6348
353.3996, 273.6875
353.8817, 262.3613
354.3639, 268.9805
354.8460, 309.8398
355.3281, 331.3574
355.8102, 305.2031
356.2923, 260.8184
356.7744, 231.1719
357.2566, 223.5527
357.7387, 230.1895
358.2208, 243.5273
358.7029, 265.0449
359.1850, 285.5254
359.6671, 319.1816
360.1493, 338.1992
360.6314, 316.7246
361.1135, 271.3789
361.5956, 239.8926
362.0777, 245.8242
362.5598, 276.1914
363.0420, 281.7852
363.5241, 236.3945
364.0062, 208.3750
364.4883, 218.7402
364.9704, 239.6367
365.4525, 249.1445
365.9347, 242.1543
366.4168, 225.8496
366.8989, 204.2617
367.3810, 176.2109
367.8631, 160.3164
368.3452, 166.2734
368.8274, 175.1523
369.3095, 171.0391
369.7916, 161.8535
370.2737, 168.1191
370.7558, 210.9688
371.2379, 265.4062
371.7201, 284.0312
372.2022, 262.9922
372.6843, 243.8887
373.1664, 249.9219
373.6485, 263.8906
374.1306, 257.5332
374.6128, 223.4824
375.0949, 192.7344
375.5770, 188.0352
376.0591, 197.0293
376.5412, 194.2500
377.0233, 175.3887
377.5055, 152.9453
377.9876, 136.2051
378.4697, 121.8125
378.9518, 107.4961
379.4339, 91.83008
379.9160, 79.07422
380.3982, 74.69141
380.8803, 76.04688
381.3624, 74.17773
381.8445, 61.74219
382.3266, 44.32812
382.8087, 42.72266
383.2909, 84.11523
383.7730, 107.3418
384.2551, 97.31836
384.7372, 77.84961
385.2193, 67.27539
385.7014, 68.96289
386.1836, 76.67383
386.6657, 86.78711
387.1478, 100.2598
387.6299, 96.53516
388.1120, 51.04297
388.5941, 16.71289
389.0763, 13.87305
389.5584, 32.27734
390.0405, 57.20117
390.5226, 84.65820
391.0047, 109.5508
391.4868, 122.9668
391.9690, 123.8438
392.4511, 122.7617
392.9332, 121.1406
393.4153, 119.6895
393.8974, 117.3262
394.3795, 114.1660
394.8617, 116.8359
395.3438, 132.7031
395.8259, 155.0488
396.3080, 176.3477
396.7901, 196.4805
397.2722, 203.5332
397.7544, 186.6328
398.2365, 149.5352
398.7186, 114.9766
399.2007, 65.39062
399.6828, 36.76367
400.1649, 63.35547
400.6471, 115.4395
401.1292, 142.3086
401.6113, 127.2383
402.0934, 90.34766
402.5755, 59.11328
403.0576, 30.31641
403.5398, 19.46875
404.0219, 49.81836
404.5040, 73.92773
404.9861, 61.89648
405.4682, 22.87109
405.9503, 19.42969
406.4325, 52.58398
406.9146, 72.06055
407.3967, 54.66602
407.8788, 32.83398
408.3609, 88.17578
408.8430, 65.44141
409.3252, 23.08789
409.8073, 8.726563
410.2894, 28.74609
410.7715, 52.01172
411.2536, 48.92969
411.7357, 25.16016
412.2179, 8.953125
412.7000, 1.630859
413.1821, 3.228516
413.6642, 22.03125
414.1463, 49.33594
414.6284, 67.19141
415.1106, 69.01953
415.5927, 64.61523
416.0748, 60.89648
416.5569, 56.77148
417.0390, 47.47266
417.5211, 30.25977
418.0033, 11.52148
418.4854, 0.4882810
418.9675, 1.703125
419.4496, 1.310547
419.9317, 12.34961
420.4138, 26.25977
420.8960, 43.22656
421.3781, 60.48828
421.8602, 70.50391
422.3423, 67.63086
422.8244, 55.50586
423.3065, 50.50391
423.7887, 65.30469
424.2708, 66.87109
424.7529, 40.34961
425.2350, 8.691406
425.7171, 10.12109
426.1992, 13.89453
426.6814, 10.76367
427.1635, 6.681641
427.6456, 2.537109
428.1277, 1.949219
428.6098, 1.992188
429.0919, 7.244141
429.5741, 38.58984
430.0562, 77.97656
430.5383, 93.99609
431.0204, 69.78125
431.5025, 43.38867
431.9846, 52.14648
432.4668, 84.42969
432.9489, 94.28125
433.4310, 66.93555
433.9131, 23.59961
434.3952, 18.68359
434.8773, 61.60938
435.3595, 69.39844
435.8416, 1.251953
436.3237, 66.92969
436.8058, 88.51953
437.2879, 71.98438
437.7701, 42.21484
438.2522, 10.53711
438.7343, 17.68555
439.2164, 28.46289
439.6985, 15.23438
440.1806, 4.994141
440.6628, 44.85156
441.1449, 82.09570
441.6270, 99.59570
442.1091, 98.35742
442.5912, 90.51367
443.0733, 82.27734
443.5555, 75.19727
444.0376, 78.00391
444.5197, 96.15430
445.0018, 108.9648
445.4839, 104.2207
445.9660, 92.45898
446.4482, 78.94531
446.9303, 62.41992
447.4124, 61.47070
447.8945, 110.1855
448.3766, 178.1719
448.8587, 193.5195
449.3409, 143.5156
449.8230, 85.58984
450.3051, 59.98047
450.7872, 66.53125
451.2693, 89.87109
451.7514, 157.7480
452.2336, 208.9395
452.7157, 208.6836
453.1978, 184.8633
453.6799, 174.4785
454.1620, 188.7051
454.6441, 218.6680
455.1263, 255.6914
455.6084, 303.5254
456.0905, 337.0000
456.5726, 343.9004
457.0547, 347.9902
457.5368, 351.2051
458.0190, 357.5273
458.5011, 373.1797
458.9832, 401.6992
459.4653, 436.2031
459.9474, 465.3945
460.4295, 488.9648
460.9117, 522.7012
461.3938, 578.5020
461.8759, 633.0137
462.3580, 662.3086
462.8401, 670.9941
463.3222, 682.6523
463.8044, 719.9688
464.2865, 748.2969
464.7686, 728.4863
465.2507, 673.0371
465.7328, 630.1113
466.2149, 620.8027
466.6971, 621.4902
467.1792, 583.7441
467.6613, 467.8633
468.1434, 398.6289
468.6255, 415.6445
469.1076, 443.9043
469.5898, 437.5527
470.0719, 401.0957
470.5540, 361.3438
471.0361, 335.1191
471.5182, 316.8223
472.0003, 288.5527
472.4825, 246.3496
472.9646, 205.5410
473.4467, 166.3477
473.9288, 132.1348
474.4109, 103.1426
474.8930, 80.49023
475.3752, 70.06055
475.8573, 79.03125
476.3394, 100.7793
476.8215, 132.1602
477.3036, 173.3438
477.7857, 192.3008
478.2679, 165.1484
478.7500, 111.9727
479.2321, 81.72461
479.7142, 81.06055
480.1963, 82.56250
480.6784, 87.42969
481.1606, 88.00391
481.6427, 73.30273
482.1248, 45.55859
482.6069, 19.75000
483.0890, 7.687500
483.5711, 5.378906
484.0533, 7.250000
484.5354, 46.94727
485.0175, 67.98633
485.4996, 63.31055
485.9817, 40.56055
486.4638, 9.019531
486.9460, 79.03711
487.4281, 126.8984
487.9102, 97.94922
488.3923, 22.05469
488.8744, 5.847656
489.3565, 21.87109
489.8387, 59.02344
490.3208, 93.09180
490.8029, 116.0059
491.2850, 110.4434
491.7671, 62.93750
492.2492, 24.67383
492.7314, 12.48828
493.2135, 20.38867
493.6956, 56.67383
494.1777, 111.6504
494.6598, 147.9883
495.1419, 134.3223
495.6241, 80.41406
496.1062, 49.54102
496.5883, 69.48047
497.0704, 72.07812
497.5525, 33.22266
498.0346, 10.48047
498.5168, 28.47656
498.9989, 18.89453
499.4810, 0.8945310
499.9631, 9.386719
500.4452, 15.48633
500.9273, 35.65625
501.4095, 77.06250
501.8916, 100.9688
502.3737, 75.13867
502.8558, 30.93555
503.3379, 20.63867
503.8200, 53.97656
504.3022, 83.89062
504.7843, 85.06250
505.2664, 77.96289
505.7485, 88.63281
506.2306, 116.9434
506.7127, 145.1816
507.1949, 162.6230
507.6770, 169.1797
508.1591, 163.6035
508.6412, 122.8457
509.1233, 104.3516
509.6054, 122.9668
510.0876, 154.5859
510.5697, 185.5820
511.0518, 213.0156
511.5339, 237.5547
512.0161, 263.4395
512.4982, 284.4395
512.9803, 276.6582
513.4624, 233.2617
513.9445, 203.2012
514.4266, 205.8789
514.9088, 228.8340
515.3909, 258.7305
515.8730, 296.9785
516.3551, 325.3691
516.8372, 331.1074
517.3193, 330.0938
517.8015, 338.7930
518.2836, 354.9883
518.7657, 365.0820
519.2478, 361.1621
519.7299, 349.8789
520.2120, 347.8496
520.6942, 366.3672
521.1763, 372.2949
521.6584, 343.3223
522.1405, 323.9668
522.6226, 355.6289
523.1047, 416.6758
523.5869, 447.1406
524.0690, 406.5312
524.5511, 340.1504
525.0332, 320.4883
525.5153, 347.3574
525.9974, 392.2090
526.4796, 460.3496
526.9617, 524.9609
527.4438, 547.9336
527.9259, 535.2793
528.4080, 539.0898
528.8901, 580.3105
529.3723, 626.4043
529.8544, 662.0352
530.3365, 687.9824
530.8186, 703.0020
531.3007, 707.2930
531.7828, 712.6309
532.2650, 735.8320
532.7471, 779.5898
533.2292, 825.2832
533.7113, 883.1309
534.1934, 930.9004
534.6755, 959.3555
535.1577, 974.8574
535.6398, 984.5645
536.1219, 989.8672
536.6040, 996.2148
537.0861, 1006.422
537.5682, 1021.664
538.0504, 1047.562
538.5325, 1085.688
539.0146, 1127.256
539.4967, 1169.168
539.9788, 1208.848
540.4609, 1233.463
540.9431, 1243.486
541.4252, 1241.475
541.9073, 1213.412
542.3894, 1178.418
542.8715, 1156.203
543.3536, 1149.816
543.8358, 1153.740
544.3179, 1168.561
544.8000, 1184.555
545.2821, 1159.697
545.7642, 1069.518
546.2463, 1005.520
546.7285, 1014.471
547.2106, 1042.395
547.6927, 1050.486
548.1748, 1036.693
548.6569, 1008.518
549.1390, 953.6191
549.6211, 897.0391
550.1032, 871.2910
550.5853, 869.9961
551.0674, 864.4453
551.5496, 842.8633
552.0317, 811.3242
552.5138, 778.3184
552.9959, 738.1602
553.4780, 717.9160
553.9601, 728.3535
554.4423, 740.8164
554.9244, 755.2168
555.4065, 762.0586
555.8886, 735.4355
556.3707, 664.9004
556.8528, 600.5684
557.3350, 618.0391
557.8171, 703.6172
558.2992, 746.4922
558.7813, 729.6836
559.2634, 692.8945
559.7455, 651.4219
560.2277, 611.1504
560.7098, 595.6406
561.1919, 625.6211
561.6740, 649.6953
562.1561, 651.8496
562.6382, 640.8398
563.1204, 617.6289
563.6025, 587.4629
564.0846, 567.3281
564.5667, 570.0332
565.0488, 588.5977
565.5309, 599.8418
566.0131, 606.5723
566.4952, 603.9707
566.9773, 582.4336
567.4594, 557.9434
567.9415, 535.5703
568.4236, 517.9160
568.9058, 513.6934
569.3879, 542.5098
569.8700, 572.0098
570.3521, 564.6367
570.8342, 529.7129
571.3163, 497.2598
571.7985, 476.0977
572.2806, 463.1484
572.7627, 455.1367
573.2448, 452.0684
573.7269, 453.9082
574.2090, 461.7363
574.6912, 472.9395
575.1733, 500.5371
575.6554, 524.0312
576.1375, 513.9336
576.6196, 466.6797
577.1017, 417.8516
577.5839, 402.2520
578.0660, 410.8691
578.5481, 414.5918
579.0302, 411.0586
579.5123, 405.8906
579.9944, 400.2305
580.4766, 395.2441
580.9587, 396.5547
581.4408, 410.3027
581.9229, 406.1348
582.4050, 357.0898
582.8871, 307.1426
583.3693, 294.3223
583.8514, 304.6738
584.3335, 301.9805
584.8156, 265.5195
585.2977, 220.9004
585.7798, 208.9355
586.2620, 232.9473
586.7441, 252.8340
587.2262, 272.7344
587.7083, 278.3633
588.1904, 245.9941
588.6725, 198.1934
589.1547, 173.9258
589.6368, 186.8164
590.1189, 200.4492
590.6010, 198.4785
591.0831, 186.7148
591.5652, 167.1035
592.0474, 143.2500
592.5295, 129.9395
593.0116, 138.6055
593.4937, 160.4062
593.9758, 166.1523
594.4579, 142.9043
594.9401, 134.3398
595.4222, 163.0723
595.9043, 190.0332
596.3864, 203.5449
596.8685, 199.9551
597.3506, 166.3965
597.8328, 80.21289
598.3149, 4.6875000E-02
598.7970, 12.94727
599.2791, 20.40625
599.7612, 47.91406
600.2433, 59.58203
600.7255, 66.75977
601.2076, 80.25000
601.6897, 97.76367
602.1718, 100.2656
602.6539, 65.59180
603.1360, 46.22266
603.6182, 60.12891
604.1003, 79.39258
604.5824, 81.98438
605.0645, 69.48828
605.5466, 58.32031
606.0287, 60.08984
606.5109, 65.23438
606.9930, 57.24609
607.4751, 37.99023
607.9572, 22.87109
608.4393, 15.94922
608.9214, 12.88086
609.4036, 10.62891
609.8857, 9.142578
610.3678, 1.855469
610.8499, 26.87695
611.3320, 41.10742
611.8141, 23.28906
612.2963, 7.171875
612.7784, 37.33594
613.2605, 61.43164
613.7426, 69.11914
614.2247, 44.61328
614.7068, 4.736328
615.1890, 2.931641
615.6711, 23.62891
616.1532, 32.95508
616.6353, 0.6289060
617.1174, 36.60938
617.5995, 31.05078
618.0817, 18.39453
618.5638, 43.52148
619.0459, 24.03320
619.5280, 0.3300780
620.0101, 14.50195
620.4922, 23.61914
620.9744, 34.16602
621.4565, 46.02930
621.9386, 49.48438
622.4207, 34.39062
622.9028, 4.443359
623.3849, 31.05664
623.8671, 76.86523
624.3492, 98.29883
624.8313, 72.54883
625.3134, 31.96094
625.7955, 15.42773
626.2776, 21.35547
626.7598, 27.48438
627.2419, 23.41602
627.7240, 26.88086
628.2061, 63.17188
628.6882, 106.0840
629.1703, 110.1797
629.6525, 69.35938
630.1346, 23.37109
630.6167, 9.468750
631.0988, 24.19922
631.5809, 54.96289
632.0630, 113.1914
632.5452, 141.0449
633.0273, 101.0781
633.5094, 42.32422
633.9915, 22.88672
634.4736, 40.36328
634.9557, 47.76172
635.4379, 11.89648
635.9200, 11.01953
636.4021, 31.63477
636.8842, 100.1484
637.3663, 130.7598
637.8484, 109.4844
638.3306, 66.23047
638.8127, 24.51172
639.2948, 12.18555
639.7769, 14.71484
640.2590, 31.73047
640.7411, 57.40625
641.2233, 16.82812
641.7054, 27.65625
642.1875, 3.806641
642.6696, 102.9531
643.1517, 163.2949
643.6339, 135.6074
644.1160, 92.97266
644.5981, 65.72266
645.0802, 53.35742
645.5623, 60.51367
646.0444, 84.37305
646.5266, 102.8164
647.0087, 91.33398
647.4908, 59.54492
647.9729, 59.13867
648.4550, 103.4453
648.9371, 123.7754
649.4193, 83.22266
649.9014, 33.89844
650.3835, 33.58203
650.8656, 73.89258
651.3477, 94.65820
651.8298, 71.57031
652.3120, 43.10156
652.7941, 23.49219
653.2762, 10.99609
653.7583, 1.501953
654.2404, 12.11523
654.7225, 2.775391
655.2047, 47.93945
655.6868, 120.5859
656.1689, 143.5938
656.6510, 106.0098
657.1331, 85.55469
657.6152, 108.1934
658.0974, 135.5762
658.5795, 127.2539
659.0616, 92.35547
659.5437, 71.99023
660.0258, 85.84766
660.5079, 94.71484
660.9901, 79.69727
661.4722, 56.71094
661.9543, 38.40625
662.4364, 28.63281
662.9185, 30.67969
663.4006, 47.77734
663.8828, 75.14844
664.3649, 108.6250
664.8470, 149.0918
665.3291, 162.3008
665.8112, 131.2773
666.2933, 100.1465
666.7755, 102.6641
667.2576, 132.4531
667.7397, 159.8604
668.2218, 198.1680
668.7039, 211.0449
669.1860, 180.6484
669.6682, 134.8398
670.1503, 73.95020
670.6324, 15.18555
671.1145, 5.293945
671.5966, 72.44531
672.0787, 159.1475
672.5609, 175.4902
673.0430, 133.3242
673.5251, 124.1240
674.0072, 162.0781
674.4893, 196.9385
674.9714, 194.8809
675.4536, 171.7930
675.9357, 164.5352
676.4178, 180.7520
676.8999, 189.6602
677.3820, 186.4248
677.8641, 178.7949
678.3463, 172.1377
678.8284, 164.2441
679.3105, 147.0391
679.7926, 118.5381
680.2747, 99.82715
680.7568, 122.6758
681.2390, 166.0068
681.7211, 178.6631
682.2032, 160.1719
682.6853, 141.5322
683.1674, 135.8252
683.6495, 137.2812
684.1317, 139.9678
684.6138, 145.9521
685.0959, 134.3252
685.5780, 72.72559
686.0601, 35.48926
686.5422, 66.11621
687.0244, 114.1963
687.5065, 123.0957
687.9886, 88.34082
688.4707, 54.46191
688.9528, 49.67480
689.4349, 56.47070
689.9171, 57.07910
690.3992, 52.66406
690.8813, 44.67188
691.3634, 33.79492
691.8455, 28.73145
692.3276, 39.71094
692.8098, 64.28418
693.2919, 80.46680
693.7740, 84.77734
694.2561, 87.61230
694.7382, 90.26074
695.2203, 90.71289
695.7025, 79.86816
696.1846, 64.45605
696.6667, 70.68652
697.1488, 127.1885
697.6309, 171.9971
698.1130, 166.4268
698.5952, 134.0576
699.0773, 93.56348
699.5594, 53.39648
700.0415, 40.06445
700.5236, 68.37891
701.0057, 118.3936
701.4879, 150.6543
701.9700, 164.7871
702.4521, 172.2129
702.9342, 176.2217
703.4163, 166.5830
703.8984, 126.1465
704.3806, 72.34375
704.8627, 47.72363
705.3448, 61.57617
705.8269, 75.41992
706.3090, 92.09863
706.7911, 100.8027
707.2733, 78.55664
707.7554, 45.94238
708.2375, 39.24121
708.7196, 68.96094
709.2017, 99.51465
709.6838, 92.44824
710.1660, 65.22070
710.6481, 62.87109
711.1302, 86.81738
711.6123, 108.0625
712.0944, 121.1260
712.5765, 120.9326
713.0587, 93.70215
713.5408, 36.33008
714.0229, 15.25586
714.5050, 64.29590
714.9871, 104.1992
715.4692, 116.4639
715.9514, 120.7197
716.4335, 133.3799
716.9156, 152.3604
717.3977, 159.7852
717.8798, 139.1309
718.3619, 117.8379
718.8441, 121.8291
719.3262, 137.2305
719.8083, 154.2842
720.2904, 169.5381
720.7725, 166.6279
721.2546, 134.4150
721.7368, 91.65039
722.2189, 92.48633
722.7010, 147.5635
723.1831, 171.0176
723.6652, 140.6719
724.1473, 108.0176
724.6295, 104.2100
725.1116, 118.3447
725.5937, 128.9209
726.0758, 137.6982
726.5579, 136.2471
727.0400, 114.1348
727.5222, 90.42090
728.0043, 70.55371
728.4864, 58.88574
728.9685, 66.67578
729.4506, 94.37891
729.9327, 117.2617
730.4149, 103.2852
730.8970, 72.52246
731.3791, 80.45996
731.8612, 120.9785
732.3433, 129.6602
732.8254, 83.10254
733.3076, 30.56348
733.7897, 23.56641
734.2718, 58.42969
734.7539, 86.41309
735.2360, 111.9209
735.7181, 123.4150
736.2003, 106.9551
736.6824, 87.01367
737.1645, 74.57617
737.6466, 71.06152
738.1287, 77.07324
738.6108, 96.02539
739.0930, 118.3389
739.5751, 159.7598
740.0572, 188.6943
740.5393, 141.5186
741.0214, 42.12305
741.5035, 29.68457
741.9857, 35.74414
742.4678, 6.252930
742.9499, 22.61133
743.4320, 50.34570
743.9141, 67.03223
744.3962, 70.70605
744.8784, 75.17188
745.3605, 85.28125
745.8426, 92.36426
746.3247, 82.26660
746.8068, 51.07715
747.2889, 36.62305
747.7711, 56.20703
748.2532, 70.04004
748.7353, 71.66309
749.2174, 67.80664
749.6995, 65.15625
750.1816, 63.47852
750.6638, 56.63184
751.1459, 34.79980
751.6280, 20.24707
752.1101, 46.61230
752.5922, 89.84473
753.0743, 98.30469
753.5565, 71.96191
754.0386, 55.37988
754.5207, 75.78613
755.0028, 112.7344
755.4849, 126.0859
755.9670, 113.3711
756.4492, 99.64062
756.9313, 85.91699
757.4134, 68.78027
757.8955, 36.66309
758.3776, 7.593750
758.8597, 16.75488
759.3419, 69.36328
759.8240, 99.47070
760.3061, 75.63574
760.7882, 59.84961
761.2703, 91.59277
761.7524, 132.4629
762.2346, 138.3115
762.7167, 108.9385
763.1988, 76.48438
763.6809, 58.80762
764.1630, 24.45117
764.6451, 32.84473
765.1273, 64.82910
765.6094, 72.91309
766.0915, 14.70312
766.5736, 21.18652
767.0557, 7.543945
767.5378, 8.121094
768.0200, 45.14551
768.5021, 28.62891
768.9842, 23.54785
769.4663, 25.54785
769.9484, 51.13086
770.4305, 27.29199
770.9127, 17.80078
771.3948, 58.08984
771.8769, 70.77832
772.3590, 40.09180
772.8411, 66.42383
773.3232, 9.074219
773.8054, 4.844727
774.2875, 57.34570
774.7696, 29.18164
775.2517, 56.41113
775.7338, 62.51758
776.2159, 27.31836
776.6981, 49.67480
777.1802, 54.61523
777.6623, 13.78320
778.1444, 59.59277
778.6265, 1.087891
779.1086, 56.64551
779.5908, 43.01758
780.0729, 13.55566
780.5550, 2.691406
781.0371, 7.325195
781.5192, 26.12891
782.0013, 122.9189
782.4835, 190.0859
782.9656, 181.8828
783.4477, 136.8604
783.9298, 98.17383
784.4119, 65.66797
784.8940, 43.99121
785.3762, 31.54004
785.8583, 32.50488
786.3404, 53.70508
786.8225, 84.28613
787.3046, 127.0039
787.7867, 170.9580
788.2689, 185.0098
788.7510, 147.9111
789.2331, 104.8896
789.7152, 95.68262
790.1973, 104.2725
790.6794, 107.0352
791.1616, 102.6699
791.6437, 95.74316
792.1258, 88.05273
792.6079, 80.50977
793.0900, 0.5419920
793.5721, 56.50488
794.0543, 87.14355
794.5364, 93.84570
795.0185, 5.028320
795.5006, 39.69824
795.9827, 24.72949
796.4648, 7.720703
796.9470, 59.63379
797.4291, 15.48633
797.9112, 35.31152
798.3933, 35.85938
798.8754, 59.43555
799.3575, 31.85449
799.8397, 19.23145
800.3218, 57.99805
800.8039, 69.30371
801.2860, 37.23340
801.7681, 62.18848
802.2502, 14.75391
802.7324, 2.301758
803.2145, 48.71875
803.6966, 20.97754
804.1787, 50.08301
804.6608, 55.10449
805.1429, 36.11816
805.6251, 19.03320
806.1072, 10.83594
806.5893, 21.64062
807.0714, 47.54785
807.5535, 56.51855
808.0356, 42.20312
808.5178, 23.94238
808.9999, 11.61523
809.4820, 10.05762
809.9641, 36.04688
810.4462, 105.5020
810.9283, 143.9629
811.4105, 140.4961
811.8926, 123.7148
812.3747, 90.71680
812.8568, 59.00098
813.3389, 52.20996
813.8210, 70.36426
814.3032, 83.00000
814.7853, 78.98242
815.2674, 77.39648
815.7495, 88.24023
816.2316, 101.6816
816.7137, 109.5957
817.1959, 111.6787
817.6780, 110.9189
818.1601, 108.6904
818.6422, 103.2012
819.1243, 84.89453
819.6064, 66.72168
820.0886, 75.75195
820.5707, 104.1768
821.0528, 120.5352
821.5349, 113.7803
822.0170, 93.46582
822.4991, 70.28223
822.9813, 47.40234
823.4634, 49.45508
823.9455, 77.12891
824.4276, 96.25879
824.9097, 98.14160
825.3918, 89.63379
825.8740, 75.82324
826.3561, 55.53809
826.8382, 35.39453
827.3203, 1.038086
827.8024, 5.473633
828.2845, 45.90820
828.7667, 88.17188
829.2488, 92.70898
829.7309, 78.25879
830.2130, 63.46387
830.6951, 49.81543
831.1772, 42.46582
831.6594, 41.67969
832.1415, 51.41406
832.6236, 92.97168
833.1057, 131.5645
833.5878, 126.6094
834.0699, 83.55566
834.5521, 37.90723
835.0342, 2.096680
835.5163, 22.37109
835.9984, 2.764648
836.4805, 52.53613
836.9626, 107.1152
837.4448, 157.6895
837.9269, 179.3096
838.4090, 164.3057
838.8911, 133.6162
839.3732, 107.2256
839.8553, 85.70312
840.3375, 72.63281
840.8196, 69.01953
841.3017, 82.81641
841.7838, 119.9893
842.2659, 147.1162
842.7480, 138.3857
843.2302, 111.2344
843.7123, 111.2041
844.1944, 150.7422
844.6765, 175.8018
845.1586, 188.3564
845.6407, 184.5859
846.1229, 147.8828
846.6050, 103.9805
847.0871, 80.81641
847.5692, 77.35449
848.0513, 73.16602
848.5334, 56.68262
849.0156, 50.95117
849.4977, 72.40039
849.9798, 97.80566
850.4619, 115.2793
850.9440, 120.4492
851.4261, 104.7266
851.9083, 62.68164
852.3904, 30.66895
852.8725, 38.58594
853.3546, 63.12305
853.8367, 87.04395
854.3188, 104.4062
854.8010, 102.5488
855.2831, 80.30273
855.7652, 59.55957
856.2473, 51.66016
856.7294, 54.37598
857.2115, 66.61035
857.6937, 86.15234
858.1758, 106.2021
858.6579, 125.4443
859.1400, 136.4590
859.6221, 136.7686
860.1042, 118.4502
860.5864, 65.91113
861.0685, 17.45508
861.5506, 39.58203
862.0327, 15.22070
862.5148, 60.27539
862.9969, 69.50488
863.4791, 76.87891
863.9612, 107.0967
864.4433, 149.0947
864.9254, 160.7100
865.4075, 120.2656
865.8896, 94.06445
866.3718, 92.73047
866.8539, 91.96875
867.3360, 76.34277
867.8181, 61.73340
868.3002, 77.78027
868.7823, 122.5166
869.2645, 142.0527
869.7466, 95.27344
870.2287, 56.40625
870.7108, 62.20508
871.1929, 81.00195
871.6750, 89.29785
872.1572, 85.96582
872.6393, 73.29980
873.1214, 51.46582
873.6035, 33.85742
874.0856, 31.22168
874.5677, 36.78906
875.0499, 45.34863
875.5320, 55.36230
876.0141, 64.72949
876.4962, 72.78027
876.9783, 79.91602
877.4604, 87.37500
877.9426, 90.11035
878.4247, 73.28809
878.9068, 44.79980
879.3889, 34.32422
879.8710, 43.46094
880.3531, 67.76660
880.8353, 102.9062
881.3174, 131.7490
881.7995, 129.7461
882.2816, 102.5059
882.7637, 87.14941
883.2458, 85.98047
883.7280, 78.96582
884.2101, 60.52148
884.6922, 43.42480
885.1743, 34.18652
885.6564, 33.09668
886.1385, 43.31055
886.6207, 68.16504
887.1028, 83.31445
887.5849, 81.24512
888.0670, 82.91797
888.5491, 99.87891
889.0313, 114.0879
889.5134, 105.9697
889.9955, 81.64453
890.4776, 68.89844
890.9597, 79.18848
891.4418, 83.89648
891.9240, 74.35449
892.4061, 63.41016
892.8882, 52.96680
893.3703, 46.36719
893.8524, 55.41895
894.3345, 78.30859
894.8167, 92.53906
895.2988, 81.32422
895.7809, 67.43066
896.2630, 68.28125
896.7451, 68.54102
897.2272, 44.32812
897.7094, 5.900391
898.1915, 19.05566
898.6736, 20.65234
899.1557, 10.20996
899.6378, 14.99609
900.1199, 37.99414
900.6021, 30.48730
901.0842, 6.644531
901.5663, 1.015625
902.0484, 10.52441
902.5305, 18.57617
903.0126, 7.473633
903.4948, 3.918945
903.9769, 18.55762
904.4590, 62.41016
904.9411, 89.89648
905.4232, 99.85840
905.9053, 96.59668
906.3875, 81.64453
906.8696, 62.86328
907.3517, 46.74805
907.8338, 34.59766
908.3159, 32.97266
908.7980, 42.00293
909.2802, 45.26074
909.7623, 40.62402
910.2444, 31.46680
910.7265, 16.82520
911.2086, 8.619141
911.6907, 27.76270
912.1729, 73.59277
912.6550, 94.24902
913.1371, 80.57715
913.6192, 71.03906
914.1013, 74.14258
914.5834, 78.99414
915.0656, 80.16699
915.5477, 76.91602
916.0298, 66.08105
916.5119, 42.74219
916.9940, 30.49902
917.4761, 43.42285
917.9583, 47.52734
918.4404, 14.96094
918.9225, 14.05273
919.4046, 5.410156
919.8867, 61.97754
920.3688, 93.16895
920.8510, 84.48438
921.3331, 71.95898
921.8152, 50.04102
922.2973, 37.66992
922.7794, 60.22559
923.2615, 86.21875
923.7437, 70.37891
924.2258, 16.94629
924.7079, 17.50781
925.1900, 5.376953
925.6721, 10.45508
926.1542, 8.506836
926.6364, 7.301758
927.1185, 29.85352
927.6006, 60.52246
928.0827, 67.95996
928.5648, 47.29492
929.0469, 28.39355
929.5291, 27.19043
930.0112, 34.65430
930.4933, 51.64648
930.9754, 68.20996
931.4575, 65.04688
931.9396, 50.74219
932.4218, 57.22852
932.9039, 95.39844
933.3860, 125.1982
933.8681, 102.6309
934.3502, 59.94141
934.8323, 33.54004
935.3145, 20.79395
935.7966, 22.06641
936.2787, 32.39551
936.7608, 29.59082
937.2429, 0.6279300
937.7250, 23.45801
938.2072, 10.30664
938.6893, 70.87109
939.1714, 81.42090
939.6535, 52.92969
940.1356, 34.60645
940.6177, 36.70020
941.0999, 37.83301
941.5820, 21.63379
942.0641, 2.670898
942.5462, 14.31445
943.0283, 48.22559
943.5104, 59.53418
943.9926, 46.98145
944.4747, 25.75781
944.9568, 0.6621090
945.4389, 14.94727
945.9210, 6.860352
946.4031, 14.89062
946.8853, 17.85840
947.3674, 2.284180
947.8495, 23.04883
948.3316, 88.17188
948.8137, 136.3770
949.2958, 142.6748
949.7780, 126.4121
950.2601, 110.4912
950.7422, 94.17969
951.2243, 65.86914
951.7064, 20.65430
952.1885, 1.632813
952.6707, 8.654297
953.1528, 18.23047
953.6349, 5.825195
954.1170, 1.262695
954.5991, 40.79395
955.0812, 127.8770
955.5634, 172.0195
956.0455, 160.4492
956.5276, 139.7490
957.0097, 107.9453
957.4918, 85.82129
957.9739, 87.09570
958.4561, 99.12988
958.9382, 99.57422
959.4203, 86.42773
959.9024, 91.00195
960.3845, 126.3115
960.8666, 151.4600
961.3488, 151.5127
961.8309, 153.4941
962.3130, 186.7236
962.7951, 224.1133
963.2772, 203.6523
963.7593, 104.0498
964.2415, 60.69922
964.7236, 112.7363
965.2057, 164.1436
965.6878, 214.4834
966.1699, 244.2988
966.6520, 229.2607
967.1342, 187.3066
967.6163, 157.2373
968.0984, 138.5576
968.5805, 137.3389
969.0626, 172.3418
969.5447, 200.2031
970.0269, 206.6699
970.5090, 204.9170
970.9911, 199.6055
971.4732, 194.9326
971.9553, 203.2910
972.4374, 233.6221
972.9196, 248.9453
973.4017, 240.3066
973.8838, 220.9502
974.3659, 177.9639
974.8480, 140.8770
975.3301, 146.2109
975.8123, 178.9951
976.2944, 187.8652
976.7765, 152.7637
977.2586, 131.4150
977.7407, 144.6934
978.2228, 161.4033
978.7050, 171.2148
979.1871, 175.4961
979.6692, 176.1270
980.1513, 173.0488
980.6334, 164.9531
981.1155, 150.3730
981.5977, 134.5664
982.0798, 109.1348
982.5619, 93.14355
983.0440, 106.2598
983.5261, 130.7783
984.0082, 149.8809
984.4904, 161.6895
984.9725, 167.3691
985.4546, 165.4004
985.9367, 162.4619
986.4188, 164.9658
986.9009, 162.6592
987.3831, 148.6045
987.8652, 127.0527
988.3473, 100.2012
988.8294, 70.79102
989.3115, 44.83301
989.7936, 19.82812
990.2758, 11.28516
990.7579, 38.33203
991.2400, 70.06250
991.7221, 95.06445
992.2042, 107.6777
992.6863, 94.63184
993.1685, 62.88965
993.6506, 44.60938
994.1327, 56.42969
994.6148, 65.13184
995.0969, 50.66797
995.5790, 32.16797
996.0612, 26.21973
996.5433, 26.43262
997.0254, 26.40527
997.5075, 25.44336
997.9896, 26.38184
998.4717, 33.46191
998.9539, 32.49707
999.4360, 7.533203
999.9181, 17.84570
1000.400, 30.25977
1000.882, 30.98340
1001.364, 15.92773
1001.847, 9.027344
1002.329, 20.72461
1002.811, 4.297852
1003.293, 5.875977
1003.775, 19.69922
1004.257, 46.31348
1004.739, 52.45312
1005.221, 42.62598
1005.703, 14.54004
1006.186, 22.94238
1006.668, 40.20898
1007.150, 21.28809
1007.632, 1.500977
1008.114, 0.2216800
1008.596, 0.2197270
1009.078, 14.81445
1009.560, 32.74121
1010.043, 38.49902
1010.525, 34.66895
1011.007, 34.89746
1011.489, 45.49902
1011.971, 52.24609
1012.453, 39.37695
1012.935, 32.94043
1013.417, 53.55957
1013.899, 86.00098
1014.382, 125.5938
1014.864, 160.1035
1015.346, 153.8301
1015.828, 84.14844
1016.310, 29.61133
1016.792, 27.83984
1017.274, 40.22461
1017.756, 60.52441
1018.239, 72.80859
1018.721, 46.04688
1019.203, 0.7597660
1019.685, 5.909180
1020.167, 54.90234
1020.649, 105.5381
1021.131, 113.3574
1021.613, 115.4707
1022.095, 137.1367
1022.578, 154.1982
1023.060, 130.3125
1023.542, 85.55957
1024.024, 76.83301
1024.506, 121.2500
1024.988, 157.1611
1025.470, 177.2959
1025.952, 174.8242
1026.435, 112.2578
1026.917, 57.99707
1027.399, 88.10840
1027.881, 162.4639
1028.363, 187.1943
1028.845, 143.5977
1029.327, 108.6699
1029.809, 92.62988
1030.292, 91.75684
1030.774, 122.8955
1031.256, 152.7393
1031.738, 149.4971
1032.220, 133.1582
1032.702, 146.3535
1033.184, 195.8135
1033.666, 219.6172
1034.148, 185.7949
1034.630, 163.6113
1035.113, 176.1934
1035.595, 190.0898
1036.077, 186.4209
1036.559, 172.8643
1037.041, 160.0527
1037.523, 148.0635
1038.005, 138.2988
1038.487, 131.6523
1038.970, 125.5156
1039.452, 115.3350
1039.934, 113.3203
1040.416, 126.3740
1040.898, 149.4551
1041.380, 188.5508
1041.862, 237.8818
1042.344, 227.8945
1042.826, 102.4531
1043.309, 44.18457
1043.791, 93.09863
1044.273, 147.4385
1044.755, 178.7617
1045.237, 187.3271
1045.719, 165.6201
1046.201, 123.4277
1046.683, 107.0654
1047.166, 124.6172
1047.648, 141.2031
1048.130, 159.4307
1048.612, 166.0635
1049.094, 150.3398
1049.576, 140.8604
1050.058, 167.4238
1050.540, 210.6416
1051.022, 215.2217
1051.505, 176.3467
1051.987, 146.7061
1052.469, 127.3750
1052.951, 110.9746
1053.433, 94.68066
1053.915, 88.28027
1054.397, 99.88281
1054.879, 119.9209
1055.361, 130.0029
1055.844, 131.4805
1056.326, 142.5537
1056.808, 163.2207
1057.290, 176.6504
1057.772, 179.2627
1058.254, 178.0371
1058.736, 177.3545
1059.218, 173.4609
1059.701, 157.4512
1060.183, 135.0459
1060.665, 131.3252
1061.147, 141.5342
1061.629, 136.8994
1062.111, 117.1592
1062.593, 110.9316
1063.075, 128.8682
1063.557, 152.9189
1064.040, 166.0586
1064.522, 170.8779
1065.004, 171.8301
1065.486, 170.5410
1065.968, 171.4297
1066.450, 173.5996
1066.932, 174.1641
1067.414, 171.5664
1067.896, 160.1650
1068.379, 132.3770
1068.861, 108.6123
1069.343, 122.5820
1069.825, 147.4883
1070.307, 137.5537
1070.789, 109.9473
1071.271, 104.9043
1071.753, 122.0850
1072.236, 126.5986
1072.718, 100.6973
1073.200, 74.64941
1073.682, 62.76367
1074.164, 67.93164
1074.646, 114.9639
1075.128, 163.9902
1075.610, 160.7188
1076.093, 117.4717
1076.575, 72.29980
1077.057, 33.99512
1077.539, 31.53809
1078.021, 128.3359
1078.503, 197.1357
1078.985, 145.8789
1079.467, 78.69531
1079.949, 81.96387
1080.432, 122.7773
1080.914, 135.9326
1081.396, 116.1104
1081.878, 112.6436
1082.360, 156.5898
1082.842, 183.3701
1083.324, 175.8037
1083.806, 158.0098
1084.288, 136.3262
1084.771, 113.0859
1085.253, 92.05859
1085.735, 71.96191
1086.217, 44.17773
1086.699, 7.204102
1087.181, 21.75391
1087.663, 21.42090
1088.145, 60.26758
1088.628, 83.60449
1089.110, 88.60449
1089.592, 66.91699
1090.074, 32.72070
1090.556, 16.63672
1091.038, 19.14355
1091.520, 26.84082
1092.002, 40.41211
1092.484, 55.88184
1092.967, 73.66504
1093.449, 87.91406
1093.931, 97.34180
1094.413, 91.13770
1094.895, 49.48438
1095.377, 11.27832
1095.859, 30.83887
1096.341, 10.30957
1096.823, 34.55762
1097.306, 97.84766
1097.788, 137.6738
1098.270, 141.3838
1098.752, 138.1006
1099.234, 151.8379
1099.716, 166.8955
1100.198, 162.0928
1100.680, 139.5615
1101.163, 86.28906
1101.645, 23.67773
1102.127, 8.976563
1102.609, 43.40723
1103.091, 89.53223
1103.573, 128.6396
1104.055, 151.7188
1104.537, 155.3564
1105.020, 148.2432
1105.502, 130.5195
1105.984, 110.9248
1106.466, 96.50000
1106.948, 89.99316
1107.430, 99.72852
1107.912, 125.5518
1108.394, 139.8750
1108.876, 123.4277
1109.359, 105.8252
1109.841, 97.35059
1110.323, 93.15723
1110.805, 91.47070
1111.287, 90.10156
1111.769, 84.24512
1112.251, 77.70410
1112.733, 94.08203
1113.215, 156.1562
1113.698, 178.8838
1114.180, 138.8857
1114.662, 99.96973
1115.144, 71.29004
1115.626, 54.32520
1116.108, 50.20605
1116.590, 58.24805
1117.072, 82.42188
1117.555, 123.1533
1118.037, 127.7412
1118.519, 83.66113
1119.001, 82.91211
1119.483, 146.5703
1119.965, 179.7979
1120.447, 137.8574
1120.929, 85.67676
1121.411, 93.46094
1121.894, 132.4170
1122.376, 119.2490
1122.858, 68.80762
1123.340, 67.01465
1123.822, 105.9150
1124.304, 118.4912
1124.786, 90.79004
1125.268, 70.27539
1125.750, 85.55469
1126.233, 99.65332
1126.715, 51.82812
1127.197, 5.494141
1127.679, 10.94238
1128.161, 61.97949
1128.643, 85.53516
1129.125, 85.57031
1129.607, 97.70703
1130.090, 128.5439
1130.572, 141.6318
1131.054, 108.1191
1131.536, 71.42578
1132.018, 49.56250
1132.500, 37.06543
1132.982, 33.98145
1133.464, 35.40820
1133.947, 35.86230
1134.429, 35.15625
1134.911, 34.50195
1135.393, 30.29688
1135.875, 38.90234
1136.357, 83.81543
1136.839, 108.1299
1137.321, 94.10254
1137.803, 68.16992
1138.286, 36.45020
1138.768, 12.34961
1139.250, 19.67285
1139.732, 54.31543
1140.214, 76.75000
1140.696, 86.26270
1141.178, 88.82324
1141.660, 84.43066
1142.142, 76.45117
1142.625, 65.61133
1143.107, 57.21289
1143.589, 55.21289
1144.071, 59.08203
1144.553, 72.98730
1145.035, 89.69434
1145.517, 85.75488
1145.999, 67.57031
1146.482, 53.64062
1146.964, 48.74902
1147.446, 62.22852
1147.928, 95.60156
1148.410, 119.7285
1148.892, 109.2568
1149.374, 87.32812
1149.856, 69.29102
1150.339, 54.73633
1150.821, 36.43359
1151.303, 25.58496
1151.785, 54.14746
1152.267, 107.7217
1152.749, 112.9463
1153.231, 33.03223
1153.713, 20.99219
1154.195, 5.089844
1154.677, 17.42871
1155.160, 25.60938
1155.642, 37.27246
1156.124, 75.34766
1156.606, 113.8027
1157.088, 109.8701
1157.570, 68.38086
1158.052, 47.30273
1158.534, 52.17773
1159.017, 54.72461
1159.499, 56.26270
1159.981, 31.07520
1160.463, 35.22949
1160.945, 69.06445
1161.427, 11.55566
1161.909, 79.65137
1162.391, 104.1445
1162.874, 83.89453
1163.356, 97.61133
1163.838, 130.1934
1164.320, 129.2471
1164.802, 97.12012
1165.284, 69.69336
1165.766, 57.87207
1166.248, 44.82715
1166.730, 15.99219
1167.213, 9.058594
1167.695, 15.37988
1168.177, 9.539063
1168.659, 19.98633
1169.141, 46.52246
1169.623, 23.96289
1170.105, 27.29199
1170.587, 36.61816
1171.069, 15.44531
1171.552, 48.72461
1172.034, 39.23926
1172.516, 26.13281
1172.998, 8.343750
1173.480, 2.075195
1173.962, 0.5478520
1174.444, 11.81738
1174.926, 36.29980
1175.409, 68.66895
1175.891, 96.28223
1176.373, 120.0498
1176.855, 122.3018
1177.337, 104.3633
1177.819, 82.21191
1178.301, 59.37500
1178.783, 48.94434
1179.266, 57.29102
1179.748, 69.38281
1180.230, 72.07520
1180.712, 63.98535
1181.194, 27.38965
1181.676, 11.43750
1182.158, 5.380859
1182.640, 51.54102
1183.122, 62.81250
1183.604, 39.79004
1184.087, 38.64746
1184.569, 84.85352
1185.051, 114.2695
1185.533, 72.11035
1186.015, 41.80762
1186.497, 73.43457
1186.979, 113.0537
1187.461, 127.8936
1187.944, 124.2969
1188.426, 108.9453
1188.908, 84.80273
1189.390, 70.61621
1189.872, 68.04004
1190.354, 55.41699
1190.836, 24.21777
1191.318, 24.90332
1191.801, 73.92480
1192.283, 119.3252
1192.765, 130.9453
1193.247, 126.0752
1193.729, 137.0576
1194.211, 160.4053
1194.693, 117.2178
1195.175, 38.47559
1195.657, 7.539063
1196.140, 15.87012
1196.622, 18.56836
1197.104, 9.468750
1197.586, 19.70801
1198.068, 49.52148
1198.550, 81.10645
1199.032, 129.1777
1199.514, 150.3965
1199.996, 99.29492
1200.479, 41.60449
1200.961, 17.64844
1201.443, 16.85352
1201.925, 23.74805
1202.407, 36.91211
1202.889, 53.99805
1203.371, 80.45703
1203.853, 87.04102
1204.336, 75.11621
1204.818, 70.14941
1205.300, 77.24121
1205.782, 84.39941
1206.264, 85.31738
1206.746, 78.70898
1207.228, 59.11133
1207.710, 36.89746
1208.193, 43.47266
1208.675, 65.62305
1209.157, 73.53223
1209.639, 67.60938
1210.121, 54.66699
1210.603, 38.97168
1211.085, 28.67773
1211.567, 30.55078
1212.049, 42.72754
1212.531, 77.53711
1213.014, 102.0791
1213.496, 91.43848
1213.978, 72.97754
1214.460, 60.85254
1214.942, 55.68652
1215.424, 64.20898
1215.906, 78.64062
1216.388, 68.71973
1216.871, 25.68164
1217.353, 15.17188
1217.835, 46.37109
1218.317, 70.27344
1218.799, 78.87109
1219.281, 96.32129
1219.763, 135.1387
1220.245, 148.2109
1220.728, 84.39062
1221.210, 3.050781
1221.692, 26.57422
1222.174, 98.29883
1222.656, 98.07520
1223.138, 55.20898
1223.620, 30.89258
1224.102, 27.90723
1224.584, 18.54785
1225.067, 0.4433590
1225.549, 0.0000000E+00
##END=



