##NAMES=Ferrokentbrooksite
##RRUFFID=R110183
##IDEAL CHEMISTRY=Na_15_Ca_6_Fe^2+^_3_Zr^4+^_3_Nb^5+^(Si_25_O_73_)(O,OH,H_2_O)_3_(F,Cl)_2_
##LOCALITY=Poudrette quarry, Mont St-Hilaire, Quebec, Canada
##OWNER=RRUFF
##SOURCE=Donald Doell
##DESCRIPTION=Massive yellowish-gray
##STATUS=The identification of this mineral has been confirmed only by single crystal X-ray diffraction.
##URL=rruff.info/R110183
178.8666, 306.6808
179.3488, 307.9005
179.8309, 309.2132
180.3130, 310.6791
180.7951, 312.3392
181.2772, 314.0816
181.7593, 316.3542
182.2415, 318.4181
182.7236, 319.6058
183.2057, 319.8002
183.6878, 319.4926
184.1699, 319.3639
184.6520, 319.1583
185.1342, 319.8218
185.6163, 322.1611
186.0984, 325.0486
186.5805, 327.2674
187.0626, 328.4449
187.5447, 329.0764
188.0269, 329.9933
188.5090, 331.3387
188.9911, 332.3775
189.4732, 332.5528
189.9553, 332.3724
190.4374, 332.7333
190.9196, 333.9564
191.4017, 335.6805
191.8838, 337.4717
192.3659, 339.3355
192.8480, 341.1105
193.3301, 342.9253
193.8123, 344.6357
194.2944, 345.5959
194.7765, 345.0790
195.2586, 344.4474
195.7407, 345.1685
196.2228, 347.2587
196.7050, 349.6055
197.1871, 351.4335
197.6692, 352.7661
198.1513, 354.1358
198.6334, 355.8594
199.1155, 357.4508
199.5977, 358.5726
200.0798, 359.2151
200.5619, 359.6153
201.0440, 359.8059
201.5261, 359.6602
202.0082, 360.1916
202.4904, 362.0319
202.9725, 364.2572
203.4546, 366.5760
203.9367, 368.8950
204.4188, 371.1276
204.9009, 373.1009
205.3831, 374.6544
205.8652, 376.4381
206.3473, 378.6698
206.8294, 380.9636
207.3115, 383.0832
207.7936, 384.9917
208.2758, 386.8249
208.7579, 388.7696
209.2400, 390.9349
209.7221, 392.9569
210.2042, 394.7633
210.6863, 396.4957
211.1685, 398.1634
211.6506, 399.8087
212.1327, 401.5953
212.6148, 403.8032
213.0969, 406.7245
213.5790, 409.4352
214.0612, 411.9623
214.5433, 414.2758
215.0254, 416.2665
215.5075, 417.9238
215.9896, 419.5531
216.4717, 421.6046
216.9539, 424.4328
217.4360, 426.8353
217.9181, 428.5750
218.4002, 429.9937
218.8823, 431.2925
219.3644, 432.5121
219.8466, 433.9565
220.3287, 436.1712
220.8108, 439.3531
221.2929, 442.2222
221.7750, 444.5399
222.2571, 446.4837
222.7393, 448.3279
223.2214, 450.1603
223.7035, 451.6966
224.1856, 452.1113
224.6677, 451.4846
225.1498, 451.7984
225.6320, 454.1238
226.1141, 457.5674
226.5962, 460.8668
227.0783, 464.0046
227.5604, 466.4484
228.0425, 467.2994
228.5247, 466.9036
229.0068, 466.5255
229.4889, 466.5558
229.9710, 466.9466
230.4531, 467.6786
230.9352, 468.9239
231.4174, 470.1378
231.8995, 470.7102
232.3816, 470.8847
232.8637, 471.3466
233.3458, 472.6671
233.8279, 474.5534
234.3101, 476.1071
234.7922, 477.3210
235.2743, 478.1063
235.7564, 478.1190
236.2385, 477.7274
236.7206, 477.6996
237.2028, 478.6551
237.6849, 480.3316
238.1670, 481.6411
238.6491, 482.5547
239.1312, 483.0813
239.6133, 483.2384
240.0955, 483.0847
240.5776, 482.6762
241.0597, 481.9319
241.5418, 480.9884
242.0239, 480.5503
242.5060, 480.9938
242.9882, 481.4604
243.4703, 481.5844
243.9524, 481.5870
244.4345, 481.8715
244.9166, 482.7552
245.3987, 483.9989
245.8809, 484.4199
246.3630, 483.2113
246.8451, 482.1706
247.3272, 481.8392
247.8093, 481.8341
248.2914, 481.6169
248.7736, 480.8763
249.2557, 479.7859
249.7378, 479.0498
250.2199, 478.6855
250.7020, 478.7218
251.1841, 479.5995
251.6663, 480.7247
252.1484, 481.3195
252.6305, 481.0009
253.1126, 480.1240
253.5947, 479.8061
254.0768, 480.7612
254.5590, 481.4577
255.0411, 481.7121
255.5232, 481.7017
256.0053, 481.4482
256.4874, 480.9691
256.9695, 480.6193
257.4517, 481.2562
257.9338, 484.3019
258.4159, 486.6848
258.8980, 488.2558
259.3801, 489.2130
259.8622, 489.5381
260.3444, 489.2501
260.8265, 488.8799
261.3086, 489.4637
261.7907, 492.1866
262.2728, 493.9937
262.7549, 494.3032
263.2371, 493.9492
263.7192, 493.5507
264.2013, 493.3031
264.6834, 493.4285
265.1655, 494.3130
265.6476, 496.3651
266.1298, 498.2513
266.6119, 499.9525
267.0940, 501.4858
267.5761, 502.7318
268.0582, 503.6975
268.5403, 504.7677
269.0225, 506.5262
269.5046, 509.2809
269.9867, 511.1487
270.4688, 511.1638
270.9509, 510.8487
271.4330, 511.7184
271.9152, 513.8956
272.3973, 516.0829
272.8794, 516.8661
273.3615, 516.1279
273.8436, 516.3796
274.3257, 518.6796
274.8079, 521.2641
275.2900, 522.5528
275.7721, 522.5418
276.2542, 522.4809
276.7363, 523.1871
277.2184, 524.7225
277.7006, 526.7477
278.1827, 530.3815
278.6648, 533.5980
279.1469, 534.5672
279.6290, 533.5274
280.1111, 532.4603
280.5933, 532.4030
281.0754, 533.3078
281.5575, 534.6587
282.0396, 537.0998
282.5217, 539.2078
283.0038, 539.8676
283.4860, 539.3214
283.9681, 538.8279
284.4502, 538.9191
284.9323, 539.4513
285.4144, 540.0555
285.8965, 540.7350
286.3787, 541.4719
286.8608, 541.9865
287.3429, 542.4830
287.8250, 543.8873
288.3071, 546.9733
288.7892, 550.4459
289.2714, 552.3915
289.7535, 552.7004
290.2356, 552.7356
290.7177, 552.7778
291.1998, 553.0118
291.6819, 554.0817
292.1641, 556.4469
292.6462, 559.0612
293.1283, 560.5535
293.6104, 561.0760
294.0925, 562.0123
294.5746, 564.0598
295.0568, 566.8607
295.5389, 569.8354
296.0210, 573.0582
296.5031, 576.0258
296.9852, 577.8679
297.4673, 579.0344
297.9495, 580.8456
298.4316, 584.1376
298.9137, 588.1513
299.3958, 591.7698
299.8779, 594.9157
300.3600, 597.9252
300.8422, 600.9781
301.3243, 604.0440
301.8064, 606.9929
302.2885, 609.5755
302.7706, 612.2824
303.2527, 615.8509
303.7349, 620.3647
304.2170, 624.7438
304.6991, 628.3107
305.1812, 631.5278
305.6633, 634.9980
306.1454, 638.8038
306.6276, 642.8217
307.1097, 647.1979
307.5918, 651.8759
308.0739, 655.9951
308.5560, 659.2139
309.0381, 661.6819
309.5203, 663.3705
310.0024, 664.1680
310.4845, 665.4238
310.9666, 668.5361
311.4487, 673.0575
311.9308, 676.6699
312.4130, 678.4776
312.8951, 679.8677
313.3772, 682.1960
313.8593, 685.3222
314.3414, 688.2908
314.8235, 690.5528
315.3057, 692.3127
315.7878, 694.2597
316.2699, 696.7231
316.7520, 698.6721
317.2341, 699.1094
317.7162, 698.4870
318.1984, 697.6623
318.6805, 696.6366
319.1626, 695.7281
319.6447, 695.5372
320.1268, 696.1869
320.6089, 696.9569
321.0911, 697.6558
321.5732, 698.1650
322.0553, 698.2545
322.5374, 697.7615
323.0195, 697.0323
323.5016, 696.5684
323.9838, 696.3741
324.4659, 695.5978
324.9480, 693.4161
325.4301, 690.8311
325.9122, 689.1608
326.3943, 688.6082
326.8765, 688.1787
327.3586, 687.2200
327.8407, 685.7789
328.3228, 684.1437
328.8049, 682.4071
329.2870, 680.4317
329.7692, 677.8066
330.2513, 674.6262
330.7334, 672.0800
331.2155, 671.4140
331.6976, 671.7415
332.1797, 670.8851
332.6619, 668.3456
333.1440, 665.3889
333.6261, 662.9161
334.1082, 660.8127
334.5903, 658.8547
335.0724, 656.9515
335.5546, 655.1881
336.0367, 653.6957
336.5188, 652.4920
337.0009, 651.4647
337.4830, 650.8107
337.9651, 650.2040
338.4473, 648.9767
338.9294, 646.6218
339.4115, 644.3281
339.8936, 643.2827
340.3757, 643.3010
340.8578, 643.0389
341.3400, 642.0098
341.8221, 640.4147
342.3042, 638.4772
342.7863, 636.0533
343.2684, 634.0178
343.7505, 632.9581
344.2327, 632.5943
344.7148, 632.3275
345.1969, 632.1093
345.6790, 631.7546
346.1611, 630.8759
346.6432, 629.5673
347.1254, 628.4781
347.6075, 627.9025
348.0896, 627.5761
348.5717, 627.3009
349.0538, 627.0714
349.5359, 626.5430
350.0181, 625.1799
350.5002, 623.2772
350.9823, 622.1412
351.4644, 622.6855
351.9465, 623.2993
352.4286, 622.6042
352.9108, 620.9077
353.3929, 619.7773
353.8750, 620.2266
354.3571, 621.4554
354.8392, 621.3531
355.3214, 619.2059
355.8035, 617.5275
356.2856, 617.6378
356.7677, 618.7474
357.2498, 619.4697
357.7319, 619.4051
358.2141, 618.9156
358.6962, 618.4777
359.1783, 618.1350
359.6604, 617.5756
360.1425, 616.5705
360.6246, 615.4523
361.1068, 614.5200
361.5889, 613.7986
362.0710, 613.1899
362.5531, 612.6035
363.0352, 612.0490
363.5173, 611.6677
363.9995, 611.5984
364.4816, 611.5452
364.9637, 611.5801
365.4458, 611.5327
365.9279, 610.8476
366.4100, 609.1107
366.8922, 606.8333
367.3743, 605.7488
367.8564, 606.6339
368.3385, 607.5086
368.8206, 608.2004
369.3027, 608.7188
369.7849, 609.0995
370.2670, 609.3446
370.7491, 609.3668
371.2312, 609.0324
371.7133, 608.2507
372.1954, 607.3334
372.6776, 605.9919
373.1597, 604.7686
373.6418, 604.2311
374.1239, 604.2002
374.6060, 603.8782
375.0881, 602.5529
375.5703, 600.2740
376.0524, 598.5997
376.5345, 597.6907
377.0166, 597.1742
377.4987, 597.2148
377.9808, 597.5369
378.4630, 597.8558
378.9451, 598.0446
379.4272, 597.9744
379.9093, 597.2563
380.3914, 594.9511
380.8735, 593.6008
381.3557, 593.6924
381.8378, 594.3709
382.3199, 595.2128
382.8020, 596.0439
383.2841, 596.6785
383.7662, 596.9425
384.2484, 596.8534
384.7305, 596.2498
385.2126, 594.0912
385.6947, 592.4077
386.1768, 592.0623
386.6589, 592.6794
387.1411, 593.4857
387.6232, 594.0756
388.1053, 594.4275
388.5874, 594.4282
389.0695, 593.8725
389.5516, 593.3430
390.0338, 593.1855
390.5159, 592.9993
390.9980, 592.2250
391.4801, 590.7234
391.9622, 589.3028
392.4443, 589.2083
392.9265, 590.6477
393.4086, 591.3905
393.8907, 590.3779
394.3728, 589.3435
394.8549, 589.5887
395.3370, 590.7853
395.8192, 591.5537
396.3013, 590.7982
396.7834, 588.9459
397.2655, 587.2240
397.7476, 585.3431
398.2297, 584.3652
398.7119, 585.7976
399.1940, 588.1731
399.6761, 589.5663
400.1582, 589.2625
400.6403, 588.3719
401.1224, 587.8883
401.6046, 587.7975
402.0867, 588.0265
402.5688, 588.9109
403.0509, 589.6862
403.5330, 589.2237
404.0151, 587.4867
404.4973, 586.2104
404.9794, 586.2642
405.4615, 587.2382
405.9436, 588.6631
406.4257, 590.5726
406.9078, 592.1650
407.3900, 592.6818
407.8721, 592.2567
408.3542, 591.7656
408.8363, 590.4550
409.3184, 589.8265
409.8005, 591.2520
410.2827, 594.2707
410.7648, 597.3840
411.2469, 600.0661
411.7290, 602.2054
412.2111, 603.3363
412.6932, 602.9203
413.1754, 602.9941
413.6575, 603.7784
414.1396, 605.2792
414.6217, 607.7684
415.1038, 611.1957
415.5859, 614.8079
416.0681, 617.8583
416.5502, 620.2832
417.0323, 622.7689
417.5144, 624.9938
417.9965, 627.5895
418.4786, 631.0322
418.9608, 635.0040
419.4429, 638.8828
419.9250, 642.3344
420.4071, 645.5919
420.8892, 649.3216
421.3713, 653.9578
421.8535, 658.4066
422.3356, 662.2663
422.8177, 666.2146
423.2998, 670.7870
423.7819, 676.0442
424.2640, 681.6192
424.7462, 687.1350
425.2283, 692.5956
425.7104, 698.2600
426.1925, 704.3426
426.6746, 710.4053
427.1567, 716.1750
427.6389, 721.8802
428.1210, 727.7672
428.6031, 733.9175
429.0852, 740.4891
429.5673, 747.8978
430.0494, 756.4382
430.5316, 764.7927
431.0137, 772.3814
431.4958, 779.8223
431.9779, 787.2522
432.4600, 794.7742
432.9421, 802.8053
433.4243, 812.0218
433.9064, 822.0872
434.3885, 831.5361
434.8706, 840.1384
435.3527, 848.5859
435.8348, 857.1123
436.3170, 865.8435
436.7991, 875.1828
437.2812, 885.3798
437.7633, 895.9418
438.2454, 906.5196
438.7275, 917.1256
439.2097, 927.5214
439.6918, 937.4374
440.1739, 947.3018
440.6560, 957.6843
441.1381, 968.5789
441.6202, 979.9281
442.1024, 991.9730
442.5845, 1004.302
443.0666, 1016.673
443.5487, 1028.999
444.0308, 1040.394
444.5129, 1049.969
444.9951, 1057.930
445.4772, 1066.731
445.9593, 1076.942
446.4414, 1087.138
446.9235, 1097.075
447.4056, 1106.679
447.8878, 1115.792
448.3699, 1124.374
448.8520, 1132.711
449.3341, 1141.277
449.8162, 1150.019
450.2983, 1159.115
450.7805, 1169.118
451.2626, 1178.893
451.7447, 1187.744
452.2268, 1195.875
452.7089, 1204.156
453.1910, 1213.259
453.6732, 1222.662
454.1553, 1229.915
454.6374, 1233.304
455.1195, 1237.426
455.6016, 1244.032
456.0837, 1250.916
456.5659, 1256.115
457.0480, 1259.346
457.5301, 1261.732
458.0122, 1264.428
458.4943, 1267.427
458.9764, 1269.940
459.4586, 1271.839
459.9407, 1273.365
460.4228, 1274.913
460.9049, 1276.182
461.3870, 1276.612
461.8691, 1275.934
462.3513, 1274.458
462.8334, 1272.756
463.3155, 1270.789
463.7976, 1267.369
464.2797, 1261.410
464.7618, 1254.676
465.2440, 1249.578
465.7261, 1246.134
466.2082, 1242.319
466.6903, 1237.474
467.1724, 1231.869
467.6545, 1225.830
468.1367, 1219.399
468.6188, 1212.340
469.1009, 1204.432
469.5830, 1195.842
470.0651, 1187.195
470.5472, 1178.219
471.0294, 1169.605
471.5115, 1161.514
471.9936, 1153.896
472.4757, 1146.980
472.9578, 1140.740
473.4399, 1134.196
473.9221, 1126.161
474.4042, 1116.461
474.8863, 1106.216
475.3684, 1094.812
475.8505, 1083.487
476.3326, 1072.680
476.8148, 1062.298
477.2969, 1052.095
477.7790, 1042.012
478.2611, 1032.165
478.7432, 1023.044
479.2253, 1015.088
479.7075, 1006.716
480.1896, 997.5428
480.6717, 988.1292
481.1538, 978.2202
481.6359, 968.2102
482.1180, 959.3536
482.6002, 953.0677
483.0823, 948.3972
483.5644, 942.6015
484.0465, 935.6361
484.5286, 927.7407
485.0107, 917.6308
485.4929, 907.3828
485.9750, 899.8668
486.4571, 896.0123
486.9392, 891.8165
487.4213, 883.8129
487.9034, 873.8619
488.3856, 866.4062
488.8677, 862.2919
489.3498, 859.0635
489.8319, 854.7220
490.3140, 849.3282
490.7961, 844.3461
491.2783, 839.5645
491.7604, 835.3669
492.2425, 832.4539
492.7246, 830.1326
493.2067, 827.0150
493.6888, 822.6277
494.1710, 817.6764
494.6531, 813.2238
495.1352, 809.1188
495.6173, 806.1242
496.0994, 805.5248
496.5815, 804.6274
497.0637, 801.7704
497.5458, 797.6171
498.0279, 793.8407
498.5100, 791.4265
498.9921, 789.7073
499.4742, 786.7961
499.9564, 781.9528
500.4385, 777.8035
500.9206, 774.5937
501.4027, 772.2478
501.8848, 771.4457
502.3669, 771.7714
502.8491, 771.3973
503.3312, 768.6495
503.8133, 764.3943
504.2954, 761.0784
504.7775, 758.9496
505.2596, 756.6324
505.7418, 753.1223
506.2239, 749.2973
506.7060, 746.5352
507.1881, 745.2191
507.6702, 743.6702
508.1523, 740.7005
508.6345, 737.0676
509.1166, 734.0798
509.5987, 731.9207
510.0808, 729.9775
510.5629, 727.7999
511.0450, 725.3968
511.5272, 722.8391
512.0093, 720.5983
512.4914, 717.6548
512.9735, 712.7083
513.4556, 707.2861
513.9377, 703.7034
514.4199, 702.4653
514.9020, 701.6661
515.3841, 698.8146
515.8662, 693.4757
516.3483, 689.1324
516.8304, 686.9699
517.3126, 684.5829
517.7947, 680.9711
518.2768, 676.8271
518.7589, 673.2079
519.2410, 670.5409
519.7231, 668.3757
520.2053, 666.3761
520.6874, 664.6368
521.1695, 661.5258
521.6516, 655.5750
522.1337, 649.8155
522.6158, 646.6794
523.0980, 645.3658
523.5801, 643.5457
524.0622, 639.8578
524.5443, 635.8657
525.0264, 633.6064
525.5085, 632.7041
525.9907, 630.9512
526.4728, 627.3981
526.9549, 623.0486
527.4370, 619.3640
527.9191, 616.4132
528.4012, 613.4420
528.8834, 610.4192
529.3655, 607.3184
529.8476, 603.8330
530.3297, 600.2249
530.8118, 597.3334
531.2939, 595.6522
531.7761, 594.6495
532.2582, 593.0256
532.7403, 590.9158
533.2224, 587.8389
533.7045, 582.7842
534.1866, 577.7722
534.6688, 573.8917
535.1509, 571.1098
535.6330, 568.9856
536.1151, 567.4133
536.5972, 566.0646
537.0793, 563.9611
537.5615, 560.9366
538.0436, 557.8973
538.5257, 555.1199
539.0078, 552.4523
539.4899, 549.8323
539.9720, 547.2422
540.4542, 544.5122
540.9363, 541.3100
541.4184, 538.0585
541.9005, 535.5263
542.3826, 533.6920
542.8647, 531.6316
543.3469, 528.7460
543.8290, 525.4277
544.3111, 522.6577
544.7932, 520.4266
545.2753, 518.6608
545.7574, 517.9772
546.2396, 517.2922
546.7217, 515.6067
547.2038, 512.9667
547.6859, 509.9898
548.1680, 507.0262
548.6501, 504.2049
549.1323, 502.1676
549.6144, 501.6308
550.0965, 500.6526
550.5786, 498.3774
551.0607, 496.1281
551.5428, 495.2395
552.0250, 495.5094
552.5071, 495.3302
552.9892, 493.2496
553.4713, 489.9482
553.9534, 487.2676
554.4355, 485.1997
554.9177, 483.8709
555.3998, 483.7987
555.8819, 484.1683
556.3640, 483.8741
556.8461, 482.8432
557.3282, 481.6254
557.8104, 480.4165
558.2925, 479.1366
558.7746, 477.5056
559.2567, 475.6000
559.7388, 474.2151
560.2209, 473.9727
560.7031, 474.3442
561.1852, 473.6416
561.6673, 470.7669
562.1494, 468.3137
562.6315, 466.6090
563.1136, 465.1068
563.5958, 463.3514
564.0779, 461.3969
564.5600, 459.6656
565.0421, 458.4861
565.5242, 457.6820
566.0063, 456.5633
566.4885, 454.8224
566.9706, 453.6792
567.4527, 454.0583
567.9348, 454.6719
568.4169, 454.8112
568.8990, 454.4047
569.3812, 453.4288
569.8633, 451.6574
570.3454, 449.4286
570.8275, 447.1659
571.3096, 444.8810
571.7917, 442.5850
572.2739, 440.2014
572.7560, 437.9013
573.2381, 436.0720
573.7202, 434.9201
574.2023, 433.3734
574.6844, 430.9853
575.1666, 428.4669
575.6487, 426.2920
576.1308, 424.3980
576.6129, 422.5062
577.0950, 420.4574
577.5771, 418.3732
578.0593, 416.5088
578.5414, 414.8858
579.0235, 413.4210
579.5056, 412.1945
579.9877, 411.0472
580.4698, 409.9463
580.9520, 408.8686
581.4341, 407.7392
581.9162, 406.4557
582.3983, 405.2499
582.8804, 404.7213
583.3625, 404.7438
583.8447, 403.7882
584.3268, 401.0671
584.8089, 398.2779
585.2910, 397.4359
585.7731, 398.3296
586.2552, 398.7521
586.7374, 398.0656
587.2195, 397.3376
587.7016, 397.2336
588.1837, 397.4379
588.6658, 397.3430
589.1479, 396.7783
589.6301, 396.0932
590.1122, 395.7169
590.5943, 395.6820
591.0764, 395.6463
591.5585, 395.5685
592.0406, 395.5368
592.5228, 395.7499
593.0049, 395.9335
593.4870, 395.6128
593.9691, 394.6897
594.4512, 393.9194
594.9333, 394.2788
595.4155, 395.4420
595.8976, 395.8583
596.3797, 395.2544
596.8618, 394.7737
597.3439, 395.2870
597.8260, 396.2998
598.3082, 396.5350
598.7903, 395.5693
599.2724, 394.9044
599.7545, 395.3698
600.2366, 396.1613
600.7188, 396.4188
601.2009, 396.1060
601.6830, 395.5955
602.1651, 395.0930
602.6472, 394.6914
603.1293, 394.7479
603.6115, 395.4228
604.0936, 396.2808
604.5757, 397.3792
605.0578, 398.5462
605.5399, 399.9457
606.0220, 401.3432
606.5042, 402.0665
606.9863, 401.4789
607.4684, 400.4089
607.9505, 400.2531
608.4326, 400.9895
608.9147, 401.7123
609.3969, 402.1953
609.8790, 402.7567
610.3611, 403.0399
610.8432, 403.5658
611.3253, 403.9355
611.8074, 404.1483
612.2896, 404.1773
612.7717, 403.9951
613.2538, 403.6224
613.7359, 402.9915
614.2180, 402.1123
614.7001, 401.2946
615.1823, 400.8658
615.6644, 400.8205
616.1465, 401.3182
616.6286, 403.3726
617.1107, 404.5310
617.5928, 403.4080
618.0750, 401.5831
618.5571, 400.7188
619.0392, 401.1153
619.5213, 401.7914
620.0034, 402.2384
620.4855, 402.3817
620.9677, 401.6612
621.4498, 400.0039
621.9319, 399.4155
622.4140, 401.3195
622.8961, 404.4279
623.3782, 405.9266
623.8604, 405.3250
624.3425, 404.9052
624.8246, 404.9596
625.3067, 405.2370
625.7888, 405.7089
626.2709, 406.2531
626.7531, 406.5887
627.2352, 406.5672
627.7173, 406.4810
628.1994, 406.9201
628.6815, 408.0102
629.1636, 408.9683
629.6458, 410.1758
630.1279, 410.6489
630.6100, 409.2509
631.0921, 407.0269
631.5742, 405.9574
632.0563, 406.8830
632.5385, 407.9565
633.0206, 407.4340
633.5027, 406.2222
633.9848, 406.2687
634.4669, 407.8375
634.9490, 409.7541
635.4312, 411.2923
635.9133, 412.4135
636.3954, 412.9331
636.8775, 412.3192
637.3596, 411.7921
637.8417, 411.4636
638.3239, 411.1738
638.8060, 410.7349
639.2881, 410.2219
639.7702, 409.8965
640.2523, 409.9305
640.7344, 410.1948
641.2166, 410.4070
641.6987, 410.5541
642.1808, 411.0435
642.6629, 412.3302
643.1450, 413.3688
643.6271, 412.8025
644.1093, 411.1153
644.5914, 410.0917
645.0735, 410.2975
645.5556, 410.8477
646.0377, 411.5599
646.5198, 412.2725
647.0020, 412.6510
647.4841, 412.6859
647.9662, 412.8101
648.4483, 413.4455
648.9304, 414.4906
649.4125, 415.2703
649.8947, 415.8382
650.3768, 416.0119
650.8589, 415.3853
651.3410, 414.6720
651.8231, 414.4000
652.3052, 414.5287
652.7874, 414.6419
653.2695, 414.4097
653.7516, 414.1735
654.2337, 414.4048
654.7158, 415.0195
655.1979, 415.6677
655.6801, 416.2711
656.1622, 416.7495
656.6443, 416.9775
657.1264, 416.9335
657.6085, 417.0589
658.0906, 417.3723
658.5728, 417.8063
659.0549, 418.5217
659.5370, 419.2482
660.0191, 419.7355
660.5012, 419.9387
660.9833, 419.9357
661.4655, 419.7662
661.9476, 419.4546
662.4297, 418.9107
662.9118, 418.0185
663.3939, 417.8985
663.8760, 419.3549
664.3582, 421.1766
664.8403, 421.8796
665.3224, 421.5574
665.8045, 421.1523
666.2866, 420.3502
666.7687, 419.9835
667.2509, 420.9139
667.7330, 422.4615
668.2151, 423.4716
668.6972, 423.6685
669.1793, 423.6697
669.6614, 424.1967
670.1436, 424.0533
670.6257, 425.3163
671.1078, 424.0777
671.5899, 423.1911
672.0720, 423.3207
672.5541, 423.8608
673.0363, 424.4810
673.5184, 425.1212
674.0005, 425.5677
674.4826, 425.5303
674.9647, 425.4198
675.4468, 425.5791
675.9290, 426.0044
676.4111, 426.8100
676.8932, 428.0424
677.3753, 429.1354
677.8574, 429.3492
678.3395, 428.6351
678.8217, 428.3314
679.3038, 429.0217
679.7859, 429.3815
680.2680, 428.7596
680.7501, 428.0088
681.2322, 427.9673
681.7144, 428.6570
682.1965, 429.4314
682.6786, 429.7984
683.1607, 430.0428
683.6428, 430.8049
684.1249, 431.9825
684.6071, 432.5836
685.0892, 432.1994
685.5713, 431.5495
686.0534, 431.4511
686.5355, 431.9404
687.0176, 432.3350
687.4998, 432.3450
687.9819, 432.6227
688.4640, 433.9129
688.9461, 435.1825
689.4282, 435.0426
689.9103, 433.5959
690.3925, 432.4596
690.8746, 432.9840
691.3567, 434.5482
691.8388, 435.7538
692.3209, 436.5981
692.8030, 437.2167
693.2852, 437.6581
693.7673, 437.8604
694.2494, 437.6203
694.7315, 436.9867
695.2136, 436.7032
695.6957, 436.9875
696.1779, 437.3964
696.6600, 437.7923
697.1421, 438.2241
697.6242, 438.8078
698.1063, 439.5117
698.5884, 440.0888
699.0706, 440.2599
699.5527, 440.3253
700.0348, 441.4330
700.5169, 443.9002
700.9990, 445.2718
701.4811, 444.5945
701.9633, 443.3701
702.4454, 442.6346
702.9275, 442.3641
703.4096, 442.5854
703.8917, 444.1645
704.3738, 445.0472
704.8560, 443.5747
705.3381, 441.4026
705.8202, 440.7250
706.3023, 441.5391
706.7844, 442.1987
707.2665, 441.5538
707.7487, 440.0578
708.2308, 438.9290
708.7129, 438.2186
709.1950, 437.6500
709.6771, 437.3217
710.1592, 436.9582
710.6414, 436.6011
711.1235, 436.0593
711.6056, 434.7887
712.0877, 432.2455
712.5698, 430.0522
713.0519, 429.3191
713.5341, 429.1856
714.0162, 428.8329
714.4983, 428.1068
714.9804, 426.7859
715.4625, 424.6700
715.9446, 422.3790
716.4268, 421.3469
716.9089, 421.9449
717.3910, 422.1587
717.8731, 422.1977
718.3552, 421.4455
718.8373, 418.8934
719.3195, 415.7121
719.8016, 413.6533
720.2837, 413.1035
720.7658, 412.8040
721.2479, 412.1557
721.7300, 411.4528
722.2122, 411.2854
722.6943, 411.3837
723.1764, 410.6258
723.6585, 408.5083
724.1406, 406.0128
724.6227, 404.7492
725.1049, 404.9051
725.5870, 404.4206
726.0691, 403.0293
726.5512, 401.4218
727.0333, 399.5040
727.5154, 397.6919
727.9976, 396.4902
728.4797, 395.9305
728.9618, 395.4841
729.4439, 395.2265
729.9260, 394.7350
730.4081, 393.4164
730.8903, 391.5868
731.3724, 390.0991
731.8545, 389.1741
732.3366, 388.1671
732.8187, 386.3069
733.3008, 383.7081
733.7830, 381.7767
734.2651, 380.9683
734.7472, 379.8448
735.2293, 377.7048
735.7114, 375.4615
736.1935, 373.7925
736.6757, 372.6114
737.1578, 371.3875
737.6399, 369.8498
738.1220, 368.3676
738.6041, 367.3285
739.0862, 366.4516
739.5684, 365.1962
740.0505, 363.5567
740.5326, 362.1259
741.0147, 361.4051
741.4968, 360.9922
741.9789, 359.5324
742.4611, 356.6079
742.9432, 354.2139
743.4253, 353.0447
743.9074, 351.8000
744.3895, 349.2499
744.8716, 346.2411
745.3538, 344.4940
745.8359, 344.7092
746.3180, 344.7522
746.8001, 343.4809
747.2822, 341.7083
747.7643, 340.4487
748.2465, 339.4681
748.7286, 337.5693
749.2107, 334.2120
749.6928, 330.6382
750.1749, 328.9082
750.6570, 329.1450
751.1392, 328.5429
751.6213, 326.7788
752.1034, 324.9091
752.5855, 323.3963
753.0676, 321.9471
753.5497, 320.1393
754.0319, 317.9520
754.5140, 316.0064
754.9961, 314.4620
755.4782, 313.1853
755.9603, 312.3527
756.4424, 311.6385
756.9246, 310.4058
757.4067, 308.6153
757.8888, 306.9863
758.3709, 306.1646
758.8530, 305.9230
759.3351, 305.5287
759.8173, 304.9809
760.2994, 304.3828
760.7815, 304.0513
761.2636, 303.1245
761.7457, 300.1470
762.2278, 295.8336
762.7100, 293.6195
763.1921, 295.1915
763.6742, 296.3695
764.1563, 296.1917
764.6384, 295.2596
765.1205, 293.5888
765.6027, 291.6241
766.0848, 290.3573
766.5669, 290.2726
767.0490, 290.5639
767.5311, 290.2093
768.0132, 289.2954
768.4954, 288.2474
768.9775, 287.0612
769.4596, 285.9688
769.9417, 285.0644
770.4238, 284.3332
770.9059, 283.7910
771.3881, 283.5391
771.8702, 283.0573
772.3523, 282.2160
772.8344, 281.3032
773.3165, 280.2881
773.7986, 279.3326
774.2808, 278.7393
774.7629, 278.4629
775.2450, 277.9264
775.7271, 276.4421
776.2092, 274.7770
776.6913, 274.1808
777.1735, 274.4294
777.6556, 274.4025
778.1377, 273.8087
778.6198, 274.0882
779.1019, 276.9432
779.5840, 281.3736
780.0662, 282.0271
780.5483, 276.1378
781.0304, 271.7086
781.5125, 268.3963
781.9946, 267.4622
782.4767, 271.6751
782.9589, 278.1868
783.4410, 281.5845
783.9231, 280.2102
784.4052, 277.5053
784.8873, 274.8285
785.3694, 272.4272
785.8516, 270.8644
786.3337, 269.8929
786.8158, 268.5078
787.2979, 266.3184
787.7800, 264.1774
788.2621, 263.2795
788.7443, 263.5845
789.2264, 263.5472
789.7085, 262.9204
790.1906, 262.6555
790.6727, 263.2342
791.1548, 264.0905
791.6370, 264.7481
792.1191, 265.2054
792.6012, 265.4040
793.0833, 264.8035
793.5654, 264.6052
794.0475, 265.4149
794.5297, 266.7372
795.0118, 268.5330
795.4939, 270.3907
795.9760, 271.2643
796.4581, 270.5430
796.9402, 268.8120
797.4224, 266.4975
797.9045, 263.8070
798.3866, 262.2720
798.8687, 262.0887
799.3508, 262.5146
799.8329, 263.3576
800.3151, 264.3069
800.7972, 264.7877
801.2793, 264.7433
801.7614, 264.4442
802.2435, 263.3103
802.7256, 262.6557
803.2078, 263.2513
803.6899, 264.2628
804.1720, 264.8537
804.6541, 264.9461
805.1362, 264.9328
805.6183, 265.0290
806.1005, 265.1083
806.5826, 264.9117
807.0647, 264.6259
807.5468, 264.8850
808.0289, 265.6948
808.5110, 266.0280
808.9932, 265.0876
809.4753, 263.4052
809.9574, 262.4027
810.4395, 262.2342
810.9216, 262.0631
811.4037, 262.0037
811.8859, 261.6799
812.3680, 260.5581
812.8501, 259.2177
813.3322, 258.5013
813.8143, 258.4986
814.2964, 258.7203
814.7786, 259.1931
815.2607, 259.7116
815.7428, 260.5592
816.2249, 261.1844
816.7070, 260.6508
817.1891, 258.9346
817.6713, 256.9153
818.1534, 255.0140
818.6355, 253.6156
819.1176, 253.9841
819.5997, 255.7947
820.0818, 256.3108
820.5640, 254.9292
821.0461, 253.3534
821.5282, 252.8324
822.0103, 252.9339
822.4924, 252.2994
822.9745, 250.1989
823.4567, 248.9835
823.9388, 249.6925
824.4209, 250.0859
824.9030, 249.1432
825.3851, 247.5520
825.8672, 246.0235
826.3494, 244.6843
826.8315, 243.9678
827.3136, 244.8647
827.7957, 245.7222
828.2778, 244.9638
828.7599, 243.2191
829.2421, 241.5274
829.7242, 240.1643
830.2063, 239.1679
830.6884, 238.6250
831.1705, 238.2873
831.6526, 237.4539
832.1348, 236.1040
832.6169, 235.0479
833.0990, 234.4853
833.5811, 233.8465
834.0632, 232.6523
834.5453, 231.2623
835.0275, 230.5165
835.5096, 230.7872
835.9917, 230.5882
836.4738, 229.3876
836.9559, 228.3303
837.4380, 228.0021
837.9202, 227.9343
838.4023, 227.6844
838.8844, 227.1503
839.3665, 226.2785
839.8486, 224.9014
840.3307, 223.3434
840.8129, 221.9318
841.2950, 220.5886
841.7771, 218.9454
842.2592, 217.0926
842.7413, 215.9638
843.2234, 216.2282
843.7056, 217.1077
844.1877, 216.9594
844.6698, 215.6877
845.1519, 214.5810
845.6340, 213.6725
846.1161, 212.9601
846.5983, 212.5744
847.0804, 212.2553
847.5625, 211.5726
848.0446, 210.4901
848.5267, 209.6285
849.0089, 209.1820
849.4910, 208.7401
849.9731, 208.2984
850.4552, 207.7248
850.9373, 206.7849
851.4194, 205.6048
851.9016, 204.5940
852.3837, 203.9438
852.8658, 203.4432
853.3479, 203.0628
853.8300, 202.6201
854.3121, 201.6318
854.7943, 200.2227
855.2764, 199.1297
855.7585, 198.6789
856.2406, 198.4541
856.7227, 197.9550
857.2048, 197.1831
857.6870, 195.9947
858.1691, 194.1704
858.6512, 192.8616
859.1333, 192.5903
859.6154, 192.5359
860.0975, 191.9335
860.5797, 190.9104
861.0618, 190.1886
861.5439, 189.8324
862.0260, 189.6615
862.5081, 190.2500
862.9902, 190.4203
863.4724, 189.0224
863.9545, 186.9057
864.4366, 185.5251
864.9187, 185.2174
865.4008, 185.0332
865.8829, 184.3280
866.3651, 183.4270
866.8472, 182.7056
867.3293, 182.0834
867.8114, 181.3356
868.2935, 180.4212
868.7756, 179.4091
869.2578, 178.3151
869.7399, 177.2838
870.2220, 176.8179
870.7041, 176.9651
871.1862, 176.5840
871.6683, 175.4424
872.1505, 174.2646
872.6326, 173.3985
873.1147, 172.7363
873.5968, 172.0860
874.0789, 171.4212
874.5610, 170.9165
875.0432, 170.5811
875.5253, 170.3881
876.0074, 170.6530
876.4895, 170.8022
876.9716, 170.2446
877.4537, 169.1201
877.9359, 168.0556
878.4180, 167.2436
878.9001, 166.5615
879.3822, 165.9149
879.8643, 165.3683
880.3464, 165.0594
880.8286, 164.9076
881.3107, 164.6804
881.7928, 164.2983
882.2749, 163.8940
882.7570, 163.6615
883.2391, 163.4974
883.7213, 162.9823
884.2034, 162.1497
884.6855, 161.6286
885.1676, 161.6087
885.6497, 161.5881
886.1318, 161.1368
886.6140, 160.4237
887.0961, 160.0683
887.5782, 160.3873
888.0603, 160.2183
888.5424, 159.0084
889.0245, 158.0659
889.5067, 158.3022
889.9888, 158.8438
890.4709, 158.6205
890.9530, 157.5955
891.4351, 156.6815
891.9172, 156.0724
892.3994, 155.5949
892.8815, 155.1764
893.3636, 154.8575
893.8457, 154.6964
894.3278, 154.6725
894.8099, 154.7595
895.2921, 154.9709
895.7742, 155.0814
896.2563, 154.7290
896.7384, 154.2124
897.2205, 154.1506
897.7026, 154.4226
898.1848, 154.3929
898.6669, 153.8808
899.1490, 153.4153
899.6311, 153.5757
900.1132, 153.1640
900.5953, 152.8543
901.0775, 152.9342
901.5596, 152.3435
902.0417, 152.3750
902.5238, 152.6540
903.0059, 153.0637
903.4880, 153.4742
903.9702, 153.6424
904.4523, 153.5999
904.9344, 153.1740
905.4165, 151.4381
905.8986, 150.5196
906.3807, 151.6209
906.8629, 153.1428
907.3450, 153.8479
907.8271, 153.7305
908.3092, 153.1037
908.7913, 151.5979
909.2734, 150.5218
909.7556, 150.9335
910.2377, 151.6094
910.7198, 151.2611
911.2019, 150.3745
911.6840, 150.1134
912.1661, 150.7869
912.6483, 151.6732
913.1304, 152.2238
913.6125, 152.5760
914.0946, 153.1024
914.5767, 153.6114
915.0588, 153.2442
915.5410, 151.9704
916.0231, 151.0058
916.5052, 151.1297
916.9873, 151.9304
917.4694, 152.7340
917.9515, 153.5562
918.4337, 153.8921
918.9158, 153.6391
919.3979, 153.3414
919.8800, 153.1127
920.3621, 153.0653
920.8442, 153.4362
921.3264, 154.1454
921.8085, 154.3220
922.2906, 153.4267
922.7727, 152.8831
923.2548, 152.8579
923.7369, 153.0665
924.2191, 153.5511
924.7012, 154.1093
925.1833, 154.3901
925.6654, 154.3383
926.1475, 154.4475
926.6296, 154.9460
927.1118, 155.5437
927.5939, 156.3648
928.0760, 157.0202
928.5581, 156.8225
929.0402, 156.0535
929.5223, 155.7837
930.0045, 156.5417
930.4866, 157.4973
930.9687, 157.9733
931.4508, 158.1198
931.9329, 158.1396
932.4150, 158.0392
932.8972, 157.7026
933.3793, 157.1412
933.8614, 156.7340
934.3435, 156.8284
934.8256, 157.2702
935.3077, 157.6753
935.7899, 158.0563
936.2720, 158.7001
936.7541, 159.6775
937.2362, 160.4055
937.7183, 160.6020
938.2004, 160.3578
938.6826, 159.6726
939.1647, 158.5171
939.6468, 158.3739
940.1289, 159.7175
940.6110, 160.9343
941.0931, 161.8401
941.5753, 162.3825
942.0574, 162.3411
942.5395, 161.9380
943.0216, 161.7861
943.5037, 161.9671
943.9858, 162.1536
944.4680, 162.1181
944.9501, 162.3298
945.4322, 163.2911
945.9143, 164.3532
946.3964, 164.7714
946.8785, 164.6275
947.3607, 164.6124
947.8428, 165.0334
948.3249, 165.4518
948.8070, 165.5650
949.2891, 165.6223
949.7712, 165.7808
950.2534, 166.0908
950.7355, 166.6958
951.2176, 167.5787
951.6997, 168.3311
952.1818, 168.4590
952.6639, 168.5243
953.1461, 169.5749
953.6282, 171.0840
954.1103, 171.7297
954.5924, 171.4688
955.0745, 171.0090
955.5566, 170.6908
956.0388, 170.7254
956.5209, 171.6377
957.0030, 173.1386
957.4851, 173.5638
957.9672, 172.9247
958.4493, 172.6645
958.9315, 173.1101
959.4136, 174.0256
959.8957, 175.3573
960.3778, 176.8041
960.8599, 177.5201
961.3420, 177.2949
961.8242, 177.3969
962.3063, 177.8791
962.7884, 178.5735
963.2705, 179.5510
963.7526, 180.5552
964.2347, 181.3396
964.7169, 181.9206
965.1990, 182.4274
965.6811, 182.6312
966.1632, 183.1150
966.6453, 184.0235
967.1274, 185.0457
967.6096, 186.1839
968.0917, 187.2914
968.5738, 188.1216
969.0559, 188.6863
969.5380, 189.4013
970.0201, 190.7210
970.5023, 191.7445
970.9844, 192.0423
971.4665, 192.0248
971.9486, 191.6710
972.4307, 191.3769
972.9128, 191.9772
973.3950, 193.6647
973.8771, 195.2251
974.3592, 195.7680
974.8413, 196.0629
975.3234, 196.6568
975.8055, 197.5132
976.2877, 198.7396
976.7698, 200.1740
977.2519, 201.2877
977.7340, 201.8268
978.2161, 202.1822
978.6982, 202.6830
979.1804, 203.3344
979.6625, 204.1824
980.1446, 205.1840
980.6267, 206.2142
981.1088, 207.2410
981.5909, 208.3448
982.0731, 209.6138
982.5552, 210.7911
983.0373, 211.2347
983.5194, 211.1029
984.0015, 211.6392
984.4836, 212.8802
984.9658, 214.0446
985.4479, 214.8836
985.9300, 215.6446
986.4121, 216.5972
986.8942, 217.5881
987.3763, 217.9038
987.8585, 217.3269
988.3406, 217.6111
988.8227, 219.1247
989.3048, 220.5559
989.7869, 221.4153
990.2690, 221.8465
990.7512, 221.9272
991.2333, 221.7003
991.7154, 221.6881
992.1975, 221.7387
992.6796, 222.3577
993.1617, 224.0833
993.6439, 225.6799
994.1260, 226.5538
994.6081, 226.9789
995.0902, 227.2255
995.5723, 227.2744
996.0544, 227.7174
996.5366, 228.9360
997.0187, 230.0389
997.5008, 231.1234
997.9829, 231.8101
998.4650, 231.5642
998.9471, 230.8938
999.4293, 230.7294
999.9114, 231.2247
1000.393, 231.4616
1000.876, 230.8420
1001.358, 230.3548
1001.840, 230.3456
1002.322, 230.7049
1002.804, 231.6826
1003.286, 232.8580
1003.768, 233.2567
1004.250, 232.5648
1004.733, 231.9798
1005.215, 232.1996
1005.697, 232.7032
1006.179, 233.2185
1006.661, 233.7113
1007.143, 234.2404
1007.625, 234.7173
1008.107, 234.8509
1008.589, 234.4941
1009.072, 234.1020
1009.554, 234.1030
1010.036, 234.2376
1010.518, 234.2332
1011.000, 234.1074
1011.482, 233.8793
1011.964, 233.5813
1012.446, 233.2945
1012.929, 233.0526
1013.411, 232.9167
1013.893, 233.0063
1014.375, 233.2307
1014.857, 233.4944
1015.339, 233.7262
1015.821, 233.6328
1016.303, 233.1965
1016.785, 232.8696
1017.268, 233.0013
1017.750, 233.1432
1018.232, 232.3104
1018.714, 232.1316
1019.196, 231.7776
1019.678, 230.8411
1020.160, 230.8079
1020.642, 229.9144
1021.125, 228.9206
1021.607, 228.3977
1022.089, 228.3024
1022.571, 228.7104
1023.053, 229.5727
1023.535, 229.8061
1024.017, 229.3477
1024.499, 228.8740
1024.981, 228.5761
1025.464, 228.5196
1025.946, 228.8682
1026.428, 229.3187
1026.910, 228.7306
1027.392, 226.9149
1027.874, 225.9574
1028.356, 226.0915
1028.838, 226.2846
1029.321, 226.1793
1029.803, 226.0232
1030.285, 226.0797
1030.767, 226.2731
1031.249, 226.2658
1031.731, 226.0248
1032.213, 225.7274
1032.695, 225.4792
1033.177, 224.8402
1033.660, 223.3079
1034.142, 221.8940
1034.624, 221.7552
1035.106, 222.6666
1035.588, 223.2475
1036.070, 223.4465
1036.552, 223.4348
1037.034, 223.1747
1037.516, 222.7710
1037.999, 222.2013
1038.481, 221.5707
1038.963, 220.9378
1039.445, 220.3289
1039.927, 219.9533
1040.409, 220.1240
1040.891, 219.9751
1041.373, 219.3342
1041.855, 218.5919
1042.338, 217.4165
1042.820, 216.5578
1043.302, 217.1631
1043.784, 218.9615
1044.266, 219.8661
1044.748, 219.5818
1045.230, 218.7967
1045.712, 216.8534
1046.195, 215.2489
1046.677, 214.7098
1047.159, 214.7041
1047.641, 214.7943
1048.123, 214.9117
1048.605, 214.7879
1049.087, 214.0492
1049.569, 213.6954
1050.052, 214.1874
1050.534, 214.7161
1051.016, 214.6972
1051.498, 214.6719
1051.980, 215.5042
1052.462, 216.9947
1052.944, 217.7600
1053.426, 217.1319
1053.908, 216.6374
1054.391, 216.5566
1054.873, 216.7594
1055.355, 217.4199
1055.837, 218.1618
1056.319, 218.5752
1056.801, 218.6684
1057.283, 218.6492
1057.765, 218.3299
1058.248, 218.4660
1058.730, 219.8650
1059.212, 221.1122
1059.694, 221.1301
1060.176, 220.7716
1060.658, 221.1866
1061.140, 222.2282
1061.622, 222.7405
1062.104, 222.0758
1062.587, 221.8313
1063.069, 223.0920
1063.551, 224.3521
1064.033, 224.6554
1064.515, 224.5343
1064.997, 224.4889
1065.479, 224.6416
1065.961, 225.1485
1066.443, 226.1720
1066.926, 227.1184
1067.408, 227.9712
1067.890, 228.4176
1068.372, 227.9890
1068.854, 227.2566
1069.336, 226.7763
1069.818, 226.6004
1070.300, 226.5858
1070.782, 226.6573
1071.265, 227.0618
1071.747, 228.3036
1072.229, 229.4546
1072.711, 229.8364
1073.193, 229.9255
1073.675, 230.3756
1074.157, 230.9968
1074.639, 230.9591
1075.122, 229.8890
1075.604, 229.2988
1076.086, 230.3836
1076.568, 231.5508
1077.050, 231.6516
1077.532, 231.5374
1078.014, 232.2007
1078.496, 233.4115
1078.979, 234.3905
1079.461, 234.9348
1079.943, 235.3315
1080.425, 235.5319
1080.907, 235.8329
1081.389, 236.6077
1081.871, 237.3781
1082.353, 237.5050
1082.835, 237.3153
1083.318, 237.6105
1083.800, 238.5645
1084.282, 239.4946
1084.764, 239.9653
1085.246, 240.5247
1085.728, 241.6681
1086.210, 242.8144
1086.692, 243.2231
1087.175, 243.3580
1087.657, 244.2055
1088.139, 245.8826
1088.621, 247.3375
1089.103, 247.9135
1089.585, 248.5184
1090.067, 249.8353
1090.549, 251.0385
1091.031, 251.2738
1091.514, 251.0801
1091.996, 251.1951
1092.478, 251.7609
1092.960, 252.8115
1093.442, 254.7180
1093.924, 256.4322
1094.406, 257.6071
1094.888, 258.4348
1095.370, 258.7196
1095.853, 258.9471
1096.335, 260.0074
1096.817, 261.6700
1097.299, 262.3327
1097.781, 260.8387
1098.263, 260.2310
1098.745, 262.0801
1099.227, 264.3430
1099.709, 266.4195
1100.192, 268.0086
1100.674, 268.4808
1101.156, 268.2415
1101.638, 268.7049
1102.120, 270.4025
1102.602, 271.7835
1103.084, 271.9218
1103.566, 272.3791
1104.049, 274.0965
1104.531, 276.0954
1105.013, 277.4474
1105.495, 278.4332
1105.977, 279.8916
1106.459, 282.0263
1106.941, 283.9414
1107.423, 285.3380
1107.906, 286.7109
1108.388, 288.3740
1108.870, 289.8608
1109.352, 290.4822
1109.834, 290.8823
1110.316, 292.4076
1110.798, 295.2284
1111.280, 297.1162
1111.762, 297.0157
1112.245, 297.3223
1112.727, 298.4110
1113.209, 299.8802
1113.691, 301.8653
1114.173, 303.9093
1114.655, 305.2542
1115.137, 307.2271
1115.619, 309.0814
1116.102, 310.3713
1116.584, 312.5963
1117.066, 313.5558
1117.548, 314.5436
1118.030, 315.7740
1118.512, 317.4892
1118.994, 320.2777
1119.476, 323.7049
1119.958, 325.9244
1120.441, 326.2745
1120.923, 327.5960
1121.405, 330.4950
1121.887, 332.9890
1122.369, 334.3065
1122.851, 335.5881
1123.333, 337.7852
1123.815, 340.4160
1124.297, 342.3969
1124.780, 343.6669
1125.262, 345.0226
1125.744, 346.4734
1126.226, 347.9243
1126.708, 349.2771
1127.190, 350.8659
1127.672, 352.7986
1128.154, 355.3181
1128.636, 359.0490
1129.119, 363.6677
1129.601, 366.1708
1130.083, 366.3329
1130.565, 366.9484
1131.047, 368.2851
1131.529, 370.1083
1132.011, 372.3281
1132.493, 374.9528
1132.976, 378.0818
1133.458, 381.4323
1133.940, 384.0707
1134.422, 386.9617
1134.904, 389.7365
1135.386, 392.0217
1135.868, 394.8369
1136.350, 396.8962
1136.833, 398.9762
1137.315, 401.6534
1137.797, 404.5688
1138.279, 407.1838
1138.761, 409.5172
1139.243, 411.4534
1139.725, 413.1400
1140.207, 415.0767
1140.689, 417.4113
1141.172, 420.6138
1141.654, 424.8947
1142.136, 428.7781
1142.618, 430.1806
1143.100, 430.7305
1143.582, 433.3731
1144.064, 437.1700
1144.546, 440.0370
1145.029, 442.2004
1145.511, 445.0687
1145.993, 449.0211
1146.475, 453.3750
1146.957, 457.9609
1147.439, 462.0084
1147.921, 464.4001
1148.403, 466.1275
1148.885, 468.0329
1149.368, 470.3104
1149.850, 473.2548
1150.332, 476.7589
1150.814, 480.3495
1151.296, 483.8022
1151.778, 487.3578
1152.260, 491.0788
1152.742, 495.0140
1153.224, 499.6754
1153.707, 504.2275
1154.189, 507.5917
1154.671, 510.1916
1155.153, 513.0650
1155.635, 516.4327
1156.117, 520.1190
1156.599, 524.4807
1157.081, 528.5697
1157.563, 531.8331
1158.046, 535.0188
1158.528, 538.2157
1159.010, 541.8274
1159.492, 546.7238
1159.974, 552.6772
1160.456, 557.7836
1160.938, 561.0091
1161.420, 565.0904
1161.903, 570.7929
1162.385, 576.3937
1162.867, 581.3408
1163.349, 586.1466
1163.831, 591.4568
1164.313, 596.7656
1164.795, 600.4872
1165.277, 602.1653
1165.760, 606.4238
1166.242, 614.2728
1166.724, 621.4677
1167.206, 627.1924
1167.688, 632.6087
1168.170, 638.1833
1168.652, 644.0748
1169.134, 650.6511
1169.616, 657.5303
1170.099, 662.4348
1170.581, 665.3334
1171.063, 669.9064
1171.545, 676.4044
1172.027, 683.2789
1172.509, 690.1105
1172.991, 697.5099
1173.473, 706.1069
1173.956, 714.6875
1174.438, 720.8118
1174.920, 725.3026
1175.402, 730.4467
1175.884, 736.3116
1176.366, 743.1190
1176.848, 750.8250
1177.330, 759.0535
1177.813, 767.6407
1178.295, 776.2178
1178.777, 784.4570
1179.259, 792.6998
1179.741, 801.5200
1180.223, 810.4911
1180.705, 819.0022
1181.187, 827.1075
1181.669, 834.5963
1182.151, 841.6829
1182.634, 849.5328
1183.116, 858.7881
1183.598, 868.2922
1184.080, 876.6840
1184.562, 885.8328
1185.044, 897.3805
1185.526, 909.9742
1186.008, 922.7049
1186.490, 935.1871
1186.973, 946.9650
1187.455, 957.9020
1187.937, 968.4238
1188.419, 977.5677
1188.901, 987.9424
1189.383, 1000.755
1189.865, 1014.155
1190.347, 1027.342
1190.830, 1040.479
1191.312, 1053.710
1191.794, 1067.042
1192.276, 1080.580
1192.758, 1094.274
1193.240, 1108.445
1193.722, 1123.032
1194.204, 1138.369
1194.687, 1154.988
1195.169, 1170.762
1195.651, 1184.121
1196.133, 1196.724
1196.615, 1211.260
1197.097, 1227.460
1197.579, 1243.965
1198.061, 1260.888
1198.543, 1279.029
1199.026, 1298.355
1199.508, 1316.317
1199.990, 1332.071
1200.472, 1348.838
1200.954, 1369.281
1201.436, 1386.110
1201.918, 1408.314
1202.400, 1424.526
1202.883, 1444.209
1203.365, 1466.394
1203.847, 1488.736
1204.329, 1510.900
1204.811, 1533.777
1205.293, 1557.576
1205.775, 1580.795
1206.257, 1602.452
1206.740, 1623.110
1207.222, 1640.766
1207.704, 1659.952
1208.186, 1686.148
1208.668, 1715.821
1209.150, 1744.096
1209.632, 1770.506
1210.114, 1796.424
1210.596, 1821.760
1211.078, 1847.614
1211.561, 1874.438
1212.043, 1901.826
1212.525, 1929.550
1213.007, 1957.945
1213.489, 1987.296
1213.971, 2017.398
1214.453, 2047.870
1214.935, 2078.658
1215.417, 2108.985
1215.900, 2138.451
1216.382, 2168.792
1216.864, 2199.952
1217.346, 2231.976
1217.828, 2265.164
1218.310, 2297.565
1218.792, 2327.708
1219.274, 2357.600
1219.757, 2391.977
1220.239, 2429.507
1220.721, 2464.343
1221.203, 2496.961
1221.685, 2528.327
1222.167, 2559.319
1222.649, 2593.838
1223.131, 2633.037
1223.614, 2672.181
1224.096, 2707.449
1224.578, 2742.020
1225.060, 2778.022
1225.542, 2816.511
1226.024, 2862.425
1226.506, 2909.220
1226.988, 2945.506
1227.470, 2973.159
1227.953, 3001.211
1228.435, 3031.878
1228.917, 3064.773
1229.399, 3100.810
1229.881, 3137.188
1230.363, 3173.847
1230.845, 3210.020
1231.327, 3244.376
1231.810, 3278.685
1232.292, 3315.603
1232.774, 3354.434
1233.256, 3391.914
1233.738, 3427.384
1234.220, 3464.817
1234.702, 3505.941
1235.184, 3542.095
1235.667, 3569.955
1236.149, 3599.629
1236.631, 3636.787
1237.113, 3675.249
1237.595, 3707.588
1238.077, 3735.848
1238.559, 3766.746
1239.041, 3799.630
1239.523, 3831.366
1240.005, 3862.129
1240.488, 3891.932
1240.970, 3921.185
1241.452, 3951.752
1241.934, 3984.824
1242.416, 4018.541
1242.898, 4052.348
1243.380, 4084.738
1243.862, 4113.506
1244.344, 4140.803
1244.827, 4169.165
1245.309, 4198.077
1245.791, 4226.276
1246.273, 4253.720
1246.755, 4281.665
1247.237, 4311.764
1247.719, 4337.782
1248.201, 4355.045
1248.684, 4372.829
1249.166, 4395.315
1249.648, 4417.231
1250.130, 4434.807
1250.612, 4450.833
1251.094, 4469.045
1251.576, 4489.202
1252.058, 4510.042
1252.541, 4532.368
1253.023, 4548.778
1253.505, 4558.572
1253.987, 4569.540
1254.469, 4583.528
1254.951, 4598.337
1255.433, 4612.693
1255.915, 4627.553
1256.397, 4645.351
1256.880, 4662.695
1257.362, 4671.098
1257.844, 4675.017
1258.326, 4682.437
1258.808, 4693.302
1259.290, 4707.196
1259.772, 4722.628
1260.254, 4734.857
1260.737, 4741.645
1261.219, 4747.471
1261.701, 4755.154
1262.183, 4761.866
1262.665, 4765.562
1263.147, 4768.549
1263.629, 4772.275
1264.111, 4776.488
1264.594, 4782.249
1265.076, 4788.331
1265.558, 4787.485
1266.040, 4776.014
1266.522, 4771.570
1267.004, 4777.042
1267.486, 4778.846
1267.968, 4773.572
1268.450, 4768.786
1268.932, 4768.655
1269.415, 4768.487
1269.897, 4762.612
1270.379, 4753.669
1270.861, 4747.008
1271.343, 4742.865
1271.825, 4743.404
1272.307, 4746.782
1272.789, 4748.244
1273.271, 4746.714
1273.754, 4741.590
1274.236, 4732.748
1274.718, 4724.368
1275.200, 4719.830
1275.682, 4715.792
1276.164, 4708.360
1276.646, 4702.813
1277.128, 4706.806
1277.611, 4711.854
1278.093, 4706.750
1278.575, 4694.383
1279.057, 4685.947
1279.539, 4682.504
1280.021, 4679.166
1280.503, 4674.813
1280.985, 4671.120
1281.468, 4669.784
1281.950, 4669.216
1282.432, 4669.094
1282.914, 4666.801
1283.396, 4659.697
1283.878, 4651.480
1284.360, 4649.950
1284.842, 4650.169
1285.324, 4639.087
##END=



