##NAMES=Ferrierite-Mg
##RRUFFID=R070119
##IDEAL CHEMISTRY=[Mg_2_(K,Na)_2_Ca_0.5_](Si_29_Al_7_)O_72_&#183;18H_2_O
##LOCALITY=Libous, Chomutov, Ústí Region, Bohemia (Böhmen; Boehmen), Czech Republic
##OWNER=RRUFF
##SOURCE=Michael Scott
##DESCRIPTION=Radiating aggregate of tan colored fibrous crystals associated with calcite
##STATUS=The identification of this mineral is confirmed by single-crystal X-ray diffraction and chemical analysis.
##URL=rruff.info/R070119
##MEASURED CHEMISTRY=(K_0.84_Ca_0.03_[box]_0.13_)_Σ=1_(Mg_1.60_Fe^2+^_0.40_)_Σ=2_Ca_0.50_(Si_30.10_Al_5.90_)O_72_·22.91H_2_O ; H_2_O estimated by difference
157.8955, 0.0000000E+00
158.3777, 16.17773
158.8598, 0.1630860
159.3419, 25.88184
159.8240, 46.59961
160.3061, 49.34277
160.7882, 31.37695
161.2704, 15.06641
161.7525, 1.060547
162.2346, 10.29492
162.7167, 8.492188
163.1988, 7.343750
163.6809, 28.35352
164.1631, 52.59766
164.6452, 79.32031
165.1273, 107.3320
165.6094, 133.4121
166.0915, 161.0000
166.5736, 192.3672
167.0558, 227.3320
167.5379, 267.4160
168.0200, 322.1797
168.5021, 385.6270
168.9842, 433.7812
169.4663, 436.3223
169.9485, 421.2070
170.4306, 421.7012
170.9127, 457.7227
171.3948, 500.8848
171.8769, 529.4629
172.3590, 543.7930
172.8412, 543.5176
173.3233, 510.5762
173.8054, 464.7266
174.2875, 438.3242
174.7696, 456.8438
175.2517, 493.0547
175.7339, 517.2480
176.2160, 529.9570
176.6981, 530.8535
177.1802, 507.8477
177.6623, 471.8789
178.1444, 450.1523
178.6266, 461.0488
179.1087, 491.9707
179.5908, 525.5918
180.0729, 562.9688
180.5550, 590.5410
181.0371, 586.8730
181.5193, 557.6738
182.0014, 525.5977
182.4835, 489.8867
182.9656, 459.5977
183.4477, 465.9453
183.9299, 518.6816
184.4120, 581.0762
184.8941, 596.0312
185.3762, 569.0703
185.8583, 545.5332
186.3404, 557.7266
186.8226, 596.4004
187.3047, 626.2266
187.7868, 644.5840
188.2689, 650.3359
188.7510, 630.2656
189.2331, 584.5820
189.7153, 552.3105
190.1974, 573.8887
190.6795, 640.5898
191.1616, 680.6953
191.6437, 676.4941
192.1258, 647.1836
192.6080, 638.7637
193.0901, 652.9824
193.5722, 673.0566
194.0543, 685.2949
194.5364, 689.8203
195.0185, 702.8438
195.5007, 736.8359
195.9828, 777.3340
196.4649, 762.6328
196.9470, 683.0137
197.4291, 594.6914
197.9112, 545.0332
198.3934, 535.4531
198.8755, 545.1367
199.3576, 575.9492
199.8397, 623.2129
200.3218, 660.9473
200.8039, 690.6738
201.2861, 706.6758
201.7682, 697.8887
202.2503, 659.8184
202.7324, 625.6973
203.2145, 605.9062
203.6966, 599.4453
204.1788, 582.6738
204.6609, 547.5449
205.1430, 517.4277
205.6251, 528.9043
206.1072, 595.7031
206.5893, 647.0684
207.0715, 658.0742
207.5536, 626.6738
208.0357, 599.5410
208.5178, 574.0449
208.9999, 556.5039
209.4820, 560.9453
209.9642, 597.4902
210.4463, 624.7148
210.9284, 625.1582
211.4105, 593.6680
211.8926, 573.0234
212.3748, 567.5781
212.8569, 568.7578
213.3390, 561.6758
213.8211, 541.4199
214.3032, 524.5859
214.7853, 518.7852
215.2675, 527.0723
215.7496, 527.3105
216.2317, 519.0957
216.7138, 509.3594
217.1959, 513.2520
217.6780, 537.2676
218.1602, 561.5391
218.6423, 578.3379
219.1244, 588.4980
219.6065, 589.3145
220.0886, 577.9160
220.5707, 557.9570
221.0529, 541.4785
221.5350, 531.4590
222.0171, 519.7500
222.4992, 501.1152
222.9813, 468.7773
223.4634, 447.4141
223.9456, 440.4102
224.4277, 444.1582
224.9098, 448.2949
225.3919, 459.3398
225.8740, 461.3613
226.3561, 442.6445
226.8383, 384.0684
227.3204, 350.5703
227.8025, 353.3926
228.2846, 382.1660
228.7667, 401.1133
229.2488, 402.1387
229.7310, 403.4961
230.2131, 416.2617
230.6952, 447.9746
231.1773, 474.7441
231.6594, 500.5645
232.1415, 521.1562
232.6237, 516.3457
233.1058, 471.8047
233.5879, 420.8535
234.0700, 381.0898
234.5521, 349.4551
235.0342, 337.1113
235.5164, 357.3574
235.9985, 400.6543
236.4806, 411.2012
236.9627, 372.0859
237.4448, 321.6562
237.9269, 279.9336
238.4091, 236.9316
238.8912, 224.8730
239.3733, 258.5684
239.8554, 329.7695
240.3375, 383.4336
240.8196, 422.4199
241.3018, 440.3027
241.7839, 429.0352
242.2660, 366.5801
242.7481, 320.7148
243.2302, 301.7832
243.7124, 307.0176
244.1945, 312.6035
244.6766, 312.6738
245.1587, 317.6895
245.6408, 339.6641
246.1229, 401.9785
246.6051, 430.3047
247.0872, 401.8594
247.5693, 325.6309
248.0514, 281.9141
248.5335, 287.2871
249.0156, 305.0879
249.4978, 306.6992
249.9799, 279.4160
250.4620, 264.8047
250.9441, 274.6973
251.4262, 304.9238
251.9083, 314.2754
252.3905, 290.4258
252.8726, 261.5234
253.3547, 249.6738
253.8368, 263.6230
254.3189, 272.9355
254.8010, 272.2070
255.2832, 262.6602
255.7653, 257.5703
256.2474, 259.4609
256.7295, 262.5254
257.2116, 259.4258
257.6937, 241.3828
258.1758, 241.6953
258.6580, 275.3398
259.1401, 335.2891
259.6222, 357.4531
260.1043, 324.3438
260.5865, 279.8789
261.0686, 260.6309
261.5507, 278.9785
262.0328, 284.9102
262.5149, 265.7383
262.9970, 226.8945
263.4792, 208.5859
263.9613, 218.6758
264.4434, 235.5801
264.9255, 244.0176
265.4076, 244.1426
265.8897, 239.9707
266.3719, 228.2832
266.8540, 208.0859
267.3361, 183.1504
267.8182, 150.0234
268.3003, 122.9062
268.7824, 113.9473
269.2646, 127.2793
269.7467, 141.6172
270.2288, 154.9062
270.7109, 167.2988
271.1930, 182.6719
271.6751, 205.4316
272.1573, 220.5195
272.6394, 207.2324
273.1215, 156.0703
273.6036, 141.9668
274.0857, 193.8008
274.5678, 283.4863
275.0500, 300.6387
275.5321, 231.3789
276.0142, 138.4746
276.4963, 55.04883
276.9784, 22.07617
277.4605, 49.83398
277.9427, 7.960938
278.4248, 77.00391
278.9069, 124.3438
279.3890, 127.7188
279.8711, 121.0625
280.3532, 130.8906
280.8354, 157.7109
281.3175, 169.6504
281.7996, 160.6777
282.2817, 135.7480
282.7638, 100.5137
283.2459, 52.86328
283.7281, 15.38867
284.2102, 7.054688
284.6923, 26.07617
285.1744, 47.19727
285.6565, 68.96484
286.1386, 89.75977
286.6208, 105.4512
287.1029, 114.0215
287.5850, 112.0527
288.0671, 89.96875
288.5492, 53.66406
289.0313, 40.64844
289.5135, 59.58398
289.9956, 95.09766
290.4777, 127.9668
290.9598, 155.0547
291.4419, 162.8418
291.9240, 125.0742
292.4062, 59.58789
292.8883, 29.79688
293.3704, 46.29883
293.8525, 85.70898
294.3346, 125.0352
294.8167, 161.4766
295.2989, 182.5352
295.7810, 170.8945
296.2631, 139.5879
296.7452, 119.3945
297.2273, 114.9629
297.7094, 111.9531
298.1916, 88.96680
298.6737, 51.97266
299.1558, 22.10742
299.6379, 18.66406
300.1200, 26.78516
300.6021, 16.50977
301.0843, 18.03320
301.5664, 43.21484
302.0485, 11.52930
302.5306, 56.41797
303.0127, 109.3262
303.4948, 115.0430
303.9770, 97.59180
304.4591, 84.40039
304.9412, 76.97461
305.4233, 68.49023
305.9054, 42.02148
306.3875, 11.92188
306.8697, 3.029297
307.3518, 55.66406
307.8339, 114.8613
308.3160, 128.6777
308.7981, 97.14062
309.2802, 56.12500
309.7624, 20.58203
310.2445, 7.800781
310.7266, 26.78711
311.2087, 30.55273
311.6908, 26.32422
312.1729, 20.49414
312.6551, 10.78516
313.1372, 0.4257810
313.6193, 6.771484
314.1014, 14.42969
314.5835, 25.77148
315.0656, 53.58008
315.5478, 74.49609
316.0299, 74.28516
316.5120, 56.17969
316.9941, 40.27734
317.4762, 34.82031
317.9583, 34.62500
318.4405, 35.19727
318.9226, 29.81836
319.4047, 31.38281
319.8868, 50.93359
320.3690, 82.24414
320.8511, 102.6133
321.3332, 113.9668
321.8153, 107.5234
322.2974, 75.62109
322.7795, 20.49805
323.2617, 84.18555
323.7438, 86.90039
324.2259, 47.29492
324.7080, 10.52734
325.1901, 27.98828
325.6722, 57.75977
326.1544, 73.69727
326.6365, 68.82617
327.1186, 64.03320
327.6007, 51.11133
328.0828, 40.04688
328.5649, 49.86328
329.0471, 119.0527
329.5292, 167.2363
330.0113, 164.6777
330.4934, 90.74414
330.9755, 43.11133
331.4576, 33.26758
331.9398, 41.00391
332.4219, 40.96289
332.9040, 27.18750
333.3861, 16.06250
333.8682, 13.18945
334.3503, 20.10352
334.8325, 18.53906
335.3146, 0.8789060
335.7967, 15.26562
336.2788, 9.064453
336.7609, 30.75586
337.2430, 56.05273
337.7252, 50.79492
338.2073, 19.89062
338.6894, 3.826172
339.1715, 4.808594
339.6536, 14.99023
340.1357, 27.56836
340.6179, 42.64258
341.1000, 66.16797
341.5821, 109.9199
342.0642, 156.2012
342.5463, 143.2520
343.0284, 63.76172
343.5106, 14.08203
343.9927, 43.01758
344.4748, 26.10547
344.9569, 21.63477
345.4390, 115.0859
345.9211, 207.1738
346.4033, 195.9160
346.8854, 89.82812
347.3675, 11.97266
347.8496, 46.48633
348.3317, 31.16016
348.8138, 7.144531
349.2960, 25.77344
349.7781, 51.87305
350.2602, 48.44336
350.7423, 22.22266
351.2244, 2.779297
351.7065, 21.89844
352.1887, 33.13281
352.6708, 25.24023
353.1529, 3.425781
353.6350, 33.12891
354.1171, 50.62891
354.5992, 59.08398
355.0814, 61.45508
355.5635, 51.54883
356.0456, 38.72070
356.5277, 30.66992
357.0098, 27.60938
357.4919, 29.94141
357.9741, 45.50977
358.4562, 62.27148
358.9383, 70.65625
359.4204, 50.51758
359.9025, 40.32812
360.3846, 71.88281
360.8668, 132.3281
361.3489, 169.3633
361.8310, 143.5801
362.3131, 99.92773
362.7952, 66.13672
363.2773, 51.37109
363.7595, 39.73047
364.2416, 20.54883
364.7237, 1.953125
365.2058, 2.361328
365.6879, 49.37109
366.1700, 94.81641
366.6522, 122.9785
367.1343, 132.9629
367.6164, 123.9473
368.0985, 65.49609
368.5806, 2.250000
369.0627, 24.74219
369.5449, 34.96484
370.0270, 95.86914
370.5091, 148.4160
370.9912, 194.8301
371.4733, 203.6738
371.9554, 148.8125
372.4376, 82.10742
372.9197, 55.72852
373.4018, 92.29688
373.8839, 111.1191
374.3660, 93.06055
374.8481, 45.66602
375.3303, 17.42383
375.8124, 12.75977
376.2945, 16.20703
376.7766, 17.79492
377.2587, 17.08203
377.7408, 18.98633
378.2230, 25.05664
378.7051, 32.98438
379.1872, 40.91602
379.6693, 48.91406
380.1514, 50.90234
380.6335, 30.63086
381.1157, 5.482422
381.5978, 1.216797
382.0799, 56.04297
382.5620, 120.3105
383.0442, 118.3047
383.5263, 66.42383
384.0084, 36.68750
384.4905, 89.74414
384.9726, 175.1562
385.4547, 201.8848
385.9369, 171.1094
386.4190, 122.1875
386.9011, 73.03125
387.3832, 31.16992
387.8653, 9.859375
388.3474, 0.5898440
388.8296, 14.01562
389.3117, 88.58203
389.7938, 204.5762
390.2759, 276.6680
390.7580, 216.1953
391.2401, 112.2383
391.7223, 43.04492
392.2044, 34.76953
392.6865, 39.74609
393.1686, 42.75977
393.6507, 43.93164
394.1328, 45.91992
394.6150, 45.41602
395.0971, 49.11523
395.5792, 63.98438
396.0613, 96.16211
396.5434, 114.4668
397.0255, 100.7891
397.5077, 76.78711
397.9898, 66.10547
398.4719, 79.12500
398.9540, 96.28516
399.4361, 119.7188
399.9182, 149.1523
400.4004, 163.3750
400.8825, 155.4688
401.3646, 136.3105
401.8467, 110.2969
402.3288, 66.03711
402.8109, 56.78516
403.2931, 101.2598
403.7752, 175.5195
404.2573, 206.3887
404.7394, 181.7402
405.2215, 146.3945
405.7036, 121.5977
406.1858, 110.5488
406.6679, 102.0918
407.1500, 97.39258
407.6321, 91.23047
408.1142, 63.07227
408.5963, 14.82617
409.0785, 4.857422
409.5606, 89.90625
410.0427, 222.3906
410.5248, 249.7305
411.0069, 171.3418
411.4890, 72.10352
411.9712, 16.10352
412.4533, 2.382813
412.9354, 9.843750
413.4175, 69.79883
413.8996, 130.0879
414.3817, 117.8359
414.8639, 52.96484
415.3460, 12.49805
415.8281, 77.68359
416.3102, 170.2617
416.7923, 209.7695
417.2744, 172.5547
417.7566, 126.3730
418.2387, 100.2188
418.7208, 91.61523
419.2029, 96.70117
419.6850, 138.9766
420.1671, 172.6309
420.6493, 170.1973
421.1314, 128.6699
421.6135, 101.4922
422.0956, 119.5977
422.5777, 144.8535
423.0598, 149.8770
423.5420, 91.20508
424.0241, 60.64258
424.5062, 84.13477
424.9883, 145.3750
425.4704, 179.3672
425.9525, 171.6133
426.4347, 154.3828
426.9168, 144.0332
427.3989, 152.6523
427.8810, 144.8047
428.3631, 103.7910
428.8452, 60.80859
429.3274, 68.49219
429.8095, 144.4922
430.2916, 190.4102
430.7737, 160.1973
431.2558, 71.31250
431.7379, 43.41406
432.2201, 84.71094
432.7022, 143.3574
433.1843, 181.2109
433.6664, 198.1016
434.1485, 189.3203
434.6306, 144.4121
435.1128, 89.26367
435.5949, 64.60156
436.0770, 67.18359
436.5591, 80.14453
437.0412, 99.44336
437.5233, 120.0371
438.0055, 131.8281
438.4876, 132.0332
438.9697, 135.2910
439.4518, 167.3633
439.9339, 210.8398
440.4160, 235.6309
440.8982, 211.2148
441.3803, 181.9648
441.8624, 173.6445
442.3445, 184.2832
442.8266, 191.2109
443.3088, 199.9648
443.7909, 193.3574
444.2730, 155.0859
444.7551, 22.61328
445.2372, 49.17578
445.7194, 18.21875
446.2015, 157.2539
446.6836, 215.2305
447.1657, 102.6484
447.6478, 8.697266
448.1299, 7.998047
448.6121, 65.66992
449.0942, 125.3555
449.5763, 172.0059
450.0584, 202.1445
450.5405, 205.5371
451.0226, 171.4258
451.5048, 155.0137
451.9869, 171.5781
452.4690, 209.2031
452.9511, 229.7305
453.4332, 233.0039
453.9153, 221.4375
454.3975, 177.8184
454.8796, 113.8516
455.3617, 110.7031
455.8438, 187.5918
456.3259, 266.3340
456.8080, 229.5039
457.2902, 111.0078
457.7723, 17.40234
458.2544, 3.597656
458.7365, 21.75391
459.2186, 88.09570
459.7007, 188.6992
460.1829, 253.3320
460.6650, 199.9746
461.1471, 105.4082
461.6292, 46.61328
462.1113, 52.00000
462.5934, 71.62500
463.0756, 95.66016
463.5577, 117.8887
464.0398, 124.9121
464.5219, 78.76172
465.0040, 47.67188
465.4861, 69.20703
465.9683, 158.5000
466.4504, 214.9023
466.9325, 222.5547
467.4146, 204.9414
467.8967, 175.1973
468.3788, 117.9922
468.8610, 75.22852
469.3431, 50.72656
469.8252, 42.87891
470.3073, 55.80859
470.7894, 103.9395
471.2715, 140.6172
471.7537, 131.6523
472.2358, 70.97070
472.7179, 27.87500
473.2000, 2.179688
473.6821, 5.160156
474.1642, 8.011719
474.6464, 39.74219
475.1285, 77.18945
475.6106, 123.5195
476.0927, 167.2949
476.5748, 185.0391
477.0569, 179.4668
477.5391, 168.2012
478.0212, 167.5645
478.5033, 166.4492
478.9854, 145.3945
479.4675, 94.36719
479.9496, 52.93359
480.4318, 54.49219
480.9139, 81.01758
481.3960, 106.0078
481.8781, 125.3301
482.3602, 134.6523
482.8423, 130.6426
483.3245, 112.7637
483.8066, 85.64258
484.2887, 7.330078
484.7708, 50.07617
485.2529, 39.70312
485.7350, 121.5371
486.2172, 213.4551
486.6993, 199.8398
487.1814, 132.3848
487.6635, 105.6855
488.1456, 139.0137
488.6277, 168.1523
489.1099, 170.7188
489.5920, 148.9805
490.0741, 140.7969
490.5562, 148.4512
491.0383, 156.2188
491.5204, 138.1152
492.0026, 100.2480
492.4847, 106.2422
492.9668, 181.4961
493.4489, 268.1953
493.9310, 271.3398
494.4131, 208.5859
494.8953, 151.7695
495.3774, 154.8105
495.8595, 175.4219
496.3416, 154.5312
496.8237, 91.28711
497.3058, 40.16406
497.7880, 45.33984
498.2701, 74.01172
498.7522, 97.31836
499.2343, 108.3691
499.7164, 113.3633
500.1985, 111.7129
500.6807, 103.3066
501.1628, 93.50000
501.6449, 71.66406
502.1270, 59.46094
502.6091, 65.77344
503.0912, 91.72070
503.5734, 117.3770
504.0555, 140.7168
504.5376, 159.8750
505.0197, 173.8145
505.5019, 178.5801
505.9840, 187.9473
506.4661, 211.3828
506.9482, 236.5605
507.4303, 231.5410
507.9124, 194.2773
508.3946, 152.2383
508.8767, 113.3457
509.3588, 80.09766
509.8409, 64.70703
510.3230, 67.74219
510.8051, 78.45312
511.2873, 97.01953
511.7694, 114.6836
512.2515, 110.5234
512.7336, 65.54688
513.2157, 20.95312
513.6978, 10.49609
514.1799, 26.94922
514.6620, 52.19141
515.1442, 85.16797
515.6263, 118.2773
516.1084, 154.6289
516.5905, 199.1445
517.0726, 216.5430
517.5547, 175.8242
518.0369, 116.6641
518.5190, 69.99609
519.0011, 29.79688
519.4832, 12.82031
519.9653, 36.09375
520.4474, 79.78906
520.9296, 87.85547
521.4117, 39.87891
521.8938, 10.77734
522.3759, 41.05078
522.8580, 126.3086
523.3401, 164.0156
523.8223, 149.7852
524.3044, 115.0742
524.7865, 73.92188
525.2686, 31.86719
525.7507, 24.88281
526.2328, 73.49609
526.7150, 128.6055
527.1971, 121.3594
527.6792, 68.20703
528.1613, 18.91016
528.6434, 22.59375
529.1255, 36.32422
529.6077, 17.54297
530.0898, 136.4258
530.5719, 219.0352
531.0540, 196.2695
531.5361, 134.1172
532.0182, 80.97266
532.5004, 31.24219
532.9825, 12.71094
533.4646, 58.09375
533.9467, 130.9961
534.4288, 166.3281
534.9109, 144.9102
535.3931, 115.3633
535.8752, 85.63672
536.3574, 56.84766
536.8395, 40.43359
537.3216, 34.80859
537.8037, 29.21484
538.2858, 13.88281
538.7679, 10.06250
539.2501, 23.35547
539.7322, 24.91016
540.2143, 13.92969
540.6964, 21.98828
541.1785, 73.45703
541.6606, 109.6211
542.1428, 110.5898
542.6249, 92.18359
543.1070, 71.13672
543.5891, 52.70312
544.0712, 43.93359
544.5533, 65.59766
545.0355, 89.19531
545.5176, 91.88281
545.9997, 65.07812
546.4818, 39.65234
546.9639, 14.65234
547.4460, 0.7304690
547.9282, 4.207031
548.4103, 61.36328
548.8924, 97.05469
549.3745, 96.67578
549.8566, 69.85938
550.3387, 48.20703
550.8209, 27.64453
551.3030, 22.90234
551.7851, 50.06641
552.2672, 107.3672
552.7493, 131.9336
553.2314, 121.0195
553.7136, 91.63281
554.1957, 47.23047
554.6778, 3.941406
555.1599, 27.84375
555.6420, 8.035156
556.1241, 22.16797
556.6063, 14.13672
557.0884, 15.03516
557.5705, 21.93359
558.0526, 42.00000
558.5347, 113.0664
559.0168, 152.3164
559.4990, 157.8203
559.9811, 147.6797
560.4632, 104.5195
560.9453, 63.85547
561.4274, 48.71484
561.9095, 79.38672
562.3917, 104.1250
562.8738, 119.9453
563.3559, 131.1328
563.8380, 146.5547
564.3201, 172.9453
564.8022, 184.5078
565.2844, 174.2773
565.7665, 146.2422
566.2486, 107.8984
566.7307, 58.03125
567.2128, 17.82812
567.6949, 3.187500
568.1771, 8.226563
568.6592, 15.80469
569.1413, 25.14062
569.6234, 39.58594
570.1055, 75.97266
570.5876, 116.0742
571.0698, 129.7070
571.5519, 89.96875
572.0340, 52.88281
572.5161, 52.97266
572.9982, 77.44922
573.4803, 99.62109
573.9625, 113.5703
574.4446, 122.2578
574.9267, 127.4492
575.4088, 129.4297
575.8909, 118.1250
576.3730, 72.83203
576.8552, 39.45312
577.3373, 57.44922
577.8194, 151.4727
578.3015, 181.6289
578.7836, 127.4336
579.2657, 41.60938
579.7479, 3.511719
580.2300, 10.46484
580.7121, 15.57422
581.1942, 33.64844
581.6763, 51.12891
582.1584, 43.03516
582.6406, 13.78516
583.1227, 19.14062
583.6048, 58.05859
584.0869, 87.63281
584.5690, 87.45703
585.0511, 54.60156
585.5333, 27.17188
586.0154, 3.347656
586.4975, 0.1601560
586.9796, 33.66797
587.4617, 182.1445
587.9438, 267.6211
588.4260, 251.7930
588.9081, 183.5352
589.3902, 144.3711
589.8723, 143.9883
590.3544, 148.9844
590.8365, 150.9180
591.3187, 151.6484
591.8008, 168.1797
592.2829, 204.1094
592.7650, 211.1055
593.2471, 120.7969
593.7292, 21.81641
594.2114, 78.50391
594.6935, 37.02344
595.1756, 27.02734
595.6577, 55.03516
596.1398, 63.23047
596.6219, 73.06641
597.1041, 94.42578
597.5862, 114.3398
598.0683, 125.2656
598.5504, 132.1328
599.0325, 142.5664
599.5146, 169.0664
599.9968, 187.6719
600.4789, 192.2070
600.9610, 183.0430
601.4431, 165.8789
601.9252, 133.9961
602.4073, 105.8320
602.8895, 95.57812
603.3716, 105.6328
603.8537, 93.79688
604.3358, 52.08984
604.8179, 17.87891
605.3000, 49.57812
605.7822, 128.8828
606.2643, 179.3750
606.7464, 177.4180
607.2285, 153.5469
607.7106, 121.4297
608.1927, 92.63672
608.6749, 94.02344
609.1570, 185.7266
609.6391, 269.0547
610.1212, 277.5742
610.6033, 215.9453
611.0854, 168.6680
611.5676, 156.6016
612.0497, 159.9883
612.5318, 174.2930
613.0139, 210.8125
613.4960, 210.5078
613.9781, 151.9570
614.4603, 85.84766
614.9424, 68.80469
615.4245, 104.1836
615.9066, 142.5781
616.3887, 178.0234
616.8708, 205.6641
617.3530, 212.6367
617.8351, 203.1562
618.3172, 195.4727
618.7993, 203.0195
619.2814, 213.2461
619.7635, 208.7969
620.2457, 193.2227
620.7278, 187.1094
621.2099, 237.7266
621.6920, 272.5820
622.1741, 230.2812
622.6563, 69.23047
623.1384, 25.39453
623.6205, 0.8437500
624.1026, 72.16406
624.5847, 133.3516
625.0668, 186.3281
625.5490, 222.7812
626.0311, 238.1758
626.5132, 241.1133
626.9953, 245.7617
627.4774, 252.0391
627.9595, 255.2656
628.4417, 248.0273
628.9238, 241.6953
629.4059, 268.7109
629.8880, 320.4844
630.3701, 353.7422
630.8522, 318.3359
631.3344, 269.3555
631.8165, 254.2656
632.2986, 277.9062
632.7807, 308.5039
633.2628, 363.0703
633.7449, 401.5469
634.2271, 390.6602
634.7092, 280.2578
635.1913, 208.2695
635.6734, 186.0195
636.1555, 193.0000
636.6376, 207.4414
637.1198, 233.8398
637.6019, 243.9180
638.0840, 227.6250
638.5661, 197.5195
639.0482, 172.4453
639.5303, 154.5352
640.0125, 162.1250
640.4946, 237.6562
640.9767, 325.2695
641.4588, 353.8750
641.9409, 326.2773
642.4230, 282.0508
642.9052, 218.3711
643.3873, 163.3594
643.8694, 137.5195
644.3515, 147.0625
644.8336, 172.5508
645.3157, 231.9102
645.7979, 292.2578
646.2800, 325.5859
646.7621, 317.1602
647.2442, 321.5664
647.7263, 350.6055
648.2084, 384.9297
648.6906, 377.8477
649.1727, 331.1484
649.6548, 309.8320
650.1369, 355.5586
650.6190, 419.7695
651.1011, 406.1211
651.5833, 331.5391
652.0654, 272.6133
652.5475, 306.4180
653.0296, 356.7383
653.5117, 354.5039
653.9938, 295.9531
654.4760, 262.5508
654.9581, 325.6953
655.4402, 387.5039
655.9223, 377.8008
656.4044, 243.4023
656.8865, 183.0859
657.3687, 224.9531
657.8508, 305.5352
658.3329, 361.0508
658.8150, 391.4492
659.2971, 394.8008
659.7793, 365.9805
660.2614, 320.2617
660.7435, 273.7383
661.2256, 230.3164
661.7078, 204.7383
662.1899, 216.5273
662.6720, 237.7344
663.1541, 247.5234
663.6362, 246.5898
664.1183, 239.0391
664.6005, 207.4805
665.0826, 182.1562
665.5647, 180.2383
666.0468, 206.4922
666.5289, 222.7461
667.0110, 224.4062
667.4932, 222.3555
667.9753, 224.7773
668.4574, 233.4570
668.9395, 229.9219
669.4216, 210.7031
669.9037, 191.1406
670.3859, 195.6602
670.8680, 215.4141
671.3501, 214.1797
671.8322, 173.5898
672.3143, 135.9961
672.7964, 152.6250
673.2786, 198.2227
673.7607, 228.5781
674.2428, 206.5430
674.7249, 187.4609
675.2070, 193.2461
675.6891, 218.8594
676.1713, 242.7539
676.6534, 274.1445
677.1355, 288.5977
677.6176, 270.3672
678.0997, 225.0547
678.5818, 211.7227
679.0640, 233.7227
679.5461, 263.6562
680.0282, 294.6641
680.5103, 320.6055
680.9924, 317.7383
681.4745, 284.7891
681.9567, 243.9570
682.4388, 207.7695
682.9209, 171.4648
683.4030, 125.0781
683.8851, 55.29297
684.3672, 14.68359
684.8494, 49.10156
685.3315, 111.8203
685.8136, 142.4414
686.2957, 108.4219
686.7778, 94.10547
687.2599, 117.4141
687.7421, 158.9102
688.2242, 168.8906
688.7063, 143.1484
689.1884, 135.4297
689.6705, 175.7344
690.1526, 237.5586
690.6348, 260.7383
691.1169, 250.6523
691.5990, 234.7500
692.0811, 223.2188
692.5632, 217.0938
693.0453, 219.6133
693.5275, 230.5469
694.0096, 239.4180
694.4917, 253.3086
694.9738, 256.2500
695.4559, 230.7695
695.9380, 164.2891
696.4202, 126.8086
696.9023, 122.0938
697.3844, 140.1758
697.8665, 184.1836
698.3486, 254.2812
698.8307, 289.7031
699.3129, 280.6289
699.7950, 247.5078
700.2771, 195.1953
700.7592, 139.3438
701.2413, 117.3945
701.7234, 159.2344
702.2056, 208.0234
702.6877, 232.9648
703.1698, 237.5820
703.6519, 230.3516
704.1340, 190.7266
704.6161, 165.6523
705.0983, 173.1406
705.5804, 203.1055
706.0625, 213.0273
706.5446, 194.5977
707.0267, 181.3359
707.5089, 188.8398
707.9910, 211.9102
708.4731, 236.9258
708.9552, 262.6016
709.4373, 263.6133
709.9194, 189.7266
710.4016, 97.30859
710.8837, 67.05859
711.3658, 104.8906
711.8479, 136.4492
712.3300, 120.0391
712.8121, 86.48438
713.2943, 53.75000
713.7764, 9.976563
714.2585, 4.699219
714.7406, 60.07422
715.2227, 129.5273
715.7048, 167.5195
716.1870, 170.3594
716.6691, 173.9258
717.1512, 185.0430
717.6333, 189.4492
718.1154, 152.5000
718.5975, 91.03516
719.0797, 57.76172
719.5618, 90.03516
720.0439, 121.3555
720.5260, 81.42578
721.0081, 5.179688
721.4902, 37.13281
721.9724, 13.07812
722.4545, 57.84766
722.9366, 64.33203
723.4187, 44.90234
723.9008, 48.93750
724.3829, 92.62500
724.8651, 116.1211
725.3472, 88.77344
725.8293, 24.30859
726.3114, 19.55078
726.7935, 43.03516
727.2756, 45.57422
727.7578, 17.82422
728.2399, 26.50000
728.7220, 74.36719
729.2041, 124.5078
729.6862, 167.1875
730.1683, 197.7383
730.6505, 219.0898
731.1326, 234.6914
731.6147, 248.6914
732.0968, 240.6836
732.5789, 200.7852
733.0610, 151.7695
733.5432, 110.7969
734.0253, 78.81250
734.5074, 45.07422
734.9895, 7.378906
735.4716, 24.08594
735.9537, 40.19922
736.4359, 39.19531
736.9180, 8.824219
737.4001, 73.76562
737.8822, 133.1445
738.3643, 94.76953
738.8464, 9.996094
739.3286, 49.46094
739.8107, 66.15625
740.2928, 54.01172
740.7749, 4.667969
741.2570, 81.79688
741.7391, 119.0312
742.2213, 111.0000
742.7034, 87.16797
743.1855, 45.01172
743.6676, 3.769531
744.1497, 18.01562
744.6318, 76.15625
745.1140, 119.4883
745.5961, 108.9453
746.0782, 77.67969
746.5603, 42.66406
747.0424, 8.417969
747.5245, 3.992188
748.0067, 5.835938
748.4888, 34.63281
748.9709, 100.1250
749.4530, 199.4844
749.9351, 253.5859
750.4172, 257.8633
750.8994, 227.5156
751.3815, 145.5664
751.8636, 27.50391
752.3457, 8.914063
752.8278, 36.11328
753.3099, 93.14844
753.7921, 112.6562
754.2742, 111.2188
754.7563, 103.2695
755.2384, 89.14062
755.7205, 88.31250
756.2026, 119.6953
756.6848, 148.5586
757.1669, 145.5195
757.6490, 89.56641
758.1311, 59.55078
758.6132, 60.57031
759.0953, 78.73047
759.5775, 108.4688
760.0596, 147.8633
760.5417, 163.1758
761.0238, 146.7422
761.5059, 122.0312
761.9880, 106.5273
762.4702, 101.9297
762.9523, 114.0234
763.4344, 160.9414
763.9165, 192.9062
764.3986, 173.1484
764.8807, 132.1406
765.3629, 117.4297
765.8450, 143.0703
766.3271, 154.1055
766.8092, 141.2461
767.2913, 117.6602
767.7734, 108.9648
768.2556, 115.2422
768.7377, 122.4102
769.2198, 118.9844
769.7019, 114.2500
770.1840, 133.4883
770.6661, 165.9805
771.1483, 184.7461
771.6304, 160.2734
772.1125, 138.1914
772.5946, 143.1758
773.0767, 166.6055
773.5588, 176.6953
774.0410, 165.4258
774.5231, 153.7031
775.0052, 148.4297
775.4873, 146.5195
775.9694, 130.0859
776.4515, 98.94531
776.9337, 77.77734
777.4158, 92.39844
777.8979, 117.5820
778.3800, 102.5234
778.8621, 59.63672
779.3442, 44.58984
779.8264, 136.9375
780.3085, 219.2734
780.7906, 215.8867
781.2727, 123.8086
781.7548, 71.73047
782.2369, 79.47266
782.7191, 92.68359
783.2012, 82.61328
783.6833, 53.56250
784.1655, 48.82812
784.6476, 68.06250
785.1297, 102.5977
785.6118, 171.1797
786.0939, 239.0234
786.5760, 249.8281
787.0582, 200.6953
787.5403, 153.8438
788.0224, 143.4414
788.5045, 140.1211
788.9866, 118.5859
789.4688, 67.50000
789.9509, 66.22266
790.4330, 146.7773
790.9151, 216.3477
791.3972, 184.4336
791.8793, 65.20312
792.3615, 15.44922
792.8436, 42.61328
793.3257, 83.84375
793.8078, 84.66797
794.2899, 68.39062
794.7720, 62.98438
795.2542, 71.85547
795.7363, 88.48828
796.2184, 126.3008
796.7005, 159.8008
797.1826, 164.0352
797.6647, 123.8477
798.1469, 110.4258
798.6290, 137.6289
799.1111, 164.1484
799.5932, 141.6680
800.0753, 81.56250
800.5574, 36.42188
801.0396, 11.18359
801.5217, 13.02344
802.0038, 82.74609
802.4859, 166.7266
802.9680, 201.0547
803.4501, 154.2891
803.9323, 97.08984
804.4144, 15.83594
804.8965, 50.18359
805.3786, 60.39844
805.8607, 4.949219
806.3428, 53.84766
806.8250, 79.26953
807.3071, 87.69922
807.7892, 69.10547
808.2713, 40.02344
808.7534, 61.40234
809.2355, 168.9141
809.7177, 253.8984
810.1998, 199.9023
810.6819, 92.21484
811.1640, 28.63672
811.6461, 92.75781
812.1282, 112.6406
812.6104, 36.75000
813.0925, 47.52734
813.5746, 0.7695310
814.0567, 196.7695
814.5388, 282.4219
815.0209, 194.4531
815.5031, 56.86719
815.9852, 32.17188
816.4673, 80.42578
816.9494, 122.8281
817.4315, 131.3398
817.9136, 138.1211
818.3958, 171.7031
818.8779, 207.8203
819.3600, 207.4219
819.8421, 129.4336
820.3242, 100.0820
820.8063, 157.2695
821.2885, 230.6562
821.7706, 183.6641
822.2527, 34.03516
822.7348, 47.42969
823.2169, 4.960938
823.6990, 72.41016
824.1812, 108.9414
824.6633, 111.7383
825.1454, 90.99609
825.6275, 9.292969
826.1096, 42.45703
826.5917, 35.19141
827.0739, 8.996094
827.5560, 76.21875
828.0381, 180.0820
828.5202, 229.2344
829.0023, 200.9531
829.4844, 146.9180
829.9666, 157.8359
830.4487, 209.1523
830.9308, 224.8789
831.4129, 166.5898
831.8950, 98.40625
832.3771, 52.77734
832.8593, 27.96875
833.3414, 20.22266
833.8235, 44.24219
834.3056, 66.19531
834.7877, 90.47656
835.2698, 106.0781
835.7520, 80.76172
836.2341, 14.59375
836.7162, 1.285156
837.1983, 75.89453
837.6804, 161.8359
838.1625, 154.1406
838.6447, 94.11328
839.1268, 52.56641
839.6089, 61.10156
840.0910, 77.63281
840.5731, 97.08984
841.0552, 121.5000
841.5374, 156.7617
842.0195, 217.0352
842.5016, 241.9375
842.9837, 217.0664
843.4658, 172.3047
843.9479, 139.6797
844.4301, 122.8906
844.9122, 142.3047
845.3943, 220.5703
845.8764, 282.4141
846.3585, 241.2852
846.8406, 163.5352
847.3228, 129.2812
847.8049, 237.0625
848.2870, 268.7227
848.7691, 177.3516
849.2512, 52.92578
849.7333, 4.085938
850.2155, 30.07812
850.6976, 62.28125
851.1797, 94.66797
851.6618, 115.0430
852.1439, 94.86328
852.6260, 59.39453
853.1082, 47.01172
853.5903, 74.17578
854.0724, 105.8008
854.5545, 145.3555
855.0366, 173.7695
855.5187, 168.5742
856.0009, 112.0078
856.4830, 89.25000
856.9651, 113.4141
857.4472, 141.6289
857.9293, 116.9648
858.4114, 59.28125
858.8936, 24.00391
859.3757, 21.55469
859.8578, 28.94922
860.3399, 24.24219
860.8220, 26.00000
861.3041, 56.93359
861.7863, 154.1719
862.2684, 188.2656
862.7505, 125.6758
863.2326, 47.06641
863.7147, 17.77344
864.1968, 31.77344
864.6790, 59.59766
865.1611, 101.3594
865.6432, 132.9531
866.1253, 121.2734
866.6074, 96.35547
867.0895, 94.65625
867.5717, 124.3984
868.0538, 143.6367
868.5359, 132.5625
869.0180, 116.8164
869.5001, 107.7148
869.9822, 105.2070
870.4644, 108.1367
870.9465, 113.9102
871.4286, 127.7109
871.9107, 170.2344
872.3928, 212.1172
872.8749, 186.1914
873.3571, 96.58203
873.8392, 35.80859
874.3213, 75.00781
874.8034, 132.3008
875.2855, 167.4883
875.7676, 180.5664
876.2498, 182.2461
876.7319, 170.4258
877.2140, 153.4609
877.6961, 125.1680
878.1782, 98.28906
878.6603, 124.2344
879.1425, 192.1719
879.6246, 243.5508
880.1067, 232.4414
880.5888, 202.1328
881.0709, 185.4297
881.5530, 180.0938
882.0352, 171.8477
882.5173, 163.0781
882.9994, 145.4805
883.4815, 114.7227
883.9636, 71.50391
884.4457, 13.21094
884.9279, 51.34375
885.4100, 70.85547
885.8921, 14.33984
886.3742, 112.3359
886.8563, 148.2656
887.3384, 137.3477
887.8206, 112.7812
888.3027, 50.14844
888.7848, 18.24609
889.2669, 35.60938
889.7490, 81.29297
890.2311, 123.8789
890.7133, 162.3867
891.1954, 171.9336
891.6775, 140.7578
892.1596, 94.89844
892.6417, 49.12500
893.1238, 13.74219
893.6060, 5.742188
894.0881, 39.67188
894.5702, 84.84766
895.0523, 178.4531
895.5344, 251.0859
896.0165, 206.8242
896.4987, 15.41797
896.9808, 65.73438
897.4629, 1.527344
897.9450, 103.4414
898.4271, 111.9922
898.9092, 71.67578
899.3914, 58.66016
899.8735, 91.52344
900.3556, 121.4375
900.8377, 121.6016
901.3198, 115.2305
901.8019, 120.5000
902.2841, 141.7305
902.7662, 146.1602
903.2483, 129.3242
903.7304, 114.1797
904.2125, 124.4375
904.6946, 153.2305
905.1768, 174.1445
905.6589, 179.7773
906.1410, 163.8633
906.6232, 77.53125
907.1053, 5.437500
907.5874, 8.800781
908.0695, 86.14453
908.5516, 135.1875
909.0338, 149.1172
909.5159, 157.0586
909.9980, 172.1953
910.4801, 190.6172
910.9622, 210.8008
911.4443, 227.9102
911.9265, 219.3828
912.4086, 117.6484
912.8907, 43.73438
913.3728, 91.42188
913.8549, 219.4961
914.3370, 293.9297
914.8192, 294.2031
915.3013, 280.6367
915.7834, 265.8281
916.2655, 242.4414
916.7476, 174.7656
917.2297, 82.51953
917.7119, 43.45312
918.1940, 101.9844
918.6761, 175.1367
919.1582, 231.3438
919.6403, 260.2344
920.1224, 244.8008
920.6046, 138.6758
921.0867, 80.51172
921.5688, 85.10156
922.0509, 117.0977
922.5330, 143.1484
923.0151, 166.3906
923.4973, 182.8906
923.9794, 196.8672
924.4615, 198.9883
924.9436, 162.0352
925.4257, 124.4414
925.9078, 130.0391
926.3900, 204.6797
926.8721, 209.1953
927.3542, 105.8008
927.8363, 4.031250
928.3184, 26.84766
928.8005, 0.5585940
929.2827, 6.410156
929.7648, 3.238281
930.2469, 3.777344
930.7290, 30.61719
931.2111, 71.77344
931.6932, 96.01562
932.1754, 107.2617
932.6575, 134.3047
933.1396, 200.4258
933.6217, 238.1602
934.1038, 217.6328
934.5859, 168.6836
935.0681, 180.4648
935.5502, 238.0898
936.0323, 266.7578
936.5144, 217.7461
936.9965, 163.0234
937.4786, 159.6211
937.9608, 182.1445
938.4429, 188.9609
938.9250, 170.3438
939.4071, 141.8828
939.8892, 91.82422
940.3713, 54.76953
940.8535, 103.8320
941.3356, 208.3516
941.8177, 222.2852
942.2998, 111.2305
942.7819, 17.80859
943.2640, 93.96094
943.7462, 211.6641
944.2283, 240.8555
944.7104, 131.2617
945.1925, 117.4375
945.6746, 253.3789
946.1567, 364.5508
946.6389, 308.2070
947.1210, 138.6523
947.6031, 98.68359
948.0852, 170.4844
948.5673, 219.5859
949.0494, 117.4258
949.5316, 12.56641
950.0137, 5.730469
950.4958, 79.96484
950.9779, 123.0547
951.4600, 118.3945
951.9421, 125.8164
952.4243, 168.7539
952.9064, 219.7305
953.3885, 216.1719
953.8706, 173.4336
954.3527, 138.6836
954.8348, 130.5508
955.3170, 125.7227
955.7991, 93.27734
956.2812, 56.70312
956.7633, 48.00000
957.2454, 82.27734
957.7275, 96.70703
958.2097, 83.45312
958.6918, 68.34766
959.1739, 74.64453
959.6560, 99.53125
960.1381, 159.6641
960.6202, 257.6719
961.1024, 288.3164
961.5845, 90.25391
962.0666, 91.39844
962.5487, 91.84766
963.0308, 79.01562
963.5129, 166.8984
963.9951, 163.0273
964.4772, 135.7031
964.9593, 109.9531
965.4414, 84.29688
965.9235, 82.10156
966.4056, 97.79297
966.8878, 115.0391
967.3699, 133.7383
967.8520, 145.3594
968.3341, 138.0039
968.8162, 127.0195
969.2983, 148.6953
969.7805, 209.0625
970.2626, 214.0430
970.7447, 138.3945
971.2268, 50.75781
971.7089, 43.43750
972.1910, 78.31641
972.6732, 99.50000
973.1553, 82.53906
973.6374, 103.6133
974.1195, 224.6758
974.6016, 332.8633
975.0837, 349.2773
975.5659, 271.2109
976.0480, 222.5117
976.5301, 202.3164
977.0122, 192.0938
977.4943, 185.0625
977.9764, 177.4570
978.4586, 173.8789
978.9407, 169.2344
979.4228, 133.3906
979.9049, 8.886719
980.3870, 48.30859
980.8691, 17.33984
981.3513, 145.2188
981.8334, 212.0352
982.3155, 223.3242
982.7976, 195.1953
983.2797, 107.8477
983.7618, 46.23828
984.2440, 99.02734
984.7261, 192.7930
985.2082, 241.8789
985.6903, 225.2227
986.1724, 208.0859
986.6545, 193.4180
987.1367, 180.7305
987.6188, 167.0234
988.1009, 156.6055
988.5830, 162.2148
989.0651, 183.0391
989.5472, 205.2109
990.0294, 234.1055
990.5115, 249.7734
990.9936, 234.0195
991.4757, 196.1641
991.9578, 170.4297
992.4399, 155.6055
992.9221, 165.8672
993.4042, 215.5547
993.8863, 278.4453
994.3684, 314.6094
994.8505, 332.1680
995.3326, 342.5039
995.8148, 354.3516
996.2969, 349.0664
996.7790, 314.6953
997.2611, 272.6445
997.7432, 241.6133
998.2253, 221.3672
998.7075, 211.5117
999.1896, 212.5781
999.6717, 201.2383
1000.154, 129.4102
1000.636, 58.54297
1001.118, 59.46875
1001.600, 133.2109
1002.082, 156.0469
1002.564, 88.03906
1003.047, 36.35938
1003.529, 42.17188
1004.011, 83.69922
1004.493, 115.7695
1004.975, 136.4492
1005.457, 134.6758
1005.939, 82.53516
1006.421, 45.17188
1006.903, 61.12500
1007.386, 108.1797
1007.868, 163.6094
1008.350, 244.6133
1008.832, 253.7422
1009.314, 173.5781
1009.796, 83.78125
1010.278, 57.37891
1010.760, 69.80469
1011.242, 89.87500
1011.725, 114.3789
1012.207, 131.1797
1012.689, 143.2266
1013.171, 135.0234
1013.653, 82.31250
1014.135, 10.87891
1014.617, 49.83203
1015.099, 187.9531
1015.582, 269.6914
1016.064, 201.3008
1016.546, 118.1328
1017.028, 157.2031
1017.510, 251.6562
1017.992, 304.4688
1018.474, 286.4219
1018.956, 247.7969
1019.438, 176.6562
1019.921, 107.1797
1020.403, 103.4922
1020.885, 139.4961
1021.367, 98.57031
1021.849, 17.82422
1022.331, 87.88281
1022.813, 1.800781
1023.295, 108.0312
1023.778, 157.9453
1024.260, 163.7344
1024.742, 175.7773
1025.224, 194.3672
1025.706, 218.2539
1026.188, 260.7969
1026.670, 279.5430
1027.152, 180.7148
1027.635, 34.45312
1028.117, 42.22656
1028.599, 23.76172
1029.081, 67.90234
1029.563, 71.60547
1030.045, 60.14062
1030.527, 55.66016
1031.009, 54.91797
1031.491, 25.01562
1031.974, 30.30469
1032.456, 58.14062
1032.938, 4.167969
1033.420, 76.70703
1033.902, 121.7656
1034.384, 137.4609
1034.866, 125.3672
1035.348, 75.26953
1035.830, 44.65234
1036.313, 46.53125
1036.795, 70.25781
1037.277, 117.1484
1037.759, 169.9922
1038.241, 196.7812
1038.723, 190.2227
1039.205, 181.7109
1039.687, 186.8672
1040.170, 181.7617
1040.652, 137.3359
1041.134, 61.71484
1041.616, 70.01172
1042.098, 154.0234
1042.580, 218.9453
1043.062, 192.7266
1043.544, 142.0781
1044.026, 97.03906
1044.509, 63.39453
1044.991, 53.51953
1045.473, 76.87891
1045.955, 93.80469
1046.437, 97.48828
1046.919, 97.94531
1047.401, 108.3438
1047.883, 122.1055
1048.365, 126.6289
1048.848, 119.6016
1049.330, 106.7695
1049.812, 89.19922
1050.294, 65.23828
1050.776, 22.37500
1051.258, 27.53906
1051.740, 4.671875
1052.222, 107.0938
1052.705, 167.5117
1053.187, 92.93750
1053.669, 10.49609
1054.151, 22.83984
1054.633, 86.35938
1055.115, 132.2656
1055.597, 144.4141
1056.079, 172.5664
1056.562, 233.9531
1057.044, 280.5938
1057.526, 255.2461
1058.008, 187.5234
1058.490, 109.8281
1058.972, 29.29688
1059.454, 0.2226560
1059.936, 101.0508
1060.418, 184.1523
1060.901, 201.3438
1061.383, 173.2461
1061.865, 158.0352
1062.347, 153.0195
1062.829, 133.4766
1063.311, 75.25391
1063.793, 51.14062
1064.275, 178.6562
1064.757, 328.5000
1065.240, 351.3086
1065.722, 213.5391
1066.204, 122.3711
1066.686, 78.41797
1067.168, 74.50781
1067.650, 145.3477
1068.132, 228.9453
1068.614, 231.0391
1069.097, 172.0039
1069.579, 114.3320
1070.061, 54.55469
1070.543, 34.33203
1071.025, 71.08594
1071.507, 132.9023
1071.989, 175.6641
1072.471, 203.3750
1072.953, 228.6250
1073.436, 253.5391
1073.918, 277.9453
1074.400, 340.0430
1074.882, 366.4805
1075.364, 277.4688
1075.846, 98.51953
1076.328, 28.55469
1076.810, 74.48047
1077.292, 133.1055
1077.775, 174.1719
1078.257, 196.0898
1078.739, 186.1367
1079.221, 160.0938
1079.703, 140.2734
1080.185, 129.4766
1080.667, 131.3398
1081.149, 142.6523
1081.632, 157.1797
1082.114, 175.2070
1082.596, 189.8320
1083.078, 171.1055
1083.560, 127.6445
1084.042, 110.6914
1084.524, 168.2461
1085.006, 228.4258
1085.489, 278.6719
1085.971, 308.4531
1086.453, 300.2656
1086.935, 253.8828
1087.417, 219.9805
1087.899, 209.0859
1088.381, 190.9336
1088.863, 122.2383
1089.345, 49.71875
1089.828, 18.51562
1090.310, 31.08594
1090.792, 12.39844
1091.274, 54.33594
1091.756, 85.73438
1092.238, 37.08594
1092.720, 48.12109
1093.202, 132.5586
1093.685, 200.0000
1094.167, 216.6562
1094.649, 122.5078
1095.131, 75.76172
1095.613, 106.3867
1096.095, 148.3828
1096.577, 139.1875
1097.059, 97.56641
1097.542, 96.83203
1098.024, 133.4531
1098.506, 175.5586
1098.988, 219.0938
1099.470, 249.6641
1099.952, 262.7266
1100.434, 259.1172
1100.916, 231.0547
1101.398, 179.1836
1101.880, 153.7812
1102.363, 166.7383
1102.845, 169.5820
1103.327, 91.07422
1103.809, 7.449219
1104.291, 7.496094
1104.773, 49.64062
1105.255, 82.86328
1105.737, 87.27734
1106.220, 88.60938
1106.702, 98.23438
1107.184, 105.1211
1107.666, 69.26953
1108.148, 26.87109
1108.630, 44.83203
1109.112, 190.5938
1109.594, 271.5742
1110.077, 255.7539
1110.559, 210.6055
1111.041, 186.9453
1111.523, 171.8750
1112.005, 89.04297
1112.487, 34.06250
1112.969, 76.44531
1113.451, 126.0195
1113.933, 282.9414
1114.416, 287.9258
1114.898, 222.2305
1115.380, 187.2305
1115.862, 180.6367
1116.344, 176.7266
1116.826, 173.3828
1117.308, 153.0508
1117.790, 67.00391
1118.272, 6.019531
1118.755, 5.351563
1119.237, 82.19922
1119.719, 135.7812
1120.201, 166.6367
1120.683, 163.1992
1121.165, 110.1641
1121.647, 61.79297
1122.129, 96.61719
1122.612, 161.6641
1123.094, 197.8125
1123.576, 194.7500
1124.058, 148.6328
1124.540, 33.78125
1125.022, 35.89453
1125.504, 4.214844
1125.986, 104.1992
1126.469, 192.9961
1126.951, 260.4766
1127.433, 283.2148
1127.915, 207.3711
1128.397, 153.4570
1128.879, 135.9180
1129.361, 136.9297
1129.843, 150.5469
1130.325, 169.1719
1130.807, 153.7617
1131.290, 108.9531
1131.772, 76.05078
1132.254, 90.84766
1132.736, 104.6289
1133.218, 91.15625
1133.700, 72.26562
1134.182, 98.63672
1134.664, 164.1836
1135.147, 166.0859
1135.629, 84.57422
1136.111, 27.21875
1136.593, 126.7695
1137.075, 234.0352
1137.557, 226.1641
1138.039, 125.8008
1138.521, 49.44531
1139.004, 4.453125
1139.486, 2.726563
1139.968, 84.53125
1140.450, 174.8945
1140.932, 171.5117
1141.414, 129.8828
1141.896, 114.1289
1142.378, 136.6875
1142.860, 164.5078
1143.343, 202.1211
1143.825, 223.1602
1144.307, 204.7500
1144.789, 169.9141
1145.271, 144.1328
1145.753, 130.1211
1146.235, 133.2891
1146.717, 188.9375
1147.199, 207.4922
1147.682, 182.9492
1148.164, 142.6836
1148.646, 82.59766
1149.128, 30.03906
1149.610, 86.06641
1150.092, 232.6523
1150.574, 348.1836
1151.056, 373.6992
1151.539, 368.5078
1152.021, 340.1250
1152.503, 294.8047
1152.985, 233.7617
1153.467, 163.3945
1153.949, 96.21875
1154.431, 35.02344
1154.913, 13.00000
1155.396, 98.05469
1155.878, 168.3359
1156.360, 167.1523
1156.842, 120.0664
1157.324, 90.61719
1157.806, 84.67188
1158.288, 98.16406
1158.770, 146.3320
1159.252, 183.9219
1159.734, 150.4570
1160.217, 123.1211
1160.699, 173.5000
1161.181, 287.7695
1161.663, 321.3281
1162.145, 275.8672
1162.627, 222.0898
1163.109, 176.7656
1163.591, 151.5078
1164.074, 184.6445
1164.556, 225.9453
1165.038, 205.7773
1165.520, 101.7656
1166.002, 84.96094
1166.484, 162.2305
1166.966, 241.2070
1167.448, 279.6406
1167.931, 278.8672
1168.413, 205.4297
1168.895, 100.7812
1169.377, 67.12891
1169.859, 141.9883
1170.341, 179.7383
1170.823, 170.9609
1171.305, 144.2812
1171.787, 80.03125
1172.270, 26.90234
1172.752, 68.67578
1173.234, 181.9883
1173.716, 242.9922
1174.198, 215.1367
1174.680, 200.2344
1175.162, 217.3594
1175.644, 236.4648
1176.126, 206.2305
1176.609, 163.6445
1177.091, 174.0078
1177.573, 241.3477
1178.055, 267.2344
1178.537, 206.4570
1179.019, 170.3320
1179.501, 196.1133
1179.983, 242.0508
1180.466, 251.2969
1180.948, 225.0156
1181.430, 146.6641
1181.912, 3.847656
1182.394, 80.92188
1182.876, 26.65625
1183.358, 51.60547
1183.840, 114.4023
1184.323, 161.8555
1184.805, 197.1797
1185.287, 215.9102
1185.769, 200.9453
1186.251, 121.9102
1186.733, 79.05859
1187.215, 116.3008
1187.697, 161.6172
1188.179, 174.6602
1188.661, 159.1680
1189.144, 150.2461
1189.626, 147.7344
1190.108, 151.2422
1190.590, 167.5234
1191.072, 178.6211
1191.554, 163.8320
1192.036, 162.8008
1192.518, 239.8945
1193.001, 366.1836
1193.483, 343.5039
1193.965, 199.5508
1194.447, 105.6523
1194.929, 210.3086
1195.411, 300.1406
1195.893, 307.1445
1196.375, 271.8242
1196.858, 229.1133
1197.340, 184.4883
1197.822, 175.8008
1198.304, 200.7930
1198.786, 202.0508
1199.268, 94.10938
1199.750, 19.76953
1200.232, 51.51172
1200.714, 135.3281
1201.197, 184.2070
1201.679, 199.7031
1202.161, 189.0781
1202.643, 152.8047
1203.125, 105.3047
1203.607, 2.058594
1204.089, 50.48438
1204.571, 54.79688
1205.053, 235.5195
1205.536, 267.6094
1206.018, 173.7461
1206.500, 122.4766
1206.982, 157.8203
1207.464, 183.4375
1207.946, 113.2734
1208.428, 39.23047
1208.910, 13.52344
1209.393, 28.31641
1209.875, 65.42969
1210.357, 117.9844
1210.839, 124.2695
1211.321, 47.10547
1211.803, 17.11719
1212.285, 14.06250
1212.767, 30.32812
1213.250, 118.7773
1213.732, 234.6953
1214.214, 185.2539
1214.696, 1.296875
1215.178, 100.4219
1215.660, 20.40625
1216.142, 161.6836
1216.624, 244.1172
1217.106, 269.9375
1217.589, 223.9453
1218.071, 112.0000
1218.553, 82.71094
1219.035, 127.7852
1219.517, 173.9180
1219.999, 184.9336
1220.481, 186.9531
1220.963, 192.4180
1221.446, 194.8750
1221.928, 191.6914
1222.410, 182.5742
1222.892, 135.2461
1223.374, 55.41406
1223.856, 1.691406
1224.338, 41.80469
1224.820, 76.98047
1225.302, 19.97656
1225.785, 38.04297
1226.267, 38.51172
1226.749, 233.4297
1227.231, 279.6992
1227.713, 176.3086
1228.195, 69.02344
1228.677, 31.53125
1229.159, 28.07812
1229.641, 61.64453
1230.124, 105.0117
1230.606, 121.3789
1231.088, 113.6016
1231.570, 101.6445
1232.052, 87.62500
1232.534, 79.83203
1233.016, 76.80078
1233.498, 89.98828
1233.981, 131.4492
1234.463, 183.9102
1234.945, 225.3555
1235.427, 253.3867
1235.909, 244.9297
1236.391, 197.1328
1236.873, 164.9141
1237.355, 202.8672
1237.838, 234.1914
1238.320, 232.6602
1238.802, 204.5156
1239.284, 148.9453
1239.766, 76.65234
1240.248, 28.60547
1240.730, 21.42969
1241.212, 27.75391
1241.694, 34.02734
1242.177, 53.09766
1242.659, 97.69922
1243.141, 149.3711
1243.623, 173.8711
1244.105, 169.8125
1244.587, 117.9297
1245.069, 0.7617190
1245.551, 57.32031
1246.033, 23.56250
1246.516, 127.5352
1246.998, 232.3984
1247.480, 317.7695
1247.962, 327.1172
1248.444, 281.6016
1248.926, 224.4883
1249.408, 157.1016
1249.890, 122.0469
1250.373, 143.4648
1250.855, 166.6719
1251.337, 165.9453
1251.819, 155.6758
1252.301, 166.8125
1252.783, 191.7969
1253.265, 217.8516
1253.747, 247.8477
1254.229, 254.6836
1254.712, 231.4219
1255.194, 198.7266
1255.676, 157.8281
1256.158, 124.7148
1256.640, 139.7383
1257.122, 181.6562
1257.604, 214.0859
1258.086, 232.8320
1258.568, 218.4023
1259.051, 152.1836
1259.533, 116.7500
1260.015, 173.9453
1260.497, 256.5352
1260.979, 263.4062
1261.461, 229.6680
1261.943, 215.8594
1262.425, 239.4297
1262.908, 253.8359
1263.390, 263.0195
1263.872, 263.6406
1264.354, 240.7773
1264.836, 223.2969
1265.318, 235.1836
1265.800, 248.7812
1266.282, 208.2148
1266.765, 84.59375
1267.247, 54.36719
1267.729, 122.6680
1268.211, 182.4453
1268.693, 138.8672
1269.175, 89.29297
1269.657, 121.4961
1270.139, 190.0859
1270.621, 211.8008
1271.104, 177.8555
1271.586, 211.4922
1272.068, 309.8320
1272.550, 353.7852
1273.032, 175.8125
1273.514, 31.16797
1273.996, 104.4570
1274.478, 252.8516
1274.960, 323.4062
1275.443, 319.9922
1275.925, 311.5234
1276.407, 299.9414
1276.889, 284.1484
1277.371, 258.6289
1277.853, 235.1602
1278.335, 218.6250
1278.817, 204.7383
1279.300, 189.3555
1279.782, 167.7695
1280.264, 144.0312
1280.746, 118.3086
1281.228, 117.9141
1281.710, 188.1562
1282.192, 235.4688
1282.674, 233.7930
1283.156, 225.5039
1283.639, 278.9297
1284.121, 349.9102
1284.603, 319.4805
1285.085, 210.7188
1285.567, 146.1680
1286.049, 195.5273
1286.531, 231.8516
1287.013, 245.9023
1287.495, 240.3359
1287.978, 200.1484
1288.460, 153.6836
1288.942, 141.4297
1289.424, 158.0742
1289.906, 176.8945
1290.388, 194.5391
1290.870, 220.2773
1291.352, 259.0117
1291.835, 278.2148
1292.317, 217.5078
1292.799, 152.5000
1293.281, 166.4492
1293.763, 230.3477
1294.245, 253.6406
1294.727, 234.0469
1295.209, 186.1250
1295.692, 109.9141
1296.174, 51.81250
1296.656, 58.86719
1297.138, 82.76953
1297.620, 88.80469
1298.102, 94.45312
1298.584, 142.7266
1299.066, 224.3242
1299.548, 240.0039
1300.031, 184.9414
1300.513, 132.1680
1300.995, 138.8125
1301.477, 131.7344
1301.959, 78.28125
1302.441, 14.15234
1302.923, 10.74219
1303.405, 6.375000
1303.887, 3.429688
1304.370, 2.269531
1304.852, 15.07422
1305.334, 84.06250
1305.816, 126.2695
1306.298, 129.1211
1306.780, 109.8086
1307.262, 74.01172
1307.744, 38.09375
1308.227, 27.92969
1308.709, 43.75000
1309.191, 54.11328
1309.673, 48.37500
1310.155, 58.61328
1310.637, 93.82422
1311.119, 117.5391
1311.601, 78.33984
1312.083, 24.35938
1312.566, 0.1484380
1313.048, 0.0000000E+00
##END=



