##NAMES=Fetiasite
##RRUFFID=R100014
##IDEAL CHEMISTRY=(Fe^2+^,Fe^3+^,Ti^4+^)_3_O_2_As^3+^_2_O_5_
##LOCALITY=Gorb, Binnental, Valais, Switzerland
##OWNER=RRUFF
##SOURCE=William Pinch
##DESCRIPTION=Brown to reddish-brown platy massive
##STATUS=The identification of this mineral has been confirmed by single-crystal X-ray diffraction.
##URL=rruff.info/R100014
181.8189, 1.220551
182.3010, 1.924343
182.7831, 2.492409
183.2653, 2.352318
183.7474, 1.430557
184.2295, 0.9138070
184.7116, 1.236847
185.1937, 1.632149
185.6758, 1.938053
186.1580, 2.170654
186.6401, 2.183380
187.1222, 1.974941
187.6043, 1.473660
188.0864, 1.188065
188.5685, 1.382061
189.0507, 1.544216
189.5328, 1.318398
190.0149, 0.7417680
190.4970, 0.1697120
190.9791, 1.1860000E-02
191.4612, 0.3928450
191.9434, 0.8951990
192.4255, 1.839020
192.9076, 2.664543
193.3897, 3.017208
193.8718, 2.828991
194.3539, 2.197006
194.8361, 1.128983
195.3182, 0.8720250
195.8003, 1.746262
196.2824, 0.5008430
196.7645, 1.361343
197.2466, 2.412865
197.7288, 2.328979
198.2109, 1.731258
198.6930, 1.359150
199.1751, 1.206367
199.6572, 1.268604
200.1393, 1.864330
200.6215, 2.580990
201.1036, 2.727966
201.5857, 2.027435
202.0678, 1.174335
202.5499, 1.209976
203.0320, 2.052429
203.5142, 2.681934
203.9963, 2.644276
204.4784, 2.134979
204.9605, 1.593586
205.4426, 1.064079
205.9247, 0.5932350
206.4069, 0.1562880
206.8890, 0.2693020
207.3711, 0.4407810
207.8532, 0.1129110
208.3353, 1.196342
208.8174, 1.762749
209.2996, 1.432690
209.7817, 0.8008690
210.2638, 5.8630002E-03
210.7459, 0.8531760
211.2280, 1.072941
211.7101, 0.3964920
212.1923, 3.478619
212.6744, 5.303558
213.1565, 4.682880
213.6386, 3.547340
214.1207, 2.646664
214.6028, 2.073750
215.0850, 1.816902
215.5671, 2.031929
216.0492, 2.823170
216.5313, 3.236416
217.0134, 3.023922
217.4955, 2.597351
217.9777, 1.864025
218.4598, 0.9763640
218.9419, 0.3485180
219.4240, 0.5232470
219.9061, 1.755508
220.3882, 2.496906
220.8704, 2.415199
221.3525, 2.161732
221.8346, 1.922817
222.3167, 1.757820
222.7988, 1.686890
223.2809, 1.713062
223.7631, 1.792980
224.2452, 2.194733
224.7273, 3.561539
225.2094, 4.650208
225.6915, 4.635693
226.1736, 3.626911
226.6558, 2.415325
227.1379, 1.778721
227.6200, 1.816593
228.1021, 1.982868
228.5842, 2.522415
229.0663, 2.971355
229.5485, 2.984344
230.0306, 2.589409
230.5127, 2.101444
230.9948, 1.818150
231.4769, 1.764885
231.9590, 1.872513
232.4412, 2.344654
232.9233, 2.804214
233.4054, 2.993122
233.8875, 2.904537
234.3696, 2.697598
234.8517, 2.460255
235.3339, 2.185249
235.8160, 2.286377
236.2981, 3.277935
236.7802, 4.265476
237.2623, 4.509121
237.7444, 3.986698
238.2266, 3.269356
238.7087, 2.774204
239.1908, 2.523762
239.6729, 2.397991
240.1550, 2.414715
240.6371, 2.543983
241.1193, 2.998432
241.6014, 3.770096
242.0835, 4.034367
242.5656, 2.671894
243.0477, 0.2206990
243.5298, 1.054150
244.0120, 1.0571000E-02
244.4941, 1.717480
244.9762, 2.666348
245.4583, 2.796040
245.9404, 2.575783
246.4225, 2.047916
246.9047, 1.423740
247.3868, 1.177910
247.8689, 1.652138
248.3510, 2.292629
248.8331, 2.492653
249.3152, 2.213852
249.7974, 1.880520
250.2795, 1.670826
250.7616, 1.582886
251.2437, 1.655064
251.7258, 2.004681
252.2079, 2.356285
252.6901, 2.267914
253.1722, 1.577194
253.6543, 1.082951
254.1364, 1.473083
254.6185, 2.268723
255.1006, 3.094517
255.5828, 3.972084
256.0649, 4.574665
256.5470, 4.308571
257.0291, 2.992210
257.5112, 1.951687
257.9933, 1.813416
258.4755, 2.061573
258.9576, 2.428455
259.4397, 2.873444
259.9218, 3.237553
260.4039, 3.297295
260.8860, 3.005569
261.3682, 2.741806
261.8503, 2.766907
262.3324, 2.685791
262.8145, 2.023140
263.2966, 0.7318120
263.7787, 0.4181060
264.2609, 0.3863790
264.7430, 1.081871
265.2251, 2.218674
265.7072, 2.753498
266.1893, 2.944351
266.6714, 2.653870
267.1536, 1.974129
267.6357, 1.433552
268.1178, 1.719566
268.5999, 3.008312
269.0820, 3.907124
269.5641, 4.359383
270.0463, 4.484173
270.5284, 4.167450
271.0105, 3.500671
271.4926, 2.777958
271.9747, 2.250034
272.4568, 1.916782
272.9390, 1.739220
273.4211, 1.832409
273.9032, 1.997417
274.3853, 2.230572
274.8674, 2.487122
275.3495, 2.677193
275.8317, 2.721161
276.3138, 2.615753
276.7959, 2.465004
277.2780, 2.244442
277.7601, 2.029213
278.2422, 1.783184
278.7244, 1.546997
279.2065, 1.376945
279.6886, 1.288216
280.1707, 1.302128
280.6528, 1.662498
281.1349, 3.251747
281.6171, 4.252625
282.0992, 4.002373
282.5813, 2.987984
283.0634, 1.779789
283.5455, 0.6562460
284.0276, 0.2407040
284.5098, 0.2316510
284.9919, 1.930691
285.4740, 3.511887
285.9561, 3.833504
286.4382, 3.524853
286.9203, 3.331985
287.4025, 3.596638
287.8846, 4.115334
288.3667, 4.344193
288.8488, 4.038956
289.3309, 3.713444
289.8130, 3.257244
290.2952, 2.897625
290.7773, 2.964645
291.2594, 3.530396
291.7415, 4.217709
292.2236, 4.312225
292.7057, 3.286942
293.1879, 2.521530
293.6700, 1.997925
294.1521, 1.716251
294.6342, 1.809525
295.1163, 2.240314
295.5984, 2.685764
296.0806, 2.670944
296.5627, 1.822449
297.0448, 1.425220
297.5269, 2.053371
298.0090, 2.663189
298.4911, 2.429489
298.9733, 1.454620
299.4554, 0.5710640
299.9375, 0.6778490
300.4196, 2.019650
300.9017, 2.694870
301.3839, 2.089405
301.8660, 1.559952
302.3481, 1.658592
302.8302, 2.224850
303.3123, 2.777496
303.7944, 2.977257
304.2766, 2.823452
304.7587, 2.387524
305.2408, 1.172947
305.7229, 0.2334940
306.2050, 0.2140050
306.6871, 0.1826670
307.1693, 0.4259450
307.6514, 1.732281
308.1335, 3.431808
308.6156, 4.101578
309.0977, 2.330589
309.5798, 1.151409
310.0620, 1.280296
310.5441, 2.017937
311.0262, 2.514004
311.5083, 2.425758
311.9904, 1.963921
312.4725, 1.577847
312.9547, 1.064461
313.4368, 0.9342080
313.9189, 1.615410
314.4010, 2.415775
314.8831, 2.669064
315.3652, 2.242523
315.8474, 1.571850
316.3295, 1.298477
316.8116, 1.725189
317.2937, 1.732059
317.7758, 0.8667490
318.2579, 2.0029999E-03
318.7401, 0.3118130
319.2222, 5.1956002E-02
319.7043, 0.4380760
320.1864, 0.8439410
320.6685, 1.155815
321.1506, 1.444046
321.6328, 1.758614
322.1149, 1.980427
322.5970, 2.096855
323.0791, 2.071121
323.5612, 1.871380
324.0433, 1.442505
324.5255, 0.8345150
325.0076, 0.5922160
325.4897, 1.285912
325.9718, 1.697342
326.4539, 1.354088
326.9360, 0.6516880
327.4182, 0.1894530
327.9003, 0.2583890
328.3824, 0.6579020
328.8645, 0.8177760
329.3466, 0.4317020
329.8287, 0.2094610
330.3109, 0.2591400
330.7930, 0.4346960
331.2751, 0.6449740
331.7572, 0.8491020
332.2393, 0.9928250
332.7214, 0.9767610
333.2036, 0.6854630
333.6857, 0.5002940
334.1678, 0.4322740
334.6499, 0.4396820
335.1320, 0.4544560
335.6141, 0.5011790
336.0963, 0.7349050
336.5784, 1.417084
337.0605, 1.214933
337.5426, 1.042611
338.0247, 1.272785
338.5068, 0.2309490
338.9890, 0.4226460
339.4711, 0.2961010
339.9532, 0.9540630
340.4353, 0.8757510
340.9174, 0.2249680
341.3995, 7.1438000E-02
341.8817, 1.006077
342.3638, 1.733578
342.8459, 2.124378
343.3280, 2.190575
343.8101, 1.912128
344.2922, 1.281349
344.7744, 0.4904140
345.2565, 6.0130998E-02
345.7386, 0.3642230
346.2207, 0.4057080
346.7028, 1.3168000E-02
347.1849, 0.5090710
347.6671, 0.8053970
348.1492, 0.8550380
348.6313, 0.7831150
349.1134, 0.7513390
349.5955, 0.7976460
350.0776, 0.7156490
350.5598, 0.3127590
351.0419, 4.8996001E-02
351.5240, 0.1554950
352.0061, 7.9823002E-02
352.4882, 7.6862000E-02
352.9703, 0.4192350
353.4525, 1.033504
353.9346, 1.131130
354.4167, 1.217997
354.8988, 1.439310
355.3809, 1.107883
355.8630, 1.451504
356.3452, 1.540928
356.8273, 1.315285
357.3094, 0.9991380
357.7915, 1.182529
358.2736, 2.178070
358.7557, 2.857658
359.2379, 2.819393
359.7200, 2.479717
360.2021, 2.106319
360.6842, 1.762035
361.1663, 1.423519
361.6484, 0.9194110
362.1306, 0.1921420
362.6127, 8.2396999E-02
363.0948, 1.437798
363.5769, 2.707745
364.0590, 2.886028
364.5411, 2.173794
365.0233, 1.446243
365.5054, 1.331806
365.9875, 1.678356
366.4696, 1.828999
366.9517, 1.707523
367.4338, 1.533905
367.9160, 1.231873
368.3981, 0.9920430
368.8802, 1.203766
369.3623, 2.282207
369.8444, 3.464718
370.3265, 3.378529
370.8087, 1.818211
371.2908, 0.8232270
371.7729, 1.809032
372.2550, 3.306366
372.7371, 3.672180
373.2192, 2.618961
373.7014, 1.389069
374.1835, 0.9119640
374.6656, 1.043613
375.1477, 1.065132
375.6298, 0.6592370
376.1119, 0.4266200
376.5941, 1.246685
377.0762, 2.921059
377.5583, 4.098484
378.0404, 4.007484
378.5225, 3.241402
379.0046, 2.565334
379.4868, 2.011406
379.9689, 1.712952
380.4510, 2.000553
380.9331, 2.592133
381.4152, 2.612263
381.8973, 1.416367
382.3795, 0.2885700
382.8616, 0.2086260
383.3437, 0.9556850
383.8258, 1.660667
384.3079, 2.015648
384.7900, 2.083046
385.2722, 1.877537
385.7543, 1.233971
386.2364, 0.9402540
386.7185, 1.447384
387.2006, 2.324261
387.6827, 3.091290
388.1649, 3.652756
388.6470, 3.953117
389.1291, 3.878197
389.6112, 3.361298
390.0933, 3.004322
390.5754, 2.856483
391.0576, 2.820969
391.5397, 2.956181
392.0218, 3.175144
392.5039, 3.176289
392.9860, 2.721615
393.4681, 1.973656
393.9503, 1.737083
394.4324, 2.687012
394.9145, 3.271057
395.3966, 2.841301
395.8787, 2.088707
396.3608, 1.901314
396.8430, 2.539722
397.3251, 3.552299
397.8072, 4.218994
398.2893, 4.524849
398.7714, 4.467468
399.2535, 3.739597
399.7357, 2.975239
400.2178, 2.413120
400.6999, 2.122643
401.1820, 2.214996
401.6641, 2.889832
402.1462, 4.063480
402.6284, 4.396626
403.1105, 2.850121
403.5926, 1.746265
404.0747, 1.912426
404.5568, 2.604538
405.0389, 2.826656
405.5211, 2.232220
406.0032, 1.323933
406.4853, 0.9793780
406.9674, 1.396149
407.4495, 1.897984
407.9316, 2.719887
408.4138, 3.363697
408.8959, 3.377190
409.3780, 2.865913
409.8601, 2.421959
410.3422, 2.570248
410.8243, 3.180412
411.3065, 3.873028
411.7886, 5.061913
412.2707, 5.856548
412.7528, 5.505413
413.2349, 4.586651
413.7170, 4.011662
414.1992, 4.075180
414.6813, 4.336430
415.1634, 4.071320
415.6455, 3.259426
416.1276, 2.618671
416.6097, 2.430836
417.0919, 2.498974
417.5740, 2.642567
418.0561, 2.880924
418.5382, 3.047909
419.0203, 2.929844
419.5024, 2.739605
419.9846, 3.125671
420.4667, 4.336376
420.9488, 5.256790
421.4309, 4.622128
421.9130, 2.910099
422.3951, 1.915070
422.8773, 2.546524
423.3594, 3.328671
423.8415, 3.087120
424.3236, 2.085968
424.8057, 1.311005
425.2878, 1.166134
425.7700, 1.495552
426.2521, 2.071545
426.7342, 3.092968
427.2163, 3.773151
427.6984, 3.823563
428.1805, 3.558502
428.6627, 3.173191
429.1448, 2.744883
429.6269, 2.547670
430.1090, 2.927134
430.5911, 3.948170
431.0732, 4.212997
431.5554, 2.954121
432.0375, 1.939316
432.5196, 1.872450
433.0017, 2.435568
433.4838, 3.155165
433.9659, 3.816151
434.4481, 4.294106
434.9302, 4.255178
435.4123, 3.109983
435.8944, 2.535191
436.3765, 3.041277
436.8586, 3.669598
437.3408, 3.757063
437.8229, 3.314144
438.3050, 2.802473
438.7871, 2.635275
439.2692, 2.787085
439.7513, 2.788971
440.2335, 2.415653
440.7156, 2.221649
441.1977, 2.547152
441.6798, 3.057552
442.1619, 3.313641
442.6440, 3.146179
443.1262, 2.800852
443.6083, 2.640568
444.0904, 2.691330
444.5725, 2.596434
445.0546, 2.028381
445.5367, 1.524305
446.0189, 1.483940
446.5010, 1.868853
446.9831, 2.409479
447.4652, 3.342976
447.9473, 4.225239
448.4294, 3.947414
448.9116, 2.310780
449.3937, 1.063499
449.8758, 1.442589
450.3579, 2.695751
450.8400, 2.994350
451.3221, 1.804665
451.8043, 0.5868230
452.2864, 3.0718001E-02
452.7685, 0.1091060
453.2506, 0.4364590
453.7327, 1.722507
454.2148, 2.911535
454.6970, 2.895294
455.1791, 1.392679
455.6612, 0.5021380
456.1433, 0.6367840
456.6254, 1.039516
457.1075, 1.467978
457.5897, 1.794365
458.0718, 1.695118
458.5539, 0.9297700
459.0360, 0.1818520
459.5181, 0.6422060
460.0002, 0.1885950
460.4824, 0.8567830
460.9645, 1.525398
461.4466, 1.902912
461.9287, 1.531721
462.4108, 0.5036320
462.8929, 0.4769760
463.3751, 0.6759200
463.8572, 8.5332997E-02
464.3393, 0.2700730
464.8214, 0.1204030
465.3035, 6.1110999E-02
465.7856, 0.4816380
466.2678, 0.9957220
466.7499, 0.9759690
467.2320, 0.1458170
467.7141, 0.7822230
468.1962, 0.5733110
468.6783, 0.9307730
469.1605, 1.798559
469.6426, 1.263779
470.1247, 0.4981380
470.6068, 0.2649350
471.0889, 0.7128370
471.5710, 0.8665390
472.0532, 1.776619
472.5353, 2.053263
473.0174, 0.1964490
473.4995, 0.8126950
473.9816, 0.5137730
474.4637, 0.1598430
474.9459, 1.623739
475.4280, 0.2658620
475.9101, 1.166157
476.3922, 1.270180
476.8743, 1.980146
477.3564, 1.374191
477.8386, 1.173033
478.3207, 2.285572
478.8028, 2.668493
479.2849, 1.905653
479.7670, 2.646004
480.2491, 0.6966250
480.7313, 1.104843
481.2134, 2.529434
481.6955, 1.825539
482.1776, 2.582771
482.6597, 2.781544
483.1418, 0.4474410
483.6240, 2.514341
484.1061, 2.675903
484.5882, 0.8811240
485.0703, 2.792892
485.5524, 1.264746
486.0345, 0.9624960
486.5167, 1.582451
486.9988, 1.238102
487.4809, 2.410389
487.9630, 2.118780
488.4451, 1.696215
488.9272, 1.849627
489.4094, 1.471512
489.8915, 1.906412
490.3736, 1.381367
490.8557, 1.872780
491.3378, 2.593473
491.8199, 1.546185
492.3021, 2.367661
492.7842, 0.2874410
493.2663, 0.6325320
493.7484, 0.7148670
494.2305, 2.367374
494.7126, 0.2955380
495.1948, 0.5674230
495.6769, 1.836416
496.1590, 1.706776
496.6411, 2.159874
497.1232, 0.8821200
497.6053, 1.227562
498.0875, 1.123751
498.5696, 2.565937
499.0517, 2.785074
499.5338, 1.529507
500.0159, 0.2787460
500.4980, 1.826591
500.9802, 0.7190530
501.4623, 1.042175
501.9444, 0.1146260
502.4265, 3.1760000E-03
502.9086, 9.9224001E-02
503.3907, 0.8494190
503.8729, 0.6742970
504.3550, 0.9483010
504.8371, 0.7948680
505.3192, 1.078266
505.8013, 1.311466
506.2834, 1.093369
506.7656, 0.5830000
507.2477, 0.7806850
507.7298, 0.2208440
508.2119, 2.2894001E-02
508.6940, 0.8556940
509.1761, 2.173899
509.6583, 2.853716
510.1404, 2.796881
510.6225, 2.624529
511.1046, 2.458294
511.5867, 2.294752
512.0688, 2.132296
512.5510, 1.972759
513.0331, 1.829714
513.5152, 1.782843
513.9973, 1.722303
514.4794, 1.388636
514.9615, 0.7816490
515.4437, 0.3637140
515.9258, 0.3682420
516.4079, 0.7495770
516.8900, 1.443727
517.3721, 2.969519
517.8542, 3.762699
518.3364, 2.671436
518.8185, 1.080667
519.3006, 0.4761700
519.7827, 0.9757140
520.2648, 1.743322
520.7469, 2.052290
521.2291, 1.945835
521.7112, 1.821442
522.1933, 1.560701
522.6754, 1.352375
523.1575, 0.9919610
523.6396, 0.8246380
524.1218, 1.465088
524.6039, 2.920185
525.0860, 4.227524
525.5681, 3.959265
526.0502, 2.239594
526.5323, 1.295233
527.0145, 1.489922
527.4966, 1.826729
527.9787, 1.881332
528.4608, 1.801729
528.9429, 1.681068
529.4250, 1.608133
529.9072, 1.686047
530.3893, 2.328274
530.8714, 3.237753
531.3535, 3.368275
531.8356, 2.340916
532.3177, 1.244616
532.7999, 1.050644
533.2820, 1.739643
533.7641, 2.137766
534.2462, 2.107634
534.7283, 1.921618
535.2104, 1.615635
535.6926, 1.257084
536.1747, 1.020441
536.6568, 0.9538250
537.1389, 1.077538
537.6210, 1.466318
538.1031, 2.260912
538.5853, 2.700756
539.0674, 2.504450
539.5495, 2.274076
540.0316, 2.174181
540.5137, 2.185221
540.9958, 2.266348
541.4780, 2.403608
541.9601, 2.554659
542.4422, 2.656818
542.9243, 2.707840
543.4064, 2.766094
543.8885, 3.017521
544.3707, 3.027439
544.8528, 2.297646
545.3349, 1.117718
545.8170, 0.2499390
546.2991, 7.4649998E-03
546.7813, 7.8120999E-02
547.2634, 0.3265900
547.7455, 0.7171590
548.2276, 1.226017
548.7097, 1.877626
549.1918, 2.459618
549.6740, 2.702784
550.1561, 2.565798
550.6382, 2.167957
551.1203, 0.7293380
551.6024, 0.2021680
552.0845, 0.7598270
552.5667, 2.734682
553.0488, 3.929173
553.5309, 3.560686
554.0130, 2.431461
554.4951, 2.021812
554.9772, 2.711395
555.4594, 2.966301
555.9415, 2.273693
556.4236, 1.636211
556.9057, 1.579479
557.3878, 1.831833
557.8699, 1.809221
558.3521, 1.163729
558.8342, 0.4112130
559.3163, 0.3582360
559.7984, 0.9602700
560.2805, 1.388279
560.7626, 0.2093120
561.2448, 1.720713
561.7269, 2.564192
562.2090, 2.775631
562.6911, 0.4621090
563.1732, 1.408958
563.6553, 1.049137
564.1375, 0.6356960
564.6196, 1.996260
565.1017, 4.9780000E-02
565.5838, 1.425068
566.0659, 1.468000
566.5480, 2.125164
567.0302, 1.467590
567.5123, 1.216051
567.9944, 2.279627
568.4765, 2.615004
568.9586, 1.806007
569.4407, 2.501616
569.9229, 0.5088690
570.4050, 0.8751300
570.8871, 2.259167
571.3692, 1.516102
571.8513, 2.235582
572.3334, 2.397993
572.8156, 2.8917000E-02
573.2977, 2.061438
573.7798, 2.190033
574.2619, 0.3644730
574.7440, 2.246901
575.2261, 0.6910320
575.7083, 0.3624320
576.1904, 0.9574550
576.6725, 0.5895840
577.1546, 1.739632
577.6367, 1.427303
578.1188, 0.9842830
578.6010, 1.111742
579.0831, 0.7134880
579.5652, 1.133032
580.0473, 0.5948280
580.5294, 1.074453
581.0115, 1.784775
581.4937, 0.7285060
581.9758, 1.542425
582.4579, 0.5439380
582.9400, 0.2038960
583.4221, 0.1251300
583.9042, 1.4773608E-03
584.3864, 0.5677070
584.8685, 0.2954060
585.3506, 0.9752310
585.8327, 0.8486350
586.3148, 1.306494
586.7969, 3.5542998E-02
587.2791, 0.3891790
587.7612, 0.2949870
588.2433, 0.1805691
588.7254, 1.979845
589.2075, 0.7381730
589.6896, 0.4972920
590.1718, 1.066975
590.6539, 2.2696000E-02
591.1360, 0.3194160
591.6181, 0.8172070
592.1002, 0.6775680
592.5823, 0.5585780
593.0645, 0.2145310
593.5466, 0.1113830
594.0287, 0.2166810
594.5108, 0.3085420
594.9929, 0.4598010
595.4750, 0.5382000
595.9572, 0.6413670
596.4393, 1.166014
596.9214, 2.481901
597.4035, 3.195616
597.8856, 2.625193
598.3677, 1.783556
598.8499, 1.005680
599.3320, 0.4059980
599.8141, 0.2663570
600.2962, 1.077595
600.7783, 2.012781
601.2604, 1.806263
601.7426, 0.6989270
602.2247, 0.2112710
602.7068, 0.9413090
603.1889, 1.940992
603.6710, 2.047358
604.1531, 1.108494
604.6353, 0.4365750
605.1174, 4.2367999E-02
605.5995, -9.5087849E-02
606.0816, 2.1311000E-02
606.5637, 0.3662720
607.0458, 0.9243720
607.5280, 1.657557
608.0101, 2.302446
608.4922, 2.491978
608.9743, 2.206066
609.4564, 2.034855
609.9385, 2.232260
610.4207, 2.211624
610.9028, 1.494530
611.3849, 0.6024650
611.8670, 0.1810210
612.3491, 0.3720650
612.8312, 0.5950030
613.3134, 0.3575900
613.7955, 6.3855998E-02
614.2776, 0.1334610
614.7597, 0.1804070
615.2418, 0.5592650
615.7239, 0.8284820
616.2061, 1.030151
616.6882, 1.293329
617.1703, 1.844589
617.6524, 2.026447
618.1345, 1.422026
618.6166, 0.7718600
619.0988, 0.5454940
619.5809, 0.7117540
620.0630, 1.117615
620.5451, 1.712492
621.0272, 2.281527
621.5093, 2.312931
621.9915, 1.707228
622.4736, 1.266590
622.9557, 1.176477
623.4378, 1.160717
623.9199, 0.9597780
624.4020, 0.6818050
624.8842, 0.6300110
625.3663, 1.075350
625.8484, 1.441500
626.3305, 1.178675
626.8126, 0.5780660
627.2947, 0.1924480
627.7769, 0.1365150
628.2590, 0.3396840
628.7411, 0.7735400
629.2232, 1.416321
629.7053, 1.986221
630.1874, 2.582472
630.6696, 2.962509
631.1517, 3.087309
631.6338, 3.006332
632.1159, 2.607155
632.5980, 1.999357
633.0801, 1.613008
633.5623, 1.850206
634.0444, 2.425648
634.5265, 2.636873
635.0086, 2.455431
635.4907, 2.286659
635.9728, 2.249226
636.4550, 2.281454
636.9371, 2.561268
637.4192, 3.053789
637.9013, 3.164114
638.3834, 2.309870
638.8655, 1.550974
639.3477, 1.629868
639.8298, 2.200140
640.3119, 2.620979
640.7940, 2.764214
641.2761, 2.707396
641.7582, 2.514969
642.2404, 2.129570
642.7225, 2.078926
643.2046, 2.658331
643.6867, 3.175117
644.1688, 3.353098
644.6509, 3.250498
645.1331, 3.078949
645.6152, 2.868448
646.0973, 2.772121
646.5794, 2.965042
647.0615, 3.290058
647.5436, 3.546246
648.0258, 3.774256
648.5079, 3.652876
648.9900, 2.975826
649.4721, 2.125654
649.9542, 1.914509
650.4363, 2.554729
650.9185, 3.116625
651.4006, 3.476761
651.8827, 3.823721
652.3648, 4.476688
652.8469, 5.077047
653.3290, 4.953363
653.8112, 3.941557
654.2933, 2.816704
654.7754, 2.472628
655.2575, 2.833715
655.7396, 3.299458
656.2217, 3.936697
656.7039, 4.429230
657.1860, 4.697189
657.6681, 4.670116
658.1502, 4.124527
658.6323, 2.872034
659.1144, 2.180216
659.5966, 2.928602
660.0787, 3.904469
660.5608, 3.949886
661.0429, 3.345312
661.5250, 3.088903
662.0071, 3.627512
662.4893, 4.496233
662.9714, 4.946001
663.4535, 4.930122
663.9356, 4.698788
664.4177, 3.948130
664.8998, 3.367134
665.3820, 3.266861
665.8641, 3.442600
666.3462, 3.646391
666.8283, 3.831781
667.3104, 4.022379
667.7925, 4.273973
668.2747, 4.522432
668.7568, 4.671673
669.2389, 4.715574
669.7210, 4.668951
670.2031, 4.534159
670.6852, 4.324198
671.1674, 4.049074
671.6495, 3.623999
672.1316, 3.355625
672.6137, 3.343332
673.0958, 3.382681
673.5779, 3.498327
674.0601, 3.623857
674.5422, 3.521683
675.0243, 3.116428
675.5064, 2.761013
675.9885, 2.789627
676.4706, 3.134720
676.9528, 3.632586
677.4349, 4.323524
677.9170, 4.746210
678.3991, 4.536333
678.8812, 3.995327
679.3633, 3.790495
679.8455, 4.097424
680.3276, 4.099827
680.8097, 3.274103
681.2918, 2.544394
681.7739, 2.635933
682.2560, 3.209963
682.7382, 3.548195
683.2203, 3.379040
683.7024, 3.049389
684.1845, 3.030535
684.6666, 3.309862
685.1487, 3.518433
685.6309, 3.708786
686.1130, 3.725842
686.5951, 3.257383
687.0772, 2.648401
687.5593, 2.396725
688.0414, 2.574486
688.5236, 2.702486
689.0057, 2.547375
689.4878, 2.371235
689.9699, 2.451244
690.4520, 2.680397
690.9341, 2.823668
691.4163, 2.783089
691.8984, 2.471642
692.3805, 1.618633
692.8626, 0.1407720
693.3447, 0.5034430
693.8268, 0.1984060
694.3090, 0.8450780
694.7911, 0.8283840
695.2732, 0.5915240
695.7553, 0.4274810
696.2374, 0.3822080
696.7195, 0.6147520
697.2017, 1.612806
697.6838, 2.594812
698.1659, 2.620615
698.6480, 1.934500
699.1301, 1.399458
699.6122, 1.328810
700.0944, 1.271957
700.5765, 0.5122260
701.0586, 1.053915
701.5407, 1.475176
702.0228, 0.1759300
702.5049, 1.630276
702.9871, 2.438334
703.4692, 2.759371
703.9513, 2.556116
704.4334, 1.912369
704.9155, 1.394770
705.3976, 1.297760
705.8798, 1.495510
706.3619, 2.089787
706.8440, 2.882658
707.3261, 3.093153
707.8082, 2.469423
708.2903, 1.620806
708.7725, 1.219429
709.2546, 1.258875
709.7367, 1.159130
710.2188, 0.6086750
710.7009, 0.3568190
711.1830, 0.6889360
711.6652, 1.206629
712.1473, 1.698572
712.6294, 2.093338
713.1115, 2.256834
713.5936, 2.041042
714.0757, 1.670193
714.5579, 1.442226
715.0400, 1.296665
715.5221, 0.9221230
716.0042, 0.2277430
716.4863, 0.2734740
716.9684, 6.4589001E-02
717.4506, 0.7125840
717.9327, 1.066948
718.4148, 0.5006640
718.8969, 0.2147060
719.3790, 0.4749930
719.8611, 0.8445660
720.3433, 1.082182
720.8254, 1.184305
721.3075, 1.218094
721.7896, 1.204094
722.2717, 1.161377
722.7538, 1.054646
723.2360, 0.9363380
723.7181, 1.043077
724.2002, 1.415993
724.6823, 1.642254
725.1644, 1.362505
725.6465, 0.8556080
726.1287, 1.000132
726.6108, 2.701365
727.0929, 3.325251
727.5750, 1.823072
728.0571, 0.3942410
728.5392, 0.3380930
729.0214, 1.041143
729.5035, 1.396931
729.9856, 1.047159
730.4677, 0.4373610
730.9498, 0.3378790
731.4319, 0.9953990
731.9141, 0.6289580
732.3962, 0.7501510
732.8783, 1.941717
733.3604, 2.427881
733.8425, 2.338943
734.3246, 1.769045
734.8068, 0.4254990
735.2889, 8.2448997E-02
735.7710, 1.062601
736.2531, 1.987612
736.7352, 1.771706
737.2173, 1.263372
737.6995, 1.654282
738.1816, 2.991346
738.6637, 3.915024
739.1458, 3.070005
739.6279, 1.505203
740.1100, 0.9250930
740.5922, 1.185188
741.0743, 1.575508
741.5564, 1.938335
742.0385, 1.980608
742.5206, 1.230413
743.0027, 0.2346020
743.4849, 0.5960500
743.9670, 1.499165
744.4491, 2.841896
744.9312, 2.566326
745.4133, 1.931721
745.8954, 1.812977
746.3776, 2.148207
746.8597, 2.481327
747.3418, 2.661158
747.8239, 2.654722
748.3060, 2.272419
748.7881, 1.699324
749.2703, 1.462090
749.7524, 1.615894
750.2345, 1.781668
750.7166, 1.741343
751.1987, 1.469242
751.6808, 0.9943500
752.1630, 5.3102002E-02
752.6451, 0.5518470
753.1272, 0.1578870
753.6093, 0.4153860
754.0914, 0.9992080
754.5735, 1.560715
755.0557, 2.167784
755.5378, 2.858013
756.0199, 3.144304
756.5020, 2.260109
756.9841, 1.094534
757.4662, 0.9057410
757.9484, 1.513092
758.4305, 2.055222
758.9126, 2.140844
759.3947, 2.015882
759.8768, 2.067694
760.3589, 2.202291
760.8411, 2.124695
761.3232, 1.598131
761.8053, 1.288828
762.2874, 1.587025
762.7695, 1.994070
763.2516, 2.137745
763.7338, 2.015392
764.2159, 1.816380
764.6980, 1.544668
765.1801, 1.279339
765.6622, 1.023277
766.1443, 0.8305470
766.6265, 0.8254180
767.1086, 0.9912010
767.5907, 1.100582
768.0728, 0.9613170
768.5549, 0.8272910
769.0370, 1.566587
769.5192, 3.493277
770.0013, 4.184689
770.4834, 2.746513
770.9655, 1.283609
771.4476, 0.9712410
771.9297, 1.431786
772.4119, 2.127886
772.8940, 3.167900
773.3761, 3.898279
773.8582, 4.089790
774.3403, 3.944712
774.8224, 3.385695
775.3046, 2.708656
775.7867, 2.561832
776.2688, 3.080477
776.7509, 3.511538
777.2330, 2.882509
777.7151, 1.549383
778.1973, 0.8859080
778.6794, 0.9296800
779.1615, 1.312029
779.6436, 2.064325
780.1257, 2.851189
780.6078, 3.423113
781.0900, 3.757374
781.5721, 3.560484
782.0542, 2.195929
782.5363, 1.201826
783.0184, 0.9683740
783.5005, 1.098331
783.9827, 1.426682
784.4648, 1.829411
784.9469, 2.101809
785.4290, 2.139139
785.9111, 2.089987
786.3932, 2.108231
786.8754, 2.171204
787.3575, 2.202715
787.8396, 2.199551
788.3217, 2.247213
788.8038, 2.370569
789.2859, 2.514814
789.7681, 2.707825
790.2502, 3.030197
790.7323, 3.051323
791.2144, 2.294815
791.6965, 1.847656
792.1786, 2.275526
792.6608, 2.919395
793.1429, 3.136745
793.6250, 2.916475
794.1071, 2.611376
794.5892, 2.384047
795.0714, 2.128038
795.5535, 1.559887
796.0356, 0.9711650
796.5177, 1.036642
796.9998, 1.760656
797.4819, 2.361271
797.9641, 2.242441
798.4462, 1.774357
798.9283, 2.071957
799.4104, 3.352591
799.8925, 3.804928
800.3746, 2.889540
800.8568, 1.890804
801.3389, 1.444077
801.8210, 1.467585
802.3031, 1.710699
802.7852, 2.300316
803.2673, 2.517534
803.7495, 1.699787
804.2316, 1.035427
804.7137, 1.546303
805.1958, 2.478325
805.6779, 2.658318
806.1600, 1.897699
806.6422, 0.9343380
807.1243, 0.2841530
807.6064, 0.1106170
808.0885, 0.3907170
808.5706, 0.5373840
809.0527, 0.3657260
809.5349, 0.1839980
810.0170, 0.8843360
810.4991, 1.585966
810.9812, 2.298697
811.4633, 2.852169
811.9454, 3.368536
812.4276, 3.460415
812.9097, 2.830387
813.3918, 2.110847
813.8739, 1.308601
814.3560, 0.7042080
814.8381, 0.8434300
815.3203, 1.874851
815.8024, 2.720949
816.2845, 2.686737
816.7666, 2.305138
817.2487, 1.975384
817.7308, 1.751560
818.2130, 1.856291
818.6951, 2.277998
819.1772, 2.352787
819.6593, 1.287695
820.1414, 0.3823590
820.6235, 0.4402080
821.1057, 1.407938
821.5878, 2.726675
822.0699, 3.102983
822.5520, 2.878729
823.0341, 1.928829
823.5162, 0.6287350
823.9984, 0.2114180
824.4805, 1.127872
824.9626, 1.814272
825.4447, 1.989586
825.9268, 2.011415
826.4089, 2.057320
826.8911, 2.086964
827.3732, 2.052006
827.8553, 1.950069
828.3374, 1.676651
828.8195, 1.160202
829.3016, 0.6229150
829.7838, 0.3878560
830.2659, 0.4214440
830.7480, 0.6753160
831.2301, 1.128826
831.7122, 1.542912
832.1943, 1.740793
832.6765, 1.705881
833.1586, 1.276791
833.6407, 0.1722260
834.1228, 0.3532640
834.6049, 9.4420999E-02
835.0870, 0.6983740
835.5692, 1.051630
836.0513, 1.272621
836.5334, 1.545946
837.0155, 1.903864
837.4976, 2.168524
837.9797, 2.320175
838.4619, 2.340693
838.9440, 2.213009
839.4261, 1.950912
839.9082, 1.407980
840.3903, 0.6793440
840.8724, 0.3510570
841.3546, 1.030981
841.8367, 1.964445
842.3188, 1.724695
842.8009, 0.6084650
843.2830, 2.9150000E-02
843.7651, 1.9572999E-02
844.2473, 0.4856450
844.7294, 1.475142
845.2115, 2.661354
845.6936, 3.413834
846.1757, 3.744375
846.6578, 3.536978
847.1400, 1.960062
847.6221, 1.080111
848.1042, 2.492294
848.5863, 4.264929
849.0684, 4.288870
849.5505, 2.643950
850.0327, 1.439959
850.5148, 1.342577
850.9969, 1.449371
851.4790, 1.422688
851.9611, 1.395819
852.4432, 1.660543
852.9254, 2.082571
853.4075, 2.080650
853.8896, 1.316336
854.3717, 0.5216010
854.8538, 0.7796920
855.3359, 1.763384
855.8181, 2.273205
856.3002, 2.268496
856.7823, 2.318951
857.2644, 2.683947
857.7465, 2.966522
858.2286, 2.591722
858.7108, 1.587410
859.1929, 1.090466
859.6750, 1.279583
860.1571, 1.629803
860.6392, 2.388231
861.1213, 2.959082
861.6035, 2.676495
862.0856, 1.973824
862.5677, 1.996229
863.0498, 3.318430
863.5319, 4.142347
864.0140, 3.242714
864.4962, 2.152662
864.9783, 2.137335
865.4604, 2.683594
865.9425, 2.615553
866.4246, 1.753439
866.9067, 1.214560
867.3889, 2.187027
867.8710, 3.753445
868.3531, 4.213808
868.8352, 3.775467
869.3173, 3.352449
869.7994, 3.112261
870.2816, 2.860308
870.7637, 2.429497
871.2458, 1.992655
871.7279, 2.054089
872.2100, 2.853979
872.6921, 3.124205
873.1743, 2.586748
873.6564, 2.021364
874.1385, 1.620323
874.6206, 1.414055
875.1027, 1.466019
875.5848, 1.767300
876.0670, 2.122259
876.5491, 2.610847
877.0312, 3.013271
877.5133, 3.439854
877.9954, 3.585310
878.4775, 2.953691
878.9597, 1.875711
879.4418, 1.174177
879.9239, 1.210667
880.4060, 1.393311
880.8881, 0.9308550
881.3702, 1.497078
881.8524, 0.9634150
882.3345, 2.320208
882.8166, 3.372221
883.2987, 3.759306
883.7808, 3.342718
884.2629, 1.790548
884.7451, 0.3895340
885.2272, 1.035206
885.7093, 0.1145270
886.1914, 0.7298760
886.6735, 0.2550720
887.1556, 7.9490997E-02
887.6378, 1.376635
888.1199, 3.261074
888.6020, 3.737011
889.0841, 2.223724
889.5662, 1.407816
890.0483, 1.797182
890.5305, 2.225101
891.0126, 2.566639
891.4947, 2.654146
891.9768, 2.104454
892.4589, 1.133316
892.9410, 0.5836660
893.4232, 0.9008010
893.9053, 1.392208
894.3874, 1.818621
894.8695, 2.074837
895.3516, 1.984001
895.8337, 1.626045
896.3159, 1.131172
896.7980, 0.5956130
897.2801, 0.3146800
897.7622, 0.7459240
898.2443, 1.539547
898.7264, 1.725172
899.2086, 1.363688
899.6907, 0.8326440
900.1728, 0.1922320
900.6549, 0.1603970
901.1370, 0.1117550
901.6191, 0.7787510
902.1013, 1.196083
902.5834, 1.272293
903.0655, 1.498421
903.5476, 2.140955
904.0297, 2.396473
904.5118, 1.523733
904.9940, 0.4602970
905.4761, 0.6241040
905.9582, 0.2780253
906.4403, 2.234189
906.9224, 0.3658980
907.4045, 0.9344660
907.8867, 0.6237170
908.3688, 5.5806000E-02
908.8509, 0.2700400
909.3330, 0.1369880
909.8151, 5.3099999E-03
910.2972, 0.1007600
910.7794, 2.4416000E-02
911.2615, 0.6969160
911.7436, 1.407353
912.2257, 1.210573
912.7078, 0.5429110
913.1899, 0.3600510
913.6721, 0.7698380
914.1542, 1.104892
914.6363, 0.8742370
915.1184, 0.4916150
915.6005, 0.9204350
916.0826, 0.8438180
916.5648, 0.8154080
917.0469, 1.456697
917.5290, 1.120556
918.0111, 1.763212
918.4932, 2.630078
918.9753, 2.775377
919.4575, 2.233543
919.9396, 1.515765
920.4217, 0.2539540
920.9038, 0.1115350
921.3859, 1.366164
921.8680, 2.723050
922.3502, 2.378223
922.8323, 1.131641
923.3144, 0.8912600
923.7965, 2.028809
924.2786, 2.669144
924.7607, 2.300024
925.2429, 1.820950
925.7250, 1.305120
926.2071, 1.024441
926.6892, 1.522254
927.1713, 2.534884
927.6534, 2.949659
928.1356, 2.141975
928.6177, 1.238265
929.0998, 0.8056340
929.5819, 0.7545430
930.0640, 1.184111
930.5461, 1.866502
931.0283, 2.396836
931.5104, 2.636935
931.9925, 2.584352
932.4746, 2.160648
932.9567, 1.546793
933.4388, 0.9780450
933.9210, 0.5014780
934.4031, 0.3582690
934.8852, 0.5620190
935.3673, 0.8763390
935.8494, 1.195901
936.3315, 1.361312
936.8137, 1.000622
937.2958, 0.1419480
937.7779, 5.1801000E-02
938.2600, 0.5725240
938.7421, 1.120768
939.2242, 1.383827
939.7064, 1.489479
940.1885, 1.502098
940.6706, 1.432116
941.1527, 1.439417
941.6348, 1.114347
942.1169, 1.624115
942.5991, 0.4635460
943.0812, 0.3301610
943.5633, 0.1558710
944.0454, 0.9515540
944.5275, 0.9629020
945.0096, 0.3008500
945.4918, 0.1471780
945.9739, 1.360950
946.4560, 2.179417
946.9381, 1.723381
947.4202, 0.9861330
947.9023, 0.6196710
948.3845, 0.5534680
948.8666, 0.5023230
949.3487, 0.4126510
949.8308, 0.5719220
950.3129, 1.522571
950.7950, 2.452624
951.2772, 2.448565
951.7593, 1.987644
952.2414, 1.868070
952.7235, 2.039554
953.2056, 1.810702
953.6877, 0.8308050
954.1699, 0.1651600
954.6520, 0.3420410
955.1341, 0.1856400
955.6162, 1.447374
956.0983, 3.229282
956.5804, 4.200584
957.0626, 4.052020
957.5447, 3.337019
958.0268, 2.368573
958.5089, 1.433555
958.9910, 1.429103
959.4731, 2.430319
959.9553, 2.809637
960.4374, 2.434301
960.9195, 1.828290
961.4016, 1.004704
961.8837, 0.4292140
962.3658, 0.6983800
962.8480, 1.665828
963.3301, 2.258380
963.8122, 2.478858
964.2943, 2.300280
964.7764, 1.347148
965.2585, 0.4231830
965.7407, 9.6992001E-02
966.2228, 6.2647998E-02
966.7049, 0.1888110
967.1870, 0.6626150
967.6691, 0.7435560
968.1512, 0.8320283
968.6334, 0.6282010
969.1155, 1.000654
969.5976, 1.261160
970.0797, 1.683984
970.5618, 2.034407
971.0439, 1.732609
971.5261, 0.6529620
972.0082, 9.5849998E-02
972.4903, 0.1202610
972.9724, 0.6763100
973.4545, 1.552127
973.9366, 2.289652
974.4188, 2.115105
974.9009, 1.317932
975.3830, 0.9875940
975.8651, 1.590445
976.3472, 2.301831
976.8293, 2.422380
977.3115, 2.162508
977.7936, 1.501596
978.2757, 0.7401950
978.7578, 0.7402630
979.2399, 1.518292
979.7220, 1.919531
980.2042, 1.165833
980.6863, 0.2297970
981.1684, 0.8344590
981.6505, 2.442089
982.1326, 3.242474
982.6147, 3.218796
983.0969, 2.685043
983.5790, 1.735668
984.0611, 0.8920700
984.5432, 0.5863900
985.0253, 0.7204340
985.5074, 1.110367
985.9896, 1.766397
986.4717, 2.279317
986.9538, 2.655491
987.4359, 2.660004
987.9180, 2.090987
988.4001, 1.492145
988.8823, 1.436135
989.3644, 1.837518
989.8465, 2.045594
990.3286, 1.926584
990.8107, 2.071100
991.2928, 2.762914
991.7750, 3.225795
992.2571, 3.001679
992.7392, 2.479701
993.2213, 2.127966
993.7034, 1.945733
994.1855, 1.869873
994.6677, 2.086288
995.1498, 2.120809
995.6319, 1.939267
996.1140, 1.597728
996.5961, 0.7991300
997.0782, 1.9292001E-02
997.5604, 0.1678760
998.0425, 0.4096990
998.5246, 0.9936350
999.0067, 1.864638
999.4888, 2.186258
999.9709, 0.9229280
1000.453, 0.2039390
1000.935, 0.4954750
1001.417, 2.112396
1001.899, 2.590047
1002.382, 1.514959
1002.864, 0.7020370
1003.346, 1.186333
1003.828, 1.801624
1004.310, 1.900162
1004.792, 1.782043
1005.274, 1.752029
1005.756, 1.790966
1006.238, 1.719752
1006.721, 1.479852
1007.203, 1.344969
1007.685, 1.846685
1008.167, 2.201790
1008.649, 1.165401
1009.131, 0.2380290
1009.613, 0.1820630
1010.095, 1.100138
1010.578, 1.977768
1011.060, 1.718979
1011.542, 1.341376
1012.024, 2.125814
1012.506, 3.183067
1012.988, 2.983242
1013.470, 1.993105
1013.952, 1.488584
1014.434, 1.587667
1014.917, 1.580376
1015.399, 1.076073
1015.881, 0.4490980
1016.363, 0.1303750
1016.845, 9.3285002E-02
1017.327, 0.3775110
1017.809, 0.8931060
1018.291, 1.227667
1018.773, 1.302360
1019.256, 1.245221
1019.738, 1.116425
1020.220, 1.069131
1020.702, 1.483846
1021.184, 1.522450
1021.666, 1.671108
1022.148, 2.100858
1022.630, 2.050892
1023.113, 2.495056
1023.595, 2.964984
1024.077, 3.166085
1024.559, 3.052783
1025.041, 2.397656
1025.523, 1.216213
1026.005, 0.8060740
1026.487, 1.222002
1026.969, 1.644885
1027.452, 1.919446
1027.934, 1.926349
1028.416, 1.524830
1028.898, 0.8818810
1029.380, 0.3508160
1029.862, 0.1221530
1030.344, 5.6327000E-02
1030.826, 0.7112970
1031.309, 1.473799
1031.791, 2.230756
1032.273, 2.485573
1032.755, 1.599222
1033.237, 0.1228020
1033.719, 0.3636410
1034.201, 0.4291740
1034.683, 0.8498610
1035.166, 0.7681580
1035.648, 0.5804040
1036.130, 0.1961760
1036.612, 7.7362001E-02
1037.094, 0.5971650
1037.576, 1.493319
1038.058, 2.002346
1038.540, 1.962202
1039.022, 2.116474
1039.505, 2.818395
1039.987, 3.139055
1040.469, 2.514014
1040.951, 1.793954
1041.433, 1.701122
1041.915, 2.006721
1042.397, 1.996548
1042.879, 1.408709
1043.361, 1.361991
1043.844, 2.876407
1044.326, 3.574624
1044.808, 2.064761
1045.290, 0.3139280
1045.772, 0.2707040
1046.254, 4.1108999E-02
1046.736, 0.5544900
1047.218, 1.319386
1047.700, 1.929727
1048.183, 2.360854
1048.665, 2.566864
1049.147, 2.362906
1049.629, 2.089594
1050.111, 2.078442
1050.593, 1.813533
1051.075, 2.029690
1051.557, 1.468374
1052.040, 1.083201
1052.522, 0.9428990
1053.004, 1.047158
1053.486, 1.871277
1053.968, 2.504420
1054.450, 1.784957
1054.932, 0.4401880
1055.414, 0.2444420
1055.896, 1.660435
1056.379, 2.609542
1056.861, 2.293880
1057.343, 1.751877
1057.825, 0.9523670
1058.307, 0.4569650
1058.789, 1.157479
1059.271, 2.381628
1059.753, 2.713254
1060.236, 1.867576
1060.718, 1.202303
1061.200, 1.226775
1061.682, 1.414392
1062.164, 1.668125
1062.646, 1.890335
1063.128, 2.003489
1063.610, 2.029467
1064.093, 2.020123
1064.575, 1.984074
1065.057, 1.882349
1065.539, 1.597836
1066.021, 1.381730
1066.503, 1.414091
1066.985, 1.471866
1067.467, 1.331672
1067.949, 1.165370
1068.432, 1.373227
1068.914, 1.958627
1069.396, 2.148638
1069.878, 0.9841540
1070.360, 0.3426930
1070.842, 1.695312
1071.324, 3.268160
1071.806, 3.738420
1072.288, 3.441552
1072.771, 2.904987
1073.253, 2.282956
1073.735, 1.837616
1074.217, 1.748749
1074.699, 1.694911
1075.181, 1.567225
1075.663, 1.376983
1076.145, 1.050633
1076.627, 0.7162160
1077.110, 0.4926730
1077.592, 0.4269820
1078.074, 0.6662860
1078.556, 1.490987
1079.038, 2.000739
1079.520, 1.332485
1080.002, 0.6794660
1080.484, 1.160662
1080.967, 1.961415
1081.449, 1.892476
1081.931, 1.099159
1082.413, 0.6508780
1082.895, 0.9565980
1083.377, 1.320909
1083.859, 1.278251
1084.341, 1.363215
1084.823, 2.192871
1085.306, 3.113189
1085.788, 3.484868
1086.270, 3.278940
1086.752, 2.508410
1087.234, 1.047609
1087.716, 9.9641003E-02
1088.198, 0.7651040
1088.680, 1.374779
1089.163, 0.7117530
1089.645, 0.1575980
1090.127, 0.1138220
1090.609, 0.5820440
1091.091, 1.215641
1091.573, 1.620044
1092.055, 1.821733
1092.537, 1.904365
1093.020, 1.629751
1093.502, 0.2511630
1093.984, 0.9043040
1094.466, 0.4730600
1094.948, 0.7919080
1095.430, 1.578675
1095.912, 1.637446
1096.394, 1.526302
1096.876, 1.260974
1097.359, 1.145159
1097.841, 1.400778
1098.323, 1.704068
1098.805, 1.931559
1099.287, 2.025398
1099.769, 1.914367
1100.251, 1.607181
1100.733, 1.171655
1101.215, 0.3725760
1101.698, 1.5805000E-02
1102.180, 0.5854160
1102.662, 1.198307
1103.144, 1.440287
1103.626, 1.358812
1104.108, 0.9011660
1104.590, 0.2127180
1105.072, 0.2065070
1105.554, 0.2136170
1106.037, 0.1723990
1106.519, 0.1844750
1107.001, 0.1116310
1107.483, 8.7431997E-02
1107.965, 0.3966320
1108.447, 0.9709010
1108.929, 1.599260
1109.411, 1.732011
1109.894, 1.207054
1110.376, 1.002027
1110.858, 1.530911
1111.340, 1.923686
1111.822, 1.926291
1112.304, 1.842825
1112.786, 1.850294
1113.268, 1.884109
1113.750, 1.876112
1114.233, 1.827692
1114.715, 1.572753
1115.197, 0.7334060
1115.679, 0.3106180
1116.161, 0.5768630
1116.643, 0.9744280
1117.125, 1.476552
1117.607, 1.818678
1118.090, 1.522616
1118.572, 0.7838440
1119.054, 0.7690630
1119.536, 2.066000
1120.018, 2.585908
1120.500, 1.846737
1120.982, 1.286555
1121.464, 1.395144
1121.947, 1.683342
1122.429, 1.749070
1122.911, 1.720846
1123.393, 1.979132
1123.875, 1.962579
1124.357, 1.884654
1124.839, 2.122944
1125.321, 1.747349
1125.803, 1.878779
1126.286, 2.080077
1126.768, 2.130013
1127.250, 2.018159
1127.732, 1.647663
1128.214, 1.087936
1128.696, 1.300237
1129.178, 2.487406
1129.660, 2.657023
1130.142, 1.410138
1130.625, 0.5584690
1131.107, 0.8991310
1131.589, 1.623940
1132.071, 1.933181
1132.553, 1.911662
1133.035, 1.690023
1133.517, 1.296984
1133.999, 1.506691
1134.481, 2.326366
1134.964, 2.627049
1135.446, 2.102079
1135.928, 1.468107
1136.410, 1.203855
1136.892, 1.257577
1137.374, 1.681318
1137.856, 2.335037
1138.338, 2.662464
1138.821, 2.687310
1139.303, 2.377761
1139.785, 1.819060
1140.267, 1.588224
1140.749, 1.945955
1141.231, 2.558949
1141.713, 3.250729
1142.195, 3.735782
1142.677, 3.380409
1143.160, 2.475080
1143.642, 1.388776
1144.124, 0.3872240
1144.606, 0.3102280
1145.088, 1.195397
1145.570, 1.709278
1146.052, 0.8510720
1146.534, 0.1260300
1147.017, 0.2861790
1147.499, 1.140325
1147.981, 1.217691
1148.463, 0.9124190
1148.945, 1.081482
1149.427, 1.647080
1149.909, 1.834980
1150.391, 1.335643
1150.874, 0.8183290
1151.356, 0.9117500
1151.838, 0.8531970
1152.320, 0.1239740
1152.802, 1.111216
1153.284, 1.172345
1153.766, 0.5882330
1154.248, 1.3721000E-02
1154.730, 0.4362110
1155.213, 0.9999010
1155.695, 2.139878
1156.177, 2.737147
1156.659, 1.975792
1157.141, 1.087542
1157.623, 0.6174560
1158.105, 0.4938030
1158.587, 0.7500740
1159.069, 1.252478
1159.552, 1.572243
1160.034, 1.667507
1160.516, 1.601806
1160.998, 1.087391
1161.480, 0.8295880
1161.962, 1.162240
1162.444, 1.585161
1162.926, 1.878734
1163.408, 2.017192
1163.891, 1.878009
1164.373, 1.480385
1164.855, 1.323216
1165.337, 1.418040
1165.819, 1.795230
1166.301, 2.654545
1166.783, 3.239663
1167.265, 3.227468
1167.748, 2.932636
1168.230, 2.580902
1168.712, 2.271427
1169.194, 2.411031
1169.676, 3.040931
1170.158, 2.766539
1170.640, 1.513636
1171.122, 1.039021
1171.604, 1.717591
1172.087, 2.384150
1172.569, 2.408693
1173.051, 2.048664
1173.533, 1.580454
1174.015, 1.059655
1174.497, 0.8419620
1174.979, 0.8582740
1175.461, 0.7853920
1175.944, 0.6695290
1176.426, 0.9106170
1176.908, 1.586652
1177.390, 2.350221
1177.872, 3.035934
1178.354, 3.322020
1178.836, 2.473740
1179.318, 1.282014
1179.801, 0.7187100
1180.283, 0.7506500
1180.765, 1.646384
1181.247, 2.976972
1181.729, 3.427171
1182.211, 2.595352
1182.693, 1.725980
1183.175, 1.492932
1183.657, 1.598418
1184.140, 2.071114
1184.622, 2.476274
1185.104, 2.348284
1185.586, 1.994385
1186.068, 1.884037
1186.550, 2.021564
1187.032, 2.113351
1187.514, 2.086638
1187.996, 2.040298
1188.479, 2.168560
1188.961, 2.043585
1189.443, 1.005155
1189.925, 0.1856220
1190.407, 0.7306820
1190.889, 1.869537
1191.371, 2.443522
1191.853, 2.448381
1192.335, 2.307743
1192.818, 1.923089
1193.300, 1.661919
1193.782, 1.581782
1194.264, 1.538062
1194.746, 1.493116
1195.228, 1.417847
1195.710, 1.255975
1196.192, 1.107213
1196.675, 1.229975
1197.157, 1.612462
1197.639, 2.076122
1198.121, 2.608178
1198.603, 2.681858
1199.085, 2.239367
1199.567, 1.871747
1200.049, 1.845244
1200.531, 1.667290
1201.014, 0.6483300
1201.496, 1.325043
1201.978, 0.4004950
1202.460, 2.139573
1202.942, 3.214095
1203.424, 3.612468
1203.906, 3.462536
1204.388, 2.922733
1204.871, 2.524462
1205.353, 2.499706
1205.835, 2.390823
1206.317, 1.666986
1206.799, 0.9509050
1207.281, 0.7624900
1207.763, 0.4465080
1208.245, 0.6645970
1208.728, 0.5340670
1209.210, 0.7537600
1209.692, 1.315919
1210.174, 1.676451
1210.656, 1.577870
1211.138, 1.521676
1211.620, 1.740046
1212.102, 1.916756
1212.584, 1.918569
1213.067, 1.787944
1213.549, 1.438294
1214.031, 1.060800
1214.513, 1.037014
1214.995, 1.365406
1215.477, 1.515040
1215.959, 1.279348
1216.441, 1.801414
1216.923, 3.526348
1217.406, 4.285642
1217.888, 3.138372
1218.370, 1.885192
1218.852, 2.033111
1219.334, 2.855807
1219.816, 2.996435
1220.298, 2.526760
1220.780, 1.579816
1221.262, 0.3470290
1221.745, 0.2341650
1222.227, 7.9030000E-02
1222.709, 0.5755440
1223.191, 1.576546
1223.673, 2.457090
1224.155, 2.896106
1224.637, 2.929965
1225.119, 2.367155
1225.602, 1.626611
1226.084, 1.153490
1226.566, 0.8887920
1227.048, 0.5822320
1227.530, 0.3774120
1228.012, 0.8973070
1228.494, 2.331268
1228.976, 3.326034
1229.458, 3.408667
1229.941, 2.912210
1230.423, 1.008395
1230.905, 0.3546270
1231.387, 0.6271100
1231.869, -0.1155692
1232.351, -2.1297133E-02
1232.833, 0.3606440
1233.315, 8.8124998E-02
1233.798, 1.298917
1234.280, 1.669119
1234.762, 0.8024430
1235.244, 0.4803390
1235.726, 1.116326
1236.208, 1.684807
1236.690, 1.725290
1237.172, 1.493685
1237.655, 1.214353
1238.137, 0.9449990
1238.619, 0.8906610
1239.101, 0.9767010
1239.583, 0.8363960
1240.065, 0.5076840
1240.547, 2.1337001E-02
1241.029, 0.4694400
1241.511, 0.1747320
1241.994, 1.166162
1242.476, 2.368167
1242.958, 2.428115
1243.440, 2.087146
1243.922, 1.941494
1244.404, 1.856330
1244.886, 1.542308
1245.368, 1.290207
1245.850, 1.848040
1246.333, 1.209811
1246.815, 2.632515
1247.297, 0.7691140
1247.779, 0.2726970
1248.261, 0.6683860
1248.743, 1.548800
1249.225, 2.117614
1249.707, 2.329158
1250.189, 1.840273
1250.672, 1.412223
1251.154, 1.961173
1251.636, 2.979536
1252.118, 2.834674
1252.600, 3.085707
1253.082, 3.424262
1253.564, 2.820234
1254.046, 3.591309
1254.529, 3.486370
1255.011, 3.348509
1255.493, 3.531741
1255.975, 3.645865
1256.457, 3.315172
1256.939, 2.894894
1257.421, 3.107786
1257.903, 3.488396
1258.385, 3.079620
1258.868, 2.316864
1259.350, 1.702258
1259.832, 1.321623
1260.314, 1.161228
1260.796, 1.194067
1261.278, 1.285953
1261.760, 1.377424
1262.242, 1.510168
1262.725, 1.760419
1263.207, 1.971347
1263.689, 2.010888
1264.171, 2.069853
1264.653, 1.972489
1265.135, 1.722054
1265.617, 1.274850
1266.099, 0.6342270
1266.582, 0.1909680
1267.064, 0.2170620
1267.546, 0.1133480
1268.028, 1.310799
1268.510, 2.245811
1268.992, 2.601559
1269.474, 2.437428
1269.956, 1.726243
1270.438, 1.085757
1270.921, 1.592036
1271.403, 1.244471
1271.885, 1.234176
1272.367, 1.566968
1272.849, 1.302898
1273.331, 1.530822
1273.813, 1.764057
1274.295, 1.919369
1274.777, 2.228021
1275.260, 2.823532
1275.742, 3.207863
1276.224, 2.936833
1276.706, 2.487490
1277.188, 2.589430
1277.670, 2.508422
1278.152, 1.268606
1278.634, 8.7799998E-03
1279.116, 0.6220330
1279.599, 4.4992998E-02
1280.081, 2.7449001E-02
1280.563, 0.8336830
1281.045, 0.3025410
1281.527, 1.461649
1282.009, 2.331504
1282.491, 2.568380
1282.973, 2.116952
1283.456, 1.177893
1283.938, 0.2825180
1284.420, 1.4270000E-03
1284.902, 0.2068170
1285.384, 0.0000000E+00
##END=



