##NAMES=Fettelite
##RRUFFID=R100083
##IDEAL CHEMISTRY=Ag_16_HgAs_4_S_15_
##LOCALITY=Chanarcillo, Chile
##OWNER=RRUFF
##SOURCE=William W Pinch
##DESCRIPTION=Red platy crystals on acanthite. Cell parameters match those reported by Bindi et al (2009), indicating a fettelite polytype.
##STATUS=The identification of this mineral is confirmed by single-crystal X-ray diffraction and chemical analysis.
##URL=rruff.info/R100083
##MEASURED CHEMISTRY=Ag_15.66_Hg_1.21_Fe_0.02_Cu_0.004_Sb_0.17_As_3.61_S_15_
167.1487, 0.0000000E+00
167.6309, 1.378858
168.1130, 0.9378780
168.5951, 9.8699995E-04
169.0772, 1.204818
169.5593, 3.081082
170.0414, 3.352946
170.5236, 1.847305
171.0057, 0.2855170
171.4878, 0.1092280
171.9699, 0.4403860
172.4520, 1.274879
172.9341, 2.412020
173.4163, 3.488895
173.8984, 4.084795
174.3805, 3.883954
174.8626, 3.376622
175.3447, 2.720057
175.8268, 2.013063
176.3090, 1.734703
176.7911, 2.621512
177.2732, 4.074903
177.7553, 5.166122
178.2374, 5.803547
178.7195, 5.829128
179.2017, 4.570735
179.6838, 2.172832
180.1659, 0.1691210
180.6480, 4.6440000E-03
181.1301, 1.067753
181.6122, 1.823580
182.0944, 1.599821
182.5765, 0.9950770
183.0586, 1.132048
183.5407, 1.997973
184.0228, 2.905397
184.5049, 3.230638
184.9871, 3.080014
185.4692, 2.801342
185.9513, 2.374704
186.4334, 1.939528
186.9155, 1.899134
187.3976, 2.283533
187.8798, 2.712217
188.3619, 2.801746
188.8440, 2.587269
189.3261, 2.276814
189.8082, 1.874457
190.2903, 1.429976
190.7725, 1.148479
191.2546, 1.050691
191.7367, 0.9879330
192.2188, 0.6204260
192.7009, 1.9350000E-02
193.1830, 0.2208450
193.6652, 0.4635330
194.1473, 1.877363
194.6294, 3.064428
195.1115, 4.052237
195.5936, 4.856430
196.0757, 5.055380
196.5579, 4.637342
197.0400, 4.152805
197.5221, 3.840796
198.0042, 3.679030
198.4863, 3.168653
198.9684, 2.164118
199.4506, 1.163580
199.9327, 1.161783
200.4148, 2.277071
200.8969, 3.285305
201.3790, 3.527943
201.8611, 2.959105
202.3433, 3.054354
202.8254, 4.036122
203.3075, 5.325077
203.7896, 5.957355
204.2717, 5.889009
204.7538, 5.428919
205.2360, 4.515551
205.7181, 3.040391
206.2002, 2.182783
206.6823, 2.145995
207.1644, 2.480331
207.6465, 2.212880
208.1287, 1.074659
208.6108, 0.2830390
209.0929, 0.5479950
209.5750, 2.154531
210.0571, 3.302186
210.5392, 3.980815
211.0214, 4.217973
211.5035, 3.891479
211.9856, 2.683671
212.4677, 1.796021
212.9498, 2.036823
213.4319, 3.930594
213.9140, 4.580739
214.3962, 3.362785
214.8783, 1.273987
215.3604, 0.8179270
215.8425, 2.720916
216.3246, 4.606509
216.8067, 5.291703
217.2889, 4.299517
217.7710, 3.753350
218.2531, 3.845073
218.7352, 4.316261
219.2173, 4.581861
219.6994, 4.669433
220.1816, 4.497086
220.6637, 3.966254
221.1458, 2.884017
221.6279, 2.000976
222.1100, 1.374259
222.5921, 0.9306470
223.0743, 0.4992440
223.5564, 0.3208780
224.0385, 0.8346110
224.5206, 0.5919500
225.0027, 0.8445770
225.4848, 1.908027
225.9670, 2.584406
226.4491, 2.860039
226.9312, 2.603942
227.4133, 1.250806
227.8954, 0.2553930
228.3775, 0.5211080
228.8597, 3.114862
229.3418, 4.205675
229.8239, 2.914341
230.3060, 0.3379160
230.7881, 0.2617960
231.2702, 2.379545
231.7524, 5.074841
232.2345, 6.356176
232.7166, 5.751044
233.1987, 4.797274
233.6808, 3.013863
234.1629, 1.016763
234.6451, 0.6011770
235.1272, 2.855434
235.6093, 5.075640
236.0914, 5.987617
236.5735, 4.826005
237.0556, 4.225597
237.5378, 4.346117
238.0199, 4.888831
238.5020, 5.085052
238.9841, 4.774916
239.4662, 4.365093
239.9483, 4.001904
240.4305, 3.627671
240.9126, 3.450789
241.3947, 3.541522
241.8768, 3.806786
242.3589, 4.057175
242.8410, 4.454240
243.3232, 4.589202
243.8053, 4.213693
244.2874, 2.952308
244.7695, 2.106108
245.2516, 1.850065
245.7337, 1.934086
246.2159, 1.748431
246.6980, 0.9398310
247.1801, 0.4202670
247.6622, 0.6615770
248.1443, 2.167622
248.6264, 2.971513
249.1086, 2.718478
249.5907, 1.943848
250.0728, 1.786983
250.5549, 2.594185
251.0370, 3.430195
251.5191, 3.985720
252.0013, 4.233448
252.4834, 4.225981
252.9655, 3.860959
253.4476, 3.302076
253.9297, 2.836972
254.4118, 2.455025
254.8940, 2.194192
255.3761, 2.059938
255.8582, 2.026749
256.3403, 2.226114
256.8224, 2.799971
257.3046, 3.497734
257.7867, 3.884698
258.2688, 3.876421
258.7509, 3.733714
259.2330, 3.428000
259.7151, 2.816249
260.1973, 2.961248
260.6794, 4.402111
261.1615, 6.072336
261.6436, 6.154451
262.1257, 3.780388
262.6078, 1.957975
263.0900, 1.865385
263.5721, 3.769327
264.0542, 4.704588
264.5363, 4.351650
265.0184, 3.423676
265.5005, 2.791809
265.9827, 2.514769
266.4648, 2.381308
266.9469, 2.361925
267.4290, 2.458637
267.9111, 2.600380
268.3932, 2.899805
268.8754, 3.066259
269.3575, 2.601204
269.8396, 1.187481
270.3217, 0.3250560
270.8038, 0.5833340
271.2859, 1.882341
271.7681, 2.517891
272.2502, 2.266548
272.7323, 1.816147
273.2144, 2.008434
273.6965, 3.050991
274.1786, 3.593418
274.6608, 3.203445
275.1429, 2.033852
275.6250, 1.172932
276.1071, 0.6563610
276.5892, 0.3460730
277.0714, 0.1945880
277.5535, 0.2304670
278.0356, 8.8294998E-02
278.5177, 0.5377020
278.9998, 1.335691
279.4819, 0.7042020
279.9641, 1.719860
280.4462, 4.085623
280.9283, 4.774960
281.4104, 3.715485
281.8925, 2.634157
282.3746, 1.786774
282.8568, 1.187559
283.3389, 0.8737810
283.8210, 0.8777730
284.3031, 0.9157260
284.7852, 0.7141460
285.2673, 0.2992320
285.7495, 0.1344620
286.2316, 0.3171960
286.7137, 0.7176650
287.1958, 1.105534
287.6779, 1.514112
288.1600, 1.863762
288.6422, 2.087988
289.1243, 2.244379
289.6064, 2.394587
290.0885, 2.546770
290.5706, 2.694859
291.0527, 2.932421
291.5349, 3.236855
292.0170, 3.269985
292.4991, 2.709068
292.9812, 1.703413
293.4633, 0.6559310
293.9454, 0.5276580
294.4276, 1.300879
294.9097, 0.5705350
295.3918, 1.390192
295.8739, 3.136438
296.3560, 3.932888
296.8381, 4.013809
297.3203, 3.800503
297.8024, 3.276539
298.2845, 2.712454
298.7666, 2.365864
299.2487, 2.210333
299.7308, 2.156204
300.2130, 2.293417
300.6951, 2.462780
301.1772, 2.219145
301.6593, 1.564962
302.1414, 1.213179
302.6235, 2.393147
303.1057, 4.306896
303.5878, 5.284939
304.0699, 4.166035
304.5520, 2.336559
305.0341, 1.347448
305.5162, 1.136749
305.9984, 1.158003
306.4805, 0.9829860
306.9626, 0.8100110
307.4447, 0.9793930
307.9268, 1.942038
308.4089, 2.795303
308.8911, 2.478521
309.3732, 1.267441
309.8553, 0.2975880
310.3374, 0.5867750
310.8195, 1.284779
311.3016, 1.480864
311.7838, 0.7319300
312.2659, 1.6210000E-03
312.7480, 0.1073300
313.2301, 0.2866500
313.7122, 0.8549880
314.1943, 2.003550
314.6765, 2.920534
315.1586, 2.842495
315.6407, 1.317471
316.1228, 2.6005000E-02
316.6049, 0.1077840
317.0870, 0.5082760
317.5692, 1.200560
318.0513, 2.086443
318.5334, 2.704445
319.0155, 2.620098
319.4976, 1.647902
319.9797, 1.101512
320.4619, 2.096531
320.9440, 3.507421
321.4261, 4.064697
321.9082, 2.395904
322.3903, 0.8694250
322.8724, 0.2476320
323.3546, 0.5706830
323.8367, 1.058859
324.3188, 2.051834
324.8009, 2.894776
325.2830, 3.079724
325.7651, 1.666943
326.2473, 0.5763720
326.7294, 0.1565010
327.2115, 0.3435340
327.6936, 0.6103420
328.1757, 0.9464260
328.6578, 1.340515
329.1400, 1.787241
329.6221, 2.222908
330.1042, 2.803780
330.5863, 3.903965
331.0684, 5.162443
331.5505, 5.450867
332.0327, 3.821033
332.5148, 2.340311
332.9969, 1.881132
333.4790, 2.935011
333.9611, 3.695953
334.4432, 4.205366
334.9254, 4.396918
335.4075, 4.043293
335.8896, 2.679886
336.3717, 1.699315
336.8538, 1.763203
337.3359, 3.141860
337.8180, 3.421958
338.3001, 2.019120
338.7823, 0.3263270
339.2644, 0.1089350
339.7465, 1.756651
340.2286, 3.162164
340.7107, 3.790700
341.1928, 3.746020
341.6750, 3.727210
342.1571, 3.779545
342.6392, 3.690869
343.1213, 3.231594
343.6034, 2.400711
344.0855, 1.475367
344.5677, 0.2925540
345.0498, 0.7841760
345.5319, 0.6138570
346.0140, 0.8389090
346.4961, 2.525377
346.9782, 4.075716
347.4604, 5.381128
347.9425, 5.660187
348.4246, 4.630157
348.9067, 3.210162
349.3888, 2.844229
349.8709, 3.344578
350.3531, 3.668415
350.8352, 2.898654
351.3173, 1.682915
351.7994, 1.276440
352.2815, 1.707479
352.7636, 2.662042
353.2458, 4.620880
353.7279, 6.877319
354.2100, 7.932563
354.6921, 6.141695
355.1742, 3.613619
355.6563, 2.750692
356.1385, 3.407842
356.6206, 4.010838
357.1027, 2.892218
357.5848, 1.331515
358.0669, 0.8968770
358.5490, 2.594734
359.0312, 4.624805
359.5133, 6.225189
359.9954, 7.308730
360.4775, 7.641099
360.9596, 6.361059
361.4417, 4.786794
361.9239, 3.779503
362.4060, 3.515382
362.8881, 3.684284
363.3702, 4.737352
363.8523, 6.028551
364.3344, 6.563886
364.8166, 4.987471
365.2987, 3.560047
365.7808, 3.353820
366.2629, 4.595421
366.7450, 5.464767
367.2271, 4.997950
367.7093, 4.370289
368.1914, 4.614801
368.6735, 7.607311
369.1556, 9.509397
369.6377, 9.047336
370.1198, 6.541371
370.6020, 5.376060
371.0841, 6.430252
371.5662, 8.020584
372.0483, 9.305290
372.5304, 10.51070
373.0125, 10.94866
373.4947, 10.16279
373.9768, 8.756180
374.4589, 8.263440
374.9410, 9.305849
375.4231, 9.976666
375.9052, 9.290461
376.3874, 6.928791
376.8695, 5.884987
377.3516, 6.635977
377.8337, 7.884726
378.3158, 7.797800
378.7979, 6.125996
379.2801, 5.029219
379.7622, 5.312922
380.2443, 6.606163
380.7264, 7.282587
381.2085, 7.303736
381.6906, 6.946388
382.1728, 6.312063
382.6549, 5.447170
383.1370, 4.664259
383.6191, 3.973396
384.1012, 3.449506
384.5833, 3.261844
385.0655, 3.381751
385.5476, 3.581488
386.0297, 3.946637
386.5118, 4.252245
386.9939, 3.963889
387.4760, 2.959401
387.9582, 1.926188
388.4403, 1.531651
388.9224, 1.580259
389.4045, 1.663353
389.8866, 1.417799
390.3687, 1.335824
390.8509, 2.054045
391.3330, 3.299636
391.8151, 4.048445
392.2972, 3.095133
392.7793, 1.552829
393.2614, 0.4667340
393.7436, 9.9027000E-02
394.2257, 0.2591290
394.7078, 1.462670
395.1899, 3.197268
395.6720, 4.117361
396.1541, 2.949078
396.6363, 1.545897
397.1184, 0.7462380
397.6005, 0.7079700
398.0826, 1.052831
398.5647, 2.401740
399.0468, 3.874008
399.5290, 4.402082
400.0111, 2.920332
400.4932, 1.554226
400.9753, 0.5055470
401.4574, 0.2229480
401.9395, 0.2013110
402.4217, 1.069057
402.9038, 2.529609
403.3859, 3.619973
403.8680, 4.525579
404.3501, 4.551960
404.8322, 3.233071
405.3144, 1.204353
405.7965, 0.2231980
406.2786, 0.4871550
406.7607, 1.130778
407.2428, 2.036380
407.7249, 3.248775
408.2071, 3.167395
408.6892, 1.439178
409.1713, 0.5433330
409.6534, 0.7893750
410.1355, 0.6060870
410.6176, 1.633326
411.0998, 1.485249
411.5819, 0.7351840
412.0640, 0.8949580
412.5461, 1.896869
413.0282, 2.890916
413.5103, 3.072694
413.9925, 2.802901
414.4746, 2.933594
414.9567, 3.778234
415.4388, 4.528112
415.9209, 4.207151
416.4030, 3.126239
416.8852, 2.067284
417.3673, 1.326480
417.8494, 0.7785630
418.3315, 0.3310740
418.8136, 1.6736001E-02
419.2957, 0.2375590
419.7779, 0.4618360
420.2600, 0.4872430
420.7421, 0.1062770
421.2242, 1.547641
421.7063, 2.774424
422.1884, 2.700551
422.6706, 1.681702
423.1527, 1.060336
423.6348, 1.570775
424.1169, 2.209566
424.5990, 2.554288
425.0811, 2.574243
425.5633, 2.274499
426.0454, 1.129155
426.5275, 0.1106260
427.0096, 0.4612960
427.4917, 0.7248640
427.9738, 1.833255
428.4560, 2.572255
428.9381, 2.953152
429.4202, 3.107786
429.9023, 3.041823
430.3844, 2.775764
430.8665, 2.086579
431.3487, 0.8661380
431.8308, 0.1530630
432.3129, 9.1035999E-02
432.7950, 0.5058180
433.2771, 1.197702
433.7592, 2.186465
434.2414, 2.972255
434.7235, 3.328547
435.2056, 3.285339
435.6877, 2.759589
436.1698, 1.713816
436.6519, 0.6784000
437.1341, 0.2007310
437.6162, 0.1610470
438.0983, 0.2270060
438.5804, 0.2714330
439.0625, 0.4384740
439.5446, 1.120556
440.0268, 2.162056
440.5089, 2.839426
440.9910, 2.415167
441.4731, 1.699609
441.9552, 1.450135
442.4373, 1.835920
442.9195, 2.246567
443.4016, 2.471523
443.8837, 2.513958
444.3658, 2.378524
444.8479, 1.522668
445.3300, 1.036769
445.8122, 1.793628
446.2943, 3.543862
446.7764, 4.135483
447.2585, 1.597651
447.7406, 0.9012570
448.2227, 1.679678
448.7049, 0.6017580
449.1870, 2.040699
449.6691, 2.203325
450.1512, 1.731792
450.6333, 1.629775
451.1154, 2.037701
451.5976, 2.524113
452.0797, 3.047676
452.5618, 3.588882
453.0439, 3.775880
453.5260, 3.536157
454.0081, 3.160785
454.4903, 2.811053
454.9724, 2.491942
455.4545, 2.435172
455.9366, 2.789880
456.4187, 3.167089
456.9008, 2.610417
457.3830, 1.282276
457.8651, 0.4443360
458.3472, 1.285112
458.8293, 2.825018
459.3114, 3.152770
459.7935, 2.277208
460.2757, 1.245851
460.7578, 0.7489140
461.2399, 0.6405660
461.7220, 0.7669930
462.2041, 1.298918
462.6862, 1.694849
463.1684, 1.345407
463.6505, 0.5832320
464.1326, 0.1877110
464.6147, 0.7327900
465.0968, 1.507476
465.5789, 2.176652
466.0611, 2.685718
466.5432, 3.200236
467.0253, 4.360393
467.5074, 5.248405
467.9895, 5.133991
468.4716, 2.472945
468.9538, 0.6025140
469.4359, 0.1602260
469.9180, 9.7610001E-03
470.4001, 0.6833140
470.8822, 2.264081
471.3643, 3.628853
471.8465, 4.375241
472.3286, 4.499935
472.8107, 3.888945
473.2928, 2.288089
473.7749, 0.5949790
474.2570, 0.1695130
474.7392, 1.0783000E-02
475.2213, 0.5242200
475.7034, 1.439677
476.1855, 2.515158
476.6676, 3.369454
477.1497, 3.989395
477.6319, 4.294716
478.1140, 4.110266
478.5961, 3.667850
479.0782, 3.223742
479.5603, 2.767797
480.0424, 2.511132
480.5246, 2.886711
481.0067, 3.499251
481.4888, 3.783267
481.9709, 3.337828
482.4530, 2.776968
482.9352, 2.405540
483.4173, 2.172153
483.8994, 1.914400
484.3815, 1.078185
484.8636, 0.5808910
485.3457, 1.247935
485.8279, 3.730053
486.3100, 4.900007
486.7921, 3.081097
487.2742, 0.6121120
487.7563, 0.4140980
488.2384, 0.9679460
488.7206, 2.091900
489.2027, 2.758517
489.6848, 2.965217
490.1669, 2.534341
490.6490, 1.186980
491.1311, 8.5991003E-02
491.6133, 9.4288997E-02
492.0954, 0.6271400
492.5775, 1.179198
493.0596, 1.519959
493.5417, 1.857426
494.0238, 2.605117
494.5060, 3.610982
494.9881, 4.132693
495.4702, 3.927642
495.9523, 3.247421
496.4344, 2.062664
496.9165, 0.5983530
497.3987, 0.3020810
497.8808, 0.4049520
498.3629, 1.548110
498.8450, 1.941692
499.3271, 1.478046
499.8092, 1.051746
500.2914, 0.7496090
500.7735, 0.7087170
501.2556, 1.032435
501.7377, 2.371333
502.2198, 3.313736
502.7019, 3.268709
503.1841, 2.590996
503.6662, 2.253395
504.1483, 2.610718
504.6304, 3.022015
505.1125, 3.367584
505.5946, 3.596352
506.0768, 3.427181
506.5589, 2.731839
507.0410, 2.129526
507.5231, 2.459489
508.0052, 3.992348
508.4873, 4.511710
508.9695, 3.450270
509.4516, 1.769405
509.9337, 1.446966
510.4158, 2.403837
510.8979, 3.136352
511.3800, 2.693703
511.8622, 1.671831
512.3443, 1.618066
512.8264, 2.472131
513.3085, 3.102741
513.7906, 2.214311
514.2728, 0.7521200
514.7549, 7.9399999E-03
515.2370, 0.4064080
515.7191, 0.9899230
516.2012, 1.179067
516.6833, 1.163472
517.1655, 1.240772
517.6476, 1.569199
518.1297, 1.943970
518.6118, 2.459093
519.0939, 3.060236
519.5760, 3.187405
520.0582, 2.084563
520.5403, 1.126261
521.0224, 0.9674630
521.5045, 2.234963
521.9866, 2.532557
522.4688, 1.304224
522.9509, 0.2623910
523.4330, 0.5543660
523.9151, 0.7085890
524.3972, 1.604825
524.8793, 1.548052
525.3615, 1.009063
525.8436, 1.354786
526.3257, 2.573233
526.8078, 3.712165
527.2899, 4.323827
527.7720, 4.455395
528.2542, 3.836915
528.7363, 2.412687
529.2184, 1.343158
529.7005, 2.319414
530.1826, 4.037072
530.6647, 4.596423
531.1469, 2.597665
531.6290, 0.7899350
532.1111, 1.155590
532.5932, 2.795285
533.0753, 3.807634
533.5574, 2.957029
534.0396, 2.027875
534.5217, 1.600631
535.0038, 1.725384
535.4859, 2.019186
535.9680, 2.474833
536.4501, 3.087327
536.9323, 3.972104
537.4144, 5.581966
537.8965, 6.112106
538.3786, 5.173147
538.8607, 3.642021
539.3428, 2.779428
539.8250, 2.584391
540.3071, 2.760642
540.7892, 3.456839
541.2713, 4.300918
541.7534, 4.149575
542.2355, 3.100910
542.7177, 2.195272
543.1998, 2.515543
543.6819, 3.236549
544.1640, 2.859151
544.6461, 1.214748
545.1282, 0.2349210
545.6104, 0.2859740
546.0925, 0.3845500
546.5746, 0.9059110
547.0567, 0.9481120
547.5388, 0.9515890
548.0209, 1.106051
548.5031, 1.321914
548.9852, 1.399368
549.4673, 1.138550
549.9494, 0.9417220
550.4315, 0.8121190
550.9136, 0.7604490
551.3958, 1.126721
551.8779, 2.277495
552.3600, 3.229661
552.8421, 3.202936
553.3242, 2.046184
553.8063, 1.395949
554.2885, 1.410400
554.7706, 1.686367
555.2527, 1.773362
555.7348, 1.709867
556.2169, 1.260428
556.6990, 7.6944001E-02
557.1812, 1.257446
557.6633, 0.2298410
558.1454, 2.417645
558.6275, 4.476414
559.1096, 4.235234
559.5917, 3.179086
560.0739, 2.426814
560.5560, 2.059223
561.0381, 1.785475
561.5202, 1.402096
562.0023, 1.122008
562.4844, 1.130159
562.9666, 1.985623
563.4487, 2.302098
563.9308, 1.548819
564.4129, 0.4479750
564.8950, 8.3307996E-02
565.3771, 0.8642690
565.8593, 1.583219
566.3414, 2.024639
566.8235, 2.190522
567.3056, 1.973643
567.7877, 1.309929
568.2698, 0.8357090
568.7520, 0.9975520
569.2341, 1.673876
569.7162, 2.548631
570.1983, 3.643345
570.6804, 4.321433
571.1625, 3.328494
571.6447, 1.679762
572.1268, 1.141033
572.6089, 2.646425
573.0910, 4.209949
573.5731, 4.584887
574.0552, 4.134857
574.5374, 3.504029
575.0195, 2.690111
575.5016, 1.941887
575.9837, 1.346096
576.4658, 0.9012670
576.9479, 0.4818660
577.4301, 0.3592170
577.9122, 0.6225980
578.3943, 0.5255660
578.8764, 3.668655
579.3585, 4.690849
579.8406, 2.912080
580.3228, 0.5270650
580.8049, 1.2836000E-02
581.2870, 1.173811
581.7691, 1.873717
582.2512, 1.538641
582.7333, 0.8041340
583.2155, 0.4919750
583.6975, 0.5572630
584.1796, 0.8489680
584.6617, 1.619635
585.1439, 2.352044
585.6260, 2.407141
586.1081, 1.933430
586.5902, 1.685227
587.0723, 2.398813
587.5544, 3.137968
588.0366, 3.340023
588.5187, 2.824368
589.0008, 2.294701
589.4829, 1.664378
589.9650, 1.166814
590.4471, 1.009555
590.9293, 1.399353
591.4114, 1.628033
591.8935, 1.553680
592.3756, 1.404508
592.8577, 1.727595
593.3398, 2.568804
593.8220, 3.050142
594.3041, 2.807130
594.7862, 2.083676
595.2683, 1.292724
595.7504, 0.4757110
596.2325, 0.1127120
596.7147, 0.2666400
597.1968, 0.1267660
597.6789, 0.2163670
598.1610, 0.7592600
598.6431, 1.259634
599.1252, 1.554509
599.6074, 1.760296
600.0895, 1.978313
600.5716, 2.275075
601.0537, 2.500656
601.5358, 2.766080
602.0179, 2.892723
602.5001, 2.590618
602.9822, 1.485273
603.4643, 0.6649390
603.9464, 0.3480210
604.4285, 0.4305060
604.9106, 0.7749560
605.3928, 1.441802
605.8749, 1.786991
606.3570, 1.104578
606.8391, 0.1180630
607.3212, 0.1569550
607.8033, 0.9475840
608.2855, 2.278998
608.7676, 3.509231
609.2497, 4.380588
609.7318, 4.389500
610.2139, 3.287428
610.6960, 2.216285
611.1782, 1.762696
611.6603, 1.683914
612.1424, 1.718633
612.6245, 1.971114
613.1066, 2.139888
613.5887, 2.147139
614.0709, 2.054251
614.5530, 1.991580
615.0351, 1.989279
615.5172, 1.851965
615.9993, 1.261453
616.4814, 0.3974370
616.9636, 0.5383800
617.4457, 1.792009
617.9278, 2.820665
618.4099, 2.484524
618.8920, 1.257615
619.3741, 0.8130500
619.8563, 1.216892
620.3384, 1.582300
620.8205, 0.8398520
621.3026, 0.2128900
621.7847, 0.5370890
622.2668, 0.3427540
622.7490, 1.242513
623.2311, 1.856973
623.7132, 2.125415
624.1953, 1.971810
624.6774, 0.5876520
625.1595, 0.2409130
625.6417, 0.2287370
626.1238, 0.4640480
626.6059, 1.567700
627.0880, 3.484756
627.5701, 4.570047
628.0522, 3.845226
628.5344, 1.846825
629.0165, 1.306100
629.4986, 2.112469
629.9807, 3.141477
630.4628, 3.687990
630.9449, 3.839667
631.4271, 3.650815
631.9092, 3.109653
632.3913, 2.696159
632.8734, 3.113255
633.3555, 3.604911
633.8376, 3.245806
634.3198, 1.052901
634.8019, 0.4286830
635.2840, 0.1056670
635.7661, 1.126960
636.2482, 2.056956
636.7303, 2.566395
637.2125, 2.833999
637.6946, 2.730845
638.1767, 2.385674
638.6588, 1.954103
639.1409, 1.383377
639.6230, 1.152396
640.1052, 1.656649
640.5873, 2.569003
641.0694, 2.803150
641.5515, 2.419212
642.0336, 2.072787
642.5157, 2.307076
642.9979, 2.773229
643.4800, 3.076874
643.9621, 3.181912
644.4442, 3.231236
644.9263, 3.547932
645.4084, 3.687805
645.8906, 3.200220
646.3727, 1.093880
646.8548, 0.1052940
647.3369, 1.091513
647.8190, 2.739387
648.3011, 3.452144
648.7833, 2.936375
649.2654, 2.507854
649.7475, 2.379915
650.2296, 2.356717
650.7117, 1.807114
651.1938, 0.8019340
651.6760, 0.2562680
652.1581, 0.7793960
652.6402, 1.787889
653.1223, 2.573585
653.6044, 3.107456
654.0865, 3.300587
654.5687, 2.667365
655.0508, 2.036084
655.5329, 2.056470
656.0150, 2.789291
656.4971, 3.262200
656.9792, 2.915557
657.4614, 2.533031
657.9435, 2.627725
658.4256, 3.538255
658.9077, 3.663444
659.3898, 2.702912
659.8719, 1.485377
660.3541, 0.8820030
660.8362, 0.8760410
661.3183, 0.8207750
661.8004, 0.5418490
662.2825, 0.4571300
662.7646, 1.591970
663.2468, 3.354218
663.7289, 4.243008
664.2110, 3.038243
664.6931, 1.637966
665.1752, 1.387704
665.6573, 1.979057
666.1395, 2.632772
666.6216, 3.541165
667.1037, 4.045080
667.5858, 3.742874
668.0679, 2.763230
668.5500, 1.917544
669.0322, 1.100623
669.5143, 0.6187470
669.9964, 0.7050280
670.4785, 1.315399
670.9606, 1.784201
671.4427, 2.120712
671.9249, 2.225933
672.4070, 1.577240
672.8891, 0.7279920
673.3712, 1.276752
673.8533, 3.554221
674.3354, 5.183851
674.8176, 3.363482
675.2997, 0.5309430
675.7818, 0.6495560
676.2639, 1.385400
676.7460, 3.229089
677.2281, 4.242611
677.7103, 4.573978
678.1924, 4.339228
678.6745, 3.228009
679.1566, 2.202356
679.6387, 1.310356
680.1208, 0.6773620
680.6030, 0.4754710
681.0851, 0.7221700
681.5672, 1.060789
682.0493, 1.459221
682.5314, 1.830259
683.0135, 1.972569
683.4957, 1.940383
683.9778, 1.898739
684.4599, 2.206821
684.9420, 2.288531
685.4241, 1.363307
685.9063, 0.4435290
686.3884, 1.399638
686.8705, 0.1708070
687.3526, 1.222035
687.8347, 1.918273
688.3168, 1.846250
688.7990, 1.432014
689.2811, 0.3968330
689.7632, 0.3752510
690.2453, 0.1767640
690.7274, 1.887824
691.2095, 2.310932
691.6917, 1.134653
692.1738, 0.1770890
692.6559, 0.2954320
693.1380, 1.671155
693.6201, 2.029252
694.1022, 0.5211950
694.5844, 0.6593650
695.0665, 0.2870360
695.5486, 2.113935
696.0307, 3.227119
696.5128, 2.551956
696.9949, 2.065643
697.4771, 2.005907
697.9592, 2.223850
698.4413, 2.456479
698.9234, 2.729217
699.4055, 2.935264
699.8876, 3.113788
700.3698, 3.145189
700.8519, 2.553709
701.3340, 1.442545
701.8161, 0.5144890
702.2982, 0.1267010
702.7803, 0.1159320
703.2625, 0.4794000
703.7446, 1.127057
704.2267, 1.606244
704.7088, 1.773750
705.1909, 1.677096
705.6730, 1.122761
706.1552, 3.3004999E-02
706.6373, 0.2968520
707.1194, 0.4904770
707.6015, 1.549755
708.0836, 2.518365
708.5657, 3.408213
709.0479, 3.887481
709.5300, 3.932379
710.0121, 3.708736
710.4942, 3.245094
710.9763, 2.644391
711.4584, 2.111828
711.9406, 1.668558
712.4227, 1.363321
712.9048, 1.222721
713.3869, 1.239322
713.8690, 1.434532
714.3511, 2.030653
714.8333, 2.406734
715.3154, 2.243763
715.7975, 1.909233
716.2796, 1.834004
716.7617, 2.228555
717.2438, 2.201955
717.7260, 1.478126
718.2081, 0.5567870
718.6902, 0.3760270
719.1723, 0.8552870
719.6544, 1.389256
720.1365, 1.808174
720.6187, 2.164949
721.1008, 2.479378
721.5829, 2.782543
722.0650, 3.156067
722.5471, 4.131969
723.0292, 4.680261
723.5114, 4.039472
723.9935, 2.512950
724.4756, 1.429109
724.9577, 0.9721260
725.4398, 0.7682610
725.9219, 0.7726970
726.4041, 0.9857800
726.8862, 1.124258
727.3683, 1.020015
727.8504, 1.227688
728.3325, 2.663174
728.8146, 4.445552
729.2968, 4.289348
729.7789, 2.398887
730.2610, 0.8239960
730.7431, 1.248545
731.2252, 2.179301
731.7073, 2.432276
732.1895, 1.822511
732.6716, 1.629563
733.1537, 2.882125
733.6358, 3.829569
734.1179, 3.475599
734.6000, 1.337002
735.0822, 0.6150050
735.5643, 1.626248
736.0464, 2.948961
736.5285, 3.399026
737.0106, 3.094634
737.4927, 2.254606
737.9749, 0.8113870
738.4570, 0.2386650
738.9391, 0.2325100
739.4212, 1.398880
739.9033, 2.461487
740.3854, 3.471302
740.8676, 3.803047
741.3497, 2.646099
741.8318, 1.071050
742.3139, 0.1681760
742.7960, 0.1773700
743.2781, 0.2495520
743.7603, 0.2258880
744.2424, 0.3242680
744.7245, 1.321229
745.2066, 2.990705
745.6887, 4.055165
746.1708, 4.147790
746.6530, 3.716336
747.1351, 2.923327
747.6172, 2.021604
748.0993, 1.547843
748.5814, 2.383716
749.0635, 2.837312
749.5457, 1.720215
750.0278, 0.1333900
750.5099, 0.8504470
750.9920, 0.2566930
751.4741, 1.191017
751.9562, 1.525912
752.4384, 1.482700
752.9205, 1.844431
753.4026, 2.559969
753.8847, 3.154443
754.3668, 3.523431
754.8489, 3.577271
755.3311, 2.949714
755.8132, 1.868830
756.2953, 1.021647
756.7774, 0.4325080
757.2595, 0.4316800
757.7416, 1.827065
758.2238, 4.164341
758.7059, 5.001325
759.1880, 2.950873
759.6701, 1.408624
760.1522, 1.607123
760.6343, 3.117835
761.1165, 3.625127
761.5986, 3.090667
762.0807, 2.278298
762.5628, 1.206529
763.0449, 0.3042290
763.5270, 0.6192780
764.0092, 1.920396
764.4913, 2.960619
764.9734, 2.741616
765.4555, 2.361572
765.9376, 2.697130
766.4197, 3.783167
766.9019, 3.989593
767.3840, 2.588968
767.8661, 1.240116
768.3482, 0.6202050
768.8303, 0.7096520
769.3124, 1.369946
769.7946, 2.676686
770.2767, 3.563768
770.7588, 2.777288
771.2409, 1.241977
771.7230, 0.6806450
772.2051, 1.124420
772.6873, 1.651095
773.1694, 1.644787
773.6515, 1.588856
774.1336, 1.890432
774.6157, 2.698268
775.0978, 3.119400
775.5800, 2.934489
776.0621, 2.622246
776.5442, 2.440168
777.0263, 2.391429
777.5084, 2.460186
777.9905, 2.673638
778.4727, 2.749217
778.9548, 2.238753
779.4369, 1.495224
779.9190, 1.164341
780.4011, 1.327346
780.8832, 1.576524
781.3654, 1.860048
781.8475, 2.013668
782.3296, 1.908843
782.8117, 1.484442
783.2938, 0.8324450
783.7759, 0.5823820
784.2581, 1.476893
784.7402, 0.2907030
785.2223, 2.978133
785.7044, 3.875449
786.1865, 1.985119
786.6686, 0.1101970
787.1508, 0.4828960
787.6329, 2.308313
788.1150, 2.988136
788.5971, 1.982801
789.0792, 1.089123
789.5613, 1.347536
790.0435, 1.959556
790.5256, 2.266377
791.0077, 2.144490
791.4898, 2.174976
791.9719, 2.487140
792.4540, 2.777968
792.9362, 2.686322
793.4183, 2.242711
793.9004, 1.814856
794.3825, 1.430596
794.8646, 1.039839
795.3467, 0.3653460
795.8289, 0.2546840
796.3110, 0.2596780
796.7931, 0.6779690
797.2752, 1.372179
797.7573, 1.085337
798.2394, 0.5965680
798.7216, 0.5568930
799.2037, 1.125974
799.6858, 1.791709
800.1679, 2.672239
800.6500, 3.382953
801.1321, 3.492411
801.6143, 3.089026
802.0964, 2.522672
802.5785, 1.797033
803.0606, 1.270969
803.5427, 1.453218
804.0248, 1.917342
804.5070, 2.241659
804.9891, 2.417378
805.4712, 2.235168
805.9533, 0.9209600
806.4354, 0.2206640
806.9175, 4.6505999E-02
807.3997, 1.992797
807.8818, 2.799316
808.3639, 1.996525
808.8460, 0.9992110
809.3281, 1.306452
809.8102, 2.416139
810.2924, 3.016182
810.7745, 2.972633
811.2566, 2.732857
811.7387, 2.619903
812.2208, 2.568846
812.7029, 2.470519
813.1851, 2.246449
813.6672, 2.179214
814.1493, 2.553899
814.6314, 2.758508
815.1135, 2.080157
815.5956, 0.4422020
816.0778, 0.1917490
816.5599, 0.3453890
817.0420, 1.125073
817.5241, 1.152452
818.0062, 0.8764990
818.4883, 1.082485
818.9705, 1.985496
819.4526, 2.702040
819.9347, 2.811498
820.4168, 2.705501
820.8989, 2.668936
821.3810, 2.758567
821.8632, 2.699222
822.3453, 2.380786
822.8274, 2.155883
823.3095, 2.450634
823.7916, 3.130449
824.2737, 3.381470
824.7559, 3.164397
825.2380, 2.892968
825.7201, 2.776544
826.2022, 2.851691
826.6843, 3.303941
827.1664, 4.228895
827.6486, 4.719959
828.1307, 4.256259
828.6128, 3.589831
829.0949, 2.996679
829.5770, 2.463931
830.0591, 2.371506
830.5413, 2.802885
831.0234, 3.167477
831.5055, 2.773013
831.9876, 2.086164
832.4697, 2.196038
832.9518, 3.075804
833.4340, 3.744495
833.9161, 3.244389
834.3982, 2.663906
834.8803, 2.792706
835.3624, 3.745270
835.8445, 4.306478
836.3267, 4.472498
836.8088, 4.229112
837.2909, 3.272533
837.7730, 1.862997
838.2551, 1.870424
838.7372, 3.191175
839.2194, 4.167618
839.7015, 3.295935
840.1836, 1.882733
840.6657, 1.123856
841.1478, 0.9899820
841.6299, 1.049371
842.1121, 1.500722
842.5942, 1.847585
843.0763, 1.690480
843.5584, 1.112410
844.0405, 1.454809
844.5226, 2.912778
845.0048, 3.795886
845.4869, 2.926376
845.9690, 1.358585
846.4511, 1.537465
846.9332, 2.871485
847.4153, 3.414105
847.8975, 0.7571140
848.3796, 1.428000
848.8617, 0.6820390
849.3438, 2.017446
849.8259, 3.221833
850.3080, 2.174231
850.7902, 1.124566
851.2723, 0.4842410
851.7544, 0.2360160
852.2365, 0.5153940
852.7186, 1.163850
853.2007, 1.455226
853.6829, 0.7701730
854.1650, 0.1664740
854.6471, 0.8259580
855.1292, 2.132492
855.6113, 3.087016
856.0934, 3.400618
856.5756, 3.316271
857.0577, 2.646234
857.5398, 1.788454
858.0219, 1.253826
858.5040, 1.042629
858.9861, 1.218992
859.4683, 1.877494
859.9504, 2.617204
860.4325, 2.800982
860.9146, 2.756609
861.3967, 3.105463
861.8788, 4.251425
862.3610, 5.106296
862.8431, 5.213903
863.3252, 4.851491
863.8073, 4.259965
864.2894, 3.244220
864.7715, 2.552160
865.2537, 2.225444
865.7358, 2.100853
866.2179, 2.285599
866.7000, 2.522776
867.1821, 1.837313
867.6642, 7.3980004E-02
868.1464, 1.203508
868.6285, 0.6295210
869.1106, 0.5867590
869.5927, 1.559394
870.0748, 2.152360
870.5569, 2.785585
871.0391, 3.566895
871.5212, 4.192003
872.0033, 4.523683
872.4854, 4.548738
872.9675, 4.007838
873.4496, 2.938072
873.9318, 1.994698
874.4139, 1.960851
874.8960, 2.055143
875.3781, 1.355810
875.8602, 4.1640000E-03
876.3423, 0.6710490
876.8245, 0.2430960
877.3066, 1.197259
877.7887, 1.821467
878.2708, 2.165395
878.7529, 2.478348
879.2350, 2.761060
879.7172, 2.710629
880.1993, 1.889585
880.6814, 1.022478
881.1635, 1.320240
881.6456, 2.336932
882.1277, 2.950283
882.6099, 2.380960
883.0920, 1.688434
883.5741, 0.7669790
884.0562, 5.2797999E-02
884.5383, 0.4829170
885.0204, 2.358517
885.5026, 3.393379
885.9847, 3.044565
886.4668, 2.131257
886.9489, 1.618693
887.4310, 1.409427
887.9131, 1.329434
888.3953, 1.373536
888.8774, 1.427754
889.3595, 1.355268
889.8416, 1.325908
890.3237, 1.547323
890.8058, 2.268055
891.2880, 2.418293
891.7701, 1.817718
892.2522, 1.204638
892.7343, 1.384495
893.2164, 2.060840
893.6985, 2.383270
894.1807, 2.287720
894.6628, 2.284225
895.1449, 2.993238
895.6270, 3.648562
896.1091, 3.708424
896.5912, 3.090855
897.0734, 2.492434
897.5555, 1.772803
898.0376, 1.456223
898.5197, 2.143701
899.0018, 3.344898
899.4839, 2.732985
899.9661, 0.6916070
900.4482, 0.6396080
900.9303, 0.6475250
901.4124, 2.342888
901.8945, 3.164050
902.3766, 3.218779
902.8588, 2.917666
903.3409, 1.966073
903.8230, 1.340938
904.3051, 1.292321
904.7872, 1.563675
905.2693, 1.650887
905.7515, 1.587572
906.2336, 1.516557
906.7157, 1.720367
907.1978, 1.869674
907.6799, 1.561120
908.1620, 1.016163
908.6442, 0.4767730
909.1263, 0.2826260
909.6084, 0.4622340
910.0905, 0.2864550
910.5726, 1.181960
911.0547, 1.316228
911.5369, 0.8088370
912.0190, 0.6795340
912.5011, 0.9967310
912.9832, 1.434385
913.4653, 1.855585
913.9474, 2.180353
914.4296, 2.349699
914.9117, 2.358743
915.3938, 2.148483
915.8759, 1.536583
916.3580, 0.9421690
916.8401, 0.4559950
917.3223, 0.1246580
917.8044, 0.3964790
918.2865, 1.221876
918.7686, 1.819165
919.2507, 1.498491
919.7328, 0.9915870
920.2150, 1.043562
920.6971, 1.474747
921.1792, 1.838600
921.6613, 2.136361
922.1434, 2.174101
922.6255, 1.815208
923.1077, 1.291408
923.5898, 0.9691860
924.0719, 0.8488540
924.5540, 0.9070100
925.0361, 1.156907
925.5182, 1.512544
926.0004, 2.094464
926.4825, 2.634602
926.9646, 2.565336
927.4467, 1.280098
927.9288, 0.6948080
928.4109, 1.394884
928.8931, 2.333237
929.3752, 2.829407
929.8573, 2.889015
930.3394, 2.811763
930.8215, 2.622664
931.3036, 2.347435
931.7858, 1.770208
932.2679, 1.373638
932.7500, 1.916173
933.2321, 3.229586
933.7142, 3.968041
934.1964, 3.508855
934.6785, 2.814039
935.1606, 1.812754
935.6427, 0.8051840
936.1248, 1.010157
936.6069, 2.300827
937.0891, 3.041148
937.5712, 2.543009
938.0533, 1.575216
938.5354, 0.4237050
939.0175, 0.5591770
939.4996, 0.8329940
939.9818, 0.5131920
940.4639, 1.412337
940.9460, 1.632723
941.4281, 1.588927
941.9102, 1.697351
942.3923, 1.932384
942.8745, 2.070764
943.3566, 2.060821
943.8387, 1.846729
944.3208, 1.192402
944.8029, 0.5729500
945.2850, 0.4067460
945.7672, 0.7448170
946.2493, 1.234933
946.7314, 1.869805
947.2135, 2.629623
947.6956, 3.739508
948.1777, 4.869408
948.6599, 4.413025
949.1420, 2.672386
949.6241, 1.383656
950.1062, 1.860851
950.5883, 2.463991
951.0704, 1.843061
951.5526, 0.6009960
952.0347, 0.1156060
952.5168, 0.2519590
952.9989, 0.3138720
953.4810, 1.933875
953.9631, 3.577355
954.4453, 3.902362
954.9274, 3.165442
955.4095, 2.038880
955.8916, 0.5628670
956.3737, 0.4062660
956.8558, 6.9117002E-02
957.3380, 0.8179170
957.8201, 1.867855
958.3022, 2.958389
958.7843, 3.776321
959.2664, 4.300279
959.7485, 4.489647
960.2307, 4.250208
960.7128, 3.716022
961.1949, 3.135813
961.6770, 2.525411
962.1591, 1.952705
962.6412, 1.023890
963.1234, 0.6101240
963.6055, 1.605724
964.0876, 3.139113
964.5697, 3.678793
965.0518, 2.924929
965.5339, 2.710864
966.0161, 3.458258
966.4982, 4.046901
966.9803, 2.392201
967.4624, 8.3411001E-02
967.9445, 0.6620250
968.4266, 1.284000
968.9088, 2.847338
969.3909, 2.512279
969.8730, 1.923751
970.3551, 2.015214
970.8372, 2.722635
971.3193, 2.828100
971.8015, 2.311826
972.2836, 1.743092
972.7657, 1.446049
973.2478, 1.258065
973.7299, 0.8368240
974.2120, 0.3744530
974.6942, 0.3403410
975.1763, 1.575779
975.6584, 2.268433
976.1405, 1.959024
976.6226, 1.271586
977.1047, 1.007938
977.5869, 1.163011
978.0690, 1.911682
978.5511, 3.377824
979.0332, 4.458785
979.5153, 3.744686
979.9974, 2.577988
980.4796, 2.202995
980.9617, 2.959240
981.4438, 3.116812
981.9259, 2.365809
982.4080, 1.540514
982.8901, 0.8599570
983.3723, 0.4611640
983.8544, 1.185091
984.3365, 2.685619
984.8186, 3.526762
985.3007, 2.075612
985.7828, 0.8193580
986.2650, 1.556631
986.7471, 3.120619
987.2292, 3.102918
987.7113, 0.6311130
988.1934, 0.3538330
988.6755, 0.7350010
989.1577, 2.327433
989.6398, 2.834351
990.1219, 2.584324
990.6040, 1.905531
991.0861, 0.8284530
991.5682, 0.2082700
992.0504, 0.5359930
992.5325, 1.287228
993.0146, 2.438927
993.4967, 3.801650
993.9788, 4.384808
994.4609, 4.190680
994.9431, 3.581805
995.4252, 2.399273
995.9073, 1.332973
996.3894, 1.365568
996.8715, 1.924889
997.3536, 2.131025
997.8358, 1.194325
998.3179, 0.9399310
998.8000, 1.900984
999.2821, 2.781314
999.7642, 1.758504
1000.246, 0.5964110
1000.728, 0.6475540
1001.211, 1.675685
1001.693, 3.501915
1002.175, 2.150991
1002.657, 0.3846240
1003.139, 0.1897940
1003.621, 1.348602
1004.103, 1.636090
1004.585, 0.6818730
1005.068, 0.3577130
1005.550, 1.467925
1006.032, 2.886184
1006.514, 2.448579
1006.996, 1.035188
1007.478, 0.4883040
1007.960, 1.748024
1008.442, 2.827893
1008.924, 3.017427
1009.407, 2.859454
1009.889, 2.677280
1010.371, 2.448651
1010.853, 2.045904
1011.335, 1.482978
1011.817, 1.485189
1012.299, 3.319910
1012.781, 5.277977
1013.263, 5.923021
1013.746, 5.373284
1014.228, 4.067184
1014.710, 1.076246
1015.192, 0.6024730
1015.674, 0.1991000
1016.156, 1.154779
1016.638, 1.915890
1017.120, 2.197209
1017.603, 2.328017
1018.085, 2.359138
1018.567, 2.301166
1019.049, 2.093040
1019.531, 1.866642
1020.013, 1.609677
1020.495, 1.348091
1020.977, 1.507275
1021.459, 2.151654
1021.942, 2.642820
1022.424, 2.609771
1022.906, 2.347016
1023.388, 2.313506
1023.870, 2.346560
1024.352, 2.127727
1024.834, 0.8329720
1025.316, 0.3919850
1025.799, 1.343236
1026.281, 2.636292
1026.763, 3.049144
1027.245, 2.705779
1027.727, 2.398932
1028.209, 2.177537
1028.691, 2.100718
1029.173, 2.363603
1029.656, 2.645510
1030.138, 2.765863
1030.620, 2.711740
1031.102, 2.429619
1031.584, 1.770413
1032.066, 1.495779
1032.548, 1.828738
1033.030, 2.537649
1033.512, 3.692891
1033.995, 4.843328
1034.477, 5.118497
1034.959, 4.104506
1035.441, 3.058078
1035.923, 2.214561
1036.405, 1.473145
1036.887, 0.5165450
1037.369, 0.4766550
1037.851, 0.7072810
1038.334, 3.748301
1038.816, 5.803172
1039.298, 4.295794
1039.780, 2.235475
1040.262, 1.364594
1040.744, 1.442595
1041.226, 2.042314
1041.708, 3.623479
1042.191, 4.212672
1042.673, 3.577508
1043.155, 2.333800
1043.637, 0.3540660
1044.119, 1.477329
1044.601, 1.228446
1045.083, 1.123900
1045.565, 2.983094
1046.047, 3.002088
1046.530, 2.856934
1047.012, 3.001164
1047.494, 3.325782
1047.976, 3.648366
1048.458, 3.924665
1048.940, 3.701941
1049.422, 2.686201
1049.904, 1.702101
1050.386, 1.179057
1050.869, 1.113389
1051.351, 1.644803
1051.833, 2.917143
1052.315, 3.857285
1052.797, 4.550611
1053.279, 4.495253
1053.761, 2.579008
1054.243, 0.2772480
1054.726, 0.6431630
1055.208, 2.713288
1055.690, 3.937250
1056.172, 2.378137
1056.654, 1.325384
1057.136, 1.270475
1057.618, 1.806051
1058.100, 2.590855
1058.583, 3.586344
1059.065, 4.465065
1059.547, 5.148993
1060.029, 5.296019
1060.511, 4.285463
1060.993, 3.021515
1061.475, 1.803924
1061.957, 0.7911490
1062.439, 0.6052030
1062.922, 1.329709
1063.404, 2.561407
1063.886, 4.538553
1064.368, 5.934357
1064.850, 4.375845
1065.332, 1.564751
1065.814, 0.1574290
1066.296, 9.2092000E-02
1066.778, 7.1641997E-02
1067.261, 0.4860510
1067.743, 0.6186860
1068.225, 1.8660000E-03
1068.707, 1.124221
1069.189, 2.224884
1069.671, 3.157594
1070.153, 3.349838
1070.635, 1.442040
1071.118, 0.2439830
1071.600, 2.047719
1072.082, 4.353045
1072.564, 4.374084
1073.046, 1.786308
1073.528, 0.6386490
1074.010, 1.085274
1074.492, 1.823573
1074.974, 2.165141
1075.457, 2.161397
1075.939, 1.452408
1076.421, 0.2535830
1076.903, 6.5833002E-02
1077.385, 1.018221
1077.867, 1.855696
1078.349, 2.105609
1078.831, 2.196073
1079.313, 2.778577
1079.796, 3.571720
1080.278, 4.134145
1080.760, 4.416318
1081.242, 4.298103
1081.724, 3.141386
1082.206, 2.281449
1082.688, 2.275865
1083.170, 2.898713
1083.652, 3.528118
1084.135, 4.040548
1084.617, 3.831105
1085.099, 2.280989
1085.581, 1.050459
1086.063, 1.451397
1086.545, 2.451226
1087.027, 3.195917
1087.509, 3.707273
1087.992, 3.409869
1088.474, 2.245837
1088.956, 1.164612
1089.438, 0.7730650
1089.920, 0.7292190
1090.402, 0.4813880
1090.884, 0.3347560
1091.366, 1.018355
1091.849, 3.666404
1092.331, 5.014720
1092.813, 4.676610
1093.295, 3.645815
1093.777, 2.572765
1094.259, 1.652081
1094.741, 1.376884
1095.223, 1.655876
1095.705, 1.978569
1096.188, 1.847688
1096.670, 2.047295
1097.152, 3.085150
1097.634, 4.236001
1098.116, 3.862281
1098.598, 2.315396
1099.080, 1.595439
1099.562, 2.068078
1100.044, 2.881904
1100.527, 3.837147
1101.009, 4.550998
1101.491, 4.778175
1101.973, 4.447857
1102.455, 3.516912
1102.937, 2.007773
1103.419, 1.128145
1103.901, 1.492915
1104.384, 2.205585
1104.866, 2.364232
1105.348, 2.318996
1105.830, 2.536765
1106.312, 3.220501
1106.794, 3.477794
1107.276, 3.164632
1107.758, 2.950816
1108.240, 3.453628
1108.723, 4.103817
1109.205, 3.701965
1109.687, 2.676600
1110.169, 2.013412
1110.651, 2.533463
1111.133, 2.643999
1111.615, 1.995485
1112.097, 1.302840
1112.579, 1.113381
1113.062, 1.426638
1113.544, 2.504341
1114.026, 4.208620
1114.508, 5.587835
1114.990, 6.139338
1115.472, 6.288176
1115.954, 6.255098
1116.436, 5.867903
1116.919, 4.488420
1117.401, 2.229718
1117.883, 1.185022
1118.365, 1.609702
1118.847, 2.550440
1119.329, 4.020084
1119.811, 5.097417
1120.293, 4.771907
1120.776, 3.491348
1121.258, 2.821101
1121.740, 2.820999
1122.222, 3.370143
1122.704, 4.627272
1123.186, 5.684605
1123.668, 5.307020
1124.150, 4.403954
1124.632, 4.031324
1125.115, 4.388699
1125.597, 4.126882
1126.079, 3.074461
1126.561, 2.063131
1127.043, 1.311725
1127.525, 0.9664060
1128.007, 1.565429
1128.489, 2.637291
1128.971, 3.358968
1129.454, 3.411567
1129.936, 3.448786
1130.418, 3.610270
1130.900, 3.651512
1131.382, 3.551188
1131.864, 3.165060
1132.346, 1.573353
1132.828, 0.7159890
1133.311, 2.094192
1133.793, 1.464888
1134.275, 0.4007100
1134.757, 1.098664
1135.239, 2.532666
1135.721, 3.362402
1136.203, 3.698628
1136.685, 4.391894
1137.167, 5.342301
1137.650, 5.559530
1138.132, 3.587017
1138.614, 1.751817
1139.096, 1.443267
1139.578, 1.731947
1140.060, 1.139635
1140.542, 0.3627920
1141.024, 0.3463340
1141.506, 1.409561
1141.989, 3.041250
1142.471, 2.965313
1142.953, 2.443857
1143.435, 2.373033
1143.917, 2.598573
1144.399, 2.388743
1144.881, 1.622172
1145.363, 1.419589
1145.846, 2.004120
1146.328, 2.898262
1146.810, 3.882723
1147.292, 4.733414
1147.774, 5.240054
1148.256, 5.364933
1148.738, 5.272377
1149.220, 4.950891
1149.703, 4.466653
1150.185, 3.790899
1150.667, 3.094900
1151.149, 2.445569
1151.631, 1.990143
1152.113, 1.987092
1152.595, 2.547428
1153.077, 3.074294
1153.559, 3.582730
1154.042, 3.909382
1154.524, 3.980241
1155.006, 3.844278
1155.488, 3.654853
1155.970, 3.307925
1156.452, 2.462055
1156.934, 0.5023690
1157.416, 0.1924510
1157.898, 1.276117
1158.381, 2.701613
1158.863, 2.734063
1159.345, 1.918195
1159.827, 1.783944
1160.309, 2.130515
1160.791, 2.402604
1161.273, 2.220703
1161.755, 2.309740
1162.238, 3.220147
1162.720, 3.893152
1163.202, 3.322309
1163.684, 1.814107
1164.166, 0.7822060
1164.648, 0.2576960
1165.130, 0.4122410
1165.612, 2.170630
1166.094, 3.537807
1166.577, 3.611108
1167.059, 3.296600
1167.541, 3.580923
1168.023, 4.336228
1168.505, 4.228604
1168.987, 3.321115
1169.469, 2.508425
1169.951, 2.568400
1170.433, 2.542349
1170.916, 1.693183
1171.398, 0.7043180
1171.880, 0.5242400
1172.362, 1.110045
1172.844, 1.678191
1173.326, 2.111808
1173.808, 2.517131
1174.290, 3.121847
1174.773, 3.533305
1175.255, 3.337668
1175.737, 2.853196
1176.219, 2.809666
1176.701, 3.212190
1177.183, 2.641528
1177.665, 0.8285450
1178.147, 0.4513500
1178.630, 0.8332370
1179.112, 2.566738
1179.594, 3.171576
1180.076, 2.991087
1180.558, 3.411100
1181.040, 4.501635
1181.522, 4.701311
1182.004, 3.577275
1182.486, 2.481692
1182.969, 2.676081
1183.451, 3.353836
1183.933, 4.278523
1184.415, 5.261223
1184.897, 5.110917
1185.379, 3.673386
1185.861, 2.849367
1186.343, 3.210290
1186.825, 3.983416
1187.308, 5.043863
1187.790, 5.699912
1188.272, 4.710231
1188.754, 5.279922
1189.236, 5.665556
1189.718, 4.497819
1190.200, 5.913286
1190.682, 4.722889
1191.165, 2.573968
1191.647, 0.5909570
1192.129, 0.7311820
1192.611, 0.6734730
1193.093, 0.8819380
1193.575, 2.066438
1194.057, 2.913634
1194.539, 3.079469
1195.021, 2.170900
1195.504, 1.071059
1195.986, 0.7439170
1196.468, 0.8399830
1196.950, 0.8813070
1197.432, 0.7374580
1197.914, 1.270699
1198.396, 2.625727
1198.878, 3.425410
1199.360, 2.684442
1199.843, 1.585265
1200.325, 1.769199
1200.807, 2.408957
1201.289, 2.210387
1201.771, 0.7058310
1202.253, 9.7580999E-02
1202.735, 0.1879250
1203.217, 0.3801960
1203.700, 1.986768
1204.182, 3.744635
1204.664, 4.769053
1205.146, 5.159869
1205.628, 4.977411
1206.110, 3.996733
1206.592, 3.367448
1207.074, 3.142118
1207.557, 2.897536
1208.039, 2.298521
1208.521, 1.601871
1209.003, 0.8010080
1209.485, 0.1885520
1209.967, 0.4270080
1210.449, 2.101901
1210.931, 2.863441
1211.413, 2.562584
1211.896, 2.285381
1212.378, 3.290854
1212.860, 4.274718
1213.342, 3.372709
1213.824, 1.515939
1214.306, 0.7353020
1214.788, 1.667201
1215.270, 1.685989
1215.752, 0.6134200
1216.235, 4.3412000E-02
1216.717, 1.594839
1217.199, 3.548691
1217.681, 3.628128
1218.163, 2.544370
1218.645, 1.967234
1219.127, 2.136244
1219.609, 2.252755
1220.092, 2.302992
1220.574, 2.109963
1221.056, 1.146419
1221.538, 0.2246630
1222.020, 0.1467800
1222.502, 0.6971520
1222.984, 1.374389
1223.466, 2.312161
1223.948, 2.626642
1224.431, 2.268071
1224.913, 1.771290
1225.395, 1.467387
1225.877, 1.297060
1226.359, 1.221110
1226.841, 1.242755
1227.323, 1.382637
1227.805, 1.681079
1228.287, 1.850697
1228.770, 1.875545
1229.252, 1.634893
1229.734, 0.4624740
1230.216, 0.4555890
1230.698, 2.5460999E-02
1231.180, 1.369898
1231.662, 2.274406
1232.144, 2.717134
1232.627, 3.386744
1233.109, 4.374147
1233.591, 4.795186
1234.073, 3.364429
1234.555, 1.783881
1235.037, 0.9040880
1235.519, 0.7773300
1236.001, 1.820752
1236.484, 4.095864
1236.966, 4.797798
1237.448, 3.680954
1237.930, 2.326653
1238.412, 1.833073
1238.894, 1.379403
1239.376, 0.1042460
1239.858, 0.5816670
1240.340, 0.6804050
1240.823, 1.315020
1241.305, 2.769690
1241.787, 3.471368
1242.269, 3.500083
1242.751, 1.978974
1243.233, 0.8980460
1243.715, 1.300907
1244.197, 2.454824
1244.679, 3.536291
1245.162, 4.425689
1245.644, 4.101055
1246.126, 2.577929
1246.608, 1.557994
1247.090, 2.349892
1247.572, 3.331156
1248.054, 4.140956
1248.536, 4.608163
1249.019, 3.727518
1249.501, 2.003852
1249.983, 1.105056
1250.465, 1.117040
1250.947, 1.124698
1251.429, 0.3976920
1251.911, 0.1867980
1252.393, 0.9990810
1252.875, 1.955609
1253.358, 1.607021
1253.840, 0.6030170
1254.322, 0.4868400
1254.804, 1.261304
1255.286, 1.751799
1255.768, 1.028114
1256.250, 1.167900
1256.732, 2.799980
1257.214, 4.569537
1257.697, 4.739248
1258.179, 3.982234
1258.661, 3.121577
1259.143, 2.300695
1259.625, 2.083485
1260.107, 3.059371
1260.589, 3.018605
1261.071, 1.388669
1261.554, 0.2351010
1262.036, 0.1213260
1262.518, 1.244238
1263.000, 1.829548
1263.482, 1.881276
1263.964, 1.885905
1264.446, 1.891376
1264.928, 1.701417
1265.411, 1.244644
1265.893, 0.9773640
1266.375, 1.804961
1266.857, 2.514634
1267.339, 1.664836
1267.821, 2.2629000E-02
1268.303, 5.5757999E-02
1268.785, 1.725643
1269.267, 3.187093
1269.750, 4.110861
1270.232, 4.276780
1270.714, 2.845870
1271.196, 1.302603
1271.678, 0.4900360
1272.160, 0.1959180
1272.642, 0.6181710
1273.124, 1.599880
1273.606, 1.920792
1274.089, 1.514777
1274.571, 1.018786
1275.053, 0.5003140
1275.535, 0.3963960
1276.017, 1.186852
1276.499, 2.084510
1276.981, 1.875969
1277.463, 0.8845130
1277.946, 0.3084430
1278.428, 0.1973810
1278.910, 0.2516140
1279.392, 0.6221490
1279.874, 0.6686530
1280.356, 8.7360004E-03
1280.838, 0.4622540
1281.320, 0.6411990
1281.802, 2.477091
1282.285, 3.072515
1282.767, 2.665425
1283.249, 2.951678
1283.731, 5.584974
1284.213, 6.101605
1284.695, 3.680176
1285.177, 0.9423170
1285.659, 0.2346280
1286.141, 0.6263960
1286.624, 1.346327
1287.106, 2.167815
1287.588, 2.631748
1288.070, 2.764709
1288.552, 2.233107
1289.034, 0.9398800
1289.516, 5.9788998E-02
1289.998, 0.3944600
1290.481, 1.115571
1290.963, 1.079620
1291.445, 1.357959
1291.927, 1.443862
1292.409, 1.086193
1292.891, 1.153908
1293.373, 0.7879250
1293.855, 0.5440400
1294.338, 1.082053
1294.820, 1.422653
1295.302, 0.6087580
1295.784, 0.1654710
1296.266, 0.2979150
1296.748, 1.688486
1297.230, 3.129008
1297.712, 4.364885
1298.194, 4.793255
1298.677, 3.291376
1299.159, 2.134419
1299.641, 1.346390
1300.123, 1.224709
1300.605, 1.681000
1301.087, 2.263482
1301.569, 1.747376
1302.051, 0.6388440
1302.533, 4.5730001E-03
1303.016, 0.0000000E+00
##END=



