##NAMES=Fluorcalciopyrochlore
##RRUFFID=R110198
##IDEAL CHEMISTRY=(Ca,Na)_2_(Nb^5+^,Ti^4+^)_2_O_6_F
##LOCALITY=St Lawrence Columbium mine, Oka complex, Oka, Quebec, Canada
##OWNER=RRUFF
##SOURCE=Donald Doell
##DESCRIPTION=Dark brownish-red octahedra
##STATUS=The identification of this mineral is confirmed by single-crystal X-ray diffraction and chemical analysis.
##URL=rruff.info/R110198
##MEASURED CHEMISTRY=(Ca_1.17_Na_0.49_Ce_0.19_Mn_0.03_La_0.03_Pr_0.01_Th_0.01_)(Nb_1.55_Ti_0.31_Fe_0.09_Zr_0.04_Ta_0.01_)O_6_[F_0.63_(OH)_0.37_]
232.3816, 1829.004
232.8637, 1833.110
233.3458, 1835.306
233.8279, 1836.198
234.3101, 1837.739
234.7922, 1839.934
235.2743, 1842.916
235.7564, 1846.822
236.2385, 1851.428
236.7206, 1856.418
237.2028, 1862.343
237.6849, 1868.536
238.1670, 1871.986
238.6491, 1870.869
239.1312, 1869.587
239.6133, 1869.324
240.0955, 1870.220
240.5776, 1872.551
241.0597, 1876.737
241.5418, 1882.423
242.0239, 1887.847
242.5060, 1893.151
242.9882, 1897.954
243.4703, 1901.874
243.9524, 1905.347
244.4345, 1909.021
244.9166, 1913.295
245.3987, 1918.022
245.8809, 1922.418
246.3630, 1926.121
246.8451, 1929.937
247.3272, 1934.110
247.8093, 1938.465
248.2914, 1942.803
248.7736, 1947.038
249.2557, 1951.110
249.7378, 1954.682
250.2199, 1956.720
250.7020, 1959.595
251.1841, 1964.707
251.6663, 1970.432
252.1484, 1974.603
252.6305, 1976.170
253.1126, 1976.077
253.5947, 1977.326
254.0768, 1980.886
254.5590, 1984.799
255.0411, 1989.694
255.5232, 1994.598
256.0053, 1998.116
256.4874, 1999.664
256.9695, 2000.410
257.4517, 2003.164
257.9338, 2010.029
258.4159, 2016.594
258.8980, 2022.620
259.3801, 2028.422
259.8622, 2034.475
260.3444, 2040.922
260.8265, 2047.411
261.3086, 2053.291
261.7907, 2058.698
262.2728, 2063.130
262.7549, 2065.894
263.2371, 2068.024
263.7192, 2070.278
264.2013, 2072.901
264.6834, 2076.168
265.1655, 2080.647
265.6476, 2087.249
266.1298, 2092.797
266.6119, 2096.748
267.0940, 2099.923
267.5761, 2102.785
268.0582, 2105.492
268.5403, 2108.571
269.0225, 2112.906
269.5046, 2119.070
269.9867, 2123.587
270.4688, 2124.530
270.9509, 2124.948
271.4330, 2127.534
271.9152, 2132.569
272.3973, 2138.632
272.8794, 2144.814
273.3615, 2151.078
273.8436, 2155.430
274.3257, 2155.676
274.8079, 2155.538
275.2900, 2158.195
275.7721, 2163.690
276.2542, 2169.626
276.7363, 2174.300
277.2184, 2177.765
277.7006, 2181.521
278.1827, 2185.815
278.6648, 2190.166
279.1469, 2194.200
279.6290, 2197.937
280.1111, 2201.679
280.5933, 2205.751
281.0754, 2209.888
281.5575, 2213.332
282.0396, 2215.629
282.5217, 2217.802
283.0038, 2220.344
283.4860, 2223.263
283.9681, 2226.778
284.4502, 2231.557
284.9323, 2236.474
285.4144, 2239.303
285.8965, 2239.520
286.3787, 2239.095
286.8608, 2238.422
287.3429, 2237.831
287.8250, 2238.543
288.3071, 2241.065
288.7892, 2245.010
289.2714, 2250.268
289.7535, 2257.158
290.2356, 2262.760
290.7177, 2265.101
291.1998, 2265.101
291.6819, 2265.074
292.1641, 2265.284
292.6462, 2266.064
293.1283, 2267.968
293.6104, 2270.852
294.0925, 2273.818
294.5746, 2276.896
295.0568, 2279.746
295.5389, 2281.267
296.0210, 2280.736
296.5031, 2280.671
296.9852, 2284.269
297.4673, 2290.241
297.9495, 2295.123
298.4316, 2297.415
298.9137, 2298.112
299.3958, 2298.264
299.8779, 2297.644
300.3600, 2297.751
300.8422, 2300.669
301.3243, 2304.854
301.8064, 2307.502
302.2885, 2306.972
302.7706, 2305.687
303.2527, 2306.196
303.7349, 2308.540
304.2170, 2312.321
304.6991, 2319.083
305.1812, 2326.341
305.6633, 2330.502
306.1454, 2330.296
306.6276, 2329.006
307.1097, 2329.516
307.5918, 2331.717
308.0739, 2333.623
308.5560, 2334.191
309.0381, 2334.547
309.5203, 2336.001
310.0024, 2338.672
310.4845, 2341.557
310.9666, 2344.335
311.4487, 2346.865
311.9308, 2348.187
312.4130, 2347.222
312.8951, 2346.281
313.3772, 2347.707
313.8593, 2351.164
314.3414, 2354.584
314.8235, 2357.050
315.3057, 2358.716
315.7878, 2359.665
316.2699, 2359.238
316.7520, 2359.712
317.2341, 2364.280
317.7162, 2371.036
318.1984, 2375.708
318.6805, 2375.522
319.1626, 2372.946
319.6447, 2371.794
320.1268, 2372.283
320.6089, 2373.158
321.0911, 2373.475
321.5732, 2373.851
322.0553, 2375.203
322.5374, 2377.863
323.0195, 2381.320
323.5016, 2385.599
323.9838, 2390.745
324.4659, 2394.562
324.9480, 2395.308
325.4301, 2394.865
325.9122, 2395.481
326.3943, 2397.351
326.8765, 2399.878
327.3586, 2403.036
327.8407, 2406.648
328.3228, 2409.730
328.8049, 2412.229
329.2870, 2413.806
329.7692, 2413.706
330.2513, 2412.105
330.7334, 2411.134
331.2155, 2412.174
331.6976, 2414.547
332.1797, 2416.662
332.6619, 2418.257
333.1440, 2419.863
333.6261, 2421.763
334.1082, 2423.977
334.5903, 2426.714
335.0724, 2429.887
335.5546, 2433.673
336.0367, 2438.946
336.5188, 2445.937
337.0009, 2451.783
337.4830, 2454.781
337.9651, 2455.439
338.4473, 2454.516
338.9294, 2450.697
339.4115, 2447.518
339.8936, 2448.051
340.3757, 2451.954
340.8578, 2456.780
341.3400, 2462.176
341.8221, 2467.544
342.3042, 2472.051
342.7863, 2475.659
343.2684, 2478.827
343.7505, 2481.905
344.2327, 2484.704
344.7148, 2486.539
345.1969, 2486.944
345.6790, 2487.218
346.1611, 2488.838
346.6432, 2491.608
347.1254, 2495.027
347.6075, 2499.304
348.0896, 2503.990
348.5717, 2508.679
349.0538, 2513.382
349.5359, 2517.523
350.0181, 2520.558
350.5002, 2522.635
350.9823, 2524.653
351.4644, 2526.987
351.9465, 2528.986
352.4286, 2529.437
352.9108, 2528.860
353.3929, 2529.977
353.8750, 2534.613
354.3571, 2541.258
354.8392, 2545.905
355.3214, 2547.207
355.8035, 2549.758
356.2856, 2557.194
356.7677, 2566.611
357.2498, 2572.151
357.7319, 2571.726
358.2141, 2569.509
358.6962, 2571.472
359.1783, 2578.367
359.6604, 2584.574
360.1425, 2589.711
360.6246, 2593.776
361.1068, 2596.239
361.5889, 2597.244
362.0710, 2598.265
362.5531, 2600.427
363.0352, 2603.812
363.5173, 2608.028
363.9995, 2614.377
364.4816, 2620.222
364.9637, 2623.819
365.4458, 2625.857
365.9279, 2628.102
366.4100, 2631.418
366.8922, 2635.654
367.3743, 2640.328
367.8564, 2645.684
368.3385, 2651.083
368.8206, 2656.721
369.3027, 2662.237
369.7849, 2667.222
370.2670, 2671.538
370.7491, 2675.268
371.2312, 2678.550
371.7133, 2681.446
372.1954, 2683.439
372.6776, 2682.963
373.1597, 2682.945
373.6418, 2685.435
374.1239, 2690.204
374.6060, 2695.660
375.0881, 2700.645
375.5703, 2705.161
376.0524, 2709.675
376.5345, 2714.942
377.0166, 2719.405
377.4987, 2721.805
377.9808, 2723.438
378.4630, 2726.100
378.9451, 2730.623
379.4272, 2736.617
379.9093, 2743.431
380.3914, 2753.724
380.8735, 2760.163
381.3557, 2759.409
381.8378, 2757.317
382.3199, 2757.947
382.8020, 2761.975
383.2841, 2767.849
383.7662, 2774.037
384.2484, 2780.660
384.7305, 2786.840
385.2126, 2792.406
385.6947, 2797.661
386.1768, 2802.819
386.6589, 2807.705
387.1411, 2811.844
387.6232, 2814.766
388.1053, 2817.049
388.5874, 2820.992
389.0695, 2828.132
389.5516, 2833.980
390.0338, 2835.957
390.5159, 2837.239
390.9980, 2841.199
391.4801, 2848.750
391.9622, 2856.993
392.4443, 2862.033
392.9265, 2863.442
393.4086, 2865.860
393.8907, 2870.540
394.3728, 2875.786
394.8549, 2880.918
395.3370, 2885.818
395.8192, 2890.229
396.3013, 2893.670
396.7834, 2896.517
397.2655, 2899.897
397.7476, 2903.743
398.2297, 2908.284
398.7119, 2914.652
399.1940, 2921.474
399.6761, 2926.625
400.1582, 2928.809
400.6403, 2930.879
401.1224, 2936.531
401.6046, 2945.509
402.0867, 2952.606
402.5688, 2955.275
403.0509, 2956.473
403.5330, 2959.769
404.0151, 2965.172
404.4973, 2970.940
404.9794, 2976.470
405.4615, 2981.831
405.9436, 2987.568
406.4257, 2993.914
406.9078, 2998.917
407.3900, 2999.656
407.8721, 2997.348
408.3542, 2998.359
408.8363, 3005.929
409.3184, 3014.429
409.8005, 3020.023
410.2827, 3023.446
410.7648, 3027.263
411.2469, 3032.663
411.7290, 3038.970
412.2111, 3044.758
412.6932, 3050.332
413.1754, 3054.762
413.6575, 3056.178
414.1396, 3057.260
414.6217, 3061.429
415.1038, 3069.022
415.5859, 3077.082
416.0681, 3082.785
416.5502, 3085.963
417.0323, 3087.986
417.5144, 3086.602
417.9965, 3086.559
418.4786, 3090.534
418.9608, 3097.174
419.4429, 3103.575
419.9250, 3108.188
420.4071, 3112.126
420.8892, 3118.704
421.3713, 3132.324
421.8535, 3141.735
422.3356, 3144.218
422.8177, 3144.430
423.2998, 3145.764
423.7819, 3148.739
424.2640, 3151.843
424.7462, 3153.135
425.2283, 3152.317
425.7104, 3154.239
426.1925, 3162.428
426.6746, 3169.615
427.1567, 3173.274
427.6389, 3174.686
428.1210, 3175.671
428.6031, 3176.933
429.0852, 3178.898
429.5673, 3182.784
430.0494, 3189.344
430.5316, 3195.135
431.0137, 3198.566
431.4958, 3201.472
431.9779, 3205.156
432.4600, 3209.638
432.9421, 3213.686
433.4243, 3215.973
433.9064, 3216.970
434.3885, 3218.809
434.8706, 3221.881
435.3527, 3225.137
435.8348, 3227.661
436.3170, 3229.949
436.7991, 3233.050
437.2812, 3238.066
437.7633, 3242.732
438.2454, 3243.902
438.7275, 3242.253
439.2097, 3242.829
439.6918, 3248.204
440.1739, 3255.273
440.6560, 3258.810
441.1381, 3258.459
441.6202, 3259.817
442.1024, 3266.650
442.5845, 3274.776
443.0666, 3278.968
443.5487, 3278.937
444.0308, 3278.321
444.5129, 3279.938
444.9951, 3283.443
445.4772, 3285.528
445.9593, 3284.416
446.4414, 3284.159
446.9235, 3287.152
447.4056, 3291.441
447.8878, 3293.972
448.3699, 3293.723
448.8520, 3292.059
449.3341, 3291.021
449.8162, 3290.858
450.2983, 3290.669
450.7805, 3289.341
451.2626, 3289.000
451.7447, 3291.610
452.2268, 3296.210
452.7089, 3300.398
453.1910, 3302.649
453.6732, 3303.052
454.1553, 3301.743
454.6374, 3297.153
455.1195, 3293.510
455.6016, 3290.205
456.0837, 3288.762
456.5659, 3291.852
457.0480, 3299.406
457.5301, 3306.641
458.0122, 3307.656
458.4943, 3302.612
458.9764, 3300.219
459.4586, 3302.551
459.9407, 3304.855
460.4228, 3304.242
460.9049, 3301.977
461.3870, 3300.428
461.8691, 3300.934
462.3513, 3301.638
462.8334, 3299.597
463.3155, 3294.971
463.7976, 3292.203
464.2797, 3294.036
464.7618, 3296.667
465.2440, 3294.690
465.7261, 3288.035
466.2082, 3282.434
466.6903, 3280.214
467.1724, 3279.842
467.6545, 3280.099
468.1367, 3280.756
468.6188, 3280.343
469.1009, 3277.605
469.5830, 3273.071
470.0651, 3269.371
470.5472, 3266.711
471.0294, 3264.503
471.5115, 3262.998
471.9936, 3261.692
472.4757, 3259.689
472.9578, 3256.839
473.4399, 3254.210
473.9221, 3253.351
474.4042, 3254.981
474.8863, 3254.067
475.3684, 3249.207
475.8505, 3243.600
476.3326, 3237.118
476.8148, 3230.965
477.2969, 3227.265
477.7790, 3227.135
478.2611, 3228.830
478.7432, 3228.589
479.2253, 3225.638
479.7075, 3222.961
480.1896, 3221.249
480.6717, 3219.620
481.1538, 3217.940
481.6359, 3215.996
482.1180, 3213.157
482.6002, 3208.381
483.0823, 3202.615
483.5644, 3198.734
484.0465, 3197.332
484.5286, 3195.708
485.0107, 3192.426
485.4929, 3188.406
485.9750, 3184.546
486.4571, 3180.856
486.9392, 3177.841
487.4213, 3176.264
487.9034, 3175.509
488.3856, 3174.215
488.8677, 3172.116
489.3498, 3169.792
489.8319, 3168.082
490.3140, 3166.714
490.7961, 3163.438
491.2783, 3155.796
491.7604, 3148.842
492.2425, 3145.270
492.7246, 3143.912
493.2067, 3142.977
493.6888, 3141.849
494.1710, 3139.730
494.6531, 3135.166
495.1352, 3126.774
495.6173, 3120.350
496.0994, 3117.423
496.5815, 3114.684
497.0637, 3110.514
497.5458, 3105.281
498.0279, 3099.981
498.5100, 3095.129
498.9921, 3090.750
499.4742, 3086.875
499.9564, 3083.658
500.4385, 3080.528
500.9206, 3077.277
501.4027, 3074.136
501.8848, 3071.315
502.3669, 3068.778
502.8491, 3066.368
503.3312, 3064.573
503.8133, 3062.700
504.2954, 3058.271
504.7775, 3050.575
505.2596, 3043.843
505.7418, 3040.573
506.2239, 3039.199
506.7060, 3037.576
507.1881, 3035.707
507.6702, 3033.175
508.1523, 3029.588
508.6345, 3025.265
509.1166, 3020.628
509.5987, 3015.717
510.0808, 3010.719
510.5629, 3005.531
511.0450, 3000.323
511.5272, 2996.634
512.0093, 2996.599
512.4914, 2995.303
512.9735, 2989.272
513.4556, 2981.975
513.9377, 2978.766
514.4199, 2980.780
514.9020, 2983.679
515.3841, 2981.892
515.8662, 2974.673
516.3483, 2967.986
516.8304, 2960.880
517.3126, 2955.424
517.7947, 2953.694
518.2768, 2953.578
518.7589, 2951.713
519.2410, 2946.673
519.7231, 2940.965
520.2053, 2938.915
520.6874, 2940.942
521.1695, 2940.233
521.6516, 2934.064
522.1337, 2927.263
522.6158, 2923.498
523.0980, 2921.787
523.5801, 2919.272
524.0622, 2914.175
524.5443, 2908.636
525.0264, 2904.804
525.5085, 2902.532
525.9907, 2901.656
526.4728, 2902.984
526.9549, 2903.747
527.4370, 2898.856
527.9191, 2886.977
528.4012, 2878.219
528.8834, 2876.146
529.3655, 2875.308
529.8476, 2871.435
530.3297, 2865.489
530.8118, 2861.268
531.2939, 2860.942
531.7761, 2862.652
532.2582, 2861.591
532.7403, 2855.763
533.2224, 2850.692
533.7045, 2846.760
534.1866, 2843.209
534.6688, 2839.694
535.1509, 2836.126
535.6330, 2832.417
536.1151, 2828.386
536.5972, 2824.333
537.0793, 2821.382
537.5615, 2820.164
538.0436, 2817.500
538.5257, 2810.625
539.0078, 2803.456
539.4899, 2799.925
539.9720, 2799.954
540.4542, 2799.563
540.9363, 2796.604
541.4184, 2792.231
541.9005, 2787.909
542.3826, 2783.713
542.8647, 2779.573
543.3469, 2775.325
543.8290, 2771.200
544.3111, 2767.824
544.7932, 2765.358
545.2753, 2763.108
545.7574, 2761.031
546.2396, 2759.053
546.7217, 2757.474
547.2038, 2756.020
547.6859, 2753.753
548.1680, 2749.956
548.6501, 2744.899
549.1323, 2739.564
549.6144, 2732.128
550.0965, 2727.789
550.5786, 2730.187
551.0607, 2733.087
551.5428, 2731.130
552.0250, 2724.719
552.5071, 2718.917
552.9892, 2717.994
553.4713, 2720.195
553.9534, 2720.504
554.4355, 2718.766
554.9177, 2715.753
555.3998, 2710.755
555.8819, 2705.336
556.3640, 2701.724
556.8461, 2700.182
557.3282, 2698.515
557.8104, 2695.844
558.2925, 2692.597
558.7746, 2689.333
559.2567, 2686.026
559.7388, 2682.238
560.2209, 2677.537
560.7031, 2672.381
561.1852, 2668.215
561.6673, 2665.211
562.1494, 2662.994
562.6315, 2663.101
563.1136, 2662.796
563.5958, 2659.437
564.0779, 2653.618
564.5600, 2648.047
565.0421, 2644.511
565.5242, 2642.806
566.0063, 2642.691
566.4885, 2645.189
566.9706, 2646.279
567.4527, 2644.501
567.9348, 2641.300
568.4169, 2637.246
568.8990, 2632.531
569.3812, 2627.716
569.8633, 2621.883
570.3454, 2616.815
570.8275, 2616.359
571.3096, 2620.120
571.7917, 2622.035
572.2739, 2619.226
572.7560, 2613.765
573.2381, 2609.119
573.7202, 2605.261
574.2023, 2602.201
574.6844, 2600.674
575.1666, 2599.309
575.6487, 2596.866
576.1308, 2593.789
576.6129, 2591.427
577.0950, 2590.497
577.5771, 2590.382
578.0593, 2589.817
578.5414, 2588.932
579.0235, 2587.200
579.5056, 2582.622
579.9877, 2579.018
580.4698, 2579.449
580.9520, 2582.146
581.4341, 2582.885
581.9162, 2579.394
582.3983, 2573.921
582.8804, 2568.925
583.3625, 2564.445
583.8447, 2561.344
584.3268, 2560.326
584.8089, 2559.605
585.2910, 2557.134
585.7731, 2553.134
586.2552, 2549.843
586.7374, 2547.328
587.2195, 2545.720
587.7016, 2545.791
588.1837, 2546.653
588.6658, 2547.121
589.1479, 2546.759
589.6301, 2544.978
590.1122, 2540.624
590.5943, 2533.180
591.0764, 2528.151
591.5585, 2527.148
592.0406, 2526.775
592.5228, 2527.169
593.0049, 2527.302
593.4870, 2525.713
593.9691, 2522.073
594.4512, 2518.186
594.9333, 2515.991
595.4155, 2515.020
595.8976, 2513.086
596.3797, 2509.806
596.8618, 2506.833
597.3439, 2505.762
597.8260, 2505.411
598.3082, 2502.885
598.7903, 2497.271
599.2724, 2491.838
599.7545, 2487.059
600.2366, 2483.340
600.7188, 2482.024
601.2009, 2482.590
601.6830, 2482.022
602.1651, 2478.043
602.6472, 2471.938
603.1293, 2468.630
603.6115, 2470.381
604.0936, 2470.763
604.5757, 2468.578
605.0578, 2465.719
605.5399, 2463.431
606.0220, 2461.516
606.5042, 2458.944
606.9863, 2454.965
607.4684, 2450.320
607.9505, 2445.825
608.4326, 2441.504
608.9147, 2438.731
609.3969, 2438.613
609.8790, 2438.781
610.3611, 2436.239
610.8432, 2431.261
611.3253, 2427.346
611.8074, 2426.308
612.2896, 2424.914
612.7717, 2421.041
613.2538, 2415.774
613.7359, 2410.750
614.2180, 2406.517
614.7001, 2403.253
615.1823, 2401.373
615.6644, 2400.989
616.1465, 2399.445
616.6286, 2396.064
617.1107, 2392.396
617.5928, 2389.146
618.0750, 2385.672
618.5571, 2380.715
619.0392, 2374.188
619.5213, 2368.727
620.0034, 2367.909
620.4855, 2369.217
620.9677, 2366.138
621.4498, 2358.257
621.9319, 2351.557
622.4140, 2349.521
622.8961, 2349.894
623.3782, 2347.754
623.8604, 2342.324
624.3425, 2337.242
624.8246, 2331.995
625.3067, 2328.053
625.7888, 2328.015
626.2709, 2330.003
626.7531, 2329.255
627.2352, 2323.382
627.7173, 2315.166
628.1994, 2309.696
628.6815, 2307.394
629.1636, 2305.493
629.6458, 2305.123
630.1279, 2303.424
630.6100, 2297.816
631.0921, 2290.329
631.5742, 2284.689
632.0563, 2282.215
632.5385, 2280.501
633.0206, 2278.336
633.5027, 2275.588
633.9848, 2271.810
634.4669, 2266.962
634.9490, 2261.801
635.4312, 2256.883
635.9133, 2252.086
636.3954, 2246.725
636.8775, 2239.298
637.3596, 2233.428
637.8417, 2229.652
638.3239, 2227.152
638.8060, 2226.255
639.2881, 2226.176
639.7702, 2225.036
640.2523, 2221.702
640.7344, 2216.714
641.2166, 2210.534
641.6987, 2203.015
642.1808, 2197.228
642.6629, 2194.443
643.1450, 2192.380
643.6271, 2188.780
644.1093, 2184.128
644.5914, 2180.324
645.0735, 2178.508
645.5556, 2176.605
646.0377, 2173.697
646.5198, 2170.098
647.0020, 2166.114
647.4841, 2161.897
647.9662, 2157.741
648.4483, 2153.912
648.9304, 2150.390
649.4125, 2146.937
649.8947, 2144.148
650.3768, 2140.316
650.8589, 2133.582
651.3410, 2127.016
651.8231, 2123.543
652.3052, 2122.551
652.7874, 2120.302
653.2695, 2114.163
653.7516, 2106.567
654.2337, 2100.199
654.7158, 2094.964
655.1979, 2090.503
655.6801, 2086.752
656.1622, 2083.546
656.6443, 2080.824
657.1264, 2078.650
657.6085, 2075.869
658.0906, 2072.097
658.5728, 2068.311
659.0549, 2065.213
659.5370, 2061.914
660.0191, 2056.870
660.5012, 2050.260
660.9833, 2044.414
661.4655, 2041.530
661.9476, 2040.677
662.4297, 2039.422
662.9118, 2037.937
663.3939, 2034.549
663.8760, 2027.674
664.3582, 2019.982
664.8403, 2014.848
665.3224, 2012.047
665.8045, 2009.144
666.2866, 2005.367
666.7687, 2001.800
667.2509, 1999.621
667.7330, 1997.881
668.2151, 1994.903
668.6972, 1990.305
669.1793, 1985.127
669.6614, 1980.334
670.1436, 1975.915
670.6257, 1971.762
671.1078, 1968.328
671.5899, 1964.197
672.0720, 1957.272
672.5541, 1950.651
673.0363, 1947.331
673.5184, 1947.127
674.0005, 1946.503
674.4826, 1943.755
674.9647, 1940.031
675.4468, 1936.036
675.9290, 1931.998
676.4111, 1928.800
676.8932, 1926.746
677.3753, 1924.585
677.8574, 1920.707
678.3395, 1915.004
678.8217, 1910.499
679.3038, 1908.649
679.7859, 1906.167
680.2680, 1902.531
680.7501, 1898.064
681.2322, 1892.588
681.7144, 1886.416
682.1965, 1880.843
682.6786, 1876.533
683.1607, 1873.534
683.6428, 1872.797
684.1249, 1873.934
684.6071, 1873.503
685.0892, 1870.279
685.5713, 1865.792
686.0534, 1861.662
686.5355, 1857.927
687.0176, 1853.964
687.4998, 1849.410
687.9819, 1845.096
688.4640, 1841.356
688.9461, 1837.875
689.4282, 1834.325
689.9103, 1830.673
690.3925, 1827.110
690.8746, 1824.016
691.3567, 1820.927
691.8388, 1816.249
692.3209, 1809.875
692.8030, 1805.015
693.2852, 1802.978
693.7673, 1801.880
694.2494, 1800.074
694.7315, 1797.538
695.2136, 1794.245
695.6957, 1788.817
696.1779, 1784.292
696.6600, 1782.726
697.1421, 1782.004
697.6242, 1779.659
698.1063, 1775.516
698.5884, 1771.012
699.0706, 1767.140
699.5527, 1763.863
700.0348, 1761.156
700.5169, 1759.109
700.9990, 1757.101
701.4811, 1755.250
701.9633, 1753.060
702.4454, 1748.929
702.9275, 1743.926
703.4096, 1741.969
703.8917, 1747.466
704.3738, 1750.719
704.8560, 1744.953
705.3381, 1736.311
705.8202, 1732.560
706.3023, 1733.935
706.7844, 1735.455
707.2665, 1733.670
707.7487, 1729.810
708.2308, 1727.527
708.7129, 1727.500
709.1950, 1725.738
709.6771, 1720.501
710.1592, 1715.133
710.6414, 1711.892
711.1235, 1710.063
711.6056, 1708.124
712.0877, 1705.598
712.5698, 1703.506
713.0519, 1702.525
713.5341, 1702.168
714.0162, 1702.397
714.4983, 1702.814
714.9804, 1702.066
715.4625, 1699.322
715.9446, 1695.329
716.4268, 1691.411
716.9089, 1687.267
717.3910, 1684.571
717.8731, 1684.271
718.3552, 1684.164
718.8373, 1683.173
719.3195, 1681.741
719.8016, 1680.573
720.2837, 1679.857
720.7658, 1678.830
721.2479, 1676.259
721.7300, 1673.807
722.2122, 1674.064
722.6943, 1676.179
723.1764, 1676.912
723.6585, 1674.849
724.1406, 1671.064
724.6227, 1666.524
725.1049, 1660.605
725.5870, 1660.221
726.0691, 1671.355
726.5512, 1678.255
727.0333, 1672.093
727.5154, 1661.405
727.9976, 1654.147
728.4797, 1651.052
728.9618, 1649.508
729.4439, 1649.381
729.9260, 1649.529
730.4081, 1648.906
730.8903, 1647.740
731.3724, 1646.619
731.8545, 1645.720
732.3366, 1644.924
732.8187, 1644.163
733.3008, 1643.397
733.7830, 1641.915
734.2651, 1638.790
734.7472, 1636.979
735.2293, 1638.706
735.7114, 1640.695
736.1935, 1640.619
736.6757, 1638.735
737.1578, 1636.578
737.6399, 1634.541
738.1220, 1632.458
738.6041, 1629.755
739.0862, 1627.130
739.5684, 1626.250
740.0505, 1627.004
740.5326, 1626.977
741.0147, 1624.235
741.4968, 1619.977
741.9789, 1618.099
742.4611, 1619.533
742.9432, 1619.844
743.4253, 1617.833
743.9074, 1615.613
744.3895, 1614.158
744.8716, 1613.381
745.3538, 1613.264
745.8359, 1614.071
746.3180, 1614.665
746.8001, 1614.428
747.2822, 1613.816
747.7643, 1613.119
748.2465, 1612.475
748.7286, 1612.208
749.2107, 1612.472
749.6928, 1612.808
750.1749, 1612.392
750.6570, 1611.161
751.1392, 1610.719
751.6213, 1611.727
752.1034, 1611.974
752.5855, 1610.040
753.0676, 1607.249
753.5497, 1605.027
754.0319, 1603.387
754.5140, 1602.528
754.9961, 1602.780
755.4782, 1603.513
755.9603, 1604.852
756.4424, 1606.212
756.9246, 1606.564
757.4067, 1605.815
757.8888, 1605.004
758.3709, 1605.150
758.8530, 1605.768
759.3351, 1605.061
759.8173, 1602.850
760.2994, 1600.750
760.7815, 1598.594
761.2636, 1597.616
761.7457, 1600.030
762.2278, 1604.738
762.7100, 1606.391
763.1921, 1602.766
763.6742, 1599.385
764.1563, 1596.804
764.6384, 1595.556
765.1205, 1596.888
765.6027, 1599.897
766.0848, 1602.310
766.5669, 1603.078
767.0490, 1603.004
767.5311, 1602.978
768.0132, 1603.005
768.4954, 1603.294
768.9775, 1603.961
769.4596, 1603.844
769.9417, 1602.038
770.4238, 1599.629
770.9059, 1598.562
771.3881, 1599.248
771.8702, 1599.663
772.3523, 1599.998
772.8344, 1599.836
773.3165, 1598.343
773.7986, 1596.680
774.2808, 1596.150
774.7629, 1596.896
775.2450, 1598.170
775.7271, 1599.867
776.2092, 1601.430
776.6913, 1602.023
777.1735, 1601.750
777.6556, 1600.634
778.1377, 1598.612
778.6198, 1597.523
779.1019, 1599.200
779.5840, 1602.939
780.0662, 1605.118
780.5483, 1605.201
781.0304, 1604.707
781.5125, 1603.459
781.9946, 1601.931
782.4767, 1600.131
782.9589, 1598.264
783.4410, 1596.635
783.9231, 1595.264
784.4052, 1594.388
784.8873, 1594.432
785.3694, 1594.860
785.8516, 1595.149
786.3337, 1595.233
786.8158, 1594.804
787.2979, 1593.762
787.7800, 1593.263
788.2621, 1595.408
788.7443, 1600.004
789.2264, 1600.497
789.7085, 1594.608
790.1906, 1591.076
790.6727, 1594.068
791.1548, 1598.852
791.6370, 1600.901
792.1191, 1600.499
792.6012, 1599.433
793.0833, 1597.169
793.5654, 1595.262
794.0475, 1594.909
794.5297, 1594.773
795.0118, 1593.433
795.4939, 1590.941
795.9760, 1588.076
796.4581, 1585.210
796.9402, 1582.522
797.4224, 1579.905
797.9045, 1577.565
798.3866, 1577.670
798.8687, 1580.803
799.3508, 1582.466
799.8329, 1579.910
800.3151, 1575.251
800.7972, 1572.504
801.2793, 1572.421
801.7614, 1571.250
802.2435, 1567.032
802.7256, 1564.231
803.2078, 1565.586
803.6899, 1568.073
804.1720, 1568.651
804.6541, 1567.052
805.1362, 1564.683
805.6183, 1561.781
806.1005, 1559.079
806.5826, 1557.489
807.0647, 1556.674
807.5468, 1556.047
808.0289, 1555.434
808.5110, 1554.449
808.9932, 1552.773
809.4753, 1550.676
809.9574, 1548.748
810.4395, 1546.852
810.9216, 1545.953
811.4037, 1547.725
811.8859, 1547.777
812.3680, 1542.175
812.8501, 1534.314
813.3322, 1529.096
813.8143, 1527.027
814.2964, 1525.398
814.7786, 1523.422
815.2607, 1521.879
815.7428, 1522.057
816.2249, 1522.561
816.7070, 1521.235
817.1891, 1517.873
817.6713, 1513.958
818.1534, 1510.260
818.6355, 1507.277
819.1176, 1506.939
819.5997, 1508.663
820.0818, 1507.522
820.5640, 1502.406
821.0461, 1496.450
821.5282, 1491.680
822.0103, 1487.859
822.4924, 1484.313
822.9745, 1480.859
823.4567, 1478.031
823.9388, 1476.781
824.4209, 1475.061
824.9030, 1472.043
825.3851, 1468.200
825.8672, 1463.798
826.3494, 1458.927
826.8315, 1455.048
827.3136, 1453.697
827.7957, 1452.824
828.2778, 1450.917
828.7599, 1448.191
829.2421, 1444.999
829.7242, 1441.472
830.2063, 1437.712
830.6884, 1433.691
831.1705, 1429.710
831.6526, 1426.651
832.1348, 1424.563
832.6169, 1422.088
833.0990, 1418.998
833.5811, 1415.674
834.0632, 1412.214
834.5453, 1408.721
835.0275, 1405.390
835.5096, 1402.311
835.9917, 1399.119
836.4738, 1396.310
836.9559, 1392.768
837.4380, 1387.244
837.9202, 1381.276
838.4023, 1376.654
838.8844, 1373.487
839.3665, 1370.477
839.8486, 1367.230
840.3307, 1363.445
840.8129, 1358.208
841.2950, 1352.423
841.7771, 1348.127
842.2592, 1345.436
842.7413, 1342.869
843.2234, 1339.540
843.7056, 1335.696
844.1877, 1331.868
844.6698, 1328.115
845.1519, 1323.755
845.6340, 1318.408
846.1161, 1313.571
846.5983, 1310.210
847.0804, 1307.325
847.5625, 1303.289
848.0446, 1297.971
848.5267, 1293.510
849.0089, 1291.235
849.4910, 1288.223
849.9731, 1282.522
850.4552, 1276.597
850.9373, 1273.044
851.4194, 1271.337
851.9016, 1269.049
852.3837, 1265.019
852.8658, 1260.484
853.3479, 1256.738
853.8300, 1253.145
854.3121, 1248.195
854.7943, 1242.202
855.2764, 1237.257
855.7585, 1234.301
856.2406, 1231.698
856.7227, 1227.029
857.2048, 1220.581
857.6870, 1216.048
858.1691, 1213.964
858.6512, 1211.827
859.1333, 1209.346
859.6154, 1206.125
860.0975, 1201.769
860.5797, 1196.333
861.0618, 1190.146
861.5439, 1181.669
862.0260, 1175.048
862.5081, 1171.703
862.9902, 1169.311
863.4724, 1167.288
863.9545, 1164.971
864.4366, 1161.404
864.9187, 1156.357
865.4008, 1150.846
865.8829, 1145.221
866.3651, 1139.726
866.8472, 1134.475
867.3293, 1129.557
867.8114, 1125.272
868.2935, 1121.594
868.7756, 1117.727
869.2578, 1112.993
869.7399, 1107.903
870.2220, 1103.985
870.7041, 1101.335
871.1862, 1097.667
871.6683, 1092.528
872.1505, 1087.281
872.6326, 1082.486
873.1147, 1078.163
873.5968, 1074.458
874.0789, 1071.629
874.5610, 1068.012
875.0432, 1062.888
875.5253, 1058.003
876.0074, 1054.029
876.4895, 1050.237
876.9716, 1046.158
877.4537, 1041.674
877.9359, 1036.452
878.4180, 1029.838
878.9001, 1023.777
879.3822, 1019.832
879.8643, 1016.782
880.3464, 1013.673
880.8286, 1010.158
881.3107, 1005.397
881.7928, 999.2075
882.2749, 993.1631
882.7570, 989.2433
883.2391, 986.6989
883.7213, 982.9977
884.2034, 978.2445
884.6855, 974.3380
885.1676, 971.8332
885.6497, 969.5073
886.1318, 966.5775
886.6140, 962.8655
887.0961, 957.5436
887.5782, 949.2602
888.0603, 942.8223
888.5424, 938.8460
889.0245, 935.9137
889.5067, 934.9539
889.9888, 933.8212
890.4709, 929.1536
890.9530, 920.8814
891.4351, 914.9340
891.9172, 914.6212
892.3994, 914.2081
892.8815, 911.2396
893.3636, 907.1747
893.8457, 903.4249
894.3278, 899.9429
894.8099, 895.8629
895.2921, 890.7123
895.7742, 885.8123
896.2563, 883.1365
896.7384, 881.1840
897.2205, 876.8044
897.7026, 870.6937
898.1848, 866.2913
898.6669, 864.5945
899.1490, 863.5657
899.6311, 861.2947
900.1132, 857.9724
900.5953, 854.0607
901.0775, 849.4224
901.5596, 846.1042
902.0417, 845.0218
902.5238, 843.0895
903.0059, 837.9178
903.4880, 831.2889
903.9702, 826.8721
904.4523, 825.2200
904.9344, 823.5861
905.4165, 821.9278
905.8986, 820.3311
906.3807, 818.9869
906.8629, 817.5528
907.3450, 815.5670
907.8271, 813.1965
908.3092, 811.2912
908.7913, 810.7039
909.2734, 809.2548
909.7556, 804.5943
910.2377, 799.8397
910.7198, 798.7531
911.2019, 799.4767
911.6840, 797.7269
912.1661, 792.4225
912.6483, 786.6161
913.1304, 782.6504
913.6125, 779.9022
914.0946, 777.7786
914.5767, 776.0222
915.0588, 773.6443
915.5410, 770.5619
916.0231, 767.8314
916.5052, 766.1259
916.9873, 765.0369
917.4694, 763.8011
917.9515, 762.4122
918.4337, 760.9833
918.9158, 759.5504
919.3979, 757.8067
919.8800, 755.3769
920.3621, 753.2062
920.8442, 752.7174
921.3264, 753.5831
921.8085, 752.3331
922.2906, 747.0014
922.7727, 742.7591
923.2548, 739.7933
923.7369, 737.9521
924.2191, 738.2272
924.7012, 739.1232
925.1833, 738.2374
925.6654, 735.2267
926.1475, 732.4460
926.6296, 730.8837
927.1118, 729.3873
927.5939, 726.9437
928.0760, 724.5518
928.5581, 723.4647
929.0402, 723.4909
929.5223, 723.7147
930.0045, 723.8383
930.4866, 723.3183
930.9687, 720.8356
931.4508, 717.8808
931.9329, 717.2884
932.4150, 718.3033
932.8972, 718.1246
933.3793, 716.0635
933.8614, 713.7246
934.3435, 712.5313
934.8256, 711.9795
935.3077, 710.7997
935.7899, 709.0445
936.2720, 707.4581
936.7541, 706.1533
937.2362, 704.6302
937.7183, 702.4791
938.2004, 700.5362
938.6826, 700.2160
939.1647, 701.5728
939.6468, 702.0439
940.1289, 701.4724
940.6110, 700.3934
941.0931, 698.7745
941.5753, 696.8484
942.0574, 694.5664
942.5395, 692.1354
943.0216, 690.0015
943.5037, 687.9786
943.9858, 686.8551
944.4680, 687.6875
944.9501, 688.2261
945.4322, 687.2377
945.9143, 685.8308
946.3964, 685.2375
946.8785, 685.3730
947.3607, 685.2836
947.8428, 684.6055
948.3249, 683.7415
948.8070, 682.9868
949.2891, 682.0729
949.7712, 680.4470
950.2534, 678.5514
950.7355, 677.4207
951.2176, 677.2336
951.6997, 676.9770
952.1818, 675.5450
952.6639, 674.0779
953.1461, 674.7479
953.6282, 676.4401
954.1103, 676.1746
954.5924, 673.9854
955.0745, 672.4074
955.5566, 672.7042
956.0388, 673.5246
956.5209, 672.9916
957.0030, 671.3831
957.4851, 670.0829
957.9672, 669.0857
958.4493, 668.1659
958.9315, 667.3049
959.4136, 666.1629
959.8957, 664.3539
960.3778, 662.3427
960.8599, 661.3936
961.3420, 661.7432
961.8242, 662.0202
962.3063, 662.4350
962.7884, 662.2318
963.2705, 661.0086
963.7526, 659.2502
964.2347, 657.1243
964.7169, 654.8022
965.1990, 653.5347
965.6811, 653.8837
966.1632, 654.4514
966.6453, 656.0827
967.1274, 656.9623
967.6096, 655.8416
968.0917, 653.8289
968.5738, 652.0557
969.0559, 650.6663
969.5380, 650.1418
970.0201, 651.4798
970.5023, 652.5138
970.9844, 652.3697
971.4665, 651.7222
971.9486, 651.0504
972.4307, 650.3274
972.9128, 649.2739
973.3950, 647.8331
973.8771, 646.6490
974.3592, 646.3008
974.8413, 646.1624
975.3234, 645.6150
975.8055, 644.9576
976.2877, 644.8029
976.7698, 645.0081
977.2519, 644.7690
977.7340, 643.6951
978.2161, 642.5025
978.6982, 641.9934
979.1804, 641.8820
979.6625, 641.5295
980.1446, 641.0980
980.6267, 641.2719
981.1088, 642.1335
981.5909, 643.1248
982.0731, 643.9188
982.5552, 644.2851
983.0373, 643.7014
983.5194, 642.2714
984.0015, 640.4821
984.4836, 638.3564
984.9658, 637.3575
985.4479, 638.0562
985.9300, 638.9682
986.4121, 638.6813
986.8942, 637.5917
987.3763, 637.1387
987.8585, 637.4100
988.3406, 637.8120
988.8227, 638.4540
989.3048, 638.7164
989.7869, 638.2239
990.2690, 637.4340
990.7512, 636.7796
991.2333, 636.2945
991.7154, 636.5228
992.1975, 638.2620
992.6796, 638.9930
993.1617, 637.9471
993.6439, 636.7033
994.1260, 635.9024
994.6081, 635.3867
995.0902, 634.9482
995.5723, 634.5895
996.0544, 634.2812
996.5366, 633.9055
997.0187, 633.7508
997.5008, 634.0970
997.9829, 634.4424
998.4650, 634.6396
998.9471, 634.5638
999.4293, 633.9014
999.9114, 632.5741
1000.393, 631.5118
1000.876, 630.4835
1001.358, 630.3909
1001.840, 632.6296
1002.322, 635.1078
1002.804, 636.1035
1003.286, 635.7736
1003.768, 634.6029
1004.250, 632.6423
1004.733, 631.4788
1005.215, 632.5285
1005.697, 634.0931
1006.179, 635.1498
1006.661, 635.8057
1007.143, 636.0853
1007.625, 636.1472
1008.107, 636.4368
1008.589, 637.1684
1009.072, 637.7292
1009.554, 637.3955
1010.036, 636.7769
1010.518, 636.5905
1011.000, 636.6829
1011.482, 636.7821
1011.964, 636.7945
1012.446, 636.6135
1012.929, 636.1683
1013.411, 635.6074
1013.893, 634.8902
1014.375, 634.2929
1014.857, 634.5981
1015.339, 635.5305
1015.821, 635.9385
1016.303, 635.6723
1016.785, 635.7653
1017.268, 636.9245
1017.750, 638.8129
1018.232, 641.6025
1018.714, 644.6548
1019.196, 644.8154
1019.678, 642.3553
1020.160, 640.4431
1020.642, 639.9481
1021.125, 640.0481
1021.607, 640.1482
1022.089, 640.1442
1022.571, 639.6055
1023.053, 638.5934
1023.535, 638.3873
1024.017, 639.0416
1024.499, 640.3463
1024.981, 642.3091
1025.464, 644.4922
1025.946, 646.6669
1026.428, 648.4411
1026.910, 648.3132
1027.392, 646.0180
1027.874, 644.1482
1028.356, 642.5193
1028.838, 642.9170
1029.321, 646.6185
1029.803, 650.6324
1030.285, 652.0258
1030.767, 651.3077
1031.249, 650.6303
1031.731, 649.7028
1032.213, 650.0559
1032.695, 652.3591
1033.177, 654.2851
1033.660, 654.7866
1034.142, 654.8964
1034.624, 655.7334
1035.106, 657.1329
1035.588, 658.0340
1036.070, 658.2719
1036.552, 658.3869
1037.034, 658.1798
1037.516, 658.2410
1037.999, 659.1529
1038.481, 660.0424
1038.963, 659.6965
1039.445, 658.3787
1039.927, 658.1306
1040.409, 659.4734
1040.891, 660.9869
1041.373, 663.4977
1041.855, 665.1081
1042.338, 663.9388
1042.820, 662.3887
1043.302, 663.3445
1043.784, 666.3840
1044.266, 668.1982
1044.748, 667.9625
1045.230, 667.7286
1045.712, 667.3761
1046.195, 667.3134
1046.677, 667.4324
1047.159, 668.1140
1047.641, 670.4382
1048.123, 673.9498
1048.605, 675.5873
1049.087, 673.3751
1049.569, 672.2952
1050.052, 673.7018
1050.534, 675.6107
1051.016, 677.4647
1051.498, 679.1032
1051.980, 680.2070
1052.462, 680.9115
1052.944, 682.0502
1053.426, 684.0268
1053.908, 685.9240
1054.391, 687.8088
1054.873, 689.2418
1055.355, 689.5979
1055.837, 689.6691
1056.319, 690.5058
1056.801, 691.9695
1057.283, 692.8952
1057.765, 692.5070
1058.248, 692.7661
1058.730, 694.7673
1059.212, 696.9804
1059.694, 698.7322
1060.176, 700.1123
1060.658, 701.2390
1061.140, 702.1547
1061.622, 702.9039
1062.104, 703.3640
1062.587, 704.0385
1063.069, 705.1097
1063.551, 706.4381
1064.033, 708.3480
1064.515, 710.1851
1064.997, 710.9963
1065.479, 711.0256
1065.961, 711.4160
1066.443, 712.4844
1066.926, 713.9557
1067.408, 716.0892
1067.890, 718.1609
1068.372, 719.8330
1068.854, 721.1449
1069.336, 722.0785
1069.818, 722.7221
1070.300, 723.1337
1070.782, 723.0687
1071.265, 724.0972
1071.747, 728.1687
1072.229, 732.0905
1072.711, 733.4680
1073.193, 734.0460
1073.675, 736.0447
1074.157, 738.9562
1074.639, 740.7099
1075.122, 740.6069
1075.604, 740.3224
1076.086, 740.1984
1076.568, 740.6229
1077.050, 742.1182
1077.532, 744.0429
1078.014, 745.7204
1078.496, 747.2543
1078.979, 749.0631
1079.461, 751.2588
1079.943, 753.6582
1080.425, 756.6991
1080.907, 759.2565
1081.389, 760.0920
1081.871, 760.6638
1082.353, 762.5436
1082.835, 765.2281
1083.318, 767.3115
1083.800, 768.4846
1084.282, 769.9092
1084.764, 772.1556
1085.246, 774.6907
1085.728, 777.8752
1086.210, 780.6615
1086.692, 781.5920
1087.175, 781.6874
1087.657, 782.6471
1088.139, 784.8154
1088.621, 787.9708
1089.103, 793.6465
1089.585, 798.0106
1090.067, 798.3968
1090.549, 797.8438
1091.031, 797.8924
1091.514, 798.9702
1091.996, 801.7454
1092.478, 806.0778
1092.960, 810.4227
1093.442, 814.8633
1093.924, 818.1164
1094.406, 819.1083
1094.888, 819.4428
1095.370, 819.7664
1095.853, 820.3293
1096.335, 821.3204
1096.817, 822.7687
1097.299, 824.6727
1097.781, 827.1867
1098.263, 829.7856
1098.745, 832.6970
1099.227, 835.2048
1099.709, 836.0908
1100.192, 837.0374
1100.674, 840.3605
1101.156, 845.3193
1101.638, 848.9471
1102.120, 850.3303
1102.602, 851.7209
1103.084, 852.9911
1103.566, 855.2220
1104.049, 860.3194
1104.531, 865.2225
1105.013, 866.2684
1105.495, 865.3230
1105.977, 867.3221
1106.459, 873.3864
1106.941, 878.7221
1107.423, 881.9697
1107.906, 885.1976
1108.388, 889.2927
1108.870, 893.1761
1109.352, 895.9096
1109.834, 898.0401
1110.316, 900.6527
1110.798, 902.7513
1111.280, 904.5223
1111.762, 906.9792
1112.245, 908.2424
1112.727, 910.4671
1113.209, 913.3384
1113.691, 916.7586
1114.173, 920.6934
1114.655, 925.5521
1115.137, 931.1605
1115.619, 935.3923
1116.102, 936.6882
1116.584, 939.3690
1117.066, 944.8270
1117.548, 949.6219
1118.030, 951.6661
1118.512, 953.5865
1118.994, 958.4854
1119.476, 960.9079
1119.958, 964.2814
1120.441, 969.2080
1120.923, 971.6716
1121.405, 978.3114
1121.887, 984.1677
1122.369, 987.4272
1122.851, 990.6166
1123.333, 995.8584
1123.815, 1002.048
1124.297, 1006.637
1124.780, 1009.426
1125.262, 1013.023
1125.744, 1017.451
1126.226, 1022.793
1126.708, 1029.598
1127.190, 1035.448
1127.672, 1038.777
1128.154, 1040.998
1128.636, 1044.109
1129.119, 1048.038
1129.601, 1052.240
1130.083, 1056.784
1130.565, 1060.850
1131.047, 1064.217
1131.529, 1068.302
1132.011, 1073.712
1132.493, 1079.568
1132.976, 1084.964
1133.458, 1090.161
1133.940, 1096.349
1134.422, 1100.632
1134.904, 1107.799
1135.386, 1109.793
1135.868, 1112.788
1136.350, 1117.728
1136.833, 1123.504
1137.315, 1129.416
1137.797, 1135.360
1138.279, 1141.196
1138.761, 1146.901
1139.243, 1151.918
1139.725, 1156.666
1140.207, 1163.810
1140.689, 1173.094
1141.172, 1179.434
1141.654, 1180.494
1142.136, 1181.503
1142.618, 1189.031
1143.100, 1191.940
1143.582, 1203.014
1144.064, 1204.484
1144.546, 1210.448
1145.029, 1219.869
1145.511, 1226.780
1145.993, 1229.890
1146.475, 1234.138
1146.957, 1243.411
1147.439, 1253.786
1147.921, 1262.154
1148.403, 1268.818
1148.885, 1272.904
1149.368, 1276.064
1149.850, 1281.097
1150.332, 1288.083
1150.814, 1295.402
1151.296, 1302.427
1151.778, 1309.205
1152.260, 1315.712
1152.742, 1321.984
1153.224, 1327.432
1153.707, 1333.243
1154.189, 1341.567
1154.671, 1351.055
1155.153, 1357.993
1155.635, 1361.623
1156.117, 1366.870
1156.599, 1377.135
1157.081, 1386.614
1157.563, 1392.298
1158.046, 1397.977
1158.528, 1406.356
1159.010, 1415.866
1159.492, 1424.480
1159.974, 1432.118
1160.456, 1439.622
1160.938, 1446.335
1161.420, 1454.299
1161.903, 1464.985
1162.385, 1474.889
1162.867, 1482.568
1163.349, 1489.699
1163.831, 1497.457
1164.313, 1505.709
1164.795, 1514.131
1165.277, 1522.853
1165.760, 1530.643
1166.242, 1536.536
1166.724, 1544.969
1167.206, 1557.608
1167.688, 1569.357
1168.170, 1577.157
1168.652, 1584.066
1169.134, 1594.349
1169.616, 1600.881
1170.099, 1614.469
1170.581, 1617.376
1171.063, 1624.374
1171.545, 1636.056
1172.027, 1647.866
1172.509, 1658.500
1172.991, 1669.293
1173.473, 1681.446
1173.956, 1693.443
1174.438, 1702.125
1174.920, 1708.664
1175.402, 1716.464
1175.884, 1725.470
1176.366, 1735.742
1176.848, 1746.965
1177.330, 1757.399
1177.813, 1766.380
1178.295, 1775.563
1178.777, 1786.450
1179.259, 1798.480
1179.741, 1812.238
1180.223, 1825.744
1180.705, 1834.883
1181.187, 1841.821
1181.669, 1851.391
1182.151, 1864.132
1182.634, 1877.216
1183.116, 1889.546
1183.598, 1901.112
1184.080, 1910.679
1184.562, 1920.816
1185.044, 1933.918
1185.526, 1947.878
1186.008, 1960.548
1186.490, 1972.245
1186.973, 1984.191
1187.455, 1996.530
1187.937, 2009.196
1188.419, 2022.642
1188.901, 2035.805
1189.383, 2047.658
1189.865, 2060.222
1190.347, 2075.130
1190.830, 2090.729
1191.312, 2105.661
1191.794, 2119.743
1192.276, 2131.983
1192.758, 2141.323
1193.240, 2152.525
1193.722, 2165.810
1194.204, 2180.462
1194.687, 2196.842
1195.169, 2212.848
1195.651, 2227.148
1196.133, 2240.507
1196.615, 2253.978
1197.097, 2267.722
1197.579, 2283.921
1198.061, 2296.339
1198.543, 2315.701
1199.026, 2323.835
1199.508, 2334.480
1199.990, 2350.136
1200.472, 2368.140
1200.954, 2386.542
1201.436, 2404.587
1201.918, 2421.657
1202.400, 2437.360
1202.883, 2448.577
1203.365, 2458.532
1203.847, 2475.660
1204.329, 2499.069
1204.811, 2521.964
1205.293, 2541.664
1205.775, 2558.400
1206.257, 2570.524
1206.740, 2582.260
1207.222, 2596.920
1207.704, 2612.336
1208.186, 2625.877
1208.668, 2639.247
1209.150, 2655.277
1209.632, 2673.932
1210.114, 2693.598
1210.596, 2714.819
1211.078, 2733.841
1211.561, 2746.743
1212.043, 2761.986
1212.525, 2784.505
1213.007, 2807.567
1213.489, 2826.501
1213.971, 2843.569
1214.453, 2862.155
1214.935, 2882.129
1215.417, 2901.266
1215.900, 2921.258
1216.382, 2938.562
1216.864, 2961.343
1217.346, 2983.145
1217.828, 3002.873
1218.310, 3020.166
1218.792, 3034.442
1219.274, 3048.219
1219.757, 3067.151
1220.239, 3083.474
1220.721, 3102.019
1221.203, 3122.201
1221.685, 3141.363
1222.167, 3164.968
1222.649, 3186.812
1223.131, 3204.901
1223.614, 3222.000
1224.096, 3239.630
1224.578, 3259.022
1225.060, 3282.636
1225.542, 3307.774
1226.024, 3332.171
1226.506, 3355.081
1226.988, 3375.013
1227.470, 3392.622
1227.953, 3409.853
1228.435, 3427.066
1228.917, 3445.274
1229.399, 3465.131
1229.881, 3485.457
1230.363, 3505.792
1230.845, 3526.790
1231.327, 3549.417
1231.810, 3572.492
1232.292, 3594.677
1232.774, 3616.194
1233.256, 3637.891
1233.738, 3658.617
1234.220, 3680.815
1234.702, 3699.154
1235.184, 3717.902
1235.667, 3737.157
1236.149, 3758.724
1236.631, 3784.056
1237.113, 3809.149
1237.595, 3828.832
1238.077, 3852.011
1238.559, 3872.779
1239.041, 3892.446
1239.523, 3913.402
1240.005, 3933.425
1240.488, 3954.009
1240.970, 3973.264
1241.452, 3994.973
1241.934, 4013.910
1242.416, 4033.649
1242.898, 4058.240
1243.380, 4084.394
1243.862, 4109.958
1244.344, 4134.405
1244.827, 4156.453
1245.309, 4177.540
1245.791, 4200.053
1246.273, 4224.099
1246.755, 4248.667
1247.237, 4274.736
1247.719, 4297.083
1248.201, 4310.338
1248.684, 4325.781
1249.166, 4347.571
1249.648, 4371.504
1250.130, 4396.146
1250.612, 4420.516
1251.094, 4443.029
1251.576, 4464.250
1252.058, 4488.314
1252.541, 4507.312
1253.023, 4536.695
1253.505, 4547.591
1253.987, 4563.022
1254.469, 4586.253
1254.951, 4614.390
1255.433, 4646.055
1255.915, 4676.622
1256.397, 4700.424
1256.880, 4719.428
1257.362, 4734.560
1257.844, 4749.227
1258.326, 4771.384
1258.808, 4798.495
1259.290, 4823.700
1259.772, 4846.088
1260.254, 4869.497
1260.737, 4895.712
1261.219, 4920.606
1261.701, 4941.890
1262.183, 4961.476
1262.665, 4976.560
1263.147, 4994.375
1263.629, 5023.390
1264.111, 5056.302
1264.594, 5082.907
1265.076, 5103.649
1265.558, 5123.160
1266.040, 5140.778
1266.522, 5159.236
1267.004, 5177.685
1267.486, 5200.957
1267.968, 5231.576
1268.450, 5259.042
1268.932, 5277.625
1269.415, 5293.579
1269.897, 5314.401
1270.379, 5331.426
1270.861, 5354.475
1271.343, 5368.401
1271.825, 5385.479
1272.307, 5405.591
1272.789, 5428.307
1273.271, 5452.483
1273.754, 5474.618
1274.236, 5493.508
1274.718, 5510.142
1275.200, 5522.372
1275.682, 5536.852
1276.164, 5557.330
1276.646, 5581.669
1277.128, 5613.415
1277.611, 5644.177
1278.093, 5662.425
1278.575, 5671.800
1279.057, 5685.392
1279.539, 5704.717
1280.021, 5721.294
1280.503, 5731.020
1280.985, 5746.887
1281.468, 5773.451
1281.950, 5800.937
1282.432, 5826.127
1282.914, 5847.491
1283.396, 5863.208
1283.878, 5877.873
1284.360, 5901.435
1284.842, 5927.660
1285.324, 5939.821
##END=



