##NAMES=Fluorite
##RRUFFID=R050115
##IDEAL CHEMISTRY=CaF_2_
##LOCALITY=Isthak Valley Iskardu, N.A. Gilgit, Pakistan
##OWNER=RRUFF
##SOURCE=Syed Shah
##DESCRIPTION=Colorless fragment
##STATUS=The identification of this mineral has been confirmed by X-ray diffraction and chemical analysis
##URL=rruff.info/R050115
##MEASURED CHEMISTRY=CaF_2_
110.082, 0.000
111.473, 1.125
112.864, 20.209
114.254, 20.041
115.644, 161.271
117.034, 216.695
118.424, 105.535
119.813, 32.313
121.203, 126.663
122.592, 43.330
123.981, 48.076
125.369, 136.734
126.758, 64.162
128.146, 149.483
129.534, 180.467
130.922, 360.896
132.309, 419.937
133.696, 591.516
135.083, 771.403
136.470, 1218.565
137.857, 1477.989
139.243, 1876.661
140.630, 2050.801
142.016, 2175.914
143.401, 2250.236
144.787, 2269.758
146.172, 1942.375
147.557, 1489.073
148.942, 965.951
150.327, 722.008
151.711, 452.246
153.096, 268.783
154.480, 230.253
155.863, 178.790
157.247, 104.952
158.630, 159.771
160.013, 120.732
161.396, 151.827
162.779, 78.047
164.161, 174.385
165.544, 161.835
166.926, 75.391
168.308, 41.046
169.689, 27.696
171.070, 3.363
172.452, 20.563
173.833, 51.572
175.213, 76.660
176.594, 22.824
177.974, 12.940
179.354, 35.366
180.734, 59.739
182.114, 38.823
183.493, 18.678
184.872, 36.237
186.251, 33.857
187.630, 93.609
189.008, 61.617
190.387, 27.522
191.765, 30.674
193.143, 48.907
194.520, 53.157
195.898, 37.573
197.275, 42.728
198.652, 22.061
200.029, 106.428
201.405, 37.154
202.782, 25.319
204.158, 9.146
205.534, 22.448
206.909, 104.113
208.285, 3.802
209.660, 97.524
211.035, 139.284
212.410, 77.065
213.784, 287.866
215.159, 277.693
216.533, 387.541
217.907, 413.407
219.281, 548.292
220.654, 716.195
222.027, 732.117
223.400, 876.059
224.773, 817.021
226.146, 824.006
227.518, 703.010
228.891, 692.030
230.263, 699.068
231.634, 805.129
233.006, 847.212
234.377, 760.316
235.748, 879.438
237.119, 913.578
238.490, 995.735
239.860, 1209.912
241.231, 1210.111
242.601, 1127.331
243.970, 1038.571
245.340, 863.832
246.709, 809.110
248.079, 751.406
249.448, 738.355
250.816, 719.016
252.185, 826.389
253.553, 740.749
254.921, 830.123
256.289, 890.511
257.657, 1118.917
259.024, 1328.337
260.391, 1512.822
261.758, 1636.276
263.125, 1494.771
264.492, 1340.972
265.858, 1356.198
267.224, 1261.283
268.590, 1374.682
269.956, 1404.252
271.321, 1509.050
272.687, 1703.466
274.052, 1670.562
275.416, 1633.071
276.781, 1735.425
278.146, 1893.403
279.510, 1857.828
280.874, 2011.544
282.237, 1848.916
283.601, 2067.469
284.964, 1844.728
286.327, 1841.931
287.690, 1979.921
289.053, 1826.558
290.416, 1763.769
291.778, 1749.750
293.140, 1677.772
294.502, 1813.747
295.863, 1630.323
297.225, 1708.297
298.586, 1629.377
299.947, 1474.896
301.308, 1559.811
302.668, 1435.522
304.029, 1362.277
305.389, 1583.245
306.749, 1473.058
308.108, 1425.976
309.468, 1677.261
310.827, 1599.852
312.186, 1879.937
313.545, 1982.502
314.903, 2370.396
316.262, 2822.261
317.620, 3254.400
318.978, 3759.483
320.336, 4054.228
321.693, 3873.151
323.051, 3453.913
324.408, 2940.867
325.765, 2387.684
327.121, 2272.527
328.478, 1807.408
329.834, 1562.320
331.190, 1422.258
332.546, 1380.231
333.902, 1102.233
335.257, 1299.225
336.612, 1117.283
337.967, 1113.374
339.322, 1049.496
340.677, 1009.652
342.031, 1116.621
343.385, 972.824
344.739, 1048.048
346.093, 945.414
347.446, 878.673
348.799, 887.939
350.153, 953.259
351.505, 977.542
352.858, 1012.832
354.210, 987.131
355.563, 959.438
356.915, 884.757
358.267, 884.087
359.618, 951.606
360.969, 875.043
362.321, 957.421
363.672, 893.816
365.022, 860.648
366.373, 811.062
367.723, 709.727
369.073, 842.200
370.423, 695.604
371.773, 657.999
373.122, 545.388
374.471, 508.076
375.821, 498.886
377.169, 507.940
378.518, 510.301
379.866, 386.688
381.215, 377.088
382.563, 475.456
383.910, 434.806
385.258, 226.151
386.605, 371.500
387.952, 410.866
389.299, 230.468
390.646, 338.897
391.992, 280.257
393.339, 169.608
394.685, 137.973
396.031, 105.333
397.376, 265.702
398.722, 150.068
400.067, 178.440
401.412, 98.986
402.757, 42.771
404.101, 119.152
405.446, 71.535
406.790, 71.204
408.134, 0.626
409.478, 20.396
410.821, 45.996
412.165, 45.467
413.508, 44.620
414.851, 75.316
416.193, 51.012
417.536, 34.341
418.878, 17.560
420.220, 68.480
421.562, 34.938
422.904, 21.524
424.245, 61.675
425.586, 23.227
426.927, 37.521
428.268, 25.141
429.609, 62.238
430.949, 117.146
432.289, 10.083
433.629, 42.213
434.969, 9.133
436.309, 3.193
437.648, 53.385
438.987, 20.845
440.326, 37.964
441.665, 64.197
443.003, 20.550
444.342, 108.143
445.680, 42.397
447.018, 1.916
448.355, 54.508
449.693, 73.843
451.030, 39.224
452.367, 52.464
453.704, 117.394
455.041, 101.024
456.377, 16.000
457.713, 45.063
459.049, 13.600
460.385, 57.737
461.721, 66.962
463.056, 51.316
464.391, 54.669
465.726, 15.356
467.061, 66.422
468.395, 31.021
469.730, 4.019
471.064, 150.533
472.398, 45.471
473.731, 242.390
475.065, 115.318
476.398, 135.106
477.731, 79.869
479.064, 105.243
480.397, 194.856
481.729, 164.163
483.062, 245.289
484.394, 180.621
485.725, 349.086
487.057, 245.487
488.389, 373.514
489.720, 289.911
491.051, 320.682
492.382, 427.412
493.712, 327.695
495.043, 279.398
496.373, 388.605
497.703, 296.070
499.032, 464.349
500.362, 412.651
501.691, 412.729
503.020, 325.771
504.349, 335.972
505.678, 462.916
507.007, 373.059
508.335, 407.274
509.663, 309.135
510.991, 398.331
512.319, 534.042
513.646, 352.095
514.973, 452.268
516.300, 442.836
517.627, 490.075
518.954, 403.425
520.280, 334.203
521.607, 529.812
522.933, 417.606
524.259, 311.534
525.584, 415.465
526.910, 284.380
528.235, 364.973
529.560, 471.073
530.885, 448.100
532.209, 467.748
533.534, 318.922
534.858, 455.715
536.182, 367.431
537.506, 463.030
538.829, 396.782
540.152, 397.308
541.476, 407.544
542.799, 507.984
544.121, 452.335
545.444, 476.723
546.766, 428.985
548.088, 379.648
549.410, 424.152
550.732, 457.082
552.053, 491.297
553.375, 507.415
554.696, 533.567
556.017, 523.710
557.337, 551.917
558.658, 476.619
559.978, 434.484
561.298, 380.821
562.618, 524.025
563.938, 508.320
565.257, 436.448
566.576, 562.952
567.895, 446.245
569.214, 507.579
570.533, 668.365
571.851, 493.656
573.170, 517.499
574.488, 675.476
575.805, 616.594
577.123, 596.101
578.440, 550.631
579.758, 470.735
581.075, 657.698
582.391, 550.230
583.708, 731.566
585.024, 620.569
586.341, 577.492
587.657, 596.019
588.972, 733.490
590.288, 840.616
591.603, 718.644
592.918, 660.106
594.233, 741.880
595.548, 729.526
596.863, 698.582
598.177, 633.041
599.491, 621.025
600.805, 654.432
602.119, 636.922
603.432, 686.298
604.746, 669.914
606.059, 675.521
607.372, 614.273
608.685, 499.304
609.997, 670.676
611.309, 527.192
612.621, 584.577
613.933, 458.915
615.245, 470.554
616.557, 392.690
617.868, 462.613
619.179, 466.990
620.490, 568.862
621.801, 380.826
623.111, 455.632
624.421, 286.107
625.731, 461.616
627.041, 281.901
628.351, 449.688
629.660, 279.030
630.970, 275.752
632.279, 388.863
633.588, 280.517
634.896, 196.069
636.205, 318.193
637.513, 283.241
638.821, 222.479
640.129, 233.395
641.437, 298.333
642.744, 278.939
644.051, 280.282
645.358, 89.977
646.665, 193.218
647.972, 239.281
649.278, 100.170
650.584, 189.867
651.890, 96.384
653.196, 266.708
654.502, 104.858
655.807, 112.816
657.113, 57.599
658.418, 178.267
659.722, 255.828
661.027, 238.351
662.331, 253.882
663.636, 313.383
664.940, 553.884
666.244, 447.397
667.547, 522.893
668.851, 449.414
670.154, 400.951
671.457, 378.861
672.760, 329.723
674.062, 272.455
675.365, 259.857
676.667, 222.171
677.969, 170.315
679.271, 157.374
680.572, 278.364
681.874, 353.966
683.175, 460.649
684.476, 673.814
685.777, 788.149
687.077, 819.397
688.378, 792.496
689.678, 899.445
690.978, 920.934
692.278, 819.581
693.577, 428.943
694.877, 715.271
696.176, 419.408
697.475, 444.363
698.774, 332.178
700.072, 416.834
701.371, 322.319
702.669, 202.624
703.967, 234.722
705.265, 378.398
706.562, 418.068
707.860, 483.633
709.157, 151.031
710.454, 389.220
711.751, 188.231
713.047, 362.042
714.344, 207.672
715.640, 377.101
716.936, 333.454
718.232, 98.822
719.527, 266.666
720.823, 133.317
722.118, 29.476
723.413, 32.660
724.708, 5.724
726.002, 61.171
727.297, 3.198
728.591, 228.973
729.885, 61.474
731.179, 164.963
732.472, 29.751
733.766, 54.818
735.059, 124.434
736.352, 56.781
737.645, 12.701
738.937, 48.396
740.230, 75.860
741.522, 138.982
742.814, 23.713
744.106, 6.294
745.397, 88.424
746.689, 43.627
747.980, 108.796
749.271, 197.133
750.562, 102.178
751.853, 285.912
753.143, 308.328
754.433, 512.280
755.723, 545.024
757.013, 463.771
758.303, 847.285
759.592, 747.855
760.881, 733.219
762.170, 872.459
763.459, 1088.293
764.748, 1013.520
766.036, 1046.316
767.325, 1256.381
768.613, 1102.539
769.901, 1495.058
771.188, 1576.481
772.476, 1556.186
773.763, 1848.309
775.050, 1775.324
776.337, 2095.644
777.624, 2250.705
778.910, 2335.246
780.196, 2313.225
781.482, 2520.527
782.768, 2484.194
784.054, 2574.127
785.339, 2860.488
786.625, 3045.684
787.910, 2866.686
789.195, 3274.643
790.479, 3393.440
791.764, 3593.441
793.048, 4024.018
794.332, 3835.717
795.616, 4450.412
796.900, 4585.716
798.183, 5041.704
799.467, 5091.570
800.750, 5460.628
802.033, 5589.129
803.316, 5541.074
804.598, 5916.875
805.880, 5506.939
807.163, 5781.400
808.445, 5520.174
809.726, 5349.506
811.008, 5162.713
812.289, 5282.416
813.570, 5071.823
814.851, 5023.020
816.132, 5047.393
817.413, 4960.471
818.693, 5296.604
819.973, 5159.830
821.253, 5528.076
822.533, 5602.957
823.813, 5982.617
825.092, 6216.098
826.371, 6132.734
827.650, 6344.990
828.929, 6596.910
830.208, 7129.172
831.486, 7702.783
832.764, 8020.709
834.042, 8094.316
835.320, 8531.891
836.598, 7954.352
837.875, 7809.410
839.152, 7806.146
840.429, 7872.178
841.706, 8544.080
842.983, 8507.855
844.259, 9039.510
845.536, 10035.041
846.812, 10256.449
848.088, 11635.773
849.363, 12310.742
850.639, 13590.742
851.914, 13996.834
853.189, 14065.520
854.464, 15105.141
855.739, 16032.445
857.013, 17428.719
858.288, 18294.391
859.562, 19494.033
860.836, 21690.041
862.110, 23125.580
863.383, 24576.016
864.656, 27494.324
865.930, 29031.264
867.203, 31323.014
868.475, 33611.098
869.748, 34899.816
871.020, 36150.867
872.292, 37092.867
873.564, 37608.590
874.836, 37205.281
876.108, 36067.406
877.379, 35035.520
878.650, 34019.430
879.922, 32375.711
881.192, 30672.875
882.463, 29060.316
883.733, 27477.844
885.004, 25726.406
886.274, 24649.943
887.544, 23155.777
888.813, 22283.121
890.083, 20573.590
891.352, 19726.719
892.621, 18810.502
893.890, 17339.455
895.159, 16384.357
896.427, 15248.410
897.695, 14215.260
898.964, 13522.090
900.232, 12410.684
901.499, 11679.098
902.767, 10869.590
904.034, 10482.258
905.301, 9909.723
906.568, 10604.645
907.835, 12476.562
909.102, 15192.711
910.368, 18800.047
911.634, 18366.236
912.900, 14383.391
914.166, 9890.514
915.432, 7858.605
916.697, 6704.666
917.962, 6822.699
919.227, 8584.707
920.492, 10658.695
921.757, 10624.652
923.021, 8957.598
924.285, 9018.516
925.550, 11322.426
926.813, 12965.316
928.077, 11668.195
929.341, 9007.059
930.604, 7852.910
931.867, 7243.754
933.130, 6036.598
934.393, 6031.430
935.655, 7852.266
936.918, 8509.094
938.180, 7683.928
939.442, 5029.768
940.703, 4066.609
941.965, 4612.459
943.226, 6378.324
944.488, 9416.193
945.749, 16410.080
947.009, 23573.986
948.270, 22269.902
949.530, 14113.834
950.791, 7598.791
952.051, 4201.764
953.311, 2330.768
954.570, 1190.801
955.830, 1074.859
957.089, 1181.957
958.348, 1497.086
959.607, 1250.254
960.866, 860.453
962.124, 221.693
963.383, 149.053
964.641, 90.930
965.899, 368.914
967.156, 584.135
968.414, 415.686
969.671, 519.492
970.928, 511.594
972.185, 604.996
973.442, 391.730
974.699, 570.703
975.955, 397.990
977.211, 503.508
978.468, 512.295
979.723, 196.355
980.979, 213.531
982.234, 236.834
983.490, 71.740
984.745, 382.674
986.000, 28.732
987.254, 159.137
988.509, 22.582
989.763, 399.021
991.017, 323.521
992.271, 452.078
993.525, 494.695
994.779, 681.375
996.032, 877.115
997.285, 808.922
998.538, 965.799
999.791, 791.752
1001.044, 1409.777
1002.296, 1114.885
1003.548, 1420.074
1004.800, 1619.355
1006.052, 1594.729
1007.304, 1776.189
1008.555, 1679.760
1009.807, 1769.432
1011.058, 2057.197
1012.309, 2121.062
1013.559, 2127.031
1014.810, 2029.119
1016.060, 2147.311
1017.310, 2331.617
1018.560, 2245.033
1019.810, 2138.568
1021.060, 2405.215
1022.309, 2473.973
1023.558, 2251.869
1024.807, 2489.889
1026.056, 2195.047
1027.305, 2516.357
1028.553, 2361.824
1029.801, 2623.457
1031.049, 2673.277
1032.297, 2496.268
1033.545, 2341.486
1034.793, 3000.869
1036.040, 2659.396
1037.287, 2994.113
1038.534, 3069.021
1039.781, 3171.146
1041.027, 3396.471
1042.274, 3180.982
1043.520, 3372.693
1044.766, 3518.586
1046.012, 3699.764
1047.257, 3962.115
1048.503, 4027.654
1049.748, 4351.414
1050.993, 4115.363
1052.238, 4792.543
1053.483, 4699.887
1054.727, 4702.416
1055.971, 4388.109
1057.216, 4430.570
1058.459, 4709.965
1059.703, 4417.119
1060.947, 4333.430
1062.190, 4456.896
1063.433, 4389.514
1064.676, 4484.285
1065.919, 4087.219
1067.162, 4022.309
1068.404, 4366.559
1069.646, 3690.973
1070.888, 4002.551
1072.130, 3967.293
1073.372, 3627.201
1074.613, 3762.279
1075.855, 3726.525
1077.096, 3556.945
1078.337, 3593.539
1079.578, 3480.668
1080.818, 3509.250
1082.059, 3478.371
1083.299, 3493.674
1084.539, 3812.156
1085.779, 3754.820
1087.018, 3907.666
1088.258, 3703.695
1089.497, 3495.914
1090.736, 3669.320
1091.975, 3621.916
1093.213, 3750.699
1094.452, 3603.676
1095.690, 4036.844
1096.928, 3667.207
1098.166, 3993.766
1099.404, 4320.520
1100.642, 4213.471
1101.879, 4333.619
1103.116, 4560.969
1104.353, 4599.520
1105.590, 4706.271
1106.827, 4564.225
1108.063, 5119.385
1109.299, 4990.750
1110.536, 5180.320
1111.771, 5048.223
1113.007, 4843.635
1114.243, 4991.594
1115.478, 5032.826
1116.713, 4875.754
1117.948, 4742.266
1119.183, 4796.562
1120.418, 4575.430
1121.652, 4228.271
1122.886, 4285.883
1124.120, 4045.238
1125.354, 3940.480
1126.588, 3593.488
1127.821, 3591.533
1129.055, 3297.293
1130.288, 3200.652
1131.521, 3317.289
1132.753, 3022.836
1133.986, 2554.646
1135.218, 2818.271
1136.450, 3026.143
1137.682, 2288.488
1138.914, 2706.270
1140.146, 2198.588
1141.377, 2229.172
1142.609, 1994.268
1143.840, 1778.395
1145.071, 2098.498
1146.301, 2015.166
1147.532, 1730.164
1148.762, 1726.180
1149.992, 1476.762
1151.222, 1411.527
1152.452, 1561.688
1153.682, 1399.195
1154.911, 1060.857
1156.140, 1440.898
1157.369, 1145.059
1158.598, 1099.688
1159.827, 1211.789
1161.055, 1282.283
1162.284, 941.574
1163.512, 907.154
1164.740, 962.021
1165.967, 1032.176
1167.195, 934.467
1168.422, 966.346
1169.650, 836.367
1170.877, 567.678
1172.103, 642.281
1173.330, 723.176
1174.557, 577.363
1175.783, 700.848
1177.009, 716.625
1178.235, 580.785
1179.461, 586.064
1180.686, 417.730
1181.912, 433.693
1183.137, 522.953
1184.362, 473.512
1185.587, 399.371
1186.811, 505.529
1188.036, 650.992
1189.260, 441.754
1190.484, 372.816
1191.708, 700.184
1192.932, 615.852
1194.155, 378.824
1195.378, 521.105
1196.602, 444.691
1197.825, 650.586
1199.047, 498.785
1200.270, 795.291
1201.492, 539.115
1202.715, 1058.268
1203.937, 641.730
1205.159, 1042.521
1206.380, 845.629
1207.602, 873.043
1208.823, 686.775
1210.044, 807.836
1211.265, 1122.213
1212.486, 969.906
1213.707, 1084.920
1214.927, 911.254
1216.147, 1022.908
1217.367, 977.947
1218.587, 1290.314
1219.807, 1108.008
1221.027, 1047.021
1222.246, 1094.363
1223.465, 820.023
1224.684, 1151.016
1225.903, 1063.332
1227.121, 927.973
1228.340, 742.936
1229.558, 695.451
1230.776, 1034.824
1231.994, 705.748
1233.212, 655.992
1234.429, 987.551
1235.646, 790.428
1236.864, 527.619
1238.081, 967.082
1239.297, 621.824
1240.514, 771.842
1241.730, 764.141
1242.947, 871.719
1244.163, 612.576
1245.378, 630.715
1246.594, 856.141
1247.810, 1110.848
1249.025, 631.844
1250.240, 837.125
1251.455, 660.691
1252.670, 678.551
1253.885, 673.699
1255.099, 714.137
1256.313, 817.867
1257.527, 780.430
1258.741, 882.227
1259.955, 747.941
1261.168, 534.027
1262.382, 468.543
1263.595, 468.027
1264.808, 447.984
1266.021, 551.891
1267.233, 504.258
1268.446, 482.105
1269.658, 520.391
1270.870, 149.152
1272.082, 225.336
1273.294, 255.984
1274.505, 164.094
1275.716, 298.598
1276.928, 189.496
1278.139, 28.797
1279.349, 529.430
1280.560, 42.496
1281.770, 207.906
1282.981, 35.633
1284.191, 100.301
1285.401, 112.070
1286.610, 71.754
1287.820, 42.258
1289.029, 272.039
1290.239, 98.355
1291.448, 101.559
1292.656, 0.785
1293.865, 108.680
1295.073, 7.840
1296.282, 29.309
1297.490, 12.949
1298.698, 144.461
1299.906, 0.391
1301.113, 24.012
1302.320, 67.676
1303.528, 30.328
1304.735, 58.023
1305.942, 243.418
1307.148, 19.484
1308.355, 125.695
1309.561, 58.211
1310.767, 468.039
1311.973, 160.176
1313.179, 498.617
1314.384, 317.375
1315.590, 788.449
1316.795, 365.836
1318.000, 745.543
1319.205, 740.562
1320.410, 966.906
1321.614, 1060.566
1322.819, 946.551
1324.023, 1256.859
1325.227, 1429.492
1326.431, 1692.453
1327.634, 1646.742
1328.838, 1542.367
1330.041, 1778.316
1331.244, 2041.602
1332.447, 2238.223
1333.650, 2192.180
1334.852, 2190.475
1336.055, 2616.111
1337.257, 2328.086
1338.459, 2650.717
1339.661, 2877.383
1340.862, 3128.027
1342.064, 3169.389
1343.265, 3140.104
1344.466, 3355.318
1345.667, 3751.277
1346.868, 3627.002
1348.068, 4123.154
1349.269, 4353.430
1350.469, 4493.322
1351.669, 5213.590
1352.869, 5230.238
1354.069, 5505.746
1355.268, 5830.162
1356.468, 6441.756
1357.667, 7180.260
1358.866, 8305.938
1360.065, 9346.938
1361.263, 11055.996
1362.462, 11397.152
1363.660, 10962.266
1364.858, 10005.637
1366.056, 8369.348
1367.254, 7068.324
1368.451, 6477.367
1369.649, 5498.916
1370.846, 5030.742
1372.043, 4897.734
1373.240, 4569.900
1374.436, 4604.254
1375.633, 4526.344
1376.829, 4736.713
1378.025, 4782.648
1379.221, 4788.500
1380.417, 4982.047
1381.613, 5045.330
1382.808, 4910.059
1384.003, 4812.240
1385.199, 4701.871
1386.393, 4626.955
1387.588, 4544.494
1388.783, 4728.484
1389.977, 4737.932
1391.171, 5197.832
1392.365, 5616.982
1393.559, 6115.010
1394.753, 6862.271
1395.946, 7852.979
1397.140, 8695.125
1398.333, 8689.701
1399.526, 7734.699
1400.719, 6474.121
1401.911, 5585.961
1403.104, 4787.205
1404.296, 4059.988
1405.488, 3555.047
1406.680, 3555.211
1407.872, 3018.195
1409.063, 3046.379
1410.255, 3139.904
1411.446, 2758.291
1412.637, 2816.432
1413.828, 2851.010
1415.018, 2810.447
1416.209, 2678.016
1417.399, 2811.973
1418.589, 2570.322
1419.779, 2876.059
1420.969, 2701.186
1422.159, 3019.688
1423.348, 2924.576
1424.537, 3251.838
1425.726, 3575.475
1426.915, 3773.482
1428.104, 4083.857
1429.293, 4020.594
1430.481, 3896.688
1431.669, 3495.127
1432.857, 3214.898
1434.045, 3055.008
1435.233, 2724.381
1436.420, 2842.012
1437.608, 2846.922
1438.795, 2342.102
1439.982, 2318.543
1441.169, 2495.250
1442.355, 2642.102
1443.542, 2603.043
1444.728, 2861.223
1445.914, 2883.617
1447.100, 2861.221
1448.286, 2855.059
1449.472, 2772.145
1450.657, 2431.488
1451.842, 2678.113
1453.027, 2202.275
1454.212, 1735.047
1455.397, 1709.430
1456.581, 1117.418
1457.766, 1173.008
1458.950, 1139.203
1460.134, 959.994
1461.318, 1166.385
1462.501, 1035.371
1463.685, 1052.963
1464.868, 1355.172
1466.051, 1302.025
1467.234, 1296.994
1468.417, 1212.664
1469.600, 1139.523
1470.782, 1003.012
1471.965, 927.127
1473.147, 703.086
1474.329, 585.264
1475.510, 457.688
1476.692, 242.006
1477.873, 222.381
1479.055, 73.441
1480.236, 12.783
1481.416, 35.867
1482.597, 20.969
1483.778, 103.154
1484.958, 68.156
1486.138, 8.092
1487.318, 54.984
1488.498, 78.812
1489.678, 79.988
1490.857, 75.922
1492.037, 107.264
1493.216, 255.576
1494.395, 89.051
1495.574, 2.285
1496.752, 169.602
1497.931, 138.750
1499.109, 408.221
1500.287, 143.070
1501.465, 299.246
1502.643, 89.652
1503.820, 181.324
1504.998, 352.822
1506.175, 478.551
1507.352, 307.312
1508.529, 409.393
1509.706, 295.754
1510.882, 434.729
1512.059, 606.035
1513.235, 425.455
1514.411, 217.594
1515.587, 190.041
1516.762, 381.965
1517.938, 83.076
1519.113, 205.428
1520.288, 26.896
1521.463, 0.000
##END=



