##NAMES=Fluorophlogopite
##RRUFFID=R040075
##IDEAL CHEMISTRY=KMg_3_(Si_3_Al)O_10_F_2_
##LOCALITY=unknown
##OWNER=RRUFF
##SOURCE=University of Arizona Mineral Museum
##DESCRIPTION=Green hexagonal tablet
##STATUS=The identification of this mineral has been confirmed by X-ray diffraction and chemical analysis
##URL=rruff.info/R040075
##MEASURED CHEMISTRY=(K_0.93_[box]_0.04_Na_0.03_)(Mg_0.66_Fe_0.30_Ti_0.02_)_3_(Si_0.75_Al_0.25_)_4_O_10_(F_0.90_(OH)_0.06_Cl_0.04_)
150.5564, 0.0000000E+00
151.0385, 16.92090
151.5206, 14.87720
152.0027, 16.80786
152.4848, 21.68665
152.9670, 37.69629
153.4491, 48.10181
153.9312, 39.22656
154.4133, 32.50037
154.8954, 16.71521
155.3775, 0.7840580
155.8597, 3.684204
156.3418, 18.90332
156.8239, 40.56287
157.3060, 41.94983
157.7881, 27.60498
158.2702, 21.18286
158.7524, 37.45862
159.2345, 67.31299
159.7166, 84.61084
160.1987, 83.75598
160.6808, 78.45020
161.1629, 77.07935
161.6451, 78.11316
162.1272, 75.91418
162.6093, 65.91602
163.0914, 51.48999
163.5735, 40.22729
164.0556, 33.78857
164.5378, 30.18567
165.0199, 28.05017
165.5020, 27.77490
165.9841, 30.76184
166.4662, 39.23364
166.9483, 49.42126
167.4305, 55.07446
167.9126, 53.82190
168.3947, 50.21594
168.8768, 48.82202
169.3589, 49.88293
169.8410, 49.72791
170.3232, 44.11707
170.8053, 37.30713
171.2874, 36.44421
171.7695, 46.58105
172.2516, 59.75806
172.7337, 67.54480
173.2159, 69.58435
173.6980, 71.84998
174.1801, 78.69495
174.6622, 86.96619
175.1443, 92.44250
175.6264, 94.56824
176.1086, 93.57971
176.5907, 86.27051
177.0728, 69.57349
177.5549, 55.59070
178.0370, 53.34216
178.5191, 56.34351
179.0013, 56.76587
179.4834, 54.09351
179.9655, 49.33826
180.4476, 45.20593
180.9297, 42.29797
181.4118, 44.64331
181.8940, 62.75104
182.3761, 85.78113
182.8582, 101.8790
183.3403, 108.4347
183.8224, 108.7584
184.3046, 106.8823
184.7867, 102.2360
185.2688, 98.83264
185.7509, 100.3335
186.2330, 104.1613
186.7151, 108.0155
187.1973, 112.1312
187.6794, 114.6631
188.1615, 114.0704
188.6436, 110.6304
189.1257, 104.3651
189.6078, 90.03156
190.0900, 74.78131
190.5721, 66.77130
191.0542, 71.19916
191.5363, 79.04669
192.0184, 75.93768
192.5005, 58.55170
192.9827, 44.56329
193.4648, 44.64178
193.9469, 50.65173
194.4290, 55.77740
194.9111, 58.51801
195.3932, 59.11060
195.8754, 57.39758
196.3575, 52.84607
196.8396, 48.41748
197.3217, 45.33746
197.8038, 42.69244
198.2859, 39.83862
198.7681, 36.50641
199.2502, 33.41534
199.7323, 33.02533
200.2144, 36.54010
200.6965, 36.31812
201.1786, 23.10315
201.6608, 8.033936
202.1429, 1.478821
202.6250, 7.255188
203.1071, 16.95508
203.5892, 20.31464
204.0713, 16.45154
204.5535, 11.62622
205.0356, 5.751343
205.5177, 0.9132080
205.9998, 7.7758998E-02
206.4819, 3.980713
206.9640, 8.323914
207.4462, 6.901062
207.9283, 1.074097
208.4104, 4.550049
208.8925, 2.328186
209.3746, 0.8717650
209.8567, 0.9274900
210.3388, 3.037415
210.8210, 7.609802
211.3031, 9.069824
211.7852, 7.203918
212.2673, 5.507813
212.7494, 5.364563
213.2315, 5.686951
213.7137, 4.789368
214.1958, 1.639099
214.6779, 1.350281
215.1600, 1.783813
215.6421, 0.3571170
216.1242, 1.625732
216.6064, 0.6127930
217.0885, 1.376831
217.5706, 2.994934
218.0527, 4.146667
218.5348, 5.863831
219.0169, 9.966064
219.4991, 16.04755
219.9812, 19.52509
220.4633, 18.21283
220.9454, 15.34576
221.4275, 13.79755
221.9096, 13.54242
222.3918, 13.06061
222.8739, 10.03613
223.3560, 5.429810
223.8381, 4.791016
224.3202, 11.19629
224.8023, 18.63818
225.2845, 22.39154
225.7666, 22.77142
226.2487, 21.82935
226.7308, 20.31122
227.2129, 18.32001
227.6950, 15.84583
228.1772, 12.16705
228.6593, 9.366516
229.1414, 8.916809
229.6235, 10.59406
230.1056, 13.99628
230.5877, 20.30518
231.0699, 27.94861
231.5520, 34.08417
232.0341, 38.92700
232.5162, 41.24274
232.9983, 37.22485
233.4804, 29.56580
233.9626, 25.29230
234.4447, 29.17529
234.9268, 36.76154
235.4089, 41.53064
235.8910, 43.00580
236.3731, 43.59052
236.8553, 45.24097
237.3374, 47.20477
237.8195, 47.65399
238.3016, 44.85144
238.7837, 41.11792
239.2658, 38.99921
239.7480, 38.61145
240.2301, 38.72162
240.7122, 38.66022
241.1943, 38.48578
241.6764, 38.37177
242.1585, 37.02655
242.6407, 37.01501
243.1228, 41.29858
243.6049, 49.48846
244.0870, 57.85510
244.5691, 67.48175
245.0512, 75.19049
245.5334, 73.60217
246.0155, 56.04065
246.4976, 39.62988
246.9797, 34.01099
247.4618, 37.26312
247.9439, 42.43707
248.4261, 47.14014
248.9082, 51.81714
249.3903, 57.93878
249.8724, 67.66425
250.3545, 73.76135
250.8366, 71.11139
251.3188, 63.40039
251.8009, 57.23322
252.2830, 54.73846
252.7651, 54.80945
253.2472, 57.20911
253.7293, 63.04535
254.2115, 67.49121
254.6936, 69.01245
255.1757, 68.95782
255.6578, 68.33441
256.1399, 67.35077
256.6220, 67.60278
257.1042, 72.02655
257.5863, 83.58820
258.0684, 88.69891
258.5505, 80.40485
259.0326, 69.54138
259.5147, 66.44806
259.9969, 71.79724
260.4790, 77.42444
260.9611, 74.26898
261.4432, 59.39490
261.9253, 53.95044
262.4074, 65.60657
262.8896, 79.20972
263.3717, 87.68811
263.8538, 90.82965
264.3359, 90.93890
264.8180, 89.70624
265.3001, 87.09186
265.7823, 85.26062
266.2644, 85.93005
266.7465, 85.77246
267.2286, 82.14471
267.7107, 76.79303
268.1928, 73.03918
268.6750, 72.90015
269.1571, 76.19916
269.6392, 81.20795
270.1213, 94.20038
270.6034, 101.5084
271.0855, 97.22498
271.5677, 88.12073
272.0498, 82.16473
272.5319, 82.66931
273.0140, 87.22888
273.4961, 90.89465
273.9782, 94.60327
274.4604, 95.71179
274.9425, 91.84241
275.4246, 87.03070
275.9067, 84.92383
276.3888, 86.23633
276.8709, 88.52014
277.3531, 88.07288
277.8352, 83.53784
278.3173, 80.52625
278.7994, 84.34863
279.2815, 85.57806
279.7636, 74.98175
280.2458, 54.93195
280.7279, 38.69604
281.2100, 42.76526
281.6921, 68.26910
282.1742, 80.32013
282.6563, 67.36530
283.1385, 53.01404
283.6206, 48.14813
284.1027, 50.00647
284.5848, 51.22083
285.0669, 47.12634
285.5490, 38.95654
286.0312, 30.45721
286.5133, 19.69135
286.9954, 12.86481
287.4775, 15.22681
287.9596, 22.35114
288.4417, 28.55151
288.9239, 32.23767
289.4060, 33.39233
289.8881, 30.30481
290.3702, 21.97626
290.8523, 17.12854
291.3344, 21.63843
291.8166, 30.53601
292.2987, 38.70679
292.7808, 46.53174
293.2629, 50.68634
293.7450, 46.71002
294.2271, 35.90802
294.7093, 25.24182
295.1914, 15.11603
295.6735, 8.191406
296.1556, 9.350891
296.6377, 19.65662
297.1198, 27.27264
297.6020, 25.55591
298.0841, 18.63324
298.5662, 14.02637
299.0483, 13.42676
299.5304, 12.91119
300.0125, 6.574768
300.4947, 5.889771
300.9768, 11.18738
301.4589, 0.5481570
301.9410, 14.23389
302.4231, 14.83356
302.9052, 2.952942
303.3874, 8.063171
303.8695, 8.094421
304.3516, 2.392578
304.8337, 10.66125
305.3158, 16.33643
305.7979, 20.66077
306.2801, 24.57184
306.7622, 27.51593
307.2443, 28.33087
307.7264, 26.41272
308.2085, 22.03479
308.6906, 16.11530
309.1728, 0.9534910
309.6549, 6.202637
310.1370, 1.726013
310.6191, 15.17419
311.1012, 25.17755
311.5833, 28.96991
312.0655, 28.29724
312.5476, 25.09204
313.0297, 16.34747
313.5118, 12.44092
313.9939, 16.62811
314.4760, 22.15131
314.9582, 25.37726
315.4403, 26.15906
315.9224, 26.59711
316.4045, 29.77454
316.8866, 35.74384
317.3687, 33.43500
317.8509, 11.46094
318.3330, 5.847656
318.8151, 6.735901
319.2972, 2.018921
319.7793, 8.139099
320.2614, 4.248596
320.7436, 5.011719
321.2257, 7.566284
321.7078, 0.8075560
322.1899, 5.121033
322.6720, 5.163208
323.1541, 3.332642
323.6363, 3.637329
324.1184, 7.402771
324.6005, 11.36353
325.0826, 11.86963
325.5647, 9.191406
326.0468, 7.051514
326.5290, 5.456055
327.0111, 5.938477
327.4932, 11.37012
327.9753, 21.84949
328.4574, 29.54095
328.9395, 28.56360
329.4217, 23.21863
329.9038, 22.21094
330.3859, 27.70160
330.8680, 31.69794
331.3501, 25.08905
331.8322, 9.288879
332.3144, 3.6194000E-02
332.7965, 3.506226
333.2786, 9.659363
333.7607, 11.65717
334.2428, 10.08044
334.7249, 8.210571
335.2070, 7.449524
335.6891, 8.234985
336.1713, 12.84369
336.6534, 28.29596
337.1355, 38.42615
337.6176, 38.21021
338.0997, 31.76465
338.5818, 22.73633
339.0640, 12.58313
339.5461, 3.586914
340.0282, 0.3164670
340.5103, 3.485107
340.9924, 6.776123
341.4745, 6.524109
341.9567, 8.267029
342.4388, 19.34656
342.9209, 36.89624
343.4030, 49.20178
343.8851, 44.04669
344.3672, 22.07367
344.8494, 10.19006
345.3315, 18.98853
345.8136, 25.41815
346.2957, 19.66205
346.7778, 8.326538
347.2599, 1.560913
347.7421, 4.366089
348.2242, 12.54535
348.7063, 18.70905
349.1884, 22.60663
349.6705, 26.04236
350.1526, 32.48529
350.6348, 36.55573
351.1169, 30.78381
351.5990, 13.65588
352.0811, 0.2846680
352.5632, 7.080017
353.0453, 27.83344
353.5275, 37.08374
354.0096, 27.57477
354.4917, 14.07648
354.9738, 11.48792
355.4559, 17.48633
355.9380, 22.83752
356.4202, 25.21826
356.9023, 26.25275
357.3844, 27.08197
357.8665, 27.80511
358.3486, 28.76416
358.8307, 30.50403
359.3129, 33.33704
359.7950, 35.09668
360.2771, 37.49713
360.7592, 36.85376
361.2413, 28.61151
361.7234, 17.82318
362.2056, 11.45673
362.6877, 11.39050
363.1698, 15.52277
363.6519, 20.97467
364.1340, 29.79175
364.6161, 34.58984
365.0983, 34.84912
365.5804, 32.19885
366.0625, 24.63159
366.5446, 14.41284
367.0267, 8.180359
367.5089, 12.21576
367.9910, 25.40100
368.4731, 31.74091
368.9552, 25.72504
369.4373, 20.31458
369.9194, 19.92426
370.4016, 21.62451
370.8837, 21.78479
371.3658, 18.97797
371.8479, 15.01569
372.3300, 11.95990
372.8121, 9.765442
373.2943, 9.185730
373.7764, 11.25494
374.2585, 14.26611
374.7406, 16.61560
375.2227, 18.32806
375.7048, 20.41602
376.1870, 23.85730
376.6691, 27.78705
377.1512, 31.00873
377.6333, 33.36835
378.1154, 32.97870
378.5975, 26.30890
379.0797, 15.16888
379.5618, 10.18671
380.0439, 16.66278
380.5260, 23.64465
381.0081, 26.51501
381.4902, 25.78485
381.9724, 21.53278
382.4545, 13.20667
382.9366, 4.705078
383.4187, 4.181702
383.9008, 17.98242
384.3829, 27.42194
384.8651, 32.45697
385.3472, 33.34186
385.8293, 28.62299
386.3114, 19.27936
386.7935, 8.794922
387.2756, 0.8698120
387.7578, 9.505127
388.2399, 8.285278
388.7220, 13.79437
389.2041, 32.58582
389.6862, 42.45837
390.1683, 45.20557
390.6505, 42.65350
391.1326, 34.85706
391.6147, 25.99219
392.0968, 23.28192
392.5789, 27.62384
393.0610, 30.47675
393.5432, 27.61462
394.0253, 24.69543
394.5074, 27.63464
394.9895, 35.64038
395.4716, 41.58441
395.9537, 39.97266
396.4359, 34.77393
396.9180, 32.07574
397.4001, 32.26160
397.8822, 35.35138
398.3643, 42.76666
398.8464, 53.13342
399.3286, 59.97992
399.8107, 63.96710
400.2928, 64.15106
400.7749, 56.34216
401.2570, 44.85846
401.7391, 37.76611
402.2213, 37.90723
402.7034, 42.22192
403.1855, 45.41895
403.6676, 46.47754
404.1497, 48.31476
404.6318, 52.12030
405.1140, 55.53967
405.5961, 58.27673
406.0782, 59.67981
406.5603, 57.81274
407.0424, 49.52075
407.5245, 37.44788
408.0067, 34.65436
408.4888, 47.72888
408.9709, 52.43109
409.4530, 57.42157
409.9351, 59.89099
410.4172, 59.97552
410.8994, 50.52802
411.3815, 53.39142
411.8636, 51.32300
412.3457, 49.05316
412.8278, 53.65198
413.3099, 45.59607
413.7921, 50.08752
414.2742, 49.57178
414.7563, 51.34930
415.2384, 48.16412
415.7205, 46.51331
416.2026, 49.82953
416.6848, 50.39972
417.1669, 46.65088
417.6490, 48.58362
418.1311, 40.36768
418.6132, 41.05914
419.0953, 45.59589
419.5775, 42.10443
420.0596, 44.13605
420.5417, 44.06555
421.0238, 50.87030
421.5059, 53.76245
421.9880, 48.04443
422.4702, 40.26837
422.9523, 36.12726
423.4344, 35.26373
423.9165, 32.37518
424.3986, 23.91156
424.8807, 18.52478
425.3629, 20.13318
425.8450, 24.82404
426.3271, 28.35687
426.8092, 29.41095
427.2913, 29.10120
427.7734, 28.60620
428.2556, 27.89539
428.7377, 26.08496
429.2198, 21.58923
429.7019, 18.26941
430.1840, 20.68774
430.6661, 27.46008
431.1483, 32.86743
431.6304, 34.54126
432.1125, 34.83728
432.5946, 37.36786
433.0767, 40.98395
433.5588, 38.84552
434.0410, 26.00293
434.5231, 8.752075
435.0052, 2.812988
435.4873, 16.98120
435.9694, 27.17151
436.4515, 31.50763
436.9337, 31.85675
437.4158, 27.88013
437.8979, 20.78833
438.3800, 14.68982
438.8621, 13.57123
439.3442, 16.75793
439.8264, 15.33246
440.3085, 3.138672
440.7906, 4.350037
441.2727, 0.6951900
441.7548, 9.836243
442.2369, 13.14691
442.7191, 7.715698
443.2012, 1.249329
443.6833, 2.532776
444.1654, 10.28558
444.6475, 15.71863
445.1296, 18.13110
445.6118, 16.69708
446.0939, 8.174805
446.5760, 4.817078
447.0581, 13.15179
447.5402, 13.14276
448.0223, 9.885925
448.5045, 4.666565
448.9866, 1.089783
449.4687, 3.243896
449.9508, 0.2264400
450.4329, 6.333557
450.9150, 9.723755
451.3972, 10.10724
451.8793, 7.998901
452.3614, 0.1483150
452.8435, 7.196228
453.3256, 10.01886
453.8077, 8.984558
454.2899, 6.941895
454.7720, 5.691040
455.2541, 4.968079
455.7362, 3.943054
456.2183, 2.668091
456.7004, 0.9531250
457.1826, 2.894653
457.6647, 6.168030
458.1468, 5.762939
458.6289, 1.462158
459.1110, 1.845886
459.5931, 1.253235
460.0753, 6.975769
460.5574, 6.224792
461.0395, 2.218872
461.5216, 10.50793
462.0037, 14.03363
462.4858, 13.06097
462.9680, 9.692444
463.4501, 1.207397
463.9322, 7.915649
464.4143, 3.833313
464.8964, 4.803955
465.3785, 10.40784
465.8607, 11.22198
466.3428, 9.801636
466.8249, 8.439453
467.3070, 6.801514
467.7891, 9.006042
468.2712, 19.98688
468.7534, 29.45654
469.2355, 34.47693
469.7176, 36.48505
470.1997, 37.60040
470.6818, 38.58875
471.1639, 38.71185
471.6461, 36.40320
472.1282, 31.87921
472.6103, 28.26874
473.0924, 25.24176
473.5745, 24.66168
474.0566, 30.10431
474.5388, 40.06036
475.0209, 48.16608
475.5030, 53.16589
475.9851, 56.06897
476.4672, 56.64124
476.9493, 55.65985
477.4315, 54.74463
477.9136, 54.45831
478.3957, 55.31927
478.8778, 58.40222
479.3599, 65.01141
479.8420, 70.59027
480.3242, 77.82233
480.8063, 81.68365
481.2884, 77.03406
481.7705, 67.04901
482.2526, 58.71979
482.7347, 55.92523
483.2169, 57.22351
483.6990, 60.21796
484.1811, 65.24719
484.6632, 69.96472
485.1453, 73.48926
485.6274, 76.85229
486.1096, 81.70612
486.5917, 87.84863
487.0738, 91.85931
487.5559, 88.78265
488.0380, 85.41272
488.5201, 91.73059
489.0023, 105.9326
489.4844, 115.8849
489.9665, 114.9687
490.4486, 106.8602
490.9307, 100.3234
491.4128, 93.47046
491.8950, 91.69019
492.3771, 99.21136
492.8592, 108.3020
493.3413, 113.8757
493.8234, 116.0695
494.3055, 117.6528
494.7877, 120.3159
495.2698, 124.0555
495.7519, 128.9965
496.2340, 135.4682
496.7161, 142.2784
497.1982, 151.8072
497.6804, 159.4483
498.1625, 159.7638
498.6446, 152.1914
499.1267, 145.4960
499.6088, 142.8337
500.0909, 143.1776
500.5730, 145.9378
501.0551, 150.7901
501.5373, 156.3059
502.0194, 161.9346
502.5015, 167.1418
502.9836, 170.2664
503.4657, 168.5965
503.9478, 168.6502
504.4300, 172.5804
504.9121, 176.0569
505.3942, 175.4359
505.8763, 171.6659
506.3584, 169.2526
506.8405, 171.9477
507.3227, 177.8143
507.8048, 180.4362
508.2869, 178.4855
508.7690, 176.8749
509.2511, 178.3864
509.7332, 180.3341
510.2154, 178.4885
510.6975, 172.1235
511.1796, 171.3257
511.6617, 188.5475
512.1439, 209.2411
512.6260, 211.9096
513.1081, 198.0545
513.5902, 187.9839
514.0723, 194.0367
514.5544, 209.8878
515.0366, 216.7488
515.5187, 204.3088
516.0008, 197.8046
516.4829, 203.1846
516.9650, 209.8608
517.4471, 209.9443
517.9293, 203.9931
518.4114, 197.4747
518.8935, 193.4562
519.3756, 192.0236
519.8577, 195.3435
520.3398, 204.5173
520.8220, 212.4039
521.3041, 216.9348
521.7862, 218.7258
522.2683, 219.2969
522.7504, 218.6544
523.2325, 217.4921
523.7147, 215.6525
524.1968, 213.7624
524.6789, 212.3663
525.1610, 211.4343
525.6431, 210.6915
526.1252, 209.9774
526.6074, 209.4890
527.0895, 210.0436
527.5716, 214.8677
528.0537, 213.8229
528.5358, 198.7621
529.0179, 186.2701
529.5001, 189.4399
529.9822, 201.8622
530.4643, 206.6058
530.9464, 192.5814
531.4285, 172.3423
531.9106, 167.3546
532.3928, 177.0641
532.8749, 180.2323
533.3570, 169.0528
533.8391, 155.1888
534.3212, 150.3374
534.8033, 154.2559
535.2855, 162.0632
535.7676, 181.5283
536.2497, 196.6536
536.7318, 194.2986
537.2139, 182.2068
537.6960, 174.3278
538.1782, 175.7709
538.6603, 182.4905
539.1424, 188.9521
539.6245, 195.4940
540.1066, 199.2523
540.5887, 197.1347
541.0709, 196.0113
541.5530, 200.7059
542.0351, 207.3294
542.5172, 209.7589
542.9993, 205.6780
543.4814, 198.8983
543.9636, 191.8535
544.4457, 184.4849
544.9278, 175.2642
545.4099, 163.6143
545.8920, 156.2173
546.3741, 160.0480
546.8563, 173.3083
547.3384, 178.8526
547.8205, 172.9777
548.3026, 165.7200
548.7847, 156.1220
549.2668, 147.1030
549.7490, 141.8062
550.2311, 140.4728
550.7132, 140.9098
551.1953, 141.9512
551.6774, 143.0720
552.1595, 141.4924
552.6417, 135.9288
553.1238, 130.1423
553.6059, 127.2663
554.0880, 125.5051
554.5701, 121.0845
555.0522, 113.3918
555.5344, 109.1564
556.0165, 113.7653
556.4986, 120.2330
556.9807, 123.0981
557.4628, 122.0778
557.9449, 117.7391
558.4271, 110.2197
558.9092, 101.1904
559.3913, 93.55231
559.8734, 86.94067
560.3555, 82.48212
560.8376, 80.55457
561.3198, 80.64075
561.8019, 85.36163
562.2840, 91.66656
562.7661, 93.18604
563.2482, 86.82617
563.7303, 76.53314
564.2125, 64.55737
564.6946, 51.80414
565.1767, 41.96936
565.6588, 36.03284
566.1409, 31.35907
566.6230, 25.04034
567.1052, 17.19843
567.5873, 14.41833
568.0694, 19.76501
568.5515, 25.62335
569.0336, 32.43927
569.5157, 37.72742
569.9979, 37.37823
570.4800, 31.75378
570.9621, 27.13593
571.4442, 30.52637
571.9263, 39.34045
572.4084, 42.94684
572.8906, 40.50635
573.3727, 36.99628
573.8548, 33.26483
574.3369, 30.38599
574.8190, 30.79230
575.3011, 35.30341
575.7833, 37.03552
576.2654, 32.12012
576.7475, 25.83954
577.2296, 22.07605
577.7117, 20.34375
578.1938, 18.62195
578.6760, 15.95544
579.1581, 13.06824
579.6402, 10.85944
580.1223, 8.892944
580.6044, 10.13458
581.0865, 19.25610
581.5686, 25.68872
582.0507, 21.27039
582.5328, 11.49664
583.0150, 6.695618
583.4971, 10.60529
583.9792, 16.46552
584.4613, 21.96008
584.9434, 25.69733
585.4255, 23.56519
585.9077, 15.58752
586.3898, 9.047546
586.8719, 10.24072
587.3540, 16.76740
587.8361, 19.11365
588.3182, 14.11133
588.8004, 9.936584
589.2825, 7.921143
589.7646, 6.445068
590.2467, 3.450867
590.7288, 0.2965700
591.2109, 1.279175
591.6931, 4.772949
592.1752, 12.19904
592.6573, 12.38544
593.1394, 6.399841
593.6215, 0.1028440
594.1036, 6.295410
594.5858, 9.066772
595.0679, 3.541992
595.5500, 11.67908
596.0321, 20.42383
596.5142, 17.73077
596.9963, 15.31104
597.4785, 18.97766
597.9606, 23.46558
598.4427, 21.03479
598.9248, 10.79694
599.4069, 1.072266
599.8890, 0.5627440
600.3712, 6.776428
600.8533, 11.07001
601.3354, 13.34454
601.8175, 14.45477
602.2996, 14.39453
602.7817, 13.75122
603.2639, 14.20490
603.7460, 17.05164
604.2281, 15.40692
604.7102, 1.898193
605.1923, 9.890991
605.6744, 9.631409
606.1566, 2.040283
606.6387, 3.428284
607.1208, 2.936096
607.6029, 0.6687620
608.0850, 3.882080
608.5671, 6.708618
609.0493, 10.54340
609.5314, 18.03284
610.0135, 19.62457
610.4956, 3.850281
610.9777, 19.56403
611.4598, 29.32782
611.9420, 20.53119
612.4241, 9.753418
612.9062, 1.438782
613.3883, 10.12860
613.8704, 12.79999
614.3525, 10.38147
614.8347, 6.121277
615.3168, 1.657532
615.7989, 2.289307
616.2810, 3.635376
616.7631, 1.731323
617.2452, 1.650330
617.7274, 4.171570
618.2095, 8.228394
618.6916, 13.89844
619.1737, 20.47626
619.6558, 26.66003
620.1379, 34.01178
620.6201, 37.79810
621.1022, 34.28387
621.5843, 26.83105
622.0664, 17.76001
622.5485, 8.513184
623.0306, 3.122498
623.5128, 4.931824
623.9949, 11.55750
624.4770, 15.21869
624.9591, 14.88654
625.4412, 14.95459
625.9233, 15.67401
626.4055, 17.41663
626.8876, 22.17834
627.3697, 28.31158
627.8518, 30.09283
628.3339, 21.22638
628.8160, 14.07635
629.2982, 17.35504
629.7803, 26.68652
630.2624, 37.51843
630.7445, 47.89435
631.2266, 52.49237
631.7087, 46.06348
632.1909, 30.98907
632.6730, 19.10083
633.1551, 9.616211
633.6372, 5.433472
634.1193, 11.04645
634.6014, 18.80145
635.0836, 23.68677
635.5657, 25.96387
636.0478, 27.68005
636.5299, 30.71283
637.0120, 32.06433
637.4941, 27.76929
637.9763, 20.88770
638.4584, 17.48706
638.9405, 18.58521
639.4226, 20.16718
639.9047, 18.29987
640.3868, 13.73346
640.8690, 11.72833
641.3511, 13.68689
641.8332, 15.11139
642.3153, 16.15961
642.7974, 15.35181
643.2795, 9.056274
643.7617, 1.154480
644.2438, 5.949219
644.7259, 1.819763
645.2080, 11.85840
645.6901, 17.38055
646.1722, 19.95374
646.6544, 22.69751
647.1365, 26.21722
647.6186, 28.44073
648.1007, 26.85394
648.5828, 22.14551
649.0649, 20.24005
649.5471, 22.28333
650.0292, 25.15411
650.5113, 30.09454
650.9934, 33.96045
651.4755, 33.44757
651.9576, 28.85718
652.4398, 24.49170
652.9219, 22.79211
653.4040, 21.47107
653.8861, 16.62891
654.3682, 11.44373
654.8503, 12.43243
655.3325, 20.34961
655.8146, 28.91101
656.2967, 32.46143
656.7788, 31.60510
657.2609, 28.87109
657.7430, 22.86194
658.2252, 19.98651
658.7073, 22.15802
659.1894, 27.38031
659.6715, 35.48138
660.1536, 45.67542
660.6357, 52.22485
661.1179, 50.94873
661.6000, 49.11694
662.0821, 51.97931
662.5642, 55.74402
663.0463, 53.48816
663.5284, 45.64227
664.0106, 38.59991
664.4927, 37.25232
664.9748, 39.83002
665.4569, 40.80701
665.9390, 39.72345
666.4211, 39.72662
666.9033, 42.25122
667.3854, 44.62549
667.8675, 43.40619
668.3496, 40.80957
668.8317, 43.54364
669.3138, 55.59003
669.7960, 67.92181
670.2781, 78.93994
670.7602, 87.46295
671.2423, 92.36261
671.7244, 93.96710
672.2065, 92.51538
672.6887, 86.94769
673.1708, 80.61609
673.6529, 81.66589
674.1350, 89.87115
674.6171, 96.34686
675.0992, 99.41565
675.5814, 100.6789
676.0635, 100.7144
676.5456, 99.83826
677.0277, 100.5956
677.5098, 104.3181
677.9919, 107.7037
678.4741, 109.5460
678.9562, 111.4661
679.4383, 117.3956
679.9204, 124.7023
680.4025, 124.7074
680.8846, 111.1320
681.3668, 93.90717
681.8489, 86.28955
682.3310, 86.40527
682.8131, 87.32324
683.2952, 88.20477
683.7773, 87.11267
684.2595, 82.04517
684.7416, 74.53711
685.2237, 69.96332
685.7058, 69.67230
686.1879, 70.26917
686.6700, 75.90118
687.1522, 78.21722
687.6343, 70.27533
688.1164, 56.40619
688.5985, 45.41931
689.0806, 40.50244
689.5627, 37.19318
690.0449, 31.72620
690.5270, 25.69611
691.0091, 21.82965
691.4912, 20.21490
691.9733, 19.86652
692.4554, 20.39062
692.9376, 21.11957
693.4197, 20.49182
693.9018, 17.79913
694.3839, 16.90393
694.8660, 20.28937
695.3481, 21.90533
695.8303, 18.11041
696.3124, 11.72791
696.7945, 5.556091
697.2766, 0.4926150
697.7587, 3.066711
698.2408, 3.237061
698.7230, 9.990112
699.2051, 7.949585
699.6872, 0.9882200
700.1693, 0.9135740
700.6514, 5.455017
701.1335, 13.48413
701.6157, 0.3349000
702.0978, 4.651001
702.5799, 7.487976
703.0620, 7.941772
703.5441, 1.135803
704.0262, 2.097412
704.5084, 0.3984990
704.9905, 1.501160
705.4726, 3.468201
705.9547, 18.42645
706.4368, 10.14349
706.9189, 2.776001
707.4011, 1.501953
707.8832, 3.533997
708.3653, 4.905029
708.8474, 5.752625
709.3295, 10.77710
709.8116, 27.23267
710.2938, 44.70526
710.7759, 42.97241
711.2580, 26.00562
711.7401, 14.54425
712.2222, 13.22339
712.7043, 16.68005
713.1865, 21.53833
713.6686, 26.81250
714.1507, 25.89410
714.6328, 10.29498
715.1149, 3.867615
715.5970, 19.54443
716.0792, 34.00525
716.5613, 29.66656
717.0434, 14.40027
717.5255, 8.964722
718.0076, 23.68921
718.4897, 37.18463
718.9719, 33.09491
719.4540, 22.38470
719.9361, 19.97504
720.4182, 24.92072
720.9003, 26.06281
721.3824, 17.33752
721.8646, 6.953796
722.3467, 11.10925
722.8288, 30.61969
723.3109, 41.79144
723.7930, 42.10565
724.2751, 39.42377
724.7573, 35.82800
725.2394, 32.40186
725.7215, 31.89319
726.2036, 35.35815
726.6857, 35.51270
727.1678, 25.00665
727.6500, 18.52148
728.1321, 27.60120
728.6142, 42.19617
729.0963, 49.22351
729.5784, 46.24609
730.0605, 39.38806
730.5427, 31.01239
731.0248, 23.22687
731.5069, 19.60767
731.9890, 19.82050
732.4711, 23.23468
732.9532, 29.91107
733.4354, 35.63428
733.9175, 36.23578
734.3996, 32.42883
734.8817, 29.25146
735.3638, 25.09259
735.8459, 25.06476
736.3281, 36.52533
736.8102, 45.89850
737.2923, 41.98596
737.7744, 29.70563
738.2565, 22.99323
738.7386, 26.66504
739.2208, 31.84204
739.7029, 36.30695
740.1850, 39.18188
740.6671, 20.94940
741.1492, 36.49908
741.6313, 45.34094
742.1135, 47.90094
742.5956, 26.63586
743.0777, 36.80246
743.5598, 35.22958
744.0419, 33.35159
744.5240, 48.47638
745.0062, 31.06158
745.4883, 44.61850
745.9704, 45.65497
746.4525, 55.18713
746.9346, 46.53775
747.4167, 39.72000
747.8989, 32.48846
748.3810, 29.83017
748.8631, 37.46527
749.3452, 46.99902
749.8273, 49.92679
750.3094, 46.24817
750.7916, 42.91956
751.2737, 43.41638
751.7558, 45.03369
752.2379, 46.88348
752.7200, 47.92282
753.2021, 45.12711
753.6843, 38.99020
754.1664, 34.80005
754.6485, 36.60025
755.1306, 41.32263
755.6127, 40.70508
756.0948, 34.46802
756.5770, 34.58664
757.0591, 44.95676
757.5412, 52.71152
758.0233, 47.51047
758.5054, 36.22733
758.9875, 36.34079
759.4697, 57.03827
759.9518, 66.93109
760.4339, 57.63754
760.9160, 46.28943
761.3981, 37.86099
761.8802, 33.08347
762.3624, 34.23938
762.8445, 41.19339
763.3266, 45.02509
763.8087, 36.94843
764.2908, 25.91760
764.7729, 20.55243
765.2551, 20.03195
765.7372, 23.59470
766.2193, 30.42935
766.7014, 35.20255
767.1835, 32.47260
767.6656, 25.98605
768.1478, 29.87854
768.6299, 45.90082
769.1120, 55.20135
769.5941, 52.35052
770.0762, 49.68033
770.5583, 59.00491
771.0405, 74.94235
771.5226, 77.77606
772.0047, 58.64044
772.4868, 43.89532
772.9689, 31.38095
773.4510, 26.77377
773.9332, 41.74347
774.4153, 63.09625
774.8974, 68.92551
775.3795, 54.01340
775.8616, 40.83685
776.3438, 46.62033
776.8259, 58.43466
777.3080, 62.94901
777.7901, 61.88907
778.2722, 60.29776
778.7543, 59.61145
779.2365, 59.02963
779.7186, 57.85370
780.2007, 56.24966
780.6828, 54.14050
781.1649, 51.07452
781.6470, 50.48160
782.1292, 54.02368
782.6113, 56.95163
783.0934, 55.13919
783.5755, 50.13031
784.0576, 47.87823
784.5397, 53.72055
785.0219, 52.85480
785.5040, 38.02890
785.9861, 24.50873
786.4682, 18.09406
786.9503, 17.84717
787.4324, 24.34882
787.9146, 38.09531
788.3967, 46.40182
788.8788, 38.07730
789.3609, 26.30798
789.8430, 21.88745
790.3251, 22.37747
790.8073, 22.97787
791.2894, 22.47824
791.7715, 21.97543
792.2536, 22.18933
792.7357, 24.04468
793.2178, 30.56042
793.7000, 40.20755
794.1821, 40.32751
794.6642, 27.77045
795.1463, 16.82434
795.6284, 18.43439
796.1105, 27.17017
796.5927, 27.25848
797.0748, 14.33060
797.5569, 4.029114
798.0390, 5.101593
798.5211, 9.628693
799.0032, 3.121277
799.4854, 5.672791
799.9675, 4.390625
800.4496, 8.453094
800.9317, 17.84241
801.4138, 20.97571
801.8959, 18.26562
802.3781, 3.868347
802.8602, 12.74374
803.3423, 18.96027
803.8244, 14.87363
804.3065, 10.30112
804.7886, 11.48184
805.2708, 14.04596
805.7529, 11.72729
806.2350, 6.458740
806.7171, 3.017731
807.1992, 1.744202
807.6813, 2.999969
808.1635, 6.996368
808.6456, 12.87436
809.1277, 20.55423
809.6098, 30.64749
810.0919, 30.74829
810.5740, 16.46512
811.0562, 6.031128
811.5383, 6.853485
812.0204, 12.81458
812.5025, 18.22955
812.9846, 23.13928
813.4667, 23.28174
813.9489, 13.43805
814.4310, 6.253143
814.9131, 5.962311
815.3952, 6.986816
815.8773, 4.785919
816.3594, 0.6089170
816.8416, 2.019897
817.3237, 2.406799
817.8058, 0.2962650
818.2879, 11.31583
818.7700, 21.91016
819.2521, 21.24231
819.7343, 12.91797
820.2164, 6.228729
820.6985, 4.240295
821.1806, 4.850067
821.6627, 7.248901
822.1448, 9.948303
822.6270, 7.909760
823.1091, 2.014923
823.5912, 0.7616270
824.0733, 1.112488
824.5554, 6.929138
825.0375, 17.60681
825.5197, 29.38541
826.0018, 27.95505
826.4839, 7.528839
826.9660, 3.851868
827.4481, 1.481873
827.9302, 4.169281
828.4124, 10.85144
828.8945, 16.21637
829.3766, 15.12988
829.8587, 6.083710
830.3408, 1.458557
830.8229, 5.755554
831.3051, 10.02216
831.7872, 11.33252
832.2693, 11.37256
832.7514, 11.92450
833.2335, 12.89340
833.7156, 12.99576
834.1978, 11.30328
834.6799, 9.494720
835.1620, 8.786652
835.6441, 8.579742
836.1262, 8.486694
836.6083, 8.207764
837.0905, 6.393188
837.5726, 2.611267
838.0547, 0.3858030
838.5368, 5.445404
839.0189, 14.81863
839.5010, 19.62109
839.9832, 20.26590
840.4653, 20.02716
840.9474, 19.69467
841.4295, 20.51373
841.9116, 24.23413
842.3937, 29.16351
842.8759, 27.55319
843.3580, 16.88947
843.8401, 11.50830
844.3222, 15.33380
844.8043, 18.88080
845.2864, 16.79443
845.7686, 11.53229
846.2507, 6.950073
846.7328, 2.276794
847.2149, 1.909729
847.6970, 12.02478
848.1791, 18.56482
848.6613, 16.28519
849.1434, 9.951477
849.6255, 1.388550
850.1076, 7.523621
850.5897, 10.67581
851.0718, 3.372955
851.5540, 4.667175
852.0361, 8.883575
852.5182, 11.43942
853.0003, 13.94070
853.4824, 16.62686
853.9645, 20.40027
854.4467, 25.36957
854.9288, 27.57462
855.4109, 20.13751
855.8930, 9.349579
856.3751, 7.400665
856.8572, 12.40482
857.3394, 16.49588
857.8215, 17.91562
858.3036, 18.04977
858.7857, 18.52679
859.2678, 19.07370
859.7499, 18.24484
860.2321, 16.83459
860.7142, 16.81387
861.1963, 18.09256
861.6784, 19.83887
862.1605, 22.43143
862.6426, 23.16489
863.1248, 16.81992
863.6069, 2.696869
864.0890, 2.577423
864.5711, 6.041595
865.0532, 13.02072
865.5353, 14.23257
866.0175, 14.35501
866.4996, 17.08682
866.9817, 21.53372
867.4638, 25.22729
867.9459, 29.17737
868.4280, 29.95123
868.9102, 25.34265
869.3923, 19.41354
869.8744, 11.73883
870.3565, 5.240936
870.8386, 4.138214
871.3207, 8.645538
871.8029, 13.67151
872.2850, 19.43900
872.7671, 22.25986
873.2492, 17.13025
873.7313, 9.667206
874.2134, 6.050323
874.6956, 6.286041
875.1777, 8.300415
875.6598, 11.50934
876.1419, 13.95831
876.6240, 12.61426
877.1061, 9.489288
877.5883, 7.094788
878.0704, 6.004974
878.5525, 9.371429
879.0346, 17.38937
879.5167, 22.28281
879.9988, 16.31436
880.4810, 5.145966
880.9631, 3.286407
881.4452, 9.947998
881.9273, 16.74689
882.4094, 23.02472
882.8915, 23.95795
883.3737, 15.70404
883.8558, 6.124634
884.3379, 8.890625
884.8200, 24.02838
885.3021, 30.32104
885.7842, 24.92188
886.2664, 19.09964
886.7485, 13.78473
887.2306, 11.50308
887.7127, 16.63846
888.1948, 22.74158
888.6769, 28.37772
889.1591, 31.51413
889.6412, 32.26959
890.1233, 23.49261
890.6054, 27.02509
891.0875, 25.62411
891.5696, 24.02072
892.0518, 29.28506
892.5339, 21.88699
893.0160, 27.03244
893.4981, 27.16867
893.9802, 29.59656
894.4623, 27.05984
894.9445, 26.04718
895.4266, 29.92642
895.9087, 37.22113
896.3908, 40.16794
896.8729, 28.74127
897.3550, 18.82806
897.8372, 21.11148
898.3193, 27.29114
898.8014, 32.53110
899.2835, 35.71875
899.7656, 34.69351
900.2477, 30.00650
900.7299, 25.02686
901.2120, 21.23935
901.6941, 19.55005
902.1762, 22.82077
902.6583, 28.07983
903.1404, 29.77515
903.6226, 28.07129
904.1047, 24.29025
904.5868, 19.10565
905.0689, 15.81613
905.5510, 18.46494
906.0331, 24.31168
906.5153, 26.57150
906.9974, 25.66849
907.4795, 24.56412
907.9616, 23.26337
908.4437, 20.21249
908.9258, 14.68826
909.4080, 9.337097
909.8900, 8.669464
910.3721, 12.53412
910.8542, 14.76810
911.3364, 15.06152
911.8185, 16.18002
912.3006, 20.03973
912.7827, 20.32114
913.2648, 9.199188
913.7469, 7.459015
914.2291, 8.079346
914.7112, 16.84467
915.1933, 29.35336
915.6754, 23.60605
916.1575, 16.05316
916.6396, 11.69034
917.1218, 9.388550
917.6039, 7.331726
918.0860, 5.647644
918.5681, 8.352936
919.0502, 21.55243
919.5323, 30.02805
920.0145, 30.94705
920.4966, 28.88327
920.9787, 18.49139
921.4608, 25.04535
921.9429, 28.30887
922.4250, 28.73761
922.9072, 17.18396
923.3893, 21.17084
923.8714, 18.97107
924.3535, 16.54556
924.8356, 22.80341
925.3177, 13.14374
925.7999, 19.32275
926.2820, 19.22046
926.7641, 22.03571
927.2462, 18.62604
927.7283, 17.17746
928.2104, 22.01456
928.6926, 23.41672
929.1747, 19.40436
929.6568, 22.57932
930.1389, 12.99466
930.6210, 14.66202
931.1031, 21.20081
931.5853, 17.64999
932.0674, 21.08728
932.5495, 21.90546
933.0316, 11.02997
933.5137, 21.24265
933.9958, 21.99481
934.4780, 13.47632
934.9601, 22.62711
935.4422, 15.44946
935.9243, 14.13995
936.4064, 17.25415
936.8885, 15.81723
937.3707, 21.63162
937.8528, 20.51804
938.3349, 18.81235
938.8170, 19.84924
939.2991, 13.22977
939.7813, 20.90146
940.2634, 18.86118
940.7455, 21.69241
941.2276, 25.65079
941.7097, 21.23441
942.1918, 25.74469
942.6740, 16.48935
943.1561, 18.89114
943.6382, 29.70044
944.1203, 28.36481
944.6024, 20.85544
945.0845, 19.22284
945.5667, 23.11026
946.0488, 24.61758
946.5309, 21.65417
947.0130, 19.97433
947.4951, 24.63501
947.9772, 31.50977
948.4594, 30.39755
948.9415, 21.07959
949.4236, 15.78586
949.9057, 15.28006
950.3878, 14.98782
950.8699, 13.27142
951.3521, 11.84372
951.8342, 12.52271
952.3163, 14.78067
952.7984, 16.21030
953.2805, 16.44852
953.7626, 18.48398
954.2448, 24.08554
954.7269, 25.76044
955.2090, 19.08130
955.6911, 9.412201
956.1732, 3.112457
956.6553, 0.1366270
957.1375, 2.5482001E-02
957.6196, 3.417694
958.1017, 8.139221
958.5838, 15.24512
959.0659, 19.26132
959.5480, 16.59232
960.0302, 10.83942
960.5123, 7.307648
960.9944, 5.983551
961.4765, 7.278076
961.9586, 13.07245
962.4407, 17.98160
962.9229, 21.86041
963.4050, 23.84717
963.8871, 22.47778
964.3692, 19.25497
964.8513, 17.54898
965.3334, 16.76108
965.8156, 16.43002
966.2977, 19.43979
966.7798, 20.36343
967.2619, 13.91974
967.7440, 7.093323
968.2261, 6.568024
968.7083, 10.21890
969.1904, 11.22516
969.6725, 8.301697
970.1546, 6.723145
970.6367, 6.115234
971.1188, 5.927185
971.6010, 4.242249
972.0831, 4.018585
972.5652, 10.21484
973.0473, 19.95450
973.5294, 23.59280
974.0115, 16.43796
974.4937, 12.83298
974.9758, 18.28134
975.4579, 23.72177
975.9400, 26.02081
976.4221, 26.08591
976.9042, 24.75620
977.3864, 22.16678
977.8685, 18.01962
978.3506, 8.900238
978.8327, 5.808990
979.3148, 19.59656
979.7969, 30.56094
980.2791, 24.93939
980.7612, 13.12552
981.2433, 6.070282
981.7254, 4.970520
982.2075, 8.727386
982.6896, 21.75684
983.1718, 30.67160
983.6539, 30.11823
984.1360, 25.50354
984.6181, 15.29099
985.1002, 5.915405
985.5823, 7.512756
986.0645, 19.44025
986.5466, 28.12814
987.0287, 28.38818
987.5108, 26.11667
987.9929, 22.49487
988.4750, 18.11826
988.9572, 13.04181
989.4393, 7.653290
989.9214, 1.046478
990.4035, 6.164764
990.8856, 8.087677
991.3677, 3.749817
991.8499, 4.169098
992.3320, 9.915405
992.8141, 13.14041
993.2962, 13.97971
993.7783, 5.286713
994.2604, 8.903687
994.7426, 7.587738
995.2247, 6.070129
995.7068, 11.42068
996.1889, 4.116150
996.6710, 9.358551
997.1531, 9.593048
997.6353, 12.11987
998.1174, 9.683655
998.5995, 8.780945
999.0816, 12.84363
999.5637, 6.754486
1000.046, 1.067566
1000.528, 1.322998
1001.010, 3.922821
1001.492, 11.08676
1001.974, 17.15341
1002.456, 20.62906
1002.939, 18.72870
1003.421, 11.20862
1003.903, 4.370270
1004.385, 0.3254090
1004.867, 1.963409
1005.349, 2.963104
1005.831, 8.414398
1006.313, 7.940796
1006.795, 4.353149
1007.278, 4.272400
1007.760, 8.843048
1008.242, 11.47772
1008.724, 5.864502
1009.206, 2.111908
1009.688, 7.115631
1010.170, 14.27097
1010.652, 18.28128
1011.135, 19.90131
1011.617, 20.93005
1012.099, 21.82956
1012.581, 24.38669
1013.063, 34.84488
1013.545, 39.92947
1014.027, 29.60626
1014.509, 15.14697
1014.991, 2.496368
1015.474, 5.912506
1015.956, 5.500885
1016.438, 4.198730
1016.920, 11.53125
1017.402, 9.110016
1017.884, 7.718140
1018.366, 14.66995
1018.848, 21.54288
1019.331, 19.89337
1019.813, 14.18265
1020.295, 14.40451
1020.777, 21.80118
1021.259, 23.07779
1021.741, 6.130798
1022.223, 6.679596
1022.705, 2.153870
1023.187, 3.861572
1023.670, 3.235657
1024.152, 15.10703
1024.634, 16.91922
1025.116, 6.938721
1025.598, 4.093201
1026.080, 20.76773
1026.562, 27.85968
1027.044, 8.781036
1027.526, 7.925629
1028.009, 1.855042
1028.491, 22.37808
1028.973, 27.82193
1029.455, 16.58331
1029.937, 11.63062
1030.419, 25.85568
1030.901, 33.67697
1031.383, 23.04239
1031.866, 12.82910
1032.348, 15.49860
1032.830, 23.36801
1033.312, 24.75842
1033.794, 19.69028
1034.276, 19.78864
1034.758, 33.43481
1035.240, 41.09021
1035.723, 35.34583
1036.205, 29.82401
1036.687, 31.27859
1037.169, 35.62631
1037.651, 38.32928
1038.133, 39.39240
1038.615, 39.83255
1039.097, 43.02921
1039.579, 39.76962
1040.062, 21.13367
1040.544, 8.270599
1041.026, 12.72510
1041.508, 22.63913
1041.990, 25.72974
1042.472, 23.33701
1042.954, 23.46155
1043.436, 27.51813
1043.918, 30.92111
1044.401, 33.74911
1044.883, 35.78000
1045.365, 37.16031
1045.847, 37.39130
1046.329, 36.02460
1046.811, 33.11948
1047.293, 28.41104
1047.775, 20.42545
1048.258, 16.53760
1048.740, 18.58493
1049.222, 19.93015
1049.704, 16.15460
1050.186, 16.77899
1050.668, 32.36038
1051.150, 53.65631
1051.632, 55.02985
1052.115, 34.06201
1052.597, 21.78476
1053.079, 18.82355
1053.561, 21.58627
1054.043, 30.54898
1054.525, 37.46170
1055.007, 36.19553
1055.489, 31.35547
1055.971, 31.77213
1056.453, 36.91864
1056.936, 40.72903
1057.418, 43.18454
1057.900, 42.28525
1058.382, 37.50983
1058.864, 34.99817
1059.346, 38.39581
1059.828, 41.31552
1060.310, 32.55252
1060.793, 16.15350
1061.275, 8.544891
1061.757, 8.914703
1062.239, 15.19995
1062.721, 25.71005
1063.203, 29.69540
1063.685, 22.25961
1064.167, 14.21890
1064.650, 17.37277
1065.132, 26.24893
1065.614, 31.22330
1066.096, 33.01917
1066.578, 32.72980
1067.060, 31.07806
1067.542, 29.87491
1068.024, 29.68912
1068.506, 29.85767
1068.989, 29.78455
1069.471, 30.10928
1069.953, 31.82236
1070.435, 34.06873
1070.917, 37.09573
1071.399, 39.02084
1071.881, 33.75830
1072.363, 22.23941
1072.845, 15.91135
1073.328, 21.44131
1073.810, 30.24527
1074.292, 38.37775
1074.774, 43.24271
1075.256, 38.45468
1075.738, 31.82568
1076.220, 35.11118
1076.702, 46.26062
1077.184, 52.01907
1077.667, 47.48849
1078.149, 40.21027
1078.631, 26.58594
1079.113, 19.13687
1079.595, 30.72964
1080.077, 45.75174
1080.559, 51.89719
1081.041, 50.16818
1081.524, 44.44690
1082.006, 34.15936
1082.488, 26.36621
1082.970, 22.83444
1083.452, 22.78006
1083.934, 28.11520
1084.416, 33.75842
1084.898, 37.28006
1085.380, 38.30862
1085.863, 38.00803
1086.345, 35.85440
1086.827, 33.38095
1087.309, 29.06036
1087.791, 27.75717
1088.273, 32.06226
1088.755, 35.19373
1089.237, 34.55954
1089.719, 31.24823
1090.202, 25.56824
1090.684, 18.55243
1091.166, 15.75894
1091.648, 18.59985
1092.130, 16.47604
1092.612, 7.439819
1093.094, 3.623596
1093.576, 9.181671
1094.059, 16.87253
1094.541, 21.28506
1095.023, 23.95773
1095.505, 29.11783
1095.987, 35.92368
1096.469, 34.07642
1096.951, 24.99091
1097.433, 25.80701
1097.916, 38.54919
1098.398, 47.86713
1098.880, 45.79977
1099.362, 36.31177
1099.844, 18.78299
1100.326, 2.267853
1100.808, 11.90488
1101.290, 35.36621
1101.772, 41.11234
1102.255, 31.17810
1102.737, 25.48346
1103.219, 29.66357
1103.701, 32.55801
1104.183, 25.67493
1104.665, 16.70743
1105.147, 11.79962
1105.629, 9.357819
1106.111, 7.914307
1106.594, 7.426758
1107.076, 7.453918
1107.558, 8.509125
1108.040, 13.78790
1108.522, 27.15451
1109.004, 34.88406
1109.486, 24.52374
1109.968, 14.77258
1110.451, 18.15768
1110.933, 24.83698
1111.415, 25.15604
1111.897, 20.88358
1112.379, 18.22626
1112.861, 18.40097
1113.343, 16.55545
1113.825, 9.456543
1114.307, 4.495728
1114.790, 3.096771
1115.272, 3.658997
1115.754, 7.523590
1116.236, 10.63016
1116.718, 6.008728
1117.200, 4.743073
1117.682, 6.006683
1118.164, 5.316864
1118.646, 13.42963
1119.129, 17.95413
1119.611, 16.08661
1120.093, 4.932495
1120.575, 1.985229
1121.057, 8.186523
1121.539, 25.29654
1122.021, 24.18103
1122.503, 8.367310
1122.986, 7.409119
1123.468, 19.03491
1123.950, 24.65701
1124.432, 21.34808
1124.914, 16.00925
1125.396, 12.09839
1125.878, 8.600128
1126.360, 2.924713
1126.843, 1.202728
1127.325, 5.094421
1127.807, 15.33261
1128.289, 17.89062
1128.771, 14.22702
1129.253, 10.77747
1129.735, 9.055389
1130.217, 6.244568
1130.699, 0.8648990
1131.182, 5.036133
1131.664, 3.081787
1132.146, 10.50632
1132.628, 2.938843
1133.110, 7.361511
1133.592, 2.039917
1134.074, 13.84103
1134.556, 18.69678
1135.038, 5.673553
1135.521, 2.098083
1136.003, 2.137726
1136.485, 7.456146
1136.967, 13.22388
1137.449, 17.40878
1137.931, 18.36035
1138.413, 17.62802
1138.895, 17.48761
1139.378, 17.74948
1139.860, 16.02115
1140.342, 11.47849
1140.824, 8.949341
1141.306, 9.080353
1141.788, 8.731812
1142.270, 6.693146
1142.752, 5.532043
1143.234, 7.473694
1143.717, 10.94388
1144.199, 12.64124
1144.681, 13.25018
1145.163, 17.04822
1145.645, 22.09283
1146.127, 20.40298
1146.609, 12.95941
1147.091, 10.78610
1147.573, 17.79547
1148.056, 24.92337
1148.538, 24.07742
1149.020, 20.26721
1149.502, 17.89914
1149.984, 16.50677
1150.466, 15.26480
1150.948, 14.70261
1151.430, 16.06982
1151.913, 19.22418
1152.395, 22.65976
1152.877, 26.30032
1153.359, 28.81421
1153.841, 30.51663
1154.323, 30.01212
1154.805, 25.81372
1155.287, 20.02417
1155.770, 11.66232
1156.252, 4.078613
1156.734, 5.448547
1157.216, 16.24689
1157.698, 17.73648
1158.180, 5.055634
1158.662, 2.291290
1159.144, 1.088837
1159.626, 0.7740170
1160.109, 5.605591
1160.591, 9.041870
1161.073, 4.899261
1161.555, 3.852020
1162.037, 11.61172
1162.519, 17.81445
1163.001, 16.76678
1163.483, 10.29510
1163.965, 8.508911
1164.448, 12.51288
1164.930, 18.04752
1165.412, 23.11346
1165.894, 25.57330
1166.376, 21.88852
1166.858, 17.11630
1167.340, 17.49527
1167.822, 19.31909
1168.305, 17.24066
1168.787, 13.73691
1169.269, 14.71014
1169.751, 19.42911
1170.233, 20.05930
1170.715, 12.43170
1171.197, 7.615692
1171.679, 11.81601
1172.161, 15.18472
1172.644, 12.82635
1173.126, 10.12076
1173.608, 11.23767
1174.090, 13.81473
1174.572, 13.70618
1175.054, 11.06757
1175.536, 12.77991
1176.018, 21.02563
1176.500, 24.99612
1176.983, 23.78415
1177.465, 19.48367
1177.947, 12.15866
1178.429, 8.868744
1178.911, 15.53021
1179.393, 26.34424
1179.875, 32.98157
1180.357, 35.83673
1180.840, 35.37839
1181.322, 32.40955
1181.804, 26.09229
1182.286, 18.36832
1182.768, 17.24136
1183.250, 24.19370
1183.732, 29.50577
1184.214, 25.93057
1184.697, 22.75067
1185.179, 29.00772
1185.661, 34.59018
1186.143, 29.29849
1186.625, 22.02359
1187.107, 24.02393
1187.589, 32.31525
1188.071, 36.88623
1188.553, 36.59140
1189.036, 33.58743
1189.518, 25.56946
1190.000, 21.43161
1190.482, 23.47821
1190.964, 25.94000
1191.446, 28.30484
1191.928, 27.66129
1192.410, 19.99411
1192.892, 10.35632
1193.375, 12.88382
1193.857, 25.54834
1194.339, 32.50784
1194.821, 34.16678
1195.303, 32.60043
1195.785, 28.83133
1196.267, 25.43936
1196.749, 23.52515
1197.232, 23.15060
1197.714, 24.82785
1198.196, 27.18356
1198.678, 29.19656
1199.160, 31.07092
1199.642, 35.70828
1200.124, 38.40314
1200.606, 33.16571
1201.089, 21.86182
1201.571, 11.22186
1202.053, 1.721680
1202.535, 3.331238
1203.017, 0.8900150
1203.499, 2.422241
1203.981, 2.794861
1204.463, 5.532471
1204.945, 0.8602600
1205.427, 6.106903
1205.910, 10.08362
1206.392, 12.22278
1206.874, 16.04031
1207.356, 21.21924
1207.838, 27.20749
1208.320, 33.42487
1208.802, 35.47449
1209.284, 33.16541
1209.767, 29.44052
1210.249, 25.73370
1210.731, 24.48239
1211.213, 29.53171
1211.695, 33.77008
1212.177, 28.53647
1212.659, 21.45206
1213.141, 22.95807
1213.624, 27.31982
1214.106, 26.88788
1214.588, 23.18066
1215.070, 24.17569
1215.552, 32.52939
1216.034, 35.73041
1216.516, 27.59720
1216.998, 23.45334
1217.480, 27.30426
1217.963, 29.29361
1218.445, 24.35077
1218.927, 19.51633
1219.409, 21.76526
1219.891, 27.77042
1220.373, 29.94785
1220.855, 28.79199
1221.337, 26.55914
1221.819, 23.81552
1222.302, 23.20193
1222.784, 24.66455
1223.266, 26.58926
1223.748, 28.32083
1224.230, 29.42813
1224.712, 29.45047
1225.194, 29.26660
1225.676, 28.25079
1226.159, 28.72510
1226.641, 35.44232
1227.123, 41.87451
1227.605, 39.71768
1228.087, 32.45596
1228.569, 29.81885
1229.051, 32.52304
1229.533, 29.38455
1230.016, 15.32446
1230.498, 11.13989
1230.980, 21.06882
1231.462, 26.46280
1231.944, 20.91119
1232.426, 17.93875
1232.908, 27.68793
1233.390, 38.36612
1233.872, 33.33969
1234.354, 18.53281
1234.837, 11.69702
1235.319, 10.51962
1235.801, 13.33664
1236.283, 17.68799
1236.765, 19.22308
1237.247, 17.11545
1237.729, 11.83237
1238.211, 2.218475
1238.694, 3.763641
1239.176, 3.875824
1239.658, 1.273132
1240.140, 17.46774
1240.622, 31.90021
1241.104, 38.88663
1241.586, 38.41153
1242.068, 26.96912
1242.551, 10.29901
1243.033, 12.80469
1243.515, 35.49356
1243.997, 38.50735
1244.479, 23.14951
1244.961, 15.24939
1245.443, 18.53891
1245.925, 27.05005
1246.407, 37.73004
1246.890, 43.30478
1247.372, 36.32556
1247.854, 26.62399
1248.336, 20.34631
1248.818, 18.96378
1249.300, 28.44562
1249.782, 39.67896
1250.264, 42.36215
1250.746, 38.69357
1251.229, 34.77518
1251.711, 28.60370
1252.193, 27.23550
1252.675, 28.91205
1253.157, 31.05511
1253.639, 33.83951
1254.121, 35.38187
1254.603, 34.61145
1255.086, 33.71677
1255.568, 34.32370
1256.050, 31.34348
1256.532, 14.03027
1257.014, 5.227234
1257.496, 2.786224
1257.978, 24.05948
1258.460, 34.82037
1258.943, 36.40027
1259.425, 34.19498
1259.907, 30.20236
1260.389, 25.24432
1260.871, 6.294556
1261.353, 5.224854
1261.835, 21.51236
1262.317, 29.38724
1262.799, 24.35443
1263.281, 14.51010
1263.764, 0.0000000E+00
##END=



