##NAMES=Fluorapatite
##RRUFFID=R060421
##IDEAL CHEMISTRY=Ca_5_(PO_4_)_3_F
##LOCALITY=Levant mine, St. Just, Cornwall, England
##OWNER=RRUFF
##SOURCE=Michael Scott
##DESCRIPTION=Brown hexagonal prisms
##STATUS=The identification of this mineral has been confirmed by X-ray diffraction and chemical analysis
##URL=rruff.info/R060421
##MEASURED CHEMISTRY=(Ca_4.93_[box]_0.07_)_Σ=5_((PO_4_)_2.86_(CO_3_)_0.14_)_Σ=3_F_1.00_ ; C not measured but estimated by difference and charge balance
177.3341, 0.0000000E+00
177.8163, 8.663086
178.2984, 34.28809
178.7805, 63.15918
179.2626, 79.67383
179.7447, 77.35645
180.2268, 62.88867
180.7090, 58.01367
181.1911, 55.35742
181.6732, 39.37305
182.1553, 30.10156
182.6374, 26.86230
183.1195, 19.04785
183.6017, 6.377930
184.0838, 4.920898
184.5659, 7.769531
185.0480, 2.953125
185.5301, 6.598633
186.0123, 21.75098
186.4944, 40.51855
186.9765, 54.98340
187.4586, 64.08203
187.9407, 72.06836
188.4228, 83.10059
188.9050, 97.10742
189.3871, 117.2021
189.8692, 151.0391
190.3513, 193.9385
190.8334, 223.3018
191.3155, 236.8477
191.7977, 239.7266
192.2798, 239.4512
192.7619, 236.1680
193.2440, 228.4102
193.7261, 212.1426
194.2082, 188.7266
194.6904, 173.7920
195.1725, 169.3682
195.6546, 170.7764
196.1367, 167.8379
196.6188, 160.2832
197.1009, 155.3232
197.5831, 160.9062
198.0652, 177.0605
198.5473, 178.1787
199.0294, 158.1230
199.5115, 128.7461
199.9937, 115.0127
200.4758, 118.3604
200.9579, 126.1738
201.4400, 132.5225
201.9221, 137.6494
202.4042, 140.0996
202.8864, 137.4688
203.3685, 133.4551
203.8506, 137.1279
204.3327, 151.0752
204.8148, 163.1973
205.2969, 164.4531
205.7791, 153.1523
206.2612, 142.4180
206.7433, 132.9844
207.2254, 124.5469
207.7075, 117.1660
208.1896, 110.3574
208.6718, 107.3945
209.1539, 112.3027
209.6360, 129.5703
210.1181, 134.8535
210.6002, 122.7676
211.0823, 100.4941
211.5645, 87.43750
212.0466, 86.45117
212.5287, 88.71680
213.0108, 89.35547
213.4929, 88.67773
213.9750, 90.80273
214.4572, 96.52148
214.9393, 105.1562
215.4214, 110.3418
215.9035, 110.9824
216.3856, 112.4961
216.8678, 116.4199
217.3499, 125.7109
217.8320, 130.9238
218.3141, 128.3223
218.7962, 121.1426
219.2783, 119.3223
219.7605, 124.2168
220.2426, 130.3770
220.7247, 135.3516
221.2068, 140.8105
221.6889, 139.8398
222.1710, 127.6406
222.6532, 110.5605
223.1353, 107.1680
223.6174, 126.6699
224.0995, 146.1367
224.5816, 153.7207
225.0637, 147.2148
225.5459, 134.9980
226.0280, 111.3379
226.5101, 83.08398
226.9922, 74.75391
227.4743, 99.42383
227.9564, 126.0898
228.4386, 138.0645
228.9207, 125.6504
229.4028, 118.4590
229.8849, 121.8906
230.3670, 131.7109
230.8492, 127.7031
231.3313, 97.57617
231.8134, 68.41992
232.2955, 53.15625
232.7776, 58.88281
233.2597, 62.82227
233.7419, 66.07617
234.2240, 67.82422
234.7061, 64.42188
235.1882, 54.40625
235.6703, 45.08984
236.1524, 41.06445
236.6346, 45.32227
237.1167, 48.52148
237.5988, 51.16797
238.0809, 52.93164
238.5630, 52.08008
239.0451, 43.16992
239.5273, 38.60156
240.0094, 44.94336
240.4915, 69.78125
240.9736, 84.62695
241.4557, 83.95312
241.9378, 74.91992
242.4200, 74.10352
242.9021, 87.71094
243.3842, 100.8320
243.8663, 107.5977
244.3484, 105.9766
244.8306, 103.4355
245.3127, 98.58008
245.7948, 92.88281
246.2769, 88.96680
246.7590, 86.26953
247.2411, 86.82227
247.7233, 93.79883
248.2054, 112.9941
248.6875, 116.1250
249.1696, 94.82227
249.6517, 63.50000
250.1338, 46.19727
250.6160, 51.39258
251.0981, 55.07227
251.5802, 46.91211
252.0623, 21.79102
252.5444, 13.71680
253.0265, 32.37695
253.5087, 60.33984
253.9908, 70.53906
254.4729, 52.35938
254.9550, 38.86719
255.4371, 42.56055
255.9192, 66.93359
256.4014, 76.66406
256.8835, 62.87695
257.3656, 43.20312
257.8477, 40.61133
258.3298, 63.29883
258.8120, 84.83789
259.2941, 99.95117
259.7762, 108.6426
260.2583, 109.4648
260.7404, 98.28516
261.2225, 83.93945
261.7047, 75.45312
262.1868, 72.71680
262.6689, 75.66797
263.1510, 86.89648
263.6331, 105.5762
264.1152, 115.6543
264.5974, 112.5000
265.0795, 107.3301
265.5616, 112.9512
266.0437, 136.9688
266.5258, 148.3379
267.0079, 136.3145
267.4901, 105.0332
267.9722, 91.66797
268.4543, 104.2637
268.9364, 119.9297
269.4185, 117.8418
269.9006, 92.72656
270.3828, 74.49805
270.8649, 69.31445
271.3470, 74.30664
271.8291, 76.40039
272.3112, 74.90039
272.7933, 71.35547
273.2755, 64.87891
273.7576, 53.80664
274.2397, 48.75586
274.7218, 52.64453
275.2039, 61.74023
275.6860, 66.05664
276.1682, 66.11914
276.6503, 60.20898
277.1324, 44.69336
277.6145, 18.65820
278.0966, 0.5019530
278.5787, 9.578125
279.0609, 11.88867
279.5430, 14.78906
280.0251, 18.26758
280.5072, 20.01172
280.9893, 16.61719
281.4715, 8.058594
281.9536, 4.609375
282.4357, 8.439453
282.9178, 14.87891
283.3999, 17.64648
283.8820, 17.12695
284.3642, 11.57227
284.8463, 2.003906
285.3284, 22.59570
285.8105, 38.24805
286.2926, 47.26562
286.7747, 54.53320
287.2569, 68.92578
287.7390, 90.12695
288.2211, 106.4727
288.7032, 111.2559
289.1853, 106.4707
289.6674, 101.1797
290.1496, 95.81250
290.6317, 90.60742
291.1138, 85.42188
291.5959, 80.70898
292.0780, 77.43945
292.5602, 77.11523
293.0423, 78.61328
293.5244, 80.55273
294.0065, 83.22656
294.4886, 81.93750
294.9707, 66.79102
295.4529, 42.96680
295.9350, 29.63867
296.4171, 36.38477
296.8992, 52.03516
297.3813, 57.04883
297.8634, 52.02148
298.3456, 44.07812
298.8277, 36.83984
299.3098, 30.32812
299.7919, 24.71875
300.2740, 20.13086
300.7561, 16.53711
301.2383, 10.52344
301.7204, 3.691406
302.2025, 2.806641
302.6846, 20.42773
303.1667, 44.66016
303.6488, 56.62109
304.1310, 50.32422
304.6131, 40.47070
305.0952, 43.12500
305.5773, 54.00977
306.0594, 61.48047
306.5415, 53.03711
307.0237, 40.85938
307.5058, 39.26953
307.9879, 50.66602
308.4700, 65.09180
308.9521, 78.60352
309.4343, 89.45703
309.9164, 95.61133
310.3985, 93.77148
310.8806, 89.21680
311.3627, 84.59570
311.8448, 80.00781
312.3270, 77.76758
312.8091, 79.28516
313.2912, 83.79297
313.7733, 90.25391
314.2554, 100.5078
314.7375, 111.0273
315.2197, 121.4336
315.7018, 131.7324
316.1839, 138.2773
316.6660, 134.3750
317.1481, 128.6016
317.6302, 127.9336
318.1124, 140.9258
318.5945, 150.8691
319.0766, 151.7969
319.5587, 145.0059
320.0408, 136.0918
320.5229, 118.0742
321.0051, 105.2324
321.4872, 108.4453
321.9693, 145.9746
322.4514, 167.3867
322.9335, 148.3672
323.4156, 107.5488
323.8978, 80.96680
324.3799, 85.51562
324.8620, 96.12305
325.3441, 104.2598
325.8262, 108.2754
326.3083, 112.7656
326.7905, 123.0195
327.2726, 132.6016
327.7547, 133.1152
328.2368, 110.7793
328.7189, 93.76953
329.2010, 89.71680
329.6832, 100.0254
330.1653, 106.1016
330.6474, 106.3516
331.1295, 103.2676
331.6116, 98.85352
332.0938, 89.18945
332.5759, 85.09375
333.0580, 90.83008
333.5401, 104.4902
334.0222, 110.4785
334.5043, 107.2441
334.9865, 97.95312
335.4686, 83.34375
335.9507, 58.32617
336.4328, 42.28516
336.9149, 40.27344
337.3970, 46.12500
337.8792, 42.88672
338.3613, 26.35547
338.8434, 14.53516
339.3255, 18.44141
339.8076, 40.94531
340.2898, 56.55078
340.7719, 65.74805
341.2540, 68.35742
341.7361, 61.66211
342.2182, 44.31445
342.7003, 32.58984
343.1825, 34.97266
343.6646, 48.22461
344.1467, 46.40039
344.6288, 26.76758
345.1109, 6.525391
345.5930, 3.970703
346.0752, 17.39258
346.5573, 34.81445
347.0394, 56.86719
347.5215, 77.92383
348.0036, 83.25391
348.4857, 72.95117
348.9679, 63.17188
349.4500, 70.02148
349.9321, 87.23828
350.4142, 95.66406
350.8963, 91.10547
351.3784, 84.59570
351.8606, 88.83789
352.3427, 100.3281
352.8248, 109.9355
353.3069, 112.2812
353.7890, 110.8359
354.2711, 108.6035
354.7533, 104.7129
355.2354, 104.8594
355.7175, 123.6738
356.1996, 149.8809
356.6817, 162.7148
357.1638, 137.6680
357.6460, 105.0332
358.1281, 87.10938
358.6102, 83.83789
359.0923, 87.65625
359.5744, 102.7402
360.0565, 119.8633
360.5387, 129.5215
361.0208, 123.8281
361.5029, 114.0254
361.9850, 102.8359
362.4671, 91.16797
362.9492, 81.79297
363.4314, 74.24023
363.9135, 70.47461
364.3956, 72.59766
364.8777, 84.86328
365.3598, 94.02344
365.8419, 98.16797
366.3241, 97.68945
366.8062, 92.88672
367.2883, 76.93164
367.7704, 63.08789
368.2526, 55.71680
368.7347, 56.33203
369.2168, 54.82617
369.6989, 45.34570
370.1810, 37.15430
370.6631, 38.36328
371.1453, 55.37305
371.6274, 72.72266
372.1095, 92.02930
372.5916, 111.6562
373.0737, 118.4180
373.5558, 105.3398
374.0380, 90.07422
374.5201, 83.64648
375.0022, 90.42578
375.4843, 89.31836
375.9664, 74.80664
376.4485, 56.35742
376.9307, 55.69727
377.4128, 76.97266
377.8949, 97.23242
378.3770, 106.3945
378.8591, 104.8379
379.3412, 104.9688
379.8234, 107.9883
380.3055, 108.0195
380.7876, 94.21484
381.2697, 67.74414
381.7518, 48.68164
382.2339, 44.21875
382.7161, 49.67578
383.1982, 56.58789
383.6803, 64.62500
384.1624, 70.26758
384.6445, 68.47461
385.1266, 62.15625
385.6088, 58.97461
386.0909, 60.82617
386.5730, 63.50586
387.0551, 60.19336
387.5372, 53.22266
388.0193, 49.27734
388.5015, 54.75977
388.9836, 63.10156
389.4657, 67.70117
389.9478, 68.03516
390.4299, 65.13086
390.9120, 54.51758
391.3942, 42.70117
391.8763, 37.48438
392.3584, 50.61133
392.8405, 62.26758
393.3226, 57.72266
393.8047, 41.18750
394.2869, 32.26758
394.7690, 49.27539
395.2511, 69.52734
395.7332, 78.09961
396.2154, 66.31641
396.6975, 55.61523
397.1796, 51.39258
397.6617, 52.05273
398.1438, 53.68945
398.6259, 58.79492
399.1081, 61.78711
399.5902, 58.57031
400.0723, 46.76172
400.5544, 43.31836
401.0365, 54.86523
401.5186, 69.86328
402.0008, 77.28711
402.4829, 68.51562
402.9650, 67.65234
403.4471, 83.31641
403.9292, 109.9902
404.4113, 118.9766
404.8935, 103.6191
405.3756, 86.11133
405.8577, 80.88672
406.3398, 91.36523
406.8219, 87.90039
407.3040, 68.53125
407.7862, 39.59961
408.2683, 6.193359
408.7504, 31.78320
409.2325, 59.43555
409.7146, 67.47070
410.1967, 61.75000
410.6789, 61.90039
411.1610, 67.89062
411.6431, 72.87891
412.1252, 68.80078
412.6073, 58.94336
413.0894, 54.47266
413.5716, 61.16602
414.0537, 67.51367
414.5358, 57.47852
415.0179, 35.34570
415.5000, 13.41992
415.9821, 4.001953
416.4643, 15.17383
416.9464, 13.37891
417.4285, 3.513672
417.9106, 14.55859
418.3927, 1.628906
418.8748, 28.19336
419.3570, 44.45508
419.8391, 28.45703
420.3212, 15.56055
420.8033, 28.22070
421.2854, 59.80469
421.7675, 79.32617
422.2497, 70.19336
422.7318, 52.91602
423.2139, 37.22266
423.6960, 22.94727
424.1781, 14.12891
424.6602, 14.00000
425.1424, 19.24023
425.6245, 24.68750
426.1066, 28.79102
426.5887, 34.89844
427.0709, 43.93164
427.5530, 55.51758
428.0351, 64.94922
428.5172, 71.23828
428.9993, 77.83594
429.4814, 87.59570
429.9636, 102.1152
430.4457, 111.6895
430.9278, 114.9531
431.4099, 113.1328
431.8920, 105.7852
432.3741, 91.35547
432.8563, 84.60938
433.3384, 99.64062
433.8205, 131.0176
434.3026, 135.9785
434.7847, 111.9766
435.2668, 86.37500
435.7490, 86.29297
436.2311, 107.4082
436.7132, 136.0820
437.1953, 176.8574
437.6774, 212.1562
438.1595, 210.5137
438.6417, 180.2422
439.1238, 155.6426
439.6059, 162.7578
440.0880, 183.3535
440.5701, 200.0879
441.0522, 211.7051
441.5344, 216.5723
442.0165, 210.6719
442.4986, 198.4531
442.9807, 185.1934
443.4628, 168.3965
443.9449, 155.0547
444.4271, 147.8145
444.9092, 146.1973
445.3913, 148.1387
445.8734, 156.9746
446.3555, 165.5254
446.8376, 169.7207
447.3198, 166.7812
447.8019, 163.8477
448.2840, 159.4141
448.7661, 155.4570
449.2482, 154.9316
449.7303, 161.3203
450.2125, 165.8223
450.6946, 167.5547
451.1767, 166.3945
451.6588, 156.6660
452.1409, 135.2617
452.6230, 113.4883
453.1052, 98.34961
453.5873, 90.28320
454.0694, 85.48828
454.5515, 84.99023
455.0337, 84.70312
455.5158, 73.35742
455.9979, 52.18164
456.4800, 39.32031
456.9621, 50.80469
457.4442, 73.63672
457.9264, 75.59961
458.4085, 57.33398
458.8906, 35.42188
459.3727, 22.22266
459.8548, 14.71680
460.3369, 6.974609
460.8191, 3.738281
461.3012, 10.04492
461.7833, 0.9453130
462.2654, 17.10938
462.7475, 30.32617
463.2296, 22.36719
463.7118, 16.93359
464.1939, 31.65430
464.6760, 68.02734
465.1581, 96.22656
465.6402, 100.7422
466.1223, 95.57617
466.6045, 89.20703
467.0866, 77.75977
467.5687, 72.55273
468.0508, 81.08594
468.5329, 95.76758
469.0150, 100.6680
469.4972, 90.40820
469.9793, 78.24023
470.4614, 65.54102
470.9435, 51.44531
471.4256, 54.63672
471.9077, 85.76172
472.3899, 114.9102
472.8720, 107.8027
473.3541, 60.10742
473.8362, 35.02930
474.3183, 45.89258
474.8004, 74.86523
475.2826, 87.77344
475.7647, 85.55273
476.2468, 82.04297
476.7289, 82.94531
477.2110, 86.11133
477.6931, 87.30273
478.1753, 86.43164
478.6574, 85.09375
479.1395, 85.60156
479.6216, 86.12695
480.1037, 83.93945
480.5858, 77.72266
481.0680, 70.23633
481.5501, 60.99414
482.0322, 52.35547
482.5143, 48.86328
482.9964, 61.99023
483.4786, 73.03711
483.9607, 71.89258
484.4428, 57.08008
484.9249, 43.37891
485.4070, 27.04688
485.8892, 17.08008
486.3713, 20.69531
486.8534, 53.73047
487.3355, 75.87695
487.8176, 78.90430
488.2997, 72.66797
488.7819, 80.49414
489.2640, 110.3574
489.7461, 135.4590
490.2282, 144.6035
490.7103, 139.0957
491.1924, 141.0000
491.6746, 151.5117
492.1567, 163.7715
492.6388, 170.3906
493.1209, 172.4707
493.6030, 178.2617
494.0851, 190.8047
494.5673, 202.5293
495.0494, 197.7051
495.5315, 181.3320
496.0136, 170.9727
496.4957, 177.7422
496.9778, 193.3457
497.4600, 214.2246
497.9421, 238.9688
498.4242, 255.6543
498.9063, 258.3086
499.3884, 249.6992
499.8705, 229.6289
500.3527, 189.6191
500.8348, 159.2520
501.3169, 155.7617
501.7990, 166.4941
502.2811, 173.8711
502.7632, 179.7949
503.2454, 176.7383
503.7275, 155.0391
504.2096, 118.0957
504.6917, 104.2754
505.1738, 133.8672
505.6559, 159.6172
506.1381, 152.2949
506.6202, 99.13281
507.1023, 66.79688
507.5844, 58.24023
508.0665, 65.83789
508.5486, 81.60156
509.0308, 105.8203
509.5129, 131.6777
509.9950, 157.9102
510.4771, 183.6113
510.9592, 208.9570
511.4413, 232.8926
511.9235, 252.3320
512.4056, 264.1855
512.8877, 269.8379
513.3698, 269.7129
513.8519, 263.0078
514.3340, 259.2871
514.8162, 271.4336
515.2983, 288.4863
515.7804, 297.3965
516.2625, 292.8320
516.7446, 282.2500
517.2267, 264.9570
517.7089, 244.4219
518.1910, 228.3887
518.6731, 217.7402
519.1552, 213.6309
519.6373, 219.8711
520.1194, 238.1797
520.6016, 248.8320
521.0837, 246.5801
521.5658, 241.6348
522.0479, 240.7500
522.5300, 243.6230
523.0121, 250.2129
523.4943, 261.6426
523.9764, 274.7793
524.4585, 284.3770
524.9406, 289.8652
525.4227, 294.1582
525.9048, 298.8594
526.3870, 302.7852
526.8691, 305.9023
527.3513, 307.8984
527.8334, 301.7383
528.3155, 274.3574
528.7976, 238.9609
529.2797, 214.3906
529.7618, 203.3418
530.2440, 200.4414
530.7261, 203.1914
531.2082, 211.1562
531.6903, 223.3086
532.1724, 251.2480
532.6545, 270.7598
533.1367, 267.8945
533.6188, 249.3340
534.1009, 239.8633
534.5830, 252.0020
535.0651, 265.3730
535.5472, 275.2949
536.0294, 283.3496
536.5115, 277.3809
536.9936, 247.5527
537.4757, 217.7891
537.9578, 210.6348
538.4399, 230.8164
538.9221, 244.4707
539.4042, 247.8945
539.8863, 244.4551
540.3684, 237.4551
540.8505, 227.4629
541.3326, 222.3574
541.8148, 229.8965
542.2969, 241.3672
542.7790, 238.9316
543.2611, 224.3633
543.7432, 212.1152
544.2253, 212.8164
544.7075, 220.4531
545.1896, 229.4727
545.6717, 239.4570
546.1538, 249.2383
546.6359, 259.8398
547.1180, 269.4570
547.6002, 275.7891
548.0823, 275.4180
548.5644, 275.0508
549.0465, 274.9805
549.5286, 275.7070
550.0107, 278.7070
550.4929, 283.6484
550.9750, 291.1953
551.4571, 304.3398
551.9392, 323.1094
552.4213, 324.3008
552.9034, 302.0156
553.3856, 280.4219
553.8677, 287.3320
554.3498, 318.6992
554.8319, 320.5625
555.3140, 281.7695
555.7961, 234.1602
556.2783, 220.7773
556.7604, 232.6406
557.2425, 244.7656
557.7246, 250.6758
558.2067, 250.6875
558.6888, 241.8633
559.1710, 226.8633
559.6531, 213.9961
560.1352, 204.0352
560.6173, 200.3984
561.0994, 208.0469
561.5815, 229.3477
562.0637, 245.2109
562.5458, 247.3516
563.0279, 245.4492
563.5100, 246.9844
563.9921, 255.6953
564.4742, 260.0586
564.9564, 256.1680
565.4385, 249.7656
565.9206, 250.5312
566.4027, 258.6172
566.8848, 271.5508
567.3669, 291.1094
567.8491, 313.2070
568.3312, 321.3203
568.8133, 315.8242
569.2954, 310.5703
569.7775, 316.3203
570.2596, 327.9062
570.7418, 338.0078
571.2239, 346.7734
571.7060, 346.6875
572.1881, 322.9453
572.6702, 291.5820
573.1523, 270.6289
573.6345, 268.6094
574.1166, 271.0039
574.5987, 279.0391
575.0808, 286.1641
575.5629, 281.9961
576.0450, 247.1133
576.5272, 220.6719
577.0093, 210.6914
577.4914, 215.0391
577.9735, 223.8789
578.4556, 240.9883
578.9377, 254.8242
579.4199, 258.6602
579.9020, 252.2930
580.3841, 250.3242
580.8662, 253.4141
581.3483, 259.2500
581.8304, 270.0391
582.3126, 282.3203
582.7947, 281.7070
583.2768, 262.5312
583.7589, 239.0781
584.2410, 221.6719
584.7231, 211.2422
585.2053, 209.7109
585.6874, 215.8477
586.1696, 231.8359
586.6517, 271.4609
587.1338, 325.1094
587.6159, 352.7617
588.0980, 320.8398
588.5801, 279.9141
589.0623, 250.0312
589.5444, 232.3984
590.0265, 218.4766
590.5086, 213.5938
590.9907, 208.8125
591.4728, 193.9883
591.9550, 165.8711
592.4371, 145.9492
592.9192, 137.0273
593.4013, 138.0781
593.8834, 153.0078
594.3655, 177.9883
594.8477, 191.0898
595.3298, 180.0078
595.8119, 160.1133
596.2940, 153.3516
596.7761, 157.0742
597.2582, 160.1641
597.7404, 146.1914
598.2225, 136.9258
598.7046, 155.5625
599.1867, 202.0469
599.6688, 230.9609
600.1509, 213.8906
600.6331, 185.0234
601.1152, 165.5039
601.5973, 162.0156
602.0794, 152.7422
602.5615, 133.4023
603.0436, 112.3320
603.5258, 99.61328
604.0079, 96.98047
604.4900, 95.62891
604.9721, 95.69141
605.4542, 95.16406
605.9363, 85.56250
606.4185, 69.06641
606.9006, 62.47266
607.3827, 83.02344
607.8648, 112.5586
608.3469, 121.4805
608.8290, 112.7773
609.3112, 103.8984
609.7933, 109.0820
610.2754, 115.4219
610.7575, 110.1016
611.2396, 88.96484
611.7217, 77.72266
612.2039, 89.02344
612.6860, 106.4180
613.1681, 118.8086
613.6502, 124.0547
614.1323, 128.1211
614.6144, 130.4180
615.0966, 129.2266
615.5787, 122.5625
616.0608, 109.5898
616.5429, 98.69922
617.0250, 94.46094
617.5071, 91.62891
617.9893, 73.54688
618.4714, 43.06250
618.9535, 20.07812
619.4356, 22.09375
619.9177, 34.07812
620.3998, 36.81641
620.8820, 31.31250
621.3641, 25.66797
621.8462, 25.90234
622.3283, 26.00781
622.8104, 20.28516
623.2925, 4.734375
623.7747, 4.578125
624.2568, 3.468750
624.7389, 3.480469
625.2210, 13.12109
625.7031, 28.94141
626.1852, 38.71094
626.6674, 40.81250
627.1495, 37.10156
627.6316, 26.59766
628.1137, 8.621094
628.5958, 3.585938
629.0779, 24.64844
629.5601, 54.22656
630.0422, 55.33594
630.5243, 32.78906
631.0064, 8.675781
631.4885, 6.589844
631.9706, 15.91406
632.4528, 20.22656
632.9349, 19.92578
633.4170, 19.53906
633.8991, 24.38281
634.3812, 26.83203
634.8633, 22.38672
635.3455, 10.25781
635.8276, 8.382813
636.3097, 39.14844
636.7918, 70.79688
637.2739, 94.17188
637.7560, 107.9062
638.2382, 114.7891
638.7203, 111.5820
639.2024, 105.5156
639.6845, 108.0469
640.1666, 118.0664
640.6487, 128.4453
641.1309, 135.2617
641.6130, 143.0430
642.0951, 160.7734
642.5772, 184.4648
643.0594, 202.2734
643.5415, 206.7227
644.0236, 205.3125
644.5057, 202.7109
644.9879, 199.1523
645.4700, 192.4062
645.9521, 193.1484
646.4342, 181.4648
646.9163, 146.5508
647.3984, 84.04688
647.8806, 31.85547
648.3627, 9.433594
648.8448, 39.85547
649.3269, 56.03125
649.8090, 57.48047
650.2911, 64.65234
650.7733, 80.75391
651.2554, 93.31250
651.7375, 86.99609
652.2196, 65.63281
652.7017, 37.62500
653.1838, 2.460938
653.6660, 31.90625
654.1481, 61.02734
654.6302, 83.90625
655.1123, 99.65625
655.5944, 100.6289
656.0765, 100.2812
656.5587, 95.03906
657.0408, 89.03906
657.5229, 104.8359
658.0050, 159.3203
658.4871, 204.3555
658.9692, 220.9570
659.4514, 211.4688
659.9335, 203.7344
660.4156, 198.1719
660.8977, 190.5000
661.3798, 173.6133
661.8619, 152.8281
662.3441, 145.2461
662.8262, 152.5195
663.3083, 158.6797
663.7904, 152.2188
664.2725, 138.8398
664.7546, 121.0352
665.2368, 94.83203
665.7189, 78.34766
666.2010, 87.22266
666.6831, 106.6992
667.1652, 120.2812
667.6473, 131.1133
668.1295, 127.8867
668.6116, 100.1016
669.0937, 64.87500
669.5758, 60.77344
670.0579, 92.56250
670.5400, 109.5195
671.0222, 88.50000
671.5043, 51.20703
671.9864, 41.78906
672.4685, 57.71094
672.9506, 85.11328
673.4327, 126.4141
673.9149, 167.0586
674.3970, 193.7734
674.8791, 206.9336
675.3612, 213.6289
675.8433, 218.7148
676.3254, 217.1289
676.8076, 204.1602
677.2897, 177.7031
677.7718, 154.2734
678.2539, 129.6758
678.7360, 115.7305
679.2181, 125.7773
679.7003, 163.7578
680.1824, 186.6875
680.6645, 190.8516
681.1466, 191.5469
681.6287, 205.4062
682.1108, 229.0625
682.5930, 253.7109
683.0751, 279.4492
683.5572, 298.1016
684.0393, 300.8789
684.5214, 293.6211
685.0035, 280.3984
685.4857, 252.7969
685.9678, 233.3867
686.4499, 229.2344
686.9320, 237.0586
687.4141, 253.3828
687.8962, 291.7148
688.3784, 319.1289
688.8605, 326.3750
689.3426, 319.2852
689.8247, 316.0156
690.3068, 318.5469
690.7889, 316.8047
691.2711, 302.8906
691.7532, 283.2891
692.2353, 276.7578
692.7174, 281.0156
693.1995, 276.0195
693.6816, 238.3242
694.1638, 194.3164
694.6459, 162.3438
695.1280, 144.1875
695.6101, 136.3125
696.0922, 144.0391
696.5743, 157.6680
697.0565, 174.3984
697.5386, 199.2539
698.0207, 206.5820
698.5028, 189.1992
698.9849, 170.5820
699.4670, 177.3164
699.9492, 206.1836
700.4313, 219.0703
700.9135, 207.7578
701.3956, 198.8398
701.8777, 232.6055
702.3598, 284.9180
702.8419, 312.4141
703.3240, 288.8359
703.8062, 265.5859
704.2883, 271.5273
704.7704, 292.8438
705.2525, 309.3555
705.7346, 322.2266
706.2167, 320.8555
706.6989, 297.0859
707.1810, 263.5742
707.6631, 250.9453
708.1452, 264.3516
708.6273, 268.2422
709.1094, 250.5508
709.5916, 221.0625
710.0737, 197.5586
710.5558, 180.6367
711.0379, 170.3516
711.5200, 165.3281
712.0021, 165.8008
712.4843, 175.7344
712.9664, 192.2461
713.4485, 203.4258
713.9306, 199.5078
714.4127, 192.8516
714.8948, 186.2891
715.3770, 179.6875
715.8591, 184.2422
716.3412, 208.9922
716.8233, 227.1367
717.3054, 222.0352
717.7875, 194.6523
718.2697, 162.1523
718.7518, 124.0547
719.2339, 89.26562
719.7160, 69.20703
720.1981, 56.47656
720.6802, 36.18750
721.1624, 5.386719
721.6445, 17.03906
722.1266, 10.75781
722.6087, 3.472656
723.0908, 6.941406
723.5729, 11.23438
724.0551, 24.37891
724.5372, 32.65234
725.0193, 34.24609
725.5014, 24.83203
725.9835, 1.445313
726.4656, 13.97266
726.9478, 18.20703
727.4299, 16.53906
727.9120, 11.39844
728.3941, 5.679688
728.8762, 11.62891
729.3583, 39.54688
729.8405, 63.96875
730.3226, 58.85547
730.8047, 37.57031
731.2868, 21.62891
731.7689, 16.60547
732.2510, 17.35547
732.7332, 27.08984
733.2153, 40.89844
733.6974, 49.15234
734.1795, 49.57031
734.6616, 51.08594
735.1437, 56.96875
735.6259, 64.27734
736.1080, 62.04297
736.5901, 51.79688
737.0722, 47.59375
737.5543, 57.90625
738.0364, 75.86719
738.5186, 97.47656
739.0007, 120.5352
739.4828, 138.8789
739.9649, 166.8867
740.4470, 173.1914
740.9291, 125.0664
741.4113, 29.03906
741.8934, 17.88281
742.3755, 14.25781
742.8576, 41.53125
743.3397, 21.12500
743.8218, 36.68359
744.3040, 37.65234
744.7861, 19.91016
745.2682, 69.42188
745.7503, 49.67188
746.2324, 0.8007810
746.7145, 16.50391
747.1967, 2.398438
747.6788, 17.52734
748.1609, 2.484375
748.6430, 26.03516
749.1251, 31.14453
749.6072, 11.48828
750.0894, 5.136719
750.5715, 16.44141
751.0536, 26.62891
751.5357, 40.57031
752.0178, 60.08984
752.4999, 62.21484
752.9821, 44.65234
753.4642, 25.57422
753.9463, 19.95312
754.4284, 25.80078
754.9105, 42.23047
755.3926, 70.57422
755.8748, 93.50391
756.3569, 94.73438
756.8390, 88.16016
757.3211, 87.02344
757.8032, 98.42969
758.2853, 101.9258
758.7675, 90.09375
759.2496, 75.92578
759.7318, 74.39453
760.2139, 89.05859
760.6960, 86.04297
761.1781, 58.10547
761.6602, 29.86719
762.1423, 36.86328
762.6245, 66.83594
763.1066, 89.07031
763.5887, 95.01172
764.0708, 99.80078
764.5529, 117.6797
765.0350, 138.6797
765.5172, 150.8086
765.9993, 144.6016
766.4814, 137.2930
766.9635, 125.8164
767.4456, 115.8203
767.9277, 115.8828
768.4099, 127.4219
768.8920, 137.4453
769.3741, 144.9023
769.8562, 146.3828
770.3383, 132.5391
770.8204, 108.9688
771.3026, 91.43359
771.7847, 88.03516
772.2668, 86.85938
772.7489, 79.07812
773.2310, 69.37500
773.7131, 64.77734
774.1953, 84.99609
774.6774, 87.00391
775.1595, 51.12109
775.6416, 4.917969
776.1237, 6.984375
776.6058, 66.48828
777.0880, 100.4102
777.5701, 79.08594
778.0522, 39.33984
778.5343, 46.97656
779.0164, 86.59766
779.4985, 116.1719
779.9807, 110.6914
780.4628, 102.3320
780.9449, 112.7422
781.4270, 131.9922
781.9091, 141.1875
782.3912, 127.4297
782.8734, 116.5742
783.3555, 114.5000
783.8376, 118.5195
784.3197, 119.5039
784.8018, 117.1758
785.2839, 111.7695
785.7661, 103.0234
786.2482, 91.84766
786.7303, 78.28906
787.2124, 64.28906
787.6945, 53.35547
788.1766, 40.59766
788.6588, 37.97266
789.1409, 58.76172
789.6230, 94.45312
790.1051, 121.6367
790.5872, 137.7539
791.0693, 145.3711
791.5515, 141.4766
792.0336, 131.1602
792.5157, 128.6875
792.9978, 134.2617
793.4799, 143.3867
793.9620, 159.1797
794.4442, 172.5508
794.9263, 162.4883
795.4084, 138.4883
795.8905, 127.0312
796.3726, 154.2344
796.8547, 180.8359
797.3369, 186.3047
797.8190, 176.9805
798.3011, 177.8594
798.7832, 196.1836
799.2653, 209.2031
799.7474, 207.3828
800.2296, 199.2812
800.7117, 202.5742
801.1938, 215.8359
801.6759, 222.1953
802.1580, 218.7148
802.6401, 209.5117
803.1223, 191.2891
803.6044, 166.9297
804.0865, 143.4375
804.5686, 116.9727
805.0507, 100.5977
805.5328, 104.8398
806.0150, 121.1562
806.4971, 124.4219
806.9792, 109.6602
807.4613, 105.1016
807.9434, 120.7656
808.4255, 146.1875
808.9077, 161.8281
809.3898, 167.5234
809.8719, 163.2266
810.3540, 137.2852
810.8361, 112.5234
811.3182, 111.0039
811.8004, 123.7891
812.2825, 130.4375
812.7646, 112.1211
813.2467, 104.5391
813.7288, 123.9648
814.2109, 154.8164
814.6931, 151.7734
815.1752, 110.4141
815.6573, 81.26953
816.1394, 81.59375
816.6215, 98.05469
817.1037, 113.6992
817.5858, 127.2695
818.0679, 135.5664
818.5500, 128.0312
819.0322, 124.6250
819.5143, 140.7773
819.9964, 166.2422
820.4785, 178.9219
820.9606, 166.3398
821.4427, 161.2227
821.9249, 172.6289
822.4070, 188.8711
822.8891, 184.5820
823.3712, 161.3398
823.8533, 136.1523
824.3354, 112.8867
824.8176, 92.58984
825.2997, 76.55078
825.7818, 65.10938
826.2639, 58.50781
826.7460, 66.80469
827.2281, 68.96875
827.7103, 49.76172
828.1924, 27.18359
828.6745, 25.63281
829.1566, 48.69922
829.6387, 80.67188
830.1208, 124.6406
830.6030, 161.9727
831.0851, 154.5312
831.5672, 116.0469
832.0493, 83.90234
832.5314, 67.01172
833.0135, 60.83594
833.4957, 66.00781
833.9778, 78.68750
834.4599, 94.84766
834.9420, 140.9453
835.4241, 147.6250
835.9063, 94.17578
836.3884, 27.41406
836.8705, 10.36328
837.3526, 41.41797
837.8347, 42.86719
838.3168, 0.8398440
838.7990, 40.16016
839.2811, 9.820313
839.7632, 51.35938
840.2453, 87.25391
840.7274, 78.07422
841.2095, 73.34375
841.6917, 110.9336
842.1738, 142.9219
842.6559, 127.3008
843.1380, 39.33594
843.6201, 6.335938
844.1022, 2.527344
844.5844, 18.75391
845.0665, 33.64453
845.5486, 42.23047
846.0307, 43.25781
846.5128, 36.91797
846.9949, 27.99219
847.4771, 13.58984
847.9592, 2.773438
848.4413, 3.515625
848.9234, 18.96875
849.4055, 35.08984
849.8876, 53.03906
850.3698, 67.89453
850.8519, 73.37891
851.3340, 70.69531
851.8161, 82.42578
852.2982, 108.0664
852.7803, 126.5938
853.2625, 110.6289
853.7446, 86.89844
854.2267, 89.49609
854.7088, 116.6719
855.1909, 131.8984
855.6730, 114.3086
856.1552, 91.91797
856.6373, 74.45312
857.1194, 62.05078
857.6015, 53.81641
858.0836, 50.78125
858.5657, 47.35156
859.0479, 39.98047
859.5300, 31.67969
860.0121, 28.49609
860.4942, 29.56250
860.9763, 31.42188
861.4584, 30.52344
861.9406, 31.95703
862.4227, 37.05078
862.9048, 46.33203
863.3869, 61.07812
863.8690, 85.30469
864.3511, 103.9844
864.8333, 111.9570
865.3154, 114.0430
865.7975, 121.0586
866.2796, 131.7305
866.7617, 141.5273
867.2438, 148.4648
867.7260, 154.1250
868.2081, 153.7461
868.6902, 154.2227
869.1723, 166.4336
869.6544, 214.3789
870.1365, 242.5625
870.6187, 242.3906
871.1008, 228.2852
871.5829, 216.4961
872.0650, 207.5547
872.5471, 210.4414
873.0292, 229.5977
873.5114, 246.2812
873.9935, 234.2422
874.4756, 211.6719
874.9577, 203.8359
875.4399, 222.9727
875.9220, 233.5117
876.4041, 217.0117
876.8862, 197.1133
877.3683, 187.7773
877.8505, 189.3320
878.3326, 199.4883
878.8147, 219.2383
879.2968, 236.7930
879.7789, 241.0859
880.2610, 236.3633
880.7432, 230.3086
881.2253, 223.3008
881.7074, 210.5312
882.1895, 176.3828
882.6716, 148.6484
883.1537, 150.9375
883.6359, 181.0820
884.1180, 190.2695
884.6001, 172.9023
885.0822, 155.0664
885.5643, 148.7031
886.0464, 150.5156
886.5286, 156.8008
887.0107, 166.7031
887.4928, 172.9883
887.9749, 158.5000
888.4570, 149.3828
888.9391, 172.4141
889.4213, 211.6367
889.9034, 213.3633
890.3855, 151.9219
890.8676, 113.6836
891.3497, 124.5195
891.8318, 154.5156
892.3140, 139.0742
892.7961, 91.49219
893.2782, 65.48828
893.7603, 82.55078
894.2424, 112.8242
894.7245, 145.6172
895.2067, 173.6836
895.6888, 188.1797
896.1709, 176.3789
896.6530, 168.0547
897.1351, 163.9219
897.6172, 164.2461
898.0994, 173.3398
898.5815, 188.9922
899.0636, 188.9883
899.5457, 169.9453
900.0278, 161.0508
900.5099, 208.9180
900.9921, 263.1875
901.4742, 269.8789
901.9563, 214.4180
902.4384, 183.0000
902.9205, 196.5547
903.4026, 218.9844
903.8848, 235.9961
904.3669, 247.3086
904.8490, 252.1875
905.3311, 250.5234
905.8132, 244.9062
906.2953, 234.8906
906.7775, 222.9336
907.2596, 205.6484
907.7417, 187.5039
908.2238, 183.7148
908.7059, 221.3945
909.1880, 245.3086
909.6702, 240.7773
910.1523, 218.2500
910.6344, 198.5234
911.1165, 181.9531
911.5986, 180.1016
912.0807, 203.0117
912.5629, 225.3320
913.0450, 212.1484
913.5271, 181.5117
914.0092, 159.8164
914.4913, 156.4648
914.9734, 159.6758
915.4556, 171.8633
915.9377, 185.4805
916.4198, 194.0078
916.9019, 197.2383
917.3840, 196.1445
917.8661, 189.8984
918.3483, 187.3945
918.8304, 201.5938
919.3125, 221.4570
919.7946, 234.5625
920.2767, 239.5859
920.7589, 238.5625
921.2410, 223.5742
921.7231, 211.8867
922.2052, 211.6172
922.6873, 221.0469
923.1694, 222.6836
923.6516, 215.7617
924.1337, 218.3281
924.6158, 250.3398
925.0979, 286.6523
925.5800, 288.0938
926.0621, 266.9531
926.5443, 254.2422
927.0264, 274.3242
927.5085, 286.3281
927.9906, 278.2188
928.4727, 260.9648
928.9548, 253.0742
929.4370, 255.2578
929.9191, 256.3789
930.4012, 254.5859
930.8833, 252.5625
931.3654, 250.4414
931.8475, 251.1875
932.3297, 260.8203
932.8118, 285.3438
933.2939, 299.4180
933.7761, 293.3203
934.2582, 277.2617
934.7403, 252.6523
935.2224, 218.3555
935.7045, 205.4766
936.1866, 214.8008
936.6688, 215.1680
937.1509, 171.4609
937.6330, 116.2891
938.1151, 92.60938
938.5972, 94.53516
939.0793, 86.10547
939.5615, 50.21484
940.0436, 10.88672
940.5257, 28.62109
941.0078, 64.61328
941.4899, 86.33594
941.9720, 93.87109
942.4542, 90.73047
942.9363, 73.65625
943.4184, 57.71875
943.9005, 74.58203
944.3826, 97.70312
944.8647, 88.10547
945.3469, 9.617188
945.8290, 48.96094
946.3111, 76.81250
946.7932, 87.37500
947.2753, 87.72656
947.7574, 78.98047
948.2396, 79.57812
948.7217, 90.01172
949.2038, 100.9141
949.6859, 102.3594
950.1680, 104.4570
950.6501, 116.1328
951.1323, 137.9961
951.6144, 165.8555
952.0965, 204.4219
952.5786, 239.6016
953.0607, 266.2344
953.5428, 286.8867
954.0250, 309.1016
954.5071, 332.2148
954.9892, 352.6484
955.4713, 361.6914
955.9534, 378.8789
956.4355, 427.3828
956.9177, 489.6602
957.3998, 540.7930
957.8819, 569.9570
958.3640, 600.8477
958.8461, 629.4453
959.3282, 670.0977
959.8104, 746.4180
960.2925, 847.1211
960.7746, 929.1719
961.2567, 989.5820
961.7388, 1049.117
962.2209, 1124.664
962.7031, 1202.133
963.1852, 1268.746
963.6673, 1324.695
964.1494, 1399.691
964.6315, 1513.133
965.1136, 1572.691
965.5958, 1531.371
966.0779, 1426.863
966.5600, 1318.250
967.0421, 1211.625
967.5242, 1128.461
968.0063, 1104.035
968.4885, 1055.262
968.9706, 928.0234
969.4527, 775.6406
969.9348, 660.3828
970.4169, 588.5938
970.8990, 527.7734
971.3812, 476.2617
971.8633, 435.6211
972.3454, 413.4922
972.8275, 400.9414
973.3096, 383.7617
973.7917, 360.6484
974.2739, 340.7852
974.7560, 332.7227
975.2381, 321.5859
975.7202, 295.9805
976.2023, 262.7539
976.6844, 265.8672
977.1666, 304.8047
977.6487, 317.8945
978.1308, 261.5469
978.6129, 199.3711
979.0950, 213.7539
979.5771, 264.4062
980.0593, 284.9375
980.5414, 225.5469
981.0235, 182.9688
981.5056, 161.8750
981.9877, 156.4883
982.4698, 168.2812
982.9520, 192.1914
983.4341, 193.3516
983.9162, 169.5547
984.3983, 147.3945
984.8804, 155.4375
985.3625, 163.8672
985.8447, 144.8438
986.3268, 99.64844
986.8089, 77.82812
987.2910, 90.26562
987.7731, 96.13281
988.2552, 78.84766
988.7374, 52.80859
989.2195, 47.93750
989.7016, 58.75391
990.1837, 71.15234
990.6658, 81.66016
991.1479, 88.34766
991.6301, 88.67578
992.1122, 85.46094
992.5944, 80.98438
993.0765, 74.78906
993.5586, 65.31250
994.0407, 52.73438
994.5228, 49.03906
995.0049, 68.96094
995.4871, 98.53906
995.9692, 120.1523
996.4513, 132.9375
996.9334, 138.7266
997.4155, 131.1406
997.8976, 124.1094
998.3798, 115.9727
998.8619, 111.1758
999.3440, 129.4141
999.8261, 167.2852
1000.308, 183.5234
1000.790, 164.3477
1001.272, 133.8359
1001.755, 98.58594
1002.237, 66.90234
1002.719, 53.23438
1003.201, 73.30469
1003.683, 75.43750
1004.165, 52.49609
1004.647, 26.03516
1005.129, 7.402344
1005.612, 3.113281
1006.094, 4.777344
1006.576, 2.093750
1007.058, 14.68359
1007.540, 46.23828
1008.022, 68.88281
1008.504, 60.37891
1008.986, 38.50391
1009.468, 33.04297
1009.951, 45.43750
1010.433, 63.86719
1010.915, 86.67578
1011.397, 109.6758
1011.879, 132.7305
1012.361, 150.5117
1012.843, 152.9922
1013.325, 135.7461
1013.807, 126.3242
1014.290, 133.3867
1014.772, 142.6641
1015.254, 150.9727
1015.736, 155.8750
1016.218, 142.1602
1016.700, 113.7109
1017.182, 93.06250
1017.664, 96.75391
1018.147, 103.1992
1018.629, 91.70703
1019.111, 77.63281
1019.593, 86.88281
1020.075, 136.3359
1020.557, 158.7578
1021.039, 148.1367
1021.521, 123.7461
1022.003, 95.64062
1022.486, 69.76953
1022.968, 64.84375
1023.450, 78.46484
1023.932, 75.10156
1024.414, 3.644531
1024.896, 41.81641
1025.378, 22.85938
1025.860, 38.00000
1026.343, 77.64844
1026.825, 96.96484
1027.307, 118.7188
1027.789, 153.1484
1028.271, 178.0859
1028.753, 161.8633
1029.235, 131.7109
1029.717, 119.7695
1030.199, 138.4141
1030.682, 143.7500
1031.164, 130.8281
1031.646, 118.3320
1032.128, 119.8359
1032.610, 129.7617
1033.092, 127.7852
1033.574, 119.5430
1034.056, 126.4609
1034.539, 180.4453
1035.021, 224.2773
1035.503, 240.8086
1035.985, 236.9219
1036.467, 213.7227
1036.949, 170.3516
1037.431, 151.5234
1037.913, 165.3203
1038.396, 173.7812
1038.878, 127.2070
1039.360, 70.55078
1039.842, 47.82812
1040.324, 63.22656
1040.806, 77.33203
1041.288, 91.08594
1041.770, 94.39844
1042.252, 78.99609
1042.734, 58.64844
1043.217, 68.76172
1043.699, 96.70703
1044.181, 106.9258
1044.663, 77.62109
1045.145, 55.88281
1045.627, 77.52734
1046.109, 98.60938
1046.591, 79.22266
1047.074, 16.28125
1047.556, 0.9804690
1048.038, 33.32812
1048.520, 62.18359
1049.002, 44.51953
1049.484, 16.62891
1049.966, 13.92188
1050.448, 26.36328
1050.931, 21.78906
1051.413, 24.28906
1051.895, 36.80078
1052.377, 1.398438
1052.859, 53.38672
1053.341, 76.69531
1053.823, 78.98438
1054.305, 73.89453
1054.787, 62.99609
1055.270, 57.02734
1055.752, 59.57422
1056.234, 69.95703
1056.716, 90.53516
1057.198, 117.1953
1057.680, 134.1055
1058.162, 141.3867
1058.644, 144.2070
1059.126, 143.6562
1059.609, 139.7344
1060.091, 131.3164
1060.573, 120.1992
1061.055, 106.8047
1061.537, 87.10156
1062.019, 86.82812
1062.501, 114.8477
1062.983, 131.1094
1063.466, 99.92188
1063.948, 45.71875
1064.430, 7.179688
1064.912, 16.07812
1065.394, 26.73047
1065.876, 11.50000
1066.358, 2.589844
1066.840, 10.23438
1067.323, 20.57812
1067.805, 18.13281
1068.287, 3.679688
1068.769, 19.66406
1069.251, 51.16406
1069.733, 89.12891
1070.215, 148.2734
1070.697, 197.4102
1071.179, 204.2383
1071.661, 180.2852
1072.144, 179.9375
1072.626, 209.2734
1073.108, 216.5742
1073.590, 181.7930
1074.072, 142.0195
1074.554, 153.7930
1075.036, 185.3828
1075.518, 191.7031
1076.001, 156.7227
1076.483, 141.8867
1076.965, 166.2070
1077.447, 182.8008
1077.929, 159.9531
1078.411, 116.8555
1078.893, 108.3047
1079.375, 127.9414
1079.858, 154.8008
1080.340, 191.0195
1080.822, 210.3203
1081.304, 185.9258
1081.786, 151.4688
1082.268, 138.5195
1082.750, 145.6875
1083.232, 136.8906
1083.714, 111.8281
1084.197, 95.68750
1084.679, 120.6719
1085.161, 150.8086
1085.643, 166.4570
1086.125, 164.8945
1086.607, 138.1992
1087.089, 72.18750
1087.571, 40.70312
1088.054, 62.33203
1088.536, 92.52734
1089.018, 71.69922
1089.500, 28.93750
1089.982, 4.960938
1090.464, 3.953125
1090.946, 12.21484
1091.428, 35.66797
1091.911, 51.35547
1092.393, 47.50781
1092.875, 35.64062
1093.357, 52.28125
1093.839, 84.94922
1094.321, 91.30469
1094.803, 48.47656
1095.285, 10.88281
1095.767, 9.667969
1096.250, 18.97266
1096.732, 22.86328
1097.214, 23.04297
1097.696, 22.80078
1098.178, 20.87109
1098.660, 24.63672
1099.142, 42.33984
1099.624, 63.67578
1100.106, 83.82812
1100.589, 98.33984
1101.071, 102.1797
1101.553, 93.77734
1102.035, 78.78125
1102.517, 54.96875
1102.999, 37.53125
1103.481, 38.07031
1103.963, 52.93750
1104.446, 84.93750
1104.928, 128.0039
1105.410, 160.3906
1105.892, 186.0781
1106.374, 180.9570
1106.856, 126.4766
1107.338, 68.07422
1107.820, 83.28516
1108.302, 139.2695
1108.785, 148.7812
1109.267, 100.1602
1109.749, 63.58594
1110.231, 81.89844
1110.713, 108.9023
1111.195, 132.3008
1111.677, 149.7383
1112.159, 154.2109
1112.641, 147.1562
1113.124, 131.3750
1113.606, 106.0898
1114.088, 80.76953
1114.570, 52.30469
1115.052, 34.90234
1115.534, 46.56250
1116.016, 84.90234
1116.498, 96.41406
1116.981, 80.01953
1117.463, 68.95703
1117.945, 81.30469
1118.427, 99.00000
1118.909, 98.32031
1119.391, 93.54688
1119.873, 108.1016
1120.355, 158.5469
1120.838, 179.5898
1121.320, 164.7773
1121.802, 146.2500
1122.284, 155.9180
1122.766, 168.0352
1123.248, 132.9805
1123.730, 71.64453
1124.212, 35.56250
1124.694, 65.21094
1125.177, 81.08594
1125.659, 71.24609
1126.141, 63.42578
1126.623, 98.58203
1127.105, 154.6055
1127.587, 165.2930
1128.069, 134.3828
1128.551, 116.0586
1129.033, 150.6016
1129.516, 179.7383
1129.998, 187.7852
1130.480, 180.5234
1130.962, 163.8203
1131.444, 139.6758
1131.926, 118.7305
1132.408, 102.4727
1132.890, 88.52734
1133.373, 73.39062
1133.855, 63.30469
1134.337, 66.86719
1134.819, 77.93750
1135.301, 73.20312
1135.783, 53.62109
1136.265, 27.59375
1136.747, 7.593750
1137.229, 27.72266
1137.712, 6.847656
1138.194, 51.82031
1138.676, 64.33984
1139.158, 43.68359
1139.640, 23.31250
1140.122, 1.089844
1140.604, 2.226563
1141.086, 29.94531
1141.569, 69.15234
1142.051, 86.67188
1142.533, 90.09375
1143.015, 89.21094
1143.497, 84.62109
1143.979, 76.62109
1144.461, 62.71484
1144.943, 55.16406
1145.426, 69.91406
1145.908, 88.42578
1146.390, 67.89453
1146.872, 30.62109
1147.354, 23.19141
1147.836, 97.41406
1148.318, 141.5781
1148.800, 148.3789
1149.282, 136.4023
1149.765, 118.1797
1150.247, 94.53906
1150.729, 58.57031
1151.211, 16.81250
1151.693, 5.289063
1152.175, 27.34375
1152.657, 46.76562
1153.139, 40.58984
1153.621, 20.98438
1154.104, 6.792969
1154.586, 35.63672
1155.068, 34.12500
1155.550, 3.933594
1156.032, 16.43359
1156.514, 8.226563
1156.996, 25.72266
1157.478, 18.82031
1157.961, 2.281250
1158.443, 24.91016
1158.925, 46.58594
1159.407, 49.30469
1159.889, 29.75391
1160.371, 16.51562
1160.853, 25.09766
1161.335, 47.29688
1161.818, 87.61719
1162.300, 133.7695
1162.782, 143.8555
1163.264, 121.5312
1163.746, 118.1289
1164.228, 149.0977
1164.710, 172.8125
1165.192, 150.4531
1165.674, 116.7500
1166.156, 94.64844
1166.639, 84.45703
1167.121, 91.36328
1167.603, 115.5430
1168.085, 128.0703
1168.567, 119.8359
1169.049, 98.40625
1169.531, 44.72266
1170.013, 1.242188
1170.496, 13.12891
1170.978, 88.71875
1171.460, 116.5352
1171.942, 93.43359
1172.424, 75.50781
1172.906, 89.74219
1173.388, 115.0742
1173.870, 143.7734
1174.353, 163.9336
1174.835, 153.1133
1175.317, 100.7773
1175.799, 84.73047
1176.281, 110.8828
1176.763, 127.1016
1177.245, 94.11719
1177.727, 47.37109
1178.209, 23.33203
1178.692, 18.26172
1179.174, 19.76172
1179.656, 15.73828
1180.138, 28.84766
1180.620, 65.01172
1181.102, 98.41406
1181.584, 98.22266
1182.066, 81.82031
1182.548, 77.40234
1183.031, 82.58984
1183.513, 87.92969
1183.995, 93.46484
1184.477, 95.29297
1184.959, 92.81641
1185.441, 89.10547
1185.923, 81.32812
1186.405, 78.13281
1186.888, 100.8125
1187.370, 139.8359
1187.852, 159.7422
1188.334, 148.5703
1188.816, 126.9844
1189.298, 91.77734
1189.780, 62.97656
1190.262, 57.34375
1190.745, 73.55859
1191.227, 129.9336
1191.709, 212.5938
1192.191, 246.0430
1192.673, 178.2578
1193.155, 135.0508
1193.637, 138.4688
1194.119, 156.0352
1194.601, 146.0078
1195.084, 124.3594
1195.566, 121.4766
1196.048, 136.6406
1196.530, 152.0391
1197.012, 168.3242
1197.494, 176.3008
1197.976, 171.8711
1198.458, 160.8594
1198.941, 149.8906
1199.423, 138.8242
1199.905, 126.4375
1200.387, 112.8906
1200.869, 102.2266
1201.351, 100.5391
1201.833, 89.07422
1202.315, 56.99609
1202.797, 26.36328
1203.280, 44.79297
1203.762, 85.34766
1204.244, 99.58594
1204.726, 79.49609
1205.208, 57.92188
1205.690, 34.30859
1206.172, 25.30469
1206.654, 41.33984
1207.136, 64.65625
1207.619, 52.76172
1208.101, 29.81250
1208.583, 46.67578
1209.065, 120.6836
1209.547, 157.5977
1210.029, 125.0391
1210.511, 100.4688
1210.993, 114.2266
1211.476, 145.5039
1211.958, 155.4297
1212.440, 153.5781
1212.922, 164.5586
1213.404, 200.6953
1213.886, 213.9023
1214.368, 188.6172
1214.850, 165.1445
1215.333, 163.7812
1215.815, 173.7383
1216.297, 181.4883
1216.779, 181.3008
1217.261, 158.1406
1217.743, 96.98047
1218.225, 62.68359
1218.707, 67.10938
1219.189, 80.32812
1219.672, 91.71484
1220.154, 98.84766
1220.636, 93.45312
1221.118, 81.91406
1221.600, 75.51172
1222.082, 77.66016
1222.564, 83.64453
1223.046, 93.82812
1223.528, 105.5898
1224.011, 119.2695
1224.493, 131.6484
1224.975, 138.7109
1225.457, 140.1875
1225.939, 134.5820
1226.421, 116.1484
1226.903, 106.5508
1227.385, 107.7227
1227.868, 111.2969
1228.350, 116.1250
1228.832, 118.1367
1229.314, 104.4805
1229.796, 85.71484
1230.278, 81.13672
1230.760, 101.1133
1231.242, 117.9414
1231.724, 133.6484
1232.207, 136.2891
1232.689, 110.1133
1233.171, 76.17578
1233.653, 61.72266
1234.135, 58.50781
1234.617, 53.91797
1235.099, 52.52344
1235.581, 22.04688
1236.063, 44.94922
1236.546, 83.55078
1237.028, 16.11719
1237.510, 61.90234
1237.992, 28.49609
1238.474, 54.74219
1238.956, 80.95703
1239.438, 26.71875
1239.920, 1.957031
1240.403, 2.496094
1240.885, 5.894531
1241.367, 44.80859
1241.849, 80.30469
1242.331, 62.60547
1242.813, 26.08594
1243.295, 26.03125
1243.777, 74.13672
1244.260, 89.41406
1244.742, 71.92969
1245.224, 59.02734
1245.706, 81.78516
1246.188, 109.8203
1246.670, 120.9492
1247.152, 126.8789
1247.634, 146.2266
1248.116, 181.8594
1248.599, 200.1445
1249.081, 201.3164
1249.563, 186.7305
1250.045, 134.1406
1250.527, 93.16016
1251.009, 110.4648
1251.491, 137.4414
1251.973, 115.7422
1252.455, 48.72656
1252.938, 32.08203
1253.420, 59.89062
1253.902, 76.82031
1254.384, 33.25781
1254.866, 2.035156
1255.348, 5.199219
1255.830, 22.61328
1256.313, 17.96484
1256.795, 1.789063
1257.277, 14.43750
1257.759, 59.20703
1258.241, 91.68750
1258.723, 79.44531
1259.205, 71.75000
1259.687, 74.98438
1260.169, 89.83203
1260.651, 124.1797
1261.134, 168.7383
1261.616, 198.7383
1262.098, 212.5859
1262.580, 207.8125
1263.062, 160.1484
1263.544, 128.9805
1264.026, 122.9180
1264.508, 124.5547
1264.991, 121.3438
1265.473, 115.3047
1265.955, 107.9688
1266.437, 101.3789
1266.919, 100.3242
1267.401, 107.3516
1267.883, 122.0039
1268.365, 148.6133
1268.848, 168.1406
1269.330, 159.8281
1269.812, 126.4961
1270.294, 111.7344
1270.776, 100.3906
1271.258, 93.56641
1271.740, 113.7578
1272.222, 129.9102
1272.704, 141.1406
1273.187, 144.7148
1273.669, 122.5039
1274.151, 107.4414
1274.633, 145.5625
1275.115, 201.9648
1275.597, 222.0898
1276.079, 201.5156
1276.561, 163.3047
1277.043, 109.2227
1277.526, 71.80859
1278.008, 84.05859
1278.490, 105.7695
1278.972, 123.9453
1279.454, 132.7227
1279.936, 117.5547
1280.418, 81.87109
1280.900, 70.64062
1281.383, 79.82422
1281.865, 84.75391
1282.347, 54.80859
1282.829, 44.13672
1283.311, 88.66797
1283.793, 135.5000
1284.275, 140.6602
1284.757, 115.0469
1285.240, 100.9570
1285.722, 97.17188
1286.204, 100.9414
1286.686, 120.0703
1287.168, 133.9453
1287.650, 142.0625
1288.132, 142.6992
1288.614, 130.6094
1289.096, 114.1914
1289.578, 111.8477
1290.061, 117.7070
1290.543, 119.6055
1291.025, 112.4961
1291.507, 103.4844
1291.989, 90.76562
1292.471, 81.46094
1292.953, 77.67578
1293.435, 81.32422
1293.918, 104.2266
1294.400, 131.1250
1294.882, 140.6680
1295.364, 133.1953
1295.846, 97.20703
1296.328, 32.67188
1296.810, 1.953125
1297.292, 36.04688
1297.775, 78.83984
1298.257, 77.85156
1298.739, 61.99219
1299.221, 57.70312
1299.703, 63.46094
1300.185, 72.97656
1300.667, 84.82422
1301.149, 80.09375
1301.631, 38.26172
1302.114, 0.5976560
1302.596, 0.0000000E+00
##END=



