##NAMES=Fluorite
##RRUFFID=R050115
##IDEAL CHEMISTRY=CaF_2_
##LOCALITY=Isthak Valley Iskardu, N.A. Gilgit, Pakistan
##OWNER=RRUFF
##SOURCE=Syed Shah
##DESCRIPTION=Colorless fragment
##STATUS=The identification of this mineral has been confirmed by X-ray diffraction and chemical analysis
##URL=rruff.info/R050115
##MEASURED CHEMISTRY=CaF_2_
109.3450, 0.0000000E+00
109.8272, 17.35352
110.3093, 3.620605
110.7914, 6.124023
111.2735, 21.42920
111.7556, 44.73535
112.2377, 64.89258
112.7199, 74.40771
113.2020, 76.40625
113.6841, 79.44922
114.1662, 92.94141
114.6483, 121.8125
115.1304, 138.2612
115.6126, 123.1377
116.0947, 111.7949
116.5768, 124.1875
117.0589, 163.3779
117.5410, 217.2373
118.0231, 266.8252
118.5053, 307.4668
118.9874, 349.4585
119.4695, 404.4287
119.9516, 456.6074
120.4337, 484.8457
120.9158, 478.2280
121.3980, 448.1670
121.8801, 433.3525
122.3622, 443.7520
122.8443, 452.9609
123.3264, 451.4341
123.8085, 441.1084
124.2907, 428.8867
124.7728, 418.0073
125.2549, 408.4492
125.7370, 399.4824
126.2191, 394.0557
126.7012, 387.4673
127.1834, 376.5225
127.6655, 361.8516
128.1476, 339.6055
128.6297, 292.9585
129.1118, 236.1016
129.5939, 198.0820
130.0761, 203.0303
130.5582, 237.4019
131.0403, 256.3154
131.5224, 246.6284
132.0045, 234.9175
132.4866, 237.0762
132.9688, 250.6689
133.4509, 266.0527
133.9330, 276.7070
134.4151, 282.8022
134.8972, 283.0664
135.3793, 267.5757
135.8615, 253.4492
136.3436, 248.9844
136.8257, 255.3428
137.3078, 268.1318
137.7899, 279.8760
138.2720, 284.5039
138.7542, 301.0581
139.2363, 333.5303
139.7184, 374.2212
140.2005, 419.2168
140.6826, 466.4263
141.1647, 513.8770
141.6469, 555.3506
142.1290, 575.5200
142.6111, 606.5234
143.0932, 661.4155
143.5753, 727.9453
144.0574, 784.4941
144.5396, 816.5420
145.0217, 829.1465
145.5038, 869.0088
145.9859, 955.7842
146.4680, 1044.108
146.9502, 1109.711
147.4323, 1156.519
147.9144, 1209.842
148.3965, 1291.346
148.8786, 1405.453
149.3607, 1519.849
149.8429, 1624.171
150.3250, 1730.592
150.8071, 1843.505
151.2892, 1962.786
151.7713, 2084.471
152.2534, 2209.957
152.7356, 2334.041
153.2177, 2447.204
153.6998, 2553.262
154.1819, 2650.771
154.6640, 2731.865
155.1461, 2788.681
155.6283, 2837.687
156.1104, 2891.150
156.5925, 2948.993
157.0746, 3009.223
157.5567, 3077.862
158.0388, 3154.070
158.5210, 3209.405
159.0031, 3230.482
159.4852, 3233.338
159.9673, 3227.391
160.4494, 3213.430
160.9315, 3186.997
161.4137, 3140.402
161.8958, 3068.166
162.3779, 2993.609
162.8600, 2913.951
163.3421, 2833.729
163.8242, 2759.520
164.3064, 2692.802
164.7885, 2627.817
165.2706, 2551.427
165.7527, 2454.259
166.2348, 2360.349
166.7169, 2276.312
167.1991, 2193.788
167.6812, 2106.637
168.1633, 2010.843
168.6454, 1910.189
169.1275, 1817.703
169.6096, 1739.403
170.0918, 1663.795
170.5739, 1588.926
171.0560, 1515.784
171.5381, 1446.672
172.0202, 1383.041
172.5023, 1324.715
172.9845, 1265.930
173.4666, 1203.977
173.9487, 1144.295
174.4308, 1088.448
174.9129, 1036.334
175.3951, 987.3271
175.8772, 941.2783
176.3593, 898.3115
176.8414, 854.0664
177.3235, 814.8613
177.8056, 769.8721
178.2878, 704.2451
178.7699, 618.0518
179.2520, 535.8398
179.7341, 481.9775
180.2162, 456.5420
180.6983, 434.4854
181.1805, 421.2637
181.6626, 406.7314
182.1447, 377.5273
182.6268, 330.3662
183.1089, 274.8477
183.5910, 213.8955
184.0732, 149.0098
184.5553, 98.39355
185.0374, 73.61426
185.5195, 67.40723
186.0016, 65.05957
186.4837, 69.40527
186.9659, 68.13965
187.4480, 48.76270
187.9301, 12.86035
188.4122, 25.93750
188.8943, 60.79590
189.3764, 91.82129
189.8586, 121.1846
190.3407, 154.5537
190.8228, 180.0527
191.3049, 188.2314
191.7870, 178.8359
192.2691, 162.3887
192.7513, 147.4570
193.2334, 134.2441
193.7155, 120.7363
194.1976, 108.7207
194.6797, 94.53613
195.1618, 74.54102
195.6440, 48.22656
196.1261, 20.47949
196.6082, 2.316406
197.0903, 19.13672
197.5724, 34.40527
198.0546, 53.61719
198.5367, 68.84375
199.0188, 69.22266
199.5009, 51.91699
199.9830, 31.74512
200.4651, 38.15820
200.9473, 88.86523
201.4294, 135.0605
201.9115, 179.8047
202.3936, 214.5459
202.8757, 227.7178
203.3578, 214.3086
203.8400, 185.6582
204.3221, 172.2998
204.8042, 188.8096
205.2863, 202.8105
205.7684, 213.5713
206.2505, 219.4023
206.7327, 219.1748
207.2148, 212.2930
207.6969, 198.2871
208.1790, 175.0479
208.6611, 125.3896
209.1432, 85.11328
209.6254, 61.83398
210.1075, 50.37402
210.5896, 41.99023
211.0717, 31.40820
211.5538, 20.40723
212.0359, 22.04688
212.5181, 56.22559
213.0002, 80.30664
213.4823, 79.35840
213.9644, 60.10156
214.4465, 34.51660
214.9286, 7.313477
215.4108, 19.20898
215.8929, 17.33496
216.3750, 38.96582
216.8571, 90.78027
217.3392, 113.7363
217.8214, 112.2334
218.3035, 102.5654
218.7856, 93.08691
219.2677, 85.14355
219.7498, 89.47363
220.2319, 112.1689
220.7141, 140.0332
221.1962, 169.9824
221.6783, 200.5244
222.1604, 225.1709
222.6425, 236.1699
223.1246, 235.5547
223.6068, 248.3936
224.0889, 291.1172
224.5710, 334.6650
225.0531, 352.4561
225.5352, 345.1104
226.0173, 341.8389
226.4995, 364.4492
226.9816, 411.7314
227.4637, 463.0547
227.9458, 528.0000
228.4279, 590.0352
228.9100, 631.8594
229.3922, 652.2676
229.8743, 666.0850
230.3564, 679.8828
230.8385, 695.5107
231.3206, 719.8799
231.8027, 757.3291
232.2849, 802.7100
232.7670, 853.0508
233.2491, 909.8506
233.7312, 961.9229
234.2133, 1000.335
234.6954, 1027.181
235.1776, 1044.775
235.6597, 1032.042
236.1418, 1017.933
236.6239, 1050.759
237.1060, 1141.318
237.5881, 1243.968
238.0703, 1334.101
238.5524, 1412.676
239.0345, 1476.874
239.5166, 1520.515
239.9987, 1550.650
240.4808, 1579.725
240.9630, 1607.372
241.4451, 1635.453
241.9272, 1664.148
242.4093, 1694.248
242.8914, 1727.924
243.3735, 1767.444
243.8557, 1811.170
244.3378, 1858.463
244.8199, 1916.094
245.3020, 1961.795
245.7841, 1977.046
246.2662, 1970.842
246.7484, 1960.453
247.2305, 1951.534
247.7126, 1944.751
248.1947, 1943.167
248.6768, 1952.094
249.1589, 1957.624
249.6411, 1954.302
250.1232, 1943.702
250.6053, 1927.218
251.0874, 1900.475
251.5695, 1868.777
252.0517, 1849.738
252.5338, 1848.445
253.0159, 1852.521
253.4980, 1855.172
253.9801, 1858.763
254.4622, 1867.634
254.9444, 1887.535
255.4265, 1913.130
255.9086, 1924.864
256.3907, 1911.385
256.8728, 1902.269
257.3549, 1924.130
257.8370, 1956.700
258.3192, 1963.303
258.8013, 1910.062
259.2834, 1819.650
259.7655, 1778.982
260.2476, 1821.172
260.7297, 1862.959
261.2119, 1871.265
261.6940, 1858.707
262.1761, 1843.638
262.6582, 1834.097
263.1403, 1830.334
263.6224, 1835.409
264.1046, 1860.934
264.5867, 1876.227
265.0688, 1865.239
265.5509, 1840.462
266.0330, 1820.835
266.5151, 1818.961
266.9973, 1827.137
267.4794, 1817.276
267.9615, 1776.449
268.4436, 1737.765
268.9258, 1712.343
269.4079, 1694.675
269.8900, 1677.442
270.3721, 1656.752
270.8542, 1634.414
271.3363, 1616.473
271.8185, 1605.665
272.3006, 1595.041
272.7827, 1585.161
273.2648, 1572.788
273.7469, 1555.731
274.2290, 1532.626
274.7112, 1505.404
275.1933, 1481.380
275.6754, 1461.211
276.1575, 1443.595
276.6396, 1441.034
277.1217, 1435.609
277.6039, 1401.479
278.0860, 1323.365
278.5681, 1228.589
279.0502, 1185.616
279.5323, 1238.770
280.0144, 1256.878
280.4966, 1185.085
280.9787, 1084.025
281.4608, 1012.702
281.9429, 995.2852
282.4250, 1004.035
282.9071, 980.0098
283.3893, 896.2520
283.8714, 841.5303
284.3535, 848.5244
284.8356, 877.9053
285.3177, 901.8525
285.7998, 911.4355
286.2820, 906.5957
286.7641, 881.0811
287.2462, 817.6328
287.7283, 779.8213
288.2104, 790.1660
288.6925, 818.7969
289.1747, 850.0527
289.6568, 879.0771
290.1389, 901.2656
290.6210, 908.0332
291.1031, 893.6455
291.5852, 882.5312
292.0674, 877.3867
292.5495, 876.1572
293.0316, 876.7441
293.5137, 879.5547
293.9958, 887.8223
294.4779, 906.3154
294.9601, 937.6973
295.4422, 966.9844
295.9243, 983.0791
296.4064, 1004.108
296.8885, 1043.857
297.3706, 1101.762
297.8528, 1161.215
298.3349, 1206.089
298.8170, 1235.326
299.2991, 1261.131
299.7812, 1275.317
300.2633, 1294.093
300.7455, 1325.704
301.2276, 1369.044
301.7097, 1416.314
302.1918, 1460.492
302.6739, 1501.179
303.1560, 1547.191
303.6382, 1602.427
304.1203, 1659.141
304.6024, 1717.630
305.0845, 1775.837
305.5666, 1829.101
306.0487, 1872.272
306.5309, 1906.849
307.0130, 1944.664
307.4951, 1992.986
307.9772, 2033.442
308.4593, 2051.028
308.9414, 2056.458
309.4236, 2071.139
309.9057, 2115.246
310.3878, 2176.542
310.8699, 2209.085
311.3520, 2198.245
311.8341, 2185.566
312.3163, 2187.012
312.7984, 2198.235
313.2805, 2213.852
313.7626, 2233.498
314.2447, 2254.122
314.7268, 2266.895
315.2090, 2265.632
315.6911, 2274.435
316.1732, 2309.263
316.6553, 2356.162
317.1374, 2402.086
317.6195, 2442.922
318.1017, 2481.318
318.5838, 2523.673
319.0659, 2572.390
319.5480, 2610.186
320.0301, 2640.261
320.5122, 2650.105
320.9944, 2623.341
321.4765, 2553.773
321.9586, 2465.069
322.4407, 2381.980
322.9228, 2304.822
323.4049, 2211.162
323.8871, 2091.182
324.3692, 1954.674
324.8513, 1804.726
325.3334, 1639.399
325.8155, 1489.302
326.2976, 1381.593
326.7798, 1309.715
327.2619, 1241.243
327.7440, 1170.595
328.2261, 1100.794
328.7082, 1034.060
329.1903, 970.3906
329.6725, 907.9561
330.1546, 841.0371
330.6367, 774.7646
331.1188, 722.6592
331.6009, 689.6260
332.0830, 663.1309
332.5652, 635.5996
333.0473, 606.2803
333.5294, 570.1533
334.0115, 513.0576
334.4936, 453.8154
334.9757, 421.2979
335.4579, 419.6396
335.9400, 424.5127
336.4221, 421.9736
336.9042, 411.4141
337.3863, 391.7979
337.8684, 354.9717
338.3506, 314.5400
338.8327, 279.4775
339.3148, 250.2354
339.7969, 229.2100
340.2791, 219.3320
340.7612, 219.1113
341.2433, 220.3770
341.7254, 225.9551
342.2075, 229.8604
342.6896, 231.1807
343.1718, 228.7881
343.6539, 218.9707
344.1360, 199.3691
344.6181, 172.2217
345.1002, 140.8369
345.5823, 92.55566
346.0645, 63.54590
346.5466, 85.68848
347.0287, 126.9736
347.5108, 133.1797
347.9929, 85.46484
348.4750, 19.04297
348.9572, 7.119141
349.4393, 32.45801
349.9214, 50.05566
350.4035, 17.61230
350.8856, 24.75000
351.3677, 39.40039
351.8499, 21.11035
352.3320, 9.033203
352.8141, 29.85254
353.2962, 41.67969
353.7783, 38.43262
354.2604, 0.2089840
354.7426, 34.38379
355.2247, 35.82324
355.7068, 10.70410
356.1889, 13.27637
356.6710, 13.45215
357.1531, 9.769531
357.6353, 22.41699
358.1174, 11.47852
358.5995, 4.721680
359.0816, 15.11230
359.5637, 33.87695
360.0458, 44.28711
360.5280, 36.68750
361.0101, 17.49609
361.4922, 11.23242
361.9743, 29.81934
362.4564, 45.47168
362.9385, 56.09961
363.4207, 63.77930
363.9028, 69.25781
364.3849, 72.98145
364.8670, 72.60156
365.3491, 68.21289
365.8312, 63.47070
366.3134, 53.28613
366.7955, 24.62988
367.2776, 2.135742
367.7597, 10.16309
368.2418, 0.4882810
368.7239, 12.58203
369.2061, 7.958984
369.6882, 14.86426
370.1703, 36.54590
370.6524, 59.83398
371.1345, 78.68359
371.6166, 87.55469
372.0988, 88.10938
372.5809, 87.25684
373.0630, 89.80371
373.5451, 94.30664
374.0272, 93.65625
374.5093, 86.63574
374.9915, 80.07520
375.4736, 77.16309
375.9557, 73.63770
376.4378, 63.86914
376.9199, 39.59277
377.4020, 18.53418
377.8842, 26.09473
378.3663, 66.57617
378.8484, 116.4785
379.3305, 175.9932
379.8126, 223.0430
380.2947, 229.4453
380.7769, 181.6729
381.2590, 140.2871
381.7411, 154.7461
382.2232, 209.4014
382.7053, 248.5889
383.1874, 255.2861
383.6696, 247.1709
384.1517, 248.2822
384.6338, 259.6914
385.1159, 261.4170
385.5980, 232.4658
386.0801, 197.4629
386.5623, 191.7363
387.0444, 220.1699
387.5265, 252.3184
388.0086, 260.0996
388.4907, 242.3984
388.9728, 239.9854
389.4550, 269.6133
389.9371, 297.8711
390.4192, 305.5928
390.9013, 295.6094
391.3834, 278.0029
391.8655, 257.0967
392.3477, 235.3057
392.8298, 225.8496
393.3119, 236.6133
393.7940, 249.4443
394.2761, 268.5742
394.7582, 286.3408
395.2404, 290.4785
395.7225, 276.4316
396.2046, 253.5039
396.6867, 237.4502
397.1688, 231.9590
397.6509, 226.8623
398.1331, 222.8711
398.6152, 218.8496
399.0973, 214.0576
399.5794, 208.5518
400.0615, 202.4570
400.5436, 194.9551
401.0258, 185.6699
401.5079, 182.5254
401.9900, 197.2324
402.4721, 205.5225
402.9542, 192.6846
403.4363, 169.3955
403.9185, 156.7598
404.4006, 170.6621
404.8827, 195.2754
405.3648, 181.4600
405.8469, 102.6660
406.3290, 54.95312
406.8112, 108.0723
407.2933, 185.0059
407.7754, 212.9297
408.2575, 172.3125
408.7396, 112.7422
409.2217, 80.72559
409.7039, 75.82910
410.1860, 75.77734
410.6681, 75.53516
411.1502, 79.32910
411.6324, 94.04785
412.1145, 118.4736
412.5966, 136.8037
413.0787, 145.1074
413.5608, 144.1602
414.0429, 126.9043
414.5251, 89.95898
415.0072, 63.28906
415.4893, 78.34082
415.9714, 126.4512
416.4535, 149.7861
416.9356, 128.1826
417.4178, 96.41504
417.8999, 71.36816
418.3820, 53.47363
418.8641, 40.03906
419.3462, 28.47461
419.8283, 21.20605
420.3105, 28.45117
420.7926, 75.62891
421.2747, 96.16309
421.7568, 56.03223
422.2389, 0.2011720
422.7210, 24.57617
423.2032, 8.059570
423.6853, 23.08594
424.1674, 37.39258
424.6495, 28.89160
425.1316, 33.94629
425.6137, 75.84570
426.0959, 105.5322
426.5780, 95.33887
427.0601, 56.14746
427.5422, 13.49707
428.0243, 18.01172
428.5064, 38.06934
428.9886, 45.35742
429.4707, 35.10645
429.9528, 19.42090
430.4349, 9.549805
430.9170, 36.31738
431.3991, 41.27930
431.8813, 18.58203
432.3634, 9.173828
432.8455, 13.53223
433.3276, 6.490234
433.8097, 30.41309
434.2918, 73.03223
434.7740, 97.96484
435.2561, 62.98145
435.7382, 19.80664
436.2203, 78.19629
436.7024, 56.30176
437.1845, 8.044922
437.6667, 45.50195
438.1488, 50.95898
438.6309, 45.72461
439.1130, 38.34766
439.5951, 30.98047
440.0772, 29.68457
440.5594, 41.70117
441.0415, 51.77832
441.5236, 46.16699
442.0057, 31.64746
442.4878, 27.31152
442.9699, 41.36230
443.4521, 63.53027
443.9342, 76.38574
444.4163, 78.96094
444.8984, 74.03223
445.3805, 47.52246
445.8626, 22.94922
446.3448, 23.06104
446.8269, 46.76074
447.3090, 74.77881
447.7911, 91.33691
448.2732, 96.68359
448.7553, 96.13965
449.2375, 71.29785
449.7196, 59.90381
450.2017, 87.54785
450.6838, 128.6636
451.1659, 144.9780
451.6480, 118.8428
452.1302, 73.71533
452.6123, 53.74414
453.0944, 66.16211
453.5765, 81.09961
454.0586, 94.22607
454.5407, 107.3296
455.0229, 125.3521
455.5050, 146.9629
455.9871, 161.5854
456.4692, 157.9302
456.9513, 140.9712
457.4334, 126.2832
457.9156, 113.0488
458.3977, 107.0137
458.8798, 114.1318
459.3619, 128.8330
459.8440, 144.8008
460.3261, 166.8066
460.8083, 184.0669
461.2904, 184.5386
461.7725, 172.3789
462.2546, 163.5552
462.7367, 164.3696
463.2188, 168.4375
463.7010, 164.3062
464.1831, 146.5352
464.6652, 138.5483
465.1473, 150.5908
465.6294, 169.1211
466.1115, 182.7373
466.5937, 190.5801
467.0758, 198.7178
467.5579, 213.5645
468.0400, 234.5942
468.5221, 243.2158
469.0042, 225.5586
469.4864, 210.4150
469.9685, 204.2544
470.4506, 203.3481
470.9327, 203.1636
471.4148, 201.9824
471.8969, 200.3574
472.3791, 199.0913
472.8612, 198.0776
473.3433, 198.1318
473.8254, 196.0117
474.3075, 197.2051
474.7896, 208.0068
475.2718, 226.5674
475.7539, 243.6392
476.2360, 255.3159
476.7181, 259.5132
477.2002, 247.9980
477.6823, 217.0698
478.1645, 196.0493
478.6466, 204.5166
479.1287, 229.3403
479.6108, 248.8818
480.0929, 263.7119
480.5751, 265.0869
481.0572, 239.0391
481.5393, 201.4365
482.0214, 181.6504
482.5035, 187.0938
482.9857, 202.2793
483.4678, 209.8008
483.9499, 207.1191
484.4320, 207.1074
484.9141, 213.8306
485.3962, 218.3979
485.8784, 215.8862
486.3605, 207.9512
486.8426, 197.6685
487.3247, 186.9019
487.8068, 177.6309
488.2889, 175.6353
488.7711, 182.9292
489.2532, 191.6143
489.7353, 205.0127
490.2174, 214.8701
490.6995, 216.8486
491.1816, 211.3950
491.6638, 200.9409
492.1459, 183.9316
492.6280, 161.7319
493.1101, 148.6577
493.5922, 145.2515
494.0743, 141.0254
494.5565, 136.1675
495.0386, 134.0723
495.5207, 133.0342
496.0028, 131.8657
496.4849, 130.1973
496.9670, 128.0088
497.4492, 125.2749
497.9313, 121.1763
498.4134, 114.9072
498.8955, 110.3027
499.3776, 113.5156
499.8597, 126.5879
500.3419, 134.0381
500.8240, 136.5015
501.3061, 132.9800
501.7882, 118.1597
502.2703, 95.68262
502.7524, 76.49365
503.2346, 66.87012
503.7167, 64.36865
504.1988, 62.31445
504.6809, 64.55615
505.1630, 62.49658
505.6451, 45.77490
506.1273, 30.76562
506.6094, 35.23877
507.0915, 58.27930
507.5736, 79.48047
508.0557, 76.76123
508.5378, 53.39258
509.0200, 42.15186
509.5021, 50.02197
509.9842, 55.46436
510.4663, 39.13330
510.9484, 16.96777
511.4305, 13.13135
511.9127, 39.96191
512.3948, 71.64307
512.8769, 89.86230
513.3590, 96.22754
513.8411, 95.72998
514.3232, 89.17480
514.8054, 77.24951
515.2875, 55.52783
515.7696, 19.36816
516.2517, 11.69531
516.7338, 71.81055
517.2159, 126.1221
517.6981, 123.4258
518.1802, 79.15723
518.6623, 34.81543
519.1444, 11.52588
519.6265, 6.156250
520.1086, 11.56299
520.5908, 33.78467
521.0729, 55.73779
521.5550, 87.60742
522.0371, 109.9937
522.5192, 104.4048
523.0013, 75.06006
523.4835, 45.51074
523.9656, 34.61084
524.4477, 37.15137
524.9298, 32.44189
525.4119, 17.04883
525.8940, 5.996582
526.3762, 8.790527
526.8583, 18.81104
527.3404, 27.22217
527.8225, 33.30225
528.3046, 37.79346
528.7867, 41.59277
529.2689, 43.88818
529.7510, 40.59961
530.2331, 31.02979
530.7152, 27.30713
531.1973, 45.81104
531.6794, 85.35693
532.1616, 95.84326
532.6437, 50.10010
533.1258, 14.41553
533.6079, 18.74561
534.0900, 41.24170
534.5721, 50.09912
535.0543, 34.69092
535.5364, 11.07910
536.0185, 2.669434
536.5006, 12.47705
536.9827, 22.82178
537.4648, 36.06543
537.9470, 46.81055
538.4291, 51.65771
538.9112, 52.22461
539.3933, 51.29004
539.8754, 48.30566
540.3575, 48.86670
540.8397, 64.69824
541.3218, 93.59375
541.8039, 110.6143
542.2860, 105.4834
542.7681, 89.47900
543.2502, 75.50537
543.7324, 61.81885
544.2145, 54.65039
544.6966, 57.82568
545.1787, 67.60352
545.6608, 88.66162
546.1429, 114.9097
546.6251, 126.6992
547.1072, 111.1548
547.5893, 80.67041
548.0714, 71.78613
548.5535, 99.99756
549.0356, 124.6416
549.5178, 144.4297
549.9999, 156.5903
550.4820, 160.9946
550.9641, 158.5884
551.4462, 147.7197
551.9283, 118.1572
552.4105, 82.77051
552.8926, 85.65088
553.3747, 136.4478
553.8568, 176.9355
554.3389, 179.4536
554.8210, 160.0527
555.3032, 143.5317
555.7853, 130.1177
556.2674, 119.1597
556.7495, 104.8511
557.2316, 95.74658
557.7137, 109.4990
558.1959, 144.3599
558.6780, 173.0679
559.1601, 174.4194
559.6422, 152.3901
560.1243, 135.1978
560.6064, 126.6138
561.0886, 118.6255
561.5707, 107.6006
562.0528, 98.99707
562.5349, 98.25928
563.0170, 105.8594
563.4991, 117.7651
563.9813, 134.8965
564.4634, 155.2974
564.9455, 157.9771
565.4276, 135.1172
565.9097, 112.4644
566.3918, 99.53027
566.8740, 94.82373
567.3561, 100.4976
567.8382, 122.8267
568.3203, 135.2251
568.8024, 112.5820
569.2845, 73.71680
569.7667, 51.19385
570.2488, 49.99365
570.7309, 56.96045
571.2130, 61.72949
571.6951, 64.40918
572.1772, 69.52588
572.6594, 82.64551
573.1415, 90.79736
573.6236, 90.55518
574.1057, 84.64307
574.5878, 73.50244
575.0699, 58.01514
575.5521, 46.39258
576.0342, 49.39697
576.5163, 66.06445
576.9984, 81.05762
577.4805, 98.41504
577.9626, 107.4521
578.4448, 95.74707
578.9269, 75.15820
579.4090, 62.65674
579.8911, 64.23193
580.3732, 63.57764
580.8553, 45.01318
581.3375, 18.71143
581.8196, 4.715332
582.3017, 6.635742
582.7838, 14.00000
583.2659, 17.89795
583.7480, 18.62109
584.2302, 22.88965
584.7123, 39.02881
585.1944, 48.46045
585.6765, 43.22900
586.1587, 31.96826
586.6408, 25.01807
587.1229, 23.91992
587.6050, 20.23828
588.0872, 1.302246
588.5693, 37.21045
589.0514, 44.96436
589.5335, 11.39795
590.0156, 20.04639
590.4977, 24.74854
590.9799, 14.57910
591.4620, 5.759277
591.9441, 0.1835940
592.4262, 3.894043
592.9083, 7.440918
593.3904, 10.64160
593.8726, 12.73584
594.3547, 13.32129
594.8368, 14.32471
595.3189, 17.72363
595.8010, 22.84277
596.2831, 23.54834
596.7653, 11.62207
597.2474, 5.854980
597.7295, 11.79199
598.2116, 22.11182
598.6937, 32.03857
599.1758, 39.89746
599.6580, 44.24805
600.1401, 45.90820
600.6222, 43.15527
601.1043, 24.63525
601.5864, 15.00439
602.0685, 44.67334
602.5507, 47.19238
603.0328, 33.58350
603.5149, 23.97314
603.9970, 19.61279
604.4791, 13.74902
604.9612, 3.674805
605.4434, 8.980957
605.9255, 28.50879
606.4076, 50.35498
606.8897, 55.20703
607.3718, 28.41064
607.8539, 17.50342
608.3361, 37.71191
608.8182, 11.48633
609.3003, 0.2226560
609.7824, 19.23828
610.2645, 44.67236
610.7466, 67.09668
611.2288, 84.06934
611.7109, 90.76562
612.1930, 76.54004
612.6751, 57.05420
613.1572, 45.92480
613.6393, 45.33301
614.1215, 99.11377
614.6036, 244.1279
615.0857, 405.5273
615.5678, 477.0815
616.0499, 445.5854
616.5320, 388.1528
617.0142, 271.8228
617.4963, 165.8110
617.9784, 110.1577
618.4605, 92.63965
618.9426, 85.75195
619.4247, 77.66797
619.9069, 74.38428
620.3890, 89.14648
620.8711, 125.7026
621.3532, 152.1455
621.8353, 164.4038
622.3174, 169.2046
622.7996, 164.2817
623.2817, 156.0210
623.7638, 158.6143
624.2459, 181.5776
624.7280, 204.7183
625.2101, 215.3608
625.6923, 216.0869
626.1744, 207.6328
626.6565, 190.6724
627.1386, 179.9478
627.6207, 191.0640
628.1028, 223.2026
628.5850, 244.2568
629.0671, 239.2988
629.5492, 241.0283
630.0313, 263.1440
630.5134, 288.0176
630.9955, 295.6191
631.4777, 284.7534
631.9598, 274.6694
632.4419, 285.4155
632.9240, 308.5288
633.4061, 317.4561
633.8882, 310.4131
634.3704, 306.5327
634.8525, 315.4219
635.3346, 331.1104
635.8167, 340.8672
636.2988, 341.0435
636.7809, 349.7939
637.2631, 382.6885
637.7452, 414.2100
638.2273, 419.8276
638.7094, 408.3477
639.1915, 407.9907
639.6736, 434.3242
640.1558, 471.7627
640.6379, 485.0586
641.1200, 466.6758
641.6021, 463.2168
642.0842, 490.7212
642.5663, 519.9497
643.0485, 533.6465
643.5306, 535.2861
644.0127, 533.0732
644.4948, 526.5215
644.9769, 520.5225
645.4590, 517.7163
645.9412, 517.6270
646.4233, 518.0659
646.9054, 520.6611
647.3875, 529.8784
647.8696, 548.2207
648.3517, 574.0479
648.8339, 585.0610
649.3160, 562.8193
649.7981, 550.2256
650.2802, 565.0483
650.7623, 584.7051
651.2444, 586.0010
651.7266, 567.8735
652.2087, 552.1147
652.6908, 552.0659
653.1729, 565.0942
653.6550, 595.7197
654.1371, 643.0264
654.6193, 665.2085
655.1014, 636.0566
655.5835, 587.2603
656.0656, 574.8223
656.5477, 618.1855
657.0298, 643.0303
657.5120, 636.6343
657.9941, 624.7773
658.4762, 615.7686
658.9583, 612.8306
659.4404, 620.1099
659.9225, 638.1123
660.4047, 658.2637
660.8868, 665.4033
661.3689, 660.9531
661.8510, 670.8218
662.3331, 702.0542
662.8152, 734.8018
663.2974, 760.7783
663.7795, 776.8447
664.2616, 776.5317
664.7437, 748.8379
665.2258, 728.9653
665.7079, 728.3496
666.1901, 738.3984
666.6722, 756.7124
667.1543, 779.5303
667.6364, 795.8389
668.1185, 796.5674
668.6006, 789.1631
669.0828, 798.9180
669.5649, 834.2607
670.0470, 855.4204
670.5291, 845.8755
671.0112, 830.3818
671.4933, 824.7041
671.9755, 828.2227
672.4576, 838.0112
672.9397, 856.7759
673.4218, 877.8940
673.9039, 902.3174
674.3860, 924.7158
674.8682, 932.5024
675.3503, 923.3809
675.8324, 909.8652
676.3145, 905.4238
676.7966, 909.3359
677.2787, 901.6343
677.7609, 862.7686
678.2430, 844.9463
678.7251, 880.1709
679.2072, 925.4854
679.6893, 942.2808
680.1714, 928.3691
680.6536, 912.2217
681.1357, 906.7495
681.6178, 908.2700
682.0999, 914.1904
682.5820, 923.8911
683.0641, 935.3892
683.5463, 948.5405
684.0284, 956.1191
684.5105, 944.2627
684.9926, 905.3467
685.4747, 885.3433
685.9568, 904.3696
686.4390, 920.2124
686.9211, 920.9258
687.4032, 911.6631
687.8853, 897.0117
688.3674, 878.1172
688.8495, 862.8706
689.3317, 861.1104
689.8138, 863.9268
690.2959, 851.5093
690.7780, 823.8101
691.2601, 798.3604
691.7422, 783.8950
692.2244, 777.1787
692.7065, 772.2808
693.1886, 772.4912
693.6707, 767.3481
694.1528, 743.0210
694.6349, 726.1455
695.1171, 737.9385
695.5992, 763.7861
696.0813, 778.2666
696.5634, 771.8242
697.0455, 755.1641
697.5276, 737.5840
698.0098, 719.0508
698.4919, 697.5146
698.9740, 672.1943
699.4561, 650.5005
699.9382, 637.5947
700.4203, 631.4370
700.9025, 623.7910
701.3846, 608.3379
701.8667, 601.8823
702.3488, 618.1938
702.8309, 631.2202
703.3130, 620.9077
703.7952, 594.6377
704.2773, 571.2134
704.7594, 558.6611
705.2415, 553.5156
705.7236, 554.2217
706.2057, 559.1206
706.6879, 560.4795
707.1700, 557.8384
707.6521, 546.9434
708.1342, 520.5449
708.6163, 484.3335
709.0984, 464.6714
709.5806, 479.8633
710.0627, 484.8179
710.5448, 469.0356
711.0269, 448.3818
711.5090, 434.1460
711.9911, 425.1240
712.4733, 414.2808
712.9554, 397.5933
713.4375, 378.3755
713.9196, 358.6221
714.4017, 339.6177
714.8839, 333.2520
715.3660, 344.3501
715.8481, 354.6504
716.3302, 350.7974
716.8123, 334.0752
717.2944, 312.0854
717.7766, 266.1113
718.2587, 241.3516
718.7408, 258.9121
719.2229, 286.0146
719.7050, 303.1875
720.1871, 307.2231
720.6693, 297.6675
721.1514, 270.3838
721.6335, 238.8608
722.1156, 225.9277
722.5977, 228.0366
723.0798, 220.6611
723.5620, 197.4663
724.0441, 174.2969
724.5262, 163.4009
725.0083, 163.8198
725.4904, 168.9478
725.9725, 195.3369
726.4547, 203.3799
726.9368, 167.7705
727.4189, 130.2637
727.9011, 127.6699
728.3832, 152.5269
728.8653, 170.6641
729.3474, 163.0518
729.8295, 143.0269
730.3116, 122.7100
730.7938, 104.3569
731.2759, 102.6235
731.7580, 122.3911
732.2401, 137.4404
732.7222, 124.0547
733.2043, 87.95459
733.6865, 65.88965
734.1686, 70.65820
734.6507, 72.08301
735.1328, 62.64600
735.6149, 54.56006
736.0970, 57.68506
736.5792, 69.45703
737.0613, 81.87549
737.5434, 95.26953
738.0255, 99.02051
738.5076, 73.00781
738.9897, 28.36426
739.4719, 5.877441
739.9540, 24.57617
740.4361, 23.46338
740.9182, 6.363281
741.4003, 53.95117
741.8824, 68.35205
742.3646, 24.78857
742.8467, 7.578125
743.3288, 25.58887
743.8109, 31.13232
744.2930, 13.63477
744.7751, 14.83740
745.2573, 24.27686
745.7394, 3.608398
746.2215, 34.24756
746.7036, 40.58105
747.1857, 30.81885
747.6678, 17.54785
748.1500, 3.234375
748.6321, 10.89746
749.1142, 25.00830
749.5963, 35.48730
750.0784, 28.95117
750.5605, 6.273926
751.0427, 24.59570
751.5248, 10.65918
752.0069, 6.864258
752.4890, 13.97559
752.9711, 13.82129
753.4532, 12.91064
753.9354, 13.07568
754.4175, 11.08936
754.8996, 2.924316
755.3817, 6.685547
755.8638, 15.64551
756.3459, 21.29199
756.8281, 14.88818
757.3102, 8.943359
757.7923, 40.26514
758.2744, 60.48047
758.7565, 68.59131
759.2386, 76.01562
759.7208, 82.76514
760.2029, 90.06006
760.6850, 99.96680
761.1671, 110.2866
761.6492, 116.5996
762.1313, 117.6851
762.6135, 118.4512
763.0956, 118.6611
763.5777, 120.1504
764.0598, 128.2524
764.5419, 137.8252
765.0240, 134.4434
765.5062, 113.1250
765.9883, 95.41992
766.4704, 114.9819
766.9525, 162.6904
767.4346, 188.0825
767.9167, 188.0547
768.3989, 180.4067
768.8810, 168.6343
769.3631, 159.8750
769.8452, 168.5869
770.3273, 204.5205
770.8094, 219.8184
771.2916, 195.5459
771.7737, 173.2617
772.2558, 164.4507
772.7379, 167.7993
773.2200, 185.7173
773.7021, 216.3994
774.1843, 242.5151
774.6664, 251.0420
775.1485, 248.3726
775.6306, 238.9731
776.1127, 225.1831
776.5948, 220.5933
777.0770, 229.9277
777.5591, 244.1929
778.0412, 252.9395
778.5233, 256.4561
779.0054, 263.7036
779.4875, 279.9663
779.9697, 289.0420
780.4518, 279.2510
780.9339, 267.9858
781.4160, 270.7554
781.8981, 285.9561
782.3802, 298.3516
782.8624, 300.9468
783.3445, 298.2949
783.8266, 290.4331
784.3087, 282.2578
784.7908, 279.8003
785.2729, 283.6880
785.7551, 293.7979
786.2372, 312.4756
786.7193, 331.9077
787.2014, 323.6831
787.6835, 282.9756
788.1656, 271.6968
788.6478, 310.7583
789.1299, 353.1782
789.6120, 367.0859
790.0941, 357.0928
790.5762, 342.0771
791.0583, 316.4333
791.5405, 296.5337
792.0226, 282.3850
792.5047, 277.4512
792.9868, 288.5537
793.4689, 308.2844
793.9510, 321.9463
794.4332, 323.3540
794.9153, 322.9895
795.3974, 333.0374
795.8795, 349.1602
796.3616, 361.0754
796.8438, 368.1672
797.3259, 371.2488
797.8080, 370.3418
798.2901, 365.4941
798.7722, 355.1328
799.2543, 335.5063
799.7365, 327.9514
800.2186, 345.5076
800.7007, 358.0327
801.1828, 344.9541
801.6649, 329.2959
802.1470, 343.3596
802.6292, 388.4563
803.1113, 416.3311
803.5934, 394.2480
804.0755, 360.6960
804.5576, 342.5842
805.0397, 336.0220
805.5219, 331.6519
806.0040, 326.8457
806.4861, 323.5728
806.9682, 324.1550
807.4503, 327.1980
807.9324, 329.4287
808.4146, 331.0144
808.8967, 327.4150
809.3788, 317.6672
809.8609, 306.6741
810.3430, 298.8181
810.8251, 293.3159
811.3073, 284.5779
811.7894, 262.6340
812.2715, 252.0605
812.7536, 262.4155
813.2357, 276.7524
813.7178, 288.9175
814.2000, 295.8215
814.6821, 291.0881
815.1642, 269.7239
815.6463, 248.5342
816.1284, 246.0886
816.6105, 251.0552
817.0927, 243.9141
817.5748, 225.3960
818.0569, 205.8772
818.5390, 190.1265
819.0211, 179.1660
819.5032, 175.3682
819.9854, 179.1985
820.4675, 183.2732
820.9496, 187.9495
821.4317, 191.7014
821.9138, 196.2671
822.3959, 197.9480
822.8781, 188.2812
823.3602, 166.4509
823.8423, 155.0142
824.3244, 168.5596
824.8065, 178.9070
825.2886, 169.2478
825.7708, 154.5947
826.2529, 154.4321
826.7350, 168.1323
827.2171, 178.1897
827.6992, 173.2678
828.1813, 160.3735
828.6635, 146.7273
829.1456, 132.9939
829.6277, 120.4617
830.1098, 109.7249
830.5919, 106.5095
831.0740, 116.5254
831.5562, 133.0862
832.0383, 134.8435
832.5204, 114.0159
833.0025, 106.3013
833.4846, 117.9258
833.9667, 134.8320
834.4489, 161.9788
834.9310, 186.2349
835.4131, 182.0068
835.8952, 139.2358
836.3773, 107.7156
836.8594, 106.2078
837.3416, 112.3127
837.8237, 118.3569
838.3058, 120.1675
838.7879, 107.8696
839.2700, 81.79663
839.7521, 63.37671
840.2343, 77.21094
840.7164, 104.9280
841.1985, 110.1267
841.6806, 97.90430
842.1627, 92.85400
842.6448, 100.6807
843.1270, 117.5391
843.6091, 143.5791
844.0912, 174.0835
844.5733, 178.8359
845.0554, 142.9941
845.5375, 118.9934
846.0197, 118.0232
846.5018, 125.0881
846.9839, 136.0222
847.4660, 146.7449
847.9481, 148.3916
848.4302, 138.1699
848.9124, 124.0908
849.3945, 99.51221
849.8766, 80.47412
850.3587, 81.84473
850.8408, 96.07593
851.3229, 108.9189
851.8051, 115.7117
852.2872, 120.2832
852.7693, 126.7288
853.2514, 133.7905
853.7335, 137.0327
854.2156, 136.1794
854.6978, 135.9722
855.1799, 138.6077
855.6620, 138.3625
856.1441, 124.4304
856.6262, 103.6938
857.1083, 130.1177
857.5905, 223.5303
858.0726, 305.2678
858.5547, 384.8472
859.0368, 420.9880
859.5189, 351.5276
860.0010, 215.3979
860.4832, 129.0798
860.9653, 121.4602
861.4474, 116.8323
861.9295, 99.12524
862.4116, 80.98804
862.8937, 70.11060
863.3759, 66.83154
863.8580, 70.21362
864.3401, 79.59546
864.8222, 90.42651
865.3043, 101.8735
865.7864, 110.7795
866.2686, 110.8633
866.7507, 105.6028
867.2328, 105.4014
867.7149, 112.0103
868.1971, 116.5354
868.6792, 109.4507
869.1613, 95.49048
869.6434, 95.83252
870.1255, 113.7556
870.6077, 121.1472
871.0898, 109.0750
871.5719, 96.29688
872.0540, 96.90381
872.5361, 106.3374
873.0182, 109.7600
873.5004, 103.2188
873.9825, 98.67163
874.4646, 97.97144
874.9467, 97.09814
875.4288, 94.33374
875.9109, 90.47729
876.3931, 86.31909
876.8752, 81.76489
877.3573, 77.57300
877.8394, 72.55371
878.3215, 69.80884
878.8036, 75.08228
879.2858, 83.32129
879.7679, 83.36304
880.2500, 74.56348
880.7321, 69.28345
881.2142, 78.80322
881.6964, 94.02417
882.1785, 95.14062
882.6606, 84.51782
883.1427, 79.42969
883.6248, 82.49048
884.1069, 85.36279
884.5891, 83.35376
885.0712, 77.12891
885.5533, 67.05737
886.0354, 50.34619
886.5175, 41.38037
886.9996, 45.77344
887.4818, 48.23999
887.9639, 41.05151
888.4460, 30.68188
888.9281, 24.83252
889.4102, 23.52246
889.8923, 20.83960
890.3745, 8.549316
890.8566, 3.600098
891.3387, 20.51465
891.8208, 41.38452
892.3029, 48.75317
892.7850, 43.82495
893.2672, 38.25488
893.7493, 36.84961
894.2314, 35.62061
894.7135, 32.57544
895.1956, 28.27832
895.6777, 23.21265
896.1599, 17.60571
896.6420, 9.849854
897.1241, 1.090332
897.6062, 9.090088
898.0883, 0.5898440
898.5704, 20.35181
899.0526, 22.03320
899.5347, 2.674561
900.0168, 10.78491
900.4989, 8.805908
900.9810, 4.621582
901.4631, 12.57129
901.9453, 30.00244
902.4274, 35.06738
902.9095, 18.25293
903.3916, 9.458496
903.8737, 17.01978
904.3558, 24.87842
904.8380, 25.25244
905.3201, 20.42651
905.8022, 13.93481
906.2843, 5.375488
906.7664, 0.3774410
907.2485, 2.686035
907.7307, 0.6184080
908.2128, 8.277832
908.6949, 19.11938
909.1770, 24.93262
909.6591, 26.04028
910.1412, 32.00854
910.6234, 56.57812
911.1055, 77.30225
911.5876, 61.78564
912.0697, 29.19800
912.5518, 17.23364
913.0339, 27.46240
913.5161, 39.21875
913.9982, 41.43872
914.4803, 38.90723
914.9624, 36.28467
915.4445, 33.84912
915.9266, 34.26367
916.4088, 37.93091
916.8909, 35.73584
917.3730, 22.06592
917.8551, 10.50098
918.3372, 20.80225
918.8193, 50.38525
919.3015, 57.00024
919.7836, 23.43433
920.2657, 7.992188
920.7478, 30.73999
921.2299, 59.30835
921.7120, 73.64917
922.1942, 76.62085
922.6763, 74.07300
923.1584, 60.44751
923.6405, 56.15430
924.1226, 79.44043
924.6047, 96.44019
925.0869, 82.55713
925.5690, 56.00293
926.0511, 40.33057
926.5332, 39.59937
927.0153, 45.26343
927.4974, 54.96240
927.9796, 65.77930
928.4617, 82.57251
928.9438, 96.80664
929.4259, 90.68848
929.9080, 67.79517
930.3901, 49.59155
930.8723, 47.94824
931.3544, 54.10376
931.8365, 57.10132
932.3186, 58.77100
932.8007, 66.79980
933.2828, 79.88501
933.7650, 85.54077
934.2471, 79.24805
934.7292, 69.20435
935.2113, 63.92285
935.6934, 62.87646
936.1755, 64.59058
936.6577, 70.03638
937.1398, 68.39282
937.6219, 55.63574
938.1040, 43.17773
938.5861, 37.90747
939.0682, 38.25513
939.5504, 41.87988
940.0325, 51.99878
940.5146, 57.19702
940.9967, 52.29443
941.4788, 49.04688
941.9609, 53.25977
942.4431, 59.31982
942.9252, 61.95581
943.4073, 61.29761
943.8894, 59.71802
944.3715, 51.83594
944.8536, 49.43823
945.3358, 64.43872
945.8179, 79.45459
946.3000, 78.10229
946.7821, 65.92529
947.2642, 59.23267
947.7463, 64.24927
948.2285, 63.72925
948.7106, 32.83301
949.1927, 2.255859
949.6748, 10.12451
950.1569, 39.09302
950.6390, 56.52490
951.1212, 55.48145
951.6033, 45.08765
952.0854, 27.59912
952.5675, 13.40723
953.0496, 26.33179
953.5317, 54.26904
954.0139, 59.61792
954.4960, 40.99536
954.9781, 19.26782
955.4602, 4.102051
955.9423, 4.753662
956.4244, 4.140137
956.9066, 4.374023
957.3887, 1.214111
957.8708, 14.91040
958.3529, 22.29517
958.8350, 13.03198
959.3171, 4.887207
959.7993, 14.63477
960.2814, 35.71436
960.7635, 41.73682
961.2456, 24.03271
961.7277, 16.24414
962.2098, 22.22021
962.6920, 33.61475
963.1741, 55.59106
963.6562, 74.76953
964.1383, 66.50562
964.6204, 26.21436
965.1025, 10.78589
965.5847, 41.70508
966.0668, 67.34912
966.5489, 75.84961
967.0310, 79.01685
967.5131, 82.80273
967.9952, 88.15454
968.4774, 96.35669
968.9595, 109.2725
969.4416, 120.4841
969.9237, 128.4441
970.4058, 133.3953
970.8879, 137.0432
971.3701, 136.2134
971.8522, 121.9368
972.3343, 97.31445
972.8164, 83.54297
973.2985, 97.37891
973.7806, 115.7122
974.2628, 117.3105
974.7449, 114.1802
975.2270, 125.7986
975.7091, 147.1221
976.1912, 157.9346
976.6733, 150.5667
977.1555, 137.8904
977.6376, 128.5291
978.1197, 125.0876
978.6018, 135.3767
979.0839, 155.2034
979.5660, 173.7256
980.0482, 188.2644
980.5303, 196.8425
981.0124, 197.6675
981.4945, 195.1565
981.9766, 199.0525
982.4587, 207.4216
982.9409, 203.5215
983.4230, 186.9211
983.9051, 180.3428
984.3872, 192.3418
984.8693, 210.7441
985.3514, 222.2183
985.8336, 228.9575
986.3157, 245.0500
986.7978, 273.5579
987.2799, 293.9409
987.7620, 302.4307
988.2441, 307.2971
988.7263, 311.0105
989.2084, 316.3105
989.6905, 329.8589
990.1726, 354.2793
990.6547, 366.8147
991.1368, 359.4502
991.6190, 355.2942
992.1011, 363.3384
992.5832, 372.5559
993.0653, 369.5120
993.5474, 359.9031
994.0295, 366.7925
994.5117, 401.9702
994.9938, 428.4014
995.4759, 435.2620
995.9580, 444.9575
996.4401, 473.3047
996.9222, 503.8413
997.4044, 513.4846
997.8865, 503.8958
998.3686, 506.5286
998.8507, 542.0491
999.3328, 571.7166
999.8149, 575.6436
1000.297, 577.9131
1000.779, 601.3809
1001.261, 634.0901
1001.743, 649.9446
1002.226, 642.9473
1002.708, 641.6694
1003.190, 661.6304
1003.672, 688.5793
1004.154, 718.2666
1004.636, 746.9651
1005.118, 769.1223
1005.600, 785.9771
1006.082, 804.1489
1006.565, 827.3901
1007.047, 848.8220
1007.529, 858.2451
1008.011, 866.3628
1008.493, 889.6060
1008.975, 920.1750
1009.457, 939.2395
1009.939, 945.1504
1010.422, 953.9026
1010.904, 976.6106
1011.386, 1003.795
1011.868, 1024.325
1012.350, 1041.291
1012.832, 1061.729
1013.314, 1084.168
1013.796, 1097.500
1014.279, 1099.120
1014.761, 1108.413
1015.243, 1149.188
1015.725, 1204.514
1016.207, 1234.711
1016.689, 1246.135
1017.171, 1266.037
1017.653, 1297.327
1018.135, 1327.123
1018.618, 1348.549
1019.100, 1367.699
1019.582, 1394.397
1020.064, 1426.403
1020.546, 1450.812
1021.028, 1468.101
1021.510, 1488.749
1021.992, 1514.927
1022.474, 1543.059
1022.957, 1571.011
1023.439, 1599.490
1023.921, 1629.113
1024.403, 1659.691
1024.885, 1691.089
1025.367, 1722.980
1025.849, 1758.127
1026.331, 1799.590
1026.813, 1836.468
1027.296, 1855.883
1027.778, 1864.410
1028.260, 1889.493
1028.742, 1935.232
1029.224, 1978.508
1029.706, 2020.656
1030.188, 2051.498
1030.670, 2062.921
1031.153, 2069.573
1031.635, 2089.627
1032.117, 2121.579
1032.599, 2145.747
1033.081, 2151.872
1033.563, 2180.471
1034.045, 2248.277
1034.527, 2315.631
1035.010, 2362.448
1035.492, 2395.505
1035.974, 2424.352
1036.456, 2448.341
1036.938, 2483.377
1037.420, 2541.966
1037.902, 2586.888
1038.384, 2595.873
1038.866, 2609.794
1039.349, 2660.983
1039.831, 2733.130
1040.313, 2789.315
1040.795, 2823.803
1041.277, 2864.163
1041.759, 2913.940
1042.241, 2965.132
1042.723, 3024.907
1043.205, 3077.763
1043.688, 3103.225
1044.170, 3112.064
1044.652, 3141.009
1045.134, 3203.833
1045.616, 3254.971
1046.098, 3285.126
1046.580, 3310.318
1047.062, 3322.831
1047.545, 3343.894
1048.027, 3406.367
1048.509, 3497.440
1048.991, 3554.207
1049.473, 3543.484
1049.955, 3548.333
1050.437, 3587.226
1050.919, 3639.790
1051.401, 3709.141
1051.884, 3776.278
1052.366, 3819.432
1052.848, 3839.619
1053.330, 3857.724
1053.812, 3874.760
1054.294, 3896.253
1054.776, 3925.183
1055.258, 3956.708
1055.740, 3989.500
1056.223, 4021.813
1056.705, 4051.145
1057.187, 4077.971
1057.669, 4107.879
1058.151, 4146.938
1058.633, 4182.357
1059.115, 4206.172
1059.597, 4229.418
1060.080, 4259.625
1060.562, 4293.425
1061.044, 4326.076
1061.526, 4357.585
1062.008, 4390.434
1062.490, 4426.271
1062.972, 4460.078
1063.454, 4493.336
1063.937, 4521.327
1064.419, 4535.248
1064.901, 4542.621
1065.383, 4558.887
1065.865, 4587.416
1066.347, 4613.526
1066.829, 4630.528
1067.311, 4646.841
1067.793, 4660.172
1068.276, 4679.112
1068.758, 4717.424
1069.240, 4767.797
1069.722, 4810.699
1070.204, 4840.698
1070.686, 4869.208
1071.168, 4906.661
1071.650, 4934.715
1072.132, 4933.877
1072.615, 4927.630
1073.097, 4940.799
1073.579, 4968.223
1074.061, 4991.199
1074.543, 5004.220
1075.025, 5017.507
1075.507, 5034.938
1075.989, 5053.550
1076.472, 5069.804
1076.954, 5088.408
1077.436, 5117.747
1077.918, 5155.668
1078.400, 5189.726
1078.882, 5214.828
1079.364, 5238.625
1079.846, 5269.259
1080.328, 5296.188
1080.811, 5306.178
1081.293, 5313.175
1081.775, 5328.830
1082.257, 5354.862
1082.739, 5396.645
1083.221, 5464.816
1083.703, 5521.883
1084.185, 5539.700
1084.668, 5551.405
1085.150, 5574.499
1085.632, 5603.129
1086.114, 5631.827
1086.596, 5660.952
1087.078, 5694.341
1087.560, 5736.001
1088.042, 5774.143
1088.525, 5793.208
1089.007, 5817.076
1089.489, 5866.778
1089.971, 5925.026
1090.453, 5968.213
1090.935, 5997.548
1091.417, 6033.732
1091.899, 6076.728
1092.381, 6134.209
1092.864, 6233.226
1093.346, 6318.048
1093.828, 6341.793
1094.310, 6343.095
1094.792, 6366.988
1095.274, 6415.057
1095.756, 6464.546
1096.238, 6506.512
1096.720, 6551.593
1097.203, 6610.786
1097.685, 6664.860
1098.167, 6702.628
1098.649, 6727.008
1099.131, 6739.889
1099.613, 6742.360
1100.095, 6737.559
1100.577, 6720.667
1101.060, 6708.467
1101.542, 6708.668
1102.024, 6713.347
1102.506, 6727.397
1102.988, 6733.824
1103.470, 6716.470
1103.952, 6676.205
1104.434, 6607.871
1104.917, 6492.634
1105.399, 6395.523
1105.881, 6348.489
1106.363, 6299.745
1106.845, 6228.340
1107.327, 6143.335
1107.809, 6043.648
1108.291, 5937.117
1108.773, 5863.402
1109.255, 5853.673
1109.738, 5822.003
1110.220, 5752.920
1110.702, 5669.492
1111.184, 5569.894
1111.666, 5467.587
1112.148, 5374.033
1112.630, 5289.075
1113.112, 5211.897
1113.595, 5153.629
1114.077, 5080.637
1114.559, 4981.228
1115.041, 4884.142
1115.523, 4805.887
1116.005, 4725.773
1116.487, 4619.076
1116.969, 4494.558
1117.452, 4391.266
1117.934, 4324.648
1118.416, 4236.163
1118.898, 4106.340
1119.380, 3991.816
1119.862, 3916.606
1120.344, 3851.379
1120.826, 3773.857
1121.308, 3685.063
1121.791, 3588.623
1122.273, 3477.574
1122.755, 3386.962
1123.237, 3326.682
1123.719, 3256.504
1124.201, 3161.243
1124.683, 3064.153
1125.165, 2985.507
1125.647, 2916.674
1126.130, 2835.759
1126.612, 2743.297
1127.094, 2635.409
1127.576, 2505.536
1128.058, 2404.347
1128.540, 2351.288
1129.022, 2291.208
1129.504, 2181.160
1129.987, 2049.456
1130.469, 1958.336
1130.951, 1905.784
1131.433, 1828.688
1131.915, 1726.062
1132.397, 1637.626
1132.879, 1574.234
1133.361, 1516.185
1133.844, 1452.479
1134.326, 1381.336
1134.808, 1294.594
1135.290, 1201.387
1135.772, 1142.340
1136.254, 1110.811
1136.736, 1073.385
1137.218, 1024.770
1137.700, 966.8867
1138.182, 900.6055
1138.665, 849.6387
1139.147, 851.0186
1139.629, 879.1865
1140.111, 878.8154
1140.593, 855.4434
1141.075, 805.5244
1141.557, 740.2061
1142.039, 714.6836
1142.522, 748.9795
1143.004, 786.6807
1143.486, 784.1133
1143.968, 751.4717
1144.450, 682.5410
1144.932, 590.8682
1145.414, 504.2568
1145.896, 425.7637
1146.379, 348.1445
1146.861, 267.2090
1147.343, 196.1855
1147.825, 171.3145
1148.307, 122.7754
1148.789, 54.88281
1149.271, 246.6172
1149.753, 309.4492
1150.235, 296.1152
1150.718, 322.7637
1151.200, 406.8789
1151.682, 481.9844
1152.164, 510.0684
1152.646, 541.1934
1153.128, 612.1602
1153.610, 680.9219
1154.092, 715.2246
1154.574, 729.6836
1155.057, 753.3242
1155.539, 781.8516
1156.021, 772.5781
1156.503, 704.5020
1156.985, 627.1875
1157.467, 544.7812
1157.949, 464.9277
1158.431, 383.8184
1158.914, 310.7793
1159.396, 286.0703
1159.878, 277.2441
1160.360, 161.3652
1160.842, 110.4199
1161.324, 356.3242
1161.806, 580.6387
1162.288, 771.7324
1162.771, 888.0469
1163.253, 1033.551
1163.735, 1309.896
1164.217, 1641.059
1164.699, 1847.148
1165.181, 1911.416
1165.663, 2080.453
1166.145, 2382.553
1166.627, 2677.348
1167.109, 2943.945
1167.592, 3196.162
1168.074, 3432.215
1168.556, 3677.104
1169.038, 3977.250
1169.520, 4314.648
1170.002, 4600.723
1170.484, 4836.225
1170.966, 5061.273
1171.449, 5286.152
1171.931, 5572.355
1172.413, 5945.598
1172.895, 6306.105
1173.377, 6551.812
1173.859, 6741.273
1174.341, 7006.074
1174.823, 7311.578
1175.306, 7566.344
1175.788, 7768.750
1176.270, 7937.457
1176.752, 8072.391
1177.234, 8136.719
1177.716, 8111.703
1178.198, 8007.676
1178.680, 7816.004
1179.162, 7566.438
1179.645, 7270.926
1180.127, 6956.863
1180.609, 6694.035
1181.091, 6459.383
1181.573, 6123.367
1182.055, 5618.512
1182.537, 5135.996
1183.019, 4829.723
1183.501, 4525.742
1183.984, 4100.227
1184.466, 3639.250
1184.948, 3223.246
1185.430, 2841.281
1185.912, 2448.035
1186.394, 2034.578
1186.876, 1658.961
1187.358, 1319.672
1187.841, 1033.336
1188.323, 857.2148
1188.805, 678.7461
1189.287, 418.2227
1189.769, 128.9414
1190.251, 119.0586
1190.733, 329.2812
1191.215, 548.7695
1191.698, 770.5234
1192.180, 1029.086
1192.662, 1352.062
1193.144, 1638.184
1193.626, 1841.055
1194.108, 2021.844
1194.590, 2232.043
1195.072, 2466.820
1195.554, 2722.508
1196.036, 2998.887
1196.519, 3224.609
1197.001, 3396.828
1197.483, 3546.301
1197.965, 3681.285
1198.447, 3777.836
1198.929, 3825.559
1199.411, 3819.219
1199.893, 3731.449
1200.376, 3597.332
1200.858, 3543.574
1201.340, 3499.082
1201.822, 3252.840
1202.304, 2837.121
1202.786, 2461.816
1203.268, 2189.855
1203.750, 1860.109
1204.233, 1339.504
1204.715, 754.3594
1205.197, 206.3008
1205.679, 349.5781
1206.161, 931.2188
1206.643, 1556.820
1207.125, 2289.289
1207.607, 3113.535
1208.089, 3900.652
1208.572, 4583.871
1209.054, 5290.367
1209.536, 6102.520
1210.018, 6888.820
1210.500, 7603.387
1210.982, 8250.008
1211.464, 8800.441
1211.946, 9292.516
1212.428, 9840.105
1212.911, 10475.00
1213.393, 10934.97
1213.875, 11157.27
1214.357, 11371.55
1214.839, 11635.79
1215.321, 11824.73
1215.803, 11877.06
1216.285, 11826.38
1216.768, 11710.66
1217.250, 11535.41
1217.732, 11324.73
1218.214, 11085.48
1218.696, 10885.41
1219.178, 10718.24
1219.660, 10470.44
1220.142, 10111.51
1220.625, 9743.617
1221.107, 9437.203
1221.589, 9181.680
1222.071, 8997.734
1222.553, 8831.992
1223.035, 8553.422
1223.517, 8235.383
1223.999, 8048.578
1224.481, 7976.328
1224.964, 7875.883
1225.446, 7696.805
1225.928, 7532.062
1226.410, 7438.414
1226.892, 7376.258
1227.374, 7349.305
1227.856, 7321.602
1228.338, 7238.523
1228.821, 7152.914
1229.303, 7128.086
1229.785, 7180.086
1230.267, 7351.773
1230.749, 7725.180
1231.231, 8105.938
1231.713, 8078.633
1232.195, 8175.523
1232.677, 8482.500
1233.160, 8830.758
1233.642, 9049.883
1234.124, 9271.297
1234.606, 9795.586
1235.088, 10622.10
1235.570, 11490.80
1236.052, 12392.99
1236.534, 13436.02
1237.016, 14628.80
1237.499, 16009.95
1237.981, 17591.39
1238.463, 19210.50
1238.945, 20688.91
1239.427, 22125.47
1239.909, 23728.02
1240.391, 25391.14
1240.873, 26964.06
1241.356, 28390.34
1241.838, 29579.88
1242.320, 30529.95
1242.802, 31360.38
1243.284, 32167.45
1243.766, 32727.72
1244.248, 32955.89
1244.730, 32880.81
1245.213, 32399.25
1245.695, 31742.27
1246.177, 31138.05
1246.659, 30499.48
1247.141, 29591.91
1247.623, 28359.23
1248.105, 27208.09
1248.587, 26290.77
1249.069, 25226.79
1249.552, 23952.90
1250.034, 22613.91
1250.516, 21194.37
1250.998, 19876.67
1251.480, 18847.27
1251.962, 17994.97
1252.444, 17010.17
1252.926, 15900.70
1253.408, 15025.28
1253.891, 14365.98
1254.373, 13758.73
1254.855, 13175.51
1255.337, 12606.27
1255.819, 12049.69
1256.301, 11605.25
1256.783, 11402.26
1257.265, 11300.97
1257.748, 11101.96
1258.230, 10908.43
1258.712, 10847.70
1259.194, 10906.23
1259.676, 11080.21
1260.158, 11329.32
1260.640, 11522.89
1261.122, 11580.77
1261.604, 11726.74
1262.087, 12067.07
1262.569, 12463.08
1263.051, 12893.01
1263.533, 13331.83
1264.015, 13751.37
1264.497, 14179.89
1264.979, 14670.37
1265.461, 15220.35
1265.943, 15782.33
1266.426, 16374.44
1266.908, 16900.94
1267.390, 17352.98
1267.872, 17744.23
1268.354, 18074.61
1268.836, 18376.99
1269.318, 18669.12
1269.800, 18994.41
1270.283, 19450.77
1270.765, 19975.66
1271.247, 20387.09
1271.729, 20773.61
1272.211, 21338.11
1272.693, 22070.19
1273.175, 22873.70
1273.657, 23713.91
1274.140, 24541.10
1274.622, 25246.79
1275.104, 26094.85
1275.586, 27295.59
1276.068, 28592.88
1276.550, 29912.43
1277.032, 31186.82
1277.514, 32320.85
1277.996, 33367.55
1278.479, 34522.25
1278.961, 35829.75
1279.443, 36981.06
1279.925, 37979.25
1280.407, 38842.86
1280.889, 39558.84
1281.371, 40290.18
1281.853, 41121.49
1282.335, 41958.26
1282.818, 42689.34
1283.300, 43448.01
1283.782, 44521.92
1284.264, 45885.86
1284.746, 47403.92
1285.228, 49157.80
1285.710, 51255.12
1286.192, 53865.51
1286.675, 57295.04
1287.157, 61862.61
1287.639, 67940.48
1288.121, 509.1180
1288.603, 0.0000000E+00
##END=



