##NAMES=Fluornatromicrolite
##RRUFFID=R130021
##IDEAL CHEMISTRY=(Na_1.5_Bi^3+^_0.5_)Ta^5+^_2_O_6_F
##LOCALITY=Fisher’s Ledge, Topsham, Maine, USA.
##OWNER=RRUFF
##SOURCE=Royal Ontario Museum
##DESCRIPTION=Transparent green octahedra on albite
##STATUS=The identification of this mineral is confirmed by single-crystal X-ray diffraction and chemical analysis.
##URL=rruff.info/R130021
##MEASURED CHEMISTRY=(Na_1.01_Ca_0.94_Bi_0.02_Mn_0.01_)_Σ=1.99_(Ta_1.96_Nb_0.02_Sb_0.01_Sn_0.01_)_Σ=2_O_6_[F_0.85_(OH)_0.11_]_Σ=0.96_
95.53863, 1279.776
96.02074, 1288.589
96.50286, 1294.950
96.98498, 1298.083
97.46709, 1296.336
97.94921, 1295.197
98.43133, 1295.605
98.91344, 1295.870
99.39556, 1294.188
99.87768, 1291.419
100.3598, 1290.528
100.8419, 1293.750
101.3240, 1300.198
101.8061, 1305.244
102.2883, 1308.050
102.7704, 1309.884
103.2525, 1311.479
103.7346, 1312.570
104.2167, 1314.436
104.6988, 1318.373
105.1810, 1323.233
105.6631, 1327.383
106.1452, 1330.232
106.6273, 1331.806
107.1094, 1332.047
107.5915, 1328.889
108.0737, 1326.895
108.5558, 1328.702
109.0379, 1333.232
109.5200, 1337.723
110.0021, 1339.031
110.4842, 1335.749
110.9664, 1336.745
111.4485, 1346.890
111.9306, 1357.025
112.4127, 1362.957
112.8948, 1364.058
113.3769, 1362.284
113.8591, 1360.277
114.3412, 1357.153
114.8233, 1355.533
115.3054, 1355.478
115.7875, 1356.760
116.2696, 1359.684
116.7517, 1364.470
117.2339, 1369.870
117.7160, 1372.558
118.1981, 1371.138
118.6802, 1370.484
119.1623, 1372.767
119.6444, 1377.001
120.1266, 1380.499
120.6087, 1381.924
121.0908, 1381.858
121.5729, 1381.717
122.0550, 1381.086
122.5371, 1381.058
123.0193, 1383.230
123.5014, 1387.971
123.9835, 1391.776
124.4656, 1391.725
124.9477, 1390.283
125.4298, 1389.592
125.9120, 1390.542
126.3941, 1392.468
126.8762, 1393.801
127.3583, 1393.965
127.8404, 1394.553
128.3225, 1396.047
128.8047, 1398.187
129.2868, 1400.777
129.7689, 1403.886
130.2510, 1407.387
130.7331, 1409.305
131.2152, 1407.549
131.6974, 1406.142
132.1795, 1405.755
132.6616, 1406.512
133.1437, 1408.450
133.6258, 1411.747
134.1079, 1416.758
134.5901, 1420.847
135.0722, 1424.598
135.5543, 1427.222
136.0364, 1427.286
136.5185, 1425.038
137.0006, 1423.076
137.4828, 1424.742
137.9649, 1431.107
138.4470, 1435.705
138.9291, 1436.514
139.4112, 1436.052
139.8933, 1437.516
140.3755, 1441.885
140.8576, 1447.065
141.3397, 1450.299
141.8218, 1451.794
142.3039, 1452.962
142.7860, 1453.887
143.2681, 1454.823
143.7503, 1457.081
144.2324, 1462.780
144.7145, 1467.605
145.1966, 1466.963
145.6787, 1460.875
146.1608, 1454.922
146.6430, 1454.496
147.1251, 1460.245
147.6072, 1465.177
148.0893, 1466.607
148.5714, 1467.717
149.0535, 1470.266
149.5357, 1474.602
150.0178, 1479.876
150.4999, 1485.044
150.9820, 1490.823
151.4641, 1494.840
151.9462, 1497.085
152.4284, 1497.822
152.9105, 1496.515
153.3926, 1493.093
153.8747, 1488.993
154.3568, 1487.891
154.8389, 1494.360
155.3211, 1498.481
155.8032, 1497.489
156.2853, 1494.588
156.7674, 1494.008
157.2495, 1498.003
157.7316, 1505.091
158.2138, 1508.881
158.6959, 1506.751
159.1780, 1504.798
159.6601, 1504.205
160.1422, 1504.846
160.6243, 1506.423
161.1065, 1508.862
161.5886, 1512.102
162.0707, 1515.586
162.5528, 1520.115
163.0349, 1524.128
163.5170, 1526.455
163.9991, 1527.237
164.4813, 1527.765
164.9634, 1528.684
165.4455, 1529.945
165.9276, 1531.397
166.4097, 1533.249
166.8918, 1535.117
167.3740, 1536.426
167.8561, 1537.013
168.3382, 1537.800
168.8203, 1539.816
169.3024, 1542.239
169.7845, 1544.054
170.2667, 1544.858
170.7488, 1544.831
171.2309, 1544.202
171.7130, 1542.326
172.1951, 1541.088
172.6772, 1541.257
173.1594, 1542.389
173.6415, 1543.820
174.1236, 1545.031
174.6057, 1546.238
175.0878, 1548.897
175.5699, 1556.060
176.0521, 1561.169
176.5342, 1560.809
177.0163, 1557.290
177.4984, 1554.875
177.9805, 1557.036
178.4626, 1563.838
178.9448, 1567.283
179.4269, 1563.080
179.9090, 1559.754
180.3911, 1560.340
180.8732, 1564.072
181.3553, 1568.481
181.8375, 1571.527
182.3196, 1573.082
182.8017, 1574.273
183.2838, 1574.406
183.7659, 1574.838
184.2480, 1576.581
184.7301, 1579.435
185.2123, 1582.199
185.6944, 1583.724
186.1765, 1583.790
186.6586, 1584.025
187.1407, 1584.659
187.6228, 1585.292
188.1050, 1585.078
188.5871, 1584.025
189.0692, 1583.994
189.5513, 1587.680
190.0334, 1594.904
190.5155, 1599.781
190.9977, 1599.745
191.4798, 1597.939
191.9619, 1598.074
192.4440, 1600.842
192.9261, 1604.135
193.4082, 1606.034
193.8904, 1606.862
194.3725, 1607.269
194.8546, 1606.414
195.3367, 1605.437
195.8188, 1607.047
196.3009, 1612.619
196.7831, 1618.235
197.2652, 1621.406
197.7473, 1622.497
198.2294, 1622.023
198.7115, 1618.723
199.1936, 1613.680
199.6758, 1611.691
200.1579, 1614.070
200.6400, 1618.116
201.1221, 1623.048
201.6042, 1628.349
202.0863, 1632.769
202.5685, 1635.191
203.0506, 1635.738
203.5327, 1636.330
204.0148, 1635.801
204.4969, 1636.672
204.9790, 1641.109
205.4612, 1647.820
205.9433, 1653.797
206.4254, 1656.354
206.9075, 1655.293
207.3896, 1654.614
207.8717, 1654.158
208.3539, 1654.264
208.8360, 1655.622
209.3181, 1657.758
209.8002, 1659.501
210.2823, 1659.704
210.7644, 1658.132
211.2466, 1657.164
211.7287, 1656.424
212.2108, 1656.559
212.6929, 1658.282
213.1750, 1661.247
213.6571, 1664.448
214.1393, 1666.974
214.6214, 1668.736
215.1035, 1670.424
215.5856, 1672.597
216.0677, 1674.255
216.5498, 1674.357
217.0320, 1673.250
217.5141, 1672.451
217.9962, 1673.350
218.4783, 1676.172
218.9604, 1679.298
219.4425, 1682.857
219.9247, 1686.582
220.4068, 1690.922
220.8889, 1695.619
221.3710, 1699.063
221.8531, 1699.370
222.3352, 1696.325
222.8174, 1695.557
223.2995, 1699.352
223.7816, 1703.720
224.2637, 1705.339
224.7458, 1704.137
225.2279, 1702.748
225.7100, 1703.355
226.1922, 1705.771
226.6743, 1707.897
227.1564, 1709.214
227.6385, 1710.438
228.1206, 1712.521
228.6027, 1715.544
229.0849, 1718.041
229.5670, 1718.314
230.0491, 1717.214
230.5312, 1717.124
231.0133, 1718.684
231.4954, 1721.293
231.9776, 1724.810
232.4597, 1729.490
232.9418, 1733.273
233.4239, 1733.791
233.9060, 1732.729
234.3881, 1732.636
234.8703, 1734.432
235.3524, 1737.223
235.8345, 1740.074
236.3166, 1743.177
236.7987, 1745.567
237.2808, 1745.744
237.7630, 1745.237
238.2451, 1745.831
238.7272, 1748.371
239.2093, 1751.813
239.6914, 1754.646
240.1735, 1756.946
240.6557, 1758.396
241.1378, 1758.053
241.6199, 1757.194
242.1020, 1756.928
242.5841, 1757.591
243.0662, 1759.146
243.5484, 1761.849
244.0305, 1766.411
244.5126, 1770.147
244.9947, 1771.367
245.4768, 1771.992
245.9589, 1774.048
246.4410, 1778.324
246.9232, 1782.975
247.4053, 1784.656
247.8874, 1782.097
248.3695, 1779.468
248.8516, 1776.392
249.3337, 1774.161
249.8159, 1774.005
250.2980, 1776.267
250.7801, 1780.005
251.2622, 1783.957
251.7443, 1788.862
252.2264, 1792.129
252.7086, 1792.381
253.1907, 1791.945
253.6728, 1792.339
254.1549, 1793.989
254.6370, 1796.490
255.1191, 1799.528
255.6013, 1804.280
256.0834, 1806.850
256.5655, 1804.782
257.0476, 1802.651
257.5297, 1803.826
258.0118, 1808.714
258.4940, 1815.035
258.9761, 1819.926
259.4582, 1823.659
259.9403, 1824.960
260.4224, 1821.319
260.9045, 1817.703
261.3867, 1817.739
261.8688, 1821.447
262.3509, 1825.845
262.8330, 1827.344
263.3151, 1824.578
263.7972, 1823.922
264.2794, 1826.938
264.7615, 1830.320
265.2436, 1832.351
265.7257, 1832.940
266.2078, 1832.743
266.6899, 1832.099
267.1721, 1830.489
267.6542, 1832.227
268.1363, 1840.527
268.6184, 1848.545
269.1005, 1852.385
269.5826, 1852.652
270.0648, 1852.615
270.5469, 1855.052
271.0290, 1860.084
271.5111, 1863.459
271.9932, 1864.241
272.4753, 1864.662
272.9575, 1864.825
273.4396, 1865.286
273.9217, 1867.746
274.4038, 1873.969
274.8859, 1883.277
275.3680, 1886.805
275.8501, 1879.205
276.3322, 1873.073
276.8144, 1874.101
277.2965, 1879.828
277.7786, 1884.159
278.2607, 1883.389
278.7428, 1879.285
279.2249, 1879.677
279.7071, 1888.793
280.1892, 1896.482
280.6713, 1899.497
281.1534, 1899.479
281.6355, 1899.169
282.1176, 1899.663
282.5998, 1900.771
283.0819, 1901.996
283.5640, 1902.967
284.0461, 1904.694
284.5282, 1909.106
285.0103, 1913.967
285.4925, 1915.267
285.9746, 1911.353
286.4567, 1905.658
286.9388, 1904.152
287.4209, 1907.849
287.9030, 1911.788
288.3852, 1915.743
288.8673, 1919.327
289.3494, 1922.011
289.8315, 1923.667
290.3136, 1924.535
290.7957, 1924.459
291.2779, 1923.116
291.7600, 1923.558
292.2421, 1926.386
292.7242, 1930.961
293.2063, 1938.151
293.6884, 1947.951
294.1706, 1955.589
294.6527, 1955.362
295.1348, 1947.183
295.6169, 1943.348
296.0990, 1947.430
296.5811, 1953.720
297.0633, 1958.462
297.5454, 1961.396
298.0275, 1962.791
298.5096, 1962.258
298.9917, 1960.238
299.4738, 1959.662
299.9560, 1961.199
300.4381, 1963.528
300.9202, 1966.337
301.4023, 1969.440
301.8844, 1972.007
302.3665, 1973.408
302.8487, 1974.119
303.3308, 1975.601
303.8129, 1978.051
304.2950, 1980.838
304.7771, 1984.536
305.2592, 1988.419
305.7414, 1990.306
306.2235, 1988.907
306.7056, 1985.987
307.1877, 1984.985
307.6698, 1986.093
308.1519, 1987.646
308.6341, 1988.840
309.1162, 1990.192
309.5983, 1993.004
310.0804, 1997.912
310.5625, 2002.971
311.0446, 2005.534
311.5268, 2005.698
312.0089, 2004.671
312.4910, 2000.447
312.9731, 1996.172
313.4552, 1996.461
313.9373, 2002.130
314.4195, 2008.264
314.9016, 2009.561
315.3837, 2006.507
315.8658, 2006.719
316.3479, 2014.216
316.8300, 2022.784
317.3121, 2027.659
317.7943, 2028.728
318.2764, 2027.164
318.7585, 2022.265
319.2406, 2015.548
319.7227, 2013.512
320.2048, 2019.836
320.6870, 2027.014
321.1691, 2030.914
321.6512, 2032.234
322.1333, 2033.578
322.6154, 2036.319
323.0975, 2039.592
323.5797, 2041.120
324.0618, 2040.521
324.5439, 2039.450
325.0260, 2037.224
325.5081, 2035.094
325.9902, 2035.912
326.4724, 2041.001
326.9545, 2047.713
327.4366, 2051.994
327.9187, 2053.694
328.4008, 2054.666
328.8829, 2053.889
329.3651, 2053.160
329.8472, 2055.221
330.3293, 2060.543
330.8114, 2065.998
331.2935, 2068.279
331.7756, 2067.058
332.2578, 2066.641
332.7399, 2068.152
333.2220, 2069.740
333.7041, 2069.391
334.1862, 2067.420
334.6683, 2066.587
335.1505, 2069.166
335.6326, 2074.583
336.1147, 2078.259
336.5968, 2078.169
337.0789, 2078.720
337.5610, 2083.145
338.0432, 2089.694
338.5253, 2093.845
339.0074, 2093.206
339.4895, 2089.641
339.9716, 2088.076
340.4537, 2088.596
340.9359, 2090.540
341.4180, 2095.497
341.9001, 2101.209
342.3822, 2104.509
342.8643, 2104.481
343.3464, 2102.802
343.8286, 2101.426
344.3107, 2099.649
344.7928, 2101.007
345.2749, 2108.975
345.7570, 2117.680
346.2391, 2122.614
346.7213, 2123.470
347.2034, 2122.450
347.6855, 2121.129
348.1676, 2119.444
348.6497, 2119.760
349.1318, 2124.483
349.6140, 2128.462
350.0961, 2128.559
350.5782, 2126.136
351.0603, 2124.366
351.5424, 2125.027
352.0245, 2127.910
352.5067, 2132.243
352.9888, 2142.229
353.4709, 2148.456
353.9530, 2146.809
354.4351, 2141.960
354.9172, 2139.334
355.3994, 2140.814
355.8815, 2144.528
356.3636, 2147.251
356.8457, 2147.505
357.3278, 2149.904
357.8099, 2157.142
358.2920, 2164.303
358.7741, 2167.627
359.2563, 2167.111
359.7384, 2165.327
360.2205, 2164.558
360.7026, 2164.710
361.1847, 2166.913
361.6668, 2173.620
362.1490, 2179.691
362.6311, 2183.748
363.1132, 2185.889
363.5953, 2186.204
364.0774, 2184.577
364.5595, 2181.717
365.0417, 2180.679
365.5238, 2182.698
366.0059, 2184.997
366.4880, 2186.385
366.9701, 2188.283
367.4522, 2192.852
367.9344, 2200.539
368.4165, 2208.771
368.8986, 2213.846
369.3807, 2215.850
369.8628, 2214.155
370.3449, 2203.110
370.8271, 2193.323
371.3092, 2191.499
371.7913, 2196.832
372.2734, 2203.320
372.7555, 2205.494
373.2376, 2203.537
373.7198, 2203.443
374.2019, 2206.177
374.6840, 2209.796
375.1661, 2214.451
375.6482, 2219.342
376.1303, 2223.170
376.6125, 2225.173
377.0946, 2226.127
377.5767, 2227.903
378.0588, 2231.018
378.5409, 2233.448
379.0230, 2233.644
379.5052, 2233.527
379.9873, 2234.726
380.4694, 2237.549
380.9515, 2240.755
381.4336, 2243.092
381.9157, 2244.574
382.3979, 2246.001
382.8800, 2247.228
383.3621, 2248.711
383.8442, 2250.940
384.3263, 2253.689
384.8084, 2256.220
385.2906, 2257.440
385.7727, 2258.260
386.2548, 2261.465
386.7369, 2268.085
387.2190, 2273.306
387.7011, 2272.471
388.1833, 2269.014
388.6654, 2267.899
389.1475, 2270.927
389.6296, 2274.895
390.1117, 2277.398
390.5938, 2278.490
391.0760, 2278.172
391.5581, 2275.410
392.0402, 2272.567
392.5223, 2273.221
393.0044, 2277.584
393.4865, 2281.826
393.9687, 2284.077
394.4508, 2285.407
394.9329, 2287.698
395.4150, 2291.338
395.8971, 2294.767
396.3792, 2296.313
396.8614, 2296.182
397.3435, 2297.106
397.8256, 2300.678
398.3077, 2304.033
398.7898, 2304.623
399.2719, 2303.214
399.7540, 2302.647
400.2361, 2304.335
400.7183, 2307.778
401.2004, 2311.708
401.6825, 2316.841
402.1646, 2321.145
402.6467, 2323.829
403.1288, 2325.711
403.6110, 2327.605
404.0931, 2329.722
404.5752, 2332.056
405.0573, 2334.742
405.5394, 2338.085
406.0215, 2340.041
406.5037, 2339.192
406.9858, 2338.498
407.4679, 2339.927
407.9500, 2342.751
408.4321, 2344.710
408.9142, 2344.233
409.3964, 2342.195
409.8785, 2342.677
410.3606, 2348.724
410.8427, 2353.414
411.3248, 2355.338
411.8069, 2356.122
412.2891, 2357.250
412.7712, 2359.134
413.2533, 2361.309
413.7354, 2362.797
414.2175, 2362.786
414.6996, 2365.399
415.1818, 2375.645
415.6639, 2383.863
416.1460, 2384.977
416.6281, 2380.918
417.1102, 2376.547
417.5923, 2374.516
418.0745, 2374.843
418.5566, 2378.151
419.0387, 2386.394
419.5208, 2393.232
420.0029, 2396.006
420.4850, 2396.956
420.9672, 2397.823
421.4493, 2399.004
421.9314, 2400.456
422.4135, 2402.277
422.8956, 2404.438
423.3777, 2406.389
423.8599, 2408.155
424.3420, 2409.528
424.8241, 2410.056
425.3062, 2410.035
425.7883, 2410.543
426.2704, 2412.599
426.7526, 2415.203
427.2347, 2416.500
427.7168, 2416.375
428.1989, 2417.049
428.6810, 2419.826
429.1631, 2424.177
429.6453, 2428.615
430.1274, 2433.080
430.6095, 2437.752
431.0916, 2443.543
431.5737, 2449.448
432.0558, 2453.138
432.5380, 2453.821
433.0201, 2453.544
433.5022, 2454.667
433.9843, 2457.406
434.4664, 2459.743
434.9485, 2460.453
435.4307, 2461.699
435.9128, 2465.633
436.3949, 2471.499
436.8770, 2476.685
437.3591, 2479.682
437.8412, 2480.848
438.3234, 2481.486
438.8055, 2480.035
439.2876, 2480.101
439.7697, 2483.297
440.2518, 2487.358
440.7339, 2490.449
441.2160, 2492.055
441.6982, 2492.218
442.1803, 2490.443
442.6624, 2485.951
443.1445, 2485.275
443.6266, 2491.703
444.1087, 2498.618
444.5909, 2505.182
445.0730, 2510.623
445.5551, 2513.786
446.0372, 2513.855
446.5193, 2512.266
447.0014, 2512.211
447.4836, 2514.132
447.9657, 2516.276
448.4478, 2519.792
448.9299, 2522.348
449.4120, 2520.993
449.8941, 2516.281
450.3763, 2513.264
450.8584, 2517.212
451.3405, 2526.331
451.8226, 2532.950
452.3047, 2536.569
452.7868, 2538.492
453.2690, 2537.261
453.7511, 2535.329
454.2332, 2536.669
454.7153, 2543.360
455.1974, 2551.015
455.6795, 2556.253
456.1617, 2559.403
456.6438, 2561.932
457.1259, 2564.141
457.6080, 2566.110
458.0901, 2567.949
458.5722, 2569.680
459.0544, 2571.196
459.5365, 2572.052
460.0186, 2573.009
460.5007, 2575.205
460.9828, 2578.354
461.4649, 2580.517
461.9471, 2580.149
462.4292, 2578.270
462.9113, 2579.175
463.3934, 2585.796
463.8755, 2591.165
464.3576, 2594.163
464.8398, 2595.749
465.3219, 2596.451
465.8040, 2596.587
466.2861, 2596.885
466.7682, 2598.078
467.2503, 2600.164
467.7325, 2603.191
468.2146, 2608.741
468.6967, 2613.516
469.1788, 2616.054
469.6609, 2617.390
470.1430, 2619.272
470.6252, 2622.514
471.1073, 2625.928
471.5894, 2627.116
472.0715, 2625.411
472.5536, 2624.429
473.0357, 2624.204
473.5179, 2625.377
474.0000, 2629.844
474.4821, 2636.484
474.9642, 2641.033
475.4463, 2639.350
475.9284, 2634.424
476.4106, 2633.125
476.8927, 2636.037
477.3748, 2638.862
477.8569, 2639.017
478.3390, 2638.238
478.8211, 2639.406
479.3033, 2643.163
479.7854, 2646.869
480.2675, 2648.788
480.7496, 2649.854
481.2317, 2651.718
481.7138, 2654.665
482.1959, 2658.372
482.6780, 2662.967
483.1602, 2668.341
483.6423, 2671.967
484.1244, 2672.497
484.6065, 2672.848
485.0886, 2674.080
485.5707, 2675.970
486.0529, 2678.325
486.5350, 2681.064
487.0171, 2683.469
487.4992, 2684.087
487.9813, 2681.287
488.4634, 2681.303
488.9456, 2687.345
489.4277, 2692.672
489.9098, 2692.609
490.3919, 2689.213
490.8740, 2687.752
491.3561, 2691.666
491.8383, 2698.827
492.3204, 2703.176
492.8025, 2703.437
493.2846, 2704.411
493.7667, 2708.148
494.2488, 2712.166
494.7310, 2714.893
495.2131, 2716.229
495.6952, 2716.921
496.1773, 2716.396
496.6594, 2715.687
497.1415, 2718.502
497.6237, 2725.928
498.1058, 2732.042
498.5879, 2733.293
499.0700, 2731.170
499.5521, 2728.398
500.0342, 2724.198
500.5164, 2721.576
500.9985, 2721.820
501.4806, 2724.677
501.9627, 2730.819
502.4448, 2740.435
502.9269, 2749.381
503.4091, 2753.354
503.8912, 2752.153
504.3733, 2752.683
504.8554, 2754.461
505.3375, 2758.274
505.8196, 2766.566
506.3018, 2776.435
506.7839, 2783.216
507.2660, 2785.316
507.7481, 2785.278
508.2302, 2787.124
508.7123, 2791.833
509.1945, 2794.873
509.6766, 2792.771
510.1587, 2792.463
510.6408, 2799.789
511.1229, 2810.427
511.6050, 2815.406
512.0872, 2809.267
512.5693, 2798.642
513.0514, 2795.824
513.5335, 2801.800
514.0156, 2807.978
514.4977, 2812.636
514.9799, 2816.840
515.4620, 2821.771
515.9441, 2827.215
516.4262, 2831.723
516.9083, 2835.013
517.3904, 2836.860
517.8726, 2836.297
518.3547, 2833.526
518.8368, 2831.257
519.3189, 2830.953
519.8010, 2831.685
520.2831, 2831.227
520.7653, 2828.967
521.2474, 2827.518
521.7295, 2826.048
522.2116, 2826.436
522.6937, 2832.149
523.1758, 2842.020
523.6580, 2850.193
524.1401, 2852.120
524.6222, 2849.244
525.1043, 2849.094
525.5864, 2853.990
526.0685, 2858.434
526.5507, 2862.663
527.0328, 2865.817
527.5149, 2866.607
527.9970, 2865.283
528.4791, 2863.828
528.9612, 2863.802
529.4434, 2865.130
529.9255, 2867.759
530.4076, 2872.873
530.8897, 2876.531
531.3718, 2875.542
531.8539, 2872.944
532.3361, 2871.678
532.8182, 2872.229
533.3003, 2873.813
533.7824, 2876.250
534.2645, 2879.296
534.7466, 2882.661
535.2288, 2886.362
535.7109, 2889.688
536.1930, 2892.160
536.6751, 2893.764
537.1572, 2894.600
537.6393, 2892.582
538.1215, 2892.394
538.6036, 2897.138
539.0857, 2903.621
539.5678, 2907.447
540.0499, 2907.920
540.5320, 2908.204
541.0142, 2912.067
541.4963, 2919.728
541.9784, 2923.025
542.4604, 2914.338
542.9426, 2910.371
543.4247, 2919.070
543.9068, 2931.964
544.3889, 2939.150
544.8710, 2938.096
545.3531, 2934.222
545.8353, 2932.873
546.3174, 2933.908
546.7995, 2936.135
547.2816, 2940.519
547.7637, 2943.893
548.2458, 2941.779
548.7280, 2937.874
549.2101, 2938.802
549.6922, 2947.884
550.1743, 2957.148
550.6564, 2961.504
551.1385, 2962.495
551.6207, 2963.078
552.1028, 2963.858
552.5849, 2964.804
553.0670, 2965.813
553.5491, 2966.901
554.0313, 2968.802
554.5134, 2972.681
554.9955, 2975.890
555.4776, 2977.259
555.9597, 2977.787
556.4418, 2978.183
556.9240, 2978.861
557.4061, 2980.878
557.8882, 2986.099
558.3703, 2994.697
558.8524, 3000.319
559.3345, 2999.820
559.8167, 3000.752
560.2988, 3007.746
560.7809, 3016.445
561.2630, 3021.065
561.7451, 3019.823
562.2272, 3017.835
562.7094, 3019.769
563.1915, 3024.560
563.6736, 3029.160
564.1557, 3033.579
564.6378, 3035.798
565.1199, 3032.665
565.6021, 3026.164
566.0842, 3025.012
566.5663, 3035.068
567.0484, 3042.142
567.5305, 3038.115
568.0126, 3030.036
568.4948, 3027.113
568.9769, 3030.692
569.4590, 3035.884
569.9411, 3038.245
570.4232, 3037.914
570.9053, 3037.181
571.3875, 3034.768
571.8696, 3033.741
572.3517, 3034.051
572.8338, 3036.194
573.3159, 3041.036
573.7980, 3048.501
574.2802, 3056.991
574.7623, 3066.219
575.2444, 3075.461
575.7265, 3081.238
576.2086, 3082.804
576.6907, 3084.021
577.1729, 3086.902
577.6550, 3090.332
578.1371, 3092.336
578.6192, 3092.464
579.1013, 3093.057
579.5834, 3095.358
580.0656, 3098.366
580.5477, 3101.377
581.0298, 3104.111
581.5119, 3105.482
581.9940, 3104.446
582.4761, 3102.215
582.9583, 3103.017
583.4404, 3110.213
583.9225, 3115.347
584.4046, 3116.495
584.8867, 3117.144
585.3688, 3119.708
585.8510, 3123.886
586.3331, 3127.971
586.8152, 3130.882
587.2973, 3133.040
587.7794, 3135.240
588.2615, 3137.412
588.7437, 3140.215
589.2258, 3144.823
589.7079, 3148.977
590.1900, 3149.863
590.6721, 3148.104
591.1542, 3147.747
591.6364, 3150.948
592.1185, 3155.271
592.6006, 3159.204
593.0827, 3162.580
593.5648, 3164.891
594.0469, 3165.912
594.5291, 3166.195
595.0112, 3166.165
595.4933, 3165.031
595.9754, 3167.508
596.4575, 3177.292
596.9396, 3186.072
597.4218, 3191.594
597.9039, 3194.080
598.3860, 3192.990
598.8681, 3188.346
599.3502, 3184.122
599.8323, 3186.421
600.3145, 3194.892
600.7966, 3199.228
601.2787, 3196.745
601.7608, 3194.826
602.2429, 3198.314
602.7250, 3204.852
603.2072, 3211.150
603.6893, 3216.951
604.1714, 3222.130
604.6535, 3226.826
605.1356, 3230.792
605.6177, 3233.720
606.0999, 3235.549
606.5820, 3235.877
607.0641, 3233.938
607.5462, 3230.771
608.0283, 3231.091
608.5104, 3236.607
608.9926, 3243.473
609.4747, 3256.237
609.9568, 3266.482
610.4389, 3265.534
610.9210, 3256.142
611.4031, 3249.086
611.8853, 3251.876
612.3674, 3260.000
612.8495, 3263.524
613.3316, 3261.925
613.8137, 3262.343
614.2958, 3267.354
614.7780, 3273.869
615.2601, 3279.063
615.7422, 3283.109
616.2243, 3286.773
616.7064, 3290.395
617.1885, 3293.484
617.6707, 3296.226
618.1528, 3298.094
618.6349, 3296.903
619.1170, 3292.207
619.5991, 3288.577
620.0812, 3291.925
620.5634, 3302.910
621.0455, 3310.983
621.5276, 3315.282
622.0097, 3317.487
622.4918, 3315.219
622.9739, 3312.591
623.4561, 3314.775
623.9382, 3322.349
624.4203, 3329.684
624.9023, 3331.018
625.3845, 3328.783
625.8666, 3329.654
626.3487, 3333.975
626.8308, 3339.173
627.3129, 3344.795
627.7950, 3349.964
628.2772, 3352.580
628.7593, 3352.015
629.2414, 3352.401
629.7235, 3354.297
630.2056, 3357.360
630.6877, 3362.639
631.1699, 3368.792
631.6520, 3372.390
632.1341, 3371.836
632.6162, 3370.148
633.0983, 3373.004
633.5804, 3381.797
634.0626, 3388.068
634.5447, 3390.572
635.0268, 3391.915
635.5089, 3392.377
635.9910, 3392.820
636.4731, 3394.569
636.9553, 3398.008
637.4374, 3402.412
637.9195, 3408.829
638.4016, 3415.346
638.8837, 3417.504
639.3658, 3414.960
639.8480, 3412.433
640.3301, 3412.732
640.8122, 3415.570
641.2943, 3420.146
641.7764, 3431.107
642.2585, 3436.653
642.7407, 3431.354
643.2228, 3425.463
643.7049, 3425.929
644.1870, 3431.312
644.6691, 3436.346
645.1512, 3438.130
645.6334, 3438.948
646.1155, 3442.645
646.5976, 3449.209
647.0797, 3456.194
647.5618, 3464.337
648.0439, 3470.488
648.5261, 3470.417
649.0082, 3466.372
649.4903, 3465.458
649.9724, 3470.456
650.4545, 3475.169
650.9366, 3476.474
651.4188, 3476.555
651.9009, 3478.387
652.3830, 3481.980
652.8651, 3484.603
653.3472, 3483.840
653.8293, 3481.349
654.3115, 3483.996
654.7936, 3495.074
655.2757, 3503.208
655.7578, 3505.194
656.2399, 3505.145
656.7220, 3503.514
657.2042, 3501.541
657.6863, 3502.598
658.1684, 3509.343
658.6505, 3517.343
659.1326, 3523.031
659.6147, 3526.613
660.0969, 3528.091
660.5790, 3527.385
661.0611, 3527.153
661.5432, 3530.082
662.0253, 3535.721
662.5074, 3539.030
662.9896, 3538.134
663.4717, 3537.383
663.9538, 3536.525
664.4359, 3536.447
664.9180, 3537.725
665.4001, 3540.437
665.8823, 3544.525
666.3644, 3550.177
666.8465, 3556.869
667.3286, 3564.840
667.8107, 3573.951
668.2928, 3578.317
668.7750, 3574.478
669.2571, 3570.827
669.7392, 3577.311
670.2213, 3592.322
670.7034, 3599.420
671.1855, 3590.534
671.6677, 3583.296
672.1498, 3584.135
672.6319, 3588.890
673.1140, 3593.655
673.5961, 3597.556
674.0782, 3601.067
674.5604, 3604.707
675.0425, 3607.996
675.5246, 3609.115
676.0067, 3607.507
676.4888, 3606.066
676.9709, 3603.624
677.4531, 3603.609
677.9352, 3610.755
678.4173, 3622.749
678.8994, 3631.114
679.3815, 3632.231
679.8636, 3631.501
680.3458, 3630.931
680.8279, 3631.023
681.3100, 3633.171
681.7921, 3637.284
682.2742, 3640.861
682.7563, 3641.585
683.2385, 3640.391
683.7206, 3642.261
684.2027, 3649.541
684.6848, 3654.677
685.1669, 3652.793
685.6490, 3651.855
686.1312, 3659.269
686.6133, 3671.614
687.0954, 3678.015
687.5775, 3671.409
688.0596, 3662.884
688.5417, 3661.575
689.0239, 3665.971
689.5060, 3674.245
689.9881, 3685.903
690.4702, 3695.262
690.9523, 3697.491
691.4344, 3694.098
691.9166, 3692.618
692.3987, 3693.161
692.8808, 3695.622
693.3629, 3702.878
693.8450, 3709.275
694.3271, 3709.371
694.8093, 3705.867
695.2914, 3706.601
695.7735, 3716.425
696.2556, 3727.112
696.7377, 3728.109
697.2198, 3722.204
697.7020, 3719.350
698.1841, 3721.130
698.6662, 3724.593
699.1483, 3728.007
699.6304, 3731.314
700.1125, 3734.235
700.5947, 3736.800
701.0768, 3738.939
701.5589, 3740.014
702.0410, 3741.309
702.5231, 3744.125
703.0052, 3747.736
703.4874, 3750.311
703.9695, 3750.938
704.4516, 3751.490
704.9337, 3754.265
705.4158, 3758.963
705.8979, 3764.257
706.3801, 3770.069
706.8622, 3776.266
707.3442, 3783.749
707.8264, 3790.826
708.3085, 3792.458
708.7906, 3784.534
709.2727, 3781.836
709.7548, 3790.284
710.2369, 3799.332
710.7191, 3802.693
711.2012, 3802.162
711.6833, 3801.178
712.1654, 3801.062
712.6475, 3802.365
713.1296, 3805.957
713.6118, 3811.598
714.0939, 3818.499
714.5760, 3827.016
715.0581, 3834.107
715.5402, 3837.260
716.0223, 3839.349
716.5045, 3846.393
716.9866, 3860.020
717.4687, 3868.417
717.9508, 3866.843
718.4329, 3863.804
718.9150, 3861.703
719.3972, 3861.545
719.8793, 3864.924
720.3614, 3871.925
720.8435, 3880.193
721.3256, 3888.923
721.8077, 3896.723
722.2899, 3896.065
722.7720, 3885.362
723.2541, 3879.559
723.7362, 3885.022
724.2183, 3894.837
724.7004, 3901.513
725.1826, 3905.147
725.6647, 3907.908
726.1468, 3909.506
726.6289, 3910.797
727.1110, 3911.159
727.5931, 3911.960
728.0753, 3915.186
728.5574, 3920.678
729.0395, 3926.244
729.5216, 3930.251
730.0037, 3933.354
730.4858, 3937.350
730.9680, 3942.301
731.4501, 3945.723
731.9322, 3946.354
732.4143, 3947.101
732.8964, 3949.799
733.3785, 3954.626
733.8607, 3962.069
734.3428, 3977.101
734.8249, 3986.954
735.3070, 3983.743
735.7891, 3978.638
736.2712, 3982.421
736.7534, 3992.547
737.2355, 3999.184
737.7176, 3997.264
738.1997, 3992.161
738.6818, 3991.365
739.1639, 3994.605
739.6461, 3999.798
740.1282, 4007.267
740.6103, 4014.501
741.0924, 4020.448
741.5745, 4025.012
742.0566, 4027.511
742.5388, 4026.895
743.0209, 4028.053
743.5030, 4033.878
743.9851, 4038.985
744.4672, 4039.354
744.9493, 4037.587
745.4315, 4037.311
745.9136, 4039.730
746.3957, 4044.883
746.8778, 4055.346
747.3599, 4068.124
747.8420, 4072.629
748.3242, 4068.636
748.8063, 4065.597
749.2884, 4066.475
749.7705, 4069.954
750.2526, 4075.078
750.7347, 4081.972
751.2169, 4087.448
751.6990, 4091.880
752.1811, 4094.523
752.6632, 4092.274
753.1453, 4090.317
753.6274, 4095.085
754.1096, 4105.107
754.5917, 4112.280
755.0738, 4110.810
755.5559, 4106.999
756.0380, 4110.208
756.5201, 4118.906
757.0023, 4126.592
757.4844, 4132.263
757.9665, 4136.393
758.4486, 4139.040
758.9307, 4140.658
759.4128, 4142.809
759.8950, 4146.126
760.3771, 4148.803
760.8592, 4150.231
761.3413, 4151.661
761.8234, 4153.382
762.3055, 4155.580
762.7877, 4158.809
763.2698, 4163.278
763.7519, 4167.200
764.2340, 4168.294
764.7161, 4168.511
765.1982, 4170.980
765.6804, 4175.582
766.1625, 4181.284
766.6446, 4187.862
767.1267, 4193.303
767.6088, 4194.259
768.0909, 4190.374
768.5731, 4191.692
769.0552, 4202.506
769.5373, 4211.513
770.0194, 4214.264
770.5015, 4215.924
770.9836, 4220.731
771.4658, 4228.236
771.9479, 4235.058
772.4300, 4240.991
772.9121, 4244.599
773.3942, 4242.948
773.8763, 4239.165
774.3585, 4237.817
774.8406, 4239.582
775.3227, 4243.810
775.8048, 4250.472
776.2869, 4257.583
776.7690, 4259.471
777.2512, 4254.810
777.7333, 4254.233
778.2154, 4260.169
778.6975, 4267.049
779.1796, 4272.026
779.6617, 4276.001
780.1439, 4280.860
780.6260, 4287.393
781.1081, 4291.215
781.5902, 4286.150
782.0723, 4283.099
782.5544, 4291.159
783.0366, 4305.307
783.5187, 4318.106
784.0008, 4326.970
784.4829, 4330.759
784.9650, 4325.766
785.4471, 4316.537
785.9293, 4318.739
786.4114, 4332.577
786.8935, 4342.618
787.3756, 4344.562
787.8577, 4343.043
788.3398, 4341.147
788.8220, 4339.298
789.3040, 4341.074
789.7861, 4351.878
790.2682, 4358.438
790.7504, 4355.245
791.2325, 4351.759
791.7146, 4354.333
792.1967, 4361.401
792.6788, 4368.792
793.1609, 4375.032
793.6431, 4381.040
794.1252, 4388.557
794.6073, 4395.994
795.0894, 4399.566
795.5715, 4399.685
796.0536, 4400.755
796.5358, 4404.766
797.0179, 4408.550
797.5000, 4407.263
797.9821, 4400.547
798.4642, 4396.902
798.9464, 4396.418
799.4285, 4398.793
799.9106, 4405.772
800.3927, 4414.213
800.8748, 4422.726
801.3569, 4430.868
801.8391, 4436.798
802.3212, 4438.055
802.8033, 4439.965
803.2854, 4445.591
803.7675, 4453.204
804.2496, 4461.934
804.7318, 4470.748
805.2139, 4477.297
805.6960, 4480.201
806.1781, 4481.034
806.6602, 4482.053
807.1423, 4483.243
807.6245, 4484.220
808.1066, 4484.880
808.5887, 4485.698
809.0708, 4486.546
809.5529, 4488.085
810.0350, 4491.334
810.5172, 4496.461
810.9993, 4502.437
811.4814, 4510.905
811.9635, 4518.098
812.4456, 4522.070
812.9277, 4524.959
813.4099, 4528.165
813.8920, 4532.158
814.3741, 4537.873
814.8562, 4547.112
815.3383, 4555.381
815.8204, 4556.384
816.3026, 4553.194
816.7847, 4552.592
817.2668, 4555.239
817.7489, 4558.577
818.2310, 4561.108
818.7131, 4563.627
819.1953, 4568.040
819.6774, 4574.972
820.1595, 4579.333
820.6416, 4578.515
821.1237, 4580.121
821.6058, 4589.852
822.0880, 4601.354
822.5701, 4606.862
823.0522, 4606.554
823.5343, 4608.009
824.0164, 4616.130
824.4985, 4622.197
824.9807, 4618.217
825.4628, 4612.965
825.9449, 4617.716
826.4270, 4631.329
826.9091, 4644.241
827.3912, 4651.095
827.8734, 4655.214
828.3555, 4662.405
828.8376, 4671.067
829.3197, 4672.601
829.8018, 4666.202
830.2839, 4663.863
830.7661, 4672.718
831.2482, 4685.181
831.7303, 4688.243
832.2124, 4680.005
832.6945, 4676.067
833.1766, 4678.036
833.6588, 4682.138
834.1409, 4689.384
834.6230, 4696.773
835.1051, 4702.020
835.5872, 4705.179
836.0693, 4707.389
836.5515, 4708.221
837.0336, 4709.403
837.5157, 4712.483
837.9978, 4716.039
838.4799, 4718.617
838.9620, 4720.108
839.4442, 4720.154
839.9263, 4718.564
840.4084, 4718.255
840.8905, 4724.634
841.3726, 4736.199
841.8547, 4743.512
842.3369, 4746.071
842.8190, 4750.188
843.3011, 4758.774
843.7832, 4767.665
844.2653, 4771.372
844.7474, 4770.092
845.2296, 4772.711
845.7117, 4784.806
846.1938, 4792.495
846.6759, 4788.485
847.1580, 4785.583
847.6401, 4793.775
848.1223, 4808.926
848.6044, 4821.601
849.0865, 4829.927
849.5686, 4833.347
850.0507, 4828.073
850.5328, 4820.571
851.0150, 4816.575
851.4971, 4815.972
851.9792, 4817.798
852.4613, 4821.558
852.9434, 4826.148
853.4255, 4830.174
853.9077, 4834.422
854.3898, 4842.585
854.8719, 4854.670
855.3540, 4861.601
855.8361, 4860.218
856.3182, 4859.359
856.8004, 4866.263
857.2825, 4878.157
857.7646, 4886.241
858.2467, 4889.301
858.7288, 4891.003
859.2109, 4888.554
859.6931, 4888.014
860.1752, 4895.044
860.6573, 4903.157
861.1394, 4902.087
861.6215, 4891.570
862.1036, 4887.004
862.5858, 4901.561
863.0679, 4916.604
863.5500, 4917.125
864.0321, 4911.451
864.5142, 4911.514
864.9963, 4917.907
865.4785, 4924.312
865.9606, 4927.038
866.4427, 4928.121
866.9248, 4930.099
867.4069, 4933.053
867.8890, 4938.211
868.3712, 4945.720
868.8533, 4951.757
869.3354, 4954.647
869.8175, 4955.648
870.2996, 4956.063
870.7817, 4955.861
871.2639, 4957.488
871.7459, 4960.147
872.2280, 4966.038
872.7101, 4980.791
873.1923, 4993.942
873.6744, 4996.644
874.1565, 4993.199
874.6386, 4994.937
875.1207, 5005.888
875.6028, 5015.157
876.0850, 5018.177
876.5671, 5018.879
877.0492, 5018.998
877.5313, 5019.298
878.0134, 5020.850
878.4955, 5023.745
878.9777, 5026.753
879.4598, 5028.851
879.9419, 5030.589
880.4240, 5030.571
880.9061, 5030.884
881.3882, 5042.518
881.8704, 5066.232
882.3525, 5083.877
882.8346, 5083.010
883.3167, 5073.041
883.7988, 5074.847
884.2809, 5091.169
884.7631, 5097.270
885.2452, 5086.789
885.7273, 5082.314
886.2094, 5097.438
886.6915, 5115.935
887.1736, 5117.435
887.6558, 5103.342
888.1379, 5096.244
888.6200, 5101.833
889.1021, 5107.252
889.5842, 5108.161
890.0663, 5110.231
890.5485, 5118.700
891.0306, 5130.950
891.5127, 5141.693
891.9948, 5149.579
892.4769, 5155.539
892.9590, 5161.267
893.4412, 5164.496
893.9233, 5158.933
894.4054, 5150.048
894.8875, 5150.723
895.3696, 5162.429
895.8517, 5174.833
896.3339, 5180.052
896.8160, 5181.843
897.2981, 5188.789
897.7802, 5199.978
898.2623, 5205.213
898.7444, 5202.890
899.2266, 5203.623
899.7087, 5213.649
900.1908, 5225.647
900.6729, 5228.170
901.1550, 5220.614
901.6371, 5216.735
902.1193, 5216.979
902.6014, 5220.056
903.0835, 5227.527
903.5656, 5236.052
904.0477, 5243.743
904.5298, 5250.688
905.0120, 5257.462
905.4941, 5265.620
905.9762, 5269.335
906.4583, 5262.184
906.9404, 5255.563
907.4225, 5256.213
907.9047, 5261.741
908.3868, 5270.056
908.8689, 5279.697
909.3510, 5286.408
909.8331, 5285.986
910.3152, 5284.235
910.7974, 5285.540
911.2795, 5290.368
911.7616, 5302.560
912.2437, 5319.842
912.7258, 5331.294
913.2079, 5331.707
913.6901, 5327.803
914.1722, 5328.484
914.6543, 5332.813
915.1364, 5335.098
915.6185, 5335.197
916.1006, 5336.843
916.5828, 5341.051
917.0649, 5346.928
917.5470, 5354.491
918.0291, 5362.558
918.5112, 5366.271
918.9933, 5361.734
919.4755, 5363.284
919.9576, 5376.820
920.4397, 5388.101
920.9218, 5390.842
921.4039, 5389.022
921.8860, 5384.253
922.3682, 5377.126
922.8503, 5377.663
923.3324, 5395.474
923.8145, 5409.970
924.2966, 5413.206
924.7787, 5412.916
925.2609, 5412.639
925.7430, 5414.323
926.2251, 5421.773
926.7072, 5436.287
927.1893, 5449.117
927.6714, 5451.854
928.1536, 5452.356
928.6357, 5461.040
929.1178, 5472.661
929.5999, 5475.139
930.0820, 5468.221
930.5641, 5462.847
931.0463, 5466.094
931.5284, 5473.788
932.0105, 5480.588
932.4926, 5486.229
932.9747, 5488.456
933.4568, 5487.505
933.9390, 5489.108
934.4211, 5495.514
934.9032, 5503.956
935.3853, 5511.672
935.8674, 5518.632
936.3495, 5524.446
936.8317, 5528.901
937.3138, 5533.138
937.7959, 5536.960
938.2780, 5541.305
938.7601, 5546.792
939.2422, 5553.045
939.7244, 5559.491
940.2065, 5566.125
940.6886, 5572.645
941.1707, 5580.319
941.6528, 5586.064
942.1349, 5586.745
942.6171, 5587.544
943.0992, 5593.484
943.5813, 5602.458
944.0634, 5608.801
944.5455, 5611.396
945.0276, 5611.567
945.5098, 5607.364
945.9919, 5603.548
946.4740, 5602.950
946.9561, 5604.952
947.4382, 5609.218
947.9203, 5615.137
948.4025, 5620.691
948.8846, 5624.185
949.3667, 5628.601
949.8488, 5638.441
950.3309, 5650.101
950.8130, 5658.347
951.2952, 5663.186
951.7773, 5666.032
952.2594, 5667.491
952.7415, 5668.204
953.2236, 5667.988
953.7057, 5668.457
954.1878, 5675.066
954.6699, 5686.559
955.1520, 5694.594
955.6342, 5698.042
956.1163, 5698.746
956.5984, 5697.156
957.0805, 5696.624
957.5626, 5703.189
958.0447, 5716.744
958.5269, 5726.884
959.0090, 5733.077
959.4911, 5738.614
959.9732, 5744.837
960.4553, 5748.969
960.9374, 5747.886
961.4196, 5743.693
961.9017, 5742.134
962.3838, 5742.866
962.8659, 5747.159
963.3480, 5757.353
963.8301, 5767.809
964.3123, 5777.486
964.7944, 5786.315
965.2765, 5795.848
965.7586, 5804.781
966.2407, 5806.951
966.7228, 5795.716
967.2050, 5789.698
967.6871, 5796.647
968.1692, 5805.795
968.6513, 5812.562
969.1334, 5816.956
969.6155, 5818.569
970.0977, 5818.010
970.5798, 5818.576
971.0619, 5820.939
971.5440, 5826.170
972.0261, 5838.159
972.5082, 5850.895
972.9904, 5857.547
973.4725, 5859.542
973.9546, 5861.192
974.4367, 5863.821
974.9188, 5866.128
975.4009, 5866.042
975.8831, 5866.130
976.3652, 5870.267
976.8473, 5877.014
977.3294, 5884.045
977.8115, 5890.680
978.2936, 5895.425
978.7758, 5897.604
979.2579, 5899.424
979.7400, 5904.271
980.2221, 5910.794
980.7042, 5913.147
981.1863, 5912.213
981.6685, 5915.624
982.1506, 5924.894
982.6327, 5934.597
983.1148, 5940.900
983.5969, 5947.074
984.0790, 5961.146
984.5612, 5983.242
985.0433, 5994.409
985.5254, 5992.978
986.0075, 5989.476
986.4896, 5985.153
986.9717, 5984.262
987.4539, 5991.263
987.9360, 6003.359
988.4181, 6011.788
988.9002, 6015.493
989.3823, 6018.974
989.8644, 6022.278
990.3466, 6025.190
990.8287, 6027.585
991.3108, 6029.644
991.7929, 6031.454
992.2750, 6033.089
992.7571, 6034.722
993.2393, 6032.054
993.7214, 6037.208
994.2035, 6061.252
994.6856, 6080.237
995.1677, 6080.019
995.6498, 6073.585
996.1320, 6075.140
996.6141, 6084.283
997.0962, 6092.034
997.5783, 6097.325
998.0604, 6099.994
998.5425, 6095.250
999.0247, 6092.730
999.5068, 6101.155
999.9889, 6114.184
1000.471, 6122.044
1000.953, 6123.897
1001.435, 6126.614
1001.917, 6132.755
1002.399, 6140.747
1002.882, 6151.108
1003.364, 6161.708
1003.846, 6172.022
1004.328, 6180.595
1004.810, 6184.507
1005.292, 6183.515
1005.774, 6182.145
1006.256, 6182.681
1006.739, 6184.888
1007.221, 6188.736
1007.703, 6194.030
1008.185, 6202.605
1008.667, 6212.181
1009.149, 6215.043
1009.631, 6209.200
1010.113, 6204.922
1010.595, 6212.364
1011.078, 6225.294
1011.560, 6235.662
1012.042, 6243.729
1012.524, 6250.485
1013.006, 6255.714
1013.488, 6257.052
1013.970, 6253.586
1014.452, 6250.303
1014.935, 6252.669
1015.417, 6259.435
1015.899, 6269.298
1016.381, 6281.019
1016.863, 6288.230
1017.345, 6290.254
1017.827, 6290.854
1018.309, 6291.926
1018.791, 6293.226
1019.274, 6293.741
1019.756, 6294.417
1020.238, 6300.246
1020.720, 6311.083
1021.202, 6324.796
1021.684, 6341.560
1022.166, 6349.316
1022.648, 6339.301
1023.130, 6325.628
1023.613, 6333.103
1024.095, 6359.824
1024.577, 6372.679
1025.059, 6369.785
1025.541, 6367.542
1026.023, 6368.325
1026.505, 6372.809
1026.987, 6381.855
1027.469, 6393.945
1027.952, 6406.863
1028.434, 6420.897
1028.916, 6430.067
1029.398, 6434.044
1029.880, 6433.959
1030.362, 6428.402
1030.844, 6422.444
1031.326, 6417.970
1031.809, 6417.030
1032.291, 6424.988
1032.773, 6443.812
1033.255, 6454.855
1033.737, 6453.379
1034.219, 6454.694
1034.701, 6461.883
1035.183, 6472.611
1035.666, 6489.692
1036.148, 6506.540
1036.630, 6507.021
1037.112, 6485.984
1037.594, 6477.438
1038.076, 6490.123
1038.558, 6501.163
1039.040, 6503.810
1039.522, 6506.632
1040.005, 6518.011
1040.487, 6532.451
1040.969, 6536.791
1041.451, 6527.646
1041.933, 6526.265
1042.415, 6539.099
1042.897, 6551.244
1043.379, 6561.680
1043.861, 6569.019
1044.344, 6570.646
1044.826, 6569.202
1045.308, 6570.173
1045.790, 6574.694
1046.272, 6576.398
1046.754, 6566.639
1047.236, 6565.161
1047.718, 6585.536
1048.201, 6607.249
1048.683, 6615.688
1049.165, 6615.534
1049.647, 6616.733
1050.129, 6620.542
1050.611, 6622.877
1051.093, 6618.417
1051.575, 6618.398
1052.057, 6628.771
1052.540, 6642.083
1053.022, 6654.566
1053.504, 6665.371
1053.986, 6673.219
1054.468, 6677.874
1054.950, 6683.018
1055.432, 6694.140
1055.914, 6699.806
1056.396, 6688.263
1056.879, 6677.508
1057.361, 6683.723
1057.843, 6699.271
1058.325, 6709.130
1058.807, 6711.127
1059.289, 6715.676
1059.771, 6731.711
1060.253, 6743.448
1060.736, 6742.249
1061.218, 6737.190
1061.700, 6731.590
1062.182, 6728.672
1062.664, 6733.414
1063.146, 6746.142
1063.628, 6760.460
1064.110, 6779.612
1064.593, 6792.142
1065.075, 6787.609
1065.557, 6780.383
1066.039, 6780.603
1066.521, 6786.009
1067.003, 6793.238
1067.485, 6801.062
1067.967, 6806.179
1068.449, 6805.389
1068.932, 6805.115
1069.414, 6807.250
1069.896, 6811.955
1070.378, 6821.909
1070.860, 6833.026
1071.342, 6837.942
1071.824, 6837.399
1072.306, 6841.938
1072.788, 6858.109
1073.271, 6873.553
1073.753, 6883.374
1074.235, 6889.457
1074.717, 6891.947
1075.199, 6892.317
1075.681, 6890.842
1076.163, 6888.807
1076.645, 6890.871
1077.127, 6900.345
1077.610, 6908.503
1078.092, 6908.357
1078.574, 6908.818
1079.056, 6917.317
1079.538, 6928.954
1080.020, 6938.565
1080.502, 6945.465
1080.984, 6949.399
1081.467, 6948.919
1081.949, 6952.473
1082.431, 6970.103
1082.913, 6985.679
1083.395, 6986.252
1083.877, 6981.958
1084.359, 6983.708
1084.841, 6990.479
1085.323, 6995.521
1085.806, 6996.510
1086.288, 7001.363
1086.770, 7019.443
1087.252, 7034.696
1087.734, 7035.206
1088.216, 7032.245
1088.698, 7038.218
1089.180, 7048.729
1089.662, 7050.462
1090.145, 7040.651
1090.627, 7038.415
1091.109, 7059.690
1091.591, 7078.347
1092.073, 7080.293
1092.555, 7078.146
1093.037, 7082.363
1093.519, 7089.324
1094.002, 7090.087
1094.484, 7084.220
1094.966, 7083.858
1095.448, 7097.965
1095.930, 7110.506
1096.412, 7115.888
1096.894, 7118.448
1097.376, 7118.605
1097.859, 7119.118
1098.341, 7124.083
1098.823, 7133.061
1099.305, 7140.858
1099.787, 7145.496
1100.269, 7150.521
1100.751, 7157.197
1101.233, 7163.999
1101.715, 7172.794
1102.198, 7179.379
1102.680, 7177.642
1103.162, 7169.725
1103.644, 7163.965
1104.126, 7160.760
1104.608, 7162.392
1105.090, 7172.233
1105.572, 7183.178
1106.054, 7195.710
1106.537, 7205.739
1107.019, 7207.381
1107.501, 7204.635
1107.983, 7207.438
1108.465, 7217.370
1108.947, 7227.813
1109.429, 7239.771
1109.911, 7249.887
1110.394, 7257.721
1110.876, 7263.142
1111.358, 7264.529
1111.840, 7264.138
1112.322, 7265.542
1112.804, 7268.809
1113.286, 7272.688
1113.768, 7278.966
1114.250, 7282.729
1114.733, 7278.962
1115.215, 7279.223
1115.697, 7292.597
1116.179, 7308.642
1116.661, 7314.892
1117.143, 7312.720
1117.625, 7311.783
1118.107, 7309.960
1118.589, 7315.130
1119.072, 7332.501
1119.554, 7346.496
1120.036, 7350.715
1120.518, 7352.584
1121.000, 7358.272
1121.482, 7366.661
1121.964, 7374.450
1122.446, 7381.465
1122.929, 7388.968
1123.411, 7397.790
1123.893, 7403.580
1124.375, 7403.785
1124.857, 7405.709
1125.339, 7414.346
1125.821, 7426.666
1126.303, 7437.882
1126.786, 7447.889
1127.268, 7454.668
1127.750, 7457.626
1128.232, 7462.212
1128.714, 7469.167
1129.196, 7478.002
1129.678, 7489.181
1130.160, 7497.583
1130.642, 7496.022
1131.125, 7489.056
1131.607, 7494.129
1132.089, 7510.403
1132.571, 7522.911
1133.053, 7530.834
1133.535, 7533.681
1134.017, 7531.340
1134.499, 7528.888
1134.981, 7530.097
1135.464, 7534.367
1135.946, 7540.366
1136.428, 7548.495
1136.910, 7563.112
1137.392, 7581.722
1137.874, 7590.780
1138.356, 7589.198
1138.838, 7588.060
1139.321, 7593.026
1139.803, 7602.853
1140.285, 7618.677
1140.767, 7636.162
1141.249, 7648.739
1141.731, 7656.356
1142.213, 7654.931
1142.695, 7648.487
1143.177, 7652.465
1143.660, 7670.088
1144.142, 7684.124
1144.624, 7679.624
1145.106, 7673.422
1145.588, 7686.077
1146.070, 7704.902
1146.552, 7715.048
1147.034, 7718.551
1147.516, 7719.759
1147.999, 7720.332
1148.481, 7721.897
1148.963, 7724.974
1149.445, 7729.984
1149.927, 7735.452
1150.409, 7744.846
1150.891, 7767.706
1151.373, 7790.011
1151.856, 7792.331
1152.338, 7782.589
1152.820, 7782.635
1153.302, 7796.981
1153.784, 7808.806
1154.266, 7810.573
1154.748, 7811.668
1155.230, 7812.901
1155.713, 7816.940
1156.195, 7828.758
1156.677, 7842.272
1157.159, 7849.466
1157.641, 7850.720
1158.123, 7851.806
1158.605, 7851.644
1159.087, 7855.041
1159.569, 7865.527
1160.052, 7875.302
1160.534, 7881.828
1161.016, 7887.561
1161.498, 7893.775
1161.980, 7900.780
1162.462, 7909.774
1162.944, 7921.320
1163.426, 7928.418
1163.908, 7928.622
1164.391, 7931.223
1164.873, 7937.151
1165.355, 7946.951
1165.837, 7963.006
1166.319, 7976.999
1166.801, 7977.248
1167.283, 7969.136
1167.765, 7977.265
1168.247, 8002.450
1168.730, 8017.674
1169.212, 8021.529
1169.694, 8023.822
1170.176, 8027.137
1170.658, 8032.085
1171.140, 8039.079
1171.622, 8048.185
1172.104, 8060.696
1172.587, 8074.963
1173.069, 8087.220
1173.551, 8096.280
1174.033, 8094.608
1174.515, 8084.269
1174.997, 8079.240
1175.479, 8084.728
1175.961, 8095.810
1176.443, 8109.855
1176.926, 8124.172
1177.408, 8136.149
1177.890, 8145.716
1178.372, 8153.620
1178.854, 8158.681
1179.336, 8156.859
1179.818, 8149.626
1180.300, 8144.609
1180.782, 8144.964
1181.265, 8148.004
1181.747, 8151.034
1182.229, 8157.601
1182.711, 8175.357
1183.193, 8193.025
1183.675, 8199.149
1184.157, 8197.357
1184.639, 8193.775
1185.122, 8189.894
1185.604, 8192.599
1186.086, 8212.693
1186.568, 8224.505
1187.050, 8212.128
1187.532, 8205.147
1188.014, 8220.564
1188.496, 8242.931
1188.979, 8259.239
1189.461, 8270.672
1189.943, 8280.252
1190.425, 8287.994
1190.907, 8293.518
1191.389, 8296.330
1191.871, 8297.580
1192.353, 8295.495
1192.835, 8297.962
1193.318, 8309.910
1193.800, 8325.534
1194.282, 8338.213
1194.764, 8347.996
1195.246, 8355.106
1195.728, 8359.532
1196.210, 8358.756
1196.692, 8353.143
1197.174, 8352.203
1197.657, 8358.236
1198.139, 8367.903
1198.621, 8379.200
1199.103, 8392.044
1199.585, 8410.169
1200.067, 8426.679
1200.549, 8423.571
1201.031, 8409.865
1201.514, 8403.712
1201.996, 8406.270
1202.478, 8414.934
1202.960, 8428.063
1203.442, 8441.541
1203.924, 8454.280
1204.406, 8462.866
1204.888, 8458.406
1205.370, 8455.540
1205.853, 8474.729
1206.335, 8496.464
1206.817, 8489.457
1207.299, 8465.843
1207.781, 8465.742
1208.263, 8498.800
1208.745, 8522.280
1209.227, 8519.896
1209.709, 8515.953
1210.192, 8511.157
1210.674, 8511.027
1211.156, 8521.998
1211.638, 8535.639
1212.120, 8543.497
1212.602, 8546.955
1213.084, 8550.946
1213.566, 8554.588
1214.049, 8563.839
1214.531, 8581.262
1215.013, 8593.832
1215.495, 8598.668
1215.977, 8600.586
1216.459, 8601.988
1216.941, 8602.090
1217.423, 8598.787
1217.906, 8595.339
1218.388, 8605.094
1218.870, 8624.059
1219.352, 8628.875
1219.834, 8622.264
1220.316, 8626.507
1220.798, 8644.727
1221.280, 8660.129
1221.762, 8663.538
1222.245, 8665.074
1222.727, 8675.538
1223.209, 8688.834
1223.691, 8700.354
1224.173, 8708.629
1224.655, 8711.243
1225.137, 8709.217
1225.619, 8700.928
1226.101, 8689.217
1226.584, 8690.068
1227.066, 8715.870
1227.548, 8734.344
1228.030, 8728.179
1228.512, 8720.833
1228.994, 8718.861
1229.476, 8722.818
1229.958, 8737.385
1230.441, 8755.818
1230.923, 8765.321
1231.405, 8766.299
1231.887, 8772.398
1232.369, 8786.758
1232.851, 8795.864
1233.333, 8797.150
1233.815, 8799.783
1234.297, 8806.132
1234.780, 8816.954
1235.262, 8834.189
1235.744, 8850.294
1236.226, 8850.092
1236.708, 8838.815
1237.190, 8839.123
1237.672, 8848.588
1238.154, 8858.507
1238.636, 8866.818
1239.119, 8867.438
1239.601, 8860.377
1240.083, 8858.584
1240.565, 8870.931
1241.047, 8887.966
1241.529, 8904.306
1242.011, 8917.178
1242.493, 8923.874
1242.975, 8925.771
1243.458, 8920.557
1243.940, 8913.644
1244.422, 8914.822
1244.904, 8925.719
1245.386, 8943.251
1245.868, 8978.854
1246.350, 8998.404
1246.832, 8979.042
1247.315, 8966.049
1247.797, 8977.818
1248.279, 8997.151
1248.761, 9014.201
1249.243, 9028.721
1249.725, 9039.865
1250.207, 9047.805
1250.689, 9058.807
1251.172, 9073.807
1251.654, 9077.835
1252.136, 9069.095
1252.618, 9067.484
1253.100, 9078.946
1253.582, 9096.331
1254.064, 9115.202
1254.546, 9131.778
1255.028, 9139.377
1255.510, 9141.936
1255.993, 9145.783
1256.475, 9150.635
1256.957, 9155.693
1257.439, 9161.289
1257.921, 9168.682
1258.403, 9177.817
1258.885, 9187.174
1259.367, 9196.757
1259.850, 9204.027
1260.332, 9207.734
1260.814, 9208.976
1261.296, 9203.333
1261.778, 9200.447
1262.260, 9210.155
1262.742, 9225.983
1263.224, 9236.508
1263.707, 9242.787
1264.189, 9254.525
1264.671, 9275.194
1265.153, 9289.438
1265.635, 9296.394
1266.117, 9298.269
1266.599, 9293.752
1267.081, 9297.967
1267.563, 9320.207
1268.046, 9347.212
1268.528, 9363.976
1269.010, 9372.920
1269.492, 9378.140
1269.974, 9380.904
1270.456, 9382.449
1270.938, 9384.991
1271.420, 9397.705
1271.902, 9417.260
1272.385, 9423.191
1272.867, 9407.643
1273.349, 9400.274
1273.831, 9424.936
1274.313, 9453.635
1274.795, 9475.162
1275.277, 9493.115
1275.759, 9511.995
1276.242, 9527.236
1276.724, 9531.201
1277.206, 9527.451
1277.688, 9528.639
1278.170, 9536.062
1278.652, 9535.189
1279.134, 9520.635
1279.616, 9518.046
1280.099, 9531.455
1280.581, 9551.192
1281.063, 9574.919
1281.545, 9592.243
1282.027, 9594.270
1282.509, 9589.575
1282.991, 9591.615
1283.473, 9598.341
1283.955, 9607.411
##END=



