##NAMES=Fluorcalciopyrochlore
##RRUFFID=R060288
##IDEAL CHEMISTRY=(Ca,Na)_2_(Nb^5+^,Ti^4+^)_2_O_6_F
##LOCALITY=Tatarka River, Krasnoyarskiy Kray, Siberia, Russia
##OWNER=RRUFF
##SOURCE=Herb Obodda
##DESCRIPTION=Brown fragment
##STATUS=The identification of this mineral is confirmed by single-crystal X-ray diffraction and chemical analysis.
##URL=rruff.info/R060288
##MEASURED CHEMISTRY=(Ca_0.95_Na_0.90_Sr_0.06_Ce_0.01_)_Σ1.92_(Nb_1.96_Ti_0.04_)_Σ2_O_6_F_0.91_
104.0682, 0.0000000E+00
104.5504, 9.820313
105.0325, 11.97656
105.5146, 0.5703130
105.9967, 4.6875000E-02
106.4788, 21.98828
106.9609, 38.42578
107.4431, 37.02344
107.9252, 31.64453
108.4073, 37.21875
108.8894, 29.57812
109.3715, 18.95312
109.8536, 17.31641
110.3358, 26.35547
110.8179, 28.38672
111.3000, 14.08594
111.7821, 13.30469
112.2642, 32.69922
112.7463, 31.07422
113.2285, 20.64844
113.7106, 10.67188
114.1927, 0.1210940
114.6748, 13.83594
115.1569, 31.87109
115.6390, 53.99609
116.1212, 81.37109
116.6033, 123.3320
117.0854, 166.6406
117.5675, 196.9570
118.0496, 206.1758
118.5317, 199.3242
119.0139, 199.1680
119.4960, 214.1133
119.9781, 226.7617
120.4602, 226.1836
120.9423, 221.6055
121.4244, 229.3398
121.9066, 263.5547
122.3887, 327.2500
122.8708, 379.0352
123.3529, 411.7070
123.8350, 442.4883
124.3171, 477.5000
124.7993, 517.0625
125.2814, 558.3945
125.7635, 600.0273
126.2456, 642.1523
126.7277, 678.4258
127.2098, 697.9258
127.6920, 715.8359
128.1741, 756.8984
128.6562, 831.9297
129.1383, 905.8398
129.6204, 923.0312
130.1025, 890.5664
130.5847, 871.1016
131.0668, 899.9844
131.5489, 963.9883
132.0310, 1016.621
132.5131, 1051.598
132.9952, 1067.910
133.4774, 1064.254
133.9595, 1042.398
134.4416, 1023.781
134.9237, 1029.625
135.4058, 1065.312
135.8879, 1097.223
136.3701, 1113.789
136.8522, 1128.672
137.3343, 1151.125
137.8164, 1182.348
138.2985, 1215.527
138.7806, 1252.266
139.2628, 1305.758
139.7449, 1344.094
140.2270, 1343.879
140.7091, 1333.324
141.1912, 1348.457
141.6733, 1408.656
142.1555, 1498.859
142.6376, 1567.062
143.1197, 1575.645
143.6018, 1598.672
144.0839, 1660.129
144.5660, 1735.430
145.0482, 1783.441
145.5303, 1776.453
146.0124, 1723.371
146.4945, 1694.309
146.9766, 1708.469
147.4587, 1721.336
147.9409, 1711.191
148.4230, 1682.070
148.9051, 1647.695
149.3872, 1616.973
149.8693, 1594.074
150.3514, 1576.176
150.8336, 1578.633
151.3157, 1576.797
151.7978, 1542.316
152.2799, 1470.617
152.7620, 1398.973
153.2441, 1357.398
153.7263, 1335.609
154.2084, 1320.770
154.6905, 1315.430
155.1726, 1312.898
155.6547, 1296.539
156.1368, 1256.605
156.6190, 1220.332
157.1011, 1209.012
157.5832, 1211.695
158.0653, 1208.152
158.5474, 1185.238
159.0295, 1143.703
159.5117, 1093.711
159.9938, 1014.316
160.4759, 947.6133
160.9580, 913.0234
161.4401, 904.0547
161.9222, 917.9453
162.4044, 924.3203
162.8865, 923.5391
163.3686, 914.7188
163.8507, 891.2070
164.3328, 866.8281
164.8149, 848.5977
165.2971, 836.4023
165.7792, 823.0273
166.2613, 799.7500
166.7434, 759.6562
167.2255, 730.4414
167.7076, 725.2305
168.1898, 721.0938
168.6719, 703.2344
169.1540, 668.5820
169.6361, 620.0938
170.1182, 558.7305
170.6003, 470.8086
171.0825, 410.7812
171.5646, 401.3906
172.0467, 413.2266
172.5288, 414.3281
173.0109, 395.8164
173.4930, 364.9609
173.9752, 331.0352
174.4573, 293.5352
174.9394, 257.0703
175.4215, 213.9648
175.9036, 172.8672
176.3857, 156.7500
176.8679, 182.6602
177.3500, 221.1328
177.8321, 231.8047
178.3142, 213.7930
178.7963, 189.2930
179.2784, 167.8242
179.7606, 150.3008
180.2427, 138.9180
180.7248, 135.5547
181.2069, 138.2461
181.6890, 142.1016
182.1711, 147.0430
182.6533, 159.6211
183.1354, 188.5938
183.6175, 235.9844
184.0996, 284.7891
184.5817, 332.4961
185.0638, 380.2695
185.5460, 427.1602
186.0281, 473.2227
186.5102, 521.2461
186.9923, 575.7227
187.4744, 639.0625
187.9565, 702.5117
188.4387, 765.7617
188.9208, 828.3984
189.4029, 883.5781
189.8850, 931.2930
190.3671, 983.4922
190.8492, 1069.016
191.3314, 1217.406
191.8135, 1349.871
192.2956, 1449.098
192.7777, 1537.398
193.2598, 1637.590
193.7419, 1757.590
194.2241, 1884.969
194.7062, 1989.266
195.1883, 2011.301
195.6704, 2081.676
196.1525, 2233.789
196.6346, 2425.738
197.1168, 2612.211
197.5989, 2774.344
198.0810, 2916.137
198.5631, 3047.273
199.0452, 3155.805
199.5273, 3272.004
200.0095, 3394.324
200.4916, 3528.207
200.9737, 3687.473
201.4558, 3883.023
201.9379, 4100.090
202.4200, 4304.109
202.9022, 4487.320
203.3843, 4675.609
203.8664, 4877.277
204.3485, 5090.527
204.8306, 5310.762
205.3127, 5537.645
205.7949, 5769.430
206.2770, 6002.082
206.7591, 6246.621
207.2412, 6480.477
207.7233, 6670.418
208.2054, 6823.738
208.6876, 7003.637
209.1697, 7252.785
209.6518, 7534.266
210.1339, 7784.520
210.6160, 7988.434
211.0981, 8180.609
211.5803, 8394.129
212.0624, 8629.914
212.5445, 8858.742
213.0266, 9055.992
213.5087, 9248.395
213.9908, 9468.762
214.4730, 9726.734
214.9551, 9979.258
215.4372, 10161.56
215.9193, 10258.13
216.4014, 10363.18
216.8836, 10518.38
217.3657, 10688.32
217.8478, 10856.33
218.3299, 11016.91
218.8120, 11166.27
219.2941, 11300.50
219.7763, 11423.30
220.2584, 11521.42
220.7405, 11578.46
221.2226, 11622.85
221.7047, 11676.12
222.1868, 11743.30
222.6690, 11808.28
223.1511, 11843.41
223.6332, 11836.51
224.1153, 11827.56
224.5974, 11828.33
225.0795, 11823.95
225.5617, 11801.78
226.0438, 11759.02
226.5259, 11704.53
227.0080, 11654.89
227.4901, 11621.41
227.9722, 11570.36
228.4544, 11507.86
228.9365, 11426.47
229.4186, 11315.87
229.9007, 11174.88
230.3828, 11015.37
230.8649, 10856.71
231.3471, 10692.51
231.8292, 10540.22
232.3113, 10407.48
232.7934, 10280.46
233.2755, 10150.69
233.7576, 10014.68
234.2398, 9870.180
234.7219, 9713.105
235.2040, 9533.145
235.6861, 9357.008
236.1682, 9193.855
236.6503, 9028.141
237.1325, 8843.340
237.6146, 8635.738
238.0967, 8418.250
238.5788, 8211.379
239.0609, 8029.266
239.5430, 7823.461
240.0252, 7563.219
240.5073, 7293.336
240.9894, 7065.352
241.4715, 6891.414
241.9536, 6735.016
242.4357, 6545.191
242.9179, 6311.730
243.4000, 6090.820
243.8821, 5899.340
244.3642, 5717.906
244.8463, 5525.242
245.3284, 5316.602
245.8106, 5101.941
246.2927, 4888.035
246.7748, 4673.930
247.2569, 4479.477
247.7390, 4328.891
248.2211, 4190.188
248.7033, 4021.598
249.1854, 3814.586
249.6675, 3597.988
250.1496, 3397.906
250.6317, 3212.188
251.1138, 3033.391
251.5960, 2861.023
252.0781, 2694.398
252.5602, 2531.422
253.0423, 2371.719
253.5244, 2216.938
254.0065, 2069.586
254.4887, 1928.680
254.9708, 1792.750
255.4529, 1667.242
255.9350, 1544.500
256.4171, 1410.109
256.8992, 1260.031
257.3813, 1115.203
257.8635, 987.0625
258.3456, 874.7031
258.8277, 782.8984
259.3098, 728.7500
259.7919, 685.7266
260.2740, 610.0234
260.7562, 492.6484
261.2383, 379.5547
261.7204, 300.2891
262.2025, 240.0547
262.6846, 185.6641
263.1667, 138.8984
263.6489, 89.18750
264.1310, 14.36719
264.6131, 95.78125
265.0952, 186.5781
265.5773, 213.0391
266.0594, 215.4844
266.5416, 232.9531
267.0237, 281.2969
267.5058, 331.3828
267.9879, 336.9609
268.4700, 287.3906
268.9521, 241.3672
269.4343, 218.5547
269.9164, 206.2266
270.3985, 198.2266
270.8806, 191.5859
271.3627, 182.3672
271.8448, 172.0938
272.3270, 166.3750
272.8091, 130.8828
273.2912, 36.30469
273.7733, 76.13281
274.2554, 182.2422
274.7375, 279.5469
275.2197, 380.9766
275.7018, 508.1406
276.1839, 663.3828
276.6660, 810.1484
277.1481, 929.3984
277.6302, 1046.398
278.1124, 1172.156
278.5945, 1307.836
279.0766, 1442.820
279.5587, 1564.969
280.0408, 1673.023
280.5229, 1786.406
281.0051, 1893.141
281.4872, 2018.594
281.9693, 2189.688
282.4514, 2394.352
282.9335, 2594.547
283.4156, 2751.945
283.8978, 2865.375
284.3799, 2992.023
284.8620, 3134.336
285.3441, 3288.836
285.8262, 3454.867
286.3083, 3631.312
286.7905, 3818.734
287.2726, 4019.984
287.7547, 4232.023
288.2368, 4419.422
288.7189, 4552.117
289.2010, 4695.047
289.6832, 4874.258
290.1653, 5071.281
290.6474, 5261.938
291.1295, 5431.492
291.6116, 5581.539
292.0938, 5714.688
292.5759, 5820.156
293.0580, 5921.828
293.5401, 6017.227
294.0222, 6115.227
294.5043, 6228.438
294.9865, 6363.664
295.4686, 6506.133
295.9507, 6620.414
296.4328, 6700.953
296.9149, 6759.008
297.3970, 6781.820
297.8792, 6794.164
298.3613, 6816.836
298.8434, 6856.484
299.3255, 6902.688
299.8076, 6942.250
300.2897, 6988.617
300.7719, 6993.977
301.2540, 6926.742
301.7361, 6845.969
302.2182, 6795.312
302.7003, 6778.109
303.1824, 6763.406
303.6646, 6712.750
304.1467, 6614.328
304.6288, 6519.953
305.1109, 6443.461
305.5930, 6359.086
306.0751, 6249.711
306.5573, 6119.086
307.0394, 5985.258
307.5215, 5867.602
308.0036, 5769.344
308.4857, 5643.484
308.9678, 5441.391
309.4500, 5258.695
309.9321, 5138.609
310.4142, 5059.289
310.8963, 4973.508
311.3784, 4849.047
311.8605, 4690.344
312.3427, 4534.781
312.8248, 4379.859
313.3069, 4231.594
313.7890, 4094.906
314.2711, 3964.078
314.7532, 3832.805
315.2354, 3697.555
315.7175, 3559.656
316.1996, 3423.805
316.6817, 3308.891
317.1638, 3166.539
317.6459, 2964.414
318.1281, 2750.234
318.6102, 2567.422
319.0923, 2429.320
319.5744, 2316.086
320.0565, 2194.109
320.5386, 2056.445
321.0208, 1925.766
321.5029, 1826.203
321.9850, 1712.281
322.4671, 1539.406
322.9492, 1312.664
323.4313, 1084.969
323.9135, 914.8281
324.3956, 813.3672
324.8777, 705.1797
325.3598, 582.9453
325.8419, 462.7891
326.3240, 356.9453
326.8062, 261.6875
327.2883, 167.1484
327.7704, 68.71094
328.2525, 34.60156
328.7346, 154.4922
329.2167, 326.9453
329.6989, 472.7109
330.1810, 559.9531
330.6631, 609.7109
331.1452, 652.1406
331.6273, 703.6328
332.1094, 761.1875
332.5916, 815.6172
333.0737, 880.7891
333.5558, 916.0859
334.0379, 908.1016
334.5200, 874.5547
335.0021, 832.8906
335.4843, 788.9375
335.9664, 740.3828
336.4485, 686.0547
336.9306, 628.3906
337.4127, 556.5703
337.8948, 461.5625
338.3770, 359.1953
338.8591, 256.9141
339.3412, 155.4844
339.8233, 55.96875
340.3055, 42.41406
340.7876, 138.4141
341.2697, 232.4141
341.7518, 282.2812
342.2339, 373.1328
342.7160, 574.7734
343.1982, 846.4609
343.6803, 1089.398
344.1624, 1224.188
344.6445, 1279.031
345.1266, 1398.742
345.6087, 1628.625
346.0909, 1852.406
346.5730, 2002.648
347.0551, 2135.984
347.5372, 2326.398
348.0193, 2613.844
348.5014, 2950.086
348.9836, 3257.031
349.4657, 3529.398
349.9478, 3782.891
350.4299, 3989.508
350.9120, 4199.266
351.3941, 4455.648
351.8763, 4765.188
352.3584, 5086.367
352.8405, 5369.508
353.3226, 5614.906
353.8047, 5874.562
354.2868, 6179.000
354.7690, 6473.203
355.2511, 6703.695
355.7332, 6888.062
356.2153, 7096.914
356.6974, 7403.656
357.1795, 7776.508
357.6617, 8085.945
358.1438, 8302.898
358.6259, 8507.750
359.1080, 8751.016
359.5901, 9010.094
360.0722, 9251.703
360.5544, 9459.539
361.0365, 9648.594
361.5186, 9838.188
362.0007, 10024.20
362.4828, 10233.07
362.9649, 10519.08
363.4471, 10808.14
363.9292, 11010.54
364.4113, 11103.51
364.8934, 11172.23
365.3755, 11277.32
365.8576, 11413.77
366.3398, 11556.09
366.8219, 11705.70
367.3040, 11850.88
367.7861, 11968.24
368.2682, 12062.09
368.7503, 12185.03
369.2325, 12411.57
369.7146, 12666.80
370.1967, 12809.35
370.6788, 12815.91
371.1609, 12786.09
371.6430, 12788.30
372.1252, 12814.46
372.6073, 12834.46
373.0894, 12836.52
373.5715, 12836.98
374.0536, 12857.62
374.5357, 12892.05
375.0179, 12901.10
375.5000, 12853.66
375.9821, 12778.66
376.4642, 12751.20
376.9463, 12798.48
377.4284, 12824.16
377.9106, 12779.63
378.3927, 12693.29
378.8748, 12610.06
379.3569, 12541.56
379.8390, 12485.90
380.3211, 12448.80
380.8033, 12438.71
381.2854, 12393.62
381.7675, 12289.02
382.2496, 12162.34
382.7317, 12038.99
383.2138, 11921.37
383.6960, 11803.68
384.1781, 11679.43
384.6602, 11549.59
385.1423, 11433.26
385.6244, 11350.84
386.1065, 11253.21
386.5887, 11119.68
387.0708, 10957.43
387.5529, 10779.87
388.0350, 10593.93
388.5171, 10404.56
388.9992, 10220.52
389.4814, 10049.27
389.9635, 9871.141
390.4456, 9682.625
390.9277, 9490.164
391.4098, 9302.375
391.8919, 9121.492
392.3741, 8940.945
392.8562, 8752.719
393.3383, 8554.828
393.8204, 8365.555
394.3025, 8192.797
394.7846, 8021.195
395.2668, 7841.930
395.7489, 7661.156
396.2310, 7486.188
396.7131, 7319.141
397.1952, 7166.086
397.6773, 7053.758
398.1595, 7028.008
398.6416, 6961.969
399.1237, 6809.484
399.6058, 6633.070
400.0879, 6480.523
400.5700, 6364.672
401.0522, 6275.086
401.5343, 6202.617
402.0164, 6149.758
402.4985, 6099.039
402.9806, 6045.156
403.4627, 5997.711
403.9449, 5971.406
404.4270, 5955.016
404.9091, 5919.453
405.3912, 5833.648
405.8733, 5721.195
406.3554, 5658.930
406.8376, 5662.695
407.3197, 5676.867
407.8018, 5688.750
408.2839, 5695.352
408.7660, 5689.742
409.2481, 5668.195
409.7303, 5647.922
410.2124, 5659.109
410.6945, 5697.742
411.1766, 5695.797
411.6587, 5609.969
412.1408, 5517.703
412.6230, 5496.406
413.1051, 5537.727
413.5872, 5581.172
414.0693, 5604.453
414.5514, 5613.445
415.0335, 5617.922
415.5157, 5618.891
415.9978, 5609.242
416.4799, 5574.578
416.9620, 5526.781
417.4441, 5503.047
417.9262, 5514.891
418.4084, 5536.992
418.8905, 5552.453
419.3726, 5567.195
419.8547, 5601.477
420.3368, 5667.141
420.8189, 5739.047
421.3011, 5773.219
421.7832, 5760.453
422.2653, 5754.141
422.7474, 5770.969
423.2295, 5790.078
423.7116, 5792.727
424.1938, 5778.719
424.6759, 5759.172
425.1580, 5741.562
425.6401, 5725.992
426.1222, 5716.086
426.6043, 5716.812
427.0865, 5715.578
427.5686, 5695.078
428.0507, 5674.227
428.5328, 5684.617
429.0149, 5737.430
429.4970, 5807.086
429.9792, 5849.258
430.4613, 5853.672
430.9434, 5850.523
431.4255, 5834.688
431.9076, 5817.469
432.3897, 5815.469
432.8719, 5820.094
433.3540, 5800.031
433.8361, 5723.578
434.3182, 5603.453
434.8003, 5531.625
435.2824, 5534.594
435.7646, 5550.266
436.2467, 5570.148
436.7288, 5590.117
437.2109, 5604.000
437.6930, 5609.648
438.1751, 5615.586
438.6573, 5634.516
439.1394, 5667.625
439.6215, 5693.508
440.1036, 5698.969
440.5857, 5708.000
441.0678, 5730.594
441.5500, 5768.148
442.0321, 5824.477
442.5142, 5922.844
442.9963, 6032.773
443.4784, 6098.148
443.9605, 6116.086
444.4427, 6109.484
444.9248, 6066.367
445.4069, 6017.352
445.8890, 6015.352
446.3711, 6070.750
446.8532, 6149.758
447.3354, 6246.992
447.8175, 6353.133
448.2996, 6447.984
448.7817, 6527.078
449.2638, 6595.203
449.7459, 6656.742
450.2281, 6711.203
450.7102, 6757.656
451.1923, 6783.008
451.6744, 6812.422
452.1565, 6864.320
452.6386, 6938.641
453.1208, 7029.633
453.6029, 7134.711
454.0850, 7244.719
454.5671, 7339.586
455.0492, 7391.047
455.5313, 7472.117
456.0135, 7602.680
456.4956, 7744.883
456.9777, 7872.156
457.4598, 7978.789
457.9419, 8071.805
458.4240, 8156.945
458.9062, 8236.617
459.3883, 8327.438
459.8704, 8434.797
460.3525, 8548.250
460.8346, 8662.594
461.3167, 8776.445
461.7989, 8900.680
462.2810, 9041.672
462.7631, 9171.219
463.2452, 9222.430
463.7273, 9167.359
464.2094, 9172.234
464.6916, 9327.328
465.1737, 9487.078
465.6558, 9553.039
466.1379, 9543.211
466.6200, 9539.570
467.1021, 9590.250
467.5843, 9675.156
468.0664, 9763.734
468.5485, 9859.648
469.0306, 9927.617
469.5127, 9939.680
469.9948, 9918.398
470.4770, 9908.656
470.9591, 9922.836
471.4412, 9919.977
471.9233, 9866.227
472.4054, 9783.320
472.8875, 9713.617
473.3697, 9665.992
473.8518, 9624.367
474.3339, 9580.336
474.8160, 9532.695
475.2981, 9449.562
475.7802, 9278.844
476.2624, 9128.125
476.7445, 9065.109
477.2266, 9051.094
477.7087, 9010.766
478.1908, 8912.430
478.6729, 8786.484
479.1551, 8689.711
479.6372, 8639.516
480.1193, 8574.609
480.6014, 8498.766
481.0835, 8406.094
481.5656, 8284.984
482.0478, 8144.234
482.5299, 8006.445
483.0120, 7888.695
483.4941, 7782.414
483.9762, 7661.055
484.4583, 7517.461
484.9405, 7374.781
485.4226, 7251.844
485.9047, 7122.641
486.3868, 6961.258
486.8689, 6767.305
487.3510, 6576.164
487.8332, 6409.141
488.3153, 6269.125
488.7974, 6176.523
489.2795, 6164.820
489.7616, 6119.125
490.2437, 5927.023
490.7259, 5663.820
491.2080, 5438.000
491.6901, 5281.773
492.1722, 5144.016
492.6543, 4985.930
493.1364, 4817.633
493.6186, 4676.398
494.1007, 4575.547
494.5828, 4476.844
495.0649, 4329.906
495.5470, 4128.125
496.0291, 3952.695
496.5113, 3837.016
496.9934, 3718.492
497.4755, 3555.695
497.9576, 3360.547
498.4397, 3167.336
498.9218, 2995.047
499.4040, 2826.383
499.8861, 2622.344
500.3682, 2331.641
500.8503, 2105.758
501.3324, 1987.977
501.8145, 1888.617
502.2967, 1746.250
502.7788, 1569.492
503.2609, 1404.742
503.7430, 1285.188
504.2251, 1199.117
504.7072, 1107.547
505.1894, 1019.953
505.6715, 902.1406
506.1536, 700.5078
506.6357, 494.9531
507.1178, 356.2656
507.5999, 291.1484
508.0821, 241.4844
508.5642, 169.8906
509.0463, 81.24219
509.5284, 17.57031
510.0105, 130.9062
510.4926, 229.4375
510.9748, 280.4922
511.4569, 306.2109
511.9390, 362.7109
512.4211, 475.1328
512.9032, 575.8750
513.3853, 630.1797
513.8674, 651.3047
514.3495, 651.2734
514.8317, 634.2578
515.3138, 624.2422
515.7959, 648.0234
516.2780, 709.3438
516.7601, 761.9688
517.2422, 826.0312
517.7244, 861.9844
518.2065, 832.1797
518.6886, 773.9375
519.1707, 746.4375
519.6528, 768.6406
520.1349, 802.6094
520.6171, 783.6094
521.0992, 690.4844
521.5813, 628.0000
522.0634, 633.3828
522.5455, 632.0156
523.0276, 592.3906
523.5098, 526.9531
523.9919, 461.3281
524.4740, 408.0000
524.9561, 356.8281
525.4382, 299.3984
525.9203, 235.9922
526.4025, 142.5703
526.8846, 11.15625
527.3667, 162.7422
527.8488, 233.4062
528.3309, 238.3203
528.8130, 278.9375
529.2952, 424.3984
529.7773, 587.4453
530.2594, 676.7812
530.7415, 707.4844
531.2236, 759.6094
531.7057, 873.4531
532.1879, 1013.148
532.6700, 1107.031
533.1521, 1120.148
533.6342, 1167.812
534.1163, 1273.383
534.5984, 1396.367
535.0806, 1532.656
535.5627, 1664.422
536.0448, 1747.461
536.5269, 1749.453
537.0090, 1705.094
537.4911, 1726.305
537.9733, 1854.188
538.4554, 1955.031
538.9375, 1992.000
539.4196, 2015.961
539.9017, 2053.812
540.3839, 2107.039
540.8660, 2167.992
541.3481, 2239.539
541.8302, 2311.523
542.3123, 2355.344
542.7944, 2367.484
543.2766, 2388.484
543.7587, 2441.711
544.2408, 2507.242
544.7229, 2555.031
545.2050, 2583.367
545.6871, 2614.148
546.1693, 2673.438
546.6514, 2727.945
547.1335, 2719.781
547.6156, 2659.555
548.0977, 2635.016
548.5798, 2707.617
549.0620, 2840.539
549.5441, 2910.875
550.0262, 2830.836
550.5083, 2802.164
550.9904, 2863.242
551.4725, 2945.859
551.9547, 3004.742
552.4368, 3035.531
552.9189, 3051.836
553.4010, 3063.703
553.8831, 3069.898
554.3652, 3066.523
554.8474, 3052.531
555.3295, 3034.258
555.8116, 2998.281
556.2937, 2970.148
556.7758, 2977.180
557.2579, 3018.336
557.7401, 3055.188
558.2222, 3057.758
558.7043, 3045.094
559.1864, 3052.633
559.6685, 3081.859
560.1506, 3101.250
560.6328, 3093.805
561.1149, 3069.141
561.5970, 3041.992
562.0791, 3004.281
562.5612, 2988.258
563.0433, 3017.617
563.5255, 3057.109
564.0076, 3081.516
564.4897, 3087.688
564.9718, 3074.859
565.4539, 3040.266
565.9360, 2993.969
566.4182, 2972.992
566.9003, 2995.656
567.3824, 3002.922
567.8645, 2976.359
568.3466, 2945.672
568.8287, 2945.445
569.3109, 2964.195
569.7930, 2953.344
570.2751, 2869.242
570.7572, 2746.031
571.2393, 2661.164
571.7214, 2620.656
572.2036, 2573.328
572.6857, 2491.617
573.1678, 2411.562
573.6499, 2376.438
574.1320, 2382.766
574.6141, 2388.711
575.0963, 2381.523
575.5784, 2370.633
576.0605, 2374.180
576.5426, 2386.273
577.0247, 2373.727
577.5068, 2316.953
577.9890, 2244.719
578.4711, 2218.430
578.9532, 2277.219
579.4353, 2295.438
579.9174, 2233.148
580.3995, 2169.375
580.8817, 2141.312
581.3638, 2144.234
581.8459, 2165.000
582.3280, 2198.398
582.8101, 2231.555
583.2922, 2231.266
583.7744, 2192.516
584.2565, 2204.078
584.7386, 2297.453
585.2207, 2420.805
585.7029, 2552.250
586.1850, 2677.852
586.6671, 2763.625
587.1492, 2770.156
587.6313, 2781.445
588.1135, 2869.258
588.5956, 3004.172
589.0777, 3119.602
589.5598, 3199.148
590.0419, 3264.703
590.5240, 3337.047
591.0062, 3416.172
591.4883, 3510.297
591.9704, 3650.602
592.4525, 3767.234
592.9346, 3823.016
593.4167, 3856.828
593.8989, 3906.789
594.3810, 3984.750
594.8631, 4088.438
595.3452, 4224.078
595.8273, 4388.047
596.3094, 4531.945
596.7916, 4644.758
597.2737, 4764.156
597.7558, 4931.773
598.2379, 5101.414
598.7200, 5214.711
599.2021, 5259.328
599.6843, 5307.234
600.1664, 5401.523
600.6485, 5516.797
601.1306, 5614.094
601.6127, 5692.617
602.0948, 5776.695
602.5770, 5879.625
603.0591, 5998.039
603.5412, 6123.695
604.0233, 6267.359
604.5054, 6399.320
604.9875, 6516.797
605.4697, 6624.984
605.9518, 6726.086
606.4339, 6821.039
606.9160, 6912.016
607.3981, 7001.180
607.8802, 7084.242
608.3624, 7147.914
608.8445, 7188.828
609.3266, 7242.031
609.8087, 7316.625
610.2908, 7401.688
610.7729, 7502.086
611.2551, 7607.227
611.7372, 7683.430
612.2193, 7711.094
612.7014, 7721.070
613.1835, 7726.648
613.6656, 7731.891
614.1478, 7744.461
614.6299, 7766.531
615.1120, 7800.172
615.5941, 7851.984
616.0762, 7921.539
616.5583, 7960.609
617.0405, 7941.422
617.5226, 7924.719
618.0047, 7932.539
618.4868, 7938.914
618.9689, 7911.125
619.4510, 7849.523
619.9332, 7791.562
620.4153, 7779.633
620.8974, 7794.484
621.3795, 7757.945
621.8616, 7656.969
622.3438, 7580.156
622.8259, 7577.234
623.3080, 7601.375
623.7901, 7590.109
624.2722, 7542.102
624.7543, 7493.641
625.2365, 7469.422
625.7186, 7435.188
626.2007, 7352.508
626.6828, 7236.219
627.1649, 7131.922
627.6470, 7057.445
628.1292, 7002.102
628.6113, 6947.578
629.0934, 6891.461
629.5755, 6840.086
630.0576, 6816.922
630.5397, 6771.117
631.0219, 6668.367
631.5040, 6540.789
631.9861, 6432.148
632.4682, 6355.047
632.9503, 6287.398
633.4324, 6210.070
633.9146, 6126.344
634.3967, 6057.664
634.8788, 6011.508
635.3609, 5930.688
635.8430, 5763.078
636.3251, 5549.102
636.8073, 5415.406
637.2894, 5398.109
637.7715, 5358.539
638.2536, 5262.422
638.7357, 5148.711
639.2178, 5041.047
639.7000, 4938.625
640.1821, 4835.680
640.6642, 4729.438
641.1463, 4623.352
641.6284, 4521.281
642.1105, 4425.398
642.5927, 4318.711
643.0748, 4194.578
643.5569, 4069.641
644.0390, 3950.164
644.5211, 3838.422
645.0032, 3737.188
645.4854, 3650.703
645.9675, 3555.125
646.4496, 3426.250
646.9317, 3282.734
647.4138, 3153.570
647.8959, 3041.945
648.3781, 2949.289
648.8602, 2883.500
649.3423, 2835.391
649.8244, 2766.648
650.3065, 2648.477
650.7886, 2546.078
651.2708, 2472.422
651.7529, 2409.203
652.2350, 2351.625
652.7171, 2291.789
653.1992, 2216.312
653.6813, 2115.383
654.1635, 2004.039
654.6456, 1897.742
655.1277, 1795.570
655.6098, 1707.125
656.0919, 1634.523
656.5740, 1573.641
657.0562, 1526.863
657.5383, 1492.305
658.0204, 1452.504
658.5025, 1397.438
658.9846, 1349.715
659.4667, 1328.453
659.9489, 1313.312
660.4310, 1282.336
660.9131, 1231.715
661.3952, 1171.934
661.8773, 1107.637
662.3594, 1039.688
662.8416, 962.6445
663.3237, 865.5859
663.8058, 798.0938
664.2879, 791.7930
664.7700, 792.2578
665.2521, 753.8945
665.7343, 689.4219
666.2164, 643.5352
666.6985, 639.2188
667.1806, 641.9336
667.6627, 629.6406
668.1448, 605.7148
668.6270, 576.2734
669.1091, 544.0625
669.5912, 505.2969
670.0733, 453.5234
670.5554, 395.1680
671.0375, 372.6133
671.5197, 414.4922
672.0018, 447.4336
672.4839, 482.1719
672.9660, 491.3984
673.4481, 433.6836
673.9302, 331.4258
674.4124, 257.3438
674.8945, 259.3320
675.3766, 291.5859
675.8587, 302.4648
676.3408, 293.9570
676.8229, 272.9414
677.3051, 238.6289
677.7872, 205.4453
678.2693, 181.6562
678.7514, 168.5820
679.2335, 182.6406
679.7156, 269.8906
680.1978, 319.8516
680.6799, 288.4883
681.1620, 234.7500
681.6441, 209.2266
682.1262, 209.5234
682.6083, 206.3125
683.0905, 177.7188
683.5726, 140.5781
684.0547, 130.1289
684.5368, 146.5938
685.0189, 144.4648
685.5010, 106.7695
685.9832, 68.81250
686.4653, 64.55078
686.9474, 86.83594
687.4295, 101.2266
687.9116, 112.0781
688.3937, 108.0234
688.8759, 66.65234
689.3580, 22.23828
689.8401, 16.43750
690.3222, 45.23828
690.8043, 72.96094
691.2864, 75.25781
691.7686, 63.75000
692.2507, 71.09766
692.7328, 104.5000
693.2149, 109.9883
693.6970, 62.01953
694.1791, 12.59375
694.6613, 8.117188
695.1434, 27.63281
695.6255, 19.18750
696.1076, 46.62891
696.5897, 95.91016
697.0718, 78.96484
697.5540, 37.77344
698.0361, 24.01562
698.5182, 38.48828
699.0003, 51.06641
699.4824, 42.31641
699.9645, 23.91406
700.4467, 22.66406
700.9288, 40.01562
701.4109, 67.91016
701.8930, 123.1719
702.3751, 167.2734
702.8572, 169.1719
703.3394, 150.3047
703.8215, 148.4180
704.3036, 174.3945
704.7857, 200.0273
705.2678, 205.2031
705.7499, 201.0664
706.2321, 206.4609
706.7142, 218.6484
707.1963, 212.8906
707.6784, 175.4102
708.1605, 125.0312
708.6426, 101.1406
709.1248, 112.5156
709.6069, 117.9844
710.0890, 106.8711
710.5711, 103.7578
711.0532, 127.9844
711.5353, 159.8320
712.0175, 173.3047
712.4996, 163.9141
712.9817, 145.2070
713.4638, 120.3359
713.9459, 95.01562
714.4280, 77.99609
714.9102, 67.99609
715.3923, 57.14453
715.8744, 41.22656
716.3565, 23.94922
716.8386, 13.12109
717.3207, 11.40625
717.8029, 5.675781
718.2850, 62.30859
718.7671, 105.3750
719.2492, 115.8633
719.7313, 110.8438
720.2134, 102.2617
720.6956, 95.30078
721.1777, 100.6055
721.6598, 131.7578
722.1419, 171.5820
722.6240, 200.7266
723.1061, 220.5117
723.5883, 233.7109
724.0704, 240.9922
724.5525, 255.9141
725.0346, 290.2969
725.5167, 339.8789
725.9988, 375.8867
726.4810, 387.9297
726.9631, 408.4609
727.4452, 455.4141
727.9273, 496.3555
728.4094, 503.4062
728.8915, 484.0430
729.3737, 467.0000
729.8558, 458.3906
730.3379, 467.8477
730.8200, 522.8320
731.3021, 602.8828
731.7842, 646.9180
732.2664, 645.0820
732.7485, 636.4258
733.2306, 652.4336
733.7127, 682.3945
734.1948, 681.4102
734.6769, 598.3750
735.1591, 579.9883
735.6412, 686.4844
736.1233, 795.6562
736.6054, 847.4531
737.0875, 857.1914
737.5696, 855.9727
738.0518, 850.2695
738.5339, 852.6172
739.0160, 883.5117
739.4981, 924.6914
739.9802, 939.6289
740.4623, 927.9453
740.9445, 909.2773
741.4266, 890.7070
741.9087, 884.6367
742.3908, 919.5195
742.8729, 1015.004
743.3550, 1063.312
743.8372, 1006.000
744.3193, 971.5977
744.8014, 1026.777
745.2835, 1103.078
745.7656, 1119.738
746.2477, 1068.305
746.7299, 1013.938
747.2120, 983.8828
747.6941, 975.4805
748.1762, 997.7305
748.6583, 1040.285
749.1404, 1074.766
749.6226, 1093.234
750.1047, 1096.066
750.5868, 1079.977
751.0689, 1048.277
751.5510, 1036.414
752.0331, 1057.195
752.5153, 1074.066
752.9974, 1092.047
753.4795, 1094.535
753.9616, 1055.297
754.4437, 988.0977
754.9258, 941.3281
755.4080, 933.4141
755.8901, 939.6367
756.3722, 953.2500
756.8543, 964.8633
757.3364, 959.2109
757.8185, 937.5469
758.3007, 911.6289
758.7828, 888.0117
759.2649, 864.1016
759.7470, 831.6758
760.2291, 786.1367
760.7112, 763.1797
761.1934, 787.6289
761.6755, 798.8047
762.1576, 750.1367
762.6397, 678.7695
763.1218, 633.6172
763.6039, 621.2266
764.0861, 612.8711
764.5682, 604.4297
765.0503, 592.0742
765.5324, 575.1562
766.0145, 553.6992
766.4966, 521.4297
766.9788, 476.5742
767.4609, 433.1719
767.9430, 408.9141
768.4251, 397.2383
768.9072, 360.0508
769.3893, 288.4453
769.8715, 237.9453
770.3536, 231.7500
770.8357, 240.1953
771.3178, 239.9219
771.7999, 231.5586
772.2820, 216.9961
772.7642, 193.5938
773.2463, 166.4492
773.7284, 132.0352
774.2105, 98.41406
774.6926, 73.43359
775.1747, 55.39453
775.6569, 38.42188
776.1390, 20.26172
776.6211, 7.394531
777.1032, 18.13672
777.5853, 45.47266
778.0674, 45.45703
778.5496, 11.67188
779.0317, 17.72656
779.5138, 23.29688
779.9959, 14.16016
780.4780, 5.027344
780.9601, 6.757813
781.4423, 7.000000
781.9244, 27.41797
782.4065, 45.21484
782.8886, 8.136719
783.3707, 40.67578
783.8528, 45.99219
784.3350, 7.511719
784.8171, 20.35547
785.2992, 4.203125
785.7813, 47.04297
786.2634, 62.18359
786.7455, 56.77344
787.2277, 55.65625
787.7098, 63.95312
788.1919, 77.05469
788.6740, 93.26172
789.1561, 109.9336
789.6382, 115.2070
790.1204, 100.3984
790.6025, 94.08203
791.0846, 112.2891
791.5667, 123.6641
792.0488, 104.1914
792.5309, 72.02344
793.0131, 56.87109
793.4952, 65.61328
793.9773, 85.36719
794.4594, 114.6836
794.9415, 147.6523
795.4236, 187.1602
795.9058, 224.8516
796.3879, 239.4648
796.8700, 226.2852
797.3521, 205.8242
797.8342, 198.1367
798.3163, 200.9531
798.7985, 203.5469
799.2806, 204.6484
799.7627, 213.9453
800.2448, 242.6992
800.7269, 265.5078
801.2090, 249.8828
801.6912, 205.8672
802.1733, 193.3086
802.6554, 245.5391
803.1375, 277.7109
803.6196, 249.0742
804.1017, 217.1328
804.5839, 217.1680
805.0660, 248.6758
805.5481, 310.7539
806.0302, 404.0781
806.5123, 488.3438
806.9944, 516.8906
807.4766, 508.4062
807.9587, 504.7930
808.4408, 507.4375
808.9229, 514.4141
809.4050, 526.4961
809.8871, 533.7930
810.3693, 521.7109
810.8514, 490.9375
811.3335, 477.7109
811.8156, 486.1367
812.2977, 505.3320
812.7798, 539.9688
813.2620, 578.6719
813.7441, 617.5625
814.2262, 653.8125
814.7083, 678.2305
815.1904, 675.9180
815.6725, 691.6406
816.1547, 786.8555
816.6368, 888.4453
817.1189, 898.0469
817.6010, 835.6484
818.0831, 782.5742
818.5652, 773.8633
819.0474, 787.3242
819.5295, 795.2812
820.0116, 798.2852
820.4937, 809.4844
820.9758, 833.4375
821.4579, 835.6016
821.9401, 790.9922
822.4222, 744.8164
822.9043, 751.8477
823.3864, 809.2734
823.8685, 842.3672
824.3506, 838.9336
824.8328, 829.1367
825.3149, 821.0312
825.7970, 805.4219
826.2791, 764.1094
826.7612, 711.8867
827.2433, 685.6445
827.7255, 701.9531
828.2076, 723.4922
828.6897, 724.7539
829.1718, 707.3398
829.6539, 660.9766
830.1360, 595.4609
830.6182, 558.9375
831.1003, 569.7773
831.5824, 586.8945
832.0645, 558.2109
832.5466, 488.7539
833.0287, 439.4609
833.5109, 413.2891
833.9930, 398.0156
834.4751, 401.5547
834.9572, 403.6133
835.4393, 376.0312
835.9214, 331.6680
836.4036, 314.3320
836.8857, 350.9102
837.3678, 366.4805
837.8499, 335.5742
838.3320, 285.3164
838.8141, 215.6562
839.2963, 146.7734
839.7784, 115.9297
840.2605, 134.3789
840.7426, 162.0938
841.2247, 163.4688
841.7068, 144.5352
842.1890, 112.0820
842.6711, 70.22266
843.1532, 43.12109
843.6353, 36.58203
844.1174, 46.98438
844.5995, 74.35938
845.0817, 112.7148
845.5638, 131.3438
846.0459, 117.6016
846.5280, 120.6211
847.0101, 158.9414
847.4922, 193.2969
847.9744, 201.4023
848.4565, 193.4727
848.9386, 182.4180
849.4207, 167.0977
849.9028, 163.1836
850.3849, 179.4062
850.8671, 203.4648
851.3492, 242.4922
851.8313, 277.7070
852.3134, 279.0234
852.7955, 247.2734
853.2776, 215.6445
853.7598, 205.9844
854.2419, 208.3672
854.7240, 201.9297
855.2061, 194.2656
855.6882, 222.6250
856.1703, 290.5273
856.6525, 353.7578
857.1346, 387.1914
857.6167, 397.7930
858.0988, 391.1953
858.5809, 357.4023
859.0630, 376.2969
859.5452, 497.8555
860.0273, 582.9375
860.5094, 564.8711
860.9915, 512.3867
861.4736, 473.7695
861.9557, 452.2773
862.4379, 459.3242
862.9200, 525.3477
863.4021, 581.7344
863.8842, 601.7773
864.3663, 604.3086
864.8484, 596.6211
865.3306, 587.3242
865.8127, 587.6992
866.2948, 601.5117
866.7769, 637.3867
867.2590, 720.3125
867.7411, 823.2188
868.2233, 886.2422
868.7054, 913.4609
869.1875, 931.8242
869.6696, 948.9883
870.1517, 973.1875
870.6339, 1013.531
871.1160, 1065.090
871.5981, 1104.047
872.0802, 1124.418
872.5623, 1160.168
873.0444, 1222.508
873.5266, 1285.492
874.0087, 1331.621
874.4908, 1370.457
874.9729, 1420.223
875.4550, 1485.324
875.9371, 1543.391
876.4193, 1580.680
876.9014, 1622.688
877.3835, 1692.430
877.8656, 1762.250
878.3477, 1791.031
878.8298, 1787.367
879.3120, 1804.180
879.7941, 1869.562
880.2762, 1951.898
880.7583, 2030.457
881.2404, 2102.461
881.7225, 2157.609
882.2047, 2198.734
882.6868, 2241.922
883.1689, 2293.812
883.6510, 2342.941
884.1331, 2373.641
884.6152, 2388.922
885.0974, 2415.027
885.5795, 2452.566
886.0616, 2495.176
886.5437, 2551.895
887.0258, 2585.695
887.5079, 2553.895
887.9901, 2478.184
888.4722, 2445.484
888.9543, 2477.355
889.4364, 2514.129
889.9185, 2579.484
890.4006, 2619.578
890.8828, 2592.258
891.3649, 2542.074
891.8470, 2522.730
892.3291, 2539.793
892.8112, 2567.555
893.2933, 2594.070
893.7755, 2627.438
894.2576, 2702.184
894.7397, 2771.754
895.2218, 2765.668
895.7039, 2695.355
896.1860, 2620.504
896.6682, 2569.230
897.1503, 2539.391
897.6324, 2538.188
898.1145, 2554.773
898.5966, 2559.074
899.0787, 2550.254
899.5609, 2535.996
900.0430, 2518.559
900.5251, 2494.367
901.0072, 2456.379
901.4893, 2412.066
901.9714, 2404.367
902.4536, 2454.273
902.9357, 2460.238
903.4178, 2394.090
903.8999, 2317.645
904.3820, 2253.605
904.8641, 2205.113
905.3463, 2184.207
905.8284, 2196.250
906.3105, 2187.672
906.7926, 2157.852
907.2747, 2104.391
907.7568, 1993.793
908.2390, 1886.355
908.7211, 1846.906
909.2032, 1858.031
909.6853, 1852.891
910.1674, 1803.410
910.6495, 1752.434
911.1317, 1729.109
911.6138, 1718.055
912.0959, 1714.512
912.5780, 1705.738
913.0601, 1657.059
913.5422, 1564.629
914.0244, 1473.855
914.5065, 1423.383
914.9886, 1400.273
915.4707, 1384.191
915.9528, 1372.242
916.4349, 1347.934
916.9171, 1308.195
917.3992, 1273.527
917.8813, 1256.602
918.3634, 1242.406
918.8455, 1207.258
919.3276, 1150.684
919.8098, 1080.586
920.2919, 980.2305
920.7740, 914.8555
921.2561, 933.6328
921.7382, 949.4492
922.2203, 880.9570
922.7025, 750.4375
923.1846, 647.0156
923.6667, 579.1016
924.1488, 522.4297
924.6309, 487.0547
925.1130, 448.7812
925.5952, 394.4023
926.0773, 333.1875
926.5594, 271.4219
927.0415, 211.9688
927.5236, 167.4727
928.0057, 154.6094
928.4879, 141.8125
928.9700, 105.5898
929.4521, 59.89844
929.9342, 14.18750
930.4163, 25.05078
930.8984, 40.29688
931.3806, 26.58594
931.8627, 14.94922
932.3448, 38.15625
932.8269, 82.68359
933.3090, 124.1484
933.7911, 162.6680
934.2733, 199.7578
934.7554, 235.3789
935.2375, 271.2617
935.7196, 311.8711
936.2017, 341.3281
936.6838, 314.4688
937.1660, 225.4414
937.6481, 189.3242
938.1302, 215.0977
938.6123, 255.5352
939.0944, 303.7070
939.5765, 343.5039
940.0587, 354.5039
940.5408, 340.6445
941.0229, 340.7148
941.5050, 371.2070
941.9871, 385.3438
942.4692, 378.2930
942.9514, 359.9258
943.4335, 327.0391
943.9156, 289.8672
944.3977, 260.5273
944.8798, 240.0977
945.3619, 223.9609
945.8441, 216.0391
946.3262, 208.6094
946.8083, 207.0781
947.2904, 197.9141
947.7725, 157.1680
948.2546, 101.0078
948.7368, 67.25000
949.2189, 66.52344
949.7010, 71.83594
950.1831, 81.13672
950.6652, 70.62109
951.1473, 8.496094
951.6295, 115.5273
952.1116, 171.0039
952.5937, 172.4336
953.0758, 170.0352
953.5579, 193.0703
954.0400, 228.6250
954.5222, 257.5469
955.0043, 285.1406
955.4864, 331.9922
955.9685, 395.4141
956.4506, 461.1562
956.9327, 524.4453
957.4149, 575.1406
957.8970, 602.4688
958.3791, 616.8203
958.8612, 652.2656
959.3433, 707.6094
959.8254, 790.6797
960.3076, 911.5547
960.7897, 1017.602
961.2718, 1082.453
961.7539, 1126.312
962.2360, 1167.781
962.7181, 1209.062
963.2003, 1281.086
963.6824, 1415.953
964.1645, 1515.203
964.6466, 1531.523
965.1287, 1558.828
965.6108, 1660.859
966.0930, 1797.750
966.5751, 1918.258
967.0572, 2022.688
967.5393, 2091.156
968.0214, 2064.445
968.5035, 2075.812
968.9857, 2191.289
969.4678, 2331.852
969.9499, 2440.812
970.4320, 2526.562
970.9141, 2626.055
971.3962, 2748.500
971.8784, 2861.445
972.3605, 2939.859
972.8426, 3010.836
973.3247, 3093.422
973.8068, 3178.336
974.2889, 3259.492
974.7711, 3332.273
975.2532, 3390.281
975.7353, 3429.219
976.2174, 3463.469
976.6995, 3507.852
977.1816, 3554.203
977.6638, 3587.414
978.1459, 3613.969
978.6280, 3646.820
979.1101, 3692.086
979.5922, 3757.430
980.0743, 3852.906
980.5565, 3944.195
981.0386, 3957.008
981.5207, 3918.773
982.0028, 3932.000
982.4849, 3995.094
982.9670, 4042.180
983.4492, 4050.047
983.9313, 4062.148
984.4134, 4125.242
984.8955, 4216.195
985.3776, 4261.891
985.8597, 4261.039
986.3419, 4245.367
986.8240, 4214.242
987.3061, 4180.656
987.7882, 4143.500
988.2703, 4129.859
988.7524, 4184.195
989.2346, 4297.914
989.7167, 4351.070
990.1988, 4323.672
990.6809, 4293.922
991.1630, 4280.938
991.6451, 4242.328
992.1273, 4132.672
992.6094, 4008.734
993.0915, 3962.586
993.5736, 3998.625
994.0557, 4008.898
994.5378, 3992.766
995.0200, 3959.758
995.5021, 3868.977
995.9842, 3796.117
996.4663, 3806.914
996.9484, 3852.094
997.4305, 3851.992
997.9127, 3799.047
998.3948, 3739.227
998.8769, 3654.773
999.3590, 3593.648
999.8411, 3596.273
1000.323, 3608.867
1000.805, 3601.797
1001.287, 3569.016
1001.770, 3487.625
1002.252, 3347.805
1002.734, 3240.094
1003.216, 3238.875
1003.698, 3236.219
1004.180, 3144.945
1004.662, 3037.344
1005.144, 3001.047
1005.627, 3020.672
1006.109, 3027.992
1006.591, 2998.469
1007.073, 2952.461
1007.555, 2880.023
1008.037, 2820.875
1008.519, 2836.266
1009.001, 2879.930
1009.483, 2868.172
1009.966, 2803.289
1010.448, 2737.523
1010.930, 2693.258
1011.412, 2671.633
1011.894, 2697.023
1012.376, 2727.484
1012.858, 2685.445
1013.340, 2598.492
1013.823, 2539.438
1014.305, 2519.328
1014.787, 2516.969
1015.269, 2519.969
1015.751, 2527.266
1016.233, 2539.008
1016.715, 2550.820
1017.197, 2545.500
1017.679, 2527.656
1018.162, 2531.070
1018.644, 2560.133
1019.126, 2580.188
1019.608, 2565.117
1020.090, 2545.156
1020.572, 2583.469
1021.054, 2667.203
1021.536, 2713.000
1022.018, 2720.680
1022.501, 2727.586
1022.983, 2744.141
1023.465, 2770.797
1023.947, 2806.023
1024.429, 2860.523
1024.911, 2979.492
1025.393, 3166.383
1025.875, 3231.641
1026.358, 3155.266
1026.840, 3134.766
1027.322, 3237.367
1027.804, 3326.477
1028.286, 3285.961
1028.768, 3179.961
1029.250, 3176.938
1029.732, 3294.695
1030.214, 3359.922
1030.697, 3349.805
1031.179, 3366.078
1031.661, 3445.883
1032.143, 3537.883
1032.625, 3599.453
1033.107, 3646.773
1033.589, 3731.406
1034.071, 3878.094
1034.553, 3940.438
1035.036, 3840.445
1035.518, 3834.039
1036.000, 4047.164
1036.482, 4284.375
1036.964, 4382.133
1037.446, 4391.820
1037.928, 4463.203
1038.410, 4635.680
1038.893, 4732.930
1039.375, 4697.938
1039.857, 4680.094
1040.339, 4721.531
1040.821, 4786.695
1041.303, 4844.352
1041.785, 4905.398
1042.267, 4993.047
1042.750, 5107.156
1043.232, 5245.305
1043.714, 5414.352
1044.196, 5594.953
1044.678, 5833.430
1045.160, 6030.664
1045.642, 6071.562
1046.124, 6019.766
1046.606, 6038.773
1047.089, 6157.547
1047.571, 6258.070
1048.053, 6269.359
1048.535, 6334.305
1049.017, 6562.031
1049.499, 6793.156
1049.981, 6887.500
1050.463, 6896.953
1050.945, 6951.750
1051.428, 7079.961
1051.910, 7172.469
1052.392, 7182.141
1052.874, 7188.531
1053.356, 7195.172
1053.838, 7230.305
1054.320, 7356.617
1054.802, 7512.961
1055.285, 7559.461
1055.767, 7460.680
1056.249, 7428.586
1056.731, 7577.914
1057.213, 7720.945
1057.695, 7782.586
1058.177, 7817.984
1058.659, 7856.484
1059.141, 7907.633
1059.624, 7982.992
1060.106, 8082.555
1060.588, 8200.430
1061.070, 8380.500
1061.552, 8521.453
1062.034, 8549.555
1062.516, 8559.516
1062.998, 8607.484
1063.480, 8686.102
1063.963, 8782.812
1064.445, 8892.594
1064.927, 8971.641
1065.409, 8965.641
1065.891, 8976.930
1066.373, 9055.961
1066.855, 9162.227
1067.337, 9282.250
1067.820, 9396.172
1068.302, 9483.062
1068.784, 9536.547
1069.266, 9562.836
1069.748, 9529.109
1070.230, 9522.406
1070.712, 9589.617
1071.194, 9691.922
1071.677, 9842.523
1072.159, 9992.594
1072.641, 10055.39
1073.123, 10037.36
1073.605, 10046.98
1074.087, 10136.19
1074.569, 10249.95
1075.051, 10372.25
1075.533, 10492.63
1076.016, 10634.82
1076.498, 10732.84
1076.980, 10702.60
1077.462, 10566.23
1077.944, 10431.06
1078.426, 10329.33
1078.908, 10257.05
1079.390, 10229.50
1079.873, 10214.38
1080.355, 10209.69
1080.837, 10186.98
1081.319, 10101.88
1081.801, 9972.062
1082.283, 9848.406
1082.765, 9745.844
1083.247, 9650.172
1083.729, 9541.141
1084.212, 9450.000
1084.694, 9446.188
1085.176, 9430.891
1085.658, 9272.516
1086.140, 9023.234
1086.622, 8823.578
1087.104, 8709.516
1087.586, 8627.125
1088.068, 8611.344
1088.551, 8548.328
1089.033, 8330.219
1089.515, 8087.969
1089.997, 7963.844
1090.479, 7892.547
1090.961, 7718.156
1091.443, 7421.609
1091.925, 7167.312
1092.408, 7068.797
1092.890, 6951.391
1093.372, 6735.688
1093.854, 6490.031
1094.336, 6243.969
1094.818, 6013.500
1095.300, 5818.719
1095.782, 5660.625
1096.265, 5525.531
1096.747, 5433.844
1097.229, 5320.453
1097.711, 5145.719
1098.193, 4964.797
1098.675, 4796.219
1099.157, 4648.344
1099.639, 4547.516
1100.121, 4477.391
1100.604, 4361.281
1101.086, 4158.344
1101.568, 3988.406
1102.050, 3895.422
1102.532, 3823.016
1103.014, 3783.453
1103.496, 3724.094
1103.978, 3587.984
1104.460, 3396.047
1104.943, 3207.766
1105.425, 3022.016
1105.907, 2880.750
1106.389, 2816.438
1106.871, 2772.234
1107.353, 2762.438
1107.835, 2734.391
1108.317, 2642.047
1108.800, 2510.359
1109.282, 2366.422
1109.764, 2211.594
1110.246, 2091.609
1110.728, 2053.781
1111.210, 1995.922
1111.692, 1918.250
1112.174, 1805.094
1112.656, 1611.516
1113.139, 1409.156
1113.621, 1301.297
1114.103, 1275.438
1114.585, 1193.906
1115.067, 1011.000
1115.549, 845.0938
1116.031, 675.3125
1116.513, 551.6719
1116.995, 517.2812
1117.478, 507.3594
1117.960, 487.8594
1118.442, 443.7969
1118.924, 328.2969
1119.406, 91.54688
1119.888, 8.343750
1120.370, 133.2344
1120.852, 183.7812
1121.335, 2.640625
1121.817, 161.2500
1122.299, 129.1562
1122.781, 6.875000
1123.263, 3.578125
1123.745, 103.1250
1124.227, 113.4062
1124.709, 26.67188
1125.192, 47.04688
1125.674, 133.6562
1126.156, 303.5469
1126.638, 366.4219
1127.120, 376.5469
1127.602, 392.2969
1128.084, 415.7188
1128.566, 449.6719
1129.048, 489.0000
1129.531, 597.1094
1130.013, 792.1562
1130.495, 880.6719
1130.977, 786.8125
1131.459, 697.0469
1131.941, 781.8906
1132.423, 940.1094
1132.905, 944.2656
1133.387, 807.1406
1133.870, 430.9688
1134.352, 105.9688
1134.834, 196.0156
1135.316, 479.7031
1135.798, 732.4219
1136.280, 944.9062
1136.762, 1137.359
1137.244, 1323.703
1137.727, 1535.047
1138.209, 1904.812
1138.691, 2382.859
1139.173, 2741.719
1139.655, 2982.688
1140.137, 3251.656
1140.619, 3598.859
1141.101, 3982.125
1141.583, 4385.438
1142.066, 4751.344
1142.548, 4939.266
1143.030, 5038.672
1143.512, 5232.438
1143.994, 5498.516
1144.476, 5760.922
1144.958, 6000.406
1145.440, 6216.328
1145.922, 6411.422
1146.405, 6617.047
1146.887, 6884.828
1147.369, 7163.266
1147.851, 7414.609
1148.333, 7617.516
1148.815, 7680.344
1149.297, 7677.906
1149.779, 7814.953
1150.262, 8122.344
1150.744, 8383.359
1151.226, 8435.078
1151.708, 8463.359
1152.190, 8565.281
1152.672, 8694.641
1153.154, 8842.750
1153.636, 8976.672
1154.119, 9075.594
1154.601, 9147.750
1155.083, 9196.359
1155.565, 9194.203
1156.047, 9217.375
1156.529, 9219.797
1157.011, 9235.250
1157.493, 9267.422
1157.975, 9303.484
1158.458, 9320.219
1158.940, 9262.656
1159.422, 9248.094
1159.904, 9285.906
1160.386, 9151.406
1160.868, 8639.625
1161.350, 8212.875
1161.832, 7844.906
1162.314, 7556.875
1162.797, 7626.031
1163.279, 7766.312
1163.761, 7577.000
1164.243, 7134.344
1164.725, 6871.594
1165.207, 6870.438
1165.689, 6832.250
1166.171, 6755.750
1166.654, 6682.031
1167.136, 6605.531
1167.618, 6489.438
1168.100, 6291.938
1168.582, 6091.469
1169.064, 6033.469
1169.546, 6095.938
1170.028, 6015.000
1170.510, 5783.125
1170.993, 5522.781
1171.475, 5241.094
1171.957, 5060.906
1172.439, 5045.656
1172.921, 5076.688
1173.403, 5061.844
1173.885, 4981.094
1174.367, 4769.812
1174.849, 4469.656
1175.332, 4220.656
1175.814, 4006.969
1176.296, 3667.438
1176.778, 3225.531
1177.260, 2902.125
1177.742, 2771.750
1178.224, 2685.094
1178.706, 2541.188
1179.189, 2376.531
1179.671, 2245.969
1180.153, 2118.906
1180.635, 1931.906
1181.117, 1717.750
1181.599, 1593.969
1182.081, 1576.531
1182.563, 1488.156
1183.046, 1183.938
1183.528, 889.3438
1184.010, 709.2188
1184.492, 571.1875
1184.974, 468.0938
1185.456, 390.5000
1185.938, 363.5312
1186.420, 355.0938
1186.902, 336.5625
1187.385, 237.0625
1187.867, 126.6875
1188.349, 4.062500
1188.831, 32.21875
1189.313, 114.3438
1189.795, 205.5938
1190.277, 100.5312
1190.759, 0.0000000E+00
##END=



