##NAMES=Fluorapatite
##RRUFFID=R050401
##IDEAL CHEMISTRY=Ca_5_(PO_4_)_3_F
##LOCALITY=Urbano mine, Golconda District, Minas Gerais, Brazil
##OWNER=RRUFF
##SOURCE=Bob Downs
##DESCRIPTION=Pale purple hexagonal prism associated with albite R050402
##STATUS=The identification of this mineral has been confirmed by X-ray diffraction and chemical analysis
##URL=rruff.info/R050401
##MEASURED CHEMISTRY=(Ca_0.99_Mn_0.01_)_5_(P_1.00_O_4_)_3_F_1.00_
143.6278, 402.0272
144.1099, 394.7806
144.5920, 391.0368
145.0741, 390.8512
145.5563, 391.5632
146.0384, 390.6855
146.5205, 387.9358
147.0026, 386.0391
147.4847, 386.5886
147.9668, 387.4201
148.4490, 387.3684
148.9311, 386.1929
149.4132, 384.4243
149.8953, 382.6147
150.3774, 379.8553
150.8595, 379.1237
151.3417, 381.9143
151.8238, 385.6937
152.3059, 388.7316
152.7880, 390.3149
153.2701, 390.5601
153.7522, 389.7142
154.2344, 386.2638
154.7165, 383.3605
155.1986, 381.5236
155.6807, 380.1768
156.1628, 378.5598
156.6449, 376.2801
157.1271, 373.5368
157.6092, 371.1516
158.0913, 368.0317
158.5734, 366.3138
159.0555, 367.5833
159.5376, 370.8863
160.0198, 373.6487
160.5019, 374.2303
160.9840, 373.3120
161.4661, 373.6829
161.9482, 377.9001
162.4303, 380.7652
162.9125, 377.3771
163.3946, 368.0255
163.8767, 359.5667
164.3588, 356.6061
164.8409, 357.1313
165.3230, 357.5241
165.8052, 356.2650
166.2873, 355.5109
166.7694, 358.9321
167.2515, 368.0338
167.7336, 376.1860
168.2157, 380.1188
168.6979, 381.3476
169.1800, 381.2232
169.6621, 379.9115
170.1442, 377.8999
170.6263, 376.4628
171.1084, 375.3796
171.5906, 375.3937
172.0727, 377.4827
172.5548, 380.4875
173.0369, 382.7677
173.5190, 383.2195
174.0011, 382.0860
174.4833, 381.4087
174.9654, 380.6142
175.4475, 380.9905
175.9296, 384.0076
176.4117, 388.3829
176.8938, 391.9308
177.3760, 393.0002
177.8581, 391.5419
178.3402, 389.3873
178.8223, 382.9189
179.3044, 379.2711
179.7865, 383.2051
180.2687, 392.7495
180.7508, 401.7116
181.2329, 404.3965
181.7150, 399.9805
182.1971, 400.0455
182.6792, 410.5300
183.1614, 419.9536
183.6435, 419.7859
184.1256, 410.4861
184.6077, 400.8226
185.0898, 398.7104
185.5719, 404.9112
186.0541, 410.4509
186.5362, 415.0653
187.0183, 419.0084
187.5004, 422.7616
187.9825, 426.4408
188.4646, 428.9134
188.9468, 427.3357
189.4289, 423.0893
189.9110, 422.2202
190.3931, 428.9334
190.8752, 438.9704
191.3573, 446.0499
191.8395, 449.6002
192.3216, 450.4338
192.8037, 446.6072
193.2858, 440.3857
193.7679, 437.2681
194.2500, 441.5857
194.7322, 451.1031
195.2143, 458.7098
195.6964, 463.7118
196.1785, 467.4559
196.6606, 470.7365
197.1427, 473.5679
197.6249, 475.8744
198.1070, 476.8367
198.5891, 476.8130
199.0712, 479.6911
199.5533, 489.1295
200.0354, 497.5084
200.5176, 501.4986
200.9997, 502.1167
201.4818, 501.6591
201.9639, 501.1217
202.4460, 500.3701
202.9281, 504.1916
203.4103, 519.1190
203.8924, 532.8878
204.3745, 542.5482
204.8566, 548.0045
205.3387, 549.5291
205.8208, 546.4687
206.3030, 537.6057
206.7851, 535.8343
207.2672, 547.3625
207.7493, 559.3365
208.2314, 566.8688
208.7135, 570.1747
209.1957, 571.7873
209.6778, 573.6920
210.1599, 575.6467
210.6420, 580.2883
211.1241, 589.8659
211.6062, 599.5873
212.0884, 607.6892
212.5705, 613.7716
213.0526, 617.4351
213.5347, 617.6394
214.0168, 613.7578
214.4989, 614.0041
214.9811, 619.6672
215.4632, 628.0087
215.9453, 639.2576
216.4274, 652.7729
216.9095, 663.7949
217.3916, 667.1976
217.8737, 662.8068
218.3559, 661.8632
218.8380, 667.1273
219.3201, 674.2463
219.8022, 679.1899
220.2843, 681.6624
220.7664, 684.6744
221.2486, 691.6494
221.7307, 701.4365
222.2128, 708.7745
222.6949, 712.1422
223.1770, 713.1238
223.6591, 711.6280
224.1413, 706.7687
224.6234, 705.6723
225.1055, 717.2801
225.5876, 736.1735
226.0697, 752.9423
226.5518, 766.1250
227.0340, 775.2953
227.5161, 776.9166
227.9982, 767.2829
228.4803, 763.1552
228.9624, 781.5220
229.4445, 809.6322
229.9267, 831.1082
230.4088, 838.2256
230.8909, 836.7624
231.3730, 836.5244
231.8551, 836.4685
232.3372, 840.5679
232.8194, 854.1533
233.3015, 871.2998
233.7836, 884.5858
234.2657, 889.7168
234.7478, 891.2429
235.2299, 899.9270
235.7121, 919.4371
236.1942, 939.1107
236.6763, 957.4050
237.1584, 973.6201
237.6405, 986.9787
238.1227, 997.1330
238.6048, 1004.515
239.0869, 1009.608
239.5690, 1009.138
240.0511, 1012.412
240.5332, 1021.648
241.0154, 1034.573
241.4975, 1049.291
241.9796, 1065.007
242.4617, 1081.392
242.9438, 1097.555
243.4259, 1114.438
243.9081, 1129.505
244.3902, 1143.689
244.8723, 1155.583
245.3544, 1163.264
245.8365, 1166.098
246.3186, 1165.863
246.8008, 1166.505
247.2829, 1167.288
247.7650, 1170.344
248.2471, 1177.001
248.7292, 1185.136
249.2113, 1193.844
249.6935, 1202.575
250.1756, 1209.640
250.6577, 1211.423
251.1398, 1200.011
251.6219, 1194.869
252.1040, 1201.053
252.5862, 1210.519
253.0683, 1216.825
253.5504, 1217.921
254.0325, 1214.886
254.5146, 1209.074
254.9967, 1196.658
255.4789, 1188.961
255.9610, 1192.519
256.4431, 1197.063
256.9252, 1191.757
257.4073, 1174.541
257.8894, 1154.414
258.3716, 1143.963
258.8537, 1149.467
259.3358, 1148.276
259.8179, 1130.218
260.3000, 1111.522
260.7821, 1109.396
261.2643, 1126.049
261.7464, 1145.910
262.2285, 1151.729
262.7106, 1139.673
263.1927, 1129.319
263.6748, 1120.862
264.1570, 1114.263
264.6391, 1109.396
265.1212, 1106.261
265.6033, 1105.658
266.0854, 1110.184
266.5675, 1119.834
267.0497, 1121.427
267.5318, 1105.260
268.0139, 1087.460
268.4960, 1080.246
268.9781, 1084.304
269.4602, 1095.386
269.9424, 1114.226
270.4245, 1138.203
270.9066, 1151.234
271.3887, 1142.130
271.8708, 1130.177
272.3529, 1129.401
272.8351, 1139.523
273.3172, 1155.064
273.7993, 1176.785
274.2814, 1200.374
274.7635, 1213.572
275.2456, 1208.746
275.7278, 1201.685
276.2099, 1203.327
276.6920, 1212.892
277.1741, 1223.876
277.6562, 1232.541
278.1383, 1241.499
278.6205, 1255.439
279.1026, 1276.304
279.5847, 1298.224
280.0668, 1318.585
280.5489, 1337.217
281.0310, 1351.904
281.5132, 1359.046
281.9953, 1364.775
282.4774, 1377.702
282.9595, 1398.678
283.4416, 1421.440
283.9237, 1443.012
284.4059, 1463.423
284.8880, 1483.111
285.3701, 1502.345
285.8522, 1520.381
286.3343, 1534.013
286.8164, 1543.579
287.2986, 1559.285
287.7807, 1592.076
288.2628, 1636.048
288.7449, 1671.010
289.2270, 1691.631
289.7091, 1707.514
290.1913, 1724.794
290.6734, 1743.761
291.1555, 1766.676
291.6376, 1796.371
292.1197, 1830.409
292.6018, 1864.079
293.0840, 1897.743
293.5661, 1929.127
294.0482, 1952.803
294.5303, 1973.360
295.0124, 2000.348
295.4945, 2041.409
295.9767, 2088.716
296.4588, 2126.755
296.9409, 2152.230
297.4230, 2179.861
297.9051, 2222.286
298.3872, 2270.111
298.8694, 2311.888
299.3515, 2342.339
299.8336, 2369.119
300.3157, 2402.938
300.7978, 2445.166
301.2799, 2487.313
301.7621, 2522.942
302.2442, 2558.998
302.7263, 2602.851
303.2084, 2656.709
303.6905, 2713.494
304.1726, 2765.829
304.6548, 2813.315
305.1369, 2863.418
305.6190, 2920.807
306.1011, 2979.499
306.5832, 3031.900
307.0653, 3078.050
307.5475, 3129.600
308.0296, 3199.791
308.5117, 3286.636
308.9938, 3368.296
309.4759, 3442.836
309.9580, 3509.578
310.4402, 3562.014
310.9223, 3604.925
311.4044, 3656.232
311.8865, 3731.427
312.3686, 3825.040
312.8507, 3915.292
313.3329, 4003.373
313.8150, 4084.855
314.2971, 4152.544
314.7792, 4213.765
315.2613, 4282.731
315.7434, 4368.089
316.2256, 4464.121
316.7077, 4559.537
317.1898, 4655.938
317.6719, 4749.460
318.1540, 4843.063
318.6361, 4931.504
319.1183, 5006.037
319.6004, 5061.362
320.0825, 5110.706
320.5646, 5171.930
321.0467, 5246.375
321.5288, 5324.276
322.0110, 5408.118
322.4931, 5490.856
322.9752, 5567.067
323.4573, 5635.624
323.9394, 5697.690
324.4215, 5756.081
324.9037, 5810.338
325.3858, 5851.644
325.8679, 5870.925
326.3500, 5883.304
326.8321, 5900.833
327.3142, 5922.564
327.7964, 5940.541
328.2785, 5949.814
328.7606, 5950.958
329.2427, 5947.945
329.7248, 5945.079
330.2069, 5930.063
330.6891, 5886.518
331.1712, 5826.926
331.6533, 5778.458
332.1354, 5763.807
332.6175, 5762.646
333.0996, 5728.325
333.5818, 5648.385
334.0639, 5575.024
334.5460, 5551.692
335.0281, 5543.873
335.5102, 5511.182
335.9923, 5437.533
336.4745, 5349.003
336.9566, 5272.382
337.4387, 5208.182
337.9208, 5152.248
338.4029, 5106.575
338.8850, 5066.899
339.3671, 5033.522
339.8492, 5007.440
340.3314, 4971.600
340.8135, 4903.675
341.2956, 4810.023
341.7777, 4735.076
342.2598, 4692.780
342.7419, 4662.978
343.2241, 4628.546
343.7062, 4590.324
344.1883, 4553.229
344.6704, 4518.470
345.1525, 4486.598
345.6346, 4461.035
346.1168, 4445.077
346.5989, 4425.431
347.0810, 4385.250
347.5631, 4335.338
348.0452, 4294.642
348.5273, 4271.333
349.0095, 4256.247
349.4916, 4239.309
349.9737, 4220.500
350.4558, 4203.954
350.9379, 4191.554
351.4200, 4183.003
351.9022, 4177.489
352.3843, 4175.690
352.8664, 4175.065
353.3485, 4171.461
353.8306, 4166.994
354.3127, 4171.319
354.7949, 4190.350
355.2770, 4213.766
355.7591, 4228.030
356.2412, 4233.421
356.7233, 4239.153
357.2054, 4247.880
357.6876, 4259.179
358.1697, 4274.822
358.6518, 4296.270
359.1339, 4312.839
359.6160, 4309.001
360.0981, 4290.126
360.5803, 4285.621
361.0624, 4312.035
361.5445, 4344.316
362.0266, 4359.994
362.5087, 4360.916
362.9908, 4364.771
363.4730, 4383.462
363.9551, 4410.617
364.4372, 4426.342
364.9193, 4423.489
365.4014, 4422.066
365.8835, 4436.758
366.3657, 4458.016
366.8478, 4464.063
367.3299, 4445.679
367.8120, 4418.113
368.2941, 4405.776
368.7762, 4411.892
369.2584, 4417.430
369.7405, 4421.028
370.2226, 4422.231
370.7047, 4421.485
371.1868, 4418.557
371.6689, 4410.943
372.1511, 4396.211
372.6332, 4373.846
373.1153, 4347.911
373.5974, 4316.532
374.0795, 4283.657
374.5616, 4249.189
375.0438, 4214.602
375.5259, 4184.673
376.0080, 4163.659
376.4901, 4145.810
376.9722, 4110.248
377.4543, 4030.461
377.9365, 3967.437
378.4186, 3938.275
378.9007, 3923.927
379.3828, 3906.413
379.8649, 3880.034
380.3470, 3845.478
380.8292, 3803.080
381.3113, 3749.162
381.7934, 3697.400
382.2755, 3634.838
382.7576, 3584.995
383.2397, 3571.534
383.7219, 3585.438
384.2040, 3596.366
384.6861, 3580.106
385.1682, 3538.397
385.6503, 3498.749
386.1324, 3461.042
386.6146, 3425.940
387.0967, 3397.064
387.5788, 3370.039
388.0609, 3336.543
388.5430, 3293.283
389.0251, 3249.514
389.5073, 3225.464
389.9894, 3234.140
390.4715, 3235.519
390.9536, 3223.696
391.4357, 3207.873
391.9178, 3191.394
392.4000, 3176.004
392.8821, 3164.641
393.3642, 3162.760
393.8463, 3170.938
394.3284, 3167.283
394.8105, 3136.097
395.2927, 3111.024
395.7748, 3109.234
396.2569, 3119.988
396.7390, 3124.151
397.2211, 3110.584
397.7032, 3088.497
398.1854, 3079.727
398.6675, 3089.256
399.1496, 3096.966
399.6317, 3094.938
400.1138, 3090.366
400.5959, 3088.230
401.0781, 3089.413
401.5602, 3092.389
402.0423, 3096.796
402.5244, 3102.345
403.0065, 3105.381
403.4886, 3103.079
403.9708, 3101.757
404.4529, 3106.947
404.9350, 3116.614
405.4171, 3125.144
405.8992, 3130.563
406.3813, 3133.207
406.8635, 3134.678
407.3456, 3135.462
407.8277, 3129.919
408.3098, 3109.333
408.7919, 3083.365
409.2740, 3068.910
409.7562, 3070.369
410.2383, 3074.094
410.7204, 3073.312
411.2025, 3068.354
411.6846, 3060.322
412.1667, 3049.570
412.6489, 3035.425
413.1310, 3014.594
413.6131, 2987.146
414.0952, 2964.631
414.5773, 2953.128
415.0594, 2944.617
415.5416, 2932.814
416.0237, 2917.224
416.5058, 2897.674
416.9879, 2872.076
417.4700, 2843.037
417.9521, 2824.743
418.4343, 2826.854
418.9164, 2826.183
419.3985, 2816.783
419.8806, 2800.643
420.3627, 2779.604
420.8448, 2754.274
421.3270, 2727.060
421.8091, 2700.769
422.2912, 2672.955
422.7733, 2654.855
423.2554, 2654.576
423.7375, 2656.176
424.2197, 2650.757
424.7018, 2638.719
425.1839, 2625.456
425.6660, 2615.512
426.1481, 2607.149
426.6302, 2587.276
427.1124, 2534.409
427.5945, 2496.951
428.0766, 2490.442
428.5587, 2496.978
429.0408, 2499.619
429.5229, 2492.923
430.0051, 2480.423
430.4872, 2466.038
430.9693, 2448.821
431.4514, 2434.002
431.9335, 2425.409
432.4156, 2415.904
432.8978, 2401.350
433.3799, 2383.432
433.8620, 2366.408
434.3441, 2352.698
434.8262, 2341.995
435.3083, 2333.677
435.7905, 2328.065
436.2726, 2324.055
436.7547, 2328.757
437.2368, 2330.823
437.7189, 2316.518
438.2010, 2282.246
438.6832, 2247.037
439.1653, 2228.864
439.6474, 2224.581
440.1295, 2216.526
440.6116, 2200.385
441.0938, 2183.318
441.5759, 2170.653
442.0580, 2161.858
442.5401, 2156.317
443.0222, 2158.975
443.5043, 2161.328
443.9865, 2152.463
444.4686, 2133.752
444.9507, 2118.114
445.4328, 2113.406
445.9149, 2113.576
446.3970, 2104.227
446.8792, 2082.650
447.3613, 2061.566
447.8434, 2041.394
448.3255, 2024.980
448.8076, 2018.868
449.2897, 2023.310
449.7719, 2026.648
450.2540, 2016.799
450.7361, 1992.775
451.2182, 1976.633
451.7003, 1977.236
452.1824, 1974.821
452.6646, 1959.956
453.1467, 1937.656
453.6288, 1915.785
454.1109, 1897.730
454.5930, 1883.892
455.0751, 1875.979
455.5573, 1882.384
456.0394, 1877.816
456.5215, 1852.634
457.0036, 1826.546
457.4857, 1811.689
457.9678, 1806.967
458.4500, 1804.217
458.9321, 1797.911
459.4142, 1788.077
459.8963, 1774.091
460.3784, 1751.390
460.8605, 1732.871
461.3427, 1723.848
461.8248, 1718.886
462.3069, 1713.055
462.7890, 1705.121
463.2711, 1696.112
463.7532, 1686.321
464.2354, 1675.894
464.7175, 1669.075
465.1996, 1672.017
465.6817, 1669.280
466.1638, 1642.973
466.6459, 1602.629
467.1281, 1572.572
467.6102, 1565.122
468.0923, 1567.601
468.5744, 1568.022
469.0565, 1566.484
469.5386, 1563.926
470.0208, 1560.488
470.5029, 1556.481
470.9850, 1553.452
471.4671, 1552.639
471.9492, 1546.771
472.4313, 1529.669
472.9135, 1509.109
473.3956, 1493.209
473.8777, 1482.678
474.3598, 1474.270
474.8419, 1465.840
475.3240, 1457.378
475.8062, 1448.935
476.2883, 1440.935
476.7704, 1432.418
477.2525, 1421.237
477.7346, 1410.324
478.2167, 1404.613
478.6989, 1404.838
479.1810, 1405.374
479.6631, 1398.107
480.1452, 1380.433
480.6273, 1368.568
481.1094, 1367.282
481.5916, 1367.030
482.0737, 1366.676
482.5558, 1364.856
483.0379, 1358.982
483.5200, 1347.232
484.0021, 1333.664
484.4843, 1326.121
484.9664, 1325.516
485.4485, 1326.745
485.9306, 1332.542
486.4127, 1336.652
486.8948, 1334.126
487.3770, 1325.693
487.8591, 1316.392
488.3412, 1308.330
488.8233, 1301.572
489.3054, 1296.507
489.7875, 1293.279
490.2697, 1290.932
490.7518, 1291.072
491.2339, 1290.485
491.7160, 1282.040
492.1981, 1261.493
492.6802, 1245.661
493.1624, 1245.260
493.6445, 1252.709
494.1266, 1256.761
494.6087, 1255.535
495.0908, 1253.463
495.5729, 1255.242
496.0551, 1260.688
496.5372, 1259.056
497.0193, 1242.097
497.5014, 1228.760
497.9835, 1228.629
498.4656, 1234.273
498.9478, 1234.029
499.4299, 1224.378
499.9120, 1212.614
500.3941, 1210.465
500.8762, 1222.584
501.3583, 1225.628
501.8405, 1209.031
502.3226, 1194.087
502.8047, 1188.741
503.2868, 1190.522
503.7689, 1194.125
504.2510, 1196.927
504.7331, 1200.435
505.2152, 1209.555
505.6974, 1226.532
506.1795, 1235.117
506.6616, 1226.567
507.1437, 1213.415
507.6258, 1203.630
508.1079, 1197.305
508.5901, 1193.818
509.0722, 1193.006
509.5543, 1194.776
510.0364, 1201.417
510.5185, 1212.745
511.0006, 1218.550
511.4828, 1212.464
511.9649, 1199.280
512.4470, 1188.426
512.9291, 1178.961
513.4113, 1173.970
513.8934, 1177.166
514.3755, 1183.517
514.8576, 1189.183
515.3397, 1193.174
515.8218, 1193.337
516.3040, 1187.217
516.7861, 1176.285
517.2682, 1171.303
517.7503, 1178.794
518.2324, 1184.218
518.7145, 1186.589
519.1967, 1186.154
519.6788, 1181.331
520.1609, 1172.988
520.6430, 1166.411
521.1251, 1168.281
521.6072, 1178.197
522.0894, 1180.962
522.5715, 1169.837
523.0536, 1162.337
523.5357, 1166.823
524.0178, 1176.598
524.4999, 1185.159
524.9821, 1191.185
525.4642, 1192.564
525.9463, 1183.494
526.4284, 1167.214
526.9105, 1159.019
527.3926, 1162.818
527.8748, 1169.514
528.3569, 1172.730
528.8390, 1173.133
529.3211, 1173.012
529.8032, 1169.879
530.2853, 1169.349
530.7675, 1178.540
531.2496, 1191.817
531.7317, 1197.131
532.2138, 1190.910
532.6959, 1180.492
533.1780, 1175.173
533.6602, 1176.455
534.1423, 1173.289
534.6244, 1158.972
535.1065, 1148.173
535.5886, 1149.044
536.0707, 1156.257
536.5529, 1161.506
537.0350, 1161.463
537.5171, 1158.745
537.9992, 1157.599
538.4813, 1158.609
538.9634, 1158.244
539.4456, 1156.719
539.9277, 1153.256
540.4098, 1144.478
540.8919, 1133.983
541.3740, 1129.308
541.8561, 1135.030
542.3383, 1144.219
542.8204, 1148.657
543.3025, 1148.753
543.7846, 1148.499
544.2667, 1149.068
544.7488, 1149.170
545.2310, 1146.710
545.7131, 1142.039
546.1952, 1138.515
546.6773, 1135.456
547.1594, 1134.794
547.6415, 1139.404
548.1237, 1147.386
548.6058, 1155.035
549.0879, 1160.989
549.5700, 1163.356
550.0521, 1157.598
550.5342, 1136.645
551.0164, 1129.830
551.4985, 1152.758
551.9806, 1171.726
552.4627, 1166.730
552.9448, 1147.835
553.4269, 1135.132
553.9091, 1138.195
554.3912, 1151.019
554.8733, 1166.483
555.3554, 1186.826
555.8375, 1193.893
556.3196, 1175.666
556.8018, 1154.502
557.2839, 1143.532
557.7660, 1141.010
558.2481, 1142.342
558.7302, 1148.994
559.2123, 1155.137
559.6945, 1153.705
560.1766, 1146.230
560.6587, 1139.033
561.1408, 1133.517
561.6229, 1130.693
562.1050, 1132.494
562.5872, 1139.850
563.0693, 1145.629
563.5514, 1147.036
564.0335, 1149.579
564.5156, 1158.467
564.9977, 1169.961
565.4799, 1177.247
565.9620, 1177.598
566.4441, 1173.512
566.9262, 1168.393
567.4083, 1161.498
567.8904, 1156.577
568.3726, 1154.103
568.8547, 1153.286
569.3368, 1155.619
569.8189, 1158.995
570.3010, 1159.757
570.7831, 1156.206
571.2653, 1151.578
571.7474, 1148.770
572.2295, 1147.938
572.7116, 1151.423
573.1937, 1161.888
573.6758, 1170.930
574.1580, 1169.604
574.6401, 1160.628
575.1222, 1154.688
575.6043, 1154.849
576.0864, 1155.892
576.5685, 1154.058
577.0507, 1151.781
577.5328, 1153.801
578.0149, 1161.107
578.4970, 1170.014
578.9791, 1176.901
579.4612, 1181.803
579.9434, 1183.872
580.4255, 1181.063
580.9076, 1177.731
581.3897, 1175.717
581.8718, 1172.995
582.3539, 1166.100
582.8361, 1154.775
583.3182, 1144.188
583.8003, 1140.563
584.2824, 1142.752
584.7645, 1141.820
585.2466, 1136.298
585.7288, 1131.746
586.2108, 1131.658
586.6929, 1133.840
587.1750, 1136.057
587.6572, 1139.131
588.1393, 1137.902
588.6214, 1124.994
589.1035, 1108.972
589.5856, 1101.798
590.0677, 1104.023
590.5499, 1108.847
591.0320, 1112.010
591.5141, 1114.225
591.9962, 1118.164
592.4783, 1129.336
592.9604, 1134.196
593.4426, 1126.550
593.9247, 1117.645
594.4068, 1115.165
594.8889, 1118.700
595.3710, 1124.655
595.8531, 1132.050
596.3353, 1137.618
596.8174, 1129.809
597.2995, 1104.194
597.7816, 1092.007
598.2637, 1110.909
598.7458, 1133.960
599.2280, 1136.307
599.7101, 1121.551
600.1922, 1109.446
600.6743, 1108.372
601.1564, 1110.491
601.6385, 1110.367
602.1207, 1108.083
602.6028, 1102.426
603.0849, 1092.542
603.5670, 1084.957
604.0491, 1089.211
604.5313, 1108.290
605.0134, 1120.517
605.4955, 1123.725
605.9776, 1123.601
606.4597, 1119.599
606.9418, 1114.321
607.4240, 1111.816
607.9061, 1112.895
608.3882, 1113.101
608.8703, 1104.675
609.3524, 1088.854
609.8345, 1083.961
610.3167, 1095.672
610.7988, 1104.678
611.2809, 1096.935
611.7630, 1082.902
612.2451, 1077.472
612.7272, 1083.684
613.2094, 1089.740
613.6915, 1090.262
614.1736, 1087.691
614.6557, 1084.889
615.1378, 1082.053
615.6199, 1078.198
616.1021, 1072.537
616.5842, 1065.971
617.0663, 1061.295
617.5484, 1061.588
618.0305, 1058.350
618.5126, 1045.412
618.9948, 1034.965
619.4769, 1037.306
619.9590, 1047.580
620.4411, 1053.614
620.9232, 1048.918
621.4053, 1038.788
621.8875, 1030.873
622.3696, 1025.166
622.8517, 1020.435
623.3338, 1016.162
623.8159, 1013.472
624.2980, 1012.890
624.7802, 1014.635
625.2623, 1020.042
625.7444, 1035.963
626.2265, 1046.967
626.7086, 1041.202
627.1907, 1028.253
627.6729, 1022.627
628.1550, 1026.415
628.6371, 1030.798
629.1192, 1027.627
629.6013, 1018.199
630.0834, 1013.513
630.5656, 1017.718
631.0477, 1019.761
631.5298, 1016.254
632.0119, 1011.677
632.4940, 1009.734
632.9761, 1010.148
633.4583, 1009.685
633.9404, 1005.609
634.4225, 1000.243
634.9046, 997.0824
635.3867, 996.0558
635.8688, 996.3096
636.3510, 997.4761
636.8331, 1000.188
637.3152, 1006.293
637.7973, 1016.434
638.2794, 1021.778
638.7615, 1018.284
639.2437, 1014.392
639.7258, 1013.724
640.2079, 1014.742
640.6900, 1014.810
641.1721, 1013.406
641.6542, 1012.697
642.1364, 1016.379
642.6185, 1023.569
643.1006, 1021.109
643.5827, 1002.974
644.0648, 988.5510
644.5469, 987.7849
645.0291, 991.9165
645.5112, 994.0706
645.9933, 993.6945
646.4754, 991.5517
646.9575, 985.0779
647.4396, 979.0870
647.9218, 980.6206
648.4039, 987.8217
648.8860, 991.9249
649.3681, 989.1439
649.8502, 983.8779
650.3323, 982.7722
650.8145, 986.6332
651.2966, 991.0373
651.7787, 999.6007
652.2608, 1004.522
652.7429, 1000.183
653.2250, 992.3116
653.7072, 987.9393
654.1893, 988.8625
654.6714, 992.2570
655.1535, 997.3163
655.6356, 1002.710
656.1177, 1003.491
656.5999, 999.1411
657.0820, 992.9042
657.5641, 984.1817
658.0462, 976.3582
658.5283, 977.5528
659.0104, 990.1227
659.4926, 997.8502
659.9747, 995.4916
660.4568, 990.4771
660.9389, 987.3527
661.4210, 985.2010
661.9031, 980.2568
662.3853, 971.2360
662.8674, 963.4363
663.3495, 966.0223
663.8316, 980.0409
664.3137, 987.4076
664.7958, 984.6075
665.2780, 981.5159
665.7601, 984.2454
666.2422, 988.2171
666.7243, 986.8236
667.2064, 978.4382
667.6885, 973.2699
668.1707, 978.6191
668.6528, 987.9854
669.1349, 994.0146
669.6170, 997.0334
670.0991, 1001.102
670.5812, 1008.298
671.0634, 1015.533
671.5455, 1016.598
672.0276, 1008.123
672.5097, 1006.339
672.9918, 1018.795
673.4739, 1029.770
673.9561, 1033.024
674.4382, 1032.741
674.9203, 1035.612
675.4024, 1043.251
675.8845, 1048.356
676.3666, 1040.116
676.8488, 1026.469
677.3309, 1027.113
677.8130, 1042.644
678.2951, 1055.626
678.7772, 1056.657
679.2593, 1052.969
679.7415, 1058.617
680.2236, 1079.296
680.7057, 1091.487
681.1878, 1089.137
681.6699, 1085.052
682.1520, 1082.736
682.6342, 1083.298
683.1163, 1087.486
683.5984, 1095.585
684.0805, 1107.565
684.5626, 1127.440
685.0447, 1152.200
685.5269, 1164.510
686.0090, 1162.470
686.4911, 1157.180
686.9732, 1150.933
687.4553, 1146.250
687.9374, 1147.884
688.4196, 1156.223
688.9017, 1165.151
689.3838, 1174.871
689.8659, 1183.805
690.3480, 1190.857
690.8301, 1196.496
691.3123, 1201.383
691.7944, 1205.811
692.2765, 1210.170
692.7586, 1214.207
693.2407, 1218.257
693.7228, 1227.677
694.2050, 1245.218
694.6871, 1261.122
695.1692, 1275.924
695.6513, 1284.282
696.1334, 1277.258
696.6155, 1255.054
697.0977, 1238.801
697.5798, 1238.079
698.0619, 1242.266
698.5440, 1243.839
699.0261, 1244.358
699.5082, 1248.479
699.9904, 1257.197
700.4725, 1265.470
700.9546, 1267.261
701.4367, 1263.204
701.9188, 1263.683
702.4009, 1273.056
702.8831, 1278.262
703.3652, 1273.121
703.8473, 1264.778
704.3294, 1258.612
704.8115, 1254.302
705.2936, 1247.895
705.7758, 1232.557
706.2579, 1219.705
706.7400, 1223.128
707.2221, 1235.411
707.7042, 1240.526
708.1863, 1234.660
708.6685, 1221.443
709.1506, 1202.621
709.6327, 1180.037
710.1148, 1168.350
710.5969, 1173.386
711.0790, 1178.869
711.5612, 1184.913
712.0433, 1188.849
712.5254, 1189.681
713.0075, 1186.936
713.4896, 1179.064
713.9717, 1162.919
714.4539, 1146.270
714.9360, 1135.488
715.4181, 1129.501
715.9002, 1127.748
716.3823, 1129.674
716.8644, 1128.677
717.3466, 1119.209
717.8287, 1104.165
718.3108, 1094.218
718.7929, 1092.419
719.2750, 1090.065
719.7571, 1085.189
720.2393, 1081.439
720.7214, 1080.485
721.2035, 1082.027
721.6856, 1086.301
722.1677, 1094.329
722.6498, 1099.881
723.1320, 1096.966
723.6141, 1088.087
724.0962, 1076.573
724.5783, 1063.218
725.0604, 1053.253
725.5425, 1049.628
726.0247, 1050.666
726.5068, 1053.307
726.9889, 1058.940
727.4710, 1061.916
727.9531, 1064.089
728.4352, 1061.563
728.9174, 1045.259
729.3995, 1027.168
729.8816, 1025.202
730.3637, 1042.629
730.8458, 1060.008
731.3279, 1061.777
731.8101, 1055.928
732.2922, 1055.850
732.7743, 1060.748
733.2564, 1062.814
733.7385, 1058.790
734.2206, 1053.884
734.7028, 1055.061
735.1849, 1062.874
735.6670, 1068.444
736.1491, 1071.436
736.6312, 1072.444
737.1133, 1069.845
737.5955, 1066.579
738.0776, 1065.357
738.5597, 1066.082
739.0418, 1066.916
739.5239, 1068.704
740.0060, 1067.930
740.4882, 1055.808
740.9703, 1037.735
741.4524, 1032.688
741.9345, 1044.529
742.4166, 1058.601
742.8987, 1063.402
743.3809, 1059.786
743.8630, 1051.716
744.3451, 1036.117
744.8272, 1021.634
745.3093, 1005.000
745.7914, 993.1885
746.2736, 993.0658
746.7557, 999.9758
747.2378, 1004.680
747.7199, 1004.446
748.2020, 1000.835
748.6841, 992.3982
749.1663, 982.4994
749.6484, 977.9228
750.1305, 978.3362
750.6126, 977.3853
751.0947, 971.5589
751.5768, 964.4921
752.0590, 963.7084
752.5411, 972.3563
753.0232, 972.0714
753.5053, 954.9780
753.9874, 939.3888
754.4695, 933.8122
754.9517, 930.6503
755.4338, 919.0878
755.9159, 898.6591
756.3980, 885.6661
756.8801, 895.9196
757.3622, 910.0919
757.8444, 909.0100
758.3265, 897.1077
758.8086, 885.4100
759.2907, 876.8907
759.7728, 867.4473
760.2549, 852.0266
760.7371, 833.0739
761.2192, 827.5889
761.7013, 842.3174
762.1834, 852.2455
762.6655, 849.9122
763.1476, 844.8663
763.6298, 844.0352
764.1119, 845.6641
764.5940, 844.6121
765.0761, 838.9260
765.5582, 832.3257
766.0403, 825.7313
766.5225, 819.7552
767.0046, 815.2563
767.4867, 812.0427
767.9688, 809.2723
768.4509, 806.5108
768.9330, 803.7488
769.4152, 801.1646
769.8973, 798.7791
770.3794, 795.2275
770.8615, 789.7322
771.3436, 785.2080
771.8257, 783.8384
772.3079, 783.4943
772.7900, 780.6924
773.2721, 775.1704
773.7542, 770.8524
774.2363, 768.4007
774.7184, 767.2246
775.2006, 768.3574
775.6827, 769.9335
776.1648, 769.9015
776.6469, 767.7222
777.1290, 763.1375
777.6111, 754.8494
778.0933, 745.6367
778.5754, 743.1166
779.0575, 746.9559
779.5396, 747.4933
780.0217, 742.0636
780.5038, 736.0447
780.9860, 733.6929
781.4681, 734.1237
781.9502, 733.5216
782.4323, 733.7712
782.9144, 729.8486
783.3965, 717.4854
783.8787, 704.9362
784.3608, 696.3029
784.8429, 690.9721
785.3250, 687.9362
785.8071, 686.8949
786.2892, 685.2412
786.7714, 679.7842
787.2535, 672.6450
787.7356, 667.0076
788.2177, 663.2108
788.6998, 663.6558
789.1819, 669.7879
789.6641, 675.1565
790.1462, 671.5574
790.6283, 659.0314
791.1104, 646.4943
791.5925, 629.7853
792.0746, 620.3311
792.5568, 626.0827
793.0389, 634.2863
793.5210, 636.4530
794.0031, 633.4782
794.4852, 630.0266
794.9673, 627.8556
795.4495, 624.7271
795.9316, 617.8868
796.4137, 610.0901
796.8958, 605.3077
797.3779, 603.2356
797.8600, 600.5912
798.3422, 595.6251
798.8243, 590.4240
799.3064, 589.2180
799.7885, 592.2383
800.2706, 592.2298
800.7527, 589.2729
801.2349, 582.6618
801.7170, 569.6150
802.1991, 555.0067
802.6812, 545.5333
803.1633, 541.1299
803.6454, 538.1670
804.1276, 539.3752
804.6097, 538.2787
805.0918, 528.7073
805.5739, 518.2398
806.0560, 516.2866
806.5381, 521.7411
807.0203, 525.4907
807.5024, 521.7195
807.9845, 515.4692
808.4666, 514.4404
808.9487, 517.0128
809.4308, 516.7630
809.9130, 512.9056
810.3951, 507.3015
810.8772, 500.3969
811.3593, 493.8462
811.8414, 491.1458
812.3235, 493.3594
812.8057, 495.4115
813.2878, 498.3757
813.7699, 499.7874
814.2520, 499.4687
814.7341, 497.0093
815.2162, 490.7757
815.6984, 481.2574
816.1805, 473.4397
816.6626, 469.3474
817.1447, 467.6308
817.6268, 469.4755
818.1089, 472.1089
818.5911, 469.9498
819.0732, 463.2783
819.5553, 458.4097
820.0374, 459.7768
820.5195, 463.6650
821.0016, 461.2465
821.4838, 452.2243
821.9659, 448.4844
822.4480, 452.6183
822.9301, 456.0938
823.4122, 453.9258
823.8943, 449.1655
824.3765, 447.2092
824.8586, 448.6447
825.3407, 449.7870
825.8228, 451.7008
826.3049, 451.8704
826.7870, 448.1090
827.2692, 443.0574
827.7513, 439.4229
828.2334, 437.3648
828.7155, 435.4803
829.1976, 432.9416
829.6797, 430.3743
830.1619, 428.1855
830.6440, 426.5799
831.1261, 426.4167
831.6082, 427.6087
832.0903, 428.7383
832.5724, 429.0772
833.0546, 428.3571
833.5367, 425.5384
834.0188, 419.8869
834.5009, 417.6113
834.9830, 421.2031
835.4651, 423.0948
835.9473, 419.1838
836.4294, 413.3168
836.9115, 409.8263
837.3936, 408.6013
837.8757, 406.9144
838.3578, 402.4105
838.8400, 399.7809
839.3221, 402.3184
839.8042, 406.4359
840.2863, 409.2057
840.7684, 410.1496
841.2505, 409.2232
841.7327, 406.1990
842.2148, 402.7881
842.6969, 401.8514
843.1790, 402.0201
843.6611, 398.7280
844.1432, 391.9994
844.6254, 385.6516
845.1075, 381.0560
845.5896, 378.9732
846.0717, 380.8804
846.5538, 386.7916
847.0359, 390.7663
847.5181, 391.8635
848.0002, 392.8166
848.4823, 394.6083
848.9644, 395.9818
849.4465, 395.5215
849.9286, 393.9574
850.4108, 393.5684
850.8929, 395.3225
851.3750, 396.8946
851.8571, 398.0666
852.3392, 398.2076
852.8214, 396.7526
853.3035, 393.8735
853.7856, 389.0044
854.2677, 382.3363
854.7498, 377.5617
855.2319, 379.4829
855.7141, 385.1355
856.1962, 387.7589
856.6783, 387.7103
857.1604, 387.8942
857.6425, 389.1083
858.1246, 388.8012
858.6068, 384.0812
859.0889, 377.1152
859.5710, 376.7472
860.0531, 387.3341
860.5352, 392.9182
861.0173, 390.1859
861.4995, 385.9826
861.9816, 383.2826
862.4637, 380.9415
862.9458, 376.5740
863.4279, 369.7398
863.9100, 366.3835
864.3922, 372.5195
864.8743, 377.3289
865.3564, 372.4017
865.8385, 364.6130
866.3206, 362.1068
866.8027, 365.4016
867.2849, 371.2895
867.7670, 378.8645
868.2491, 384.5431
868.7312, 381.5188
869.2133, 373.1400
869.6954, 369.3510
870.1776, 370.6343
870.6597, 372.2436
871.1418, 372.1108
871.6239, 370.8263
872.1060, 369.1320
872.5881, 367.0328
873.0703, 364.3918
873.5524, 359.7414
874.0345, 358.6043
874.5166, 366.1418
874.9987, 373.0631
875.4808, 369.7936
875.9630, 359.9425
876.4451, 354.1438
876.9272, 354.0575
877.4093, 355.7816
877.8914, 361.6089
878.3735, 365.8869
878.8557, 363.8983
879.3378, 358.6060
879.8199, 354.5089
880.3020, 352.6741
880.7841, 352.0432
881.2662, 353.7542
881.7484, 354.5083
882.2305, 347.3145
882.7126, 336.5606
883.1947, 333.2856
883.6768, 338.6980
884.1589, 347.2919
884.6411, 356.0078
885.1232, 362.6748
885.6053, 361.3369
886.0874, 351.6688
886.5695, 347.6854
887.0516, 351.3625
887.5338, 353.6575
888.0159, 350.4346
888.4980, 345.4424
888.9801, 342.6995
889.4622, 342.2100
889.9443, 344.0141
890.4265, 353.8154
890.9086, 357.6722
891.3907, 347.6634
891.8728, 337.8112
892.3549, 337.8268
892.8370, 344.0494
893.3192, 349.3456
893.8013, 352.5164
894.2834, 351.7651
894.7655, 340.0822
895.2476, 329.9520
895.7297, 335.4576
896.2119, 348.4684
896.6940, 354.1551
897.1761, 350.5766
897.6582, 346.6598
898.1403, 348.9602
898.6224, 353.1797
899.1046, 351.7768
899.5867, 346.0341
900.0688, 341.4054
900.5509, 338.4111
901.0330, 336.1131
901.5151, 333.8259
901.9973, 333.4452
902.4794, 338.5824
902.9615, 349.2491
903.4436, 354.3393
903.9257, 351.2539
904.4078, 349.6778
904.8900, 354.3329
905.3721, 357.4750
905.8542, 350.5075
906.3363, 337.5129
906.8184, 331.3404
907.3005, 334.8436
907.7827, 338.6862
908.2648, 341.7521
908.7469, 344.8945
909.2290, 349.8319
909.7111, 354.3181
910.1932, 355.1165
910.6754, 352.2527
911.1575, 349.1107
911.6396, 346.8436
912.1217, 345.6203
912.6038, 345.9561
913.0859, 347.1914
913.5681, 349.1993
914.0502, 351.2436
914.5323, 350.4805
915.0144, 345.7659
915.4965, 341.8744
915.9786, 346.2082
916.4607, 355.7570
916.9428, 359.2681
917.4249, 357.1766
917.9070, 354.8813
918.3892, 353.5569
918.8713, 354.1481
919.3534, 358.0465
919.8355, 363.3134
920.3176, 363.5323
920.7997, 356.8351
921.2819, 352.0262
921.7640, 349.4030
922.2461, 348.3602
922.7282, 349.5133
923.2103, 351.4376
923.6924, 352.3187
924.1746, 352.2265
924.6567, 352.4848
925.1388, 353.3500
925.6209, 354.2765
926.1030, 355.6681
926.5851, 356.6016
927.0673, 356.0271
927.5494, 354.6843
928.0315, 354.3010
928.5136, 355.3523
928.9957, 355.0952
929.4778, 350.5039
929.9600, 345.6277
930.4421, 342.9262
930.9242, 342.5279
931.4063, 345.0655
931.8884, 350.0499
932.3705, 355.9382
932.8527, 362.1889
933.3348, 366.8613
933.8169, 366.0502
934.2990, 362.0115
934.7811, 362.4443
935.2632, 366.4622
935.7454, 364.2114
936.2275, 352.4159
936.7096, 340.8181
937.1917, 339.1592
937.6738, 345.1057
938.1559, 350.2893
938.6381, 354.8329
939.1202, 357.0580
939.6023, 356.1302
940.0844, 354.9908
940.5665, 354.9312
941.0486, 355.7752
941.5308, 357.4765
942.0129, 360.2226
942.4950, 361.7863
942.9771, 361.3755
943.4592, 360.9750
943.9413, 360.8614
944.4235, 360.8390
944.9056, 359.8326
945.3877, 359.0441
945.8698, 361.7504
946.3519, 369.7044
946.8340, 374.9220
947.3162, 373.0740
947.7983, 370.6355
948.2804, 369.9363
948.7625, 371.1715
949.2446, 375.9277
949.7267, 382.8241
950.2089, 386.3792
950.6910, 382.8191
951.1731, 379.9209
951.6552, 384.8702
952.1373, 393.1331
952.6194, 399.0333
953.1016, 403.3997
953.5837, 410.7833
954.0658, 421.5602
954.5479, 428.3871
955.0300, 423.5966
955.5121, 414.5568
955.9943, 415.7151
956.4764, 424.5559
956.9585, 430.8864
957.4406, 433.8388
957.9227, 437.0226
958.4048, 441.9799
958.8870, 449.8030
959.3691, 462.4745
959.8512, 479.3116
960.3333, 494.4004
960.8154, 507.1022
961.2975, 522.6635
961.7797, 542.5472
962.2618, 563.1176
962.7439, 581.1364
963.2260, 599.0681
963.7081, 622.2538
964.1902, 651.4751
964.6724, 682.8823
965.1545, 727.8334
965.6366, 755.8633
966.1187, 757.8163
966.6008, 742.3082
967.0829, 711.0326
967.5651, 668.1174
968.0472, 625.3007
968.5293, 579.1649
969.0114, 543.7639
969.4935, 528.2802
969.9756, 515.1132
970.4578, 496.1959
970.9399, 475.6497
971.4220, 456.9892
971.9041, 441.1637
972.3862, 429.7031
972.8683, 424.2464
973.3505, 420.8188
973.8326, 418.8129
974.3147, 416.6297
974.7968, 411.0652
975.2789, 404.9685
975.7610, 404.6216
976.2432, 410.4053
976.7253, 415.0327
977.2074, 413.1399
977.6895, 409.1683
978.1716, 407.5429
978.6537, 407.3884
979.1359, 407.8190
979.6180, 408.2767
980.1001, 406.4932
980.5822, 401.9545
981.0643, 399.6708
981.5464, 406.2054
982.0286, 416.9215
982.5107, 420.5187
982.9928, 418.3376
983.4749, 416.5839
983.9570, 416.1622
984.4391, 416.0870
984.9213, 415.7682
985.4034, 416.5141
985.8855, 421.2769
986.3676, 428.9894
986.8497, 428.8369
987.3318, 419.8436
987.8140, 414.3246
988.2961, 414.6494
988.7782, 419.2195
989.2603, 428.3983
989.7424, 438.6586
990.2245, 442.2559
990.7067, 438.0218
991.1888, 436.7912
991.6709, 439.7112
992.1530, 442.8915
992.6351, 445.8455
993.1172, 448.2020
993.5994, 449.4821
994.0815, 450.0079
994.5636, 450.7829
995.0457, 452.0344
995.5278, 452.8809
996.0099, 451.0959
996.4921, 451.8148
996.9742, 459.7086
997.4563, 467.7830
997.9384, 468.7783
998.4205, 464.8835
998.9026, 464.5400
999.3848, 470.7510
999.8669, 475.3590
1000.349, 475.9215
1000.831, 475.5625
1001.313, 475.4687
1001.795, 475.4523
1002.277, 474.9589
1002.760, 474.2114
1003.242, 474.3856
1003.724, 476.4662
1004.206, 477.9472
1004.688, 474.5573
1005.170, 473.2373
1005.652, 482.7234
1006.134, 496.1101
1006.617, 502.7414
1007.099, 501.6005
1007.581, 498.4988
1008.063, 495.0884
1008.545, 493.7018
1009.027, 497.2588
1009.509, 503.0451
1009.991, 509.4359
1010.473, 514.9930
1010.956, 516.6875
1011.438, 514.2839
1011.920, 510.7314
1012.402, 506.8230
1012.884, 505.6537
1013.366, 513.3939
1013.848, 525.4960
1014.330, 532.8876
1014.813, 536.4303
1015.295, 543.0577
1015.777, 554.2249
1016.259, 560.8658
1016.741, 553.2809
1017.223, 540.7426
1017.705, 542.0601
1018.187, 552.9634
1018.669, 558.3056
1019.152, 557.4836
1019.634, 556.5822
1020.116, 557.9011
1020.598, 560.6164
1021.080, 563.6976
1021.562, 567.8409
1022.044, 576.8691
1022.526, 589.8043
1023.008, 594.5833
1023.491, 590.0120
1023.973, 588.0687
1024.455, 594.1809
1024.937, 600.4156
1025.419, 596.2007
1025.901, 585.7722
1026.383, 591.4556
1026.865, 614.9592
1027.348, 627.1689
1027.830, 623.5161
1028.312, 619.3121
1028.794, 621.4763
1029.276, 625.9651
1029.758, 627.5253
1030.240, 626.8039
1030.722, 628.6246
1031.204, 632.7897
1031.687, 640.8947
1032.169, 654.7299
1032.651, 667.9709
1033.133, 678.3328
1033.615, 685.4055
1034.097, 688.1678
1034.579, 686.8797
1035.061, 684.6865
1035.544, 677.5979
1036.026, 680.9790
1036.508, 703.4422
1036.990, 722.6456
1037.472, 726.3461
1037.954, 723.2887
1038.436, 725.0717
1038.918, 731.4218
1039.401, 734.1257
1039.883, 729.7615
1040.365, 728.1441
1040.847, 731.5510
1041.329, 735.5002
1041.811, 736.7543
1042.293, 738.3894
1042.775, 745.5940
1043.257, 758.1247
1043.740, 766.7828
1044.222, 766.6942
1044.704, 770.2826
1045.186, 781.9250
1045.668, 793.0340
1046.150, 800.5272
1046.632, 805.0521
1047.114, 806.4679
1047.596, 805.1096
1048.079, 804.9699
1048.561, 804.9514
1049.043, 808.3629
1049.525, 818.9792
1050.007, 829.2133
1050.489, 833.8954
1050.971, 837.2396
1051.453, 845.5639
1051.936, 858.2378
1052.418, 867.0627
1052.900, 867.0464
1053.382, 869.4943
1053.864, 877.4716
1054.346, 887.4465
1054.828, 898.3702
1055.310, 909.7612
1055.792, 922.3464
1056.275, 935.3137
1056.757, 944.0312
1057.239, 945.9132
1057.721, 946.7714
1058.203, 947.0295
1058.685, 947.9803
1059.167, 949.5444
1059.649, 952.7325
1060.131, 959.6668
1060.614, 969.4643
1061.096, 978.1369
1061.578, 985.3055
1062.060, 989.3671
1062.542, 983.6019
1063.024, 981.5909
1063.506, 994.8482
1063.988, 1013.395
1064.471, 1027.213
1064.953, 1035.255
1065.435, 1038.646
1065.917, 1036.265
1066.399, 1034.628
1066.881, 1035.555
1067.363, 1038.835
1067.845, 1042.887
1068.328, 1050.309
1068.810, 1069.343
1069.292, 1093.949
1069.774, 1103.867
1070.256, 1090.204
1070.738, 1081.154
1071.220, 1093.512
1071.702, 1108.467
1072.184, 1114.820
1072.667, 1118.422
1073.149, 1124.934
1073.631, 1134.446
1074.113, 1145.367
1074.595, 1157.347
1075.077, 1169.471
1075.559, 1184.508
1076.041, 1195.558
1076.523, 1197.007
1077.006, 1194.078
1077.488, 1187.752
1077.970, 1182.453
1078.452, 1187.180
1078.934, 1204.025
1079.416, 1221.687
1079.898, 1234.939
1080.380, 1248.142
1080.862, 1265.481
1081.345, 1282.188
1081.827, 1296.584
1082.309, 1306.021
1082.791, 1302.527
1083.273, 1286.221
1083.755, 1277.868
1084.237, 1292.239
1084.719, 1307.906
1085.202, 1313.161
1085.684, 1317.136
1086.166, 1328.550
1086.648, 1343.017
1087.130, 1351.992
1087.612, 1355.230
1088.094, 1361.940
1088.576, 1380.755
1089.058, 1393.075
1089.541, 1384.757
1090.023, 1373.612
1090.505, 1366.189
1090.987, 1367.389
1091.469, 1388.853
1091.951, 1425.188
1092.433, 1449.064
1092.915, 1447.279
1093.397, 1446.481
1093.880, 1460.797
1094.362, 1474.745
1094.844, 1477.059
1095.326, 1475.731
1095.808, 1480.116
1096.290, 1489.123
1096.772, 1495.744
1097.254, 1496.904
1097.737, 1502.726
1098.219, 1522.810
1098.701, 1540.381
1099.183, 1545.977
1099.665, 1547.415
1100.147, 1551.953
1100.629, 1558.057
1101.111, 1559.940
1101.594, 1556.037
1102.076, 1556.859
1102.558, 1571.778
1103.040, 1582.758
1103.522, 1577.715
1104.004, 1573.060
1104.486, 1581.853
1104.968, 1598.107
1105.450, 1611.964
1105.932, 1622.354
1106.415, 1631.306
1106.897, 1639.142
1107.379, 1645.558
1107.861, 1648.270
1108.343, 1652.055
1108.825, 1661.035
1109.307, 1671.350
1109.789, 1676.600
1110.272, 1677.960
1110.754, 1685.746
1111.236, 1705.720
1111.718, 1722.694
1112.200, 1736.808
1112.682, 1745.899
1113.164, 1746.694
1113.646, 1744.425
1114.129, 1739.877
1114.611, 1736.238
1115.093, 1745.343
1115.575, 1774.606
1116.057, 1793.902
1116.539, 1798.811
1117.021, 1800.290
1117.503, 1795.398
1117.985, 1793.692
1118.468, 1803.283
1118.950, 1819.129
1119.432, 1831.933
1119.914, 1841.504
1120.396, 1850.074
1120.878, 1856.143
1121.360, 1864.401
1121.842, 1875.255
1122.324, 1889.030
1122.807, 1909.527
1123.289, 1927.980
1123.771, 1931.492
1124.253, 1922.441
1124.735, 1920.948
1125.217, 1928.297
1125.699, 1939.615
1126.181, 1957.269
1126.664, 1969.783
1127.146, 1970.081
1127.628, 1972.614
1128.110, 1991.720
1128.592, 2021.602
1129.074, 2046.179
1129.556, 2065.488
1130.038, 2075.896
1130.521, 2075.170
1131.003, 2083.031
1131.485, 2105.629
1131.967, 2125.054
1132.449, 2128.239
1132.931, 2128.478
1133.413, 2149.644
1133.895, 2187.709
1134.377, 2213.005
1134.859, 2226.240
1135.342, 2245.566
1135.824, 2273.235
1136.306, 2296.129
1136.788, 2308.403
1137.270, 2317.677
1137.752, 2332.336
1138.234, 2348.862
1138.716, 2356.852
1139.199, 2359.026
1139.681, 2367.791
1140.163, 2382.795
1140.645, 2395.878
1141.127, 2405.439
1141.609, 2419.782
1142.091, 2444.990
1142.573, 2475.056
1143.056, 2505.126
1143.538, 2531.884
1144.020, 2543.860
1144.502, 2547.986
1144.984, 2564.178
1145.466, 2592.110
1145.948, 2615.608
1146.430, 2627.930
1146.912, 2637.997
1147.395, 2650.387
1147.877, 2668.286
1148.359, 2700.466
1148.841, 2736.960
1149.323, 2764.150
1149.805, 2783.750
1150.287, 2800.868
1150.769, 2817.849
1151.251, 2839.400
1151.734, 2869.457
1152.216, 2900.642
1152.698, 2929.666
1153.180, 2955.990
1153.662, 2973.515
1154.144, 2991.517
1154.626, 3026.947
1155.108, 3073.793
1155.591, 3106.384
1156.073, 3114.606
1156.555, 3129.833
1157.037, 3168.469
1157.519, 3209.060
1158.001, 3244.539
1158.483, 3277.185
1158.965, 3308.235
1159.448, 3338.390
1159.930, 3366.731
1160.412, 3393.408
1160.894, 3428.307
1161.376, 3483.315
1161.858, 3529.302
1162.340, 3558.719
1162.822, 3584.942
1163.304, 3608.487
1163.786, 3634.838
1164.269, 3669.606
1164.751, 3711.344
1165.233, 3756.531
1165.715, 3807.708
1166.197, 3849.797
1166.679, 3877.770
1167.161, 3911.536
1167.643, 3958.164
1168.126, 4002.670
1168.608, 4034.659
1169.090, 4063.155
1169.572, 4101.230
1170.054, 4148.729
1170.536, 4205.064
1171.018, 4271.163
1171.500, 4328.525
1171.983, 4375.560
1172.465, 4417.473
1172.947, 4455.865
1173.429, 4495.497
1173.911, 4540.723
1174.393, 4588.140
1174.875, 4630.051
1175.357, 4669.277
1175.839, 4718.785
1176.322, 4776.223
1176.804, 4830.942
1177.286, 4881.757
1177.768, 4932.273
1178.250, 4984.353
1178.732, 5036.718
1179.214, 5087.965
1179.696, 5139.604
1180.178, 5198.649
1180.661, 5256.790
1181.143, 5297.053
1181.625, 5326.652
1182.107, 5361.604
1182.589, 5405.317
1183.071, 5454.358
1183.553, 5508.435
1184.035, 5561.245
1184.518, 5610.901
1185.000, 5655.168
1185.482, 5684.675
1185.964, 5714.417
1186.446, 5761.330
1186.928, 5820.957
1187.410, 5881.989
1187.892, 5942.510
1188.375, 5997.206
1188.857, 6040.985
1189.339, 6084.320
1189.821, 6128.751
1190.303, 6174.110
1190.785, 6229.902
1191.267, 6279.253
1191.749, 6299.458
1192.231, 6298.789
1192.714, 6309.216
1193.196, 6331.419
1193.678, 6363.517
1194.160, 6411.313
1194.642, 6452.820
1195.124, 6482.156
1195.606, 6508.750
1196.088, 6536.888
1196.570, 6567.843
1197.053, 6603.997
1197.535, 6643.981
1198.017, 6683.149
1198.499, 6721.247
1198.981, 6744.261
1199.463, 6752.561
1199.945, 6777.210
1200.427, 6826.413
1200.910, 6870.162
1201.392, 6887.370
1201.874, 6894.249
1202.356, 6914.839
1202.838, 6941.622
1203.320, 6956.122
1203.802, 6964.731
1204.284, 6977.577
1204.766, 6999.364
1205.249, 7043.634
1205.731, 7110.994
1206.213, 7170.580
1206.695, 7204.419
1207.177, 7222.407
1207.659, 7224.241
1208.141, 7221.387
1208.623, 7214.962
1209.105, 7216.343
1209.588, 7245.617
1210.070, 7293.836
1210.552, 7332.347
1211.034, 7354.650
1211.516, 7372.322
1211.998, 7380.510
1212.480, 7395.846
1212.962, 7426.668
1213.445, 7460.514
1213.927, 7486.995
1214.409, 7516.621
1214.891, 7565.096
1215.373, 7626.154
1215.855, 7670.736
1216.337, 7693.136
1216.819, 7723.133
1217.302, 7762.189
1217.784, 7803.988
1218.266, 7849.029
1218.748, 7887.534
1219.230, 7913.450
1219.712, 7935.007
1220.194, 7962.676
1220.676, 7995.376
1221.158, 8028.658
1221.641, 8064.022
1222.123, 8111.493
1222.605, 8168.871
1223.087, 8224.717
1223.569, 8275.250
1224.051, 8312.987
1224.533, 8332.677
1225.015, 8360.861
1225.497, 8430.384
1225.980, 8517.194
1226.462, 8606.806
1226.944, 8686.081
1227.426, 8722.845
1227.908, 8742.526
1228.390, 8795.099
1228.872, 8887.761
1229.354, 8999.284
1229.837, 9136.125
1230.319, 9251.532
1230.801, 9325.357
1231.283, 9380.100
1231.765, 9407.297
1232.247, 9436.998
1232.729, 9490.321
1233.211, 9563.184
1233.693, 9645.672
1234.176, 9738.098
1234.658, 9850.135
1235.140, 9993.945
1235.622, 10122.65
1236.104, 10234.94
1236.586, 10324.48
1237.068, 10380.41
1237.550, 10458.97
1238.032, 10604.45
1238.515, 10776.16
1238.997, 10904.35
1239.479, 11001.44
1239.961, 11116.90
1240.443, 11249.37
1240.925, 11400.89
1241.407, 11562.98
1241.889, 11697.41
1242.372, 11797.33
1242.854, 11894.34
1243.336, 12004.83
1243.818, 12138.79
1244.300, 12314.42
1244.782, 12509.83
1245.264, 12714.85
1245.746, 12918.85
1246.229, 13106.19
1246.711, 13283.83
1247.193, 13463.15
1247.675, 13646.38
1248.157, 13838.54
1248.639, 14040.42
1249.121, 14252.36
1249.603, 14488.05
1250.085, 14713.54
1250.568, 14894.87
1251.050, 15090.38
1251.532, 15349.66
1252.014, 15638.44
1252.496, 15899.50
1252.978, 16136.60
1253.460, 16390.62
1253.942, 16662.27
1254.424, 16955.46
1254.907, 17271.06
1255.389, 17586.79
1255.871, 17894.87
1256.353, 18204.23
1256.835, 18518.98
1257.317, 18845.16
1257.799, 19189.92
1258.281, 19555.24
1258.764, 19956.42
1259.246, 20373.55
1259.728, 20765.64
1260.210, 21148.86
1260.692, 21561.39
1261.174, 22009.97
1261.656, 22489.77
1262.138, 23004.05
1262.620, 23510.39
1263.103, 23961.41
1263.585, 24434.67
1264.067, 24975.47
1264.549, 25538.26
1265.031, 26097.56
1265.513, 26660.39
1265.995, 27231.20
1266.477, 27814.20
1266.959, 28442.09
1267.442, 29121.01
1267.924, 29834.04
1268.406, 30587.12
1268.888, 31356.70
1269.370, 32134.20
1269.852, 32946.04
1270.334, 33801.61
1270.816, 34678.05
1271.299, 35548.97
1271.781, 36428.84
1272.263, 37360.42
1272.745, 38324.46
1273.227, 39254.46
1273.709, 40186.11
1274.191, 41224.14
1274.673, 42361.93
1275.156, 43528.30
1275.638, 44695.27
1276.120, 45889.19
1276.602, 47121.89
1277.084, 48388.78
1277.566, 49685.79
1278.048, 51011.48
1278.530, 52351.04
1279.012, 53723.44
1279.495, 55139.72
1279.977, 56591.34
1280.459, 58043.35
1280.941, 59485.68
1281.423, 61015.83
1281.905, 62653.66
1282.387, 64320.00
1282.869, 66004.93
1283.351, 67715.23
1283.834, 69462.70
1284.316, 71209.38
1284.798, 72934.12
1285.280, 74633.77
1285.762, 76315.99
1286.244, 78028.68
##END=



