##NAMES=Fluorite
##RRUFFID=R050115
##IDEAL CHEMISTRY=CaF_2_
##LOCALITY=Isthak Valley Iskardu, N.A. Gilgit, Pakistan
##OWNER=RRUFF
##SOURCE=Syed Shah
##DESCRIPTION=Colorless fragment
##STATUS=The identification of this mineral has been confirmed by X-ray diffraction and chemical analysis
##URL=rruff.info/R050115
##MEASURED CHEMISTRY=CaF_2_
80.48071, 0.0000000E+00
80.96282, 9.415283
81.44494, 65.45251
81.92706, 190.4668
82.40917, 348.6859
82.89129, 527.1785
83.37341, 730.2255
83.85552, 946.9070
84.33764, 1192.329
84.81976, 1469.484
85.30187, 1758.560
85.78399, 2024.444
86.26611, 2273.278
86.74822, 2518.841
87.23034, 2773.290
87.71246, 3061.061
88.19457, 3413.623
88.67669, 3826.091
89.15881, 4257.649
89.64092, 4658.993
90.12304, 4985.661
90.60516, 5234.579
91.08727, 5432.413
91.56938, 5597.987
92.05150, 5760.211
92.53362, 5927.166
93.01573, 6110.150
93.49785, 6336.645
93.97997, 6645.454
94.46208, 7055.238
94.94420, 7592.250
95.42632, 8248.438
95.90843, 9024.948
96.39055, 9819.920
96.87267, 10506.45
97.35478, 11001.63
97.83690, 11269.60
98.31902, 11245.36
98.80113, 10858.28
99.28325, 10238.12
99.76537, 9606.559
100.2475, 9008.094
100.7296, 8426.249
101.2117, 7837.244
101.6938, 7232.866
102.1759, 6637.381
102.6581, 6058.777
103.1402, 5496.516
103.6223, 4950.719
104.1044, 4423.132
104.5865, 3911.422
105.0686, 3409.536
105.5508, 2915.273
106.0329, 2432.863
106.5150, 1961.528
106.9971, 1492.604
107.4792, 1048.176
107.9613, 632.5181
108.4435, 248.1375
108.9256, 123.3718
109.4077, 485.1841
109.8898, 828.8843
110.3719, 1154.240
110.8540, 1499.119
111.3362, 1792.010
111.8183, 2011.578
112.3004, 2148.638
112.7825, 2235.003
113.2646, 2267.394
113.7467, 2249.799
114.2289, 2196.316
114.7110, 2122.479
115.1931, 2006.277
115.6752, 1826.641
116.1573, 1579.720
116.6394, 1274.928
117.1216, 927.5898
117.6037, 533.3740
118.0858, 58.81543
118.5679, 475.0166
119.0500, 1109.121
119.5321, 1894.231
120.0143, 2836.594
120.4964, 3945.928
120.9785, 5234.031
121.4606, 6703.303
121.9427, 8345.285
122.4248, 10173.59
122.9070, 12161.06
123.3891, 14214.20
123.8712, 16329.59
124.3533, 18467.85
124.8354, 20567.07
125.3175, 22617.21
125.7996, 24627.30
126.2818, 26620.99
126.7639, 28617.13
127.2460, 30535.36
127.7281, 32338.89
128.2102, 34055.17
128.6924, 35779.11
129.1745, 37506.97
129.6566, 39268.16
130.1387, 41163.42
130.6208, 43190.48
131.1029, 45287.84
131.5850, 47439.15
132.0672, 49655.71
132.5493, 51839.00
133.0314, 54044.38
133.5135, 56264.22
133.9956, 58204.10
134.4777, 59827.00
134.9599, 61188.31
135.4420, 62363.93
135.9241, 63365.12
136.4062, 64111.89
136.8883, 64510.54
137.3704, 64497.28
137.8526, 64430.69
138.3347, 64427.30
138.8168, 64390.16
139.2989, 64269.52
139.7810, 63977.13
140.2631, 63740.05
140.7453, 63750.82
141.2274, 64060.23
141.7095, 64499.27
142.1916, 65029.11
142.6737, 65659.31
143.1558, 66415.49
143.6380, 67375.10
144.1201, 68424.91
144.6022, 69440.76
145.0843, 70284.50
145.5664, 70226.13
146.0485, 70217.94
146.5307, 70304.18
147.0128, 70402.36
147.4949, 70561.91
147.9770, 70735.87
148.4591, 70781.61
148.9412, 70686.05
149.4234, 70487.42
149.9055, 70199.67
150.3876, 69839.80
150.8697, 69387.46
151.3518, 68840.65
151.8339, 68205.50
152.3161, 67503.02
152.7982, 66706.59
153.2803, 65861.75
153.7624, 64999.79
154.2445, 64147.44
154.7266, 63258.84
155.2087, 62310.94
155.6909, 61301.96
156.1730, 60302.09
156.6551, 59311.96
157.1372, 58345.25
157.6193, 57410.05
158.1014, 56480.29
158.5836, 55602.20
159.0657, 54798.53
159.5478, 54086.99
160.0299, 53401.79
160.5120, 52714.12
160.9941, 52030.70
161.4763, 51370.59
161.9584, 50766.29
162.4405, 50169.63
162.9226, 49548.73
163.4047, 48897.52
163.8868, 48217.32
164.3690, 47491.54
164.8511, 46728.49
165.3332, 45968.60
165.8153, 45219.06
166.2974, 44488.78
166.7795, 43786.54
167.2617, 43189.43
167.7438, 42571.37
168.2259, 41813.36
168.7080, 40920.20
169.1901, 40022.18
169.6722, 39223.44
170.1544, 38487.35
170.6365, 37747.47
171.1186, 36968.57
171.6007, 36181.26
172.0828, 35406.61
172.5649, 34644.98
173.0471, 33906.64
173.5292, 33196.71
174.0113, 32523.47
174.4934, 31904.89
174.9755, 31374.86
175.4576, 30889.32
175.9397, 30384.19
176.4219, 29826.17
176.9040, 29275.05
177.3861, 28807.19
177.8682, 28413.88
178.3503, 28041.32
178.8324, 27641.83
179.3146, 27234.27
179.7967, 26862.30
180.2788, 26530.10
180.7609, 26241.75
181.2430, 26015.93
181.7251, 25850.55
182.2073, 25711.80
182.6894, 25606.48
183.1715, 25515.41
183.6536, 25343.35
184.1357, 25018.25
184.6178, 24606.55
185.1000, 24286.36
185.5821, 24065.16
186.0642, 23889.05
186.5463, 23701.30
187.0284, 23504.13
187.5105, 23325.68
187.9927, 23170.18
188.4748, 23037.56
188.9569, 22960.76
189.4390, 22956.06
189.9211, 22952.93
190.4032, 22817.11
190.8854, 22542.42
191.3675, 22304.52
191.8496, 22247.50
192.3317, 22349.61
192.8138, 22297.49
193.2959, 22027.72
193.7781, 21654.70
194.2602, 21435.80
194.7423, 21392.77
195.2244, 21349.25
195.7065, 21183.45
196.1886, 20893.68
196.6708, 20602.98
197.1529, 20316.32
197.6350, 20049.12
198.1171, 19859.55
198.5992, 19762.83
199.0813, 19695.61
199.5634, 19593.15
200.0456, 19445.71
200.5277, 19360.70
201.0098, 19368.80
201.4919, 19461.64
201.9740, 19555.12
202.4561, 19641.73
202.9383, 19741.00
203.4204, 19874.23
203.9025, 20045.05
204.3846, 20229.38
204.8667, 20412.00
205.3488, 20592.67
205.8310, 20810.58
206.3131, 21058.95
206.7952, 21350.98
207.2773, 21716.59
207.7594, 22176.00
208.2415, 22646.91
208.7237, 23086.53
209.2058, 23479.07
209.6879, 23936.15
210.1700, 24471.69
210.6521, 25062.79
211.1342, 25661.60
211.6164, 26244.62
212.0985, 26876.91
212.5806, 27597.90
213.0627, 28427.89
213.5448, 29250.93
214.0269, 30041.92
214.5091, 30838.59
214.9912, 31761.94
215.4733, 32835.85
215.9554, 33965.66
216.4375, 35096.75
216.9196, 36167.19
217.4018, 37341.90
217.8839, 38659.78
218.3660, 40084.90
218.8481, 41528.47
219.3302, 42988.01
219.8123, 44448.88
220.2945, 45870.91
220.7766, 47198.22
221.2587, 48618.22
221.7408, 50160.12
222.2229, 51828.96
222.7050, 53473.03
223.1871, 55087.83
223.6693, 56703.27
224.1514, 58377.03
224.6335, 60136.47
225.1156, 61876.16
225.5977, 63609.41
226.0798, 65320.33
226.5620, 67021.30
227.0441, 68708.52
227.5262, 70368.03
228.0083, 72028.12
228.4904, 73773.69
228.9725, 75340.80
229.4547, 76643.37
229.9368, 77650.42
230.4189, 78637.84
230.9010, 79680.59
231.3831, 80659.17
231.8652, 81418.38
232.3474, 81948.41
232.8295, 82298.11
233.3116, 82469.74
233.7937, 82445.09
234.2758, 82310.48
234.7579, 82090.58
235.2401, 81743.10
235.7222, 81179.88
236.2043, 80317.65
236.6864, 79355.61
237.1685, 78352.40
237.6507, 77297.91
238.1328, 76231.09
238.6149, 75166.40
239.0970, 74083.89
239.5791, 72942.66
240.0612, 71750.46
240.5434, 70494.85
241.0255, 69175.55
241.5076, 67742.85
241.9897, 66350.62
242.4718, 65007.27
242.9539, 63708.69
243.4360, 62434.74
243.9182, 61186.80
244.4003, 59949.73
244.8824, 58702.80
245.3645, 57418.41
245.8466, 56221.73
246.3287, 55126.83
246.8109, 54122.02
247.2930, 53160.73
247.7751, 52261.02
248.2572, 51385.38
248.7393, 50514.70
249.2214, 49663.06
249.7036, 48801.37
250.1857, 47923.95
250.6678, 47045.12
251.1499, 46183.14
251.6320, 45362.53
252.1141, 44535.06
252.5963, 43662.29
253.0784, 42683.30
253.5605, 41760.98
254.0426, 40918.99
254.5247, 40152.60
255.0068, 39361.77
255.4890, 38552.27
255.9711, 37702.83
256.4532, 36765.55
256.9353, 35654.61
257.4174, 34652.56
257.8995, 33825.79
258.3817, 33172.12
258.8638, 32458.93
259.3459, 31668.41
259.8280, 30844.27
260.3101, 30005.96
260.7922, 29154.86
261.2744, 28295.79
261.7565, 27428.93
262.2386, 26545.16
262.7207, 25751.40
263.2028, 25069.60
263.6849, 24427.67
264.1671, 23740.08
264.6492, 22997.77
265.1313, 22241.78
265.6134, 21483.71
266.0955, 20724.05
266.5776, 20000.79
267.0598, 19332.92
267.5419, 18683.55
268.0240, 17985.84
268.5061, 17212.79
268.9882, 16522.60
269.4703, 15993.49
269.9525, 15621.69
270.4346, 15155.88
270.9167, 14577.51
271.3988, 13932.40
271.8809, 13259.64
272.3630, 12555.27
272.8452, 11866.95
273.3273, 11214.12
273.8094, 10600.45
274.2915, 9984.281
274.7736, 9360.117
275.2557, 8747.820
275.7379, 8182.305
276.2200, 7665.031
276.7021, 7183.500
277.1842, 6736.133
277.6663, 6326.180
278.1484, 5929.930
278.6305, 5543.828
279.1126, 5181.992
279.5948, 4881.641
280.0769, 4646.031
280.5590, 4406.102
281.0411, 4131.422
281.5232, 3823.703
282.0053, 3533.953
282.4875, 3267.180
282.9696, 2994.992
283.4517, 2652.172
283.9338, 2239.023
284.4159, 1881.883
284.8980, 1661.656
285.3802, 1554.117
285.8623, 1425.703
286.3444, 1274.633
286.8265, 1109.500
287.3086, 946.3516
287.7907, 784.0234
288.2729, 599.0938
288.7550, 387.9062
289.2371, 148.8516
289.7192, 143.6719
290.2013, 500.8438
290.6834, 847.7031
291.1656, 1074.914
291.6477, 1198.727
292.1298, 1301.367
292.6119, 1435.266
293.0940, 1576.328
293.5761, 1659.938
294.0583, 1680.000
294.5404, 1670.500
295.0225, 1665.102
295.5046, 1662.711
295.9867, 1656.055
296.4688, 1625.430
296.9510, 1593.141
297.4331, 1602.195
297.9152, 1656.547
298.3973, 1735.234
298.8794, 1826.078
299.3615, 1924.820
299.8437, 2024.508
300.3258, 2155.898
300.8079, 2271.039
301.2900, 2298.055
301.7721, 2226.727
302.2542, 2118.062
302.7364, 2024.625
303.2185, 1933.820
303.7006, 1818.633
304.1827, 1678.172
304.6648, 1501.859
305.1469, 1269.195
305.6291, 975.6406
306.1112, 670.8047
306.5933, 353.6953
307.0754, 52.88281
307.5575, 178.0078
308.0396, 320.3359
308.5218, 382.7734
309.0039, 339.1641
309.4860, 181.3359
309.9681, 40.17969
310.4502, 9.101563
310.9323, 8.132813
311.4145, 56.10938
311.8966, 111.0625
312.3787, 201.2500
312.8608, 336.3984
313.3429, 516.4375
313.8250, 755.5859
314.3072, 1129.836
314.7893, 1545.680
315.2714, 1895.789
315.7535, 1969.312
316.2356, 2119.531
316.7177, 2550.211
317.1999, 3289.945
317.6820, 3959.750
318.1641, 4424.453
318.6462, 4776.820
319.1283, 5102.352
319.6104, 5446.602
320.0926, 5743.695
320.5747, 6006.430
321.0568, 6241.031
321.5389, 6323.102
322.0210, 6176.414
322.5031, 5897.094
322.9852, 5570.172
323.4673, 5140.453
323.9495, 4734.305
324.4316, 4372.680
324.9137, 4057.227
325.3958, 3771.992
325.8779, 3507.547
326.3600, 3282.016
326.8422, 3109.281
327.3243, 3009.602
327.8064, 2936.453
328.2885, 2887.562
328.7706, 2861.289
329.2527, 2838.023
329.7349, 2795.266
330.2170, 2776.703
330.6991, 2815.305
331.1812, 2928.500
331.6633, 3065.039
332.1454, 3219.648
332.6276, 3388.852
333.1097, 3565.273
333.5918, 3761.609
334.0739, 3943.227
334.5560, 4088.336
335.0381, 4190.289
335.5203, 4275.852
336.0024, 4334.969
336.4845, 4383.117
336.9666, 4485.242
337.4487, 4665.562
337.9308, 4850.375
338.4130, 4984.102
338.8951, 5054.195
339.3772, 5164.688
339.8593, 5332.891
340.3414, 5535.398
340.8235, 5714.125
341.3057, 5865.805
341.7878, 6025.781
342.2699, 6227.312
342.7520, 6462.859
343.2341, 6643.398
343.7162, 6738.492
344.1984, 6808.312
344.6805, 6984.648
345.1626, 7258.852
345.6447, 7491.344
346.1268, 7578.102
346.6089, 7562.320
347.0911, 7560.000
347.5732, 7577.625
348.0553, 7600.836
348.5374, 7614.109
349.0195, 7625.469
349.5016, 7652.297
349.9838, 7759.734
350.4659, 7868.875
350.9480, 7834.508
351.4301, 7634.812
351.9122, 7427.773
352.3943, 7361.586
352.8765, 7394.680
353.3586, 7440.289
353.8407, 7468.812
354.3228, 7485.922
354.8049, 7498.523
355.2870, 7504.859
355.7692, 7478.672
356.2513, 7355.703
356.7334, 7199.297
357.2155, 7093.625
357.6976, 7139.602
358.1797, 7183.055
358.6619, 7149.375
359.1440, 7040.734
359.6261, 6897.547
360.1082, 6673.617
360.5903, 6450.992
361.0724, 6304.773
361.5546, 6356.414
362.0367, 6387.859
362.5188, 6335.703
363.0009, 6208.406
363.4830, 6072.820
363.9651, 5905.070
364.4473, 5757.641
364.9294, 5662.203
365.4115, 5692.422
365.8936, 5680.328
366.3757, 5596.211
366.8578, 5446.797
367.3399, 5280.875
367.8221, 5086.586
368.3042, 4894.641
368.7863, 4721.484
369.2684, 4584.633
369.7505, 4445.172
370.2326, 4310.047
370.7148, 4178.656
371.1969, 4042.758
371.6790, 3899.016
372.1611, 3768.938
372.6432, 3654.219
373.1253, 3544.875
373.6075, 3475.086
374.0896, 3466.672
374.5717, 3474.836
375.0538, 3411.023
375.5359, 3256.305
376.0180, 3110.117
376.5002, 3014.609
376.9823, 2965.953
377.4644, 2897.023
377.9465, 2802.820
378.4286, 2697.844
378.9107, 2598.406
379.3929, 2503.289
379.8750, 2411.719
380.3571, 2334.680
380.8392, 2258.953
381.3213, 2141.727
381.8034, 1983.078
382.2856, 1807.609
382.7677, 1629.148
383.2498, 1452.852
383.7319, 1285.961
384.2140, 1117.539
384.6961, 972.6562
385.1783, 905.2188
385.6604, 906.1016
386.1425, 898.3594
386.6246, 840.4844
387.1067, 740.7891
387.5888, 602.5000
388.0710, 394.3828
388.5531, 202.5391
389.0352, 89.49219
389.5173, 42.95312
389.9994, 26.83594
390.4815, 48.43750
390.9637, 77.75781
391.4458, 93.52344
391.9279, 86.76562
392.4100, 75.56250
392.8921, 52.32812
393.3742, 27.55469
393.8564, 20.45312
394.3385, 104.5469
394.8206, 143.6797
395.3027, 58.23438
395.7848, 211.8047
396.2669, 393.4297
396.7491, 399.4219
397.2312, 327.3125
397.7133, 288.1484
398.1954, 281.8281
398.6775, 306.3203
399.1596, 370.2188
399.6418, 472.9531
400.1239, 554.8359
400.6060, 623.2578
401.0881, 656.7578
401.5702, 629.9922
402.0523, 520.5000
402.5345, 410.7734
403.0166, 305.4141
403.4987, 210.0938
403.9808, 158.7500
404.4629, 170.2422
404.9450, 174.1016
405.4272, 123.7344
405.9093, 20.19531
406.3914, 96.46875
406.8735, 223.8047
407.3556, 352.3125
407.8377, 479.2656
408.3199, 602.4922
408.8020, 676.6172
409.2841, 653.3828
409.7662, 563.3516
410.2483, 497.9062
410.7304, 467.4219
411.2126, 438.8516
411.6946, 362.5859
412.1768, 260.2891
412.6589, 185.3906
413.1410, 190.8203
413.6231, 222.2031
414.1052, 225.4297
414.5873, 200.9141
415.0695, 160.5781
415.5516, 74.31250
416.0337, 8.976563
416.5158, 31.63281
416.9979, 123.1094
417.4800, 246.0469
417.9622, 200.9766
418.4443, 24.02344
418.9264, 109.2500
419.4085, 130.0391
419.8906, 94.67969
420.3727, 33.69531
420.8549, 75.99219
421.3370, 165.1172
421.8191, 220.2344
422.3012, 244.4688
422.7833, 243.3828
423.2654, 182.3281
423.7476, 126.8984
424.2297, 99.46875
424.7118, 112.0938
425.1939, 102.2969
425.6760, 42.53125
426.1581, 16.67969
426.6403, 2.125000
427.1224, 125.1953
427.6045, 229.1797
428.0866, 269.7344
428.5687, 256.1250
429.0508, 274.6406
429.5330, 334.4297
430.0151, 405.7734
430.4972, 467.0000
430.9793, 518.1016
431.4614, 559.6875
431.9435, 588.8359
432.4257, 608.9453
432.9078, 615.1172
433.3899, 608.2578
433.8720, 625.5703
434.3541, 688.2500
434.8362, 790.7188
435.3184, 928.9688
435.8005, 1107.703
436.2826, 1298.930
436.7647, 1487.352
437.2468, 1669.766
437.7289, 1834.789
438.2111, 1953.234
438.6932, 2073.766
439.1753, 2246.734
439.6574, 2477.703
440.1395, 2697.305
440.6216, 2873.352
441.1038, 3018.750
441.5859, 3144.125
442.0680, 3199.211
442.5501, 3289.289
443.0322, 3457.141
443.5143, 3692.898
443.9965, 3931.438
444.4786, 4147.211
444.9607, 4367.250
445.4428, 4610.461
445.9249, 4920.445
446.4070, 5164.555
446.8892, 5315.109
447.3713, 5414.070
447.8534, 5534.359
448.3355, 5666.078
448.8176, 5851.516
449.2997, 6124.922
449.7819, 6493.789
450.2640, 6824.875
450.7461, 7119.352
451.2282, 7382.484
451.7103, 7606.984
452.1924, 7798.977
452.6746, 7998.508
453.1567, 8199.758
453.6388, 8406.078
454.1209, 8684.117
454.6030, 9044.375
455.0851, 9400.047
455.5673, 9670.023
456.0494, 9881.695
456.5315, 10096.78
457.0136, 10305.40
457.4957, 10558.17
457.9778, 10989.27
458.4599, 11518.99
458.9420, 11957.68
459.4242, 12095.73
459.9063, 12187.38
460.3884, 12449.67
460.8705, 12917.77
461.3526, 13352.30
461.8347, 13571.42
462.3169, 13715.70
462.7990, 13935.38
463.2811, 14313.66
463.7632, 14725.88
464.2453, 15192.26
464.7274, 15694.47
465.2096, 16078.43
465.6917, 16158.63
466.1738, 16261.69
466.6559, 16551.40
467.1380, 17187.09
467.6201, 17696.28
468.1023, 18031.57
468.5844, 18265.81
469.0665, 18533.78
469.5486, 18839.80
470.0307, 19155.77
470.5128, 19486.10
470.9950, 19826.08
471.4771, 20091.61
471.9592, 20273.01
472.4413, 20420.88
472.9234, 20576.35
473.4055, 20741.70
473.8877, 20931.05
474.3698, 21165.38
474.8519, 21409.65
475.3340, 21607.12
475.8161, 21762.41
476.2982, 21893.61
476.7804, 21989.56
477.2625, 22079.94
477.7446, 22212.88
478.2267, 22411.11
478.7088, 22586.75
479.1909, 22654.28
479.6731, 22664.11
480.1552, 22696.89
480.6373, 22815.41
481.1194, 22929.46
481.6015, 22998.35
482.0836, 23019.09
482.5658, 23024.10
483.0479, 23012.08
483.5300, 22989.83
484.0121, 22961.82
484.4942, 22933.95
484.9763, 22896.15
485.4585, 22857.78
485.9406, 22811.91
486.4227, 22732.78
486.9048, 22606.58
487.3869, 22484.48
487.8690, 22386.24
488.3512, 22313.93
488.8333, 22269.66
489.3154, 22269.12
489.7975, 22256.30
490.2796, 22150.87
490.7617, 21957.38
491.2439, 21761.14
491.7260, 21568.39
492.2081, 21397.43
492.6902, 21308.06
493.1723, 21291.28
493.6544, 21240.48
494.1366, 21010.15
494.6187, 20727.51
495.1008, 20591.84
495.5829, 20672.56
496.0650, 20771.95
496.5471, 20777.62
497.0293, 20705.35
497.5114, 20582.17
497.9935, 20355.95
498.4756, 20134.23
498.9577, 19976.38
499.4398, 19883.71
499.9220, 19763.75
500.4041, 19532.98
500.8862, 19304.82
501.3683, 19164.36
501.8504, 19220.40
502.3325, 19190.23
502.8146, 19030.66
503.2968, 18785.82
503.7789, 18568.00
504.2610, 18377.07
504.7431, 18207.71
505.2252, 18072.55
505.7073, 17971.67
506.1895, 17828.88
506.6716, 17633.84
507.1537, 17432.87
507.6358, 17283.24
508.1179, 17176.85
508.6000, 17056.30
509.0822, 16896.70
509.5643, 16727.23
510.0464, 16599.27
510.5285, 16503.12
511.0106, 16388.16
511.4927, 16220.27
511.9749, 16019.48
512.4570, 15788.59
512.9391, 15516.08
513.4212, 15288.31
513.9033, 15199.78
514.3854, 15168.70
514.8676, 15091.26
515.3497, 14877.49
515.8318, 14676.80
516.3139, 14535.00
516.7960, 14451.68
517.2781, 14369.74
517.7603, 14304.44
518.2424, 14222.95
518.7245, 14111.30
519.2066, 13980.59
519.6887, 13789.30
520.1708, 13505.42
520.6530, 13190.55
521.1351, 12960.74
521.6172, 12829.70
522.0993, 12690.30
522.5814, 12509.28
523.0635, 12291.98
523.5457, 12060.05
524.0278, 11812.33
524.5099, 11567.83
524.9920, 11354.78
525.4741, 11165.17
525.9562, 10973.91
526.4384, 10766.83
526.9205, 10577.15
527.4026, 10460.72
527.8847, 10400.45
528.3668, 10334.42
528.8489, 10240.07
529.3311, 10121.34
529.8132, 9971.797
530.2953, 9788.969
530.7774, 9626.953
531.2595, 9524.906
531.7416, 9431.375
532.2238, 9312.891
532.7059, 9114.281
533.1880, 8966.320
533.6701, 8896.906
534.1522, 8864.773
534.6343, 8788.867
535.1165, 8654.016
535.5986, 8519.156
536.0807, 8402.781
536.5628, 8301.531
537.0449, 8227.930
537.5270, 8184.703
538.0092, 8118.500
538.4913, 7946.383
538.9734, 7707.203
539.4555, 7544.469
539.9376, 7501.836
540.4197, 7519.305
540.9019, 7527.531
541.3840, 7529.758
541.8661, 7532.656
542.3482, 7578.469
542.8303, 7589.719
543.3124, 7472.594
543.7946, 7219.250
544.2767, 7031.078
544.7588, 7039.641
545.2409, 7101.156
545.7230, 7107.008
546.2051, 7011.516
546.6873, 6897.836
547.1694, 6746.445
547.6515, 6574.711
548.1336, 6436.945
548.6157, 6369.180
549.0978, 6285.203
549.5800, 6160.836
550.0621, 5999.258
550.5442, 5816.391
551.0263, 5616.508
551.5084, 5394.203
551.9905, 5110.148
552.4727, 4786.188
552.9548, 4560.891
553.4369, 4484.508
553.9190, 4474.406
554.4011, 4413.844
554.8832, 4318.109
555.3654, 4233.531
555.8475, 4175.898
556.3296, 4143.984
556.8117, 4146.438
557.2938, 4181.039
557.7759, 4195.320
558.2581, 4142.758
558.7402, 4065.367
559.2223, 3995.875
559.7044, 3897.383
560.1865, 3858.039
560.6686, 3961.828
561.1508, 4117.695
561.6329, 4134.133
562.1150, 3924.203
562.5971, 3720.125
563.0792, 3603.750
563.5613, 3571.727
564.0435, 3493.344
564.5256, 3364.750
565.0077, 3214.711
565.4898, 3043.547
565.9719, 2863.875
566.4540, 2762.203
566.9362, 2774.508
567.4183, 2808.938
567.9004, 2732.141
568.3824, 2575.984
568.8646, 2439.461
569.3467, 2414.891
569.8288, 2392.383
570.3109, 2249.977
570.7930, 2000.422
571.2751, 1790.914
571.7573, 1729.297
572.2394, 1709.617
572.7215, 1665.188
573.2036, 1575.641
573.6857, 1481.594
574.1678, 1357.453
574.6500, 1243.352
575.1321, 1211.164
575.6142, 1332.195
576.0963, 1386.125
576.5784, 1312.758
577.0605, 1131.789
577.5427, 942.0312
578.0248, 736.5703
578.5069, 545.8828
578.9890, 380.6484
579.4711, 244.5312
579.9532, 162.7500
580.4354, 143.0469
580.9175, 139.7188
581.3996, 116.4844
581.8817, 74.78125
582.3638, 17.10938
582.8459, 83.39844
583.3281, 172.2109
583.8102, 182.0000
584.2923, 142.4844
584.7744, 157.1094
585.2565, 319.0703
585.7386, 489.4531
586.2208, 604.7734
586.7029, 647.0000
587.1850, 686.7031
587.6671, 726.6797
588.1492, 760.0469
588.6313, 778.1875
589.1135, 776.6172
589.5956, 783.5625
590.0777, 811.2734
590.5598, 842.5000
591.0419, 830.1016
591.5240, 775.9297
592.0062, 731.1484
592.4883, 730.4219
592.9704, 754.2188
593.4525, 768.5078
593.9346, 773.1016
594.4167, 754.5703
594.8989, 665.1953
595.3810, 565.2344
595.8631, 522.2266
596.3452, 569.1016
596.8273, 628.3281
597.3094, 684.4219
597.7916, 731.2109
598.2737, 761.8281
598.7558, 793.0547
599.2379, 785.7109
599.7200, 710.4141
600.2021, 581.3906
600.6843, 519.2422
601.1664, 557.6094
601.6485, 582.8281
602.1306, 508.3125
602.6127, 333.9688
603.0948, 237.7734
603.5770, 235.0938
604.0591, 249.0312
604.5412, 193.0156
605.0233, 82.39844
605.5054, 40.02344
605.9875, 167.2969
606.4697, 293.7812
606.9518, 415.8203
607.4339, 531.5859
607.9160, 638.1172
608.3981, 729.5391
608.8802, 811.2891
609.3624, 865.6250
609.8445, 882.8281
610.3266, 969.5859
610.8087, 1205.820
611.2908, 1460.242
611.7729, 1651.133
612.2551, 1747.172
612.7372, 1867.492
613.2193, 2027.266
613.7014, 2201.680
614.1835, 2355.234
614.6656, 2489.156
615.1478, 2604.852
615.6299, 2691.008
616.1120, 2771.547
616.5941, 2882.922
617.0762, 3027.234
617.5583, 3217.883
618.0405, 3507.953
618.5226, 3821.594
619.0047, 4070.391
619.4868, 4232.656
619.9689, 4428.070
620.4510, 4725.625
620.9332, 5069.453
621.4153, 5406.820
621.8974, 5754.688
622.3795, 6061.750
622.8616, 6305.438
623.3438, 6513.742
623.8259, 6741.883
624.3080, 6991.289
624.7901, 7262.961
625.2722, 7560.883
625.7543, 7883.219
626.2365, 8214.312
626.7186, 8552.055
627.2007, 8911.914
627.6828, 9331.172
628.1649, 9774.109
628.6470, 10163.75
629.1292, 10481.01
629.6113, 10788.37
630.0934, 11120.14
630.5755, 11472.25
631.0576, 11843.18
631.5397, 12238.24
632.0219, 12646.58
632.5040, 13062.73
632.9861, 13489.85
633.4682, 13934.15
633.9503, 14419.91
634.4324, 14894.21
634.9146, 15340.52
635.3967, 15761.55
635.8788, 16221.12
636.3609, 16722.74
636.8430, 17238.08
637.3251, 17731.67
637.8073, 18213.03
638.2894, 18743.46
638.7715, 19333.82
639.2536, 19956.95
639.7357, 20646.93
640.2178, 21337.37
640.7000, 21920.43
641.1821, 22275.19
641.6642, 22605.68
642.1463, 23036.89
642.6284, 23525.54
643.1105, 23954.23
643.5927, 24262.24
644.0748, 24541.80
644.5569, 24823.43
645.0390, 25111.69
645.5211, 25397.80
646.0032, 25690.40
646.4854, 25967.43
646.9675, 26211.85
647.4496, 26426.21
647.9317, 26610.27
648.4138, 26761.67
648.8959, 26895.81
649.3781, 27018.09
649.8602, 27134.48
650.3423, 27265.29
650.8244, 27435.98
651.3065, 27593.34
651.7886, 27689.73
652.2708, 27739.66
652.7529, 27787.05
653.2350, 27864.25
653.7171, 27921.57
654.1992, 27928.61
654.6813, 27881.41
655.1635, 27835.60
655.6456, 27792.57
656.1277, 27754.96
656.6098, 27728.48
657.0919, 27719.83
657.5740, 27710.49
658.0562, 27709.56
658.5382, 27693.48
659.0203, 27625.59
659.5024, 27515.60
659.9846, 27401.67
660.4667, 27300.61
660.9488, 27195.13
661.4309, 27048.09
661.9130, 26881.00
662.3951, 26754.98
662.8773, 26759.12
663.3594, 26756.50
663.8415, 26672.66
664.3236, 26503.86
664.8057, 26356.37
665.2878, 26252.81
665.7700, 26152.40
666.2521, 26041.85
666.7342, 25926.09
667.2163, 25765.90
667.6984, 25550.28
668.1805, 25319.02
668.6627, 25117.61
669.1448, 24936.71
669.6269, 24722.77
670.1090, 24439.59
670.5911, 24177.75
671.0732, 24091.08
671.5554, 24094.33
672.0375, 24008.26
672.5196, 23678.23
673.0017, 23320.48
673.4838, 23018.87
673.9659, 22774.12
674.4481, 22552.80
674.9302, 22346.82
675.4123, 22169.05
675.8944, 22023.07
676.3765, 21908.78
676.8586, 21824.38
677.3408, 21783.07
677.8229, 21730.51
678.3050, 21595.32
678.7871, 21397.63
679.2692, 21255.99
679.7513, 21191.72
680.2335, 21141.00
680.7156, 21013.87
681.1977, 20854.33
681.6798, 20742.06
682.1619, 20754.41
682.6440, 20757.44
683.1262, 20666.88
683.6083, 20521.04
684.0904, 20414.83
684.5725, 20427.55
685.0546, 20418.29
685.5367, 20340.23
686.0189, 20204.51
686.5010, 20131.81
686.9831, 20136.68
687.4652, 20152.36
687.9473, 20131.58
688.4294, 20082.38
688.9116, 20057.55
689.3937, 20057.88
689.8758, 20078.48
690.3579, 20141.42
690.8400, 20210.67
691.3221, 20231.31
691.8043, 20171.66
692.2864, 20105.42
692.7685, 20049.03
693.2506, 20007.63
693.7327, 19988.73
694.2148, 20050.45
694.6970, 20058.01
695.1791, 19968.37
695.6612, 19821.84
696.1433, 19748.27
696.6254, 19763.86
697.1075, 19776.43
697.5897, 19742.44
698.0718, 19676.77
698.5539, 19618.17
699.0360, 19566.20
699.5181, 19527.12
700.0002, 19528.54
700.4824, 19532.73
700.9645, 19496.86
701.4466, 19409.53
701.9287, 19321.82
702.4108, 19285.28
702.8929, 19238.36
703.3751, 19121.36
703.8572, 18861.80
704.3393, 18652.63
704.8214, 18523.62
705.3035, 18426.02
705.7856, 18292.01
706.2678, 18121.93
706.7499, 17928.50
707.2320, 17709.96
707.7141, 17488.86
708.1962, 17319.78
708.6783, 17189.45
709.1605, 17060.86
709.6426, 16891.80
710.1247, 16734.61
710.6068, 16652.33
711.0889, 16629.66
711.5710, 16565.51
712.0532, 16379.38
712.5353, 16192.55
713.0174, 16055.08
713.4995, 15970.89
713.9816, 15915.38
714.4637, 15913.92
714.9459, 15886.15
715.4280, 15744.26
715.9101, 15503.41
716.3922, 15297.04
716.8743, 15142.88
717.3564, 15002.00
717.8386, 14849.71
718.3207, 14679.82
718.8028, 14480.89
719.2849, 14225.43
719.7670, 13988.65
720.2491, 13852.97
720.7313, 13756.13
721.2134, 13581.46
721.6955, 13259.98
722.1776, 12931.84
722.6597, 12628.47
723.1418, 12338.71
723.6240, 12012.59
724.1061, 11644.50
724.5882, 11279.96
725.0703, 10931.35
725.5524, 10600.87
726.0345, 10294.48
726.5167, 10010.74
726.9988, 9727.832
727.4809, 9422.379
727.9630, 9116.715
728.4451, 8836.082
728.9272, 8590.520
729.4094, 8333.719
729.8915, 8064.246
730.3736, 7773.266
730.8557, 7452.535
731.3378, 7055.855
731.8199, 6748.754
732.3021, 6564.508
732.7842, 6419.551
733.2663, 6187.656
733.7484, 5877.414
734.2305, 5626.395
734.7126, 5485.352
735.1948, 5381.188
735.6769, 5230.969
736.1590, 5047.578
736.6411, 4866.492
737.1232, 4705.273
737.6053, 4540.723
738.0875, 4360.559
738.5696, 4169.090
739.0517, 3972.609
739.5338, 3764.965
740.0159, 3560.969
740.4980, 3355.426
740.9802, 3152.371
741.4623, 3030.227
741.9444, 2999.777
742.4265, 2940.473
742.9086, 2728.062
743.3907, 2440.004
743.8729, 2263.348
744.3550, 2205.090
744.8371, 2159.828
745.3192, 2053.883
745.8013, 1929.676
746.2834, 1828.023
746.7656, 1770.215
747.2477, 1686.746
747.7298, 1547.984
748.2119, 1392.512
748.6940, 1254.488
749.1761, 1130.000
749.6582, 1035.766
750.1403, 982.7500
750.6224, 943.3711
751.1046, 881.4570
751.5867, 797.5078
752.0688, 700.0977
752.5509, 574.7969
753.0330, 457.9414
753.5151, 381.0625
753.9973, 337.2266
754.4794, 298.8906
754.9615, 266.8555
755.4436, 229.8789
755.9257, 185.3398
756.4078, 134.8281
756.8900, 88.55859
757.3721, 47.79297
757.8542, 6.589844
758.3363, 29.23047
758.8184, 66.77734
759.3005, 151.1328
759.7827, 277.9219
760.2648, 380.0352
760.7469, 376.0312
761.2290, 338.8320
761.7111, 354.6797
762.1932, 433.5664
762.6754, 499.5352
763.1575, 514.0156
763.6396, 512.6719
764.1217, 524.3477
764.6038, 562.7500
765.0859, 564.4062
765.5681, 513.0547
766.0502, 457.4453
766.5323, 448.2480
767.0144, 481.3965
767.4965, 497.3379
767.9786, 486.4766
768.4608, 467.1113
768.9429, 453.9062
769.4250, 446.7441
769.9071, 450.2695
770.3892, 484.6855
770.8713, 493.6133
771.3535, 427.5781
771.8356, 335.3008
772.3177, 300.2910
772.7998, 373.9102
773.2819, 398.6035
773.7640, 335.6055
774.2462, 226.2344
774.7283, 172.5449
775.2104, 170.3672
775.6925, 153.1562
776.1746, 75.27148
776.6567, 11.94336
777.1389, 25.47852
777.6210, 12.87109
778.1031, 24.54102
778.5852, 44.90430
779.0673, 135.1875
779.5494, 220.4922
780.0316, 297.4707
780.5137, 366.1621
780.9958, 422.9121
781.4779, 487.1992
781.9600, 578.0039
782.4421, 689.5840
782.9243, 748.9941
783.4064, 754.1230
783.8885, 754.4590
784.3706, 795.7207
784.8527, 854.4746
785.3348, 902.5156
785.8170, 938.2656
786.2991, 964.5176
786.7812, 973.5566
787.2633, 980.0879
787.7454, 998.7637
788.2275, 1036.193
788.7097, 1065.129
789.1918, 1086.369
789.6739, 1099.203
790.1560, 1103.527
790.6381, 1101.273
791.1202, 1101.551
791.6024, 1109.490
792.0845, 1103.602
792.5666, 1032.395
793.0487, 941.6602
793.5308, 910.4043
794.0129, 1002.289
794.4951, 1078.801
794.9772, 1076.391
795.4593, 1034.564
795.9414, 1011.916
796.4235, 1013.982
796.9056, 1029.904
797.3878, 1059.203
797.8699, 1097.764
798.3520, 1143.221
798.8341, 1192.012
799.3162, 1224.693
799.7983, 1232.697
800.2805, 1224.965
800.7626, 1206.973
801.2447, 1180.219
801.7268, 1152.711
802.2089, 1124.840
802.6910, 1099.207
803.1732, 1076.725
803.6553, 1058.184
804.1374, 1041.451
804.6195, 1027.348
805.1016, 1017.771
805.5837, 1023.092
806.0659, 1031.330
806.5480, 993.2422
807.0301, 914.6270
807.5122, 846.8086
807.9943, 831.4883
808.4764, 829.2148
808.9586, 799.9492
809.4407, 746.8848
809.9228, 710.0234
810.4049, 731.4395
810.8870, 740.7969
811.3691, 704.8477
811.8513, 623.3711
812.3334, 577.2188
812.8155, 573.0957
813.2976, 570.3809
813.7797, 532.9297
814.2618, 477.8672
814.7440, 450.2500
815.2261, 451.6289
815.7082, 452.7002
816.1903, 425.0410
816.6724, 395.7256
817.1545, 383.8223
817.6367, 392.7891
818.1188, 402.1377
818.6009, 418.6924
819.0830, 434.0254
819.5651, 438.5596
820.0472, 428.4023
820.5294, 421.1533
821.0115, 422.2422
821.4936, 416.7773
821.9757, 374.9443
822.4578, 319.0635
822.9399, 296.0049
823.4221, 322.4619
823.9042, 343.6816
824.3863, 328.3916
824.8684, 293.1201
825.3505, 255.9102
825.8326, 215.1875
826.3148, 180.7822
826.7969, 156.2705
827.2790, 131.6973
827.7611, 83.10156
828.2432, 16.82324
828.7253, 7.442383
829.2075, 31.97168
829.6896, 82.94141
830.1717, 86.11523
830.6538, 61.95020
831.1359, 47.54688
831.6180, 75.92773
832.1002, 89.75098
832.5823, 52.24707
833.0644, 2.083984
833.5465, 31.49902
834.0286, 27.60254
834.5107, 18.91016
834.9929, 11.09668
835.4750, 9.085938
835.9571, 21.78125
836.4392, 39.20117
836.9213, 38.51367
837.4034, 6.168945
837.8855, 26.59375
838.3676, 39.07910
838.8497, 39.10840
839.3318, 39.03125
839.8140, 39.65234
840.2961, 40.29297
840.7782, 38.20996
841.2603, 38.78906
841.7424, 55.36328
842.2245, 88.20312
842.7067, 112.9277
843.1888, 119.5654
843.6709, 122.4141
844.1530, 139.5781
844.6351, 166.3574
845.1172, 193.0322
845.5994, 217.4209
846.0815, 240.2764
846.5636, 265.9277
847.0457, 288.8252
847.5278, 294.0791
848.0099, 267.4131
848.4921, 272.5879
848.9742, 338.6436
849.4563, 423.4863
849.9384, 427.3047
850.4205, 372.0000
850.9026, 338.4844
851.3848, 373.4277
851.8669, 426.6553
852.3490, 473.3291
852.8311, 512.3232
853.3132, 540.7354
853.7953, 552.7100
854.2775, 560.8594
854.7596, 565.9355
855.2417, 568.9961
855.7238, 573.1357
856.2059, 578.1494
856.6880, 584.3989
857.1702, 592.1738
857.6523, 603.8745
858.1344, 624.9478
858.6165, 652.8398
859.0986, 680.0464
859.5807, 695.8936
860.0629, 719.6748
860.5450, 768.2173
861.0271, 828.3096
861.5092, 866.6865
861.9913, 877.1235
862.4734, 887.1782
862.9556, 902.8735
863.4377, 924.3193
863.9198, 954.9038
864.4019, 991.2993
864.8840, 1020.983
865.3661, 1042.458
865.8483, 1050.992
866.3304, 1026.528
866.8125, 985.1450
867.2946, 980.8101
867.7767, 1048.735
868.2589, 1096.788
868.7410, 1097.345
869.2231, 1071.295
869.7052, 1080.604
870.1873, 1121.595
870.6694, 1145.979
871.1516, 1121.252
871.6337, 1083.422
872.1158, 1070.052
872.5979, 1075.198
873.0800, 1084.099
873.5621, 1094.981
874.0443, 1104.861
874.5264, 1119.467
875.0085, 1131.946
875.4906, 1118.537
875.9727, 1076.789
876.4548, 1038.616
876.9370, 1010.050
877.4191, 994.8223
877.9012, 1008.185
878.3833, 1040.179
878.8654, 1065.061
879.3475, 1062.594
879.8297, 1059.448
880.3118, 1072.780
880.7939, 1092.565
881.2760, 1091.882
881.7581, 1059.750
882.2402, 1036.820
882.7224, 1034.580
883.2045, 1041.903
883.6866, 1036.030
884.1687, 1019.923
884.6508, 1005.654
885.1329, 1001.325
885.6151, 993.9282
886.0972, 972.4307
886.5793, 943.4116
887.0614, 920.1226
887.5435, 899.4448
888.0256, 890.0562
888.5078, 895.6870
888.9899, 909.0410
889.4720, 916.9019
889.9541, 918.9858
890.4362, 921.7437
890.9183, 930.3813
891.4005, 932.3843
891.8826, 905.0752
892.3647, 867.0024
892.8468, 847.9653
893.3289, 884.6660
893.8110, 902.8228
894.2932, 889.5898
894.7753, 858.6685
895.2574, 825.7241
895.7395, 790.1846
896.2216, 774.9771
896.7037, 788.5171
897.1859, 809.9946
897.6680, 812.4775
898.1501, 806.0127
898.6322, 809.5547
899.1143, 846.3062
899.5964, 862.0952
900.0786, 816.0229
900.5607, 757.6157
901.0428, 742.2119
901.5249, 781.4141
902.0070, 800.3198
902.4891, 789.0454
902.9713, 767.5107
903.4534, 758.4023
903.9355, 757.2417
904.4176, 753.2095
904.8997, 739.5933
905.3818, 737.3657
905.8640, 780.8130
906.3461, 823.8086
906.8282, 821.8306
907.3103, 746.5371
907.7924, 709.0688
908.2745, 716.7007
908.7567, 738.3970
909.2388, 745.1089
909.7209, 742.3706
910.2030, 743.1245
910.6851, 748.6553
911.1672, 758.9097
911.6494, 791.0728
912.1315, 815.8638
912.6136, 802.7754
913.0957, 735.1504
913.5778, 704.3096
914.0599, 724.7202
914.5421, 747.6973
915.0242, 727.4375
915.5063, 679.6821
915.9884, 672.6826
916.4705, 706.9497
916.9526, 737.0527
917.4348, 727.7920
917.9169, 705.8218
918.3990, 686.6182
918.8811, 671.2842
919.3632, 667.1606
919.8453, 680.9082
920.3275, 692.2402
920.8096, 688.9087
921.2917, 675.4355
921.7738, 671.1953
922.2559, 676.0054
922.7380, 687.7290
923.2202, 718.3687
923.7023, 744.0684
924.1844, 738.8647
924.6665, 707.6538
925.1486, 694.3667
925.6307, 719.1162
926.1129, 734.5513
926.5950, 722.8999
927.0771, 693.8740
927.5591, 682.1895
928.0413, 686.0278
928.5234, 690.7822
929.0055, 690.3711
929.4876, 686.7583
929.9697, 676.3276
930.4518, 664.1592
930.9340, 663.1934
931.4161, 693.6987
931.8982, 710.7578
932.3803, 707.5381
932.8624, 688.8599
933.3445, 657.3325
933.8267, 615.7002
934.3088, 583.8081
934.7909, 567.6831
935.2730, 563.0488
935.7551, 576.5010
936.2372, 595.6592
936.7194, 602.8682
937.2015, 588.1807
937.6836, 566.9980
938.1657, 533.1401
938.6478, 501.8687
939.1299, 495.1636
939.6121, 510.5737
940.0942, 515.9316
940.5763, 506.3281
941.0584, 492.4053
941.5405, 485.0337
942.0226, 478.0933
942.5048, 463.4524
942.9869, 435.3174
943.4690, 415.4639
943.9511, 411.9055
944.4332, 409.2283
944.9153, 392.8137
945.3975, 364.2852
945.8796, 351.3992
946.3617, 354.7422
946.8438, 366.9373
947.3259, 399.6475
947.8080, 426.1504
948.2902, 411.3740
948.7723, 352.2620
949.2544, 324.5239
949.7365, 363.8484
950.2186, 393.8325
950.7007, 378.4744
951.1829, 328.6096
951.6650, 304.1013
952.1471, 302.8967
952.6292, 305.2151
953.1113, 301.6853
953.5934, 295.7419
954.0756, 285.9575
954.5577, 275.1025
955.0398, 272.0845
955.5219, 286.7915
956.0040, 293.4460
956.4861, 281.6523
956.9683, 264.4514
957.4504, 280.6992
957.9325, 322.1565
958.4146, 337.8149
958.8967, 297.9438
959.3788, 254.0383
959.8610, 250.0383
960.3431, 264.7446
960.8252, 266.7224
961.3073, 234.3091
961.7894, 223.2317
962.2715, 243.1743
962.7537, 271.8733
963.2358, 283.4592
963.7179, 281.3440
964.2000, 276.8206
964.6821, 270.9917
965.1642, 265.3313
965.6464, 266.0076
966.1285, 264.8538
966.6106, 252.3721
967.0927, 222.1216
967.5748, 205.3379
968.0569, 205.2673
968.5391, 210.7258
969.0212, 218.5505
969.5033, 225.5090
969.9854, 215.3357
970.4675, 190.1108
970.9496, 172.2717
971.4318, 185.5271
971.9139, 200.4419
972.3960, 197.1396
972.8781, 178.0925
973.3602, 170.2849
973.8423, 180.6121
974.3245, 177.0146
974.8066, 140.9751
975.2887, 92.82666
975.7708, 68.08569
976.2529, 64.32495
976.7350, 73.32617
977.2172, 112.0217
977.6993, 139.5205
978.1814, 134.7729
978.6635, 112.3086
979.1456, 91.69238
979.6277, 71.76660
980.1099, 62.16187
980.5920, 66.49268
981.0741, 72.86499
981.5562, 60.95776
982.0383, 42.75098
982.5204, 39.99878
983.0026, 63.40894
983.4847, 80.36230
983.9668, 78.53516
984.4489, 68.16577
984.9310, 54.45483
985.4131, 37.86255
985.8953, 19.92969
986.3774, 0.4782710
986.8595, 14.65381
987.3416, 8.542236
987.8237, 4.994873
988.3058, 13.57568
988.7880, 15.98218
989.2701, 14.84180
989.7522, 11.67554
990.2343, 3.638428
990.7164, 15.43872
991.1985, 38.62524
991.6807, 30.90869
992.1628, 3.866699
992.6449, 29.85547
993.1270, 26.26343
993.6091, 14.18848
994.0912, 8.700684
994.5734, 8.260498
995.0555, 8.486084
995.5376, 6.924805
996.0197, 5.169189
996.5018, 2.104492
996.9839, 2.101318
997.4661, 18.03784
997.9482, 42.21777
998.4303, 46.13550
998.9124, 20.72656
999.3945, 2.079346
999.8766, 7.550537
1000.359, 21.74048
1000.841, 16.45117
1001.323, 12.07666
1001.805, 30.62012
1002.287, 38.23389
1002.769, 42.60986
1003.251, 50.15845
1003.734, 54.94336
1004.216, 48.13013
1004.698, 32.88013
1005.180, 17.54810
1005.662, 0.7966310
1006.144, 10.63770
1006.626, 15.20703
1007.108, 13.94678
1007.591, 3.794922
1008.073, 15.38770
1008.555, 15.88794
1009.037, 19.83862
1009.519, 54.57812
1010.001, 36.17798
1010.483, 5.730225
1010.965, 28.04419
1011.447, 1.113525
1011.930, 17.25684
1012.412, 12.53882
1012.894, 2.916992
1013.376, 4.635010
1013.858, 14.81201
1014.340, 19.10718
1014.822, 16.68066
1015.304, 9.344238
1015.786, 5.470703
1016.269, 20.92334
1016.751, 37.10156
1017.233, 53.92505
1017.715, 46.81958
1018.197, 5.149414
1018.679, 24.56226
1019.161, 13.75439
1019.643, 14.33984
1020.125, 8.888672
1020.608, 19.29810
1021.090, 38.87646
1021.572, 27.35059
1022.054, 16.40479
1022.536, 18.79565
1023.018, 24.78613
1023.500, 17.76270
1023.982, 3.487549
1024.465, 8.935791
1024.947, 7.876709
1025.429, 27.48804
1025.911, 28.23682
1026.393, 21.97559
1026.875, 22.73486
1027.357, 35.61670
1027.839, 41.81055
1028.322, 37.22168
1028.804, 30.12085
1029.286, 23.95117
1029.768, 19.42212
1030.250, 23.01880
1030.732, 32.60034
1031.214, 35.43042
1031.696, 13.84814
1032.178, 5.704834
1032.661, 7.623779
1033.143, 3.529785
1033.625, 14.57520
1034.107, 26.89111
1034.589, 32.57153
1035.071, 28.33423
1035.553, 21.38965
1036.035, 20.36621
1036.517, 23.56641
1037.000, 28.55981
1037.482, 35.85327
1037.964, 41.89624
1038.446, 47.76758
1038.928, 50.22827
1039.410, 47.04346
1039.892, 38.32715
1040.374, 22.68433
1040.857, 0.9882810
1041.339, 15.34009
1041.821, 12.99536
1042.303, 6.862793
1042.785, 11.62085
1043.267, 23.58032
1043.749, 19.52441
1044.231, 11.36938
1044.714, 28.74072
1045.196, 18.74146
1045.678, 0.6496580
1046.160, 4.506348
1046.642, 23.31665
1047.124, 29.65186
1047.606, 7.890625
1048.088, 7.305420
1048.570, 6.139160
1049.052, 22.08789
1049.535, 19.71338
1050.017, 2.251221
1050.499, 9.905273
1050.981, 2.560791
1051.463, 2.001343
1051.945, 17.47009
1052.427, 39.36230
1052.909, 42.87012
1053.392, 29.55920
1053.874, 18.79065
1054.356, 11.65344
1054.838, 7.627930
1055.320, 9.914795
1055.802, 12.45605
1056.284, 1.289185
1056.766, 18.75281
1057.249, 36.20093
1057.731, 50.30627
1058.213, 56.11121
1058.695, 42.56360
1059.177, 25.95032
1059.659, 23.56580
1060.141, 38.49377
1060.623, 27.35925
1061.105, 11.89221
1061.588, 44.88770
1062.070, 39.78040
1062.552, 19.17114
1063.034, 0.3868410
1063.516, 14.94727
1063.998, 21.80957
1064.480, 17.44519
1064.962, 10.61597
1065.444, 1.209839
1065.927, 6.694214
1066.409, 2.403320
1066.891, 10.38000
1067.373, 20.69995
1067.855, 24.68005
1068.337, 26.54028
1068.819, 27.51929
1069.301, 27.91028
1069.783, 25.55078
1070.266, 19.51538
1070.748, 21.98999
1071.230, 33.41321
1071.712, 44.90320
1072.194, 52.46899
1072.676, 54.85535
1073.158, 45.78479
1073.640, 28.76111
1074.123, 25.21558
1074.605, 43.80933
1075.087, 56.20911
1075.569, 55.72974
1076.051, 50.22900
1076.533, 49.54724
1077.015, 52.02148
1077.497, 54.54175
1077.979, 57.81165
1078.462, 60.60168
1078.944, 59.21973
1079.426, 58.30823
1079.908, 62.31702
1080.390, 72.08813
1080.872, 75.23535
1081.354, 72.10034
1081.836, 73.12207
1082.318, 95.44775
1082.801, 115.3452
1083.283, 112.2356
1083.765, 91.39514
1084.247, 72.92175
1084.729, 55.64124
1085.211, 47.01367
1085.693, 49.04517
1086.175, 58.00964
1086.658, 73.80066
1087.140, 91.18115
1087.622, 101.0536
1088.104, 100.2858
1088.586, 99.74780
1089.068, 103.7046
1089.550, 105.6469
1090.032, 101.2552
1090.515, 92.12244
1090.997, 83.13684
1091.479, 75.16223
1091.961, 74.97314
1092.443, 96.09167
1092.925, 114.9659
1093.407, 118.4293
1093.889, 112.4022
1094.371, 106.2354
1094.854, 99.14856
1095.336, 98.60437
1095.818, 106.4518
1096.300, 114.5675
1096.782, 112.8887
1097.264, 108.0724
1097.746, 107.7922
1098.228, 113.1403
1098.710, 117.7147
1099.193, 121.2654
1099.675, 123.1584
1100.157, 123.1899
1100.639, 120.7147
1101.121, 110.5070
1101.603, 97.50256
1102.085, 95.11011
1102.567, 118.4584
1103.050, 134.6755
1103.532, 130.6606
1104.014, 119.9421
1104.496, 113.4000
1104.978, 110.5708
1105.460, 110.3293
1105.942, 112.3208
1106.424, 115.3419
1106.906, 120.8729
1107.389, 123.3053
1107.871, 115.6741
1108.353, 100.6799
1108.835, 90.78320
1109.317, 85.19910
1109.799, 89.18860
1110.281, 110.1366
1110.763, 126.8700
1111.245, 99.16943
1111.728, 54.70117
1112.210, 34.34314
1112.692, 56.90015
1113.174, 74.40015
1113.656, 85.27344
1114.138, 88.80737
1114.620, 78.58008
1115.102, 61.22034
1115.585, 60.85437
1116.067, 73.80420
1116.549, 83.98120
1117.031, 82.19836
1117.513, 78.42859
1117.995, 76.22253
1118.477, 73.29211
1118.959, 63.05286
1119.442, 46.51453
1119.924, 40.92529
1120.406, 50.27759
1120.888, 58.60486
1121.370, 48.52832
1121.852, 36.18811
1122.334, 35.55933
1122.816, 45.50745
1123.298, 52.84668
1123.781, 57.91028
1124.263, 57.29883
1124.745, 45.48376
1125.227, 34.10754
1125.709, 39.60754
1126.191, 54.30396
1126.673, 66.13000
1127.155, 76.92822
1127.637, 74.01306
1128.120, 52.13647
1128.602, 30.29858
1129.084, 26.14807
1129.566, 33.42444
1130.048, 40.79932
1130.530, 47.31677
1131.012, 50.88879
1131.494, 47.69910
1131.977, 45.14062
1132.459, 46.98352
1132.941, 49.20239
1133.423, 42.32849
1133.905, 29.09973
1134.387, 23.76672
1134.869, 31.07788
1135.351, 34.03967
1135.833, 9.255981
1136.316, 10.55981
1136.798, 0.3090820
1137.280, 36.91101
1137.762, 59.32104
1138.244, 67.00354
1138.726, 70.92810
1139.208, 77.95923
1139.690, 81.50757
1140.172, 71.46936
1140.655, 56.11572
1141.137, 49.14917
1141.619, 53.04260
1142.101, 59.99683
1142.583, 70.20813
1143.065, 76.23303
1143.547, 64.80627
1144.029, 50.37280
1144.512, 52.26733
1144.994, 69.31726
1145.476, 86.63660
1145.958, 107.3636
1146.440, 115.3268
1146.922, 102.8114
1147.404, 84.09045
1147.886, 85.95166
1148.369, 98.08667
1148.851, 99.17444
1149.333, 81.55518
1149.815, 67.59045
1150.297, 63.33240
1150.779, 63.75610
1151.261, 68.07605
1151.743, 74.75171
1152.225, 76.09937
1152.708, 74.04858
1153.190, 76.52405
1153.672, 93.30457
1154.154, 107.3337
1154.636, 110.5553
1155.118, 109.2367
1155.600, 108.9449
1156.082, 109.7297
1156.564, 109.1124
1157.047, 107.0034
1157.529, 102.6075
1158.011, 90.68738
1158.493, 80.72144
1158.975, 80.33142
1159.457, 86.69019
1159.939, 93.23096
1160.421, 100.5464
1160.903, 100.4789
1161.386, 89.68494
1161.868, 78.54822
1162.350, 76.12036
1162.832, 80.04736
1163.314, 89.67432
1163.796, 105.5111
1164.278, 112.0276
1164.760, 107.9092
1165.243, 101.1895
1165.725, 93.75049
1166.207, 87.79468
1166.689, 86.36243
1167.171, 88.67920
1167.653, 93.30847
1168.135, 105.7139
1168.617, 110.4275
1169.099, 106.1208
1169.582, 97.03076
1170.064, 82.69299
1170.546, 69.42542
1171.028, 66.79028
1171.510, 74.07690
1171.992, 87.49719
1172.474, 122.8578
1172.956, 137.5880
1173.438, 117.1519
1173.921, 86.76794
1174.403, 86.69092
1174.885, 105.8407
1175.367, 115.2958
1175.849, 110.5593
1176.331, 103.5228
1176.813, 98.44226
1177.295, 92.38202
1177.778, 84.06482
1178.260, 74.84595
1178.742, 67.34790
1179.224, 61.32477
1179.706, 55.85596
1180.188, 48.22351
1180.670, 48.37427
1181.152, 69.06158
1181.635, 92.09674
1182.117, 104.7397
1182.599, 107.1516
1183.081, 105.6398
1183.563, 100.5568
1184.045, 92.63434
1184.527, 77.03406
1185.009, 64.22443
1185.491, 63.77283
1185.974, 67.11987
1186.456, 59.15466
1186.938, 38.86774
1187.420, 41.20490
1187.902, 69.90259
1188.384, 91.46198
1188.866, 70.90771
1189.348, 43.03595
1189.830, 34.02631
1190.313, 39.27539
1190.795, 38.26154
1191.277, 29.41827
1191.759, 24.35071
1192.241, 28.36688
1192.723, 34.96265
1193.205, 39.45874
1193.687, 40.61707
1194.170, 36.01196
1194.652, 26.98987
1195.134, 26.32568
1195.616, 34.32104
1196.098, 39.47571
1196.580, 34.29358
1197.062, 28.80377
1197.544, 41.74640
1198.026, 58.83795
1198.509, 56.55640
1198.991, 20.01154
1199.473, 3.692505
1199.955, 10.19373
1200.437, 22.99377
1200.919, 36.00067
1201.401, 44.85883
1201.883, 40.64105
1202.365, 27.78229
1202.848, 18.55725
1203.330, 13.49274
1203.812, 15.97028
1204.294, 28.72491
1204.776, 40.23584
1205.258, 34.48413
1205.740, 22.25677
1206.222, 18.37286
1206.705, 23.20642
1207.187, 28.95966
1207.669, 35.61530
1208.151, 40.82947
1208.633, 44.82477
1209.115, 45.31262
1209.597, 35.84912
1210.079, 21.88672
1210.562, 12.20068
1211.044, 8.697144
1211.526, 5.702515
1212.008, 7.5745001E-02
1212.490, 0.6917110
1212.972, 14.12415
1213.454, 33.43451
1213.936, 48.66956
1214.418, 58.69867
1214.901, 60.26581
1215.383, 47.88269
1215.865, 37.61261
1216.347, 31.20312
1216.829, 26.33588
1217.311, 19.05347
1217.793, 13.31513
1218.275, 25.06976
1218.757, 46.43469
1219.240, 53.72778
1219.722, 21.23016
1220.204, 0.2421880
1220.686, 5.174194
1221.168, 9.6375003E-02
1221.650, 14.44623
1222.132, 32.13507
1222.614, 38.00323
1223.097, 32.54419
1223.579, 24.29767
1224.061, 9.304382
1224.543, 2.534485
1225.025, 9.489624
1225.507, 20.58478
1225.989, 19.64880
1226.471, 12.57959
1226.953, 12.38733
1227.436, 20.85071
1227.918, 32.29956
1228.400, 50.82214
1228.882, 62.53424
1229.364, 60.91644
1229.846, 53.21106
1230.328, 57.54218
1230.810, 66.70563
1231.292, 64.15393
1231.775, 41.38141
1232.257, 26.82147
1232.739, 28.69171
1233.221, 34.92316
1233.703, 40.96106
1234.185, 46.65216
1234.667, 53.16797
1235.149, 58.82355
1235.632, 58.71021
1236.114, 44.41858
1236.596, 38.40588
1237.078, 47.63348
1237.560, 56.89404
1238.042, 53.78729
1238.524, 43.01001
1239.006, 36.92554
1239.489, 34.59058
1239.971, 32.48358
1240.453, 27.77185
1240.935, 25.49036
1241.417, 26.58142
1241.899, 29.70941
1242.381, 35.44891
1242.863, 41.56689
1243.345, 44.26422
1243.828, 43.47736
1244.310, 36.97528
1244.792, 10.73651
1245.274, 0.3208010
1245.756, 15.85040
1246.238, 38.69250
1246.720, 44.51630
1247.202, 36.67902
1247.684, 17.12823
1248.167, 14.29047
1248.649, 24.74768
1249.131, 3.873962
1249.613, 30.58685
1250.095, 44.18237
1250.577, 49.27991
1251.059, 51.56555
1251.541, 52.07849
1252.023, 53.04144
1252.506, 54.85602
1252.988, 52.57001
1253.470, 42.22571
1253.952, 39.66638
1254.434, 55.00604
1254.916, 72.79694
1255.398, 64.28534
1255.880, 40.69855
1256.363, 20.60266
1256.845, 7.445251
1257.327, 2.494934
1257.809, 7.470581
1258.291, 16.72223
1258.773, 27.59277
1259.255, 35.59521
1259.737, 32.40118
1260.219, 23.80066
1260.702, 18.04285
1261.184, 20.40741
1261.666, 19.11914
1262.148, 13.25842
1262.630, 7.370544
1263.112, 2.610229
1263.594, 1.400513
1264.076, 11.65808
1264.558, 27.40063
1265.041, 31.40784
1265.523, 16.78943
1266.005, 14.70270
1266.487, 29.03784
1266.969, 43.27478
1267.451, 40.53845
1267.933, 32.71820
1268.415, 29.70752
1268.898, 31.82568
1269.380, 38.88733
1269.862, 51.72882
1270.344, 55.79791
1270.826, 47.04761
1271.308, 34.80066
1271.790, 32.41431
1272.272, 37.49298
1272.755, 37.19543
1273.237, 32.80560
1273.719, 30.56873
1274.201, 30.57721
1274.683, 30.41980
1275.165, 29.73145
1275.647, 27.61249
1276.129, 20.94366
1276.611, 16.67694
1277.094, 20.71851
1277.576, 29.75952
1278.058, 26.09259
1278.540, 11.03284
1279.022, 0.2995610
1279.504, 0.9972530
1279.986, 5.968994
1280.468, 15.60864
1280.950, 24.15387
1281.433, 26.95258
1281.915, 25.40192
1282.397, 29.13306
1282.879, 36.10083
1283.361, 36.37067
1283.843, 20.86511
1284.325, 9.160950
1284.807, 9.227051
1285.290, 14.94098
1285.772, 27.01624
1286.254, 40.97314
1286.736, 32.57355
1287.218, 9.362000
1287.700, 3.974487
1288.182, 9.318054
1288.664, 21.19049
1289.146, 29.63123
1289.629, 32.63019
1290.111, 24.83215
1290.593, 11.87360
1291.075, 0.8486940
1291.557, 0.6125490
1292.039, 4.740723
1292.521, 23.59259
1293.003, 28.02881
1293.485, 14.86334
1293.968, 0.0000000E+00
##END=



