##NAMES=Fluorapatite
##RRUFFID=R060184
##IDEAL CHEMISTRY=Ca_5_(PO_4_)_3_F
##LOCALITY=Yates mine, Otter Lake, Quebec, Canada
##OWNER=RRUFF
##SOURCE=Lloyd Twaites
##DESCRIPTION=Green colored fragment of a hexagonal prism
##STATUS=The identification of this mineral has been confirmed by X-ray diffraction and chemical analysis
##URL=rruff.info/R060184
##MEASURED CHEMISTRY=(Ca_0.99_Ce_0.01_)_5.00_((P_0.98_Si_0.01_S_0.01_)O_4_)_3_F_1.00_
92.02539, 0.0000000E+00
92.50751, 0.3195800
92.98962, 26.10669
93.47174, 59.72729
93.95386, 103.8208
94.43597, 130.1089
94.91809, 133.2756
95.40021, 123.2996
95.88232, 110.2920
96.36444, 95.19531
96.84656, 82.03857
97.32867, 67.98755
97.81078, 71.88843
98.29290, 82.80444
98.77502, 93.33252
99.25713, 112.9587
99.73925, 116.5637
100.2214, 96.67285
100.7035, 72.89502
101.1856, 52.79590
101.6677, 40.40894
102.1498, 29.52930
102.6320, 11.93066
103.1141, 17.67554
103.5962, 34.64673
104.0783, 34.58472
104.5604, 23.72241
105.0425, 8.807373
105.5247, 12.15210
106.0068, 33.41602
106.4889, 40.04541
106.9710, 30.40723
107.4531, 18.64575
107.9352, 7.185791
108.4173, 1.285156
108.8995, 2.516846
109.3816, 30.58472
109.8637, 63.25586
110.3458, 79.56738
110.8279, 75.43604
111.3100, 65.28662
111.7922, 68.51807
112.2743, 91.82959
112.7564, 107.6548
113.2385, 101.0352
113.7206, 89.52441
114.2027, 86.57007
114.6849, 99.84570
115.1670, 124.8523
115.6491, 142.1309
116.1312, 134.6240
116.6133, 135.3755
117.0954, 159.0735
117.5776, 193.7720
118.0597, 221.1594
118.5418, 227.4592
119.0239, 212.3684
119.5060, 205.8589
119.9881, 210.3184
120.4703, 218.6150
120.9524, 227.5793
121.4345, 237.5371
121.9166, 250.7207
122.3987, 270.0210
122.8808, 296.0190
123.3630, 310.3159
123.8451, 306.8281
124.3272, 296.7490
124.8093, 286.7876
125.2914, 275.5635
125.7735, 270.0632
126.2557, 283.0342
126.7378, 310.2104
127.2199, 336.8564
127.7020, 358.8892
128.1841, 375.9307
128.6662, 386.1021
129.1483, 386.3872
129.6305, 386.8503
130.1126, 395.6294
130.5947, 412.6555
131.0768, 430.6519
131.5589, 443.2671
132.0410, 449.4082
132.5232, 457.0388
133.0053, 480.4673
133.4874, 499.0371
133.9695, 495.7305
134.4516, 469.9956
134.9337, 439.4570
135.4159, 430.0093
135.8980, 456.2573
136.3801, 476.1030
136.8622, 491.0410
137.3443, 497.5645
137.8264, 487.5522
138.3086, 459.7998
138.7907, 424.2490
139.2728, 411.1846
139.7549, 454.2393
140.2370, 483.4502
140.7191, 486.3638
141.2013, 472.5874
141.6834, 456.3516
142.1655, 444.9922
142.6476, 437.1108
143.1297, 428.4873
143.6118, 416.6528
144.0939, 407.2778
144.5761, 406.8105
145.0582, 412.4844
145.5403, 411.0850
146.0224, 391.1113
146.5045, 356.6807
146.9866, 325.7046
147.4688, 295.7974
147.9509, 273.1006
148.4330, 268.6436
148.9151, 286.1782
149.3972, 306.1396
149.8793, 328.7388
150.3615, 344.5518
150.8436, 352.0645
151.3257, 347.8413
151.8078, 336.5259
152.2899, 327.5493
152.7720, 319.0249
153.2542, 317.1030
153.7363, 329.0044
154.2184, 347.3511
154.7005, 360.5776
155.1826, 359.7896
155.6647, 346.8345
156.1469, 337.5659
156.6290, 327.3149
157.1111, 327.0396
157.5932, 346.9546
158.0753, 379.4868
158.5574, 408.9937
159.0396, 421.6470
159.5217, 415.2368
160.0038, 412.4985
160.4859, 416.7139
160.9680, 420.6011
161.4501, 421.6064
161.9323, 420.1260
162.4144, 416.7866
162.8965, 410.6411
163.3786, 398.3164
163.8607, 399.4736
164.3428, 428.3496
164.8250, 459.0298
165.3071, 469.9126
165.7892, 458.4585
166.2713, 441.3989
166.7534, 439.9204
167.2355, 456.6191
167.7177, 469.3301
168.1998, 471.4854
168.6819, 469.4941
169.1640, 472.3013
169.6461, 482.6470
170.1282, 495.0562
170.6104, 499.9297
171.0925, 498.0054
171.5746, 502.6279
172.0567, 527.4360
172.5388, 563.4229
173.0209, 582.0757
173.5031, 567.8745
173.9852, 549.5532
174.4673, 554.3462
174.9494, 580.1621
175.4315, 608.4731
175.9136, 627.9307
176.3958, 638.6240
176.8779, 641.8096
177.3600, 625.1143
177.8421, 612.1875
178.3242, 620.3228
178.8063, 648.4248
179.2885, 678.8081
179.7706, 692.3931
180.2527, 684.8691
180.7348, 679.1440
181.2169, 674.7183
181.6990, 674.2109
182.1812, 682.2764
182.6633, 698.3135
183.1454, 714.6660
183.6275, 719.0132
184.1096, 699.6553
184.5917, 694.5054
185.0738, 712.3086
185.5560, 735.1230
186.0381, 751.3462
186.5202, 758.0488
187.0023, 758.4883
187.4844, 757.2905
187.9665, 748.8271
188.4487, 749.9849
188.9308, 766.4707
189.4129, 787.9155
189.8950, 806.3467
190.3771, 818.8813
190.8592, 825.6875
191.3414, 825.5737
191.8235, 811.0254
192.3056, 804.6270
192.7877, 813.0391
193.2698, 829.5386
193.7519, 846.9839
194.2341, 863.6265
194.7162, 877.6787
195.1983, 883.6323
195.6804, 878.8892
196.1625, 877.1748
196.6446, 888.1582
197.1268, 905.7876
197.6089, 914.6914
198.0910, 906.2295
198.5731, 892.3730
199.0552, 891.9829
199.5373, 905.6069
200.0195, 922.8159
200.5016, 951.4019
200.9837, 986.0293
201.4658, 989.0957
201.9479, 925.0889
202.4300, 847.1895
202.9122, 814.1040
203.3943, 830.2490
203.8764, 865.5293
204.3585, 905.7744
204.8406, 950.8584
205.3227, 975.5967
205.8048, 955.7842
206.2870, 927.0996
206.7691, 916.9688
207.2512, 927.3818
207.7333, 937.1797
208.2154, 920.3057
208.6975, 870.5098
209.1797, 840.6582
209.6618, 859.4219
210.1439, 887.8857
210.6260, 901.3857
211.1081, 895.6562
211.5902, 886.6533
212.0724, 905.9746
212.5545, 974.2266
213.0366, 1009.862
213.5187, 986.1406
214.0008, 949.5615
214.4829, 924.0176
214.9651, 914.2764
215.4472, 914.2559
215.9293, 919.4033
216.4114, 932.8154
216.8935, 944.6768
217.3756, 955.3184
217.8578, 968.6416
218.3399, 987.7510
218.8220, 1010.100
219.3041, 1028.670
219.7862, 1037.753
220.2683, 1030.065
220.7505, 1035.521
221.2326, 1055.196
221.7147, 1084.452
222.1968, 1125.611
222.6789, 1175.699
223.1610, 1219.053
223.6432, 1235.461
224.1253, 1209.016
224.6074, 1197.779
225.0895, 1204.095
225.5716, 1218.387
226.0537, 1238.073
226.5358, 1263.835
227.0180, 1289.347
227.5001, 1301.356
227.9822, 1291.682
228.4643, 1277.794
228.9464, 1256.025
229.4285, 1237.494
229.9107, 1236.201
230.3928, 1254.932
230.8749, 1275.391
231.3570, 1271.115
231.8391, 1239.475
232.3212, 1214.601
232.8034, 1205.532
233.2855, 1204.600
233.7676, 1203.784
234.2497, 1202.226
234.7318, 1196.837
235.2139, 1179.273
235.6961, 1151.397
236.1782, 1133.394
236.6603, 1132.419
237.1424, 1143.869
237.6245, 1165.138
238.1066, 1200.528
238.5888, 1231.248
239.0709, 1235.369
239.5530, 1219.796
240.0351, 1205.415
240.5172, 1201.623
240.9993, 1203.167
241.4815, 1196.341
241.9636, 1174.432
242.4457, 1160.165
242.9278, 1181.646
243.4099, 1223.355
243.8920, 1252.591
244.3742, 1255.422
244.8563, 1236.068
245.3384, 1196.972
245.8205, 1121.567
246.3026, 1064.579
246.7847, 1064.798
247.2668, 1100.542
247.7490, 1141.176
248.2311, 1183.016
248.7132, 1215.544
249.1953, 1209.609
249.6774, 1144.237
250.1595, 1081.745
250.6417, 1050.600
251.1238, 1036.860
251.6059, 1024.318
252.0880, 1007.479
252.5701, 985.1035
253.0522, 954.8867
253.5344, 915.7178
254.0165, 869.2617
254.4986, 812.1211
254.9807, 750.9307
255.4628, 690.8311
255.9449, 632.5205
256.4271, 580.8936
256.9092, 551.7412
257.3913, 564.7471
257.8734, 562.5869
258.3555, 518.3184
258.8376, 463.7959
259.3198, 431.0410
259.8019, 432.1055
260.2840, 450.7305
260.7661, 453.5605
261.2482, 433.5488
261.7303, 411.7520
262.2125, 393.5547
262.6946, 373.9863
263.1767, 344.4219
263.6588, 303.1328
264.1409, 260.9531
264.6230, 240.9414
265.1052, 265.3672
265.5873, 268.3320
266.0694, 235.1348
266.5515, 189.7129
267.0336, 142.6816
267.5157, 99.86133
267.9979, 69.75977
268.4800, 68.08789
268.9621, 116.8184
269.4442, 144.9160
269.9263, 157.5645
270.4084, 151.8770
270.8906, 114.0293
271.3727, 47.41992
271.8548, 22.75000
272.3369, 64.41406
272.8190, 67.41602
273.3011, 74.47852
273.7833, 75.79102
274.2654, 87.87109
274.7475, 132.6191
275.2296, 202.7246
275.7117, 264.6309
276.1938, 281.7109
276.6760, 241.7773
277.1581, 230.9219
277.6402, 268.2539
278.1223, 310.0723
278.6044, 343.2129
279.0865, 363.0469
279.5686, 362.6875
280.0508, 332.4609
280.5329, 271.2500
281.0150, 241.2637
281.4971, 276.8750
281.9792, 303.4316
282.4613, 282.1348
282.9435, 228.0957
283.4256, 183.2871
283.9077, 177.7324
284.3898, 203.3262
284.8719, 193.9785
285.3540, 109.6953
285.8362, 41.28711
286.3183, 23.61523
286.8004, 37.30664
287.2825, 48.41797
287.7646, 39.96680
288.2467, 13.77539
288.7289, 26.17773
289.2110, 92.69531
289.6931, 154.4141
290.1752, 203.1309
290.6573, 245.0176
291.1394, 288.7188
291.6216, 338.1152
292.1037, 386.1191
292.5858, 418.5098
293.0679, 418.6836
293.5500, 433.6777
294.0321, 459.9316
294.5143, 507.4590
294.9964, 605.8633
295.4785, 763.4102
295.9606, 919.0664
296.4427, 977.9023
296.9248, 887.0586
297.4070, 858.5742
297.8891, 921.8027
298.3712, 1037.111
298.8533, 1192.635
299.3354, 1379.074
299.8175, 1547.180
300.2997, 1640.178
300.7818, 1641.996
301.2639, 1674.477
301.7460, 1758.672
302.2281, 1854.217
302.7102, 1937.576
303.1924, 2006.744
303.6745, 2070.307
304.1566, 2134.873
304.6387, 2201.258
305.1208, 2274.184
305.6029, 2348.182
306.0851, 2433.727
306.5672, 2541.521
307.0493, 2666.066
307.5314, 2791.674
308.0135, 2910.354
308.4956, 3022.760
308.9778, 3126.930
309.4599, 3210.051
309.9420, 3302.223
310.4241, 3415.953
310.9062, 3544.803
311.3883, 3677.160
311.8705, 3809.377
312.3526, 3935.357
312.8347, 4032.883
313.3168, 4080.168
313.7989, 4154.986
314.2810, 4281.043
314.7632, 4440.605
315.2453, 4619.256
315.7274, 4812.672
316.2095, 5006.598
316.6916, 5183.430
317.1737, 5340.996
317.6559, 5497.496
318.1380, 5656.732
318.6201, 5814.492
319.1022, 5953.564
319.5843, 6076.033
320.0664, 6223.189
320.5485, 6444.502
321.0306, 6745.791
321.5128, 7001.242
321.9949, 7191.459
322.4770, 7356.166
322.9591, 7520.910
323.4412, 7683.398
323.9233, 7830.045
324.4055, 7944.109
324.8876, 8035.498
325.3697, 8161.543
325.8518, 8361.035
326.3339, 8549.301
326.8160, 8688.148
327.2982, 8794.113
327.7803, 8911.375
328.2624, 9063.254
328.7445, 9229.027
329.2266, 9353.551
329.7087, 9415.205
330.1909, 9481.188
330.6730, 9585.684
331.1551, 9694.828
331.6372, 9756.531
332.1193, 9754.217
332.6014, 9730.180
333.0836, 9748.547
333.5657, 9830.477
334.0478, 9898.730
334.5299, 9957.039
335.0120, 9999.184
335.4941, 10013.86
335.9763, 10001.25
336.4584, 9979.117
336.9405, 9962.727
337.4226, 9954.211
337.9047, 9946.355
338.3868, 9943.254
338.8690, 9939.883
339.3511, 9933.727
339.8332, 9923.711
340.3153, 9907.500
340.7974, 9884.113
341.2795, 9852.875
341.7617, 9809.699
342.2438, 9761.520
342.7259, 9694.324
343.2080, 9585.070
343.6901, 9463.051
344.1722, 9376.184
344.6544, 9344.543
345.1365, 9340.516
345.6186, 9307.332
346.1007, 9222.254
346.5828, 9142.133
347.0649, 9064.512
347.5471, 8991.879
348.0292, 8934.035
348.5113, 8889.980
348.9934, 8842.363
349.4755, 8769.863
349.9576, 8667.660
350.4398, 8556.367
350.9219, 8418.461
351.4040, 8288.320
351.8861, 8200.418
352.3682, 8139.664
352.8503, 8056.238
353.3325, 7908.398
353.8146, 7701.930
354.2967, 7528.578
354.7788, 7433.824
355.2609, 7319.852
355.7430, 7151.863
356.2252, 6955.988
356.7073, 6772.082
357.1894, 6619.500
357.6715, 6482.336
358.1536, 6317.562
358.6357, 6085.484
359.1179, 5887.547
359.5999, 5761.297
360.0821, 5646.723
360.5642, 5492.504
361.0463, 5290.043
361.5284, 5070.762
362.0105, 4872.031
362.4926, 4697.727
362.9748, 4530.492
363.4569, 4396.906
363.9390, 4246.043
364.4211, 4035.820
364.9032, 3786.207
365.3853, 3557.223
365.8675, 3399.918
366.3496, 3303.477
366.8317, 3162.801
367.3138, 2933.117
367.7959, 2713.727
368.2780, 2515.555
368.7602, 2343.266
369.2423, 2206.918
369.7244, 2112.305
370.2065, 2039.250
370.6886, 1947.516
371.1707, 1828.922
371.6529, 1711.613
372.1350, 1596.422
372.6171, 1485.699
373.0992, 1381.051
373.5813, 1282.750
374.0634, 1188.453
374.5456, 1101.672
375.0277, 1023.781
375.5098, 922.7969
375.9919, 757.9961
376.4740, 615.3594
376.9561, 552.5820
377.4383, 541.4883
377.9204, 514.7031
378.4025, 422.1328
378.8846, 294.0391
379.3667, 222.2031
379.8488, 233.2266
380.3310, 231.6406
380.8131, 165.0586
381.2952, 72.69922
381.7773, 12.89844
382.2594, 87.15234
382.7415, 136.4727
383.2237, 140.3516
383.7058, 99.01172
384.1879, 43.54688
384.6700, 44.75000
385.1521, 116.1055
385.6342, 122.2070
386.1164, 66.57422
386.5985, 5.406250
387.0806, 54.69141
387.5627, 95.75000
388.0448, 58.44531
388.5269, 84.56641
389.0091, 228.8906
389.4912, 279.4805
389.9733, 274.2344
390.4554, 295.9414
390.9375, 381.4336
391.4196, 481.4883
391.9018, 543.2148
392.3839, 572.6172
392.8660, 622.8281
393.3481, 722.6250
393.8302, 852.2227
394.3123, 969.1758
394.7945, 1065.438
395.2766, 1175.531
395.7587, 1327.031
396.2408, 1497.363
396.7229, 1638.051
397.2050, 1736.230
397.6872, 1838.082
398.1693, 2004.781
398.6514, 2243.715
399.1335, 2447.562
399.6156, 2585.184
400.0977, 2709.602
400.5798, 2856.145
401.0620, 3024.023
401.5441, 3197.668
402.0262, 3365.910
402.5083, 3533.496
402.9904, 3721.656
403.4725, 3946.930
403.9547, 4169.293
404.4368, 4369.258
404.9189, 4567.004
405.4010, 4791.820
405.8831, 5050.922
406.3652, 5322.434
406.8474, 5575.434
407.3295, 5807.145
407.8116, 6020.273
408.2937, 6192.934
408.7758, 6367.844
409.2579, 6553.184
409.7401, 6760.816
410.2222, 7019.766
410.7043, 7362.523
411.1864, 7773.543
411.6685, 8125.398
412.1506, 8345.586
412.6328, 8592.926
413.1149, 8910.707
413.5970, 9258.234
414.0791, 9584.840
414.5612, 9874.477
415.0433, 10160.86
415.5255, 10504.45
416.0076, 10933.03
416.4897, 11328.13
416.9718, 11633.96
417.4539, 11944.64
417.9360, 12317.00
418.4182, 12738.51
418.9003, 13146.79
419.3824, 13490.36
419.8645, 13786.54
420.3466, 14121.39
420.8287, 14505.39
421.3109, 14903.34
421.7930, 15334.95
422.2751, 15755.79
422.7572, 16103.92
423.2393, 16353.93
423.7214, 16567.98
424.2036, 16815.58
424.6857, 17094.26
425.1678, 17347.60
425.6499, 17552.52
426.1320, 17740.75
426.6141, 17969.05
427.0963, 18225.59
427.5784, 18410.51
428.0605, 18439.37
428.5426, 18388.92
429.0247, 18385.84
429.5068, 18440.87
429.9890, 18472.01
430.4711, 18437.90
430.9532, 18333.61
431.4353, 18173.09
431.9174, 17944.45
432.3995, 17676.75
432.8817, 17370.36
433.3638, 17037.80
433.8459, 16704.69
434.3280, 16381.62
434.8101, 16053.12
435.2922, 15695.68
435.7744, 15300.80
436.2565, 14909.47
436.7386, 14527.58
437.2207, 14145.24
437.7028, 13763.48
438.1849, 13378.05
438.6671, 12975.36
439.1492, 12545.31
439.6313, 12091.38
440.1134, 11646.22
440.5955, 11203.03
441.0776, 10776.73
441.5598, 10361.41
442.0418, 9970.137
442.5240, 9633.387
443.0061, 9354.129
443.4882, 9085.352
443.9703, 8762.559
444.4524, 8363.621
444.9345, 8010.883
445.4167, 7706.934
445.8988, 7449.613
446.3809, 7274.824
446.8630, 7145.102
447.3451, 6984.488
447.8272, 6744.383
448.3094, 6468.906
448.7915, 6278.199
449.2736, 6210.910
449.7557, 6120.742
450.2378, 5940.766
450.7199, 5740.328
451.2021, 5559.328
451.6842, 5404.609
452.1663, 5278.109
452.6484, 5200.102
453.1305, 5158.383
453.6126, 5088.137
454.0948, 4969.594
454.5769, 4855.004
455.0590, 4799.629
455.5411, 4772.574
456.0232, 4712.590
456.5053, 4571.465
456.9875, 4441.520
457.4696, 4429.344
457.9517, 4505.492
458.4338, 4526.727
458.9159, 4432.754
459.3980, 4290.945
459.8802, 4200.621
460.3623, 4162.977
460.8444, 4131.012
461.3265, 4089.703
461.8086, 4050.992
462.2907, 4046.980
462.7729, 4075.172
463.2550, 4076.059
463.7371, 3992.688
464.2192, 3841.793
464.7013, 3748.652
465.1834, 3772.848
465.6656, 3788.191
466.1477, 3770.418
466.6298, 3732.785
467.1119, 3687.926
467.5940, 3641.035
468.0761, 3598.785
468.5583, 3570.957
469.0404, 3560.715
469.5225, 3536.473
470.0046, 3478.715
470.4867, 3420.520
470.9688, 3361.949
471.4510, 3316.324
471.9331, 3310.094
472.4152, 3358.980
472.8973, 3425.254
473.3794, 3435.688
473.8615, 3379.191
474.3437, 3314.359
474.8258, 3232.250
475.3079, 3158.004
475.7900, 3119.273
476.2721, 3112.594
476.7542, 3100.570
477.2364, 3052.961
477.7185, 2982.820
478.2006, 2917.082
478.6827, 2854.984
479.1648, 2807.609
479.6469, 2790.898
480.1291, 2789.688
480.6112, 2780.789
481.0933, 2772.375
481.5754, 2738.203
482.0575, 2630.051
482.5396, 2493.609
483.0217, 2422.438
483.5038, 2437.387
483.9860, 2473.418
484.4681, 2472.980
484.9502, 2433.750
485.4323, 2375.645
485.9144, 2286.402
486.3965, 2191.102
486.8787, 2085.570
487.3608, 1985.242
487.8429, 1922.336
488.3250, 1909.230
488.8071, 1916.461
489.2892, 1891.117
489.7714, 1812.559
490.2535, 1745.695
490.7356, 1697.668
491.2177, 1651.914
491.6998, 1617.521
492.1819, 1580.998
492.6641, 1506.639
493.1462, 1365.760
493.6283, 1189.725
494.1104, 1071.365
494.5925, 1030.988
495.0746, 993.6758
495.5568, 954.1133
496.0389, 904.6504
496.5210, 832.1973
497.0031, 739.3242
497.4852, 652.0527
497.9673, 596.4355
498.4495, 561.0059
498.9316, 515.1445
499.4137, 456.3730
499.8958, 388.4004
500.3779, 297.9531
500.8600, 204.5742
501.3422, 149.9844
501.8243, 152.6582
502.3064, 157.8828
502.7885, 134.4648
503.2706, 95.26953
503.7527, 63.38086
504.2349, 44.48633
504.7170, 25.58594
505.1991, 5.574219
505.6812, 50.64844
506.1633, 98.50391
506.6454, 167.1836
507.1276, 217.4785
507.6097, 227.0547
508.0918, 211.4180
508.5739, 188.8984
509.0560, 167.2715
509.5381, 154.4902
510.0203, 166.5742
510.5024, 217.3887
510.9845, 243.8105
511.4666, 220.9336
511.9487, 198.5762
512.4308, 198.8262
512.9130, 213.7207
513.3951, 225.5762
513.8772, 225.6953
514.3593, 218.2793
514.8414, 209.5625
515.3235, 199.3945
515.8057, 194.0879
516.2878, 201.5605
516.7699, 208.2090
517.2520, 206.5566
517.7341, 195.6973
518.2162, 169.8418
518.6984, 88.64453
519.1805, 12.96680
519.6626, 55.22266
520.1447, 204.6543
520.6268, 291.8398
521.1089, 215.9473
521.5911, 52.84961
522.0732, 19.22852
522.5553, 28.90625
523.0374, 62.31250
523.5195, 43.99609
524.0016, 11.92969
524.4838, 2.789063
524.9659, 1.232422
525.4480, 14.38672
525.9301, 32.39062
526.4122, 49.15039
526.8943, 32.72461
527.3765, 67.76367
527.8586, 128.1523
528.3407, 113.7676
528.8228, 73.83203
529.3049, 45.79492
529.7870, 35.80859
530.2692, 30.46680
530.7513, 13.63086
531.2334, 10.10156
531.7155, 4.679688
532.1976, 52.15625
532.6797, 87.46094
533.1619, 38.83008
533.6440, 31.95703
534.1261, 62.76562
534.6082, 41.43359
535.0903, 0.2207030
535.5724, 42.70117
536.0546, 90.00977
536.5367, 162.8125
537.0188, 267.1504
537.5009, 344.0605
537.9830, 340.8809
538.4651, 272.7285
538.9473, 231.2676
539.4294, 220.7109
539.9115, 227.4766
540.3936, 267.0684
540.8757, 312.4160
541.3578, 322.7715
541.8400, 294.3574
542.3221, 265.7578
542.8042, 280.6309
543.2863, 340.0840
543.7684, 364.7383
544.2505, 306.9160
544.7326, 271.5703
545.2147, 297.7188
545.6968, 346.9316
546.1790, 369.6875
546.6611, 355.9492
547.1432, 349.7012
547.6253, 420.6992
548.1074, 557.1211
548.5895, 612.7227
549.0717, 539.9219
549.5538, 477.4648
550.0359, 535.7266
550.5180, 650.4258
551.0001, 724.0820
551.4822, 725.1270
551.9644, 722.9805
552.4465, 776.4219
552.9286, 854.2207
553.4107, 884.2031
553.8928, 851.3262
554.3749, 812.3262
554.8571, 820.5566
555.3392, 874.1445
555.8213, 904.6992
556.3034, 876.6621
556.7855, 872.1172
557.2676, 938.7559
557.7498, 1027.357
558.2319, 1076.420
558.7140, 1073.529
559.1961, 1053.143
559.6782, 1050.996
560.1603, 1067.426
560.6425, 1090.902
561.1246, 1128.248
561.6067, 1163.055
562.0888, 1187.059
562.5709, 1207.592
563.0530, 1237.818
563.5352, 1281.240
564.0173, 1309.604
564.4994, 1282.184
564.9815, 1219.312
565.4636, 1189.277
565.9457, 1202.232
566.4279, 1234.689
566.9100, 1281.281
567.3921, 1332.965
567.8742, 1359.414
568.3563, 1341.473
568.8384, 1326.555
569.3206, 1342.486
569.8027, 1367.279
570.2848, 1372.244
570.7669, 1353.424
571.2490, 1323.510
571.7311, 1292.391
572.2133, 1261.590
572.6954, 1246.391
573.1775, 1259.305
573.6596, 1271.131
574.1417, 1276.652
574.6238, 1279.535
575.1060, 1284.453
575.5881, 1291.730
576.0702, 1297.174
576.5523, 1295.816
577.0344, 1292.156
577.5165, 1301.844
577.9987, 1323.957
578.4808, 1334.537
578.9629, 1328.375
579.4450, 1319.475
579.9271, 1314.996
580.4092, 1308.139
580.8914, 1303.750
581.3735, 1311.789
581.8556, 1323.168
582.3377, 1326.996
582.8198, 1321.633
583.3019, 1307.033
583.7841, 1281.520
584.2662, 1250.230
584.7483, 1228.684
585.2304, 1218.969
585.7125, 1225.809
586.1946, 1277.514
586.6768, 1312.602
587.1589, 1275.084
587.6410, 1189.803
588.1231, 1126.330
588.6052, 1126.848
589.0873, 1162.748
589.5695, 1175.459
590.0516, 1162.965
590.5337, 1165.797
591.0158, 1206.570
591.4979, 1236.967
591.9800, 1215.996
592.4622, 1157.062
592.9443, 1102.846
593.4264, 1062.209
593.9085, 1034.215
594.3906, 1026.174
594.8727, 1032.281
595.3549, 1030.809
595.8370, 1012.418
596.3191, 989.9160
596.8012, 982.0605
597.2833, 992.0801
597.7654, 1003.697
598.2476, 1031.293
598.7297, 1046.234
599.2118, 1027.480
599.6939, 993.5469
600.1760, 968.6367
600.6581, 961.3359
601.1403, 964.8809
601.6224, 971.6328
602.1045, 978.7383
602.5866, 980.9355
603.0687, 984.5684
603.5508, 976.7070
604.0330, 927.5254
604.5151, 870.2344
604.9972, 854.3926
605.4793, 895.7754
605.9614, 941.7637
606.4435, 970.0664
606.9257, 978.0254
607.4078, 960.9531
607.8899, 924.3574
608.3720, 884.0020
608.8541, 843.1699
609.3362, 810.5039
609.8184, 819.7246
610.3005, 942.4863
610.7826, 1001.969
611.2647, 946.8066
611.7468, 873.1230
612.2289, 838.0469
612.7111, 839.1074
613.1932, 850.9707
613.6753, 860.4375
614.1574, 864.5781
614.6395, 854.5547
615.1216, 829.0449
615.6038, 827.2031
616.0859, 874.3574
616.5680, 917.9160
617.0501, 903.1230
617.5322, 847.1758
618.0143, 807.0078
618.4965, 798.4199
618.9786, 803.8379
619.4607, 815.4492
619.9428, 832.6309
620.4249, 866.8320
620.9070, 917.9238
621.3892, 939.0527
621.8713, 871.9043
622.3534, 717.7598
622.8355, 637.3125
623.3176, 695.0684
623.7997, 748.4688
624.2819, 781.2500
624.7640, 798.3711
625.2461, 801.6348
625.7282, 792.7969
626.2103, 777.7949
626.6924, 755.0371
627.1745, 732.5898
627.6566, 734.1465
628.1387, 761.5117
628.6208, 784.3242
629.1030, 790.4668
629.5851, 787.5605
630.0672, 790.7520
630.5493, 802.5234
631.0314, 792.5195
631.5135, 729.8516
631.9957, 668.9707
632.4778, 643.5488
632.9599, 646.0879
633.4420, 658.3984
633.9241, 673.3379
634.4063, 693.6777
634.8884, 729.7910
635.3705, 788.8164
635.8526, 802.2246
636.3347, 722.9531
636.8168, 663.7402
637.2990, 678.9824
637.7811, 725.9180
638.2632, 754.5781
638.7453, 754.4902
639.2274, 744.8379
639.7095, 740.1523
640.1917, 734.2168
640.6738, 707.2578
641.1559, 660.0898
641.6380, 634.1777
642.1201, 658.8926
642.6022, 706.5137
643.0844, 710.8301
643.5665, 628.3555
644.0486, 595.1680
644.5307, 658.6113
645.0128, 724.5645
645.4949, 742.1758
645.9771, 722.4844
646.4592, 690.5645
646.9413, 656.9141
647.4234, 633.0000
647.9055, 640.3184
648.3876, 678.2480
648.8698, 711.5684
649.3519, 737.5820
649.8340, 758.1035
650.3161, 778.1953
650.7982, 791.8281
651.2803, 784.2090
651.7625, 743.9434
652.2446, 709.7441
652.7267, 701.3535
653.2088, 703.8086
653.6909, 700.7090
654.1730, 691.8438
654.6552, 685.2773
655.1373, 685.8242
655.6194, 692.8750
656.1015, 705.0039
656.5836, 722.6562
657.0657, 743.7402
657.5479, 796.3652
658.0300, 824.3516
658.5121, 776.8574
658.9942, 691.2051
659.4763, 646.1836
659.9584, 677.5703
660.4406, 723.6152
660.9227, 724.8066
661.4048, 697.2656
661.8869, 686.5820
662.3690, 698.9004
662.8511, 704.0312
663.3333, 675.1445
663.8154, 624.7168
664.2975, 604.0527
664.7796, 641.3594
665.2617, 665.1523
665.7438, 655.7051
666.2260, 649.3535
666.7081, 685.4355
667.1902, 748.0879
667.6723, 782.1582
668.1544, 752.0215
668.6365, 700.1738
669.1187, 701.3398
669.6008, 754.9102
670.0829, 797.0332
670.5650, 812.7695
671.0471, 821.0332
671.5292, 835.2871
672.0114, 854.8418
672.4935, 875.7656
672.9756, 909.2188
673.4577, 920.8496
673.9398, 868.4062
674.4219, 813.2070
674.9041, 833.4473
675.3862, 914.2051
675.8683, 967.2910
676.3504, 934.1348
676.8325, 855.3867
677.3146, 834.5605
677.7968, 889.8125
678.2789, 915.7168
678.7610, 873.7676
679.2431, 833.8203
679.7252, 843.7598
680.2073, 884.1484
680.6895, 911.4980
681.1716, 910.3164
681.6537, 906.1309
682.1358, 926.6562
682.6179, 950.1055
683.1000, 933.7109
683.5822, 880.3535
684.0643, 841.6445
684.5464, 854.3457
685.0285, 894.0820
685.5106, 886.5723
685.9927, 795.1777
686.4749, 742.8184
686.9570, 783.6348
687.4391, 815.0996
687.9212, 774.2734
688.4033, 696.6680
688.8854, 653.0508
689.3676, 672.0840
689.8497, 701.2148
690.3318, 693.2148
690.8139, 664.1016
691.2960, 646.7051
691.7781, 644.4648
692.2603, 652.0332
692.7424, 668.4199
693.2245, 688.3242
693.7066, 697.6328
694.1887, 691.1680
694.6708, 683.9062
695.1530, 683.3027
695.6351, 674.3047
696.1172, 645.1289
696.5993, 603.5527
697.0814, 559.2637
697.5635, 514.7754
698.0457, 484.0059
698.5278, 494.9316
699.0099, 530.5156
699.4920, 530.8301
699.9741, 489.8770
700.4562, 448.1699
700.9384, 428.3008
701.4205, 418.9688
701.9026, 395.4746
702.3847, 347.7246
702.8668, 314.0801
703.3489, 306.1270
703.8311, 301.0586
704.3132, 284.6836
704.7953, 264.8184
705.2774, 254.7090
705.7595, 258.4961
706.2416, 268.9336
706.7238, 281.9609
707.2059, 295.6367
707.6880, 300.7246
708.1701, 296.2949
708.6522, 289.3945
709.1343, 285.4863
709.6164, 277.1562
710.0985, 249.2910
710.5806, 198.0566
711.0627, 155.9375
711.5449, 117.6914
712.0270, 96.55664
712.5091, 118.5566
712.9912, 152.9570
713.4733, 150.6504
713.9554, 104.1777
714.4376, 57.88672
714.9197, 58.95117
715.4018, 92.64844
715.8839, 100.6816
716.3660, 80.81055
716.8481, 51.01172
717.3303, 9.455078
717.8124, 29.47070
718.2945, 52.66406
718.7766, 60.12500
719.2587, 45.52930
719.7408, 32.59766
720.2230, 84.79102
720.7051, 50.79688
721.1872, 13.85156
721.6693, 43.49805
722.1514, 31.05078
722.6335, 9.283203
723.1157, 2.3437999E-02
723.5978, 4.226563
724.0799, 31.93164
724.5620, 87.98828
725.0441, 116.6680
725.5262, 91.26953
726.0084, 65.18555
726.4905, 92.54883
726.9726, 156.8086
727.4547, 191.3281
727.9368, 171.5098
728.4189, 155.2637
728.9011, 170.4434
729.3832, 188.9062
729.8653, 180.1953
730.3474, 148.7441
730.8295, 117.8262
731.3116, 99.88867
731.7938, 92.04102
732.2759, 93.96289
732.7580, 105.9336
733.2401, 100.8477
733.7222, 67.59961
734.2043, 41.58984
734.6865, 54.72266
735.1686, 83.76172
735.6507, 72.59766
736.1328, 1.105469
736.6149, 40.64258
737.0970, 8.054688
737.5792, 35.65625
738.0613, 57.52148
738.5434, 54.76562
739.0255, 20.14648
739.5076, 46.19141
739.9897, 109.0000
740.4719, 121.9980
740.9540, 92.42383
741.4361, 70.14453
741.9182, 54.66406
742.4003, 49.31250
742.8824, 54.89062
743.3646, 71.86133
743.8467, 108.2598
744.3288, 164.6934
744.8109, 201.2656
745.2930, 198.4609
745.7751, 194.2969
746.2573, 202.9238
746.7394, 219.4238
747.2215, 235.9746
747.7036, 252.6680
748.1857, 278.0449
748.6678, 321.6445
749.1500, 373.1426
749.6321, 406.8848
750.1142, 422.9688
750.5963, 446.1445
751.0784, 485.4844
751.5605, 520.4844
752.0427, 533.3770
752.5248, 527.6309
753.0069, 523.0000
753.4890, 513.4727
753.9711, 514.1074
754.4532, 525.6934
754.9354, 548.8535
755.4175, 591.4160
755.8996, 644.7324
756.3817, 693.9258
756.8638, 733.4883
757.3459, 757.2852
757.8281, 740.5078
758.3102, 700.8496
758.7923, 713.2090
759.2744, 784.3105
759.7565, 862.5742
760.2386, 928.2637
760.7208, 977.8164
761.2029, 1000.713
761.6850, 983.1934
762.1671, 996.3164
762.6492, 1071.334
763.1313, 1137.285
763.6135, 1170.281
764.0956, 1183.910
764.5777, 1188.375
765.0598, 1188.344
765.5419, 1195.145
766.0240, 1220.621
766.5062, 1253.078
766.9883, 1273.334
767.4704, 1285.430
767.9525, 1308.904
768.4346, 1348.939
768.9167, 1387.109
769.3989, 1406.656
769.8810, 1410.324
770.3631, 1413.311
770.8452, 1398.607
771.3273, 1414.611
771.8094, 1499.008
772.2916, 1579.910
772.7737, 1621.385
773.2558, 1629.996
773.7379, 1617.309
774.2200, 1577.918
774.7021, 1554.719
775.1843, 1599.490
775.6664, 1662.607
776.1485, 1666.109
776.6306, 1621.395
777.1127, 1596.275
777.5948, 1621.398
778.0770, 1674.641
778.5591, 1730.721
779.0412, 1790.719
779.5233, 1816.873
780.0054, 1794.945
780.4875, 1773.973
780.9697, 1764.514
781.4518, 1766.189
781.9339, 1778.762
782.4160, 1799.797
782.8981, 1827.201
783.3802, 1891.195
783.8624, 1932.121
784.3445, 1884.447
784.8266, 1808.807
785.3087, 1798.287
785.7908, 1854.783
786.2729, 1904.543
786.7551, 1897.033
787.2372, 1852.955
787.7193, 1802.914
788.2014, 1748.871
788.6835, 1752.797
789.1656, 1840.756
789.6478, 1913.180
790.1299, 1898.490
790.6120, 1833.479
791.0941, 1811.197
791.5762, 1852.533
792.0583, 1877.127
792.5404, 1869.559
793.0225, 1851.439
793.5046, 1826.328
793.9868, 1806.477
794.4689, 1802.861
794.9510, 1816.604
795.4331, 1828.342
795.9152, 1820.889
796.3973, 1807.674
796.8795, 1819.723
797.3616, 1847.359
797.8437, 1838.326
798.3258, 1777.938
798.8079, 1725.016
799.2900, 1736.111
799.7722, 1796.094
800.2543, 1820.389
800.7364, 1791.238
801.2185, 1762.645
801.7006, 1736.619
802.1827, 1713.969
802.6649, 1695.188
803.1470, 1680.441
803.6291, 1669.947
804.1112, 1663.572
804.5933, 1663.293
805.0754, 1670.779
805.5576, 1684.871
806.0397, 1716.340
806.5218, 1752.033
807.0039, 1753.521
807.4860, 1710.623
807.9681, 1667.740
808.4503, 1683.002
808.9324, 1738.699
809.4145, 1726.068
809.8966, 1627.543
810.3787, 1572.932
810.8608, 1612.773
811.3430, 1671.420
811.8251, 1676.756
812.3072, 1638.740
812.7893, 1629.447
813.2714, 1683.055
813.7535, 1713.854
814.2357, 1682.621
814.7178, 1649.811
815.1999, 1661.855
815.6820, 1704.029
816.1641, 1745.230
816.6462, 1775.131
817.1284, 1783.838
817.6105, 1745.354
818.0926, 1686.537
818.5747, 1660.266
819.0568, 1664.650
819.5389, 1680.590
820.0211, 1702.758
820.5032, 1713.127
820.9853, 1687.250
821.4674, 1628.510
821.9495, 1590.082
822.4316, 1570.039
822.9138, 1574.578
823.3959, 1646.658
823.8780, 1701.561
824.3601, 1653.932
824.8422, 1548.498
825.3243, 1508.912
825.8065, 1586.857
826.2886, 1655.516
826.7707, 1658.543
827.2528, 1638.572
827.7349, 1630.920
828.2170, 1631.855
828.6992, 1624.453
829.1813, 1603.090
829.6634, 1578.664
830.1455, 1562.277
830.6276, 1552.357
831.1097, 1550.403
831.5919, 1555.129
832.0740, 1533.901
832.5561, 1470.645
833.0382, 1411.475
833.5203, 1405.145
834.0024, 1443.107
834.4846, 1452.105
834.9667, 1393.211
835.4488, 1364.795
835.9309, 1401.209
836.4130, 1439.973
836.8951, 1447.677
837.3773, 1433.049
837.8594, 1415.608
838.3415, 1400.430
838.8236, 1391.581
839.3057, 1393.733
839.7878, 1399.461
840.2700, 1410.635
840.7521, 1414.879
841.2342, 1378.926
841.7163, 1302.778
842.1984, 1240.870
842.6805, 1247.352
843.1627, 1296.227
843.6448, 1305.194
844.1269, 1271.058
844.6090, 1252.834
845.0911, 1269.210
845.5732, 1278.877
846.0554, 1247.699
846.5375, 1191.304
847.0196, 1157.010
847.5017, 1151.977
847.9838, 1165.092
848.4659, 1209.689
848.9481, 1242.631
849.4302, 1253.713
849.9123, 1246.868
850.3944, 1217.563
850.8765, 1169.393
851.3586, 1131.973
851.8408, 1109.375
852.3229, 1111.664
852.8050, 1171.781
853.2871, 1252.071
853.7692, 1287.874
854.2513, 1274.490
854.7335, 1241.293
855.2156, 1203.191
855.6977, 1164.766
856.1798, 1139.596
856.6619, 1128.430
857.1440, 1115.700
857.6262, 1098.688
858.1083, 1092.771
858.5904, 1109.321
859.0725, 1133.098
859.5546, 1144.580
860.0367, 1143.494
860.5189, 1123.601
861.0010, 1066.152
861.4831, 1017.436
861.9652, 991.3018
862.4473, 970.9766
862.9294, 945.5674
863.4116, 914.8369
863.8937, 880.7646
864.3758, 841.3564
864.8579, 806.3848
865.3400, 776.2793
865.8221, 758.1123
866.3043, 766.7305
866.7864, 793.6826
867.2685, 822.4697
867.7506, 845.4902
868.2327, 848.6230
868.7148, 807.9736
869.1970, 741.7607
869.6791, 713.0762
870.1612, 722.0742
870.6433, 740.4365
871.1254, 767.5938
871.6075, 776.5127
872.0897, 739.5576
872.5718, 674.3965
873.0539, 639.5859
873.5360, 649.4531
874.0181, 657.3721
874.5002, 665.2383
874.9823, 668.9746
875.4644, 673.8721
875.9465, 669.8672
876.4286, 636.6279
876.9108, 575.8154
877.3929, 532.3896
877.8750, 545.3994
878.3571, 552.6123
878.8392, 510.3740
879.3214, 449.1572
879.8035, 401.0557
880.2856, 369.9873
880.7677, 350.8975
881.2498, 341.9180
881.7319, 335.0879
882.2141, 317.9590
882.6962, 295.2178
883.1783, 283.1768
883.6604, 281.4209
884.1425, 274.1895
884.6246, 254.8369
885.1068, 240.6201
885.5889, 253.9961
886.0710, 289.2207
886.5531, 302.2520
887.0352, 293.7217
887.5173, 257.9473
887.9995, 166.7432
888.4816, 86.73633
888.9637, 66.38965
889.4458, 83.03711
889.9279, 92.55664
890.4100, 94.31445
890.8922, 88.20703
891.3743, 58.02832
891.8564, 39.19043
892.3385, 65.32715
892.8206, 100.3145
893.3027, 96.02051
893.7849, 55.66895
894.2670, 26.41113
894.7491, 39.85449
895.2312, 54.68457
895.7133, 28.25391
896.1954, 19.43457
896.6776, 63.37305
897.1597, 96.96973
897.6418, 104.9385
898.1239, 81.25391
898.6060, 56.21484
899.0881, 70.85938
899.5703, 116.5439
900.0524, 152.5283
900.5345, 179.2891
901.0166, 180.1367
901.4987, 145.1426
901.9808, 107.1689
902.4630, 91.94043
902.9451, 94.64844
903.4272, 97.44336
903.9093, 90.12500
904.3914, 107.7109
904.8735, 196.7275
905.3557, 252.0928
905.8378, 207.4922
906.3199, 130.9561
906.8020, 94.65039
907.2841, 101.1846
907.7662, 115.6494
908.2484, 140.4746
908.7305, 158.0654
909.2126, 159.3760
909.6947, 151.5996
910.1768, 135.3340
910.6589, 116.8516
911.1411, 112.2744
911.6232, 128.4639
912.1053, 135.9346
912.5874, 94.36230
913.0695, 37.74707
913.5516, 19.16992
914.0338, 31.05664
914.5159, 49.49316
914.9980, 67.61328
915.4801, 84.35449
915.9622, 100.2324
916.4443, 110.4746
916.9265, 100.8047
917.4086, 71.25586
917.8907, 45.99609
918.3728, 27.05566
918.8549, 10.50977
919.3370, 5.298828
919.8192, 20.24219
920.3013, 34.44043
920.7834, 47.86816
921.2655, 56.36035
921.7476, 58.77930
922.2297, 58.12109
922.7119, 50.29199
923.1940, 44.17676
923.6761, 46.06445
924.1582, 53.00391
924.6403, 56.53223
925.1224, 51.57031
925.6046, 63.51367
926.0867, 114.9902
926.5688, 166.3877
927.0509, 205.6973
927.5330, 227.6064
928.0151, 210.3848
928.4973, 167.1094
928.9794, 157.7383
929.4615, 224.2725
929.9436, 298.1045
930.4257, 320.4238
930.9078, 311.5889
931.3900, 290.4307
931.8721, 266.9580
932.3542, 264.7363
932.8363, 290.5723
933.3184, 325.0605
933.8005, 349.8125
934.2827, 367.8359
934.7648, 389.8926
935.2469, 414.3838
935.7290, 418.6514
936.2111, 397.4473
936.6932, 396.8340
937.1754, 447.8652
937.6575, 521.8809
938.1396, 567.2100
938.6217, 582.5342
939.1038, 586.3525
939.5859, 576.9688
940.0681, 558.9658
940.5502, 522.6113
941.0323, 492.7637
941.5144, 489.2285
941.9965, 509.0869
942.4786, 543.3467
942.9608, 613.5547
943.4429, 653.5527
943.9250, 632.6699
944.4071, 614.1660
944.8892, 630.9551
945.3713, 659.1455
945.8535, 675.8975
946.3356, 675.5674
946.8177, 653.6562
947.2998, 576.0469
947.7819, 529.0078
948.2640, 590.4229
948.7462, 670.3252
949.2283, 676.3945
949.7104, 634.9268
950.1925, 613.3896
950.6746, 631.9980
951.1567, 672.0391
951.6389, 744.6387
952.1210, 807.4541
952.6031, 792.2676
953.0852, 731.5684
953.5673, 688.3242
954.0494, 672.4531
954.5316, 681.6064
955.0137, 716.0498
955.4958, 755.2891
955.9779, 763.0850
956.4600, 749.1064
956.9421, 761.2568
957.4242, 797.1855
957.9063, 835.3154
958.3884, 871.6279
958.8705, 896.3604
959.3527, 899.1641
959.8348, 892.3320
960.3169, 913.4385
960.7990, 970.0264
961.2811, 1006.050
961.7632, 1013.566
962.2454, 1020.094
962.7275, 1028.177
963.2096, 1044.779
963.6917, 1097.043
964.1738, 1177.842
964.6559, 1184.047
965.1381, 1038.580
965.6202, 937.3994
966.1023, 927.3076
966.5844, 913.8408
967.0665, 856.1328
967.5486, 773.0840
968.0308, 683.2188
968.5129, 588.5566
968.9950, 513.7646
969.4771, 466.5498
969.9592, 434.7324
970.4413, 431.1504
970.9235, 431.4199
971.4056, 411.7734
971.8877, 377.6621
972.3698, 343.2666
972.8519, 312.3701
973.3340, 289.1230
973.8162, 282.2744
974.2983, 277.6533
974.7804, 262.9951
975.2625, 245.6533
975.7446, 238.4082
976.2267, 237.6523
976.7089, 223.8252
977.1910, 186.8193
977.6731, 152.9424
978.1552, 150.1797
978.6373, 168.4346
979.1194, 197.3506
979.6016, 231.3926
980.0837, 252.1045
980.5658, 257.4766
981.0479, 265.8096
981.5300, 290.5488
982.0121, 318.5527
982.4943, 325.0605
982.9764, 313.4844
983.4585, 302.7373
983.9406, 293.3389
984.4227, 276.5488
984.9048, 248.4072
985.3870, 230.0547
985.8691, 243.3838
986.3512, 276.0781
986.8333, 282.4551
987.3154, 255.2695
987.7975, 269.1982
988.2797, 339.0957
988.7618, 406.1348
989.2439, 449.5615
989.7260, 474.6113
990.2081, 483.8867
990.6902, 479.9873
991.1724, 485.7842
991.6545, 504.3486
992.1366, 525.5596
992.6187, 551.1787
993.1008, 576.2344
993.5829, 597.1934
994.0651, 616.8232
994.5472, 641.2598
995.0293, 671.0186
995.5114, 691.5283
995.9935, 693.6533
996.4756, 698.6582
996.9578, 719.3633
997.4399, 732.9453
997.9220, 711.5195
998.4041, 681.3809
998.8862, 688.2705
999.3683, 738.0352
999.8505, 781.7793
1000.333, 803.6904
1000.815, 822.3789
1001.297, 851.8125
1001.779, 874.2480
1002.261, 860.2012
1002.743, 832.2041
1003.225, 839.9326
1003.707, 895.7422
1004.190, 951.3643
1004.672, 980.3867
1005.154, 1004.869
1005.636, 1048.604
1006.118, 1089.556
1006.600, 1090.918
1007.082, 1065.612
1007.564, 1056.861
1008.046, 1080.492
1008.529, 1115.870
1009.011, 1146.700
1009.493, 1180.463
1009.975, 1235.579
1010.457, 1295.145
1010.939, 1326.744
1011.421, 1330.931
1011.903, 1328.355
1012.385, 1328.538
1012.868, 1335.471
1013.350, 1360.271
1013.832, 1391.537
1014.314, 1402.697
1014.796, 1402.350
1015.278, 1419.455
1015.760, 1456.718
1016.242, 1492.864
1016.725, 1515.362
1017.207, 1530.734
1017.689, 1548.753
1018.171, 1567.488
1018.653, 1577.850
1019.135, 1581.339
1019.617, 1587.468
1020.099, 1598.644
1020.581, 1621.715
1021.064, 1663.720
1021.546, 1707.311
1022.028, 1710.686
1022.510, 1679.846
1022.992, 1697.384
1023.474, 1765.014
1023.956, 1805.323
1024.438, 1796.135
1024.921, 1782.718
1025.403, 1798.865
1025.885, 1834.618
1026.367, 1868.664
1026.849, 1901.575
1027.331, 1920.562
1027.813, 1922.812
1028.295, 1925.390
1028.777, 1930.580
1029.260, 1945.599
1029.742, 1979.048
1030.224, 2023.114
1030.706, 2053.944
1031.188, 2069.463
1031.670, 2082.792
1032.152, 2093.119
1032.634, 2105.630
1033.116, 2124.221
1033.599, 2139.580
1034.081, 2141.967
1034.563, 2136.769
1035.045, 2141.615
1035.527, 2161.604
1036.009, 2173.705
1036.491, 2177.033
1036.973, 2173.760
1037.456, 2157.015
1037.938, 2143.178
1038.420, 2147.266
1038.902, 2165.357
1039.384, 2185.792
1039.866, 2219.451
1040.348, 2221.321
1040.830, 2140.224
1041.313, 2100.856
1041.795, 2177.170
1042.277, 2270.941
1042.759, 2301.237
1043.241, 2284.242
1043.723, 2268.228
1044.205, 2248.673
1044.687, 2246.204
1045.169, 2281.974
1045.651, 2309.382
1046.134, 2297.686
1046.616, 2286.012
1047.098, 2315.606
1047.580, 2371.430
1048.062, 2405.625
1048.544, 2406.410
1049.026, 2411.729
1049.508, 2435.104
1049.991, 2451.466
1050.473, 2444.710
1050.955, 2442.229
1051.437, 2466.376
1051.919, 2504.706
1052.401, 2525.715
1052.883, 2518.446
1053.365, 2534.000
1053.848, 2597.822
1054.330, 2660.886
1054.812, 2698.724
1055.294, 2733.128
1055.776, 2788.054
1056.258, 2856.836
1056.740, 2915.702
1057.222, 2956.124
1057.704, 3004.076
1058.187, 3071.412
1058.669, 3139.318
1059.151, 3201.967
1059.633, 3251.708
1060.115, 3268.045
1060.597, 3270.141
1061.079, 3314.219
1061.561, 3420.748
1062.043, 3475.357
1062.526, 3398.363
1063.008, 3314.229
1063.490, 3272.004
1063.972, 3253.504
1064.454, 3255.701
1064.936, 3263.311
1065.418, 3246.740
1065.900, 3199.938
1066.383, 3154.814
1066.865, 3126.994
1067.347, 3101.041
1067.829, 3075.914
1068.311, 3043.646
1068.793, 2984.363
1069.275, 2916.618
1069.757, 2881.390
1070.240, 2884.463
1070.722, 2876.420
1071.204, 2830.264
1071.686, 2776.846
1072.168, 2729.812
1072.650, 2682.090
1073.132, 2626.764
1073.614, 2568.590
1074.096, 2519.252
1074.578, 2479.512
1075.061, 2442.561
1075.543, 2409.535
1076.025, 2372.672
1076.507, 2324.227
1076.989, 2274.062
1077.471, 2229.357
1077.953, 2189.549
1078.435, 2151.371
1078.918, 2115.475
1079.400, 2086.568
1079.882, 2071.346
1080.364, 2054.355
1080.846, 2032.023
1081.328, 2003.369
1081.810, 1967.900
1082.292, 1926.178
1082.774, 1878.109
1083.257, 1824.812
1083.739, 1767.574
1084.221, 1697.832
1084.703, 1653.732
1085.185, 1659.799
1085.667, 1688.635
1086.149, 1740.771
1086.631, 1791.938
1087.114, 1810.688
1087.596, 1804.295
1088.078, 1812.295
1088.560, 1853.635
1089.042, 1872.252
1089.524, 1815.309
1090.006, 1767.646
1090.488, 1792.154
1090.970, 1837.398
1091.453, 1842.207
1091.935, 1822.465
1092.417, 1826.039
1092.899, 1866.629
1093.381, 1914.814
1093.863, 1975.447
1094.345, 2020.793
1094.827, 2041.748
1095.309, 2035.289
1095.792, 1977.893
1096.274, 1899.148
1096.756, 1859.301
1097.238, 1868.008
1097.720, 1867.887
1098.202, 1869.303
1098.684, 1821.953
1099.166, 1659.324
1099.649, 1495.443
1100.131, 1417.111
1100.613, 1384.707
1101.095, 1347.924
1101.577, 1296.191
1102.059, 1199.943
1102.541, 992.5469
1103.023, 836.4609
1103.505, 822.5645
1103.988, 809.6895
1104.470, 711.5117
1104.952, 578.4062
1105.434, 463.1094
1105.916, 370.1992
1106.398, 298.7500
1106.880, 268.3281
1107.362, 211.7695
1107.844, 76.01172
1108.327, 33.78516
1108.809, 44.73438
1109.291, 39.94922
1109.773, 105.4453
1110.255, 215.9453
1110.737, 290.0312
1111.219, 312.5000
1111.701, 333.9766
1112.184, 343.1641
1112.666, 374.7773
1113.148, 464.5000
1113.630, 547.0117
1114.112, 577.9492
1114.594, 574.9961
1115.076, 574.3594
1115.558, 582.6875
1116.041, 540.5469
1116.523, 423.9180
1117.005, 299.0430
1117.487, 157.7539
1117.969, 29.11328
1118.451, 61.90625
1118.933, 141.6914
1119.415, 236.8516
1119.897, 347.6289
1120.380, 511.4180
1120.862, 756.8633
1121.344, 977.6055
1121.826, 1144.883
1122.308, 1348.539
1122.790, 1625.797
1123.272, 1945.422
1123.754, 2288.312
1124.236, 2641.297
1124.719, 2951.238
1125.201, 3204.402
1125.683, 3500.746
1126.165, 3843.535
1126.647, 4215.301
1127.129, 4606.539
1127.611, 5046.359
1128.093, 5556.840
1128.576, 6113.223
1129.058, 6668.844
1129.540, 7220.828
1130.022, 7826.062
1130.504, 8483.656
1130.986, 9136.105
1131.468, 9769.691
1131.950, 10415.63
1132.432, 11087.45
1132.915, 11781.36
1133.397, 12493.06
1133.879, 13213.92
1134.361, 13898.64
1134.843, 14560.36
1135.325, 15298.02
1135.807, 16110.72
1136.289, 16823.10
1136.771, 17379.45
1137.254, 17880.01
1137.736, 18407.84
1138.218, 18911.23
1138.700, 19292.05
1139.182, 19574.35
1139.664, 19846.25
1140.146, 20096.88
1140.628, 20254.25
1141.111, 20318.50
1141.593, 20339.99
1142.075, 20348.22
1142.557, 20286.49
1143.039, 20093.20
1143.521, 19787.99
1144.003, 19365.73
1144.485, 18880.58
1144.968, 18455.60
1145.450, 18074.22
1145.932, 17639.42
1146.414, 17122.39
1146.896, 16568.32
1147.378, 15995.52
1147.860, 15425.52
1148.342, 14873.16
1148.824, 14339.48
1149.307, 13836.26
1149.789, 13346.73
1150.271, 12843.12
1150.753, 12323.58
1151.235, 11798.58
1151.717, 11265.27
1152.199, 10763.02
1152.681, 10322.77
1153.163, 9911.211
1153.646, 9487.312
1154.128, 9097.164
1154.610, 8832.945
1155.092, 8631.078
1155.574, 8323.727
1156.056, 7876.852
1156.538, 7484.914
1157.020, 7223.344
1157.503, 6992.477
1157.985, 6758.445
1158.467, 6554.438
1158.949, 6418.094
1159.431, 6314.406
1159.913, 6202.047
1160.395, 6077.930
1160.877, 5920.961
1161.359, 5677.875
1161.842, 5514.180
1162.324, 5489.938
1162.806, 5453.711
1163.288, 5479.828
1163.770, 5466.547
1164.252, 5396.859
1164.734, 5291.812
1165.216, 5238.500
1165.698, 5221.797
1166.181, 5192.008
1166.663, 5154.609
1167.145, 5085.656
1167.627, 5000.383
1168.109, 4883.734
1168.591, 4728.219
1169.073, 4615.703
1169.555, 4629.219
1170.037, 4712.945
1170.520, 4705.242
1171.002, 4609.000
1171.484, 4507.500
1171.966, 4405.711
1172.448, 4365.578
1172.930, 4398.188
1173.412, 4483.500
1173.894, 4617.641
1174.377, 4743.922
1174.859, 4759.297
1175.341, 4713.383
1175.823, 4755.055
1176.305, 4843.305
1176.787, 4867.289
1177.269, 4837.883
1177.751, 4863.945
1178.234, 4977.250
1178.716, 5053.602
1179.198, 4969.617
1179.680, 4868.047
1180.162, 4959.961
1180.644, 5081.742
1181.126, 5018.484
1181.608, 4834.188
1182.090, 4633.258
1182.573, 4443.648
1183.055, 4285.000
1183.537, 4171.422
1184.019, 4025.547
1184.501, 3776.070
1184.983, 3519.352
1185.465, 3310.430
1185.947, 3115.500
1186.429, 2885.664
1186.912, 2658.305
1187.394, 2527.680
1187.876, 2495.531
1188.358, 2374.156
1188.840, 2040.086
1189.322, 1758.430
1189.804, 1595.953
1190.286, 1441.148
1190.769, 1236.562
1191.251, 1039.250
1191.733, 920.0234
1192.215, 835.8984
1192.697, 668.1875
1193.179, 400.8516
1193.661, 203.7109
1194.143, 82.41406
1194.625, 17.55469
1195.108, 9.476563
1195.590, 48.30469
1196.072, 132.9844
1196.554, 204.0938
1197.036, 195.4062
1197.518, 126.6250
1198.000, 23.32031
1198.482, 106.7891
1198.964, 161.9609
1199.447, 144.8594
1199.929, 105.7344
1200.411, 58.34375
1200.893, 45.48438
1201.375, 217.5781
1201.857, 415.6875
1202.339, 624.7812
1202.821, 809.8906
1203.304, 904.6094
1203.786, 954.6875
1204.268, 1048.266
1204.750, 1176.844
1205.232, 1273.688
1205.714, 1335.281
1206.196, 1439.953
1206.678, 1664.188
1207.161, 1820.031
1207.643, 1759.844
1208.125, 1671.156
1208.607, 1707.297
1209.089, 1772.656
1209.571, 1546.526
1210.053, 1747.327
1210.535, 1837.878
1211.017, 1824.128
1211.500, 1393.518
1211.982, 1501.151
1212.464, 1393.135
1212.946, 1276.263
1213.428, 1459.651
1213.910, 1089.760
1214.392, 1268.386
1214.874, 1228.047
1215.356, 1287.930
1215.839, 1130.703
1216.321, 1040.603
1216.803, 1167.579
1217.285, 905.6406
1217.767, 722.6562
1218.249, 498.7812
1218.731, 318.9219
1219.213, 94.39062
1219.696, 5.609375
1220.178, 0.0000000E+00
##END=



