##NAMES=Fluorophlogopite
##RRUFFID=R040075
##IDEAL CHEMISTRY=KMg_3_(Si_3_Al)O_10_F_2_
##LOCALITY=unknown
##OWNER=RRUFF
##SOURCE=University of Arizona Mineral Museum
##DESCRIPTION=Green hexagonal tablet
##STATUS=The identification of this mineral has been confirmed by X-ray diffraction and chemical analysis
##URL=rruff.info/R040075
##MEASURED CHEMISTRY=(K_0.93_[box]_0.04_Na_0.03_)(Mg_0.66_Fe_0.30_Ti_0.02_)_3_(Si_0.75_Al_0.25_)_4_O_10_(F_0.90_(OH)_0.06_Cl_0.04_)
125.9035, 0.0000000E+00
126.3857, 13.16321
126.8678, 23.01868
127.3499, 28.95001
127.8320, 30.10327
128.3141, 27.80347
128.7962, 21.20953
129.2784, 11.01965
129.7605, 6.387451
130.2426, 7.997864
130.7247, 15.56763
131.2068, 21.25970
131.6889, 23.24335
132.1711, 21.82550
132.6532, 15.80603
133.1353, 3.811584
133.6174, 6.165161
134.0995, 2.489563
134.5816, 15.02649
135.0638, 28.58405
135.5459, 22.28564
136.0280, 30.08264
136.5101, 34.64728
136.9922, 36.15186
137.4743, 25.33728
137.9565, 30.49457
138.4386, 29.29071
138.9207, 27.85107
139.4028, 35.33173
139.8849, 26.44348
140.3670, 33.82935
140.8492, 34.74854
141.3313, 38.65509
141.8134, 36.14874
142.2955, 35.64233
142.7776, 46.49573
143.2597, 53.48047
143.7419, 54.98718
144.2240, 55.37225
144.7061, 54.85583
145.1882, 53.40271
145.6703, 52.75000
146.1524, 54.16034
146.6346, 55.43115
147.1167, 54.16711
147.5988, 47.45306
148.0809, 41.73401
148.5630, 38.37146
149.0451, 37.71466
149.5273, 38.15790
150.0094, 40.79565
150.4915, 44.27423
150.9736, 46.42651
151.4557, 46.72913
151.9378, 46.09747
152.4200, 44.30286
152.9021, 36.94006
153.3842, 35.26575
153.8663, 46.84564
154.3484, 66.11078
154.8305, 75.35529
155.3127, 60.92749
155.7948, 43.05792
156.2769, 32.84723
156.7590, 38.35474
157.2411, 45.27277
157.7232, 51.86096
158.2053, 57.92725
158.6875, 61.41858
159.1696, 58.63782
159.6517, 54.37140
160.1338, 52.84744
160.6159, 57.94464
161.0980, 63.69382
161.5802, 67.98837
162.0623, 70.67914
162.5444, 72.25195
163.0265, 73.48990
163.5086, 73.63599
163.9907, 71.64066
164.4729, 63.42404
164.9550, 55.38104
165.4371, 52.06018
165.9192, 55.22818
166.4013, 58.97232
166.8834, 58.49380
167.3656, 55.86411
167.8477, 55.70648
168.3298, 62.75351
168.8119, 72.26718
169.2940, 80.13406
169.7761, 85.96930
170.2583, 89.17136
170.7404, 87.53503
171.2225, 82.11639
171.7046, 77.60669
172.1867, 75.93085
172.6688, 76.30844
173.1510, 78.12592
173.6331, 81.48907
174.1152, 83.80054
174.5973, 85.91321
175.0794, 88.15070
175.5615, 89.22290
176.0437, 87.99176
176.5258, 85.86087
177.0079, 85.89279
177.4900, 91.01068
177.9721, 98.36194
178.4542, 105.7809
178.9364, 114.1273
179.4185, 120.4606
179.9006, 119.7323
180.3827, 113.8276
180.8648, 109.3205
181.3469, 110.1958
181.8291, 114.3164
182.3112, 118.8719
182.7933, 123.5350
183.2754, 126.6641
183.7575, 128.4464
184.2396, 129.0048
184.7218, 129.1992
185.2039, 128.7552
185.6860, 128.1949
186.1681, 129.9660
186.6502, 135.3887
187.1323, 141.4066
187.6144, 141.5681
188.0966, 135.9526
188.5787, 130.0668
189.0608, 128.1226
189.5429, 129.6737
190.0250, 130.8422
190.5071, 131.5077
190.9893, 131.3688
191.4714, 129.3382
191.9535, 125.6519
192.4356, 120.8494
192.9177, 114.5153
193.3998, 106.7250
193.8820, 100.8818
194.3641, 98.85110
194.8462, 99.46432
195.3283, 98.09561
195.8104, 95.05051
196.2925, 91.18164
196.7747, 88.06964
197.2568, 85.93777
197.7389, 80.98099
198.2210, 70.34979
198.7031, 54.82663
199.1852, 43.97177
199.6674, 38.52234
200.1495, 36.04208
200.6316, 32.91403
201.1137, 28.69174
201.5958, 26.67932
202.0779, 29.41830
202.5601, 37.46188
203.0422, 41.80161
203.5243, 41.72116
204.0064, 39.02213
204.4885, 37.07217
204.9706, 36.41690
205.4528, 34.51984
205.9349, 28.61835
206.4170, 16.85092
206.8991, 12.54068
207.3812, 18.76541
207.8633, 30.56012
208.3455, 35.45154
208.8276, 31.66525
209.3097, 25.81979
209.7918, 21.16266
210.2739, 17.66245
210.7560, 15.54300
211.2382, 15.22516
211.7203, 16.18433
212.2024, 16.63718
212.6845, 16.60226
213.1666, 16.01495
213.6487, 14.50937
214.1309, 11.33865
214.6130, 9.770569
215.0951, 11.19928
215.5772, 14.76270
216.0593, 14.55176
216.5414, 8.564026
217.0236, 1.902679
217.5057, 1.206055
217.9878, 0.8363340
218.4699, 2.359314
218.9520, 2.472778
219.4341, 1.236359
219.9162, 0.5524290
220.3984, 4.114288
220.8805, 6.711060
221.3626, 5.014709
221.8447, 4.414642
222.3268, 10.55075
222.8089, 9.878143
223.2911, 1.938904
223.7732, 1.779633
224.2553, 0.6807560
224.7374, 5.452148
225.2195, 8.067657
225.7016, 7.491302
226.1838, 6.772949
226.6659, 6.932251
227.1480, 8.324310
227.6301, 7.608582
228.1122, 3.231323
228.5943, 2.032806
229.0765, 4.505524
229.5586, 3.335052
230.0407, 0.7594600
230.5228, 3.313354
231.0049, 9.946381
231.4870, 13.20441
231.9692, 11.88806
232.4513, 8.037384
232.9334, 4.830902
233.4155, 2.256927
233.8976, 0.3836360
234.3797, 0.5962520
234.8619, 0.2800290
235.3440, 0.3948060
235.8261, 1.305084
236.3082, 2.481323
236.7903, 2.739624
237.2724, 1.112671
237.7546, 6.2316999E-02
238.2367, 1.051544
238.7188, 6.588806
239.2009, 7.732758
239.6830, 1.999359
240.1651, 7.364960
240.6473, 12.26920
241.1294, 10.75464
241.6115, 7.644165
242.0936, 4.719757
242.5757, 1.322479
243.0578, 0.3240660
243.5400, 0.7147220
244.0221, 3.353729
244.5042, 4.309967
244.9863, 2.255554
245.4684, 0.4320680
245.9505, 0.8148800
246.4327, 5.813263
246.9148, 7.502625
247.3969, 3.808563
247.8790, 3.268860
248.3611, 6.405212
248.8432, 3.822693
249.3253, 0.2260130
249.8075, 3.842957
250.2896, 8.202545
250.7717, 9.148956
251.2538, 4.022125
251.7359, 4.843872
252.2180, 6.883545
252.7002, 2.102448
253.1823, 11.81265
253.6644, 15.78110
254.1465, 11.00092
254.6286, 7.367004
255.1107, 5.544891
255.5929, 5.435211
256.0750, 6.742432
256.5571, 10.52493
257.0392, 14.12009
257.5213, 15.71072
258.0034, 14.76282
258.4856, 13.02924
258.9677, 9.655914
259.4498, 5.487671
259.9319, 5.780670
260.4140, 12.96460
260.8961, 20.63507
261.3783, 23.47812
261.8604, 18.68341
262.3425, 17.85345
262.8246, 25.13596
263.3067, 38.04700
263.7888, 39.86087
264.2710, 25.42618
264.7531, 9.497681
265.2352, 4.012360
265.7173, 12.16693
266.1994, 19.75885
266.6815, 25.28607
267.1637, 28.79678
267.6458, 30.26212
268.1279, 28.78662
268.6100, 27.17148
269.0921, 27.83179
269.5742, 31.40118
270.0564, 34.66324
270.5385, 37.44730
271.0206, 39.55945
271.5027, 39.93155
271.9848, 38.31253
272.4669, 35.53830
272.9491, 31.19574
273.4312, 24.27066
273.9133, 21.84808
274.3954, 26.74240
274.8775, 36.91748
275.3596, 42.32809
275.8418, 42.41183
276.3239, 40.59329
276.8060, 39.54391
277.2881, 39.29813
277.7702, 38.83258
278.2523, 37.84790
278.7345, 36.45459
279.2166, 34.17065
279.6987, 30.79788
280.1808, 28.86490
280.6629, 32.16721
281.1451, 40.86429
281.6272, 45.96786
282.1093, 45.35443
282.5914, 40.68478
283.0735, 37.42963
283.5556, 35.65579
284.0378, 34.61911
284.5199, 34.80432
285.0020, 36.03210
285.4841, 33.45566
285.9662, 23.61963
286.4483, 10.84601
286.9305, 9.698578
287.4126, 21.30164
287.8947, 34.19360
288.3768, 38.68610
288.8589, 35.81546
289.3410, 33.71075
289.8232, 34.49457
290.3053, 36.41727
290.7874, 35.60403
291.2695, 32.04160
291.7516, 26.96985
292.2337, 19.06851
292.7159, 9.924347
293.1980, 6.653137
293.6801, 12.53818
294.1622, 22.43463
294.6443, 27.43924
295.1264, 27.88675
295.6085, 26.21451
296.0906, 22.74820
296.5728, 18.09222
297.0549, 15.05798
297.5370, 15.11557
298.0191, 16.56464
298.5012, 16.83121
298.9833, 16.02097
299.4655, 15.07852
299.9476, 14.56781
300.4297, 14.33932
300.9118, 14.06784
301.3939, 13.50690
301.8760, 13.74005
302.3582, 16.74118
302.8403, 21.85333
303.3224, 26.23709
303.8045, 28.44016
304.2866, 28.96887
304.7687, 28.30634
305.2509, 26.51373
305.7330, 23.20096
306.2151, 16.46539
306.6972, 8.189911
307.1793, 2.961700
307.6614, 5.547607
308.1436, 11.23926
308.6257, 15.19067
309.1078, 15.70169
309.5899, 16.28088
310.0720, 22.45358
310.5541, 31.95831
311.0363, 37.43463
311.5184, 30.39804
312.0005, 20.99149
312.4826, 17.67548
312.9647, 23.23743
313.4468, 29.38449
313.9290, 33.49557
314.4111, 34.99893
314.8932, 32.82016
315.3753, 20.09924
315.8574, 8.230103
316.3395, 5.243439
316.8217, 14.60281
317.3038, 21.95563
317.7859, 19.78790
318.2680, 12.74014
318.7501, 7.584381
319.2322, 5.734009
319.7144, 6.612427
320.1965, 11.24155
320.6786, 20.91464
321.1607, 27.79181
321.6428, 29.10785
322.1249, 26.90836
322.6071, 23.61877
323.0892, 18.03235
323.5713, 13.03183
324.0534, 8.669891
324.5355, 4.457703
325.0176, 4.238312
325.4998, 13.29050
325.9819, 24.36670
326.4640, 30.55344
326.9461, 25.24646
327.4282, 21.60928
327.9103, 24.03461
328.3925, 33.30206
328.8746, 34.86093
329.3567, 20.84830
329.8388, 4.585754
330.3209, 3.155457
330.8030, 3.814056
331.2852, 10.35757
331.7673, 15.49341
332.2494, 19.07095
332.7315, 18.32135
333.2136, 10.35345
333.6957, 1.445221
334.1779, 4.276886
334.6600, 6.509247
335.1421, 5.945587
335.6242, 0.9778750
336.1063, 6.797760
336.5884, 8.920044
337.0706, 2.508850
337.5527, 3.423645
338.0348, 1.915283
338.5169, 9.286011
338.9990, 16.44257
339.4811, 17.56299
339.9633, 14.66953
340.4454, 13.07327
340.9275, 13.04294
341.4096, 12.92993
341.8917, 10.72070
342.3738, 6.426544
342.8560, 7.005646
343.3381, 14.63705
343.8202, 23.94449
344.3023, 24.25970
344.7844, 15.67581
345.2665, 7.565918
345.7487, 5.296661
346.2308, 7.696777
346.7129, 9.569855
347.1950, 10.74677
347.6771, 11.40936
348.1592, 11.21265
348.6414, 10.47195
349.1235, 10.63229
349.6056, 13.48914
350.0877, 17.44339
350.5698, 19.69006
351.0519, 20.20212
351.5341, 18.78894
352.0162, 13.42325
352.4983, 5.984985
352.9804, 0.6408080
353.4625, 1.899506
353.9446, 1.035004
354.4268, 6.600647
354.9089, 20.33005
355.3910, 31.25784
355.8731, 31.00024
356.3552, 24.60669
356.8373, 18.18811
357.3195, 12.17502
357.8015, 8.215973
358.2837, 7.920044
358.7658, 10.83878
359.2479, 14.87628
359.7300, 21.46118
360.2121, 27.34698
360.6942, 29.94778
361.1764, 26.95383
361.6585, 23.31375
362.1406, 20.05670
362.6227, 17.51144
363.1048, 16.55939
363.5869, 20.26291
364.0691, 23.51779
364.5512, 23.27676
365.0333, 16.43686
365.5154, 12.28864
365.9975, 14.75601
366.4796, 20.42575
366.9618, 23.50974
367.4439, 20.29385
367.9260, 17.25146
368.4081, 16.38315
368.8902, 18.36362
369.3723, 19.79599
369.8545, 20.93057
370.3366, 21.34338
370.8187, 20.44318
371.3008, 17.06088
371.7829, 14.15036
372.2650, 12.27405
372.7472, 11.42676
373.2293, 11.19565
373.7114, 11.85178
374.1935, 12.78189
374.6756, 13.18140
375.1577, 12.44543
375.6399, 13.72595
376.1220, 18.77408
376.6041, 25.92499
377.0862, 27.98148
377.5683, 24.04190
378.0504, 18.56540
378.5326, 13.79553
379.0147, 9.700562
379.4968, 8.614380
379.9789, 11.46100
380.4610, 16.35938
380.9431, 19.80820
381.4253, 21.85934
381.9074, 23.76633
382.3895, 26.63376
382.8716, 29.95972
383.3537, 31.99823
383.8358, 32.59720
384.3180, 32.17844
384.8001, 31.71097
385.2822, 30.74438
385.7643, 27.88214
386.2464, 18.15109
386.7285, 7.967346
387.2107, 7.404114
387.6928, 16.69946
388.1749, 27.72009
388.6570, 37.63455
389.1391, 44.73868
389.6212, 46.28836
390.1034, 34.80185
390.5855, 23.69965
391.0676, 23.69769
391.5497, 32.84433
392.0318, 40.46265
392.5139, 39.82904
392.9961, 37.00848
393.4782, 36.59259
393.9603, 41.12653
394.4424, 45.37799
394.9245, 47.78839
395.4066, 48.59186
395.8888, 48.53564
396.3709, 46.54538
396.8530, 44.85550
397.3351, 44.45920
397.8172, 46.05023
398.2993, 47.54471
398.7815, 49.30106
399.2636, 50.11343
399.7457, 48.84476
400.2278, 41.49338
400.7099, 37.34537
401.1920, 39.96185
401.6742, 49.97165
402.1563, 55.38971
402.6384, 54.26141
403.1205, 51.28751
403.6026, 50.02191
404.0847, 50.10126
404.5669, 51.66742
405.0490, 55.50125
405.5311, 60.66794
406.0132, 63.23087
406.4953, 62.92975
406.9774, 61.51520
407.4596, 59.17316
407.9417, 55.62286
408.4238, 52.72357
408.9059, 50.71539
409.3880, 49.35739
409.8701, 48.82294
410.3523, 48.83264
410.8344, 47.72961
411.3165, 42.10648
411.7986, 35.05518
412.2807, 35.57397
412.7628, 44.44189
413.2450, 54.36142
413.7271, 58.40778
414.2092, 58.08057
414.6913, 56.41943
415.1734, 54.37170
415.6555, 51.66025
416.1377, 46.97665
416.6198, 40.74805
417.1019, 36.41660
417.5840, 37.70673
418.0661, 40.96707
418.5482, 42.59644
419.0303, 40.35724
419.5125, 38.75192
419.9946, 40.55905
420.4767, 44.50192
420.9588, 47.43576
421.4409, 49.39990
421.9230, 49.40073
422.4052, 46.22736
422.8873, 38.00604
423.3694, 32.27936
423.8515, 31.76233
424.3336, 33.62488
424.8157, 34.45087
425.2979, 32.62680
425.7800, 31.78915
426.2621, 32.92548
426.7442, 36.01254
427.2263, 38.69894
427.7084, 41.97980
428.1906, 43.59476
428.6727, 40.55756
429.1548, 30.02808
429.6369, 26.40311
430.1190, 34.31210
430.6011, 47.90527
431.0833, 50.32034
431.5654, 39.87619
432.0475, 28.62567
432.5296, 22.47351
433.0117, 21.09171
433.4938, 21.64835
433.9760, 24.50244
434.4581, 27.38699
434.9402, 27.10205
435.4223, 24.22311
435.9044, 21.32864
436.3865, 19.66608
436.8687, 18.46552
437.3508, 16.13831
437.8329, 12.82657
438.3150, 10.35577
438.7971, 11.08279
439.2792, 13.11664
439.7614, 13.88892
440.2435, 12.19440
440.7256, 10.18695
441.2077, 9.688873
441.6898, 9.981049
442.1719, 9.250458
442.6541, 4.524261
443.1362, 0.2515560
443.6183, 0.7416690
444.1004, 2.604126
444.5825, 5.916046
445.0646, 8.600830
445.5468, 10.61588
446.0289, 11.91336
446.5110, 13.62216
446.9931, 13.30560
447.4752, 9.253113
447.9573, 1.910828
448.4395, 2.355164
448.9216, 1.779419
449.4037, 0.1863400
449.8858, 7.0496000E-02
450.3679, 1.594330
450.8500, 2.919952
451.3322, 3.928009
451.8143, 4.426727
452.2964, 4.212219
452.7785, 3.383942
453.2606, 1.161682
453.7427, 4.681976
454.2249, 13.04852
454.7070, 13.98331
455.1891, 6.377747
455.6712, 2.254395
456.1533, 2.840149
456.6354, 2.563110
457.1176, 6.280945
457.5997, 5.576874
458.0818, 2.725800
458.5639, 0.6867980
459.0460, 0.7278140
459.5281, 2.346069
460.0103, 7.371796
460.4924, 11.60846
460.9745, 9.404327
461.4566, 1.980530
461.9387, 12.52695
462.4208, 17.18008
462.9030, 17.12177
463.3851, 14.06592
463.8672, 4.199982
464.3493, 4.475159
464.8314, 8.467468
465.3135, 7.648987
465.7957, 6.526886
466.2778, 6.026855
466.7599, 5.304199
467.2420, 3.765320
467.7241, 0.3470150
468.2062, 2.370331
468.6884, 4.439331
469.1705, 5.760986
469.6526, 5.780975
470.1347, 3.387146
470.6168, 2.024231
471.0989, 3.262329
471.5811, 7.203857
472.0632, 10.92502
472.5453, 14.35397
473.0274, 17.75723
473.5095, 22.50500
473.9916, 28.42770
474.4738, 30.36111
474.9559, 25.58652
475.4380, 17.65262
475.9201, 13.26715
476.4022, 12.28989
476.8843, 13.82361
477.3665, 20.22803
477.8486, 27.87003
478.3307, 29.91431
478.8128, 24.41730
479.2949, 19.26810
479.7770, 21.45956
480.2592, 27.87503
480.7413, 33.62549
481.2234, 36.51358
481.7055, 38.50946
482.1876, 41.27811
482.6697, 44.55820
483.1518, 45.21448
483.6339, 37.29150
484.1161, 29.99774
484.5982, 29.33981
485.0803, 44.60266
485.5624, 52.60226
486.0445, 47.06244
486.5266, 35.49799
487.0088, 31.41760
487.4909, 39.97037
487.9730, 47.05771
488.4551, 47.76456
488.9372, 42.21973
489.4193, 41.80591
489.9015, 48.05121
490.3836, 55.64966
490.8657, 59.56406
491.3478, 59.76828
491.8299, 62.75616
492.3120, 70.83685
492.7942, 79.65826
493.2763, 79.81894
493.7584, 72.64517
494.2405, 67.29089
494.7226, 71.19995
495.2047, 79.09909
495.6869, 82.15845
496.1690, 80.04617
496.6511, 77.54474
497.1332, 78.88513
497.6153, 81.72253
498.0974, 83.01331
498.5796, 79.89655
499.0617, 77.57391
499.5438, 79.66498
500.0259, 84.59531
500.5080, 88.07346
500.9901, 87.26752
501.4723, 85.98648
501.9544, 86.07794
502.4365, 88.09433
502.9186, 89.61734
503.4007, 92.05914
503.8828, 92.95035
504.3650, 89.00269
504.8471, 74.99921
505.3292, 68.13498
505.8113, 73.89267
506.2934, 87.47876
506.7755, 91.52774
507.2577, 84.03885
507.7398, 76.69055
508.2219, 77.12100
508.7040, 84.26065
509.1861, 87.48264
509.6682, 86.27725
510.1504, 83.09729
510.6325, 80.40347
511.1146, 78.04785
511.5967, 75.01532
512.0788, 68.78421
512.5609, 63.92316
513.0430, 67.47504
513.5251, 77.23209
514.0073, 85.54868
514.4894, 87.86032
514.9715, 87.37109
515.4536, 85.93912
515.9357, 83.14777
516.4178, 82.42560
516.9000, 88.53476
517.3821, 95.80618
517.8642, 97.92007
518.3463, 89.59030
518.8284, 81.42691
519.3105, 73.98788
519.7927, 67.38638
520.2748, 65.76593
520.7569, 72.77109
521.2390, 79.09921
521.7211, 79.58392
522.2032, 72.29550
522.6854, 69.37805
523.1675, 72.28772
523.6496, 77.35074
524.1317, 80.49408
524.6138, 81.77945
525.0959, 81.76294
525.5781, 79.84549
526.0602, 77.66730
526.5423, 79.43680
527.0244, 84.40088
527.5065, 88.18204
527.9886, 86.01248
528.4708, 82.04834
528.9529, 82.10501
529.4350, 87.26904
529.9171, 91.51956
530.3992, 89.87204
530.8813, 85.72272
531.3635, 82.88828
531.8456, 84.41745
532.3277, 85.54840
532.8098, 83.71457
533.2919, 79.84955
533.7740, 78.19916
534.2562, 81.14584
534.7383, 84.34952
535.2204, 86.74780
535.7025, 88.62900
536.1846, 87.89719
536.6667, 82.27606
537.1489, 76.80276
537.6310, 77.77866
538.1131, 86.34515
538.5952, 91.60620
539.0773, 90.60654
539.5594, 86.97522
540.0416, 89.10248
540.5237, 96.31650
541.0058, 102.4441
541.4879, 103.7783
541.9700, 101.9240
542.4521, 99.03925
542.9343, 95.22675
543.4164, 91.98770
543.8985, 89.98727
544.3806, 88.77341
544.8627, 87.98206
545.3448, 87.84604
545.8270, 87.81360
546.3091, 86.50955
546.7912, 84.89944
547.2733, 85.17010
547.7554, 90.82611
548.2375, 95.50012
548.7197, 96.73846
549.2018, 94.45221
549.6839, 92.76981
550.1660, 92.77594
550.6481, 91.95645
551.1302, 87.40765
551.6124, 77.32193
552.0945, 73.86374
552.5766, 78.97455
553.0587, 87.55902
553.5408, 91.85541
554.0229, 92.06055
554.5051, 90.29956
554.9872, 85.33972
555.4693, 80.00400
555.9514, 80.87186
556.4335, 87.33142
556.9156, 93.27267
557.3978, 96.16568
557.8799, 95.51154
558.3620, 89.58801
558.8441, 76.62955
559.3262, 65.16901
559.8083, 58.97836
560.2905, 57.19583
560.7726, 57.92126
561.2547, 66.31653
561.7368, 71.37662
562.2189, 69.35709
562.7010, 62.06036
563.1832, 55.41183
563.6653, 47.59982
564.1474, 42.96606
564.6295, 44.71680
565.1116, 53.79596
565.5938, 57.27246
566.0759, 54.08188
566.5580, 48.79340
567.0401, 46.08301
567.5222, 45.76379
568.0043, 43.21503
568.4865, 36.84833
568.9686, 30.12997
569.4507, 28.35913
569.9328, 30.77707
570.4149, 33.74597
570.8970, 36.65369
571.3792, 38.46988
571.8613, 37.36487
572.3434, 33.56781
572.8255, 30.89514
573.3076, 32.74014
573.7897, 35.20602
574.2719, 35.37073
574.7540, 30.46045
575.2361, 27.97198
575.7182, 31.06613
576.2003, 35.73834
576.6824, 36.47470
577.1646, 29.93878
577.6467, 26.95447
578.1288, 31.21530
578.6109, 40.10574
579.0930, 43.28394
579.5751, 40.18594
580.0573, 35.27646
580.5394, 29.84381
581.0215, 24.50665
581.5036, 22.73993
581.9857, 24.91907
582.4678, 27.15616
582.9500, 24.51086
583.4321, 19.70819
583.9142, 17.49500
584.3963, 21.08362
584.8784, 24.60788
585.3605, 23.45294
585.8427, 19.61017
586.3248, 16.55664
586.8069, 17.95453
587.2890, 19.16589
587.7711, 18.63852
588.2532, 16.29922
588.7354, 12.97665
589.2175, 6.178467
589.6996, 1.512939
590.1817, 2.797668
590.6638, 12.27377
591.1459, 17.86713
591.6281, 19.15796
592.1102, 17.35159
592.5923, 12.52362
593.0744, 5.238464
593.5565, 1.656494
594.0386, 4.466187
594.5208, 9.820831
595.0029, 12.77383
595.4850, 13.44156
595.9671, 12.37711
596.4492, 7.219391
596.9313, 2.355225
597.4135, 1.854553
597.8956, 5.832062
598.3777, 9.805450
598.8598, 14.05002
599.3419, 16.41428
599.8240, 15.04764
600.3062, 5.070587
600.7883, 0.2541810
601.2704, 2.322876
601.7525, 7.686584
602.2346, 8.573944
602.7167, 2.967499
603.1989, 0.3405760
603.6810, 1.354034
604.1631, 5.998871
604.6452, 6.791656
605.1273, 3.735413
605.6094, 1.798981
606.0916, 4.571167
606.5737, 10.18036
607.0558, 16.48044
607.5379, 23.27298
608.0200, 25.96509
608.5021, 16.64215
608.9843, 3.510712
609.4664, 4.424042
609.9485, 3.258636
610.4306, 1.571838
610.9127, 2.486176
611.3948, 4.666656
611.8770, 6.194366
612.3591, 5.981567
612.8412, 6.241119
613.3233, 8.358063
613.8054, 11.24881
614.2875, 9.554779
614.7697, 1.881134
615.2518, 6.069550
615.7339, 12.74194
616.2160, 17.75568
616.6981, 15.39594
617.1802, 4.966248
617.6624, 4.322510
618.1445, 1.079163
618.6266, 8.685699
619.1087, 12.45322
619.5908, 6.321411
620.0729, 0.7884830
620.5551, 1.928650
621.0372, 0.4216610
621.5193, 2.690918
622.0014, 4.983093
622.4835, 5.754395
622.9656, 2.829620
623.4478, 2.476990
623.9299, 4.022217
624.4120, 2.386505
624.8941, 6.896393
625.3762, 4.602112
625.8583, 4.681580
626.3405, 5.830627
626.8226, 3.428925
627.3047, 12.99109
627.7868, 12.53799
628.2689, 4.194580
628.7510, 1.855133
629.2332, 7.958252
629.7153, 15.04739
630.1974, 13.11911
630.6795, 6.488708
631.1616, 3.582458
631.6437, 10.23584
632.1259, 17.75885
632.6080, 22.23438
633.0901, 23.87656
633.5722, 23.23154
634.0543, 17.54337
634.5364, 12.45441
635.0186, 10.26242
635.5006, 10.93192
635.9827, 10.24371
636.4648, 7.553925
636.9470, 4.611389
637.4291, 2.531982
637.9112, 1.380219
638.3933, 0.1351010
638.8754, 2.094147
639.3575, 4.308167
639.8397, 7.599121
640.3218, 11.06714
640.8039, 11.35995
641.2860, 5.810791
641.7681, 1.093994
642.2502, 7.279785
642.7324, 18.54745
643.2145, 23.42783
643.6966, 10.55234
644.1787, 2.735809
644.6608, 10.80081
645.1429, 13.62189
645.6251, 12.96768
646.1072, 5.453308
646.5893, 1.011780
647.0714, 2.755280
647.5535, 0.6755680
648.0356, 0.9268800
648.5178, 3.117371
648.9999, 6.409607
649.4820, 3.044403
649.9641, 5.628113
650.4462, 11.28406
650.9283, 12.48145
651.4105, 12.34204
651.8926, 14.26428
652.3747, 17.49881
652.8568, 20.89908
653.3389, 25.75922
653.8210, 28.54419
654.3032, 24.74066
654.7853, 17.38043
655.2674, 14.08878
655.7495, 20.45462
656.2316, 27.17484
656.7137, 31.80493
657.1959, 34.58551
657.6780, 37.96179
658.1601, 42.05560
658.6422, 46.17932
659.1243, 51.24344
659.6064, 56.92789
660.0886, 57.99646
660.5707, 53.79236
661.0528, 50.43079
661.5349, 57.53735
662.0170, 69.31384
662.4991, 73.51736
662.9813, 65.46078
663.4634, 56.78625
663.9455, 54.15674
664.4276, 56.21017
664.9097, 61.18396
665.3918, 72.11789
665.8740, 81.95410
666.3561, 89.57806
666.8382, 94.97952
667.3203, 96.82983
667.8024, 93.22913
668.2845, 92.06680
668.7667, 96.81024
669.2488, 105.8148
669.7309, 109.3893
670.2130, 107.3233
670.6951, 106.0085
671.1772, 110.3790
671.6594, 118.1261
672.1415, 126.0049
672.6236, 134.1244
673.1057, 140.1943
673.5878, 139.2975
674.0699, 137.1200
674.5521, 139.6384
675.0342, 150.8059
675.5163, 159.7439
675.9984, 164.0731
676.4805, 165.5895
676.9626, 166.0795
677.4448, 164.7365
677.9269, 164.0928
678.4090, 165.2347
678.8911, 166.8349
679.3732, 164.7018
679.8553, 158.7774
680.3375, 154.4964
680.8196, 155.4113
681.3017, 157.9694
681.7838, 155.2665
682.2659, 148.7231
682.7480, 143.1851
683.2302, 144.1631
683.7123, 144.9910
684.1944, 140.3192
684.6765, 130.0999
685.1586, 121.3085
685.6407, 115.9670
686.1229, 112.4572
686.6050, 110.0872
687.0871, 109.7238
687.5692, 107.4421
688.0513, 102.6010
688.5334, 96.89142
689.0156, 91.03680
689.4977, 85.22876
689.9798, 83.62836
690.4619, 87.65079
690.9440, 93.57147
691.4261, 99.13123
691.9083, 102.9309
692.3904, 101.6943
692.8725, 89.32660
693.3546, 77.52072
693.8367, 73.15601
694.3188, 74.47058
694.8010, 76.80200
695.2831, 80.95053
695.7652, 83.88519
696.2473, 83.65152
696.7294, 81.08688
697.2115, 83.57251
697.6937, 93.88077
698.1758, 100.8840
698.6579, 96.04300
699.1400, 82.62482
699.6221, 80.75101
700.1042, 90.18903
700.5864, 99.59763
701.0685, 98.41351
701.5506, 94.00504
702.0327, 95.65109
702.5148, 105.1723
702.9969, 113.4289
703.4791, 114.8781
703.9612, 113.6071
704.4433, 113.2109
704.9254, 114.6264
705.4075, 116.2159
705.8896, 116.2283
706.3718, 117.6472
706.8539, 126.8059
707.3360, 146.3098
707.8181, 157.1367
708.3002, 154.0489
708.7823, 142.9277
709.2645, 130.6798
709.7466, 119.0181
710.2287, 114.5390
710.7108, 124.3962
711.1929, 139.0657
711.6750, 151.2332
712.1572, 161.5589
712.6393, 172.1110
713.1214, 188.0008
713.6035, 200.2610
714.0856, 203.9008
714.5677, 199.3659
715.0499, 194.2011
715.5320, 185.8532
716.0141, 181.8435
716.4962, 189.9728
716.9783, 209.4964
717.4604, 213.5876
717.9426, 201.2975
718.4247, 187.2168
718.9068, 183.4017
719.3889, 186.3947
719.8710, 191.5836
720.3531, 199.0002
720.8353, 203.7211
721.3174, 200.2507
721.7995, 193.7982
722.2816, 189.2485
722.7637, 189.2032
723.2458, 188.5706
723.7280, 187.1710
724.2101, 184.9991
724.6922, 181.3840
725.1743, 175.5899
725.6564, 173.2831
726.1385, 177.3669
726.6207, 182.0679
727.1028, 173.5559
727.5849, 155.5870
728.0670, 143.0631
728.5491, 145.8802
729.0313, 153.1218
729.5134, 157.1884
729.9955, 158.2191
730.4776, 156.5906
730.9597, 150.9897
731.4418, 144.2089
731.9240, 134.8991
732.4061, 124.1528
732.8882, 122.1174
733.3703, 133.8759
733.8524, 142.2046
734.3345, 136.4602
734.8167, 119.3984
735.2988, 113.8330
735.7809, 119.8863
736.2630, 125.2750
736.7451, 118.5429
737.2272, 106.5291
737.7094, 98.29358
738.1915, 94.73834
738.6736, 92.94232
739.1557, 91.96390
739.6378, 91.82379
740.1199, 93.00372
740.6021, 97.97876
741.0842, 98.02136
741.5663, 90.48749
742.0484, 81.25458
742.5305, 75.23172
743.0126, 72.27957
743.4948, 73.74435
743.9769, 80.73410
744.4590, 88.60803
744.9411, 90.96057
745.4232, 89.82947
745.9053, 90.00592
746.3875, 93.20190
746.8696, 96.91876
747.3517, 101.7584
747.8338, 105.5335
748.3159, 104.9023
748.7980, 94.71606
749.2802, 85.31830
749.7623, 76.57654
750.2444, 69.97302
750.7265, 69.83759
751.2086, 77.66840
751.6907, 84.55786
752.1729, 86.52490
752.6550, 86.62988
753.1371, 93.42804
753.6192, 104.8900
754.1013, 112.6616
754.5834, 109.8292
755.0656, 104.1970
755.5477, 99.96155
756.0298, 98.04260
756.5119, 100.7327
756.9940, 115.8375
757.4761, 126.4688
757.9583, 126.4657
758.4403, 116.8907
758.9224, 109.3846
759.4045, 103.2138
759.8867, 99.72235
760.3688, 100.6305
760.8509, 105.2195
761.3330, 110.8953
761.8151, 117.5474
762.2972, 121.6752
762.7794, 117.5830
763.2615, 111.9690
763.7436, 110.9855
764.2257, 115.5051
764.7078, 121.6995
765.1899, 132.2559
765.6721, 140.6137
766.1542, 142.3193
766.6363, 134.7375
767.1184, 131.7362
767.6005, 134.9155
768.0826, 138.6902
768.5648, 136.8532
769.0469, 130.6417
769.5290, 125.5535
770.0111, 122.1803
770.4932, 120.9766
770.9753, 123.8217
771.4575, 128.0867
771.9396, 130.9765
772.4217, 131.4066
772.9038, 131.2835
773.3859, 131.0009
773.8680, 130.4342
774.3502, 129.5740
774.8323, 128.8364
775.3144, 126.3188
775.7965, 121.0953
776.2786, 115.3752
776.7607, 112.8296
777.2429, 112.9709
777.7250, 113.5453
778.2071, 114.7399
778.6892, 114.3207
779.1713, 108.7958
779.6534, 100.4564
780.1356, 93.21155
780.6177, 88.85583
781.0998, 85.27637
781.5819, 80.55701
782.0640, 76.40475
782.5461, 77.10162
783.0283, 85.47809
783.5104, 89.30664
783.9925, 84.62061
784.4746, 75.14233
784.9567, 68.14352
785.4388, 63.51596
785.9210, 60.85703
786.4031, 61.94232
786.8852, 63.24255
787.3673, 60.42667
787.8494, 54.94824
788.3315, 50.62650
788.8137, 49.46011
789.2958, 49.11047
789.7779, 48.70508
790.2600, 47.97308
790.7421, 45.31137
791.2242, 39.40692
791.7064, 37.13242
792.1885, 43.58127
792.6706, 54.15649
793.1527, 56.10269
793.6348, 50.31332
794.1169, 42.38339
794.5991, 33.45328
795.0812, 25.25964
795.5633, 18.40741
796.0454, 13.18182
796.5275, 10.95145
797.0096, 16.91830
797.4918, 20.64517
797.9739, 17.80035
798.4560, 9.058624
798.9381, 2.587433
799.4202, 1.801453
799.9023, 2.857605
800.3845, 2.739349
800.8666, 11.62100
801.3487, 15.40561
801.8308, 14.42896
802.3129, 11.31982
802.7950, 4.032654
803.2772, 1.887360
803.7593, 1.370819
804.2414, 6.294006
804.7235, 11.08218
805.2056, 11.60608
805.6877, 10.14755
806.1699, 6.987183
806.6520, 2.212006
807.1341, 0.4989620
807.6162, 2.147766
808.0983, 3.029114
808.5804, 1.243317
809.0626, 7.663879
809.5447, 11.78986
810.0268, 13.39124
810.5089, 13.17783
810.9910, 9.446808
811.4731, 5.699432
811.9553, 3.989929
812.4374, 4.563171
812.9195, 7.429291
813.4016, 15.07901
813.8837, 20.24692
814.3658, 16.00339
814.8480, 3.711945
815.3301, 0.3769230
815.8122, 3.976410
816.2943, 8.604187
816.7764, 6.680756
817.2585, 1.757355
817.7407, 2.961334
818.2228, 7.200745
818.7049, 9.517059
819.1870, 9.052979
819.6691, 6.769287
820.1512, 2.831207
820.6334, 3.264984
821.1155, 7.407166
821.5976, 9.659241
822.0797, 9.704010
822.5618, 6.025787
823.0439, 1.6937001E-02
823.5261, 4.483185
824.0082, 7.112335
824.4903, 8.251953
824.9724, 7.420441
825.4545, 5.695648
825.9366, 3.812683
826.4188, 1.803040
826.9009, 4.0008999E-02
827.3830, 2.927246
827.8651, 4.172485
828.3472, 1.314636
828.8293, 6.063232
829.3115, 10.24097
829.7936, 11.00543
830.2757, 10.66730
830.7578, 10.77994
831.2399, 11.22055
831.7220, 11.95480
832.2042, 12.98148
832.6863, 13.66785
833.1684, 13.85690
833.6505, 13.48227
834.1326, 12.22302
834.6147, 9.824097
835.0969, 8.449921
835.5790, 8.423828
836.0611, 8.667664
836.5432, 8.653412
837.0253, 8.304565
837.5074, 6.487427
837.9896, 3.198639
838.4717, 1.463562
838.9538, 5.433289
839.4359, 10.80334
839.9180, 13.32660
840.4001, 12.25711
840.8823, 12.28604
841.3644, 16.93613
841.8465, 20.18594
842.3286, 18.67868
842.8107, 12.20895
843.2928, 6.295319
843.7750, 0.7149350
844.2571, 1.947388
844.7392, 3.787811
845.2213, 12.31702
845.7034, 12.33264
846.1855, 3.952637
846.6677, 2.415710
847.1498, 0.4228210
847.6319, 5.517181
848.1140, 9.161285
848.5961, 11.14868
849.0782, 12.83411
849.5604, 14.36362
850.0425, 15.21436
850.5246, 14.47977
851.0067, 12.76971
851.4888, 13.55649
851.9709, 16.61383
852.4531, 19.19986
852.9352, 18.43488
853.4173, 17.26691
853.8994, 19.26511
854.3815, 24.08475
854.8636, 25.46170
855.3458, 17.28851
855.8279, 11.47067
856.3100, 13.02509
856.7921, 20.62680
857.2742, 24.21466
857.7563, 23.61981
858.2385, 22.46432
858.7206, 22.48965
859.2027, 23.15497
859.6848, 24.97272
860.1669, 27.07938
860.6490, 26.00656
861.1312, 13.02585
861.6133, 3.801208
862.0954, 8.910919
862.5775, 23.63992
863.0596, 29.95566
863.5417, 25.53967
864.0239, 20.82782
864.5060, 18.96817
864.9881, 19.42661
865.4702, 21.06931
865.9523, 23.93176
866.4344, 28.17804
866.9166, 38.61301
867.3987, 45.33722
867.8808, 39.13754
868.3629, 25.02615
868.8450, 17.54037
869.3271, 21.47284
869.8093, 25.16901
870.2914, 26.56747
870.7735, 26.03574
871.2556, 24.13666
871.7377, 21.14185
872.2198, 18.45486
872.7020, 16.32480
873.1841, 15.53445
873.6662, 19.13562
874.1483, 23.84113
874.6304, 24.71323
875.1125, 12.10712
875.5947, 7.192322
876.0768, 17.26276
876.5589, 31.73511
877.0410, 34.86639
877.5231, 25.88406
878.0052, 17.46112
878.4874, 10.72614
878.9695, 7.016418
879.4516, 10.53201
879.9337, 17.62125
880.4158, 22.27042
880.8979, 22.50940
881.3801, 21.57840
881.8622, 17.44803
882.3442, 14.59009
882.8264, 17.63617
883.3085, 29.27478
883.7906, 37.19070
884.2727, 41.16895
884.7548, 40.83304
885.2369, 32.00766
885.7191, 19.34842
886.2012, 14.25568
886.6833, 18.65002
887.1654, 24.11581
887.6475, 28.34369
888.1296, 30.00336
888.6118, 27.18735
889.0939, 18.81693
889.5760, 12.28717
890.0581, 7.175476
890.5402, 4.940063
891.0223, 8.189148
891.5045, 15.30212
891.9866, 19.35144
892.4687, 20.31387
892.9508, 20.03152
893.4329, 17.81476
893.9150, 16.36362
894.3972, 19.43161
894.8793, 26.65121
895.3614, 27.58154
895.8435, 15.60818
896.3256, 7.713806
896.8077, 11.89536
897.2899, 24.45975
897.7720, 31.65506
898.2541, 33.70297
898.7362, 33.43329
899.2183, 31.61157
899.7004, 28.68674
900.1826, 23.63297
900.6647, 17.76608
901.1468, 14.75433
901.6289, 17.00391
902.1110, 20.25226
902.5931, 25.03619
903.0753, 30.19812
903.5574, 33.06653
904.0395, 33.59689
904.5216, 34.21576
905.0037, 36.69858
905.4858, 38.69803
905.9680, 36.11710
906.4501, 31.53467
906.9322, 29.02530
907.4143, 31.12634
907.8964, 33.23328
908.3785, 34.93387
908.8607, 36.11478
909.3428, 36.84839
909.8249, 37.20233
910.3070, 35.32669
910.7891, 30.55301
911.2712, 26.58789
911.7534, 27.89792
912.2355, 31.94135
912.7176, 36.16177
913.1997, 40.69580
913.6818, 41.57532
914.1639, 32.34998
914.6461, 23.84592
915.1282, 22.40552
915.6103, 28.41199
916.0924, 34.69547
916.5745, 41.48831
917.0566, 46.45923
917.5388, 47.08487
918.0209, 45.32678
918.5030, 43.02863
918.9851, 40.64886
919.4672, 40.25583
919.9493, 47.59320
920.4315, 52.17770
920.9136, 48.30875
921.3957, 38.44659
921.8778, 33.42831
922.3599, 33.95743
922.8420, 33.80603
923.3242, 29.69269
923.8063, 25.16647
924.2884, 27.36124
924.7705, 33.49899
925.2526, 37.26208
925.7347, 37.93600
926.2169, 33.73083
926.6990, 15.87341
927.1811, 3.079071
927.6632, 4.091797
928.1453, 17.41177
928.6274, 30.25320
929.1096, 29.61627
929.5917, 23.24976
930.0738, 18.46307
930.5559, 15.27438
931.0380, 13.30508
931.5201, 12.07028
932.0023, 14.26859
932.4844, 26.30209
932.9665, 37.81207
933.4486, 41.48962
933.9307, 36.21310
934.4128, 30.83505
934.8950, 25.21320
935.3771, 20.46887
935.8592, 17.31155
936.3413, 15.69980
936.8234, 17.04080
937.3055, 20.63483
937.7877, 21.19327
938.2698, 8.673828
938.7519, 1.067078
939.2340, 8.957611
939.7161, 27.50464
940.1982, 36.80371
940.6804, 36.19614
941.1625, 31.59875
941.6446, 23.06110
942.1267, 14.81772
942.6088, 15.34982
943.0909, 21.03165
943.5731, 24.13074
944.0552, 17.25351
944.5373, 13.16711
945.0194, 18.88428
945.5015, 26.58572
945.9836, 26.83923
946.4658, 18.61331
946.9479, 12.02890
947.4300, 7.837982
947.9121, 6.416565
948.3942, 9.725891
948.8763, 15.31293
949.3585, 20.54904
949.8406, 25.41779
950.3227, 26.81766
950.8048, 19.32510
951.2869, 12.50882
951.7690, 12.13486
952.2512, 17.87537
952.7333, 17.10855
953.2154, 9.635345
953.6975, 2.985229
954.1796, 1.627472
954.6617, 3.728302
955.1439, 9.183258
955.6260, 16.78717
956.1081, 21.68408
956.5902, 18.97589
957.0723, 17.20355
957.5544, 18.97302
958.0366, 22.04099
958.5187, 21.07578
959.0008, 16.80991
959.4829, 14.45660
959.9650, 15.22168
960.4471, 15.09973
960.9293, 10.37207
961.4114, 4.751495
961.8935, 3.192932
962.3756, 9.792236
962.8577, 14.02850
963.3398, 15.40173
963.8220, 14.45996
964.3041, 9.899994
964.7862, 1.608582
965.2683, 1.5167000E-02
965.7504, 5.552124
966.2325, 11.62897
966.7147, 13.71082
967.1968, 14.33145
967.6789, 15.13757
968.1610, 16.25876
968.6431, 17.92264
969.1252, 21.47488
969.6074, 22.63699
970.0895, 19.48788
970.5716, 13.74252
971.0537, 8.953308
971.5358, 5.238922
972.0179, 2.920502
972.5001, 1.205627
972.9822, 2.368439
973.4643, 11.70599
973.9464, 22.96777
974.4285, 26.90744
974.9106, 20.17767
975.3928, 15.01108
975.8749, 11.91656
976.3570, 10.54462
976.8391, 11.38287
977.3212, 13.43268
977.8033, 14.64282
978.2855, 14.80984
978.7676, 14.39908
979.2497, 13.50726
979.7318, 12.20334
980.2139, 10.47867
980.6960, 8.372406
981.1782, 5.775696
981.6603, 2.437134
982.1424, 0.8420410
982.6245, 2.950897
983.1066, 6.432312
983.5887, 8.757935
984.0709, 9.810638
984.5530, 9.325958
985.0351, 4.499908
985.5172, 1.786102
985.9993, 3.004608
986.4814, 5.952606
986.9636, 8.238068
987.4457, 9.869904
987.9278, 11.10242
988.4099, 11.99347
988.8920, 12.15448
989.3741, 10.89157
989.8563, 8.924713
990.3384, 6.326202
990.8205, 2.808655
991.3026, 2.517914
991.7847, 7.086578
992.2668, 12.10883
992.7490, 16.18845
993.2311, 18.98410
993.7132, 18.49521
994.1953, 15.35608
994.6774, 12.56473
995.1595, 12.34946
995.6417, 12.11136
996.1238, 9.762207
996.6059, 6.693756
997.0880, 5.084839
997.5701, 4.245026
998.0522, 8.110260
998.5344, 18.52875
999.0165, 28.92697
999.4986, 31.80264
999.9807, 29.23270
1000.463, 23.92142
1000.945, 15.84775
1001.427, 10.34598
1001.909, 11.84531
1002.391, 14.10342
1002.873, 13.67383
1003.356, 11.00006
1003.838, 10.54532
1004.320, 12.33823
1004.802, 14.92111
1005.284, 19.12320
1005.766, 22.08160
1006.248, 18.21841
1006.730, 11.15051
1007.212, 8.227875
1007.695, 17.13739
1008.177, 21.63269
1008.659, 19.03134
1009.141, 13.99820
1009.623, 11.81726
1010.105, 12.09064
1010.587, 14.01056
1011.069, 17.61337
1011.551, 18.56937
1012.034, 11.36200
1012.516, 2.501587
1012.998, 3.847229
1013.480, 7.500916
1013.962, 8.852997
1014.444, 7.454529
1014.926, 5.441071
1015.408, 2.790314
1015.891, 1.081879
1016.373, 7.417114
1016.855, 16.49319
1017.337, 16.27679
1017.819, 11.48495
1018.301, 29.58200
1018.783, 23.39563
1019.265, 9.711975
1019.747, 5.808228
1020.230, 11.76010
1020.712, 9.170441
1021.194, 3.471588
1021.676, 13.12405
1022.158, 4.790314
1022.640, 8.140869
1023.122, 12.54352
1023.604, 8.222534
1024.087, 9.088837
1024.569, 20.38437
1025.051, 26.62225
1025.533, 20.96320
1026.015, 10.53513
1026.497, 11.78329
1026.979, 21.19431
1027.461, 28.31512
1027.943, 29.42880
1028.426, 28.89111
1028.908, 27.28845
1029.390, 25.89624
1029.872, 26.06775
1030.354, 28.26135
1030.836, 29.61346
1031.318, 30.28259
1031.800, 28.16492
1032.282, 16.47421
1032.765, 4.804199
1033.247, 6.300476
1033.729, 18.58463
1034.211, 28.45810
1034.693, 33.86313
1035.175, 34.55444
1035.657, 28.59363
1036.139, 20.30914
1036.622, 17.12540
1037.104, 18.35056
1037.586, 22.14047
1038.068, 29.06528
1038.550, 33.50812
1039.032, 28.49020
1039.514, 22.33746
1039.996, 22.40091
1040.479, 29.24921
1040.961, 32.62610
1041.443, 32.24750
1041.925, 30.72910
1042.407, 28.81641
1042.889, 27.21951
1043.371, 27.19080
1043.853, 28.28094
1044.335, 29.41550
1044.818, 31.52872
1045.300, 31.62833
1045.782, 28.40662
1046.264, 24.47736
1046.746, 22.66351
1047.228, 22.85922
1047.710, 25.41177
1048.192, 30.41016
1048.674, 34.23773
1049.157, 32.37448
1049.639, 30.34622
1050.121, 32.55811
1050.603, 38.27328
1051.085, 42.05630
1051.567, 43.62546
1052.049, 45.50656
1052.531, 49.47278
1053.014, 52.36960
1053.496, 47.61935
1053.978, 39.58279
1054.460, 35.54770
1054.942, 40.27316
1055.424, 42.84186
1055.906, 41.97360
1056.388, 39.36810
1056.870, 35.18430
1057.353, 30.18423
1057.835, 28.33731
1058.317, 29.55032
1058.799, 32.73755
1059.281, 42.06076
1059.763, 48.18533
1060.245, 42.14261
1060.727, 30.39896
1061.209, 27.69135
1061.692, 35.44034
1062.174, 41.63306
1062.656, 44.41818
1063.138, 45.63394
1063.620, 46.92114
1064.102, 47.28693
1064.584, 44.86172
1065.066, 38.84644
1065.549, 32.34842
1066.031, 40.46991
1066.513, 45.31693
1066.995, 47.06577
1067.477, 36.43668
1067.959, 41.80609
1068.441, 40.85867
1068.923, 39.54449
1069.405, 47.14810
1069.888, 38.31992
1070.370, 45.78195
1070.852, 46.51080
1071.334, 50.16785
1071.816, 47.25665
1072.298, 46.28946
1072.780, 51.88791
1073.262, 50.14709
1073.745, 52.19089
1074.227, 51.23849
1074.709, 45.50885
1075.191, 37.43127
1075.673, 35.73822
1076.155, 42.21988
1076.637, 47.48108
1077.119, 50.07571
1077.601, 50.48615
1078.083, 48.72574
1078.566, 45.45782
1079.048, 41.39297
1079.530, 36.16965
1080.012, 32.31842
1080.494, 28.96555
1080.976, 28.09897
1081.458, 31.71585
1081.940, 38.43338
1082.423, 42.13925
1082.905, 42.89609
1083.387, 41.07922
1083.869, 33.66977
1084.351, 29.36008
1084.833, 37.38068
1085.315, 49.30627
1085.797, 55.49362
1086.280, 55.06613
1086.762, 50.76318
1087.244, 41.84644
1087.726, 35.82462
1088.208, 42.26788
1088.690, 52.03836
1089.172, 53.81033
1089.654, 48.54169
1090.136, 44.15097
1090.619, 41.73941
1091.101, 42.67615
1091.583, 47.07404
1092.065, 51.99908
1092.547, 53.99210
1093.029, 53.88293
1093.511, 53.82962
1093.993, 54.17160
1094.475, 53.26059
1094.958, 48.55646
1095.440, 44.50562
1095.922, 43.10553
1096.404, 43.71143
1096.886, 44.37732
1097.368, 44.95358
1097.850, 43.95529
1098.332, 40.10022
1098.815, 36.58102
1099.297, 36.84723
1099.779, 37.92578
1100.261, 36.74106
1100.743, 32.97244
1101.225, 28.03699
1101.707, 21.60281
1102.189, 17.02036
1102.672, 17.27960
1103.154, 19.96753
1103.636, 22.11774
1104.118, 24.39935
1104.600, 28.55594
1105.082, 39.64218
1105.564, 43.66202
1106.046, 37.99335
1106.528, 29.56509
1107.010, 25.56644
1107.493, 24.47971
1107.975, 23.48810
1108.457, 22.27982
1108.939, 20.21606
1109.421, 14.46774
1109.903, 11.15070
1110.385, 13.22876
1110.867, 17.66348
1111.350, 17.62009
1111.832, 13.80612
1112.314, 9.944824
1112.796, 6.401733
1113.278, 5.329559
1113.760, 10.70660
1114.242, 16.94247
1114.724, 20.57254
1115.207, 21.55005
1115.689, 18.17767
1116.171, 10.24612
1116.653, 6.673431
1117.135, 13.69070
1117.617, 21.81284
1118.099, 21.96793
1118.581, 17.36819
1119.063, 11.92960
1119.546, 5.112183
1120.028, 0.3733830
1120.510, 2.711700
1120.992, 2.040955
1121.474, 8.415344
1121.956, 20.79623
1122.438, 20.58127
1122.920, 11.75464
1123.402, 6.098938
1123.885, 12.28091
1124.367, 13.89713
1124.849, 7.768860
1125.331, 0.2724300
1125.813, 1.138580
1126.295, 1.833893
1126.777, 5.890228
1127.259, 10.38681
1127.742, 11.74170
1128.224, 3.702209
1128.706, 2.142212
1129.188, 1.568848
1129.670, 3.082428
1130.152, 7.582245
1130.634, 11.59506
1131.116, 11.29523
1131.599, 5.124268
1132.081, 1.138336
1132.563, 7.413605
1133.045, 15.33191
1133.527, 19.17120
1134.009, 19.36789
1134.491, 19.78445
1134.973, 20.43558
1135.455, 17.95120
1135.938, 8.781982
1136.420, 1.640015
1136.902, 8.953491
1137.384, 20.21231
1137.866, 21.80722
1138.348, 10.78998
1138.830, 3.306427
1139.312, 0.8184510
1139.794, 0.4690860
1140.277, 9.342072
1140.759, 20.06787
1141.241, 19.10342
1141.723, 11.30185
1142.205, 6.611481
1142.687, 7.868286
1143.169, 11.45966
1143.651, 18.65350
1144.134, 24.18628
1144.616, 22.38025
1145.098, 15.67999
1145.580, 6.819305
1146.062, 2.815186
1146.544, 7.845764
1147.026, 0.2345280
1147.508, 2.464996
1147.990, 5.234528
1148.473, 13.57764
1148.955, 6.427887
1149.437, 10.34866
1149.919, 22.41144
1150.401, 28.12247
1150.883, 28.41037
1151.365, 17.61639
1151.847, 8.714966
1152.329, 6.386261
1152.812, 8.373108
1153.294, 10.01443
1153.776, 11.11783
1154.258, 10.22070
1154.740, 6.604980
1155.222, 3.677704
1155.704, 3.662079
1156.186, 4.695007
1156.669, 5.468292
1157.151, 6.210815
1157.633, 8.936768
1158.115, 13.50546
1158.597, 15.85568
1159.079, 14.04428
1159.561, 10.97198
1160.043, 6.444733
1160.526, 3.277985
1161.008, 4.758484
1161.490, 11.12576
1161.972, 14.36142
1162.454, 14.44257
1162.936, 13.00323
1163.418, 9.033691
1163.900, 6.201965
1164.382, 10.15472
1164.865, 16.03101
1165.347, 15.89539
1165.829, 6.446777
1166.311, 3.347717
1166.793, 7.302673
1167.275, 12.74829
1167.757, 16.69678
1168.239, 19.19019
1168.721, 20.37143
1169.204, 20.08200
1169.686, 17.40186
1170.168, 10.73117
1170.650, 6.934570
1171.132, 6.884979
1171.614, 8.137421
1172.096, 8.139893
1172.578, 8.209229
1173.061, 10.21686
1173.543, 13.96570
1174.025, 18.00687
1174.507, 24.16632
1174.989, 24.63300
1175.471, 13.26938
1175.953, 20.37207
1176.435, 24.18561
1176.917, 24.88693
1177.400, 13.15408
1177.882, 17.47400
1178.364, 15.26395
1178.846, 12.89639
1179.328, 19.51794
1179.810, 9.593018
1180.292, 16.03171
1180.774, 12.36771
1181.256, 8.796936
1181.739, 8.344971
1182.221, 12.68292
1182.703, 16.60782
1183.185, 20.15417
1183.667, 20.88812
1184.149, 16.97104
1184.631, 11.17947
1185.113, 11.16278
1185.596, 14.25070
1186.078, 13.48740
1186.560, 5.014526
1187.042, 7.1563996E-02
1187.524, 3.533600
1188.006, 7.434753
1188.488, 7.893250
1188.970, 5.973450
1189.453, 3.972717
1189.935, 2.428619
1190.417, 3.239990
1190.899, 9.687317
1191.381, 12.70630
1191.863, 6.485168
1192.345, 1.556213
1192.827, 7.398193
1193.309, 19.85052
1193.792, 20.10648
1194.274, 11.20096
1194.756, 4.400604
1195.238, 4.824188
1195.720, 7.971497
1196.202, 15.05524
1196.684, 21.63882
1197.166, 24.02066
1197.648, 22.59244
1198.130, 16.16327
1198.613, 6.281616
1199.095, 1.630615
1199.577, 14.79791
1200.059, 22.83640
1200.541, 16.44321
1201.023, 5.579071
1201.505, 0.2808840
1201.987, 1.174133
1202.470, 4.856506
1202.952, 16.84592
1203.434, 25.53329
1203.916, 21.98126
1204.398, 18.88861
1204.880, 23.12360
1205.362, 28.53052
1205.844, 25.39670
1206.327, 15.35315
1206.809, 7.854919
1207.291, 3.767242
1207.773, 2.692383
1208.255, 9.196503
1208.737, 13.20605
1209.219, 9.128082
1209.701, 1.852570
1210.183, 0.4028020
1210.666, 1.663177
1211.148, 4.925323
1211.630, 9.018738
1212.112, 13.68918
1212.594, 20.91132
1213.076, 26.37659
1213.558, 29.44757
1214.040, 29.12161
1214.522, 20.23462
1215.005, 5.468719
1215.487, 2.794189
1215.969, 2.068726
1216.451, 0.6698610
1216.933, 3.936890
1217.415, 5.900391
1217.897, 5.358795
1218.379, 3.291901
1218.862, 2.796661
1219.344, 3.681763
1219.826, 4.924103
1220.308, 6.042938
1220.790, 9.136383
1221.272, 18.95209
1221.754, 26.61551
1222.236, 27.86313
1222.719, 24.39352
1223.201, 19.74210
1223.683, 14.90555
1224.165, 14.05908
1224.647, 19.54153
1225.129, 23.87537
1225.611, 23.16827
1226.093, 21.25565
1226.575, 19.35498
1227.057, 17.82327
1227.540, 18.90347
1228.022, 21.34607
1228.504, 20.50513
1228.986, 12.82303
1229.468, 8.542664
1229.950, 14.15768
1230.432, 19.59109
1230.914, 19.34460
1231.397, 15.32941
1231.879, 13.32785
1232.361, 12.74921
1232.843, 11.90744
1233.325, 10.13010
1233.807, 8.440155
1234.289, 7.428650
1234.771, 5.964813
1235.254, 2.628754
1235.736, 1.166840
1236.218, 2.195374
1236.700, 0.1900940
1237.182, 5.893219
1237.664, 20.80005
1238.146, 30.70184
1238.628, 34.10797
1239.110, 32.82617
1239.593, 25.04962
1240.075, 15.19611
1240.557, 16.24561
1241.039, 23.48746
1241.521, 25.52707
1242.003, 10.70285
1242.485, 6.688904
1242.967, 18.97223
1243.449, 31.09723
1243.932, 30.53400
1244.414, 22.77243
1244.896, 16.18805
1245.378, 11.05719
1245.860, 8.140930
1246.342, 8.932068
1246.824, 9.582428
1247.306, 11.14465
1247.789, 11.70331
1248.271, 7.706116
1248.753, 3.667236
1249.235, 7.608307
1249.717, 16.46860
1250.199, 23.42432
1250.681, 28.31317
1251.163, 28.48901
1251.646, 23.28909
1252.128, 17.78680
1252.610, 15.09845
1253.092, 14.67389
1253.574, 17.86649
1254.056, 22.30646
1254.538, 21.54114
1255.020, 12.05490
1255.502, 10.88263
1255.984, 19.46045
1256.467, 26.36667
1256.949, 20.41733
1257.431, 11.81918
1257.913, 8.527252
1258.395, 9.203003
1258.877, 11.26889
1259.359, 15.40872
1259.841, 13.97061
1260.324, 6.635315
1260.806, 0.5982970
1261.288, 1.245453
1261.770, 4.499176
1262.252, 9.953430
1262.734, 15.08432
1263.216, 15.75394
1263.698, 11.75568
1264.181, 9.915894
1264.663, 10.93338
1265.145, 10.62457
1265.627, 1.914490
1266.109, 2.899231
1266.591, 6.643127
1267.073, 18.90247
1267.555, 19.54764
1268.037, 10.42432
1268.520, 3.557037
1269.002, 0.2830810
1269.484, 0.4387510
1269.966, 12.37259
1270.448, 20.83044
1270.930, 21.23270
1271.412, 18.42432
1271.894, 17.56503
1272.376, 17.99191
1272.859, 18.33008
1273.341, 18.13696
1273.823, 15.68430
1274.305, 6.598816
1274.787, 0.6288150
1275.269, 1.215698
1275.751, 0.5886230
1276.233, 7.761871
1276.716, 17.09387
1277.198, 23.30078
1277.680, 26.12158
1278.162, 25.53976
1278.644, 19.15466
1279.126, 13.44830
1279.608, 10.64255
1280.090, 10.41180
1280.573, 16.03619
1281.055, 22.48053
1281.537, 21.52161
1282.019, 15.39514
1282.501, 11.96985
1282.983, 12.76437
1283.465, 10.01254
1283.947, 4.605164
1284.429, 1.153290
1284.911, 5.913452
1285.394, 11.89151
1285.876, 14.16727
1286.358, 13.10724
1286.840, 9.357605
1287.322, 2.568420
1287.804, 0.3606870
1288.286, 0.6615600
1288.768, 3.352814
1289.251, 8.475189
1289.733, 10.31378
1290.215, 6.971893
1290.697, 1.897522
1291.179, 0.0000000E+00
##END=



