##NAMES=Fluoro-edenite
##RRUFFID=R070003
##IDEAL CHEMISTRY=NaCa_2_Mg_5_(Si_7_Al)O_22_F_2_
##LOCALITY=Cobden, Ontario, Canada
##OWNER=RRUFF
##SOURCE=Michael Scott
##DESCRIPTION=Black to very dark green single crystal fragment
##STATUS=The identification of this mineral has been confirmed by X-ray diffraction and chemical analysis
##URL=rruff.info/R070003
##MEASURED CHEMISTRY=(Na_0.55_K_0.35_[box]_0.10_)_Σ=1_(Ca_1.65_Na_0.35_)_Σ=2_(Mg_2.42_Fe^2+^_1.81_Fe^3+^_0.52_Al_0.14_Ti_0.07_Mn_0.04_)_Σ=5_(Si_6.65_Al_1.35_)O_22_(F_1.03_(OH)_0.94_Cl_0.03_)_Σ=2_; (OH) estimated by difference
151.2012, 0.0000000E+00
151.6833, 8.568604
152.1654, 13.18597
152.6476, 15.83575
153.1297, 17.98779
153.6118, 18.16901
154.0939, 10.40704
154.5760, 3.757385
155.0581, 0.2915040
155.5403, 1.319977
156.0224, 0.9574890
156.5045, 5.606842
156.9866, 8.659241
157.4687, 8.805176
157.9508, 7.171661
158.4330, 6.089233
158.9151, 1.823212
159.3972, 3.686951
159.8793, 18.09238
160.3614, 35.73117
160.8435, 46.91455
161.3257, 48.05786
161.8078, 43.20407
162.2899, 41.63937
162.7720, 46.75757
163.2541, 50.09448
163.7362, 52.57114
164.2184, 50.66968
164.7005, 50.90176
165.1826, 55.62592
165.6647, 62.62991
166.1468, 64.78641
166.6289, 57.89249
167.1111, 51.10785
167.5932, 44.93756
168.0753, 40.19040
168.5574, 36.96478
169.0395, 34.71875
169.5216, 32.83054
170.0038, 29.86676
170.4859, 24.65707
170.9680, 20.47205
171.4501, 19.15100
171.9322, 18.88184
172.4143, 17.20645
172.8965, 13.20734
173.3786, 8.693665
173.8607, 7.478119
174.3428, 11.66019
174.8249, 13.21637
175.3070, 6.254974
175.7892, 3.169678
176.2713, 4.820923
176.7534, 4.950409
177.2355, 19.50858
177.7176, 27.98657
178.1997, 30.57571
178.6819, 28.99435
179.1640, 19.71988
179.6461, 7.589203
180.1282, 0.1207890
180.6103, 0.3664860
181.0924, 3.149872
181.5745, 6.399628
182.0567, 9.157837
182.5388, 13.01331
183.0209, 21.78726
183.5030, 31.27310
183.9851, 32.92218
184.4672, 23.20193
184.9494, 10.33554
185.4315, 5.493683
185.9136, 8.105530
186.3957, 11.90799
186.8778, 16.01089
187.3599, 19.88382
187.8421, 22.21542
188.3242, 22.25946
188.8063, 22.28241
189.2884, 26.59888
189.7705, 34.60300
190.2526, 38.91025
190.7348, 34.12646
191.2169, 24.89581
191.6990, 19.74252
192.1811, 20.77753
192.6632, 23.06439
193.1453, 21.10611
193.6275, 15.87170
194.1096, 11.42593
194.5917, 8.050446
195.0738, 6.510529
195.5559, 8.660645
196.0380, 15.41614
196.5202, 23.39276
197.0023, 30.21622
197.4844, 36.02310
197.9665, 40.66434
198.4486, 45.81805
198.9307, 49.28793
199.4129, 46.18048
199.8950, 34.59451
200.3771, 22.72974
200.8592, 17.35315
201.3413, 16.41437
201.8234, 16.34674
202.3056, 16.56210
202.7877, 17.00919
203.2698, 17.11163
203.7519, 16.70032
204.2340, 19.89661
204.7161, 29.03848
205.1983, 39.16821
205.6804, 45.40274
206.1625, 46.62546
206.6446, 44.53702
207.1267, 39.79575
207.6088, 32.62381
208.0910, 26.67093
208.5731, 26.45383
209.0552, 31.22839
209.5373, 37.72836
210.0194, 48.14746
210.5015, 57.65585
210.9837, 59.53976
211.4658, 53.36960
211.9479, 47.11600
212.4300, 43.62726
212.9121, 42.61127
213.3942, 43.91537
213.8764, 48.51709
214.3585, 54.17551
214.8406, 59.49759
215.3227, 64.31580
215.8048, 67.21738
216.2869, 67.03058
216.7691, 65.10153
217.2512, 62.82806
217.7333, 59.78336
218.2154, 58.33276
218.6975, 61.35934
219.1796, 68.50946
219.6618, 74.82895
220.1439, 78.85510
220.6260, 81.32379
221.1081, 83.06577
221.5902, 83.96991
222.0723, 84.90955
222.5545, 87.02521
223.0366, 89.92929
223.5187, 91.50851
224.0008, 91.20029
224.4829, 89.35306
224.9650, 86.76944
225.4472, 83.46783
225.9293, 78.63641
226.4114, 68.27408
226.8935, 55.55200
227.3756, 52.10309
227.8577, 63.24744
228.3399, 77.57571
228.8220, 86.81567
229.3041, 91.16956
229.7862, 89.82651
230.2683, 76.06967
230.7504, 57.24609
231.2325, 50.63052
231.7147, 61.27292
232.1968, 74.36942
232.6789, 77.58954
233.1610, 73.60837
233.6431, 68.53104
234.1252, 64.90091
234.6074, 61.74930
235.0895, 55.65131
235.5716, 45.59534
236.0537, 37.34866
236.5358, 36.09293
237.0179, 39.40472
237.5001, 42.41425
237.9822, 43.02319
238.4643, 43.83621
238.9464, 49.55460
239.4285, 60.35504
239.9106, 66.81555
240.3928, 60.50717
240.8749, 47.44077
241.3570, 40.37329
241.8391, 42.68713
242.3212, 47.36682
242.8033, 49.43961
243.2855, 49.21841
243.7676, 49.22559
244.2497, 51.47922
244.7318, 53.51569
245.2139, 50.65195
245.6960, 40.80075
246.1782, 31.81165
246.6603, 28.05240
247.1424, 28.48587
247.6245, 30.43588
248.1066, 33.99487
248.5887, 37.10391
249.0709, 36.02145
249.5530, 30.33453
250.0351, 25.32538
250.5172, 22.49850
250.9993, 21.62875
251.4814, 22.74265
251.9636, 26.11148
252.4457, 30.30704
252.9278, 34.18930
253.4099, 37.84494
253.8920, 39.95505
254.3741, 42.04590
254.8563, 41.54462
255.3384, 33.92685
255.8205, 18.61246
256.3026, 2.538818
256.7847, 9.111664
257.2668, 15.87741
257.7490, 18.48224
258.2311, 14.32642
258.7132, 8.098480
259.1953, 3.246429
259.6774, 0.4231570
260.1595, 5.426819
260.6417, 14.48495
261.1238, 26.09064
261.6059, 31.31134
262.0880, 27.72031
262.5701, 21.13583
263.0522, 9.896301
263.5344, 2.661133
264.0165, 7.818970
264.4986, 8.9478001E-02
264.9807, 15.29767
265.4628, 22.63516
265.9449, 18.73199
266.4271, 13.02130
266.9092, 3.680908
267.3913, 5.361694
267.8734, 8.055389
268.3555, 2.361725
268.8376, 7.520386
269.3198, 15.16003
269.8019, 21.05698
270.2840, 22.62888
270.7661, 16.05099
271.2482, 7.535858
271.7303, 1.337128
272.2125, 1.558289
272.6946, 1.121399
273.1767, 3.321075
273.6588, 13.35541
274.1409, 19.04810
274.6230, 15.89462
275.1052, 13.12906
275.5873, 17.10825
276.0694, 26.00983
276.5515, 33.09476
277.0336, 33.03418
277.5157, 26.21735
277.9979, 21.25992
278.4800, 17.01538
278.9621, 15.88333
279.4442, 20.49911
279.9263, 28.17334
280.4084, 34.96698
280.8906, 38.84808
281.3727, 40.64114
281.8548, 42.99841
282.3369, 48.03473
282.8190, 50.32843
283.3011, 46.95352
283.7833, 42.21716
284.2654, 39.79263
284.7475, 40.79211
285.2296, 44.08804
285.7117, 48.30124
286.1938, 54.17783
286.6760, 58.92563
287.1581, 62.65237
287.6402, 65.17535
288.1223, 66.64682
288.6044, 66.86395
289.0865, 64.98715
289.5687, 58.55594
290.0508, 47.26462
290.5329, 43.08093
291.0150, 53.53598
291.4971, 63.12439
291.9792, 67.34894
292.4614, 66.39490
292.9435, 60.06879
293.4256, 44.91846
293.9077, 26.70242
294.3898, 25.04791
294.8719, 48.02069
295.3541, 69.58411
295.8362, 83.93921
296.3183, 90.62210
296.8004, 85.95779
297.2825, 66.28384
297.7646, 44.69101
298.2468, 39.31619
298.7289, 51.65286
299.2110, 62.10736
299.6931, 64.52399
300.1752, 63.59042
300.6573, 63.47876
301.1395, 64.46924
301.6216, 65.11264
302.1037, 63.60806
302.5858, 60.79614
303.0679, 60.33517
303.5500, 63.97083
304.0321, 67.57047
304.5143, 66.82068
304.9964, 62.68207
305.4785, 58.72800
305.9606, 56.00623
306.4427, 54.12650
306.9248, 52.61691
307.4070, 51.44632
307.8891, 50.77808
308.3712, 50.38895
308.8533, 50.76495
309.3354, 53.20813
309.8175, 63.34219
310.2997, 69.80576
310.7818, 61.81927
311.2639, 44.08942
311.7460, 31.97787
312.2281, 32.85464
312.7102, 41.11710
313.1924, 43.85446
313.6745, 38.98544
314.1566, 34.47656
314.6387, 32.46429
315.1208, 30.83859
315.6029, 25.69885
316.0851, 16.76099
316.5672, 9.616058
317.0493, 11.31720
317.5314, 25.18668
318.0135, 32.99637
318.4956, 29.37183
318.9778, 24.79144
319.4599, 25.76312
319.9420, 31.21545
320.4241, 35.96005
320.9062, 36.12643
321.3883, 31.97672
321.8705, 28.80045
322.3526, 29.95129
322.8347, 29.65054
323.3168, 24.16492
323.7989, 17.52396
324.2810, 15.51501
324.7632, 20.40097
325.2453, 27.88367
325.7274, 30.08597
326.2095, 23.94751
326.6916, 20.88907
327.1737, 24.43976
327.6559, 28.30472
328.1380, 28.46371
328.6201, 24.63464
329.1022, 19.12155
329.5843, 13.31946
330.0664, 7.101654
330.5486, 3.524719
331.0307, 3.702850
331.5128, 5.548401
331.9949, 8.336273
332.4770, 11.94916
332.9591, 16.59369
333.4413, 23.35138
333.9234, 30.14673
334.4055, 32.34821
334.8876, 29.09122
335.3697, 25.18530
335.8518, 21.02069
336.3340, 17.87268
336.8161, 17.97473
337.2982, 22.47989
337.7803, 25.92905
338.2624, 21.86499
338.7445, 12.64606
339.2267, 9.739410
339.7088, 18.33716
340.1909, 28.72620
340.6730, 29.19531
341.1551, 21.18344
341.6372, 13.43344
342.1194, 5.392548
342.6015, 0.3972780
343.0836, 4.272095
343.5657, 16.83484
344.0478, 29.36078
344.5299, 36.39334
345.0121, 38.40292
345.4942, 38.91489
345.9763, 39.38663
346.4584, 37.08905
346.9405, 28.15262
347.4226, 16.16293
347.9048, 7.670074
348.3869, 5.525208
348.8690, 7.171265
349.3511, 10.12216
349.8332, 17.41336
350.3153, 22.21271
350.7975, 23.21793
351.2796, 23.14322
351.7617, 23.20737
352.2438, 23.85449
352.7259, 25.18735
353.2080, 27.26801
353.6902, 30.08975
354.1723, 32.63519
354.6544, 37.41721
355.1365, 39.05423
355.6186, 33.91739
356.1007, 25.65894
356.5829, 18.67130
357.0650, 14.87271
357.5471, 14.44553
358.0292, 19.08868
358.5113, 31.73038
358.9934, 40.04315
359.4756, 38.39102
359.9577, 34.27344
360.4398, 31.64941
360.9219, 30.97507
361.4040, 31.13358
361.8861, 31.56696
362.3683, 32.18228
362.8504, 32.83545
363.3325, 34.32895
363.8146, 34.08221
364.2967, 27.47668
364.7788, 18.23898
365.2610, 13.91959
365.7431, 20.52722
366.2252, 28.35815
366.7073, 26.20575
367.1894, 15.59879
367.6715, 7.937500
368.1537, 7.899567
368.6358, 13.03925
369.1179, 19.87534
369.6000, 29.65906
370.0821, 36.18716
370.5642, 35.49521
371.0464, 31.67410
371.5285, 29.76480
372.0106, 30.45950
372.4927, 31.01126
372.9748, 28.46326
373.4569, 22.51855
373.9391, 20.06158
374.4212, 24.42212
374.9033, 28.12381
375.3854, 27.73346
375.8675, 24.87970
376.3496, 22.60831
376.8318, 22.35712
377.3139, 23.36575
377.7960, 23.76001
378.2781, 22.11691
378.7602, 22.62311
379.2423, 26.71417
379.7245, 31.64600
380.2066, 37.15689
380.6887, 42.25308
381.1708, 43.89999
381.6529, 37.50153
382.1350, 24.16080
382.6172, 17.76910
383.0993, 21.58630
383.5814, 27.34204
384.0635, 33.23843
384.5456, 38.34116
385.0277, 41.31976
385.5099, 41.62900
385.9920, 40.02393
386.4741, 36.30875
386.9562, 30.67221
387.4383, 27.47021
387.9204, 29.60559
388.4026, 32.31168
388.8847, 29.76038
389.3668, 22.16776
389.8489, 14.43469
390.3310, 6.344818
390.8131, 1.4618000E-02
391.2953, 1.183197
391.7774, 2.837982
392.2595, 8.433136
392.7416, 14.20853
393.2237, 19.37683
393.7058, 19.29968
394.1880, 6.728058
394.6701, 1.590698
395.1522, 3.522705
395.6343, 13.67252
396.1164, 16.13962
396.5985, 7.427307
397.0807, 3.796875
397.5628, 4.784119
398.0449, 9.097260
398.5270, 16.89496
399.0091, 14.42078
399.4912, 10.79916
399.9734, 10.65186
400.4555, 12.46588
400.9376, 11.82870
401.4197, 5.573151
401.9018, 2.857513
402.3839, 5.892761
402.8660, 3.079163
403.3481, 0.6267700
403.8303, 8.900574
404.3124, 14.93762
404.7945, 10.15817
405.2766, 5.796143
405.7587, 18.39777
406.2408, 11.92288
406.7230, 7.124207
407.2051, 14.72159
407.6872, 5.876343
408.1693, 4.709229
408.6514, 6.811707
409.1335, 2.590088
409.6157, 2.267975
410.0978, 8.446075
410.5799, 13.61810
411.0620, 16.46133
411.5441, 17.49255
412.0262, 17.77438
412.5084, 17.49417
412.9905, 16.57639
413.4726, 14.69379
413.9547, 10.77774
414.4368, 8.763458
414.9189, 10.23853
415.4011, 12.57993
415.8832, 14.68784
416.3653, 16.22156
416.8474, 16.67365
417.3295, 15.49274
417.8116, 13.29752
418.2938, 12.77377
418.7759, 14.38193
419.2580, 17.06757
419.7401, 21.36832
420.2222, 26.09628
420.7043, 31.27618
421.1865, 36.45367
421.6686, 39.14737
422.1507, 34.67896
422.6328, 24.19772
423.1149, 20.08737
423.5970, 25.66623
424.0792, 31.84491
424.5613, 33.03564
425.0434, 31.40881
425.5255, 30.43796
426.0076, 31.49222
426.4897, 32.46060
426.9719, 29.98422
427.4540, 25.65961
427.9361, 26.31668
428.4182, 35.34113
428.9003, 45.73587
429.3824, 47.17239
429.8646, 37.53906
430.3467, 33.49759
430.8288, 43.11963
431.3109, 52.63232
431.7930, 51.64774
432.2751, 42.57635
432.7573, 33.85022
433.2394, 30.19806
433.7215, 30.18738
434.2036, 29.24472
434.6857, 25.04562
435.1678, 23.86365
435.6500, 27.44702
436.1321, 32.68539
436.6142, 38.86853
437.0963, 44.98901
437.5784, 48.30505
438.0605, 45.45447
438.5427, 37.79507
439.0248, 32.52313
439.5069, 28.68854
439.9890, 29.44583
440.4711, 41.44287
440.9532, 56.49557
441.4354, 65.31268
441.9175, 65.59549
442.3996, 63.14124
442.8817, 61.59290
443.3638, 60.47598
443.8459, 58.50598
444.3281, 55.42456
444.8102, 51.76562
445.2923, 47.88199
445.7744, 43.78876
446.2565, 39.82770
446.7386, 32.71841
447.2208, 29.23944
447.7029, 35.36411
448.1850, 46.49695
448.6671, 56.09964
449.1492, 61.62909
449.6313, 61.46915
450.1135, 51.10895
450.5956, 23.18213
451.0777, 8.306885
451.5598, 16.30356
452.0419, 26.98206
452.5240, 32.08752
453.0062, 33.36606
453.4883, 36.46820
453.9704, 45.53537
454.4525, 55.18509
454.9346, 52.31796
455.4167, 34.42636
455.8989, 23.57416
456.3810, 29.52850
456.8631, 40.01282
457.3452, 44.97568
457.8273, 44.29694
458.3094, 37.40915
458.7916, 15.45227
459.2737, 7.713257
459.7558, 13.28375
460.2379, 2.331879
460.7200, 9.368408
461.2021, 13.00281
461.6843, 11.65637
462.1664, 14.77570
462.6485, 28.96725
463.1306, 35.93387
463.6127, 27.58533
464.0948, 16.35959
464.5770, 12.06943
465.0591, 14.29266
465.5412, 17.69061
466.0233, 17.90848
466.5054, 15.32764
466.9875, 11.86160
467.4697, 7.023560
467.9518, 1.690277
468.4339, 5.422302
468.9160, 11.96042
469.3981, 16.25177
469.8802, 17.92938
470.3624, 16.53931
470.8445, 10.47058
471.3266, 1.018341
471.8087, 8.872406
472.2908, 20.08524
472.7729, 26.37448
473.2551, 20.52600
473.7372, 7.187408
474.2193, 1.863556
474.7014, 8.361511
475.1835, 16.86978
475.6656, 28.03641
476.1478, 37.26480
476.6299, 35.84262
477.1120, 23.00220
477.5941, 8.680603
478.0762, 2.690552
478.5583, 5.192688
479.0405, 10.03174
479.5226, 25.07220
480.0047, 33.23203
480.4868, 24.34244
480.9689, 10.01413
481.4510, 4.627289
481.9332, 11.91333
482.4153, 22.10236
482.8974, 24.40546
483.3795, 19.27289
483.8616, 13.47586
484.3438, 5.636047
484.8259, 0.7346800
485.3080, 5.999969
485.7901, 15.85480
486.2722, 19.28677
486.7543, 8.609711
487.2365, 1.157806
487.7186, 13.04990
488.2007, 35.02060
488.6828, 47.07004
489.1649, 44.37445
489.6470, 36.93738
490.1292, 35.04330
490.6113, 39.21790
491.0934, 42.21118
491.5755, 42.75009
492.0576, 43.76410
492.5397, 45.92270
493.0219, 49.11249
493.5040, 53.60938
493.9861, 59.34769
494.4682, 64.87958
494.9503, 69.20871
495.4324, 72.50162
495.9146, 69.97272
496.3967, 56.41266
496.8788, 45.08731
497.3609, 42.91882
497.8430, 47.51022
498.3251, 55.99368
498.8073, 69.89795
499.2894, 82.67511
499.7715, 89.13531
500.2536, 90.72922
500.7357, 90.19571
501.2178, 87.93481
501.6999, 86.30853
502.1820, 88.07700
502.6642, 93.37119
503.1463, 95.82648
503.6284, 91.85913
504.1105, 89.64261
504.5926, 92.31027
505.0747, 97.68353
505.5569, 103.9409
506.0390, 110.1766
506.5211, 114.7822
507.0032, 115.2460
507.4853, 111.4777
507.9674, 108.5118
508.4496, 106.4835
508.9317, 105.0650
509.4138, 102.9696
509.8959, 101.7516
510.3780, 104.3652
510.8601, 112.6060
511.3423, 120.1496
511.8244, 122.0935
512.3065, 120.2650
512.7886, 117.6842
513.2708, 114.7922
513.7529, 113.9147
514.2350, 117.6698
514.7171, 125.3991
515.1992, 129.7496
515.6813, 128.4730
516.1635, 127.1499
516.6456, 124.7391
517.1277, 123.2282
517.6098, 128.2020
518.0919, 139.9192
518.5740, 149.0541
519.0562, 144.7899
519.5383, 129.7932
520.0204, 125.3606
520.5025, 135.4839
520.9846, 146.7095
521.4667, 157.5591
521.9489, 165.0754
522.4310, 163.9683
522.9131, 152.8131
523.3952, 144.3852
523.8773, 147.2469
524.3594, 155.5936
524.8416, 162.3673
525.3237, 166.8287
525.8058, 168.1903
526.2879, 164.9614
526.7700, 158.9609
527.2521, 156.0829
527.7343, 160.4713
528.2164, 162.7077
528.6985, 160.0987
529.1806, 158.3755
529.6627, 163.6433
530.1448, 172.9477
530.6270, 176.1995
531.1091, 165.2056
531.5912, 147.7120
532.0733, 142.6042
532.5554, 151.8772
533.0375, 159.4497
533.5197, 159.6148
534.0018, 158.8413
534.4839, 165.3914
534.9660, 178.0541
535.4481, 185.6187
535.9302, 181.8767
536.4124, 175.4251
536.8945, 173.2389
537.3766, 173.2308
537.8587, 169.7211
538.3408, 160.5077
538.8229, 149.7749
539.3051, 143.9221
539.7872, 144.4729
540.2693, 143.8571
540.7514, 138.4331
541.2335, 135.7982
541.7156, 139.4355
542.1978, 146.5626
542.6799, 154.2964
543.1620, 162.4866
543.6441, 167.0274
544.1262, 159.7227
544.6083, 143.7442
545.0905, 135.8966
545.5726, 139.4740
546.0547, 145.7730
546.5368, 150.5897
547.0189, 153.7452
547.5010, 153.8443
547.9832, 148.4008
548.4653, 143.7821
548.9474, 142.5439
549.4295, 143.1109
549.9116, 145.0013
550.3937, 147.3962
550.8758, 147.6576
551.3579, 143.2408
551.8400, 135.4942
552.3221, 130.3333
552.8043, 127.9768
553.2864, 127.7863
553.7685, 133.4095
554.2506, 138.3920
554.7327, 137.0594
555.2148, 130.0244
555.6970, 124.1308
556.1791, 123.8727
556.6612, 125.4100
557.1433, 125.3933
557.6254, 123.5391
558.1075, 117.6049
558.5897, 105.8666
559.0718, 94.26843
559.5539, 92.34714
560.0360, 104.1330
560.5181, 109.2336
561.0002, 101.6723
561.4824, 95.04810
561.9645, 97.05249
562.4466, 102.4243
562.9287, 101.7635
563.4108, 92.00568
563.8929, 81.73907
564.3751, 83.05374
564.8572, 93.64679
565.3393, 96.89911
565.8214, 89.67038
566.3035, 82.42545
566.7856, 81.95074
567.2678, 85.66351
567.7499, 86.73053
568.2320, 84.90958
568.7141, 80.99463
569.1962, 71.33289
569.6783, 62.34973
570.1605, 61.29843
570.6426, 67.29440
571.1247, 74.57880
571.6068, 79.82553
572.0889, 82.19675
572.5710, 77.97665
573.0532, 63.34894
573.5353, 54.03647
574.0174, 55.88818
574.4995, 59.97333
574.9816, 62.45743
575.4637, 62.86273
575.9459, 59.98828
576.4280, 49.68384
576.9101, 40.85721
577.3922, 45.38611
577.8743, 56.98990
578.3564, 57.34186
578.8386, 41.91818
579.3207, 26.27124
579.8028, 27.34671
580.2849, 44.73798
580.7670, 50.86859
581.2491, 32.49051
581.7313, 18.82947
582.2134, 16.89209
582.6955, 19.28455
583.1776, 19.91592
583.6597, 17.80704
584.1418, 14.70197
584.6240, 11.49542
585.1061, 8.332031
585.5882, 5.215607
586.0703, 2.169342
586.5524, 0.5340270
587.0345, 1.006042
587.5167, 2.736755
587.9988, 4.631317
588.4809, 6.702850
588.9630, 8.938873
589.4451, 12.71454
589.9272, 15.19897
590.4094, 14.46219
590.8915, 11.77756
591.3736, 9.428497
591.8557, 8.054901
592.3378, 6.028687
592.8199, 0.3065190
593.3021, 10.24927
593.7842, 13.53957
594.2663, 8.835938
594.7484, 1.003967
595.2305, 12.01416
595.7126, 24.40460
596.1948, 26.09985
596.6769, 14.49277
597.1590, 3.394287
597.6411, 3.742615
598.1232, 8.440979
598.6053, 12.82155
599.0875, 15.92062
599.5696, 13.75468
600.0517, 4.269257
600.5338, 7.649567
601.0159, 13.12967
601.4980, 11.16394
601.9802, 7.464294
602.4623, 1.075165
602.9444, 6.774353
603.4265, 3.078644
603.9086, 4.701538
604.3907, 7.212860
604.8729, 0.7585750
605.3550, 3.853821
605.8371, 2.460815
606.3192, 12.74176
606.8013, 17.14139
607.2834, 15.22827
607.7656, 11.14825
608.2477, 7.091461
608.7298, 3.771301
609.2119, 3.126099
609.6940, 5.314240
610.1761, 9.862335
610.6583, 23.91580
611.1404, 33.29959
611.6225, 26.36374
612.1046, 10.72379
612.5867, 2.924561
613.0688, 10.48117
613.5510, 20.81039
614.0331, 23.49734
614.5152, 20.91425
614.9973, 17.85791
615.4794, 15.07553
615.9615, 13.02426
616.4437, 12.42087
616.9258, 12.44580
617.4079, 9.565643
617.8900, 0.9068300
618.3721, 6.587555
618.8542, 4.771637
619.3364, 0.5343930
619.8185, 3.922607
620.3006, 8.194000
620.7827, 12.09210
621.2648, 15.30515
621.7469, 18.61978
622.2291, 23.64981
622.7112, 29.60040
623.1933, 34.28003
623.6754, 37.52588
624.1575, 36.34708
624.6396, 26.53900
625.1218, 10.73566
625.6039, 4.056396
626.0860, 18.64450
626.5681, 25.82785
627.0502, 16.85965
627.5323, 6.366913
628.0145, 5.335449
628.4966, 11.95010
628.9787, 17.95078
629.4608, 18.81467
629.9429, 17.93594
630.4250, 20.89047
630.9072, 26.55197
631.3893, 27.65787
631.8714, 21.99875
632.3535, 17.74872
632.8356, 22.99390
633.3177, 35.29285
633.7999, 38.68787
634.2820, 22.85739
634.7641, 12.88028
635.2462, 14.24982
635.7283, 19.45621
636.2104, 24.15610
636.6926, 27.67618
637.1747, 30.36816
637.6568, 32.43277
638.1389, 33.77637
638.6210, 34.49045
639.1031, 34.45395
639.5853, 31.96548
640.0674, 25.93103
640.5495, 21.65939
641.0316, 24.08997
641.5137, 31.82022
641.9958, 36.64005
642.4780, 37.37802
642.9601, 37.26184
643.4422, 36.46875
643.9243, 34.99466
644.4064, 32.02512
644.8885, 28.37689
645.3707, 26.19138
645.8528, 26.79724
646.3349, 28.53760
646.8170, 29.34253
647.2991, 29.26846
647.7813, 27.64014
648.2634, 23.55215
648.7455, 23.27756
649.2276, 33.63556
649.7097, 50.82559
650.1918, 58.45190
650.6740, 45.26950
651.1561, 38.74103
651.6382, 47.19809
652.1203, 57.88467
652.6024, 61.26025
653.0845, 59.46143
653.5667, 60.34000
654.0488, 67.87152
654.5309, 77.42917
655.0130, 86.02951
655.4951, 91.86093
655.9772, 85.13263
656.4594, 63.17670
656.9415, 46.79321
657.4236, 51.01773
657.9057, 69.20486
658.3878, 80.25873
658.8699, 76.57230
659.3521, 78.06653
659.8342, 91.82407
660.3163, 103.5589
660.7984, 103.4292
661.2805, 96.53235
661.7626, 91.99796
662.2448, 92.96567
662.7269, 95.35379
663.2090, 94.81876
663.6911, 93.03479
664.1732, 91.24792
664.6553, 89.72119
665.1375, 93.77832
665.6196, 107.8039
666.1017, 125.5260
666.5838, 133.5476
667.0659, 127.0771
667.5480, 124.0182
668.0302, 129.3572
668.5123, 132.4728
668.9944, 128.0419
669.4765, 119.0338
669.9586, 110.2245
670.4407, 102.6476
670.9229, 98.09885
671.4050, 99.65421
671.8871, 104.0637
672.3692, 105.6401
672.8513, 104.8695
673.3334, 106.6620
673.8156, 113.3783
674.2977, 120.4105
674.7798, 121.1322
675.2619, 115.1114
675.7440, 106.3661
676.2261, 87.68338
676.7083, 74.16946
677.1904, 74.97070
677.6725, 79.87753
678.1546, 78.08456
678.6367, 69.06183
679.1188, 62.08044
679.6010, 62.42508
680.0831, 65.97809
680.5652, 72.56265
681.0473, 78.77969
681.5294, 74.47852
682.0115, 57.60098
682.4937, 39.69354
682.9758, 32.60648
683.4579, 35.15857
683.9400, 38.22501
684.4221, 43.06616
684.9042, 45.06009
685.3864, 40.32074
685.8685, 35.14545
686.3506, 35.64844
686.8327, 40.42285
687.3148, 42.33249
687.7969, 36.32944
688.2791, 31.37582
688.7612, 35.25577
689.2433, 40.72488
689.7254, 36.97418
690.2075, 24.50128
690.6896, 12.64706
691.1718, 7.376038
691.6539, 7.500549
692.1360, 12.57928
692.6181, 23.28140
693.1002, 26.17599
693.5823, 16.51785
694.0645, 6.065216
694.5466, 2.241760
695.0287, 3.944397
695.5108, 7.697418
695.9929, 16.65762
696.4750, 21.01843
696.9572, 16.24265
697.4393, 9.134552
697.9214, 2.275360
698.4035, 2.837372
698.8856, 3.553711
699.3677, 1.249847
699.8499, 7.009064
700.3320, 8.489624
700.8141, 6.870941
701.2962, 5.413025
701.7783, 4.259430
702.2604, 5.359100
702.7426, 9.907898
703.2247, 16.45978
703.7068, 23.27567
704.1889, 31.39130
704.6710, 34.67114
705.1531, 28.39975
705.6353, 23.08878
706.1174, 22.62067
706.5995, 23.62308
707.0816, 22.19144
707.5637, 18.10797
708.0458, 14.65726
708.5280, 14.81470
709.0101, 15.52356
709.4922, 11.17090
709.9743, 5.028107
710.4564, 6.974976
710.9385, 18.81729
711.4207, 31.63080
711.9028, 38.02097
712.3849, 38.05838
712.8670, 30.90186
713.3491, 12.56552
713.8312, 0.5609130
714.3134, 5.275452
714.7955, 4.798004
715.2776, 0.9550480
715.7597, 9.885620
716.2418, 16.19934
716.7239, 18.71838
717.2061, 19.49179
717.6882, 17.69727
718.1703, 15.69025
718.6524, 15.83908
719.1345, 17.73572
719.6166, 19.97137
720.0988, 21.96243
720.5809, 23.00439
721.0630, 21.65680
721.5451, 18.35010
722.0272, 15.15796
722.5093, 11.98300
722.9915, 11.12552
723.4736, 14.73544
723.9557, 19.36188
724.4378, 19.10208
724.9199, 12.84552
725.4020, 6.759583
725.8842, 5.024857
726.3663, 9.498077
726.8484, 3.899506
727.3305, 22.14090
727.8126, 31.66397
728.2947, 31.33276
728.7769, 28.88660
729.2590, 29.03674
729.7411, 28.56964
730.2232, 21.70609
730.7053, 12.03705
731.1874, 10.29308
731.6696, 17.87524
732.1517, 21.59224
732.6338, 9.117889
733.1159, 11.60670
733.5980, 9.831299
734.0801, 22.88130
734.5623, 40.98982
735.0444, 30.74715
735.5265, 18.40903
736.0086, 23.18794
736.4907, 37.22899
736.9728, 43.33972
737.4550, 37.98912
737.9371, 32.07956
738.4192, 28.35954
738.9013, 26.00009
739.3834, 24.49603
739.8655, 22.55925
740.3477, 17.77538
740.8298, 10.15012
741.3119, 3.700485
741.7940, 1.668320
742.2761, 3.910645
742.7582, 12.74945
743.2404, 27.14958
743.7225, 35.12128
744.2046, 32.11337
744.6867, 26.22408
745.1688, 26.64935
745.6509, 32.94699
746.1331, 35.24643
746.6152, 31.09447
747.0973, 27.23839
747.5793, 24.59477
748.0615, 22.74147
748.5436, 21.73833
749.0257, 21.43660
749.5078, 21.01857
749.9899, 19.97586
750.4720, 19.43924
750.9542, 21.08218
751.4363, 22.71344
751.9184, 20.69522
752.4005, 16.51158
752.8826, 15.40178
753.3647, 19.77034
753.8469, 25.85800
754.3290, 29.42683
754.8111, 30.46385
755.2932, 28.21021
755.7753, 22.30940
756.2574, 17.08427
756.7396, 14.19690
757.2217, 13.05565
757.7038, 12.98967
758.1859, 14.17013
758.6680, 14.08156
759.1501, 10.12573
759.6323, 8.304504
760.1144, 11.28406
760.5965, 15.28093
761.0786, 17.69145
761.5607, 18.43802
762.0428, 18.53815
762.5250, 18.12241
763.0071, 16.52950
763.4892, 13.54784
763.9713, 10.19926
764.4534, 6.732513
764.9355, 4.033966
765.4177, 4.918961
765.8998, 10.85445
766.3819, 19.63211
766.8640, 29.95848
767.3461, 41.09509
767.8282, 42.64577
768.3104, 32.71948
768.7925, 24.36371
769.2746, 23.49580
769.7567, 25.60094
770.2388, 24.59445
770.7209, 18.86386
771.2031, 16.97495
771.6852, 25.18344
772.1673, 29.71162
772.6494, 24.94777
773.1315, 18.63544
773.6136, 16.20650
774.0958, 17.70100
774.5779, 21.59035
775.0600, 29.73767
775.5421, 34.87569
776.0242, 30.29953
776.5063, 21.29947
776.9885, 12.99213
777.4706, 6.776245
777.9527, 5.491913
778.4348, 10.62221
778.9169, 17.72342
779.3990, 19.84497
779.8812, 17.68063
780.3633, 18.25453
780.8454, 22.21709
781.3275, 22.80731
781.8096, 16.03439
782.2917, 8.555939
782.7739, 8.760010
783.2560, 16.79343
783.7381, 23.37949
784.2202, 27.89838
784.7023, 32.22391
785.1844, 39.53145
785.6666, 43.13669
786.1487, 35.53317
786.6308, 20.54495
787.1129, 8.579803
787.5950, 0.8780360
788.0771, 0.2840420
788.5593, 15.83566
789.0414, 33.32108
789.5235, 35.48509
790.0056, 27.29352
790.4877, 24.77411
790.9698, 32.91447
791.4520, 41.93932
791.9341, 37.95140
792.4162, 25.98822
792.8983, 25.99872
793.3804, 37.18375
793.8625, 43.35304
794.3447, 39.98871
794.8268, 29.66829
795.3089, 12.84843
795.7910, 8.219315
796.2731, 18.09833
796.7552, 13.80389
797.2374, 4.647217
797.7195, 16.32930
798.2016, 33.16432
798.6837, 34.48753
799.1658, 26.78323
799.6479, 21.82117
800.1301, 21.63844
800.6122, 21.37766
801.0943, 19.72841
801.5764, 17.86273
802.0585, 14.99443
802.5406, 12.41667
803.0228, 13.16696
803.5049, 17.00613
803.9870, 18.32155
804.4691, 10.57307
804.9512, 1.337296
805.4333, 1.778778
805.9155, 9.271408
806.3976, 17.21254
806.8797, 24.21719
807.3618, 29.22523
807.8439, 31.49030
808.3260, 31.61063
808.8082, 30.85765
809.2903, 29.26881
809.7724, 26.02756
810.2545, 20.15041
810.7366, 15.44176
811.2188, 13.75490
811.7009, 13.72223
812.1830, 13.01388
812.6651, 11.22092
813.1472, 13.23499
813.6293, 25.13216
814.1115, 32.56873
814.5936, 29.53586
815.0757, 23.65588
815.5578, 19.74091
816.0399, 18.26222
816.5220, 19.19814
817.0042, 23.77145
817.4863, 27.20944
817.9684, 27.58031
818.4505, 24.63649
818.9326, 13.71597
819.4147, 0.1043400
819.8969, 3.503021
820.3790, 7.380768
820.8611, 20.68855
821.3432, 24.36870
821.8253, 21.54489
822.3074, 18.64960
822.7896, 16.11168
823.2717, 18.57434
823.7538, 27.42349
824.2359, 35.69403
824.7180, 37.88593
825.2001, 35.32103
825.6823, 32.60085
826.1644, 30.81758
826.6465, 23.87958
827.1286, 5.740265
827.6107, 6.872787
828.0928, 2.818848
828.5750, 9.414413
829.0571, 17.14021
829.5392, 20.10995
830.0213, 21.62003
830.5034, 22.99110
830.9855, 21.52800
831.4677, 12.62408
831.9498, 3.462891
832.4319, 1.602081
832.9140, 5.578400
833.3961, 7.967651
833.8782, 5.264526
834.3604, 2.406311
834.8425, 3.299042
835.3246, 5.380447
835.8067, 5.062744
836.2888, 3.574936
836.7709, 4.012634
837.2531, 7.823517
837.7352, 13.02901
838.2173, 18.48145
838.6994, 23.32095
839.1815, 24.87732
839.6636, 23.50929
840.1458, 21.44148
840.6279, 19.14153
841.1100, 17.63879
841.5921, 16.81364
842.0742, 17.26022
842.5563, 23.16832
843.0385, 38.31117
843.5206, 40.30486
844.0027, 20.40726
844.4848, 5.894043
844.9669, 12.28648
845.4490, 26.23920
845.9312, 29.31877
846.4133, 20.67123
846.8954, 14.13815
847.3775, 10.37971
847.8596, 7.780746
848.3417, 5.683441
848.8239, 4.952606
849.3060, 6.676682
849.7881, 10.23723
850.2702, 14.57573
850.7523, 20.37109
851.2344, 23.21024
851.7166, 16.66228
852.1987, 10.29518
852.6808, 15.12553
853.1629, 25.00076
853.6450, 27.53824
854.1271, 20.68420
854.6093, 11.86978
855.0914, 5.357864
855.5735, 1.105591
856.0556, 1.756516
856.5377, 2.834244
857.0198, 0.6783290
857.5020, 8.091415
857.9841, 11.34889
858.4662, 5.714340
858.9483, 2.135849
859.4304, 1.1917000E-02
859.9125, 11.28317
860.3947, 14.89711
860.8768, 9.702606
861.3589, 7.302429
861.8410, 11.54213
862.3231, 18.72568
862.8052, 26.38251
863.2874, 33.69336
863.7695, 34.39458
864.2516, 23.94043
864.7337, 16.86099
865.2158, 16.61165
865.6979, 16.27162
866.1801, 10.96576
866.6622, 4.294357
867.1443, 1.266342
867.6264, 2.158798
868.1085, 5.119980
868.5906, 11.62405
869.0728, 17.99631
869.5549, 25.78841
870.0370, 30.72917
870.5191, 25.80183
871.0012, 14.81918
871.4833, 10.07858
871.9655, 17.41052
872.4476, 24.80585
872.9297, 26.70224
873.4118, 24.31827
873.8939, 14.50284
874.3760, 2.731583
874.8582, 9.6008003E-02
875.3403, 8.238754
875.8224, 17.51141
876.3045, 21.30711
876.7866, 21.63503
877.2687, 20.54149
877.7509, 18.29559
878.2330, 15.53842
878.7151, 12.20398
879.1972, 9.990692
879.6793, 9.497482
880.1614, 11.28125
880.6436, 18.41216
881.1257, 29.00835
881.6078, 27.75162
882.0899, 14.05400
882.5720, 4.288681
883.0541, 2.965118
883.5363, 4.266998
884.0184, 3.375824
884.5005, 1.335403
884.9826, 2.020264
885.4647, 6.141052
885.9468, 8.513794
886.4290, 8.434662
886.9111, 7.799988
887.3932, 6.924683
887.8753, 6.572388
888.3574, 7.901855
888.8395, 10.96988
889.3217, 13.84891
889.8038, 16.79254
890.2859, 18.95587
890.7680, 21.45044
891.2501, 22.19690
891.7322, 19.32327
892.2144, 13.91422
892.6965, 7.065643
893.1786, 2.089813
893.6607, 5.664383
894.1428, 4.533264
894.6249, 13.96384
895.1071, 12.28122
895.5892, 7.944916
896.0713, 13.77756
896.5534, 26.76901
897.0355, 30.67322
897.5176, 16.12912
897.9998, 0.2365420
898.4819, 8.224869
898.9640, 10.48874
899.4461, 7.584793
899.9282, 2.010925
900.4103, 1.292816
900.8925, 1.372620
901.3746, 2.242218
901.8567, 8.186157
902.3388, 14.57092
902.8209, 12.89761
903.3030, 6.794739
903.7852, 6.019714
904.2673, 10.78873
904.7494, 15.52518
905.2315, 17.67267
905.7136, 17.85577
906.1957, 16.30933
906.6779, 13.59167
907.1600, 11.66003
907.6421, 10.55975
908.1242, 12.66010
908.6063, 18.80270
909.0884, 21.43762
909.5706, 14.30539
910.0527, 3.147400
910.5348, 1.875519
911.0169, 11.94336
911.4990, 17.81161
911.9811, 18.67267
912.4633, 18.42700
912.9454, 17.74277
913.4275, 17.53464
913.9096, 18.55066
914.3917, 20.89969
914.8738, 25.31808
915.3560, 35.17944
915.8381, 38.31937
916.3202, 29.34525
916.8023, 20.91443
917.2844, 18.25018
917.7665, 19.97195
918.2487, 26.66620
918.7308, 38.78192
919.2129, 41.81900
919.6950, 26.16071
920.1771, 15.00842
920.6592, 14.75485
921.1414, 16.69434
921.6235, 14.57394
922.1056, 11.28961
922.5877, 13.87833
923.0698, 24.49033
923.5519, 29.60611
924.0341, 20.72354
924.5162, 12.22684
924.9983, 8.501556
925.4804, 9.399933
925.9625, 18.82019
926.4446, 32.15094
926.9268, 35.89960
927.4089, 23.62799
927.8910, 13.15442
928.3731, 16.16592
928.8552, 22.12146
929.3373, 24.10287
929.8195, 22.94427
930.3016, 18.88187
930.7837, 13.26907
931.2658, 10.76712
931.7479, 14.58133
932.2300, 19.80408
932.7122, 24.67499
933.1943, 26.71262
933.6764, 19.24854
934.1585, 6.780396
934.6406, 1.299561
935.1227, 5.086914
935.6049, 8.508148
936.0870, 2.911316
936.5691, 4.250854
937.0512, 2.074341
937.5333, 6.353333
938.0154, 16.63693
938.4976, 26.79126
938.9797, 31.08667
939.4618, 27.46674
939.9439, 21.32001
940.4260, 18.07407
940.9081, 16.68317
941.3903, 14.74213
941.8724, 12.37717
942.3545, 9.600220
942.8366, 6.640106
943.3187, 5.941193
943.8008, 8.839844
944.2830, 14.00272
944.7651, 21.39023
945.2471, 29.24945
945.7292, 23.97211
946.2114, 6.185760
946.6935, 0.5741270
947.1756, 9.232056
947.6577, 19.16772
948.1398, 18.00751
948.6219, 10.76691
949.1041, 7.072266
949.5862, 6.981537
950.0683, 8.598114
950.5504, 12.18604
951.0325, 16.04971
951.5146, 20.54077
951.9968, 21.57050
952.4789, 13.59836
952.9610, 1.261841
953.4431, 0.7427980
953.9252, 10.31226
954.4073, 18.38000
954.8895, 23.38513
955.3716, 25.07098
955.8537, 22.36838
956.3358, 17.77002
956.8179, 13.88715
957.3000, 11.66333
957.7822, 12.79413
958.2643, 17.76138
958.7464, 17.79330
959.2285, 9.478424
959.7106, 4.423004
960.1927, 8.881042
960.6749, 16.59439
961.1570, 21.47787
961.6391, 23.42026
962.1212, 20.96783
962.6033, 8.971771
963.0854, 2.465790
963.5676, 6.016205
964.0497, 9.893646
964.5318, 8.975586
965.0139, 6.714905
965.4960, 7.590240
965.9781, 11.62790
966.4603, 16.08737
966.9424, 23.23904
967.4245, 27.36322
967.9066, 26.36957
968.3887, 24.13184
968.8708, 21.50046
969.3530, 19.36057
969.8351, 19.21152
970.3172, 21.19382
970.7993, 22.89853
971.2814, 22.75647
971.7635, 24.26270
972.2457, 30.60291
972.7278, 36.15100
973.2099, 36.57684
973.6920, 34.24884
974.1741, 34.50027
974.6563, 38.38425
975.1384, 36.10834
975.6205, 13.85052
976.1026, 1.803070
976.5847, 20.00446
977.0668, 40.10712
977.5490, 39.45221
978.0311, 26.41660
978.5132, 19.68304
978.9953, 22.65881
979.4774, 24.28494
979.9595, 22.16443
980.4417, 17.79279
980.9238, 5.664124
981.4059, 3.056702
981.8880, 4.822266
982.3701, 22.24768
982.8522, 32.50177
983.3344, 31.67319
983.8165, 30.67053
984.2986, 35.52078
984.7807, 37.71713
985.2628, 29.54800
985.7449, 20.27960
986.2271, 19.76883
986.7092, 25.04410
987.1913, 27.04971
987.6734, 23.22470
988.1555, 19.75638
988.6376, 18.06561
989.1198, 18.36722
989.6019, 22.65799
990.0840, 27.49838
990.5661, 29.45816
991.0482, 29.04071
991.5303, 28.62439
992.0125, 28.99649
992.4946, 28.07404
992.9767, 21.18680
993.4588, 17.25150
993.9409, 26.16852
994.4230, 36.72784
994.9052, 35.79514
995.3873, 26.42093
995.8694, 19.81708
996.3515, 18.89105
996.8336, 22.00650
997.3157, 34.57690
997.7979, 43.84616
998.2800, 38.20984
998.7621, 28.31674
999.2442, 26.65720
999.7263, 31.14993
1000.208, 31.89059
1000.691, 25.60068
1001.173, 18.60544
1001.655, 11.20068
1002.137, 6.985352
1002.619, 9.776886
1003.101, 15.66171
1003.583, 22.86697
1004.065, 29.08087
1004.547, 28.42905
1005.030, 17.88290
1005.512, 10.20453
1005.994, 14.24796
1006.476, 19.15436
1006.958, 19.06381
1007.440, 15.95944
1007.922, 9.999634
1008.404, 3.400909
1008.887, 1.309052
1009.369, 5.492371
1009.851, 11.56409
1010.333, 22.28668
1010.815, 28.87524
1011.297, 22.14587
1011.779, 12.16217
1012.261, 9.679077
1012.743, 12.95190
1013.226, 15.23257
1013.708, 15.46582
1014.190, 10.26511
1014.672, 12.44652
1015.154, 27.78960
1015.636, 15.66216
1016.118, 3.788574
1016.600, 12.36121
1017.083, 11.43799
1017.565, 7.555084
1018.047, 1.357208
1018.529, 0.2329100
1019.011, 13.62781
1019.493, 23.96051
1019.975, 19.58954
1020.457, 12.08572
1020.939, 10.96628
1021.422, 15.10065
1021.904, 20.57617
1022.386, 27.10510
1022.868, 33.10342
1023.350, 42.68869
1023.832, 47.46237
1024.314, 42.02042
1024.796, 32.70181
1025.279, 21.35876
1025.761, 10.89154
1026.243, 5.770966
1026.725, 6.756042
1027.207, 11.29034
1027.689, 22.92999
1028.171, 32.33871
1028.653, 35.71335
1029.135, 37.10706
1029.618, 41.22366
1030.100, 44.36642
1030.582, 37.39124
1031.064, 19.02365
1031.546, 10.11810
1032.028, 23.07190
1032.510, 31.90994
1032.992, 27.61606
1033.474, 22.52652
1033.957, 24.31720
1034.439, 29.16962
1034.921, 31.56787
1035.403, 31.38147
1035.885, 30.36792
1036.367, 27.30307
1036.849, 25.76813
1037.331, 27.21016
1037.814, 28.88939
1038.296, 30.72205
1038.778, 31.36816
1039.260, 28.25545
1039.742, 21.95435
1040.224, 17.98116
1040.706, 15.53430
1041.188, 17.18922
1041.671, 28.18025
1042.153, 34.97559
1042.635, 28.11700
1043.117, 19.99879
1043.599, 25.02203
1044.081, 40.15643
1044.563, 48.58737
1045.045, 48.50774
1045.527, 46.18195
1046.010, 40.07161
1046.492, 35.59232
1046.974, 35.59279
1047.456, 35.63940
1047.938, 31.24983
1048.420, 24.25313
1048.902, 20.35579
1049.384, 19.75490
1049.866, 22.08109
1050.349, 29.05806
1050.831, 31.47620
1051.313, 25.58603
1051.795, 19.50888
1052.277, 19.23369
1052.759, 22.95970
1053.241, 27.73143
1053.723, 33.59396
1054.205, 33.33759
1054.688, 26.35376
1055.170, 20.96045
1055.652, 18.82259
1056.134, 17.98604
1056.616, 17.00081
1057.098, 18.63904
1057.580, 29.49055
1058.062, 46.12674
1058.545, 47.33038
1059.027, 34.50055
1059.509, 24.32957
1059.991, 19.24881
1060.473, 18.01022
1060.955, 20.09894
1061.437, 23.12961
1061.919, 24.24194
1062.401, 24.44463
1062.884, 27.63623
1063.366, 32.01505
1063.848, 29.64340
1064.330, 21.31229
1064.812, 15.17638
1065.294, 13.75548
1065.776, 12.91960
1066.258, 8.770523
1066.740, 4.299026
1067.223, 3.505798
1067.705, 5.757645
1068.187, 13.16776
1068.669, 21.94560
1069.151, 19.36200
1069.633, 5.413589
1070.115, 1.964172
1070.597, 9.598862
1071.080, 24.16655
1071.562, 25.92319
1072.044, 22.28441
1072.526, 19.50671
1073.008, 17.01219
1073.490, 15.55057
1073.972, 14.76013
1074.454, 14.36998
1074.937, 14.51280
1075.419, 14.05463
1075.901, 10.43483
1076.383, 7.652740
1076.865, 9.020340
1077.347, 12.09869
1077.829, 16.91306
1078.311, 20.52544
1078.793, 14.56335
1079.276, 3.368073
1079.758, 12.87698
1080.240, 0.9489440
1080.722, 11.01328
1081.204, 15.95236
1081.686, 18.67110
1082.168, 23.04431
1082.650, 26.65225
1083.132, 23.86835
1083.615, 15.11278
1084.097, 12.16869
1084.579, 21.23483
1085.061, 26.58315
1085.543, 26.53337
1086.025, 24.76828
1086.507, 19.97578
1086.989, 16.81306
1087.472, 21.59244
1087.954, 31.70544
1088.436, 36.07008
1088.918, 33.70001
1089.400, 27.95815
1089.882, 15.24469
1090.364, 11.20674
1090.846, 24.05991
1091.328, 33.83752
1091.811, 24.39906
1092.293, 5.883560
1092.775, 1.433060
1093.257, 2.079834
1093.739, 6.455673
1094.221, 11.85709
1094.703, 19.81052
1095.185, 30.97224
1095.667, 33.77269
1096.150, 21.86511
1096.632, 9.587173
1097.114, 16.78741
1097.596, 34.25589
1098.078, 36.60541
1098.560, 27.36458
1099.042, 18.35574
1099.524, 11.43634
1100.007, 10.54131
1100.489, 15.94496
1100.971, 18.80081
1101.453, 10.85396
1101.935, 3.608734
1102.417, 18.07677
1102.899, 37.48465
1103.381, 33.49936
1103.864, 16.01794
1104.346, 4.753326
1104.828, 2.746445
1105.310, 6.682785
1105.792, 16.17285
1106.274, 21.87207
1106.756, 13.82582
1107.238, 4.418457
1107.720, 1.138062
1108.203, 1.933136
1108.685, 5.784592
1109.167, 11.36627
1109.649, 18.23743
1110.131, 10.91769
1110.613, 29.02127
1111.095, 38.66618
1111.577, 40.31003
1112.059, 9.766281
1112.542, 20.95541
1113.024, 15.52676
1113.506, 9.488815
1113.988, 26.76976
1114.470, 1.293869
1114.952, 18.35576
1115.434, 18.54233
1115.916, 26.56148
1116.399, 17.85510
1116.881, 14.41438
1117.363, 27.85284
1117.845, 32.06174
1118.327, 21.72313
1118.809, 30.68559
1119.291, 5.371933
1119.773, 10.27660
1120.255, 28.26257
1120.738, 19.14264
1121.220, 28.78651
1121.702, 31.38756
1122.184, 1.716873
1122.666, 28.37439
1123.148, 30.77875
1123.630, 8.278442
1124.112, 33.24812
1124.594, 14.63811
1125.077, 11.55504
1125.559, 20.28212
1126.041, 16.78090
1126.523, 32.75372
1127.005, 20.21219
1127.487, 15.04770
1127.969, 4.537766
1128.451, 2.458023
1128.934, 7.746002
1129.416, 19.15485
1129.898, 13.84351
1130.380, 1.567032
1130.862, 7.643723
1131.344, 11.56793
1131.826, 7.432007
1132.308, 5.247116
1132.791, 14.25119
1133.273, 12.10576
1133.755, 10.04015
1134.237, 11.21181
1134.719, 14.00655
1135.201, 21.02875
1135.683, 26.68858
1136.165, 21.94507
1136.647, 8.966415
1137.130, 2.248596
1137.612, 4.515961
1138.094, 4.872711
1138.576, 0.7803340
1139.058, 0.9190980
1139.540, 3.090240
1140.022, 4.952438
1140.504, 1.824097
1140.986, 10.82538
1141.469, 11.70071
1141.951, 4.936203
1142.433, 8.966446
1142.915, 29.34740
1143.397, 35.42903
1143.879, 25.96088
1144.361, 15.89171
1144.843, 10.63821
1145.326, 8.154053
1145.808, 6.567215
1146.290, 7.462585
1146.772, 15.22795
1147.254, 25.71777
1147.736, 32.49519
1148.218, 35.46700
1148.700, 33.42305
1149.182, 28.11267
1149.665, 26.53340
1150.147, 31.46733
1150.629, 31.92705
1151.111, 14.37993
1151.593, 0.2749940
1152.075, 5.072784
1152.557, 13.69124
1153.039, 8.549713
1153.521, 0.6770940
1154.004, 4.598816
1154.486, 23.26822
1154.968, 32.00858
1155.450, 21.74362
1155.932, 14.50308
1156.414, 10.81216
1156.896, 10.46118
1157.378, 14.02275
1157.861, 20.26852
1158.343, 30.21083
1158.825, 39.63907
1159.307, 40.40881
1159.789, 33.02959
1160.271, 22.25400
1160.753, 7.791672
1161.235, 7.094742
1161.718, 21.68555
1162.200, 28.65877
1162.682, 20.28926
1163.164, 11.04398
1163.646, 12.02606
1164.128, 18.28976
1164.610, 24.76440
1165.092, 29.96228
1165.574, 30.20581
1166.057, 27.35062
1166.539, 24.82150
1167.021, 23.21457
1167.503, 21.87950
1167.985, 20.61841
1168.467, 21.20941
1168.949, 26.46584
1169.431, 31.38881
1169.913, 33.11311
1170.396, 33.96913
1170.878, 36.33026
1171.360, 38.36719
1171.842, 36.47736
1172.324, 31.67059
1172.806, 30.51178
1173.288, 34.62556
1173.770, 37.97795
1174.253, 40.02626
1174.735, 42.94243
1175.217, 48.72551
1175.699, 51.14740
1176.181, 46.43106
1176.663, 37.22461
1177.145, 25.49048
1177.627, 13.92500
1178.109, 15.91890
1178.592, 29.02650
1179.074, 33.68544
1179.556, 30.03056
1180.038, 27.85501
1180.520, 28.97261
1181.002, 25.10033
1181.484, 10.85490
1181.966, 1.135223
1182.448, 5.582489
1182.931, 17.20332
1183.413, 17.01614
1183.895, 14.25226
1184.377, 21.83122
1184.859, 35.38077
1185.341, 47.44594
1185.823, 55.67293
1186.305, 53.70592
1186.788, 32.90337
1187.270, 18.56264
1187.752, 20.30734
1188.234, 21.53499
1188.716, 17.93730
1189.198, 16.75040
1189.680, 24.45782
1190.162, 34.96469
1190.645, 36.86191
1191.127, 30.87445
1191.609, 30.17293
1192.091, 35.00211
1192.573, 34.81300
1193.055, 27.24724
1193.537, 20.18613
1194.019, 17.68602
1194.501, 17.13333
1194.984, 17.69705
1195.466, 20.18170
1195.948, 29.72105
1196.430, 38.74138
1196.912, 30.93590
1197.394, 16.49033
1197.876, 12.08575
1198.358, 16.33284
1198.840, 23.35893
1199.323, 30.43806
1199.805, 34.00267
1200.287, 31.59766
1200.769, 26.76617
1201.251, 17.68495
1201.733, 10.29016
1202.215, 2.101227
1202.697, 2.249130
1203.180, 26.48967
1203.662, 57.28639
1204.144, 59.16777
1204.626, 33.11975
1205.108, 21.37138
1205.590, 26.25258
1206.072, 26.57910
1206.554, 20.23775
1207.036, 18.54070
1207.519, 25.07442
1208.001, 33.93224
1208.483, 41.59290
1208.965, 44.14064
1209.447, 29.95120
1209.929, 11.85773
1210.411, 16.14003
1210.893, 29.46962
1211.375, 25.84929
1211.858, 12.23634
1212.340, 12.98846
1212.822, 30.97307
1213.304, 44.55702
1213.786, 43.72803
1214.268, 42.21402
1214.750, 44.91269
1215.232, 44.75955
1215.715, 33.95006
1216.197, 24.89418
1216.679, 27.08827
1217.161, 35.30942
1217.643, 42.95621
1218.125, 49.12784
1218.607, 44.45883
1219.089, 28.06361
1219.572, 11.85686
1220.054, 3.508331
1220.536, 9.342651
1221.018, 3.698364
1221.500, 9.923965
1221.982, 29.96901
1222.464, 46.96411
1222.946, 49.94644
1223.428, 44.53117
1223.911, 31.19398
1224.393, 19.61137
1224.875, 23.27519
1225.357, 35.86954
1225.839, 47.12521
1226.321, 54.61479
1226.803, 56.41479
1227.285, 50.32486
1227.767, 45.20793
1228.250, 44.91908
1228.732, 41.81502
1229.214, 31.29332
1229.696, 23.73395
1230.178, 24.66260
1230.660, 29.61084
1231.142, 34.04762
1231.624, 38.04227
1232.107, 42.44720
1232.589, 45.26744
1233.071, 40.15012
1233.553, 36.11247
1234.035, 31.16753
1234.517, 26.32245
1234.999, 24.39233
1235.481, 26.13503
1235.964, 27.14487
1236.446, 23.18390
1236.928, 20.19542
1237.410, 23.72180
1237.892, 28.48808
1238.374, 32.47554
1238.856, 34.09099
1239.338, 31.34460
1239.820, 25.33910
1240.302, 19.77812
1240.785, 14.83762
1241.267, 9.074814
1241.749, 1.232666
1242.231, 3.096848
1242.713, 27.06285
1243.195, 43.27681
1243.677, 32.27350
1244.159, 17.56926
1244.641, 0.0000000E+00
##END=



