##NAMES=Fluorcalciomicrolite
##RRUFFID=R120163
##IDEAL CHEMISTRY=(Ca,Na)_2_Ta^5+^_2_O_6_F
##LOCALITY=Alto Ligonha, Mozambique
##OWNER=RRUFF
##SOURCE=Marcus Origlieri
##DESCRIPTION=Reddish brown octahedral fragment
##STATUS=The identification of this mineral is confirmed by single-crystal X-ray diffraction and chemical analysis.
##URL=rruff.info/R120163
##MEASURED CHEMISTRY=(Ca_1.16_Na_0.70_)_Σ1.86_(Ta_1.56_Nb_0.25_Ti_0.13_Sn_0.06_)_Σ2_(O_5.84_(OH)_0.16_)_Σ6_(F_0.82_(OH)_0.18_)
98.91344, 2995.130
99.39556, 2998.406
99.87768, 2998.226
100.3598, 3000.077
100.8419, 3007.622
101.3240, 3019.694
101.8061, 3029.999
102.2883, 3037.242
102.7704, 3043.245
103.2525, 3049.399
103.7346, 3055.573
104.2167, 3061.889
104.6988, 3067.666
105.1810, 3072.864
105.6631, 3077.460
106.1452, 3080.385
106.6273, 3082.423
107.1094, 3087.360
107.5915, 3097.988
108.0737, 3107.976
108.5558, 3114.775
109.0379, 3118.830
109.5200, 3121.484
110.0021, 3124.223
110.4842, 3127.619
110.9664, 3127.849
111.4485, 3120.348
111.9306, 3113.617
112.4127, 3112.411
112.8948, 3116.977
113.3769, 3123.761
113.8591, 3127.501
114.3412, 3124.604
114.8233, 3125.236
115.3054, 3132.577
115.7875, 3141.792
116.2696, 3148.469
116.7517, 3151.062
117.2339, 3150.279
117.7160, 3146.590
118.1981, 3136.392
118.6802, 3130.739
119.1623, 3136.564
119.6444, 3149.983
120.1266, 3159.922
120.6087, 3159.650
121.0908, 3154.152
121.5729, 3154.390
122.0550, 3162.879
122.5371, 3172.725
123.0193, 3177.716
123.5014, 3177.365
123.9835, 3176.390
124.4656, 3177.699
124.9477, 3179.280
125.4298, 3179.111
125.9120, 3176.168
126.3941, 3171.528
126.8762, 3167.163
127.3583, 3161.368
127.8404, 3159.214
128.3225, 3163.970
128.8047, 3172.265
129.2868, 3179.487
129.7689, 3182.442
130.2510, 3181.572
130.7331, 3183.264
131.2152, 3192.729
131.6974, 3199.876
132.1795, 3200.355
132.6616, 3196.079
133.1437, 3191.987
133.6258, 3192.492
134.1079, 3198.498
134.5901, 3203.563
135.0722, 3204.929
135.5543, 3207.672
136.0364, 3217.040
136.5185, 3232.604
137.0006, 3247.041
137.4828, 3250.712
137.9649, 3240.484
138.4470, 3235.666
138.9291, 3241.130
139.4112, 3251.031
139.8933, 3258.600
140.3755, 3262.137
140.8576, 3264.112
141.3397, 3267.149
141.8218, 3271.068
142.3039, 3276.260
142.7860, 3284.126
143.2681, 3293.681
143.7503, 3300.925
144.2324, 3302.364
144.7145, 3304.361
145.1966, 3314.176
145.6787, 3331.731
146.1608, 3347.904
146.6430, 3351.776
147.1251, 3341.309
147.6072, 3338.552
148.0893, 3356.563
148.5714, 3378.246
149.0535, 3396.010
149.5357, 3407.886
150.0178, 3414.564
150.4999, 3415.556
150.9820, 3405.620
151.4641, 3401.748
151.9462, 3408.729
152.4284, 3419.315
152.9105, 3427.263
153.3926, 3430.302
153.8747, 3431.500
154.3568, 3438.635
154.8389, 3460.249
155.3211, 3477.854
155.8032, 3489.847
156.2853, 3497.654
156.7674, 3502.131
157.2495, 3503.484
157.7316, 3502.910
158.2138, 3505.678
158.6959, 3510.315
159.1780, 3519.201
159.6601, 3538.264
160.1422, 3562.518
160.6243, 3579.589
161.1065, 3580.343
161.5886, 3569.454
162.0707, 3568.617
162.5528, 3585.920
163.0349, 3604.614
163.5170, 3614.791
163.9991, 3617.152
164.4813, 3618.042
164.9634, 3619.731
165.4455, 3623.206
165.9276, 3630.453
166.4097, 3645.102
166.8918, 3660.958
167.3740, 3670.175
167.8561, 3671.405
168.3382, 3672.328
168.8203, 3677.579
169.3024, 3685.128
169.7845, 3692.777
170.2667, 3699.652
170.7488, 3706.128
171.2309, 3713.251
171.7130, 3721.833
172.1951, 3729.502
172.6772, 3733.592
173.1594, 3736.701
173.6415, 3742.712
174.1236, 3754.310
174.6057, 3770.615
175.0878, 3786.335
175.5699, 3804.156
176.0521, 3817.953
176.5342, 3823.463
177.0163, 3824.052
177.4984, 3825.357
177.9805, 3831.518
178.4626, 3842.592
178.9448, 3854.166
179.4269, 3866.573
179.9090, 3879.156
180.3911, 3890.387
180.8732, 3901.408
181.3553, 3915.184
181.8375, 3934.891
182.3196, 3961.691
182.8017, 3982.273
183.2838, 3992.537
183.7659, 4001.686
184.2480, 4015.163
184.7301, 4032.384
185.2123, 4047.976
185.6944, 4055.855
186.1765, 4054.390
186.6586, 4061.207
187.1407, 4082.395
187.6228, 4107.075
188.1050, 4127.710
188.5871, 4143.375
189.0692, 4157.085
189.5513, 4171.977
190.0334, 4187.829
190.5155, 4200.778
190.9977, 4206.998
191.4798, 4211.626
191.9619, 4220.972
192.4440, 4236.353
192.9261, 4253.421
193.4082, 4267.455
193.8904, 4279.596
194.3725, 4293.643
194.8546, 4313.218
195.3367, 4335.142
195.8188, 4352.853
196.3009, 4364.591
196.7831, 4374.726
197.2652, 4386.747
197.7473, 4399.960
198.2294, 4412.297
198.7115, 4422.320
199.1936, 4430.555
199.6758, 4438.893
200.1579, 4446.251
200.6400, 4455.570
201.1221, 4469.618
201.6042, 4486.702
202.0863, 4502.446
202.5685, 4512.214
203.0506, 4516.625
203.5327, 4526.372
204.0148, 4545.829
204.4969, 4566.534
204.9790, 4587.267
205.4612, 4606.733
205.9433, 4622.759
206.4254, 4632.852
206.9075, 4636.674
207.3896, 4640.947
207.8717, 4639.294
208.3539, 4644.122
208.8360, 4665.397
209.3181, 4697.836
209.8002, 4727.556
210.2823, 4741.397
210.7644, 4736.974
211.2466, 4737.325
211.7287, 4743.833
212.2108, 4753.266
212.6929, 4765.727
213.1750, 4780.320
213.6571, 4795.516
214.1393, 4810.205
214.6214, 4824.826
215.1035, 4835.395
215.5856, 4838.011
216.0677, 4841.020
216.5498, 4847.548
217.0320, 4858.111
217.5141, 4873.060
217.9962, 4893.658
218.4783, 4921.049
218.9604, 4941.970
219.4425, 4950.782
219.9247, 4958.593
220.4068, 4972.554
220.8889, 4992.625
221.3710, 5013.826
221.8531, 5031.655
222.3352, 5045.882
222.8174, 5062.902
223.2995, 5084.708
223.7816, 5107.802
224.2637, 5130.184
224.7458, 5151.653
225.2279, 5171.517
225.7100, 5189.298
226.1922, 5204.713
226.6743, 5217.942
227.1564, 5222.547
227.6385, 5228.951
228.1206, 5249.679
228.6027, 5285.713
229.0849, 5321.346
229.5670, 5343.708
230.0491, 5356.576
230.5312, 5370.732
231.0133, 5387.380
231.4954, 5406.305
231.9776, 5427.709
232.4597, 5451.827
232.9418, 5476.786
233.4239, 5502.677
233.9060, 5528.509
234.3881, 5552.383
234.8703, 5571.842
235.3524, 5590.802
235.8345, 5614.141
236.3166, 5641.935
236.7987, 5674.470
237.2808, 5719.820
237.7630, 5767.711
238.2451, 5805.553
238.7272, 5825.989
239.2093, 5839.806
239.6914, 5865.108
240.1735, 5905.991
240.6557, 5945.641
241.1378, 5977.002
241.6199, 6004.296
242.1020, 6030.794
242.5841, 6057.258
243.0662, 6084.190
243.5484, 6112.094
244.0305, 6140.243
244.5126, 6171.492
244.9947, 6211.030
245.4768, 6251.443
245.9589, 6285.473
246.4410, 6310.470
246.9232, 6331.388
247.4053, 6357.235
247.8874, 6389.785
248.3695, 6423.112
248.8516, 6456.502
249.3337, 6489.801
249.8159, 6524.698
250.2980, 6561.452
250.7801, 6595.149
251.2622, 6615.401
251.7443, 6610.713
252.2264, 6618.808
252.7086, 6651.974
253.1907, 6691.107
253.6728, 6722.613
254.1549, 6743.149
254.6370, 6759.202
255.1191, 6780.755
255.6013, 6810.029
256.0834, 6840.329
256.5655, 6874.271
257.0476, 6907.061
257.5297, 6935.079
258.0118, 6957.935
258.4940, 6978.708
258.9761, 7002.203
259.4582, 7032.639
259.9403, 7054.501
260.4224, 7059.560
260.9045, 7064.407
261.3867, 7079.841
261.8688, 7106.580
262.3509, 7137.959
262.8330, 7167.482
263.3151, 7197.272
263.7972, 7216.079
264.2794, 7211.328
264.7615, 7208.222
265.2436, 7222.856
265.7257, 7254.013
266.2078, 7288.874
266.6899, 7314.888
267.1721, 7330.206
267.6542, 7347.665
268.1363, 7366.270
268.6184, 7387.352
269.1005, 7414.913
269.5826, 7446.447
270.0648, 7473.815
270.5469, 7489.823
271.0290, 7493.875
271.5111, 7500.202
271.9932, 7509.010
272.4753, 7519.271
272.9575, 7529.512
273.4396, 7540.654
273.9217, 7556.313
274.4038, 7580.357
274.8859, 7611.245
275.3680, 7628.509
275.8501, 7620.961
276.3322, 7615.437
276.8144, 7620.683
277.2965, 7634.779
277.7786, 7653.811
278.2607, 7676.725
278.7428, 7701.417
279.2249, 7718.423
279.7071, 7718.583
280.1892, 7723.427
280.6713, 7742.984
281.1534, 7770.316
281.6355, 7792.558
282.1176, 7803.662
282.5998, 7808.301
283.0819, 7818.476
283.5640, 7838.134
284.0461, 7855.125
284.5282, 7863.063
285.0103, 7867.910
285.4925, 7879.384
285.9746, 7901.216
286.4567, 7927.341
286.9388, 7947.232
287.4209, 7958.373
287.9030, 7972.207
288.3852, 7993.444
288.8673, 8017.037
289.3494, 8037.052
289.8315, 8052.150
290.3136, 8063.595
290.7957, 8072.487
291.2779, 8078.525
291.7600, 8083.562
292.2421, 8084.224
292.7242, 8085.922
293.2063, 8095.022
293.6884, 8112.258
294.1706, 8131.763
294.6527, 8149.249
295.1348, 8164.366
295.6169, 8175.419
296.0990, 8177.613
296.5811, 8179.161
297.0633, 8189.284
297.5454, 8207.145
298.0275, 8220.297
298.5096, 8217.840
298.9917, 8202.619
299.4738, 8195.507
299.9560, 8201.608
300.4381, 8210.990
300.9202, 8220.195
301.4023, 8228.494
301.8844, 8232.940
302.3665, 8231.480
302.8487, 8225.246
303.3308, 8218.081
303.8129, 8208.437
304.2950, 8200.264
304.7771, 8196.798
305.2592, 8196.236
305.7414, 8193.674
306.2235, 8186.838
306.7056, 8177.947
307.1877, 8172.041
307.6698, 8170.624
308.1519, 8166.203
308.6341, 8153.577
309.1162, 8136.979
309.5983, 8124.257
310.0804, 8117.929
310.5625, 8113.676
311.0446, 8105.442
311.5268, 8093.047
312.0089, 8082.161
312.4910, 8077.384
312.9731, 8073.066
313.4552, 8061.505
313.9373, 8041.422
314.4195, 8019.034
314.9016, 8000.081
315.3837, 7984.162
315.8658, 7966.072
316.3479, 7938.773
316.8300, 7913.821
317.3121, 7902.976
317.7943, 7905.644
318.2764, 7910.097
318.7585, 7909.448
319.2406, 7903.987
319.7227, 7897.095
320.2048, 7884.558
320.6870, 7874.786
321.1691, 7875.771
321.6512, 7884.268
322.1333, 7887.478
322.6154, 7877.029
323.0975, 7860.658
323.5797, 7859.308
324.0618, 7880.176
324.5439, 7897.652
325.0260, 7899.235
325.5081, 7891.796
325.9902, 7886.884
326.4724, 7887.206
326.9545, 7894.494
327.4366, 7914.694
327.9187, 7950.405
328.4008, 7981.081
328.8829, 7998.677
329.3651, 8011.134
329.8472, 8025.401
330.3293, 8042.648
330.8114, 8066.859
331.2935, 8104.550
331.7756, 8156.971
332.2578, 8203.738
332.7399, 8240.771
333.2220, 8274.228
333.7041, 8303.533
334.1862, 8330.856
334.6683, 8369.313
335.1505, 8429.626
335.6326, 8509.397
336.1147, 8585.347
336.5968, 8656.118
337.0789, 8725.871
337.5610, 8795.504
338.0432, 8865.686
338.5253, 8936.623
339.0074, 9007.917
339.4895, 9081.055
339.9716, 9160.271
340.4537, 9246.030
340.9359, 9335.538
341.4180, 9431.722
341.9001, 9530.290
342.3822, 9625.074
342.8643, 9713.957
343.3464, 9799.775
343.8286, 9886.197
344.3107, 9974.016
344.7928, 10059.73
345.2749, 10144.93
345.7570, 10226.22
346.2391, 10299.28
346.7213, 10364.28
347.2034, 10428.23
347.6855, 10497.84
348.1676, 10574.05
348.6497, 10635.60
349.1318, 10676.02
349.6140, 10711.16
350.0961, 10747.12
350.5782, 10782.83
351.0603, 10815.01
351.5424, 10841.61
352.0245, 10863.17
352.5067, 10881.98
352.9888, 10902.17
353.4709, 10914.53
353.9530, 10911.79
354.4351, 10902.97
354.9172, 10899.95
355.3994, 10906.60
355.8815, 10915.25
356.3636, 10912.49
356.8457, 10890.08
357.3278, 10872.30
357.8099, 10860.66
358.2920, 10851.92
358.7741, 10845.55
359.2563, 10840.47
359.7384, 10834.06
360.2205, 10823.65
360.7026, 10809.00
361.1847, 10792.71
361.6668, 10773.26
362.1490, 10753.96
362.6311, 10735.25
363.1132, 10717.51
363.5953, 10700.93
364.0774, 10685.23
364.5595, 10671.70
365.0417, 10666.72
365.5238, 10686.35
366.0059, 10691.82
366.4880, 10667.59
366.9701, 10633.47
367.4522, 10609.05
367.9344, 10600.54
368.4165, 10599.70
368.8986, 10594.34
369.3807, 10583.87
369.8628, 10570.28
370.3449, 10554.20
370.8271, 10534.87
371.3092, 10510.23
371.7913, 10481.36
372.2734, 10451.44
372.7555, 10422.29
373.2376, 10394.15
373.7198, 10372.18
374.2019, 10360.92
374.6840, 10350.72
375.1661, 10342.78
375.6482, 10332.83
376.1303, 10312.79
376.6125, 10276.13
377.0946, 10233.08
377.5767, 10208.67
378.0588, 10211.43
378.5409, 10208.51
379.0230, 10187.55
379.5052, 10159.40
379.9873, 10131.66
380.4694, 10105.85
380.9515, 10079.31
381.4336, 10047.53
381.9157, 10010.63
382.3979, 9980.014
382.8800, 9960.795
383.3621, 9944.029
383.8442, 9922.445
384.3263, 9897.653
384.8084, 9875.115
385.2906, 9860.744
385.7727, 9850.340
386.2548, 9833.869
386.7369, 9810.253
387.2190, 9784.588
387.7011, 9757.682
388.1833, 9730.994
388.6654, 9706.766
389.1475, 9685.786
389.6296, 9666.744
390.1117, 9649.384
390.5938, 9633.384
391.0760, 9616.387
391.5581, 9596.903
392.0402, 9577.133
392.5223, 9559.232
393.0044, 9542.896
393.4865, 9530.618
393.9687, 9527.633
394.4508, 9528.025
394.9329, 9522.372
395.4150, 9509.068
395.8971, 9491.647
396.3792, 9470.128
396.8614, 9445.818
397.3435, 9430.720
397.8256, 9432.994
398.3077, 9437.673
398.7898, 9432.646
399.2719, 9420.972
399.7540, 9415.816
400.2361, 9425.590
400.7183, 9443.108
401.2004, 9446.350
401.6825, 9423.982
402.1646, 9409.443
402.6467, 9414.688
403.1288, 9427.939
403.6110, 9436.064
404.0931, 9436.021
404.5752, 9432.106
405.0573, 9428.486
405.5394, 9424.103
406.0215, 9426.836
406.5037, 9442.311
406.9858, 9458.620
407.4679, 9469.646
407.9500, 9476.654
408.4321, 9484.104
408.9142, 9494.947
409.3964, 9508.238
409.8785, 9519.619
410.3606, 9521.117
410.8427, 9531.442
411.3248, 9559.150
411.8069, 9592.271
412.2891, 9619.609
412.7712, 9638.226
413.2533, 9652.521
413.7354, 9666.958
414.2175, 9679.746
414.6996, 9700.221
415.1818, 9740.263
415.6639, 9776.975
416.1460, 9799.005
416.6281, 9810.391
417.1102, 9820.760
417.5923, 9834.568
418.0745, 9853.583
418.5566, 9885.428
419.0387, 9935.041
419.5208, 9986.464
420.0029, 10039.77
420.4850, 10089.67
420.9672, 10128.11
421.4493, 10152.76
421.9314, 10176.60
422.4135, 10216.12
422.8956, 10270.12
423.3777, 10315.16
423.8599, 10344.74
424.3420, 10368.41
424.8241, 10391.74
425.3062, 10415.44
425.7883, 10442.39
426.2704, 10475.79
426.7526, 10512.34
427.2347, 10545.38
427.7168, 10574.65
428.1989, 10609.08
428.6810, 10656.47
429.1631, 10710.63
429.6453, 10757.99
430.1274, 10798.85
430.6095, 10832.18
431.0916, 10852.13
431.5737, 10864.77
432.0558, 10883.13
432.5380, 10910.73
433.0201, 10941.28
433.5022, 10968.90
433.9843, 10993.54
434.4664, 11010.33
434.9485, 11011.00
435.4307, 11010.50
435.9128, 11018.74
436.3949, 11034.53
436.8770, 11052.27
437.3591, 11069.02
437.8412, 11084.68
438.3234, 11098.68
438.8055, 11116.30
439.2876, 11125.39
439.7697, 11117.12
440.2518, 11104.56
440.7339, 11099.76
441.2160, 11105.21
441.6982, 11116.55
442.1803, 11130.15
442.6624, 11147.65
443.1445, 11155.79
443.6266, 11142.45
444.1087, 11132.27
444.5909, 11137.58
445.0730, 11150.25
445.5551, 11155.24
446.0372, 11144.00
446.5193, 11125.19
447.0014, 11119.44
447.4836, 11132.65
447.9657, 11141.27
448.4478, 11138.96
448.9299, 11132.11
449.4120, 11121.50
449.8941, 11108.61
450.3763, 11100.04
450.8584, 11105.62
451.3405, 11120.61
451.8226, 11122.94
452.3047, 11106.94
452.7868, 11091.33
453.2690, 11093.49
453.7511, 11101.38
454.2332, 11095.42
454.7153, 11063.78
455.1974, 11032.61
455.6795, 11027.65
456.1617, 11042.91
456.6438, 11051.99
457.1259, 11046.75
457.6080, 11034.39
458.0901, 11024.40
458.5722, 11017.02
459.0544, 11004.93
459.5365, 10981.57
460.0186, 10956.90
460.5007, 10941.01
460.9828, 10932.89
461.4649, 10923.98
461.9471, 10908.85
462.4292, 10889.07
462.9113, 10870.70
463.3934, 10857.31
463.8755, 10840.62
464.3576, 10813.29
464.8398, 10785.42
465.3219, 10770.01
465.8040, 10768.09
466.2861, 10767.61
466.7682, 10754.86
467.2503, 10727.97
467.7325, 10705.12
468.2146, 10693.77
468.6967, 10678.33
469.1788, 10650.28
469.6609, 10616.65
470.1430, 10588.88
470.6252, 10572.19
471.1073, 10560.28
471.5894, 10541.40
472.0715, 10513.44
472.5536, 10488.16
473.0357, 10471.66
473.5179, 10454.64
474.0000, 10431.23
474.4821, 10402.47
474.9642, 10373.16
475.4463, 10348.97
475.9284, 10325.36
476.4106, 10286.41
476.8927, 10227.49
477.3748, 10184.29
477.8569, 10185.27
478.3390, 10205.96
478.8211, 10207.26
479.3033, 10184.11
479.7854, 10154.57
480.2675, 10124.32
480.7496, 10094.55
481.2317, 10067.88
481.7138, 10044.84
482.1959, 10022.52
482.6780, 9997.821
483.1602, 9970.931
483.6423, 9946.665
484.1244, 9924.463
484.6065, 9905.315
485.0886, 9893.925
485.5707, 9884.850
486.0529, 9867.613
486.5350, 9838.339
487.0171, 9803.961
487.4992, 9775.733
487.9813, 9753.893
488.4634, 9737.619
488.9456, 9734.268
489.4277, 9728.604
489.9098, 9712.215
490.3919, 9687.600
490.8740, 9661.036
491.3561, 9635.840
491.8383, 9612.772
492.3204, 9594.208
492.8025, 9581.298
493.2846, 9569.889
493.7667, 9559.897
494.2488, 9550.704
494.7310, 9541.091
495.2131, 9531.418
495.6952, 9524.474
496.1773, 9525.257
496.6594, 9530.028
497.1415, 9526.983
497.6237, 9513.790
498.1058, 9502.588
498.5879, 9500.198
499.0700, 9504.143
499.5521, 9509.590
500.0342, 9517.180
500.5164, 9524.103
500.9985, 9528.960
501.4806, 9532.260
501.9627, 9534.726
502.4448, 9536.494
502.9269, 9538.080
503.4091, 9539.748
503.8912, 9541.520
504.3733, 9544.967
504.8554, 9553.606
505.3375, 9559.848
505.8196, 9558.682
506.3018, 9554.089
506.7839, 9550.868
507.2660, 9550.993
507.7481, 9556.224
508.2302, 9570.797
508.7123, 9599.695
509.1945, 9619.893
509.6766, 9624.674
510.1587, 9627.359
510.6408, 9631.010
511.1229, 9636.549
511.6050, 9644.314
512.0872, 9654.097
512.5693, 9667.564
513.0514, 9691.061
513.5335, 9727.265
514.0156, 9752.614
514.4977, 9751.278
514.9799, 9748.422
515.4620, 9766.992
515.9441, 9804.126
516.4262, 9839.423
516.9083, 9863.341
517.3904, 9881.460
517.8726, 9898.170
518.3547, 9914.160
518.8368, 9937.057
519.3189, 9971.830
519.8010, 10014.06
520.2831, 10053.28
520.7653, 10088.39
521.2474, 10124.69
521.7295, 10165.01
522.2116, 10205.33
522.6937, 10240.53
523.1758, 10271.33
523.6580, 10303.51
524.1401, 10341.01
524.6222, 10383.13
525.1043, 10427.79
525.5864, 10483.73
526.0685, 10528.67
526.5507, 10555.30
527.0328, 10574.84
527.5149, 10594.74
527.9970, 10616.78
528.4791, 10640.78
528.9612, 10669.86
529.4434, 10701.32
529.9255, 10716.09
530.4076, 10705.45
530.8897, 10698.45
531.3718, 10714.53
531.8539, 10737.37
532.3361, 10750.31
532.8182, 10750.17
533.3003, 10745.39
533.7824, 10741.16
534.2645, 10736.33
534.7466, 10729.14
535.2288, 10719.57
535.7109, 10704.38
536.1930, 10678.05
536.6751, 10643.73
537.1572, 10621.31
537.6393, 10630.12
538.1215, 10626.05
538.6036, 10590.87
539.0857, 10538.52
539.5678, 10483.90
540.0499, 10431.21
540.5320, 10379.88
541.0142, 10329.92
541.4963, 10281.37
541.9784, 10230.83
542.4604, 10172.24
542.9426, 10119.38
543.4247, 10082.17
543.9068, 10048.75
544.3889, 10005.04
544.8710, 9947.547
545.3531, 9885.559
545.8353, 9830.754
546.3174, 9781.973
546.7995, 9726.654
547.2816, 9659.671
547.7637, 9595.850
548.2458, 9548.961
548.7280, 9510.528
549.2101, 9466.479
549.6922, 9413.010
550.1743, 9357.358
550.6564, 9303.964
551.1385, 9251.533
551.6207, 9194.371
552.1028, 9131.037
552.5849, 9074.346
553.0670, 9039.506
553.5491, 9026.533
554.0313, 8995.998
554.5134, 8930.692
554.9955, 8871.296
555.4776, 8833.438
555.9597, 8805.322
556.4418, 8772.166
556.9240, 8730.234
557.4061, 8687.232
557.8882, 8652.320
558.3703, 8626.037
558.8524, 8596.896
559.3345, 8563.853
559.8167, 8529.439
560.2988, 8493.206
560.7809, 8456.697
561.2630, 8421.064
561.7451, 8386.539
562.2272, 8354.334
562.7094, 8325.426
563.1915, 8299.660
563.6736, 8278.095
564.1557, 8262.053
564.6378, 8243.111
565.1199, 8212.068
565.6021, 8173.220
566.0842, 8145.341
566.5663, 8136.908
567.0484, 8127.392
567.5305, 8106.810
568.0126, 8082.817
568.4948, 8066.698
568.9769, 8059.522
569.4590, 8051.455
569.9411, 8033.169
570.4232, 8005.215
570.9053, 7978.874
571.3875, 7949.446
571.8696, 7928.425
572.3517, 7923.188
572.8338, 7923.118
573.3159, 7920.359
573.7980, 7912.758
574.2802, 7899.382
574.7623, 7873.956
575.2444, 7841.365
575.7265, 7823.996
576.2086, 7825.369
576.6907, 7827.275
577.1729, 7821.446
577.6550, 7810.916
578.1371, 7800.099
578.6192, 7788.258
579.1013, 7779.812
579.5834, 7779.407
580.0656, 7781.506
580.5477, 7780.177
581.0298, 7774.978
581.5119, 7766.918
581.9940, 7755.891
582.4761, 7743.853
582.9583, 7737.487
583.4404, 7740.215
583.9225, 7743.660
584.4046, 7749.379
584.8867, 7754.227
585.3688, 7756.070
585.8510, 7755.100
586.3331, 7752.255
586.8152, 7747.378
587.2973, 7742.348
587.7794, 7741.664
588.2615, 7745.673
588.7437, 7751.837
589.2258, 7761.552
589.7079, 7771.052
590.1900, 7777.133
590.6721, 7780.047
591.1542, 7781.034
591.6364, 7778.038
592.1185, 7775.388
592.6006, 7775.294
593.0827, 7778.556
593.5648, 7788.667
594.0469, 7807.349
594.5291, 7828.648
595.0112, 7844.258
595.4933, 7852.940
595.9754, 7861.816
596.4575, 7873.919
596.9396, 7882.972
597.4218, 7880.476
597.9039, 7875.902
598.3860, 7883.785
598.8681, 7908.825
599.3502, 7940.536
599.8323, 7968.109
600.3145, 7991.580
600.7966, 8008.253
601.2787, 8012.906
601.7608, 8021.324
602.2429, 8046.131
602.7250, 8079.338
603.2072, 8109.126
603.6893, 8134.087
604.1714, 8155.866
604.6535, 8171.258
605.1356, 8185.858
605.6177, 8209.111
606.0999, 8241.353
606.5820, 8275.142
607.0641, 8305.542
607.5462, 8332.503
608.0283, 8355.844
608.5104, 8366.950
608.9926, 8387.049
609.4747, 8423.240
609.9568, 8463.275
610.4389, 8500.572
610.9210, 8533.899
611.4031, 8563.418
611.8853, 8589.123
612.3674, 8611.331
612.8495, 8630.125
613.3316, 8645.287
613.8137, 8660.676
614.2958, 8676.395
614.7780, 8693.889
615.2601, 8716.381
615.7422, 8742.810
616.2243, 8766.163
616.7064, 8782.966
617.1885, 8798.265
617.6707, 8814.434
618.1528, 8831.547
618.6349, 8851.410
619.1170, 8874.240
619.5991, 8893.623
620.0812, 8900.597
620.5634, 8893.768
621.0455, 8896.005
621.5276, 8919.759
622.0097, 8937.346
622.4918, 8938.062
622.9739, 8932.754
623.4561, 8933.756
623.9382, 8942.927
624.4203, 8950.617
624.9023, 8946.932
625.3845, 8936.096
625.8666, 8931.465
626.3487, 8934.334
626.8308, 8929.807
627.3129, 8906.838
627.7950, 8876.589
628.2772, 8861.305
628.7593, 8863.674
629.2414, 8864.451
629.7235, 8860.947
630.2056, 8854.837
630.6877, 8846.364
631.1699, 8836.277
631.6520, 8826.221
632.1341, 8817.000
632.6162, 8807.081
633.0983, 8793.877
633.5804, 8777.022
634.0626, 8757.977
634.5447, 8730.205
635.0268, 8709.386
635.5089, 8711.549
635.9910, 8721.306
636.4731, 8713.075
636.9553, 8677.474
637.4374, 8639.232
637.9195, 8616.867
638.4016, 8603.893
638.8837, 8587.927
639.3658, 8567.657
639.8480, 8547.170
640.3301, 8529.006
640.8122, 8512.678
641.2943, 8496.589
641.7764, 8487.402
642.2585, 8467.990
642.7407, 8424.977
643.2228, 8383.659
643.7049, 8366.409
644.1870, 8364.146
644.6691, 8349.670
645.1512, 8307.022
645.6334, 8254.466
646.1155, 8225.018
646.5976, 8218.432
647.0797, 8199.461
647.5618, 8158.540
648.0439, 8114.151
648.5261, 8082.462
649.0082, 8058.582
649.4903, 8028.010
649.9724, 7986.973
650.4545, 7943.342
650.9366, 7899.661
651.4188, 7855.446
651.9009, 7809.661
652.3830, 7762.663
652.8651, 7717.060
653.3472, 7675.113
653.8293, 7635.358
654.3115, 7590.849
654.7936, 7536.466
655.2757, 7489.977
655.7578, 7462.147
656.2399, 7435.698
656.7220, 7400.791
657.2042, 7359.249
657.6863, 7318.419
658.1684, 7281.639
658.6505, 7245.395
659.1326, 7206.597
659.6147, 7165.771
660.0969, 7122.227
660.5790, 7075.749
661.0611, 7033.365
661.5432, 7002.509
662.0253, 6981.552
662.5074, 6953.410
662.9896, 6915.682
663.4717, 6873.775
663.9538, 6819.043
664.4359, 6767.098
664.9180, 6732.991
665.4001, 6714.053
665.8823, 6695.707
666.3644, 6669.296
666.8465, 6637.506
667.3286, 6604.130
667.8107, 6569.209
668.2928, 6533.178
668.7750, 6494.250
669.2571, 6459.217
669.7392, 6436.847
670.2213, 6425.753
670.7034, 6410.954
671.1855, 6392.465
671.6677, 6369.882
672.1498, 6341.767
672.6319, 6310.399
673.1140, 6274.749
673.5961, 6237.180
674.0782, 6207.037
674.5604, 6193.084
675.0425, 6188.770
675.5246, 6172.081
676.0067, 6140.667
676.4888, 6106.768
676.9709, 6066.142
677.4531, 6031.209
677.9352, 6015.316
678.4173, 6013.414
678.8994, 6007.706
679.3815, 5995.798
679.8636, 5977.112
680.3458, 5943.511
680.8279, 5905.935
681.3100, 5883.698
681.7921, 5878.795
682.2742, 5876.718
682.7563, 5866.136
683.2385, 5847.876
683.7206, 5825.312
684.2027, 5795.214
684.6848, 5767.893
685.1669, 5742.560
685.6490, 5722.458
686.1312, 5713.876
686.6133, 5712.419
687.0954, 5704.999
687.5775, 5684.202
688.0596, 5660.447
688.5417, 5642.230
689.0239, 5628.301
689.5060, 5616.588
689.9881, 5606.571
690.4702, 5596.667
690.9523, 5586.003
691.4344, 5574.081
691.9166, 5557.849
692.3987, 5531.819
692.8808, 5510.296
693.3629, 5496.982
693.8450, 5485.382
694.3271, 5469.978
694.8093, 5453.000
695.2914, 5441.972
695.7735, 5442.458
696.2556, 5442.750
696.7377, 5426.123
697.2198, 5398.114
697.7020, 5378.643
698.1841, 5371.114
698.6662, 5367.743
699.1483, 5364.683
699.6304, 5360.633
700.1125, 5350.548
700.5947, 5326.545
701.0768, 5308.762
701.5589, 5303.048
702.0410, 5298.499
702.5231, 5287.300
703.0052, 5272.244
703.4874, 5260.778
703.9695, 5256.513
704.4516, 5253.641
704.9337, 5244.944
705.4158, 5231.458
705.8979, 5217.433
706.3801, 5202.933
706.8622, 5190.493
707.3442, 5182.176
707.8264, 5176.359
708.3085, 5169.054
708.7906, 5160.272
709.2727, 5149.917
709.7548, 5134.591
710.2369, 5120.833
710.7191, 5114.766
711.2012, 5112.425
711.6833, 5106.569
712.1654, 5094.540
712.6475, 5079.612
713.1296, 5063.823
713.6118, 5048.028
714.0939, 5037.276
714.5760, 5032.502
715.0581, 5028.250
715.5402, 5021.962
716.0223, 5015.097
716.5045, 5010.686
716.9866, 5009.640
717.4687, 5005.622
717.9508, 4995.859
718.4329, 4985.420
718.9150, 4978.813
719.3972, 4972.287
719.8793, 4957.390
720.3614, 4933.478
720.8435, 4913.179
721.3256, 4912.322
721.8077, 4924.291
722.2899, 4921.347
722.7720, 4901.430
723.2541, 4883.763
723.7362, 4876.193
724.2183, 4870.633
724.7004, 4855.968
725.1826, 4832.394
725.6647, 4816.019
726.1468, 4815.894
726.6289, 4813.230
727.1110, 4796.557
727.5931, 4776.573
728.0753, 4767.413
728.5574, 4769.090
729.0395, 4769.823
729.5216, 4760.679
730.0037, 4745.588
730.4858, 4733.306
730.9680, 4723.952
731.4501, 4714.676
731.9322, 4705.150
732.4143, 4695.083
732.8964, 4684.488
733.3785, 4673.114
733.8607, 4659.897
734.3428, 4641.021
734.8249, 4626.283
735.3070, 4619.797
735.7891, 4616.418
736.2712, 4613.352
736.7534, 4609.484
737.2355, 4603.585
737.7176, 4594.964
738.1997, 4584.231
738.6818, 4572.235
739.1639, 4558.962
739.6461, 4543.251
740.1282, 4524.210
740.6103, 4506.714
741.0924, 4493.733
741.5745, 4483.945
742.0566, 4474.116
742.5388, 4462.850
743.0209, 4456.186
743.5030, 4462.558
743.9851, 4465.408
744.4672, 4454.278
744.9493, 4434.533
745.4315, 4412.903
745.9136, 4392.173
746.3957, 4375.974
746.8778, 4370.041
747.3599, 4371.085
747.8420, 4369.114
748.3242, 4364.050
748.8063, 4359.032
749.2884, 4355.759
749.7705, 4351.287
750.2526, 4341.722
750.7347, 4326.776
751.2169, 4312.098
751.6990, 4298.296
752.1811, 4283.988
752.6632, 4265.579
753.1453, 4248.857
753.6274, 4241.272
754.1096, 4240.970
754.5917, 4238.235
755.0738, 4226.749
755.5559, 4211.974
756.0380, 4200.761
756.5201, 4192.810
757.0023, 4188.044
757.4844, 4186.732
757.9665, 4183.871
758.4486, 4175.574
758.9307, 4163.375
759.4128, 4152.311
759.8950, 4141.738
760.3771, 4133.480
760.8592, 4127.993
761.3413, 4124.165
761.8234, 4123.078
762.3055, 4122.718
762.7877, 4119.522
763.2698, 4112.390
763.7519, 4105.616
764.2340, 4103.206
764.7161, 4102.739
765.1982, 4100.087
765.6804, 4095.575
766.1625, 4092.650
766.6446, 4092.844
767.1267, 4092.259
767.6088, 4085.239
768.0909, 4071.343
768.5731, 4061.065
769.0552, 4055.776
769.5373, 4051.850
770.0194, 4049.889
770.5015, 4047.803
770.9836, 4043.762
771.4658, 4038.013
771.9479, 4032.266
772.4300, 4026.578
772.9121, 4021.786
773.3942, 4019.607
773.8763, 4018.256
774.3585, 4014.025
774.8406, 4007.177
775.3227, 4002.322
775.8048, 4002.745
776.2869, 4005.862
776.7690, 4005.448
777.2512, 4001.035
777.7333, 3996.140
778.2154, 3989.903
778.6975, 3985.255
779.1796, 3985.241
779.6617, 3987.223
780.1439, 3986.142
780.6260, 3980.586
781.1081, 3978.199
781.5902, 3986.153
782.0723, 3992.456
782.5544, 3986.973
783.0366, 3975.325
783.5187, 3966.889
784.0008, 3964.244
784.4829, 3964.671
784.9650, 3966.561
785.4471, 3969.057
785.9293, 3968.843
786.4114, 3965.846
786.8935, 3965.716
787.3756, 3971.161
787.8577, 3975.561
788.3398, 3970.721
788.8220, 3958.728
789.3040, 3957.436
789.7861, 3977.771
790.2682, 3992.618
790.7504, 4000.375
791.2325, 4001.743
791.7146, 3993.370
792.1967, 3979.794
792.6788, 3969.532
793.1609, 3965.707
793.6431, 3965.211
794.1252, 3966.616
794.6073, 3968.944
795.0894, 3970.353
795.5715, 3970.834
796.0536, 3971.108
796.5358, 3971.447
797.0179, 3971.968
797.5000, 3973.292
797.9821, 3975.608
798.4642, 3973.097
798.9464, 3960.914
799.4285, 3952.652
799.9106, 3953.674
800.3927, 3958.314
800.8748, 3965.415
801.3569, 3973.247
801.8391, 3974.170
802.3212, 3958.536
802.8033, 3946.870
803.2854, 3954.534
803.7675, 3969.128
804.2496, 3976.193
804.7318, 3975.650
805.2139, 3974.535
805.6960, 3976.648
806.1781, 3975.894
806.6602, 3979.885
807.1423, 3977.304
807.6245, 3976.939
808.1066, 3979.333
808.5887, 3982.586
809.0708, 3987.493
809.5529, 3990.492
810.0350, 3984.469
810.5172, 3966.760
810.9993, 3958.093
811.4814, 3965.823
811.9635, 3973.106
812.4456, 3975.389
812.9277, 3975.195
813.4099, 3973.095
813.8920, 3970.653
814.3741, 3972.701
814.8562, 3983.839
815.3383, 3995.685
815.8204, 3997.629
816.3026, 3994.075
816.7847, 3995.217
817.2668, 4001.820
817.7489, 4008.880
818.2310, 4013.763
818.7131, 4016.075
819.1953, 4014.014
819.6774, 4005.973
820.1595, 4004.092
820.6416, 4012.123
821.1237, 4019.145
821.6058, 4019.969
822.0880, 4018.525
822.5701, 4020.231
823.0522, 4024.872
823.5343, 4024.837
824.0164, 4013.778
824.4985, 4003.575
824.9807, 3998.029
825.4628, 3996.919
825.9449, 4002.843
826.4270, 4013.250
826.9091, 4019.402
827.3912, 4015.802
827.8734, 4008.848
828.3555, 4007.188
828.8376, 4009.968
829.3197, 4013.819
829.8018, 4018.423
830.2839, 4024.555
830.7661, 4033.623
831.2482, 4041.182
831.7303, 4039.003
832.2124, 4025.014
832.6945, 4016.484
833.1766, 4016.282
833.6588, 4017.600
834.1409, 4020.125
834.6230, 4022.497
835.1051, 4024.157
835.5872, 4024.771
836.0693, 4022.960
836.5515, 4014.511
837.0336, 4009.620
837.5157, 4017.622
837.9978, 4029.658
838.4799, 4034.485
838.9620, 4033.428
839.4442, 4035.312
839.9263, 4044.328
840.4084, 4054.413
840.8905, 4056.386
841.3726, 4051.800
841.8547, 4049.238
842.3369, 4048.865
842.8190, 4050.325
843.3011, 4053.657
843.7832, 4058.232
844.2653, 4062.923
844.7474, 4067.806
845.2296, 4076.657
845.7117, 4099.224
846.1938, 4111.118
846.6759, 4098.962
847.1580, 4086.491
847.6401, 4090.769
848.1223, 4105.817
848.6044, 4115.234
849.0865, 4112.384
849.5686, 4114.961
850.0507, 4141.258
850.5328, 4170.698
851.0150, 4181.583
851.4971, 4178.493
851.9792, 4172.932
852.4613, 4169.318
852.9434, 4170.069
853.4255, 4178.346
853.9077, 4192.171
854.3898, 4206.356
854.8719, 4220.924
855.3540, 4230.623
855.8361, 4232.692
856.3182, 4237.528
856.8004, 4254.813
857.2825, 4279.231
857.7646, 4293.327
858.2467, 4289.185
858.7288, 4291.771
859.2109, 4307.301
859.6931, 4322.072
860.1752, 4326.034
860.6573, 4329.655
861.1394, 4349.419
861.6215, 4385.877
862.1036, 4414.880
862.5858, 4422.859
863.0679, 4424.777
863.5500, 4426.762
864.0321, 4431.237
864.5142, 4443.075
864.9963, 4461.207
865.4785, 4478.760
865.9606, 4491.706
866.4427, 4502.454
866.9248, 4513.894
867.4069, 4526.155
867.8890, 4539.741
868.3712, 4554.591
868.8533, 4573.235
869.3354, 4597.664
869.8175, 4623.462
870.2996, 4645.073
870.7817, 4662.544
871.2639, 4674.040
871.7459, 4672.976
872.2280, 4677.535
872.7101, 4696.142
873.1923, 4716.105
873.6744, 4729.475
874.1565, 4738.374
874.6386, 4749.208
875.1207, 4764.841
875.6028, 4776.484
876.0850, 4775.264
876.5671, 4774.489
877.0492, 4787.411
877.5313, 4806.464
878.0134, 4816.864
878.4955, 4816.146
878.9777, 4815.779
879.4598, 4826.797
879.9419, 4840.787
880.4240, 4841.779
880.9061, 4833.690
881.3882, 4830.821
881.8704, 4835.366
882.3525, 4843.302
882.8346, 4852.630
883.3167, 4861.406
883.7988, 4864.716
884.2809, 4861.356
884.7631, 4861.948
885.2452, 4868.227
885.7273, 4874.364
886.2094, 4880.131
886.6915, 4883.001
887.1736, 4877.048
887.6558, 4863.355
888.1379, 4858.743
888.6200, 4873.169
889.1021, 4883.262
889.5842, 4879.692
890.0663, 4875.580
890.5485, 4881.848
891.0306, 4893.940
891.5127, 4901.716
891.9948, 4902.358
892.4769, 4901.042
892.9590, 4899.345
893.4412, 4898.812
893.9233, 4900.649
894.4054, 4905.063
894.8875, 4913.987
895.3696, 4926.714
895.8517, 4936.968
896.3339, 4939.461
896.8160, 4938.589
897.2981, 4943.212
897.7802, 4952.849
898.2623, 4963.792
898.7444, 4976.014
899.2266, 4984.821
899.7087, 4987.203
900.1908, 4987.343
900.6729, 4991.616
901.1550, 5000.248
901.6371, 5007.508
902.1193, 5013.060
902.6014, 5017.770
903.0835, 5016.605
903.5656, 5019.840
904.0477, 5038.503
904.5298, 5066.372
905.0120, 5086.853
905.4941, 5095.489
905.9762, 5104.447
906.4583, 5120.965
906.9404, 5134.083
907.4225, 5132.324
907.9047, 5125.593
908.3868, 5129.205
908.8689, 5144.153
909.3510, 5157.437
909.8331, 5159.751
910.3152, 5159.778
910.7974, 5165.395
911.2795, 5175.464
911.7616, 5189.478
912.2437, 5206.080
912.7258, 5220.651
913.2079, 5230.969
913.6901, 5239.896
914.1722, 5251.760
914.6543, 5265.663
915.1364, 5276.827
915.6185, 5285.187
916.1006, 5292.478
916.5828, 5299.235
917.0649, 5304.459
917.5470, 5306.375
918.0291, 5307.012
918.5112, 5314.114
918.9933, 5330.950
919.4755, 5346.421
919.9576, 5363.259
920.4397, 5374.818
920.9218, 5371.640
921.4039, 5366.367
921.8860, 5374.740
922.3682, 5396.239
922.8503, 5413.157
923.3324, 5418.810
923.8145, 5425.377
924.2966, 5435.976
924.7787, 5448.962
925.2609, 5464.489
925.7430, 5480.897
926.2251, 5495.771
926.7072, 5508.441
927.1893, 5517.527
927.6714, 5516.292
928.1536, 5516.057
928.6357, 5530.839
929.1178, 5554.433
929.5999, 5576.015
930.0820, 5593.083
930.5641, 5605.403
931.0463, 5612.152
931.5284, 5618.079
932.0105, 5631.871
932.4926, 5651.335
932.9747, 5666.932
933.4568, 5678.384
933.9390, 5690.688
934.4211, 5705.776
934.9032, 5720.403
935.3853, 5730.388
935.8674, 5737.192
936.3495, 5750.268
936.8317, 5772.058
937.3138, 5788.673
937.7959, 5794.629
938.2780, 5804.520
938.7601, 5830.427
939.2422, 5861.981
939.7244, 5879.710
940.2065, 5880.236
940.6886, 5886.392
941.1707, 5900.478
941.6528, 5916.715
942.1349, 5935.376
942.6171, 5954.550
943.0992, 5973.906
943.5813, 5992.560
944.0634, 6007.823
944.5455, 6017.925
945.0276, 6029.664
945.5098, 6043.956
945.9919, 6062.407
946.4740, 6090.791
946.9561, 6121.266
947.4382, 6143.665
947.9203, 6156.875
948.4025, 6165.252
948.8846, 6169.108
949.3667, 6174.169
949.8488, 6185.212
950.3309, 6201.402
950.8130, 6223.489
951.2952, 6249.549
951.7773, 6274.048
952.2594, 6295.197
952.7415, 6316.352
953.2236, 6342.789
953.7057, 6369.096
954.1878, 6378.575
954.6699, 6374.522
955.1520, 6378.409
955.6342, 6393.334
956.1163, 6415.198
956.5984, 6442.494
957.0805, 6472.390
957.5626, 6500.651
958.0447, 6527.464
958.5269, 6549.970
959.0090, 6567.026
959.4911, 6585.367
959.9732, 6607.006
960.4553, 6628.931
960.9374, 6648.743
961.4196, 6666.966
961.9017, 6684.822
962.3838, 6701.029
962.8659, 6720.603
963.3480, 6746.745
963.8301, 6771.666
964.3123, 6787.794
964.7944, 6806.153
965.2765, 6840.781
965.7586, 6886.993
966.2407, 6922.771
966.7228, 6942.775
967.2050, 6957.832
967.6871, 6965.664
968.1692, 6974.157
968.6513, 6984.650
969.1334, 7000.388
969.6155, 7029.646
970.0977, 7070.353
970.5798, 7102.336
971.0619, 7110.530
971.5440, 7117.884
972.0261, 7138.930
972.5082, 7166.448
972.9904, 7194.626
973.4725, 7222.195
973.9546, 7248.161
974.4367, 7272.273
974.9188, 7295.798
975.4009, 7318.693
975.8831, 7342.392
976.3652, 7371.768
976.8473, 7402.350
977.3294, 7420.341
977.8115, 7428.444
978.2936, 7447.630
978.7758, 7487.927
979.2579, 7535.485
979.7400, 7575.453
980.2221, 7608.192
980.7042, 7630.825
981.1863, 7645.003
981.6685, 7664.220
982.1506, 7691.095
982.6327, 7722.786
983.1148, 7758.011
983.5969, 7793.944
984.0790, 7825.627
984.5612, 7853.056
985.0433, 7874.719
985.5254, 7889.466
986.0075, 7904.170
986.4896, 7918.760
986.9717, 7940.237
987.4539, 7976.506
987.9360, 8021.900
988.4181, 8058.555
988.9002, 8083.919
989.3823, 8108.830
989.8644, 8133.539
990.3466, 8157.068
990.8287, 8176.935
991.3108, 8197.962
991.7929, 8222.404
992.2750, 8251.558
992.7571, 8293.781
993.2393, 8369.829
993.7214, 8421.486
994.2035, 8427.818
994.6856, 8434.188
995.1677, 8457.923
995.6498, 8490.373
996.1320, 8523.200
996.6141, 8555.829
997.0962, 8588.042
997.5783, 8618.877
998.0604, 8650.543
998.5425, 8680.945
999.0247, 8714.847
999.5068, 8763.174
999.9889, 8812.307
1000.471, 8837.879
1000.953, 8840.104
1001.435, 8850.772
1001.917, 8887.200
1002.399, 8928.455
1002.882, 8964.927
1003.364, 8999.384
1003.846, 9035.911
1004.328, 9072.282
1004.810, 9102.221
1005.292, 9125.382
1005.774, 9153.189
1006.256, 9196.447
1006.739, 9242.938
1007.221, 9283.244
1007.703, 9318.254
1008.185, 9344.814
1008.667, 9367.544
1009.149, 9401.756
1009.631, 9451.257
1010.113, 9495.627
1010.595, 9511.998
1011.078, 9517.871
1011.560, 9535.122
1012.042, 9563.772
1012.524, 9608.718
1013.006, 9666.299
1013.488, 9720.087
1013.970, 9763.013
1014.452, 9798.818
1014.935, 9828.564
1015.417, 9856.887
1015.899, 9897.505
1016.381, 9947.727
1016.863, 9996.303
1017.345, 10040.78
1017.827, 10075.00
1018.309, 10095.19
1018.791, 10114.45
1019.274, 10152.00
1019.756, 10203.90
1020.238, 10251.90
1020.720, 10296.01
1021.202, 10340.18
1021.684, 10385.24
1022.166, 10428.78
1022.648, 10469.24
1023.130, 10508.49
1023.613, 10549.96
1024.095, 10593.46
1024.577, 10634.27
1025.059, 10671.27
1025.541, 10714.42
1026.023, 10767.69
1026.505, 10816.44
1026.987, 10847.94
1027.469, 10877.68
1027.952, 10937.10
1028.434, 11028.59
1028.916, 11098.44
1029.398, 11141.43
1029.880, 11181.78
1030.362, 11224.06
1030.844, 11264.60
1031.326, 11299.64
1031.809, 11333.06
1032.291, 11372.79
1032.773, 11419.28
1033.255, 11468.82
1033.737, 11523.65
1034.219, 11576.76
1034.701, 11622.32
1035.183, 11673.37
1035.666, 11742.95
1036.148, 11820.69
1036.630, 11884.64
1037.112, 11933.08
1037.594, 11976.53
1038.076, 12008.78
1038.558, 12045.32
1039.040, 12092.82
1039.522, 12140.34
1040.005, 12174.31
1040.487, 12205.26
1040.969, 12255.69
1041.451, 12328.62
1041.933, 12405.38
1042.415, 12503.30
1042.897, 12580.62
1043.379, 12614.37
1043.861, 12640.76
1044.344, 12678.85
1044.826, 12727.51
1045.308, 12785.68
1045.790, 12855.61
1046.272, 12917.68
1046.754, 12960.85
1047.236, 13008.57
1047.718, 13069.02
1048.201, 13133.36
1048.683, 13198.96
1049.165, 13262.86
1049.647, 13320.55
1050.129, 13370.58
1050.611, 13420.85
1051.093, 13466.99
1051.575, 13520.89
1052.057, 13591.05
1052.540, 13665.17
1053.022, 13736.83
1053.504, 13805.02
1053.986, 13869.14
1054.468, 13929.31
1054.950, 13985.63
1055.432, 14025.36
1055.914, 14078.58
1056.396, 14170.58
1056.879, 14265.34
1057.361, 14336.49
1057.843, 14390.50
1058.325, 14439.11
1058.807, 14484.70
1059.289, 14537.44
1059.771, 14610.39
1060.253, 14678.07
1060.736, 14725.76
1061.218, 14769.90
1061.700, 14823.01
1062.182, 14881.78
1062.664, 14941.28
1063.146, 14999.87
1063.628, 15050.34
1064.110, 15083.64
1064.593, 15117.89
1065.075, 15159.73
1065.557, 15206.22
1066.039, 15254.17
1066.521, 15305.75
1067.003, 15366.74
1067.485, 15436.15
1067.967, 15501.92
1068.449, 15561.15
1068.932, 15613.14
1069.414, 15649.36
1069.896, 15686.53
1070.378, 15742.30
1070.860, 15804.32
1071.342, 15855.55
1071.824, 15893.96
1072.306, 15926.80
1072.788, 15953.68
1073.271, 15982.11
1073.753, 16016.13
1074.235, 16052.31
1074.717, 16091.71
1075.199, 16129.50
1075.681, 16157.81
1076.163, 16178.29
1076.645, 16202.46
1077.127, 16236.72
1077.610, 16267.46
1078.092, 16280.31
1078.574, 16296.61
1079.056, 16334.73
1079.538, 16382.05
1080.020, 16425.32
1080.502, 16462.89
1080.984, 16496.42
1081.467, 16525.64
1081.949, 16554.34
1082.431, 16584.89
1082.913, 16614.83
1083.395, 16643.53
1083.877, 16669.97
1084.359, 16688.84
1084.841, 16705.19
1085.323, 16734.11
1085.806, 16781.07
1086.288, 16823.61
1086.770, 16849.07
1087.252, 16871.50
1087.734, 16897.60
1088.216, 16924.79
1088.698, 16954.86
1089.180, 16982.53
1089.662, 16991.90
1090.145, 16979.74
1090.627, 16985.07
1091.109, 17033.33
1091.591, 17087.77
1092.073, 17141.55
1092.555, 17186.91
1093.037, 17218.36
1093.519, 17236.40
1094.002, 17234.81
1094.484, 17215.98
1094.966, 17216.33
1095.448, 17258.18
1095.930, 17304.86
1096.412, 17349.35
1096.894, 17389.53
1097.376, 17415.16
1097.859, 17441.52
1098.341, 17494.02
1098.823, 17569.56
1099.305, 17634.59
1099.787, 17679.54
1100.269, 17717.44
1100.751, 17743.45
1101.233, 17772.58
1101.715, 17813.50
1102.198, 17860.47
1102.680, 17906.89
1103.162, 17953.54
1103.644, 18004.56
1104.126, 18059.69
1104.608, 18122.65
1105.090, 18196.40
1105.572, 18275.07
1106.054, 18357.04
1106.537, 18443.00
1107.019, 18543.57
1107.501, 18646.79
1107.983, 18718.51
1108.465, 18746.75
1108.947, 18799.81
1109.429, 18899.27
1109.911, 19001.66
1110.394, 19107.17
1110.876, 19203.26
1111.358, 19272.79
1111.840, 19332.93
1112.322, 19411.96
1112.804, 19510.71
1113.286, 19611.72
1113.768, 19711.88
1114.250, 19819.03
1114.733, 19939.46
1115.215, 20058.65
1115.697, 20166.75
1116.179, 20274.30
1116.661, 20395.89
1117.143, 20509.87
1117.625, 20627.25
1118.107, 20755.47
1118.589, 20872.51
1119.072, 21007.88
1119.554, 21148.65
1120.036, 21294.28
1120.518, 21439.48
1121.000, 21579.87
1121.482, 21717.44
1121.964, 21856.74
1122.446, 21997.21
1122.929, 22141.67
1123.411, 22289.24
1123.893, 22447.33
1124.375, 22623.29
1124.857, 22790.28
1125.339, 22925.63
1125.821, 23053.75
1126.303, 23217.45
1126.786, 23414.39
1127.268, 23605.33
1127.750, 23790.32
1128.232, 23956.26
1128.714, 24097.00
1129.196, 24245.28
1129.678, 24416.03
1130.160, 24595.43
1130.642, 24768.48
1131.125, 24936.12
1131.607, 25096.80
1132.089, 25251.70
1132.571, 25422.23
1133.053, 25610.28
1133.535, 25789.79
1134.017, 25953.04
1134.499, 26119.96
1134.981, 26306.82
1135.464, 26480.40
1135.946, 26681.80
1136.428, 26852.17
1136.910, 27037.39
1137.392, 27235.66
1137.874, 27439.42
1138.356, 27645.99
1138.838, 27847.58
1139.321, 28041.16
1139.803, 28224.79
1140.285, 28394.34
1140.767, 28557.79
1141.249, 28728.32
1141.731, 28905.96
1142.213, 29095.52
1142.695, 29291.59
1143.177, 29480.83
1143.660, 29657.74
1144.142, 29813.94
1144.624, 29932.48
1145.106, 30057.17
1145.588, 30247.93
1146.070, 30460.51
1146.552, 30645.79
1147.034, 30807.03
1147.516, 30950.69
1147.999, 31083.85
1148.481, 31224.39
1148.963, 31382.41
1149.445, 31534.85
1149.927, 31655.34
1150.409, 31778.35
1150.891, 31945.21
1151.373, 32114.11
1151.856, 32229.49
1152.338, 32310.93
1152.820, 32417.13
1153.302, 32560.11
1153.784, 32685.08
1154.266, 32757.20
1154.748, 32832.63
1155.230, 32937.80
1155.713, 33043.29
1156.195, 33136.62
1156.677, 33216.30
1157.159, 33272.20
1157.641, 33311.30
1158.123, 33379.55
1158.605, 33507.93
1159.087, 33609.99
1159.569, 33661.55
1160.052, 33713.09
1160.534, 33780.96
1161.016, 33850.70
1161.498, 33912.96
1161.980, 33968.72
1162.462, 34020.12
1162.944, 34067.47
1163.426, 34105.12
1163.908, 34120.87
1164.391, 34163.59
1164.873, 34245.65
1165.355, 34338.16
1165.837, 34432.70
1166.319, 34516.73
1166.801, 34569.33
1167.283, 34677.18
1167.765, 34699.23
1168.247, 34853.59
1168.730, 34962.02
1169.212, 35018.98
1169.694, 35050.31
1170.176, 35061.83
1170.658, 35093.39
1171.140, 35173.57
1171.622, 35282.05
1172.104, 35396.48
1172.587, 35508.73
1173.069, 35585.79
1173.551, 35637.05
1174.033, 35697.29
1174.515, 35770.18
1174.997, 35843.39
1175.479, 35913.95
1175.961, 36001.40
1176.443, 36127.21
1176.926, 36266.66
1177.408, 36387.08
1177.890, 36502.95
1178.372, 36644.61
1178.854, 36794.71
1179.336, 36911.91
1179.818, 36998.98
1180.300, 37094.39
1180.782, 37215.02
1181.265, 37338.13
1181.747, 37439.44
1182.229, 37550.96
1182.711, 37700.52
1183.193, 37863.70
1183.675, 38017.77
1184.157, 38166.82
1184.639, 38318.39
1185.122, 38475.02
1185.604, 38654.87
1186.086, 38881.04
1186.568, 39100.90
1187.050, 39293.48
1187.532, 39493.56
1188.014, 39712.09
1188.496, 39947.34
1188.979, 40206.07
1189.461, 40476.43
1189.943, 40714.79
1190.425, 40910.82
1190.907, 41133.79
1191.389, 41390.42
1191.871, 41652.57
1192.353, 41914.07
1192.835, 42183.04
1193.318, 42461.54
1193.800, 42754.77
1194.282, 43069.28
1194.764, 43400.73
1195.246, 43730.02
1195.728, 44057.17
1196.210, 44381.93
1196.692, 44702.83
1197.174, 45026.21
1197.657, 45352.21
1198.139, 45675.43
1198.621, 45990.50
1199.103, 46324.86
1199.585, 46731.92
1200.067, 47167.22
1200.549, 47542.89
1201.031, 47881.83
1201.514, 48231.83
1201.996, 48597.17
1202.478, 48969.42
1202.960, 49347.95
1203.442, 49737.00
1203.924, 50142.33
1204.406, 50551.59
1204.888, 50963.90
1205.370, 51365.07
1205.853, 51722.98
1206.335, 52075.13
1206.817, 52463.82
1207.299, 52889.43
1207.781, 53347.63
1208.263, 53839.02
1208.745, 54309.44
1209.227, 54717.87
1209.709, 55141.96
1210.192, 55604.08
1210.674, 56082.99
1211.156, 56586.27
1211.638, 57085.21
1212.120, 57547.12
1212.602, 57981.38
1213.084, 58414.60
1213.566, 58838.00
1214.049, 59307.46
1214.531, 59837.44
1215.013, 60357.51
1215.495, 60857.04
1215.977, 61334.38
1216.459, 61786.46
1216.941, 62214.46
1217.423, 62610.52
1217.906, 62997.78
1218.388, 63458.18
1218.870, 63897.83
1219.352, 64356.71
1219.834, 64856.86
1220.316, 65320.68
1220.798, 65838.46
1221.280, 66352.17
1221.762, 66833.14
1222.245, 67282.59
1222.727, 67677.55
1223.209, 68067.01
1223.691, 68521.12
1224.173, 68993.70
1224.655, 69425.04
1225.137, 69819.95
1225.619, 70194.23
1226.101, 70552.36
1226.584, 70908.95
1227.066, 71270.56
1227.548, 71619.41
1228.030, 71941.30
1228.512, 72258.48
1228.994, 72579.67
1229.476, 72901.45
1229.958, 73221.30
1230.441, 73540.60
1230.923, 73866.70
1231.405, 74199.63
1231.887, 74499.30
1232.369, 74755.91
1232.851, 75006.17
1233.333, 75250.02
1233.815, 75495.25
1234.297, 75746.36
1234.780, 75991.11
1235.262, 76224.01
1235.744, 76434.27
1236.226, 76595.88
1236.708, 76785.19
1237.190, 76889.90
1237.672, 77079.33
1238.154, 77218.71
1238.636, 77303.70
1239.119, 77352.34
1239.601, 77374.13
1240.083, 77385.26
1240.565, 77391.64
1241.047, 77415.63
1241.529, 77516.67
1242.011, 77606.88
1242.493, 77594.17
1242.975, 77525.65
1243.458, 77429.01
1243.940, 77339.65
1244.422, 77332.27
1244.904, 77409.41
1245.386, 77441.02
1245.868, 77386.61
1246.350, 77298.27
1246.832, 77141.77
1247.315, 77010.84
1247.797, 76963.59
1248.279, 76917.09
1248.761, 76796.70
1249.243, 76757.45
1249.725, 76596.25
1250.207, 76611.79
1250.689, 76569.11
1251.172, 76466.46
1251.654, 76298.01
1252.136, 76058.83
1252.618, 75845.01
1253.100, 75685.28
1253.582, 75583.05
1254.064, 75546.80
1254.546, 75512.91
1255.028, 75384.38
1255.510, 75206.23
1255.993, 75061.74
1256.475, 74932.66
1256.957, 74778.33
1257.439, 74614.14
1257.921, 74491.80
1258.403, 74413.59
1258.885, 74319.67
1259.367, 74180.27
1259.850, 74042.48
1260.332, 73940.43
1260.814, 73829.48
1261.296, 73655.00
1261.778, 73496.67
1262.260, 73428.55
1262.742, 73409.14
1263.224, 73374.73
1263.707, 73325.07
1264.189, 73266.46
1264.671, 73193.86
1265.153, 73128.32
1265.635, 73071.02
1266.117, 73012.30
1266.599, 72946.09
1267.081, 72904.00
1267.563, 72903.53
1268.046, 72937.46
1268.528, 73010.68
1269.010, 73086.50
1269.492, 73053.73
1269.974, 72967.70
1270.456, 72963.08
1270.938, 73031.10
1271.420, 73141.61
1271.902, 73273.45
1272.385, 73383.86
1272.867, 73456.42
1273.349, 73522.05
1273.831, 73580.13
1274.313, 73663.19
1274.795, 73781.08
1275.277, 73938.14
1275.759, 74173.52
1276.242, 74422.52
1276.724, 74601.52
1277.206, 74735.73
1277.688, 74915.92
1278.170, 75151.90
1278.652, 75331.86
1279.134, 75408.51
1279.616, 75616.28
1280.099, 76007.13
1280.581, 76374.37
1281.063, 76639.84
1281.545, 76890.75
1282.027, 77197.27
1282.509, 77538.77
1282.991, 77888.65
1283.473, 78239.96
1283.955, 78593.23
##END=



