##NAMES=Fluorcalciomicrolite
##RRUFFID=R130022
##IDEAL CHEMISTRY=(Ca,Na)_2_Ta^5+^_2_O_6_F
##LOCALITY=Emdal mines, Muiane, Mozambique
##OWNER=RRUFF
##SOURCE=Royal Ontario Museum
##DESCRIPTION=Yellowish brown transparent fragment
##STATUS=The identification of this mineral is confirmed by single-crystal X-ray diffraction and chemical analysis.
##URL=rruff.info/R130022
##MEASURED CHEMISTRY=(Ca_1.14_Na_0.78_U_0.03_)_Σ=1.95_(Ta_1.63_Nb_0.18_Ti_0.15_Sb_0.02_Sn_0.02_)_Σ=2_O_6_[F_0.73_(OH)_0.24_]_Σ=0.97_
102.7704, 119.4567
103.2525, 119.8136
103.7346, 120.3913
104.2167, 120.9921
104.6988, 121.4862
105.1810, 121.8833
105.6631, 122.1795
106.1452, 122.3402
106.6273, 122.3905
107.1094, 122.4477
107.5915, 122.5573
108.0737, 122.6016
108.5558, 122.4656
109.0379, 122.2167
109.5200, 122.0192
110.0021, 122.0487
110.4842, 122.3703
110.9664, 122.5749
111.4485, 122.5442
111.9306, 122.5038
112.4127, 122.5755
112.8948, 122.7665
113.3769, 122.9909
113.8591, 123.1207
114.3412, 123.0668
114.8233, 123.0743
115.3054, 123.2069
115.7875, 123.3678
116.2696, 123.4417
116.7517, 123.3819
117.2339, 123.2683
117.7160, 123.3082
118.1981, 123.5679
118.6802, 123.7984
119.1623, 123.9625
119.6444, 124.0466
120.1266, 123.9869
120.6087, 123.6627
121.0908, 123.2484
121.5729, 123.0885
122.0550, 123.2699
122.5371, 123.5529
123.0193, 123.7546
123.5014, 123.8732
123.9835, 123.9298
124.4656, 123.8277
124.9477, 123.7052
125.4298, 123.7013
125.9120, 123.8884
126.3941, 124.1917
126.8762, 124.4682
127.3583, 124.8164
127.8404, 124.9483
128.3225, 124.6494
128.8047, 124.1494
129.2868, 123.7579
129.7689, 123.6859
130.2510, 123.9072
130.7331, 124.0350
131.2152, 124.0366
131.6974, 123.9696
132.1795, 123.7346
132.6616, 123.4239
133.1437, 123.2477
133.6258, 123.4144
134.1079, 124.0107
134.5901, 124.3787
135.0722, 124.2654
135.5543, 124.1706
136.0364, 124.4548
136.5185, 125.1215
137.0006, 125.8462
137.4828, 126.2664
137.9649, 126.3291
138.4470, 126.2617
138.9291, 126.0027
139.4112, 125.6485
139.8933, 125.2581
140.3755, 124.8095
140.8576, 124.4691
141.3397, 124.5306
141.8218, 124.9520
142.3039, 125.3886
142.7860, 125.8002
143.2681, 126.1376
143.7503, 126.1837
144.2324, 125.6720
144.7145, 125.0987
145.1966, 124.9308
145.6787, 125.1717
146.1608, 125.4874
146.6430, 125.5510
147.1251, 125.3216
147.6072, 125.2389
148.0893, 125.4841
148.5714, 125.8473
149.0535, 126.3150
149.5357, 126.8623
150.0178, 127.3178
150.4999, 127.3457
150.9820, 126.5751
151.4641, 126.2019
151.9462, 126.5828
152.4284, 127.1845
152.9105, 127.5850
153.3926, 127.6256
153.8747, 127.4544
154.3568, 127.4383
154.8389, 127.6962
155.3211, 127.9895
155.8032, 128.3670
156.2853, 128.7553
156.7674, 129.0857
157.2495, 129.3294
157.7316, 129.4686
158.2138, 129.4077
158.6959, 128.9243
159.1780, 128.5193
159.6601, 128.3607
160.1422, 128.3752
160.6243, 128.3674
161.1065, 128.1846
161.5886, 127.9277
162.0707, 128.0056
162.5528, 128.8574
163.0349, 129.6039
163.5170, 129.5619
163.9991, 128.8163
164.4813, 128.2218
164.9634, 128.4753
165.4455, 129.2143
165.9276, 129.5677
166.4097, 129.1885
166.8918, 128.5917
167.3740, 128.3913
167.8561, 128.6683
168.3382, 128.9584
168.8203, 128.9902
169.3024, 128.8739
169.7845, 128.7139
170.2667, 128.4997
170.7488, 128.2948
171.2309, 128.2739
171.7130, 128.5632
172.1951, 128.8073
172.6772, 128.8319
173.1594, 128.7398
173.6415, 128.6857
174.1236, 128.7853
174.6057, 128.9950
175.0878, 129.0332
175.5699, 128.6402
176.0521, 128.3675
176.5342, 128.4160
177.0163, 128.6839
177.4984, 128.9820
177.9805, 129.1701
178.4626, 129.2472
178.9448, 129.3972
179.4269, 129.7126
179.9090, 130.0098
180.3911, 130.2690
180.8732, 130.4677
181.3553, 130.5601
181.8375, 130.4920
182.3196, 130.2368
182.8017, 130.0810
183.2838, 129.9429
183.7659, 129.9437
184.2480, 130.2804
184.7301, 130.8777
185.2123, 131.3711
185.6944, 131.3728
186.1765, 130.7852
186.6586, 130.5583
187.1407, 130.9260
187.6228, 131.4712
188.1050, 131.9455
188.5871, 132.3121
189.0692, 132.5567
189.5513, 132.5847
190.0334, 132.4103
190.5155, 132.4463
190.9977, 133.0052
191.4798, 133.6730
191.9619, 133.9037
192.4440, 133.5639
192.9261, 133.1721
193.4082, 133.3777
193.8904, 133.9839
194.3725, 134.3689
194.8546, 134.0776
195.3367, 133.4809
195.8188, 133.3780
196.3009, 134.0325
196.7831, 134.7429
197.2652, 134.8978
197.7473, 134.6848
198.2294, 134.5736
198.7115, 134.8859
199.1936, 135.5199
199.6758, 136.0393
200.1579, 136.4224
200.6400, 136.6917
201.1221, 136.7450
201.6042, 136.6923
202.0863, 136.8046
202.5685, 137.3752
203.0506, 138.3648
203.5327, 139.0837
204.0148, 139.4152
204.4969, 139.5529
204.9790, 139.3889
205.4612, 139.0736
205.9433, 138.9425
206.4254, 139.3677
206.9075, 140.4000
207.3896, 140.9870
207.8717, 140.6204
208.3539, 140.2462
208.8360, 140.1401
209.3181, 140.2828
209.8002, 140.5276
210.2823, 140.7480
210.7644, 140.9340
211.2466, 141.1776
211.7287, 141.5737
212.2108, 141.9347
212.6929, 142.1563
213.1750, 142.2661
213.6571, 142.3735
214.1393, 142.5806
214.6214, 142.9061
215.1035, 143.2080
215.5856, 143.4803
216.0677, 143.7419
216.5498, 143.9466
217.0320, 144.1280
217.5141, 144.4289
217.9962, 145.0218
218.4783, 145.9670
218.9604, 146.5590
219.4425, 146.6203
219.9247, 146.5230
220.4068, 146.3866
220.8889, 146.2594
221.3710, 146.2958
221.8531, 146.6710
222.3352, 147.4130
222.8174, 148.0121
223.2995, 148.4068
223.7816, 148.7073
224.2637, 148.9753
224.7458, 149.2178
225.2279, 149.4397
225.7100, 149.6040
226.1922, 149.7405
226.6743, 150.0354
227.1564, 150.6964
227.6385, 151.3984
228.1206, 151.7886
228.6027, 151.8410
229.0849, 151.8802
229.5670, 152.0736
230.0491, 152.4427
230.5312, 153.0473
231.0133, 154.3153
231.4954, 155.5923
231.9776, 156.0029
232.4597, 155.4284
232.9418, 154.8186
233.4239, 154.7859
233.9060, 155.1102
234.3881, 155.5001
234.8703, 155.9532
235.3524, 156.3819
235.8345, 156.6141
236.3166, 156.5804
236.7987, 156.6455
237.2808, 157.0677
237.7630, 157.6733
238.2451, 158.3154
238.7272, 158.9984
239.2093, 159.6267
239.6914, 160.0041
240.1735, 160.0457
240.6557, 160.1126
241.1378, 160.3537
241.6199, 160.6835
242.1020, 161.0222
242.5841, 161.3340
243.0662, 161.6701
243.5484, 162.1650
244.0305, 162.9388
244.5126, 163.5347
244.9947, 163.5827
245.4768, 163.5368
245.9589, 163.8812
246.4410, 164.8048
246.9232, 165.8625
247.4053, 166.2251
247.8874, 165.5239
248.3695, 164.9950
248.8516, 164.8977
249.3337, 165.0068
249.8159, 165.1763
250.2980, 165.3589
250.7801, 165.5669
251.2622, 165.8179
251.7443, 166.0938
252.2264, 166.4588
252.7086, 167.0526
253.1907, 167.6360
253.6728, 168.0042
254.1549, 168.1194
254.6370, 168.1448
255.1191, 168.3282
255.6013, 168.7227
256.0834, 169.1754
256.5655, 169.8443
257.0476, 170.4465
257.5297, 170.7243
258.0118, 170.6684
258.4940, 170.5410
258.9761, 170.7180
259.4582, 171.3997
259.9403, 171.8808
260.4224, 172.1784
260.9045, 172.3164
261.3867, 172.1497
261.8688, 171.7545
262.3509, 171.4884
262.8330, 171.7935
263.3151, 172.8767
263.7972, 173.8009
264.2794, 174.5158
264.7615, 175.1467
265.2436, 175.7356
265.7257, 176.2969
266.2078, 176.8454
266.6899, 177.3984
267.1721, 177.9608
267.6542, 178.4787
268.1363, 179.0100
268.6184, 179.4568
269.1005, 179.6816
269.5826, 179.7507
270.0648, 179.8894
270.5469, 180.2930
271.0290, 180.9697
271.5111, 181.6003
271.9932, 182.1086
272.4753, 182.6532
272.9575, 183.3393
273.4396, 184.1223
273.9217, 184.8809
274.4038, 185.5407
274.8859, 186.1025
275.3680, 186.5505
275.8501, 186.8333
276.3322, 187.0903
276.8144, 187.2805
277.2965, 187.4793
277.7786, 187.8626
278.2607, 188.5489
278.7428, 189.4581
279.2249, 190.2549
279.7071, 190.7838
280.1892, 191.4072
280.6713, 192.3437
281.1534, 193.4214
281.6355, 194.3242
282.1176, 194.9041
282.5998, 195.2721
283.0819, 195.6908
283.5640, 196.1860
284.0461, 196.6777
284.5282, 197.1316
285.0103, 197.5779
285.4925, 198.0423
285.9746, 198.5276
286.4567, 199.0796
286.9388, 199.8313
287.4209, 200.8933
287.9030, 201.7576
288.3852, 202.1379
288.8673, 202.3569
289.3494, 202.8070
289.8315, 203.5802
290.3136, 204.5103
290.7957, 205.4545
291.2779, 206.4284
291.7600, 207.2332
292.2421, 207.8201
292.7242, 208.2437
293.2063, 208.4544
293.6884, 208.4563
294.1706, 208.5556
294.6527, 209.0638
295.1348, 209.9993
295.6169, 210.9145
296.0990, 211.9263
296.5811, 212.8181
297.0633, 213.4495
297.5454, 213.8086
298.0275, 213.8764
298.5096, 213.5210
298.9917, 212.8421
299.4738, 212.4925
299.9560, 212.5270
300.4381, 212.8307
300.9202, 213.5735
301.4023, 214.6177
301.8844, 215.3044
302.3665, 215.1422
302.8487, 214.4936
303.3308, 214.4769
303.8129, 215.4583
304.2950, 216.4052
304.7771, 216.8233
305.2592, 216.8538
305.7414, 216.8495
306.2235, 216.9309
306.7056, 217.0600
307.1877, 217.1532
307.6698, 215.9010
308.1519, 217.6880
308.6341, 218.7316
309.1162, 219.0719
309.5983, 216.6020
310.0804, 217.7608
310.5625, 217.4654
311.0446, 217.1103
311.5268, 218.7799
312.0089, 216.7187
312.4910, 218.3561
312.9731, 218.5172
313.4552, 219.3539
313.9373, 218.7274
314.4195, 218.5529
314.9016, 219.8420
315.3837, 220.3207
315.8658, 219.5258
316.3479, 220.4055
316.8300, 218.2932
317.3121, 218.8064
317.7943, 220.4524
318.2764, 219.7310
318.7585, 220.6375
319.2406, 220.9240
319.7227, 218.3931
320.2048, 219.4236
320.6870, 219.5310
321.1691, 219.9409
321.6512, 220.5665
322.1333, 221.1139
322.6154, 221.4558
323.0975, 221.6193
323.5797, 221.6505
324.0618, 221.4714
324.5439, 221.3526
325.0260, 221.4164
325.5081, 221.6014
325.9902, 221.8372
326.4724, 222.1350
326.9545, 222.3503
327.4366, 222.1079
327.9187, 221.2385
328.4008, 220.9102
328.8829, 221.8367
329.3651, 223.1862
329.8472, 223.8958
330.3293, 223.7810
330.8114, 223.5781
331.2935, 224.0748
331.7756, 225.3388
332.2578, 226.3203
332.7399, 226.8736
333.2220, 227.2135
333.7041, 227.4603
334.1862, 227.6276
334.6683, 227.7090
335.1505, 227.6396
335.6326, 227.4848
336.1147, 227.6695
336.5968, 228.3891
337.0789, 229.2002
337.5610, 229.9527
338.0432, 230.6588
338.5253, 231.3619
339.0074, 232.0968
339.4895, 232.8088
339.9716, 233.3109
340.4537, 233.3815
340.9359, 233.6716
341.4180, 234.4810
341.9001, 235.5153
342.3822, 236.4099
342.8643, 237.0576
343.3464, 237.5381
343.8286, 237.9318
344.3107, 238.1584
344.7928, 238.5574
345.2749, 239.1461
345.7570, 239.8941
346.2391, 240.9344
346.7213, 242.1924
347.2034, 243.2666
347.6855, 243.7454
348.1676, 243.5909
348.6497, 243.6478
349.1318, 243.9504
349.6140, 244.3891
350.0961, 245.0087
350.5782, 245.7286
351.0603, 246.3900
351.5424, 246.8978
352.0245, 247.2741
352.5067, 247.6126
352.9888, 247.8707
353.4709, 248.1424
353.9530, 247.7739
354.4351, 246.5084
354.9172, 248.7145
355.3994, 250.1774
355.8815, 250.9368
356.3636, 248.8860
356.8457, 250.4640
357.3278, 250.5877
357.8099, 250.6518
358.2920, 252.7405
358.7741, 251.0985
359.2563, 253.1552
359.7384, 253.7353
360.2205, 254.9912
360.7026, 254.7839
361.1847, 255.0285
361.6668, 255.1175
362.1490, 255.4002
362.6311, 255.6584
363.1132, 255.9226
363.5953, 256.2635
364.0774, 256.7425
364.5595, 257.2778
365.0417, 257.4924
365.5238, 256.8269
366.0059, 256.6262
366.4880, 257.4233
366.9701, 258.5410
367.4522, 259.3102
367.9344, 259.5186
368.4165, 259.4496
368.8986, 259.5190
369.3807, 259.7408
369.8628, 260.0746
370.3449, 260.8570
370.8271, 261.4665
371.3092, 261.4164
371.7913, 260.8181
372.2734, 260.2406
372.7555, 260.2249
373.2376, 260.7502
373.7198, 261.1048
374.2019, 261.1718
374.6840, 261.2021
375.1661, 261.2620
375.6482, 261.3471
376.1303, 261.4664
376.6125, 261.6494
377.0946, 261.8092
377.5767, 261.6778
378.0588, 261.0561
378.5409, 260.7120
379.0230, 261.1922
379.5052, 261.8235
379.9873, 262.0179
380.4694, 261.6642
380.9515, 261.2590
381.4336, 261.3494
381.9157, 261.9232
382.3979, 262.4166
382.8800, 262.7718
383.3621, 263.0001
383.8442, 263.1227
384.3263, 263.1424
384.8084, 263.0734
385.2906, 262.8568
385.7727, 262.5673
386.2548, 262.3499
386.7369, 262.1856
387.2190, 262.1701
387.7011, 262.6812
388.1833, 263.2876
388.6654, 263.2828
389.1475, 262.2467
389.6296, 261.1027
390.1117, 260.7378
390.5938, 261.0556
391.0760, 261.3102
391.5581, 261.2602
392.0402, 261.0421
392.5223, 260.7979
393.0044, 260.5099
393.4865, 260.3795
393.9687, 260.7189
394.4508, 261.1921
394.9329, 261.1783
395.4150, 260.5497
395.8971, 259.8514
396.3792, 259.5169
396.8614, 259.5508
397.3435, 259.7495
397.8256, 260.4025
398.3077, 260.9567
398.7898, 260.9297
399.2719, 260.4633
399.7540, 260.0877
400.2361, 260.0714
400.7183, 260.3094
401.2004, 260.5146
401.6825, 260.7040
402.1646, 260.8378
402.6467, 261.0334
403.1288, 261.1136
403.6110, 260.7179
404.0931, 259.8093
404.5752, 258.9347
405.0573, 258.7714
405.5394, 259.5106
406.0215, 260.0507
406.5037, 260.3483
406.9858, 260.5179
407.4679, 260.5814
407.9500, 260.5639
408.4321, 260.5146
408.9142, 260.4686
409.3964, 260.4018
409.8785, 260.1996
410.3606, 259.6287
410.8427, 259.2253
411.3248, 259.1293
411.8069, 259.1621
412.2891, 259.1438
412.7712, 259.0313
413.2533, 258.9191
413.7354, 258.9525
414.2175, 259.1893
414.6996, 259.3378
415.1818, 259.2494
415.6639, 259.2103
416.1460, 259.3664
416.6281, 259.6663
417.1102, 259.9720
417.5923, 260.2052
418.0745, 260.3740
418.5566, 260.4865
419.0387, 260.4718
419.5208, 260.5621
420.0029, 260.9521
420.4850, 261.4058
420.9672, 261.7626
421.4493, 261.9907
421.9314, 261.9652
422.4135, 261.3173
422.8956, 260.1027
423.3777, 259.4943
423.8599, 259.9625
424.3420, 260.6818
424.8241, 261.1404
425.3062, 261.3369
425.7883, 261.2451
426.2704, 260.5327
426.7526, 259.6719
427.2347, 259.4719
427.7168, 259.9759
428.1989, 260.4219
428.6810, 260.3363
429.1631, 259.9691
429.6453, 259.8639
430.1274, 260.0219
430.6095, 260.4421
431.0916, 261.4268
431.5737, 262.6255
432.0558, 263.2577
432.5380, 263.0791
433.0201, 262.6521
433.5022, 262.6494
433.9843, 263.1506
434.4664, 263.4042
434.9485, 263.2138
435.4307, 262.9122
435.9128, 262.6027
436.3949, 262.3542
436.8770, 262.3831
437.3591, 262.8679
437.8412, 263.6191
438.3234, 263.9016
438.8055, 263.2149
439.2876, 262.6960
439.7697, 262.4710
440.2518, 262.4200
440.7339, 262.5030
441.2160, 262.6762
441.6982, 262.7850
442.1803, 262.5858
442.6624, 261.9626
443.1445, 261.8842
443.6266, 263.0562
444.1087, 264.0476
444.5909, 264.2975
445.0730, 264.0901
445.5551, 263.9435
446.0372, 264.1310
446.5193, 264.4738
447.0014, 264.5549
447.4836, 264.2701
447.9657, 264.0338
448.4478, 263.8642
448.9299, 263.8098
449.4120, 263.9196
449.8941, 264.1898
450.3763, 264.5654
450.8584, 265.1269
451.3405, 265.7828
451.8226, 266.0982
452.3047, 265.9759
452.7868, 265.7307
453.2690, 265.4824
453.7511, 265.2416
454.2332, 265.0178
454.7153, 264.7857
455.1974, 264.6238
455.6795, 264.6957
456.1617, 264.9216
456.6438, 264.8831
457.1259, 264.3336
457.6080, 263.7573
458.0901, 263.9281
458.5722, 264.8406
459.0544, 265.4980
459.5365, 265.6852
460.0186, 265.5742
460.5007, 265.2161
460.9828, 264.6659
461.4649, 264.1032
461.9471, 263.6071
462.4292, 263.2119
462.9113, 263.0570
463.3934, 263.3237
463.8755, 263.5753
464.3576, 263.9900
464.8398, 264.2442
465.3219, 263.8518
465.8040, 262.7971
466.2861, 261.6571
466.7682, 261.0690
467.2503, 261.0821
467.7325, 261.1235
468.2146, 261.2502
468.6967, 261.3412
469.1788, 261.4056
469.6609, 261.4004
470.1430, 261.2429
470.6252, 260.8914
471.1073, 260.4566
471.5894, 260.0973
472.0715, 259.7830
472.5536, 259.6912
473.0357, 260.2360
473.5179, 260.6786
474.0000, 260.4232
474.4821, 259.6337
474.9642, 259.0425
475.4463, 259.3204
475.9284, 260.0081
476.4106, 260.0867
476.8927, 259.4949
477.3748, 258.6384
477.8569, 257.2768
478.3390, 256.0122
478.8211, 255.8935
479.3033, 257.3108
479.7854, 258.5858
480.2675, 258.7871
480.7496, 258.3003
481.2317, 257.7234
481.7138, 257.1470
482.1959, 256.7560
482.6780, 256.7936
483.1602, 257.2465
483.6423, 257.3889
484.1244, 257.0786
484.6065, 256.6349
485.0886, 256.0638
485.5707, 255.4715
486.0529, 254.9969
486.5350, 254.6916
487.0171, 254.6071
487.4992, 254.8823
487.9813, 255.8336
488.4634, 256.2655
488.9456, 255.9369
489.4277, 255.4141
489.9098, 254.8182
490.3919, 254.2578
490.8740, 253.9186
491.3561, 253.9452
491.8383, 254.1774
492.3204, 254.1701
492.8025, 253.8586
493.2846, 253.4882
493.7667, 252.9364
494.2488, 252.4715
494.7310, 252.3596
495.2131, 252.5737
495.6952, 252.7530
496.1773, 252.6012
496.6594, 252.2288
497.1415, 251.9093
497.6237, 251.6320
498.1058, 251.4964
498.5879, 251.7540
499.0700, 252.1074
499.5521, 251.9356
500.0342, 250.9270
500.5164, 250.0810
500.9985, 250.0651
501.4806, 250.4964
501.9627, 250.6673
502.4448, 250.4314
502.9269, 250.1357
503.4091, 250.1384
503.8912, 250.4537
504.3733, 250.5158
504.8554, 250.1721
505.3375, 249.7781
505.8196, 249.3729
506.3018, 249.0245
506.7839, 248.8665
507.2660, 248.9378
507.7481, 249.0836
508.2302, 249.0665
508.7123, 248.8509
509.1945, 248.5994
509.6766, 248.2145
510.1587, 247.8912
510.6408, 247.7644
511.1229, 247.7448
511.6050, 247.6455
512.0872, 247.3553
512.5693, 247.0013
513.0514, 246.7634
513.5335, 244.8944
514.0156, 246.3624
514.4977, 247.0871
514.9799, 247.1083
515.4620, 244.3194
515.9441, 245.1592
516.4262, 244.5448
516.9083, 243.8708
517.3904, 245.2214
517.8726, 242.8412
518.3547, 244.1597
518.8368, 244.0017
519.3189, 244.5194
519.8010, 243.5740
520.2831, 243.0805
520.7653, 244.0506
521.2474, 244.2103
521.7295, 243.0964
522.2116, 243.6571
522.6937, 242.2665
523.1758, 242.2951
523.6580, 242.3037
524.1401, 242.0641
524.6222, 241.6783
525.1043, 241.7017
525.5864, 242.7891
526.0685, 243.3355
526.5507, 242.6219
527.0328, 241.7464
527.5149, 241.8127
527.9970, 242.7995
528.4791, 243.6329
528.9612, 243.1786
529.4434, 241.7208
529.9255, 241.0787
530.4076, 241.6327
530.8897, 242.1254
531.3718, 242.0349
531.8539, 241.5976
532.3361, 240.9383
532.8182, 240.0235
533.3003, 239.2575
533.7824, 238.9110
534.2645, 238.8976
534.7466, 239.1218
535.2288, 239.5973
535.7109, 239.9725
536.1930, 239.9845
536.6751, 239.6596
537.1572, 239.2352
537.6393, 238.5130
538.1215, 237.9392
538.6036, 237.7553
539.0857, 237.7333
539.5678, 237.5678
540.0499, 237.2069
540.5320, 236.8487
541.0142, 236.7410
541.4963, 236.9005
541.9784, 236.7016
542.4604, 235.6339
542.9426, 234.8112
543.4247, 234.5076
543.9068, 234.5386
544.3889, 234.8143
544.8710, 235.2802
545.3531, 235.5975
545.8353, 235.2984
546.3174, 234.4390
546.7995, 233.6907
547.2816, 233.0835
547.7637, 232.6016
548.2458, 232.2979
548.7280, 232.1025
549.2101, 231.9202
549.6922, 231.7698
550.1743, 231.5602
550.6564, 231.2035
551.1385, 230.7522
551.6207, 230.2930
552.1028, 229.8431
552.5849, 229.4695
553.0670, 229.3112
553.5491, 229.3679
554.0313, 228.8933
554.5134, 227.1088
554.9955, 225.8069
555.4776, 225.7488
555.9597, 226.3174
556.4418, 226.9043
556.9240, 227.2839
557.4061, 227.2950
557.8882, 226.6346
558.3703, 225.2676
558.8524, 224.2954
559.3345, 223.8441
559.8167, 223.6433
560.2988, 223.8130
560.7809, 224.0508
561.2630, 223.9433
561.7451, 223.3603
562.2272, 222.7102
562.7094, 222.3576
563.1915, 222.2251
563.6736, 222.0938
564.1557, 221.9649
564.6378, 221.6762
565.1199, 220.9543
565.6021, 219.9822
566.0842, 219.5452
566.5663, 220.2423
567.0484, 220.6221
567.5305, 219.8299
568.0126, 218.6219
568.4948, 218.0149
568.9769, 218.1439
569.4590, 218.3897
569.9411, 218.1941
570.4232, 217.5723
570.9053, 216.7960
571.3875, 215.2672
571.8696, 214.4189
572.3517, 215.0409
572.8338, 216.0492
573.3159, 216.4149
573.7980, 215.9999
574.2802, 215.4078
574.7623, 215.2665
575.2444, 215.3982
575.7265, 214.9453
576.2086, 213.7231
576.6907, 212.6978
577.1729, 212.4192
577.6550, 212.5727
578.1371, 212.6570
578.6192, 212.6731
579.1013, 212.5779
579.5834, 212.2755
580.0656, 211.9004
580.5477, 211.5999
581.0298, 211.3824
581.5119, 211.1828
581.9940, 210.9527
582.4761, 210.7226
582.9583, 210.5998
583.4404, 210.7405
583.9225, 210.7453
584.4046, 210.6846
584.8867, 210.4284
585.3688, 209.6845
585.8510, 208.6457
586.3331, 207.8828
586.8152, 207.7980
587.2973, 208.1254
587.7794, 208.2978
588.2615, 208.3108
588.7437, 208.1757
589.2258, 207.7623
589.7079, 207.3464
590.1900, 207.2838
590.6721, 207.4977
591.1542, 207.4753
591.6364, 206.7162
592.1185, 205.9537
592.6006, 206.0000
593.0827, 206.5775
593.5648, 206.8030
594.0469, 206.3416
594.5291, 205.5961
595.0112, 205.1062
595.4933, 204.8999
595.9754, 204.8447
596.4575, 205.1994
596.9396, 205.3988
597.4218, 205.2314
597.9039, 204.7899
598.3860, 204.1453
598.8681, 203.3342
599.3502, 202.5748
599.8323, 202.1509
600.3145, 202.0500
600.7966, 202.0018
601.2787, 202.0350
601.7608, 202.0314
602.2429, 201.7905
602.7250, 201.5088
603.2072, 201.5898
603.6893, 202.3167
604.1714, 202.6990
604.6535, 201.7913
605.1356, 200.4264
605.6177, 199.8933
606.0999, 200.2928
606.5820, 200.9065
607.0641, 201.2643
607.5462, 201.3741
608.0283, 201.2615
608.5104, 200.5948
608.9926, 200.1854
609.4747, 200.2753
609.9568, 200.4531
610.4389, 200.4449
610.9210, 200.2548
611.4031, 200.0186
611.8853, 199.8150
612.3674, 199.6296
612.8495, 199.4418
613.3316, 199.2552
613.8137, 198.9975
614.2958, 198.5646
614.7780, 198.1685
615.2601, 198.1158
615.7422, 198.3320
616.2243, 198.3477
616.7064, 197.8849
617.1885, 197.3747
617.6707, 197.0956
618.1528, 196.9682
618.6349, 196.8157
619.1170, 196.5866
619.5991, 196.3597
620.0812, 196.2192
620.5634, 196.1619
621.0455, 196.2339
621.5276, 196.7923
622.0097, 197.0288
622.4918, 196.5058
622.9739, 195.7391
623.4561, 195.2890
623.9382, 195.2500
624.4203, 195.2501
624.9023, 194.8515
625.3845, 194.2824
625.8666, 194.2603
626.3487, 194.8537
626.8308, 195.3608
627.3129, 195.5156
627.7950, 195.3517
628.2772, 194.8541
628.7593, 193.9610
629.2414, 193.1200
629.7235, 192.3256
630.2056, 191.6631
630.6877, 191.2420
631.1699, 190.9942
631.6520, 190.7347
632.1341, 190.3799
632.6162, 190.0579
633.0983, 190.0330
633.5804, 190.3952
634.0626, 190.5992
634.5447, 190.6352
635.0268, 190.5043
635.5089, 190.1163
635.9910, 189.6116
636.4731, 189.2049
636.9553, 188.9586
637.4374, 188.7657
637.9195, 188.6066
638.4016, 188.4334
638.8837, 188.1113
639.3658, 187.6338
639.8480, 187.2177
640.3301, 187.0425
640.8122, 186.9882
641.2943, 186.6473
641.7764, 185.6510
642.2585, 184.9084
642.7407, 184.4734
643.2228, 184.2418
643.7049, 184.3353
644.1870, 184.5670
644.6691, 184.4969
645.1512, 183.8582
645.6334, 182.9919
646.1155, 182.4057
646.5976, 182.0994
647.0797, 182.0622
647.5618, 182.4853
648.0439, 182.7692
648.5261, 182.2742
649.0082, 181.2683
649.4903, 180.6172
649.9724, 180.6819
650.4545, 180.6499
650.9366, 180.0486
651.4188, 179.2642
651.9009, 178.7471
652.3830, 178.5466
652.8651, 178.5155
653.3472, 178.5779
653.8293, 178.6522
654.3115, 178.4183
654.7936, 177.7771
655.2757, 177.0661
655.7578, 176.0686
656.2399, 175.2408
656.7220, 175.0275
657.2042, 175.2123
657.6863, 175.1171
658.1684, 174.3737
658.6505, 173.4390
659.1326, 172.6414
659.6147, 172.0015
660.0969, 171.6568
660.5790, 171.6493
661.0611, 171.5598
661.5432, 170.9621
662.0253, 169.9303
662.5074, 169.2713
662.9896, 169.2313
663.4717, 169.2499
663.9538, 169.4388
664.4359, 169.5492
664.9180, 169.3497
665.4001, 168.8770
665.8823, 168.3362
666.3644, 167.8181
666.8465, 167.3591
667.3286, 167.0454
667.8107, 166.8728
668.2928, 166.7041
668.7750, 166.5557
669.2571, 166.2885
669.7392, 165.6863
670.2213, 164.7982
670.7034, 164.1616
671.1855, 163.9434
671.6677, 163.7798
672.1498, 163.7043
672.6319, 163.5398
673.1140, 162.9704
673.5961, 162.0562
674.0782, 161.2605
674.5604, 160.9597
675.0425, 160.9932
675.5246, 160.8171
676.0067, 160.3690
676.4888, 160.0024
676.9709, 159.9053
677.4531, 159.7713
677.9352, 159.2685
678.4173, 158.5183
678.8994, 157.9614
679.3815, 157.7978
679.8636, 157.7244
680.3458, 157.6987
680.8279, 157.5969
681.3100, 157.1104
681.7921, 156.2479
682.2742, 155.4766
682.7563, 155.2117
683.2385, 155.3158
683.7206, 155.0893
684.2027, 154.3487
684.6848, 153.6778
685.1669, 153.1980
685.6490, 152.7722
686.1312, 152.2933
686.6133, 151.8021
687.0954, 151.4377
687.5775, 151.3216
688.0596, 151.2278
688.5417, 150.8978
689.0239, 150.4474
689.5060, 150.2043
689.9881, 150.2187
690.4702, 150.1640
690.9523, 149.7672
691.4344, 149.1005
691.9166, 148.5101
692.3987, 147.8790
692.8808, 147.5266
693.3629, 147.8132
693.8450, 148.0495
694.3271, 147.7437
694.8093, 147.0427
695.2914, 146.3868
695.7735, 145.9662
696.2556, 145.6612
696.7377, 145.3929
697.2198, 145.1314
697.7020, 144.7027
698.1841, 144.0626
698.6662, 143.5798
699.1483, 143.5901
699.6304, 143.9109
700.1125, 143.8458
700.5947, 143.1364
701.0768, 142.4272
701.5589, 141.6749
702.0410, 140.9742
702.5231, 140.2728
703.0052, 139.6888
703.4874, 139.5217
703.9695, 139.9437
704.4516, 140.4286
704.9337, 140.2729
705.4158, 139.5999
705.8979, 138.9970
706.3801, 138.5237
706.8622, 138.0806
707.3442, 137.5732
707.8264, 137.0812
708.3085, 136.8361
708.7906, 136.9903
709.2727, 136.9845
709.7548, 136.6067
710.2369, 136.2271
710.7191, 136.0456
711.2012, 136.0240
711.6833, 136.1536
712.1654, 136.4194
712.6475, 136.5142
713.1296, 135.8571
713.6118, 134.6584
714.0939, 134.2306
714.5760, 134.7783
715.0581, 134.9985
715.5402, 134.0683
716.0223, 132.7263
716.5045, 132.3357
716.9866, 133.1138
717.4687, 133.4352
717.9508, 132.7201
718.4329, 131.9941
718.9150, 131.7510
719.3972, 131.8254
719.8793, 132.0600
720.3614, 132.3545
720.8435, 132.4121
721.3256, 131.8009
721.8077, 130.7467
722.2899, 130.1688
722.7720, 130.1069
723.2541, 130.2058
723.7362, 130.5277
724.2183, 130.7034
724.7004, 130.1328
725.1826, 128.8340
725.6647, 127.9993
726.1468, 127.9212
726.6289, 128.0387
727.1110, 128.3682
727.5931, 128.6585
728.0753, 128.5572
728.5574, 128.0883
729.0395, 127.6305
729.5216, 127.4868
730.0037, 127.4880
730.4858, 127.1574
730.9680, 126.4741
731.4501, 126.1548
731.9322, 126.5061
732.4143, 126.8444
732.8964, 126.4923
733.3785, 125.6298
733.8607, 125.2352
734.3428, 125.7987
734.8249, 126.0709
735.3070, 125.5086
735.7891, 124.7922
736.2712, 124.4241
736.7534, 124.4056
737.2355, 124.6175
737.7176, 125.0304
738.1997, 125.3676
738.6818, 125.0965
739.1639, 124.3017
739.6461, 123.8264
740.1282, 123.7920
740.6103, 123.8412
741.0924, 123.8300
741.5745, 123.7397
742.0566, 123.4993
742.5388, 123.0388
743.0209, 122.6825
743.5030, 122.5532
743.9851, 122.4339
744.4672, 122.1426
744.9493, 121.8119
745.4315, 121.7023
745.9136, 121.8647
746.3957, 122.0168
746.8778, 121.8471
747.3599, 121.4611
747.8420, 121.1797
748.3242, 121.0043
748.8063, 120.8538
749.2884, 120.7022
749.7705, 120.5594
750.2526, 120.4188
750.7347, 120.2760
751.2169, 120.2569
751.6990, 120.5182
752.1811, 120.6884
752.6632, 120.7292
753.1453, 120.6143
753.6274, 120.1850
754.1096, 119.5564
754.5917, 119.1392
755.0738, 119.2007
755.5559, 119.5064
756.0380, 119.7868
756.5201, 120.0347
757.0023, 120.2271
757.4844, 120.3646
757.9665, 120.3864
758.4486, 120.2380
758.9307, 119.9511
759.4128, 119.6185
759.8950, 119.0363
760.3771, 118.7873
760.8592, 119.0610
761.3413, 119.4437
761.8234, 119.9091
762.3055, 120.2928
762.7877, 120.3141
763.2698, 119.8829
763.7519, 119.3928
764.2340, 119.0974
764.7161, 118.9470
765.1982, 118.8324
765.6804, 118.7766
766.1625, 119.0082
766.6446, 119.6423
767.1267, 120.2466
767.6088, 120.2064
768.0909, 119.4856
768.5731, 119.0397
769.0552, 118.9796
769.5373, 119.0153
770.0194, 119.1238
770.5015, 119.2673
770.9836, 119.4263
771.4658, 119.5951
771.9479, 119.7663
772.4300, 120.0529
772.9121, 120.1858
773.3942, 119.7126
773.8763, 119.0802
774.3585, 119.1711
774.8406, 119.9494
775.3227, 120.4393
775.8048, 119.9529
776.2869, 118.9960
776.7690, 118.8393
777.2512, 119.6412
777.7333, 120.1777
778.2154, 120.2885
778.6975, 120.2839
779.1796, 120.2805
779.6617, 120.2863
780.1439, 120.3058
780.6260, 120.3291
781.1081, 120.4148
781.5902, 120.7773
782.0723, 121.0048
782.5544, 120.5934
783.0366, 119.9479
783.5187, 119.8473
784.0008, 120.4314
784.4829, 121.0248
784.9650, 120.9134
785.4471, 120.3932
785.9293, 120.4219
786.4114, 121.0093
786.8935, 121.4882
787.3756, 121.7193
787.8577, 121.7046
788.3398, 121.3183
788.8220, 120.6497
789.3040, 120.4720
789.7861, 121.3050
790.2682, 121.8582
790.7504, 121.7090
791.2325, 121.5571
791.7146, 122.0468
792.1967, 122.8531
792.6788, 123.1985
793.1609, 122.7651
793.6431, 122.1709
794.1252, 121.8755
794.6073, 121.8206
795.0894, 122.0135
795.5715, 122.3906
796.0536, 122.5188
796.5358, 122.1947
797.0179, 121.8160
797.5000, 121.9852
797.9821, 122.7423
798.4642, 123.0664
798.9464, 122.7884
799.4285, 122.3853
799.9106, 121.7801
800.3927, 121.2450
800.8748, 120.9945
801.3569, 121.0057
801.8391, 121.1471
802.3212, 121.5524
802.8033, 121.8363
803.2854, 121.6365
803.7675, 121.3072
804.2496, 121.2599
804.7318, 121.4982
805.2139, 121.9027
805.6960, 122.4273
806.1781, 122.8104
806.6602, 122.4573
807.1423, 121.4500
807.6245, 121.0339
808.1066, 121.3980
808.5887, 121.5973
809.0708, 121.0785
809.5529, 120.3695
810.0350, 120.3395
810.5172, 121.1623
810.9993, 121.5074
811.4814, 121.0083
811.9635, 120.5056
812.4456, 120.0564
812.9277, 119.8279
813.4099, 120.1485
813.8920, 120.8733
814.3741, 121.3789
814.8562, 121.3124
815.3383, 121.0007
815.8204, 120.6880
816.3026, 120.4102
816.7847, 120.2435
817.2668, 120.1965
817.7489, 120.2788
818.2310, 120.5137
818.7131, 120.7740
819.1953, 120.8064
819.6774, 120.5789
820.1595, 120.3037
820.6416, 119.9099
821.1237, 119.5953
821.6058, 119.4113
822.0880, 119.3622
822.5701, 119.5734
823.0522, 120.0232
823.5343, 120.1206
824.0164, 119.4526
824.4985, 118.7648
824.9807, 118.3082
825.4628, 118.0479
825.9449, 117.9971
826.4270, 118.1046
826.9091, 118.2270
827.3912, 118.2809
827.8734, 118.4485
828.3555, 118.5028
828.8376, 118.7547
829.3197, 118.9652
829.8018, 119.1238
830.2839, 119.0960
830.7661, 118.7987
831.2482, 118.3176
831.7303, 117.7440
832.2124, 117.0173
832.6945, 116.6625
833.1766, 116.9487
833.6588, 117.2268
834.1409, 117.3606
834.6230, 117.4221
835.1051, 117.5221
835.5872, 117.6183
836.0693, 117.4898
836.5515, 116.8684
837.0336, 116.3314
837.5157, 116.3437
837.9978, 116.5077
838.4799, 116.2454
838.9620, 115.6862
839.4442, 115.4494
839.9263, 115.8294
840.4084, 116.3897
840.8905, 116.5226
841.3726, 116.3009
841.8547, 116.1770
842.3369, 116.1766
842.8190, 115.9068
843.3011, 115.0913
843.7832, 114.3588
844.2653, 114.5372
844.7474, 115.5950
845.2296, 116.1660
845.7117, 115.8764
846.1938, 115.6341
846.6759, 115.5791
847.1580, 115.5345
847.6401, 115.3808
848.1223, 115.1518
848.6044, 114.9209
849.0865, 114.6864
849.5686, 114.5427
850.0507, 114.5979
850.5328, 114.7233
851.0150, 114.8699
851.4971, 114.9637
851.9792, 114.8073
852.4613, 114.3697
852.9434, 113.9209
853.4255, 113.7401
853.9077, 113.7441
854.3898, 113.6524
854.8719, 113.4646
855.3540, 113.4096
855.8361, 113.5476
856.3182, 113.7654
856.8004, 114.0043
857.2825, 114.2391
857.7646, 114.3876
858.2467, 114.4017
858.7288, 114.4310
859.2109, 114.5127
859.6931, 114.5653
860.1752, 114.5579
860.6573, 114.5073
861.1394, 114.4276
861.6215, 114.3227
862.1036, 114.2139
862.5858, 114.1001
863.0679, 113.9959
863.5500, 113.8912
864.0321, 113.8140
864.5142, 113.8775
864.9963, 114.0275
865.4785, 113.9532
865.9606, 113.4366
866.4427, 112.9071
866.9248, 113.2069
867.4069, 114.1230
867.8890, 114.4525
868.3712, 114.1085
868.8533, 113.7605
869.3354, 113.6851
869.8175, 113.7198
870.2996, 113.6414
870.7817, 113.4475
871.2639, 113.3800
871.7459, 113.5635
872.2280, 113.6537
872.7101, 113.5219
873.1923, 113.3480
873.6744, 113.1634
874.1565, 113.0294
874.6386, 113.1278
875.1207, 113.6258
875.6028, 113.9285
876.0850, 113.6616
876.5671, 113.2853
877.0492, 113.0979
877.5313, 113.0589
878.0134, 113.0940
878.4955, 113.1647
878.9777, 113.1819
879.4598, 113.0210
879.9419, 112.8321
880.4240, 112.9084
880.9061, 113.1724
881.3882, 113.3614
881.8704, 113.4292
882.3525, 113.3259
882.8346, 112.9786
883.3167, 112.6193
883.7988, 112.8332
884.2809, 113.7689
884.7631, 114.0937
885.2452, 113.4837
885.7273, 113.0764
886.2094, 113.4404
886.6915, 113.9947
887.1736, 114.0602
887.6558, 113.6711
888.1379, 113.3864
888.6200, 113.2587
889.1021, 113.1827
889.5842, 113.1572
890.0663, 113.1611
890.5485, 113.1333
891.0306, 113.1382
891.5127, 113.3472
891.9948, 113.8205
892.4769, 114.2122
892.9590, 114.1846
893.4412, 114.0647
893.9233, 114.2543
894.4054, 114.6086
894.8875, 114.7981
895.3696, 114.7639
895.8517, 114.6767
896.3339, 114.6718
896.8160, 114.6609
897.2981, 114.3539
897.7802, 113.8142
898.2623, 113.7617
898.7444, 114.3068
899.2266, 114.7419
899.7087, 114.6903
900.1908, 114.4877
900.6729, 114.6579
901.1550, 115.2260
901.6371, 115.5810
902.1193, 115.6148
902.6014, 115.6385
903.0835, 115.7762
903.5656, 115.8531
904.0477, 115.6132
904.5298, 115.2372
905.0120, 115.2332
905.4941, 115.8379
905.9762, 116.2893
906.4583, 116.2846
906.9404, 116.2012
907.4225, 116.2597
907.9047, 116.3815
908.3868, 116.4399
908.8689, 116.4183
909.3510, 116.3826
909.8331, 116.3478
910.3152, 116.3526
910.7974, 116.4725
911.2795, 116.6449
911.7616, 116.7366
912.2437, 116.7559
912.7258, 116.8008
913.2079, 116.9172
913.6901, 117.1260
914.1722, 117.5460
914.6543, 118.0894
915.1364, 118.1598
915.6185, 117.7322
916.1006, 117.5948
916.5828, 118.0038
917.0649, 118.4672
917.5470, 118.5591
918.0291, 118.4036
918.5112, 118.4699
918.9933, 118.9085
919.4755, 119.1887
919.9576, 119.2679
920.4397, 119.2493
920.9218, 119.0517
921.4039, 118.8564
921.8860, 118.8903
922.3682, 119.1462
922.8503, 119.3727
923.3324, 119.4740
923.8145, 119.6256
924.2966, 119.9426
924.7787, 120.2683
925.2609, 120.4075
925.7430, 120.4750
926.2251, 120.8056
926.7072, 121.5102
927.1893, 121.9878
927.6714, 121.5375
928.1536, 120.9366
928.6357, 121.0076
929.1178, 121.5095
929.5999, 122.0276
930.0820, 122.4415
930.5641, 122.6676
931.0463, 122.6385
931.5284, 122.4826
932.0105, 122.3285
932.4926, 122.2194
932.9747, 122.4335
933.4568, 122.9545
933.9390, 123.1964
934.4211, 122.9099
934.9032, 122.6264
935.3853, 122.9793
935.8674, 123.8092
936.3495, 124.1363
936.8317, 123.8261
937.3138, 123.5697
937.7959, 123.3384
938.2780, 123.4292
938.7601, 124.2335
939.2422, 125.2764
939.7244, 125.6643
940.2065, 125.2460
940.6886, 125.0564
941.1707, 125.1873
941.6528, 125.4084
942.1349, 125.7268
942.6171, 126.0743
943.0992, 126.4814
943.5813, 126.8688
944.0634, 127.0111
944.5455, 126.7817
945.0276, 126.6317
945.5098, 126.5994
945.9919, 126.8276
946.4740, 127.6820
946.9561, 128.7044
947.4382, 129.2682
947.9203, 129.3318
948.4025, 129.2635
948.8846, 129.1911
949.3667, 129.2337
949.8488, 129.6853
950.3309, 130.2220
950.8130, 130.2023
951.2952, 129.7984
951.7773, 129.7157
952.2594, 130.1782
952.7415, 130.8085
953.2236, 131.3025
953.7057, 131.6383
954.1878, 131.6710
954.6699, 131.4668
955.1520, 131.4677
955.6342, 131.7368
956.1163, 132.1432
956.5984, 132.6397
957.0805, 133.1159
957.5626, 133.3651
958.0447, 133.3960
958.5269, 133.6313
959.0090, 134.1815
959.4911, 134.4301
959.9732, 134.1065
960.4553, 133.7593
960.9374, 133.7375
961.4196, 134.0365
961.9017, 133.8998
962.3838, 135.5849
962.8659, 136.6618
963.3480, 137.1631
963.8301, 135.3653
964.3123, 136.5365
964.7944, 136.5177
965.2765, 136.4502
965.7586, 138.0392
966.2407, 136.5758
966.7228, 138.1385
967.2050, 138.4933
967.6871, 139.4008
968.1692, 139.1113
968.6513, 139.1915
969.1334, 140.4692
969.6155, 141.0838
970.0977, 140.6565
970.5798, 141.5992
971.0619, 140.0656
971.5440, 140.1239
972.0261, 140.6291
972.5082, 141.1893
972.9904, 141.3526
973.4725, 141.2220
973.9546, 141.0477
974.4367, 140.9307
974.9188, 141.0041
975.4009, 141.4208
975.8831, 142.0310
976.3652, 142.7521
976.8473, 143.4728
977.3294, 143.8967
977.8115, 144.0567
978.2936, 144.3001
978.7758, 144.7929
979.2579, 145.2994
979.7400, 145.4401
980.2221, 145.9658
980.7042, 145.8432
981.1863, 146.7128
981.6685, 147.3580
982.1506, 147.6503
982.6327, 147.6179
983.1148, 147.2174
983.5969, 146.7951
984.0790, 147.1194
984.5612, 148.1983
985.0433, 148.7008
985.5254, 148.4852
986.0075, 148.5556
986.4896, 149.2352
986.9717, 150.0680
987.4539, 150.6915
987.9360, 151.1778
988.4181, 151.7789
988.9002, 152.6026
989.3823, 153.1368
989.8644, 153.2730
990.3466, 153.3135
990.8287, 153.1978
991.3108, 153.1992
991.7929, 153.7185
992.2750, 154.6231
992.7571, 155.1047
993.2393, 154.8125
993.7214, 154.7328
994.2035, 154.9798
994.6856, 155.3235
995.1677, 155.7323
995.6498, 156.1546
996.1320, 156.5760
996.6141, 156.9762
997.0962, 157.2126
997.5783, 156.8441
998.0604, 156.9985
998.5425, 158.6060
999.0247, 160.1413
999.5068, 160.4661
999.9889, 160.1963
1000.471, 160.1957
1000.953, 160.5995
1001.435, 161.2031
1001.917, 162.0706
1002.399, 162.8901
1002.882, 163.6530
1003.364, 164.1499
1003.846, 163.8930
1004.328, 163.3189
1004.810, 163.3075
1005.292, 164.0396
1005.774, 164.9190
1006.256, 165.6634
1006.739, 166.2822
1007.221, 166.8014
1007.703, 167.1897
1008.185, 167.2528
1008.667, 167.1552
1009.149, 167.4125
1009.631, 168.1758
1010.113, 168.9600
1010.595, 169.2632
1011.078, 169.4187
1011.560, 169.9764
1012.042, 170.7641
1012.524, 171.4008
1013.006, 171.8506
1013.488, 172.1850
1013.970, 172.4413
1014.452, 172.7371
1014.935, 173.1667
1015.417, 173.7631
1015.899, 174.8656
1016.381, 176.2513
1016.863, 176.6449
1017.345, 175.9640
1017.827, 175.5315
1018.309, 176.0370
1018.791, 176.9245
1019.274, 177.4224
1019.756, 177.6425
1020.238, 178.1993
1020.720, 179.0730
1021.202, 179.7430
1021.684, 180.1140
1022.166, 180.3608
1022.648, 180.5441
1023.130, 180.8646
1023.613, 181.7372
1024.095, 183.1038
1024.577, 183.9256
1025.059, 184.1316
1025.541, 184.3455
1026.023, 184.6767
1026.505, 185.0256
1026.987, 185.2867
1027.469, 185.6294
1027.952, 186.4256
1028.434, 187.7142
1028.916, 188.5603
1029.398, 188.8203
1029.880, 189.1517
1030.362, 189.6904
1030.844, 190.2994
1031.326, 190.9033
1031.809, 191.5078
1032.291, 192.1193
1032.773, 192.8076
1033.255, 193.4182
1033.737, 194.2372
1034.219, 195.0204
1034.701, 195.7977
1035.183, 196.4343
1035.666, 196.7117
1036.148, 196.8598
1036.630, 197.4180
1037.112, 198.5293
1037.594, 199.2284
1038.076, 199.1189
1038.558, 199.2220
1039.040, 199.8235
1039.522, 200.5571
1040.005, 201.1524
1040.487, 201.7252
1040.969, 202.5417
1041.451, 203.6664
1041.933, 204.7007
1042.415, 205.8767
1042.897, 206.6317
1043.379, 206.3592
1043.861, 206.1397
1044.344, 206.7177
1044.826, 207.8275
1045.308, 209.0536
1045.790, 210.4685
1046.272, 211.2698
1046.754, 210.6009
1047.236, 210.3814
1047.718, 211.3177
1048.201, 212.6219
1048.683, 213.9889
1049.165, 215.2424
1049.647, 216.0862
1050.129, 216.4446
1050.611, 216.8323
1051.093, 217.1963
1051.575, 217.7992
1052.057, 219.0609
1052.540, 220.2545
1053.022, 220.7225
1053.504, 220.7938
1053.986, 221.0948
1054.468, 221.7180
1054.950, 222.4233
1055.432, 223.2098
1055.914, 223.9841
1056.396, 224.7278
1056.879, 225.4361
1057.361, 226.0923
1057.843, 226.7138
1058.325, 227.2937
1058.807, 227.8384
1059.289, 228.5450
1059.771, 229.4653
1060.253, 230.5777
1060.736, 232.1820
1061.218, 233.6805
1061.700, 234.7018
1062.182, 235.2701
1062.664, 235.2402
1063.146, 234.6902
1063.628, 234.6993
1064.110, 236.1322
1064.593, 237.5221
1065.075, 238.1096
1065.557, 238.5824
1066.039, 239.5316
1066.521, 240.6907
1067.003, 241.5959
1067.485, 242.1884
1067.967, 242.7124
1068.449, 243.2456
1068.932, 243.7489
1069.414, 243.9809
1069.896, 244.4037
1070.378, 245.6030
1070.860, 247.0806
1071.342, 248.0683
1071.824, 248.5468
1072.306, 249.1782
1072.788, 250.3461
1073.271, 251.3679
1073.753, 251.6244
1074.235, 251.9348
1074.717, 253.0579
1075.199, 254.4942
1075.681, 255.5699
1076.163, 256.2570
1076.645, 256.9258
1077.127, 257.7435
1077.610, 258.4325
1078.092, 258.6108
1078.574, 258.9002
1079.056, 259.8669
1079.538, 261.0874
1080.020, 262.1642
1080.502, 262.9968
1080.984, 263.3978
1081.467, 263.1334
1081.949, 263.3295
1082.431, 264.8551
1082.913, 266.5746
1083.395, 267.8652
1083.877, 268.9290
1084.359, 270.0482
1084.841, 271.1513
1085.323, 271.9147
1085.806, 272.1993
1086.288, 272.6772
1086.770, 273.6869
1087.252, 274.8904
1087.734, 276.5338
1088.216, 277.9366
1088.698, 278.2134
1089.180, 277.8294
1089.662, 277.8233
1090.145, 278.4114
1090.627, 279.0705
1091.109, 279.2749
1091.591, 279.9543
1092.073, 281.9718
1092.555, 284.1695
1093.037, 285.7366
1093.519, 286.7724
1094.002, 287.4818
1094.484, 287.9250
1094.966, 288.3559
1095.448, 288.5941
1095.930, 289.2148
1096.412, 290.6050
1096.894, 292.2199
1097.376, 293.9070
1097.859, 295.5004
1098.341, 296.7749
1098.823, 297.7523
1099.305, 298.7365
1099.787, 299.8128
1100.269, 300.8671
1100.751, 301.9006
1101.233, 302.8628
1101.715, 303.6884
1102.198, 304.4669
1102.680, 305.1841
1103.162, 305.9333
1103.644, 307.0610
1104.126, 308.8135
1104.608, 310.3272
1105.090, 311.1191
1105.572, 312.0793
1106.054, 313.5636
1106.537, 315.2968
1107.019, 317.1858
1107.501, 319.1239
1107.983, 320.9215
1108.465, 322.6060
1108.947, 323.9303
1109.429, 324.1240
1109.911, 325.0225
1110.394, 327.8763
1110.876, 330.5926
1111.358, 331.6305
1111.840, 331.8633
1112.322, 332.6750
1112.804, 334.0945
1113.286, 335.7632
1113.768, 337.7604
1114.250, 339.8745
1114.733, 342.4122
1115.215, 344.6114
1115.697, 345.8860
1116.179, 346.9079
1116.661, 348.4703
1117.143, 350.4956
1117.625, 352.4175
1118.107, 354.3118
1118.589, 355.8624
1119.072, 356.6689
1119.554, 357.9647
1120.036, 360.3782
1120.518, 363.0197
1121.000, 365.0982
1121.482, 366.8627
1121.964, 369.0926
1122.446, 371.1125
1122.929, 373.0584
1123.411, 375.4775
1123.893, 377.1235
1124.375, 379.5344
1124.857, 381.7952
1125.339, 383.1607
1125.821, 384.4007
1126.303, 386.9736
1126.786, 390.7588
1127.268, 393.4285
1127.750, 394.8036
1128.232, 396.6179
1128.714, 399.1568
1129.196, 401.5356
1129.678, 403.3125
1130.160, 404.9521
1130.642, 406.9809
1131.125, 409.2997
1131.607, 411.5092
1132.089, 413.6296
1132.571, 416.0417
1133.053, 418.7744
1133.535, 421.3766
1134.017, 423.7142
1134.499, 426.0967
1134.981, 428.8004
1135.464, 431.5013
1135.946, 433.3306
1136.428, 436.1407
1136.910, 438.6920
1137.392, 440.9980
1137.874, 444.0077
1138.356, 446.1707
1138.838, 448.5353
1139.321, 451.6528
1139.803, 454.7750
1140.285, 456.9879
1140.767, 458.7679
1141.249, 460.9529
1141.731, 463.4210
1142.213, 465.9628
1142.695, 468.5186
1143.177, 471.1166
1143.660, 473.7153
1144.142, 475.8480
1144.624, 476.8159
1145.106, 478.1102
1145.588, 481.7895
1146.070, 486.3004
1146.552, 489.9424
1147.034, 492.7919
1147.516, 494.9728
1147.999, 496.7559
1148.481, 498.9013
1148.963, 501.7618
1149.445, 504.8491
1149.927, 508.2511
1150.409, 511.3180
1150.891, 513.0787
1151.373, 514.6561
1151.856, 517.3079
1152.338, 520.7823
1152.820, 524.4412
1153.302, 528.1406
1153.784, 531.1074
1154.266, 532.4757
1154.748, 533.9542
1155.230, 535.8701
1155.713, 538.3250
1156.195, 542.1061
1156.677, 546.0043
1157.159, 548.1823
1157.641, 548.8883
1158.123, 550.4659
1158.605, 553.5944
1159.087, 556.6508
1159.569, 559.6849
1160.052, 562.4433
1160.534, 564.4669
1161.016, 566.6717
1161.498, 570.0069
1161.980, 573.8228
1162.462, 576.5286
1162.944, 577.9060
1163.426, 580.6700
1163.908, 585.4281
1164.391, 589.7938
1164.873, 593.4306
1165.355, 596.6334
1165.837, 599.4509
1166.319, 602.1254
1166.801, 604.8802
1167.283, 607.8077
1167.765, 611.5186
1168.247, 616.0610
1168.730, 619.7551
1169.212, 622.4901
1169.694, 625.4201
1170.176, 628.8431
1170.658, 632.6317
1171.140, 636.7062
1171.622, 641.0699
1172.104, 645.9031
1172.587, 650.9677
1173.069, 655.4778
1173.551, 659.5351
1174.033, 663.5328
1174.515, 667.5175
1174.997, 671.2484
1175.479, 674.7162
1175.961, 678.6451
1176.443, 683.5952
1176.926, 689.4410
1177.408, 696.5471
1177.890, 704.0646
1178.372, 711.3543
1178.854, 717.8243
1179.336, 722.2734
1179.818, 724.9081
1180.300, 726.9324
1180.782, 728.6605
1181.265, 731.3688
1181.747, 736.3690
1182.229, 741.9485
1182.711, 747.0297
1183.193, 752.1025
1183.675, 757.8128
1184.157, 763.8210
1184.639, 769.3449
1185.122, 774.3245
1185.604, 779.7857
1186.086, 786.7833
1186.568, 792.9777
1187.050, 796.9034
1187.532, 801.3013
1188.014, 807.6337
1188.496, 814.6644
1188.979, 821.2819
1189.461, 827.6423
1189.943, 834.0465
1190.425, 840.5038
1190.907, 846.8641
1191.389, 853.0020
1191.871, 859.3124
1192.353, 865.7922
1192.835, 872.5831
1193.318, 879.7347
1193.800, 887.3209
1194.282, 895.5426
1194.764, 904.0685
1195.246, 911.2667
1195.728, 917.2175
1196.210, 924.1376
1196.692, 932.0656
1197.174, 940.5935
1197.657, 949.5231
1198.139, 957.9355
1198.621, 965.2444
1199.103, 971.8455
1199.585, 977.6933
1200.067, 983.5707
1200.549, 991.4713
1201.031, 1000.554
1201.514, 1009.214
1201.996, 1017.308
1202.478, 1024.831
1202.960, 1031.984
1203.442, 1039.813
1203.924, 1049.205
1204.406, 1058.652
1204.888, 1067.233
1205.370, 1075.120
1205.853, 1081.755
1206.335, 1088.241
1206.817, 1096.048
1207.299, 1104.852
1207.781, 1113.459
1208.263, 1121.590
1208.745, 1129.887
1209.227, 1139.189
1209.709, 1147.561
1210.192, 1152.668
1210.674, 1159.144
1211.156, 1170.866
1211.638, 1183.718
1212.120, 1193.618
1212.602, 1201.209
1213.084, 1208.705
1213.566, 1215.910
1214.049, 1224.022
1214.531, 1233.201
1215.013, 1242.771
1215.495, 1252.797
1215.977, 1262.264
1216.459, 1270.550
1216.941, 1278.300
1217.423, 1286.303
1217.906, 1293.800
1218.388, 1301.708
1218.870, 1308.488
1219.352, 1315.367
1219.834, 1322.511
1220.316, 1330.399
1220.798, 1339.135
1221.280, 1349.027
1221.762, 1360.375
1222.245, 1370.349
1222.727, 1374.656
1223.209, 1377.564
1223.691, 1384.157
1224.173, 1392.182
1224.655, 1398.751
1225.137, 1404.246
1225.619, 1409.833
1226.101, 1415.745
1226.584, 1421.997
1227.066, 1428.809
1227.548, 1435.217
1228.030, 1440.877
1228.512, 1446.067
1228.994, 1450.551
1229.476, 1454.979
1229.958, 1459.738
1230.441, 1464.859
1230.923, 1470.394
1231.405, 1476.348
1231.887, 1482.422
1232.369, 1489.085
1232.851, 1494.258
1233.333, 1497.432
1233.815, 1500.589
1234.297, 1504.297
1234.780, 1508.239
1235.262, 1512.235
1235.744, 1516.187
1236.226, 1520.020
1236.708, 1523.624
1237.190, 1526.673
1237.672, 1529.134
1238.154, 1530.677
1238.636, 1531.523
1239.119, 1532.704
1239.601, 1534.562
1240.083, 1537.111
1240.565, 1540.499
1241.047, 1543.918
1241.529, 1547.172
1242.011, 1549.508
1242.493, 1548.975
1242.975, 1548.091
1243.458, 1550.242
1243.940, 1554.473
1244.422, 1558.424
1244.904, 1561.647
1245.386, 1564.037
1245.868, 1565.276
1246.350, 1566.227
1246.832, 1566.267
1247.315, 1567.102
1247.797, 1570.134
1248.279, 1573.054
1248.761, 1573.641
1249.243, 1577.285
1249.725, 1576.677
1250.207, 1582.383
1250.689, 1585.981
1251.172, 1587.365
1251.654, 1587.030
1252.136, 1584.892
1252.618, 1584.282
1253.100, 1586.193
1253.582, 1589.265
1254.064, 1592.677
1254.546, 1595.455
1255.028, 1595.796
1255.510, 1594.881
1255.993, 1594.265
1256.475, 1594.418
1256.957, 1596.651
1257.439, 1600.310
1257.921, 1603.959
1258.403, 1607.121
1258.885, 1609.478
1259.367, 1610.700
1259.850, 1611.854
1260.332, 1613.766
1260.814, 1615.296
1261.296, 1615.039
1261.778, 1615.080
1262.260, 1617.175
1262.742, 1620.547
1263.224, 1624.275
1263.707, 1628.160
1264.189, 1630.277
1264.671, 1629.444
1265.153, 1630.972
1265.635, 1635.300
1266.117, 1640.457
1266.599, 1646.339
1267.081, 1650.303
1267.563, 1650.633
1268.046, 1650.587
1268.528, 1654.259
1269.010, 1660.018
1269.492, 1664.112
1269.974, 1667.278
1270.456, 1671.305
1270.938, 1676.124
1271.420, 1681.672
1271.902, 1687.465
1272.385, 1691.708
1272.867, 1693.706
1273.349, 1696.422
1273.831, 1702.016
1274.313, 1708.249
1274.795, 1713.833
1275.277, 1719.947
1275.759, 1728.581
1276.242, 1737.285
1276.724, 1742.699
1277.206, 1745.933
1277.688, 1750.799
1278.170, 1757.517
1278.652, 1763.793
1279.134, 1769.161
1279.616, 1775.984
1280.099, 1784.874
1280.581, 1793.153
1281.063, 1799.840
1281.545, 1805.463
1282.027, 1810.255
1282.509, 1815.602
1282.991, 1824.577
1283.473, 1835.423
1283.955, 1844.745
##END=



