##NAMES=Franckeite
##RRUFFID=R140342
##IDEAL CHEMISTRY=Pb^2+^_21.7_Sn^4+^_9.3_(Fe^2+^,Fe^3+^)_4.0_Sb^3+^_8.1_S^2-^_56.9_
##LOCALITY=Pacific Limestone Products Quarry, near Santa Cruz, Santa Cruz County, California, USA
##OWNER=RRUFF
##SOURCE=James Shigley
##DESCRIPTION=Black anhedral crystals
##STATUS=The identification of this mineral has been confirmed only by single crystal X-ray diffraction.
##URL=rruff.info/R140342
104.2467, 0.0000000E+00
104.7288, 0.6192630
105.2109, 1.094086
105.6931, 5.2216001E-02
106.1752, 0.3477480
106.6573, 0.4229740
107.1394, 1.846313
107.6215, 4.827026
108.1036, 10.42200
108.5858, 17.92255
109.0679, 23.47754
109.5500, 26.90491
110.0321, 28.68985
110.5142, 29.08603
110.9963, 26.16589
111.4785, 24.06491
111.9606, 23.39490
112.4427, 24.10364
112.9248, 25.06140
113.4069, 26.07089
113.8890, 27.26697
114.3712, 28.77600
114.8533, 30.88556
115.3354, 33.04944
115.8175, 35.01581
116.2996, 36.77243
116.7817, 38.73315
117.2639, 41.43753
117.7460, 44.35495
118.2281, 46.81119
118.7102, 48.82126
119.1923, 50.12891
119.6744, 50.41385
120.1566, 49.49796
120.6387, 48.23239
121.1208, 46.75647
121.6029, 45.29111
122.0850, 44.30927
122.5671, 44.07520
123.0493, 44.41431
123.5314, 45.16885
124.0135, 46.32849
124.4956, 47.83298
124.9777, 50.50308
125.4598, 53.78271
125.9420, 55.52304
126.4241, 53.06516
126.9062, 48.24603
127.3883, 44.44330
127.8704, 42.52310
128.3525, 41.69040
128.8347, 40.79214
129.3168, 39.84641
129.7989, 39.24078
130.2810, 39.75262
130.7631, 41.00705
131.2452, 41.41986
131.7274, 40.22974
132.2095, 38.11581
132.6916, 37.08929
133.1737, 37.29938
133.6558, 37.51691
134.1379, 36.24808
134.6201, 33.52420
135.1022, 31.19772
135.5843, 29.92566
136.0664, 29.56998
136.5485, 29.14722
137.0306, 28.62732
137.5128, 28.10916
137.9949, 27.69449
138.4770, 27.38821
138.9591, 27.13025
139.4412, 26.75372
139.9233, 26.19266
140.4055, 26.58725
140.8876, 28.50388
141.3697, 30.78683
141.8518, 31.47119
142.3339, 30.06992
142.8160, 28.15826
143.2982, 26.18207
143.7803, 24.01929
144.2624, 22.25119
144.7445, 20.99023
145.2266, 20.09302
145.7087, 19.27640
146.1909, 18.44675
146.6730, 17.80338
147.1551, 17.42178
147.6372, 17.36890
148.1193, 17.50174
148.6014, 18.21481
149.0836, 19.17566
149.5657, 19.21826
150.0478, 17.35699
150.5299, 15.37469
151.0120, 14.03528
151.4941, 13.82028
151.9763, 13.68469
152.4584, 13.61597
152.9405, 13.60883
153.4226, 13.64191
153.9047, 13.76651
154.3868, 13.89230
154.8690, 13.96918
155.3511, 13.85410
155.8332, 13.85410
156.3153, 14.36279
156.7974, 15.25058
157.2795, 15.31607
157.7617, 13.55200
158.2438, 11.38620
158.7259, 9.685425
159.2080, 9.325043
159.6901, 9.281067
160.1722, 9.234802
160.6544, 9.115967
161.1365, 8.845245
161.6186, 8.087097
162.1007, 7.169861
162.5828, 6.553192
163.0649, 6.252350
163.5471, 6.372253
164.0292, 7.367249
164.5113, 9.251587
164.9934, 10.49664
165.4755, 9.881958
165.9576, 8.308411
166.4398, 6.901093
166.9219, 6.078186
167.4040, 5.538177
167.8861, 5.145477
168.3682, 4.911530
168.8503, 4.690643
169.3325, 4.264252
169.8146, 3.814453
170.2967, 3.635040
170.7788, 3.948578
171.2609, 4.507385
171.7430, 5.206696
172.2252, 6.118988
172.7073, 6.801910
173.1894, 6.843018
173.6715, 6.405182
174.1536, 5.835846
174.6357, 5.160706
175.1179, 4.482666
175.6000, 3.942291
176.0821, 3.607819
176.5642, 3.332581
177.0463, 2.983246
177.5284, 2.576355
178.0106, 2.202576
178.4927, 2.001495
178.9748, 1.857910
179.4569, 1.495544
179.9390, 0.8027340
180.4211, 0.2260740
180.9033, 0.5227360
181.3854, 1.489471
181.8675, 2.210632
182.3496, 1.831360
182.8317, 0.8461610
183.3138, 0.4915470
183.7960, 1.024994
184.2781, 1.855316
184.7602, 2.161896
185.2423, 1.985687
185.7244, 1.665649
186.2065, 1.184143
186.6887, 0.6763310
187.1708, 0.7364200
187.6529, 1.569214
188.1350, 2.683990
188.6171, 3.286865
189.0992, 3.386505
189.5814, 3.191467
190.0635, 2.654755
190.5456, 1.839569
191.0277, 1.278625
191.5098, 1.042023
191.9919, 1.079712
192.4741, 1.413757
192.9562, 2.061096
193.4383, 2.664917
193.9204, 2.941742
194.4025, 2.807892
194.8846, 2.537964
195.3668, 2.119812
195.8489, 1.646698
196.3310, 1.307709
196.8131, 1.095001
197.2952, 1.073029
197.7773, 1.442139
198.2595, 2.220886
198.7416, 2.567474
199.2237, 2.268341
199.7058, 1.570496
200.1879, 1.155273
200.6700, 1.057739
201.1522, 1.073303
201.6343, 1.064423
202.1164, 1.023926
202.5985, 1.047821
203.0806, 1.156525
203.5627, 1.332886
204.0449, 1.615784
204.5270, 2.116211
205.0091, 2.350555
205.4912, 1.758270
205.9733, 8.8042997E-02
206.4554, 0.8846440
206.9376, 0.7584530
207.4197, 0.1539310
207.9018, 0.6646120
208.3839, 0.6903080
208.8660, 0.5294490
209.3481, 0.4263920
209.8303, 0.4590450
210.3124, 0.1550290
210.7945, 0.7568660
211.2766, 2.000946
211.7587, 2.370667
212.2408, 1.503357
212.7230, 0.5200500
213.2051, 0.2078250
213.6872, 0.7962650
214.1693, 1.300781
214.6514, 1.686340
215.1335, 1.914246
215.6157, 1.701202
216.0978, 0.8343510
216.5799, 6.5552004E-02
217.0620, 0.5978700
217.5441, 0.6773990
218.0262, 0.6009520
218.5084, 0.3122560
218.9905, 0.1199950
219.4726, 0.3143620
219.9547, 0.1767880
220.4368, 3.7018001E-02
220.9189, 0.1756900
221.4011, 0.2381590
221.8832, 0.2420650
222.3653, 0.1746220
222.8474, 5.5542000E-02
223.3295, 6.0089000E-02
223.8116, 0.2045290
224.2938, 0.2824100
224.7759, 0.2046200
225.2580, 0.1565860
225.7401, 0.3542180
226.2222, 0.3060910
226.7043, 6.7199998E-02
227.1865, 0.1608280
227.6686, 0.4627990
228.1507, 0.6130070
228.6328, 0.4159550
229.1149, 0.4756160
229.5970, 0.9048770
230.0792, 0.6134640
230.5613, 0.1895140
231.0434, 0.6784670
231.5255, 0.7644040
232.0076, 0.6492310
232.4897, 0.3666690
232.9719, 0.3545840
233.4540, 0.6149900
233.9361, 0.1416630
234.4182, 0.7957150
234.9003, 1.230652
235.3824, 0.9539790
235.8646, 0.5346370
236.3467, 0.2223510
236.8288, 4.2847000E-02
237.3109, 9.1858000E-02
237.7930, 9.5367000E-02
238.2751, 6.2286001E-02
238.7573, 0.3251950
239.2394, 1.103241
239.7215, 1.836548
240.2036, 2.274811
240.6857, 2.333405
241.1678, 2.256958
241.6500, 1.945587
242.1321, 1.525116
242.6142, 1.315277
243.0963, 1.381317
243.5784, 1.574158
244.0605, 1.873871
244.5427, 2.488892
245.0248, 2.681366
245.5069, 2.265656
245.9890, 1.503754
246.4711, 0.9613950
246.9532, 0.6458130
247.4354, 0.5370790
247.9175, 0.6831670
248.3996, 1.224396
248.8817, 1.592346
249.3638, 1.821686
249.8459, 1.866669
250.3281, 1.489105
250.8102, 8.1479996E-03
251.2923, 0.6788330
251.7744, 0.5704960
252.2565, 4.662354
252.7386, 6.622650
253.2208, 5.542480
253.7029, 2.999847
254.1850, 1.424957
254.6671, 1.132568
255.1492, 1.194489
255.6313, 1.416870
256.1135, 1.850891
256.5956, 2.026733
257.0777, 1.754333
257.5598, 1.395630
258.0419, 1.507446
258.5240, 2.380585
259.0062, 3.050140
259.4883, 3.192596
259.9704, 2.766449
260.4525, 2.445831
260.9346, 2.279388
261.4167, 2.166626
261.8989, 1.948456
262.3810, 1.499817
262.8631, 1.308197
263.3452, 1.545013
263.8273, 2.214691
264.3094, 2.884918
264.7916, 3.725006
265.2737, 4.405060
265.7558, 4.481140
266.2379, 3.713898
266.7200, 3.144043
267.2021, 2.998749
267.6843, 3.241669
268.1664, 3.501648
268.6485, 3.754700
269.1306, 3.966187
269.6127, 4.206299
270.0948, 4.577087
270.5770, 4.825439
271.0591, 4.833252
271.5412, 4.617920
272.0233, 4.442902
272.5054, 4.361450
272.9875, 4.192841
273.4697, 3.693634
273.9518, 2.764679
274.4339, 2.419891
274.9160, 2.965240
275.3981, 4.012939
275.8802, 4.305298
276.3624, 3.676788
276.8445, 2.936188
277.3266, 2.615936
277.8087, 2.762634
278.2908, 2.861420
278.7729, 2.845520
279.2551, 2.780762
279.7372, 2.890625
280.2193, 3.228577
280.7014, 3.393402
281.1835, 2.994690
281.6656, 2.045013
282.1478, 1.611633
282.6299, 1.886078
283.1120, 2.421509
283.5941, 2.364624
284.0762, 1.682037
284.5583, 1.040924
285.0405, 0.6256410
285.5226, 0.4540410
286.0047, 0.9389650
286.4868, 2.293945
286.9689, 3.693542
287.4510, 3.747223
287.9332, 2.523193
288.4153, 1.419342
288.8974, 1.048340
289.3795, 1.265350
289.8616, 1.621796
290.3438, 2.172150
290.8259, 2.561066
291.3080, 2.099945
291.7901, 0.9513850
292.2722, 9.4146997E-02
292.7543, 4.8370000E-02
293.2365, 0.3513490
293.7186, 1.011749
294.2007, 1.929932
294.6828, 2.589874
295.1649, 2.221252
295.6470, 1.156372
296.1292, 0.5270080
296.6113, 0.8072810
297.0934, 1.503479
297.5755, 1.826019
298.0576, 1.805054
298.5397, 1.751953
299.0219, 2.054382
299.5040, 2.482300
299.9861, 2.388062
300.4682, 1.320496
300.9503, 0.3762510
301.4324, 1.239044
301.9146, 3.519623
302.3967, 5.608643
302.8788, 6.624512
303.3609, 6.786865
303.8430, 6.194885
304.3251, 4.657623
304.8073, 3.135498
305.2894, 2.451874
305.7715, 2.479431
306.2536, 2.869537
306.7357, 3.984222
307.2178, 5.076630
307.7000, 5.200775
308.1821, 4.189667
308.6642, 3.077942
309.1463, 2.590179
309.6284, 2.623566
310.1105, 2.814819
310.5927, 3.116180
311.0748, 3.443512
311.5569, 3.801178
312.0390, 4.183716
312.5211, 4.394165
313.0032, 4.284119
313.4854, 3.970978
313.9675, 3.580322
314.4496, 2.855377
314.9317, 2.348297
315.4138, 2.457672
315.8959, 3.120575
316.3781, 3.785339
316.8602, 4.238770
317.3423, 4.507446
317.8244, 4.567261
318.3065, 4.385925
318.7886, 4.237701
319.2708, 4.188385
319.7529, 4.238098
320.2350, 4.387207
320.7171, 4.736359
321.1992, 5.100494
321.6813, 5.392731
322.1635, 5.618988
322.6456, 5.741394
323.1277, 5.594971
323.6098, 5.359253
324.0919, 5.332825
324.5740, 5.912872
325.0562, 6.383392
325.5383, 6.454529
326.0204, 5.968353
326.5025, 5.690979
326.9846, 5.938293
327.4667, 6.313812
327.9489, 6.396149
328.4310, 5.768860
328.9131, 5.340271
329.3952, 5.398651
329.8773, 5.909088
330.3594, 6.062347
330.8416, 5.610931
331.3237, 5.080780
331.8058, 4.859161
332.2879, 5.227722
332.7700, 5.415009
333.2521, 5.198822
333.7343, 4.704376
334.2164, 4.633606
334.6985, 5.196167
335.1806, 5.869476
335.6627, 6.434753
336.1448, 6.993347
336.6270, 7.167297
337.1091, 6.700989
337.5912, 5.956360
338.0733, 5.822479
338.5554, 6.521301
339.0375, 7.060699
339.5197, 6.992859
340.0018, 6.281036
340.4839, 5.828766
340.9660, 5.664886
341.4481, 5.718872
341.9302, 5.982971
342.4124, 6.475616
342.8945, 6.865082
343.3766, 7.135681
343.8587, 7.248322
344.3408, 6.763397
344.8229, 5.580536
345.3051, 4.473785
345.7872, 4.308167
346.2693, 4.935822
346.7514, 5.340607
347.2335, 5.228271
347.7156, 4.910400
348.1978, 5.172089
348.6799, 5.946899
349.1620, 6.402557
349.6441, 5.583984
350.1262, 4.047302
350.6083, 3.222839
351.0905, 3.387787
351.5726, 3.915283
352.0547, 4.164276
352.5368, 4.196625
353.0189, 4.189850
353.5010, 4.157867
353.9832, 4.158844
354.4653, 4.313354
354.9474, 4.630676
355.4295, 4.938324
355.9116, 5.262421
356.3937, 5.452972
356.8759, 5.283478
357.3580, 4.184265
357.8401, 3.101410
358.3222, 2.801453
358.8043, 3.158905
359.2864, 3.488403
359.7686, 3.360840
360.2507, 3.061829
360.7328, 2.820343
361.2149, 2.594391
361.6970, 2.580566
362.1791, 3.059601
362.6613, 3.811707
363.1434, 4.333466
363.6255, 4.377045
364.1076, 4.219879
364.5897, 3.948486
365.0718, 3.527527
365.5540, 3.170319
366.0361, 2.950195
366.5182, 2.802338
367.0003, 2.649261
367.4824, 2.452332
367.9645, 2.284821
368.4467, 2.171982
368.9288, 2.122635
369.4109, 2.080246
369.8930, 2.119431
370.3751, 2.116592
370.8572, 1.992874
371.3394, 1.765610
371.8215, 1.390778
372.3036, 0.7823030
372.7857, 2.4901999E-02
373.2678, 0.6323090
373.7499, 1.351074
374.2321, 1.701965
374.7142, 1.343735
375.1963, 9.8719997E-03
375.6784, 0.8164980
376.1605, 0.9281770
376.6426, 0.6667180
377.1248, 0.4851230
377.6069, 0.3751530
378.0890, 0.3782810
378.5711, 0.5875400
379.0532, 0.9464260
379.5353, 0.9807890
380.0175, 0.6394350
380.4996, 0.2342530
380.9817, 4.3411002E-02
381.4638, 5.3817999E-02
381.9459, 0.1618650
382.4280, 0.3773800
382.9102, 0.6368870
383.3923, 0.8156590
383.8744, 0.9178920
384.3565, 0.9940640
384.8386, 1.201340
385.3207, 1.385025
385.8029, 1.092377
386.2850, 0.1731110
386.7671, 0.6734770
387.2492, 0.5359800
387.7313, 0.2282410
388.2134, 0.8052520
388.6956, 0.6837310
389.1777, 0.3010250
389.6598, 1.0162000E-02
390.1419, 0.2372280
390.6240, 0.3538970
391.1061, 0.2598270
391.5883, 7.9513997E-02
392.0704, 7.1990997E-02
392.5525, 0.2902370
393.0346, 0.3049010
393.5167, 0.2398220
393.9988, 1.112320
394.4810, 1.670532
394.9631, 1.601929
395.4452, 1.233948
395.9273, 0.6440730
396.4094, 0.3131260
396.8915, 0.9944460
397.3737, 1.116257
397.8558, 0.9499820
398.3379, 0.8296050
398.8200, 0.6969300
399.3021, 0.7031100
399.7842, 0.9620820
400.2664, 1.469284
400.7485, 1.763931
401.2306, 1.714157
401.7127, 1.570847
402.1948, 1.489868
402.6769, 1.505661
403.1591, 1.510025
403.6412, 1.523727
404.1233, 1.508865
404.6054, 1.328629
405.0875, 0.8944850
405.5696, 0.5674900
406.0518, 0.5653840
406.5339, 0.9054110
407.0160, 0.9580080
407.4981, 0.6119840
407.9802, 0.3048550
408.4623, 0.7417300
408.9445, 1.905243
409.4266, 2.622284
409.9087, 2.406693
410.3908, 1.709824
410.8729, 1.669769
411.3550, 2.268478
411.8372, 2.864731
412.3193, 2.914780
412.8014, 2.631516
413.2835, 2.516434
413.7656, 2.649109
414.2477, 2.889099
414.7299, 3.145203
415.2120, 3.390717
415.6941, 3.557480
416.1762, 3.440094
416.6583, 3.338882
417.1404, 3.619919
417.6226, 4.265564
418.1047, 4.773453
418.5868, 4.729813
419.0689, 4.464706
419.5510, 4.281509
420.0331, 4.163574
420.5153, 4.276825
420.9974, 4.948273
421.4795, 5.921371
421.9616, 6.514893
422.4437, 6.195465
422.9258, 5.782547
423.4080, 5.636627
423.8901, 5.876038
424.3722, 6.060669
424.8543, 6.263992
425.3364, 6.353592
425.8185, 6.186707
426.3007, 5.520111
426.7828, 4.940414
427.2649, 4.422119
427.7470, 4.023422
428.2291, 4.223984
428.7112, 5.407822
429.1934, 6.510391
429.6755, 6.880920
430.1576, 6.327530
430.6397, 5.974030
431.1218, 5.884232
431.6039, 5.877914
432.0861, 5.697067
432.5682, 5.375732
433.0503, 5.126251
433.5324, 4.898834
434.0145, 4.706131
434.4966, 4.629272
434.9788, 4.669998
435.4609, 4.854263
435.9430, 5.452911
436.4251, 6.232574
436.9072, 6.413483
437.3893, 5.630417
437.8715, 4.784531
438.3536, 5.111862
438.8357, 6.248779
439.3178, 7.180298
439.7999, 7.247787
440.2820, 6.956497
440.7642, 6.701248
441.2463, 6.498901
441.7284, 6.365005
442.2105, 6.347961
442.6926, 6.378082
443.1747, 6.390823
443.6569, 6.432434
444.1390, 6.352402
444.6211, 5.885544
445.1032, 5.259018
445.5853, 5.014740
446.0674, 5.628265
446.5496, 6.239502
447.0317, 6.493668
447.5138, 6.229004
447.9959, 6.122955
448.4780, 6.387131
448.9601, 6.698776
449.4423, 6.704300
449.9244, 6.152725
450.4065, 5.830917
450.8886, 5.978851
451.3707, 6.415771
451.8528, 6.360168
452.3350, 5.685165
452.8171, 5.009689
453.2992, 4.633698
453.7813, 4.569702
454.2634, 4.769897
454.7455, 5.266312
455.2277, 5.750946
455.7098, 5.760925
456.1919, 5.362610
456.6740, 5.022003
457.1561, 4.885132
457.6382, 4.909180
458.1204, 5.028748
458.6025, 5.246216
459.0846, 5.569092
459.5667, 6.182587
460.0488, 6.842773
460.5309, 7.206940
461.0131, 7.186066
461.4952, 7.069214
461.9773, 7.077026
462.4594, 7.111359
462.9415, 7.027618
463.4236, 6.506989
463.9058, 6.108704
464.3879, 6.200562
464.8700, 6.716095
465.3521, 7.040466
465.8342, 6.874878
466.3163, 6.593231
466.7985, 6.385071
467.2806, 6.196594
467.7627, 6.197571
468.2448, 6.581909
468.7269, 7.071991
469.2090, 7.274994
469.6912, 7.075378
470.1733, 6.783600
470.6554, 6.382263
471.1375, 5.912415
471.6196, 5.825287
472.1017, 6.234039
472.5839, 6.707916
473.0660, 6.992889
473.5481, 7.085693
474.0302, 6.968536
474.5123, 6.562988
474.9944, 6.166748
475.4766, 6.401764
475.9587, 7.140594
476.4408, 7.563385
476.9229, 7.122833
477.4050, 6.306213
477.8871, 5.912994
478.3693, 5.914368
478.8514, 6.018494
479.3335, 6.083862
479.8156, 6.109680
480.2977, 6.052429
480.7798, 5.837799
481.2620, 5.763397
481.7441, 6.143005
482.2262, 6.739563
482.7083, 7.202057
483.1904, 7.257874
483.6725, 7.288269
484.1547, 7.372925
484.6368, 7.534119
485.1189, 7.940765
485.6010, 9.121124
486.0831, 9.998657
486.5652, 10.02878
487.0474, 8.635529
487.5295, 7.674744
488.0116, 7.260773
488.4937, 7.246857
488.9758, 7.432648
489.4579, 7.872314
489.9401, 8.095123
490.4222, 8.006134
490.9043, 7.658630
491.3864, 7.138519
491.8685, 6.378387
492.3506, 5.908569
492.8328, 6.395935
493.3149, 7.558380
493.7970, 8.026978
494.2791, 7.617584
494.7612, 6.945465
495.2433, 6.658447
495.7255, 6.662048
496.2076, 6.699677
496.6897, 6.665710
497.1718, 6.642426
497.6539, 6.770508
498.1360, 6.994934
498.6182, 7.100128
499.1003, 6.799133
499.5824, 6.457001
500.0645, 6.352509
500.5466, 6.567291
501.0287, 6.778351
501.5109, 7.045135
501.9930, 7.191895
502.4751, 7.037964
502.9572, 6.126495
503.4393, 5.427582
503.9214, 5.109100
504.4036, 5.084442
504.8857, 5.056519
505.3678, 5.044769
505.8499, 4.990814
506.3320, 4.842316
506.8141, 4.587006
507.2963, 4.510529
507.7784, 4.647949
508.2605, 4.880890
508.7426, 5.081207
509.2247, 5.203033
509.7068, 5.310242
510.1890, 5.485718
510.6711, 5.686401
511.1532, 5.664948
511.6353, 5.427338
512.1174, 5.253143
512.5995, 5.367096
513.0817, 5.649780
513.5638, 5.993347
514.0459, 6.366577
514.5280, 6.582916
515.0101, 6.482910
515.4922, 6.244995
515.9744, 6.000854
516.4565, 5.743408
516.9386, 5.422272
517.4207, 4.996765
517.9028, 4.545471
518.3849, 4.189941
518.8671, 4.104065
519.3492, 3.946655
519.8313, 3.482483
520.3134, 2.766998
520.7955, 2.650482
521.2776, 3.565552
521.7598, 4.447357
522.2419, 4.577484
522.7240, 3.740143
523.2061, 3.322906
523.6882, 3.459808
524.1703, 3.769806
524.6525, 3.657013
525.1346, 3.162842
525.6167, 3.000519
526.0988, 3.565674
526.5809, 4.332825
527.0630, 4.221405
527.5452, 3.367859
528.0273, 2.550842
528.5094, 2.274719
528.9915, 2.261902
529.4736, 2.169830
529.9557, 1.966644
530.4379, 1.889252
530.9200, 2.376343
531.4021, 2.912384
531.8842, 2.964539
532.3663, 1.919189
532.8484, 1.069672
533.3306, 0.7922060
533.8127, 0.9213260
534.2948, 1.123016
534.7769, 1.553711
535.2590, 1.844177
535.7411, 1.887817
536.2233, 1.693542
536.7054, 1.482025
537.1875, 1.244141
537.6696, 1.019867
538.1517, 0.8424380
538.6339, 0.7200620
539.1160, 0.5603030
539.5981, 0.3255920
540.0802, 0.1546630
540.5623, 0.4038390
541.0444, 0.9526370
541.5266, 1.074249
542.0087, 0.2485960
542.4908, 0.7796020
542.9729, 0.8179020
543.4550, 7.6080002E-02
543.9371, 0.6098940
544.4193, 0.8498840
544.9014, 0.7812810
545.3835, 0.3511050
545.8656, 0.4769290
546.3477, 0.9673460
546.8298, 0.5183410
547.3120, 0.2239380
547.7941, 0.7232360
548.2762, 0.7133480
548.7583, 0.7056880
549.2404, 0.7293400
549.7225, 0.7782900
550.2047, 0.8500980
550.6868, 0.9760130
551.1689, 1.062225
551.6510, 1.074097
552.1331, 1.025848
552.6152, 0.9227290
553.0974, 0.6986390
553.5795, 0.7632750
554.0616, 1.465851
554.5437, 2.726288
555.0258, 4.264099
555.5079, 6.173126
555.9901, 7.656281
556.4722, 7.820648
556.9543, 6.969299
557.4364, 5.589355
557.9185, 3.198730
558.4006, 1.338501
558.8828, 1.876312
559.3649, 3.867615
559.8470, 5.140106
560.3291, 4.214111
560.8112, 2.914093
561.2933, 1.882874
561.7755, 1.154968
562.2576, 0.8369450
562.7397, 1.603149
563.2218, 2.240295
563.7039, 2.102020
564.1860, 0.7613830
564.6682, 0.2729190
565.1503, 1.036682
565.6324, 1.455261
566.1145, 1.243866
566.5966, 0.2832030
567.0787, 0.1894840
567.5609, 0.2703250
568.0430, 1.128632
568.5251, 1.113617
569.0072, 0.3326420
569.4893, 0.3294070
569.9714, 0.2513120
570.4536, 0.1652830
570.9357, 0.3137510
571.4178, 0.2030330
571.8999, 0.1634520
572.3820, 0.6918030
572.8641, 1.230530
573.3463, 1.218323
573.8284, 0.3209530
574.3105, 0.4781190
574.7926, 0.8964540
575.2747, 1.047089
575.7568, 1.064697
576.2390, 0.7360230
576.7211, 0.5835570
577.2032, 0.7963560
577.6853, 1.216309
578.1674, 1.226624
578.6495, 0.6417240
579.1317, 0.1989140
579.6138, 0.2745360
580.0959, 0.7929990
580.5780, 1.147125
581.0601, 1.342194
581.5422, 1.373322
582.0244, 1.097717
582.5065, 0.6678160
582.9886, 0.4550480
583.4707, 0.5099180
583.9528, 0.7690730
584.4349, 1.357605
584.9171, 2.067688
585.3992, 2.592896
585.8813, 2.900665
586.3634, 2.917694
586.8455, 2.360046
587.3276, 1.462555
587.8098, 0.8877560
588.2919, 0.9343870
588.7740, 1.148651
589.2561, 1.430969
589.7382, 1.781799
590.2203, 2.091064
590.7025, 2.342407
591.1846, 2.563385
591.6667, 2.788116
592.1488, 3.025452
592.6309, 3.182831
593.1130, 3.270142
593.5952, 3.241089
594.0773, 2.949463
594.5594, 2.475250
595.0415, 2.127869
595.5236, 1.997192
596.0057, 2.003052
596.4879, 2.111938
596.9700, 2.288513
597.4521, 2.446747
597.9342, 2.577972
598.4163, 2.660950
598.8984, 2.628967
599.3806, 2.499329
599.8627, 2.459137
600.3448, 2.482483
600.8269, 2.635254
601.3090, 3.004425
601.7911, 3.636108
602.2733, 4.155731
602.7554, 4.610962
603.2375, 4.871704
603.7196, 4.488281
604.2017, 3.296295
604.6838, 3.600372
605.1660, 6.167419
605.6481, 9.182892
606.1302, 9.416718
606.6123, 7.401489
607.0944, 5.590454
607.5765, 4.803833
608.0587, 4.749481
608.5408, 5.446045
609.0229, 6.658905
609.5050, 7.580078
609.9871, 7.563080
610.4692, 7.293030
610.9514, 7.109131
611.4335, 7.035675
611.9156, 7.137024
612.3977, 7.542236
612.8798, 8.029907
613.3619, 8.483307
613.8441, 8.984283
614.3262, 9.240234
614.8083, 9.134949
615.2904, 8.950592
615.7725, 9.106812
616.2546, 9.637451
616.7368, 9.942657
617.2189, 9.848602
617.7010, 9.590393
618.1831, 9.626038
618.6652, 9.882690
619.1473, 10.07538
619.6295, 9.855408
620.1116, 9.614471
620.5937, 9.981628
621.0758, 10.80069
621.5579, 11.30569
622.0400, 10.85822
622.5222, 10.13531
623.0043, 9.404968
623.4864, 8.622620
623.9685, 8.460815
624.4506, 9.748047
624.9327, 11.08069
625.4149, 11.44235
625.8970, 10.41016
626.3791, 9.652069
626.8612, 9.161469
627.3433, 9.034912
627.8254, 9.642487
628.3076, 10.93298
628.7897, 11.92001
629.2718, 12.36993
629.7539, 12.41248
630.2360, 12.03891
630.7181, 11.36813
631.2003, 10.82123
631.6824, 10.75769
632.1645, 10.82620
632.6466, 10.68527
633.1287, 10.37451
633.6108, 10.21286
634.0930, 10.47763
634.5751, 10.75134
635.0572, 10.72794
635.5393, 10.24734
636.0214, 10.27911
636.5035, 11.12595
636.9857, 12.10056
637.4678, 12.75079
637.9499, 13.08447
638.4320, 12.97772
638.9141, 12.31464
639.3962, 11.51138
639.8784, 11.05594
640.3605, 10.93060
640.8426, 11.08203
641.3247, 11.61893
641.8068, 12.21066
642.2889, 12.58902
642.7711, 12.74771
643.2532, 12.68134
643.7353, 12.12119
644.2174, 11.58997
644.6995, 11.31039
645.1816, 11.27689
645.6638, 11.39032
646.1459, 11.95618
646.6280, 12.32980
647.1101, 12.19342
647.5922, 11.49710
648.0743, 11.21970
648.5565, 11.49280
649.0386, 11.83917
649.5207, 11.76211
650.0028, 11.34586
650.4849, 11.44727
650.9670, 12.18082
651.4492, 13.02484
651.9313, 13.88980
652.4134, 14.37494
652.8955, 13.51544
653.3776, 10.33270
653.8597, 7.420502
654.3419, 6.754181
654.8240, 7.325562
655.3061, 7.602112
655.7882, 6.815796
656.2703, 6.120117
656.7524, 5.879608
657.2346, 5.922089
657.7167, 5.706177
658.1988, 5.087616
658.6809, 4.548248
659.1630, 4.262512
659.6451, 4.191467
660.1273, 4.121094
660.6094, 4.049011
661.0915, 3.972961
661.5736, 3.961212
662.0557, 3.919769
662.5378, 3.585419
663.0200, 2.944885
663.5021, 2.382019
663.9842, 2.242249
664.4663, 2.262634
664.9484, 2.188019
665.4305, 1.920349
665.9127, 1.718140
666.3948, 1.631439
666.8769, 1.653687
667.3590, 1.780945
667.8411, 2.079834
668.3232, 2.370239
668.8054, 2.707916
669.2875, 2.954956
669.7696, 2.793762
670.2517, 2.214874
670.7338, 1.611328
671.2159, 0.8710630
671.6981, 0.4703980
672.1802, 1.894043
672.6623, 4.533813
673.1444, 6.262787
673.6265, 5.170380
674.1086, 3.385101
674.5908, 2.458618
675.0729, 2.295868
675.5550, 1.959167
676.0371, 0.6871950
676.5192, 0.3833920
677.0013, 0.6449280
677.4835, 3.6929999E-03
677.9656, 0.3264160
678.4477, 0.1559140
678.9298, 2.9967999E-02
679.4119, 0.1711730
679.8940, 0.7655940
680.3762, 1.054932
680.8583, 0.9904480
681.3404, 0.8070680
681.8225, 0.8536380
682.3046, 0.9427190
682.7867, 0.5706790
683.2689, 0.5592650
683.7510, 1.481842
684.2331, 1.338043
684.7152, 0.6159360
685.1973, 6.1156999E-02
685.6794, 0.5822450
686.1616, 0.9936520
686.6437, 1.428192
687.1258, 1.729614
687.6079, 1.494843
688.0900, 0.3605350
688.5721, 0.3140870
689.0543, 1.9805999E-02
689.5364, 0.8296810
690.0185, 0.8499150
690.5006, 7.6324001E-02
690.9827, 0.3810730
691.4648, 0.5348210
691.9470, 1.851624
692.4291, 1.851990
692.9112, 0.7698060
693.3933, 9.2681997E-02
693.8754, 0.3014530
694.3575, 0.9012760
694.8397, 0.9301150
695.3218, 0.2663570
695.8039, 4.0222000E-02
696.2860, 0.4941410
696.7681, 1.100006
697.2502, 1.424011
697.7324, 1.447693
698.2145, 1.196747
698.6966, 0.5356750
699.1787, 1.2604000E-02
699.6608, 0.1904910
700.1429, 0.9900820
700.6251, 1.672455
701.1072, 2.160156
701.5893, 2.416260
702.0714, 2.197998
702.5535, 1.783325
703.0356, 1.604492
703.5178, 1.988159
703.9999, 2.261871
704.4820, 1.888489
704.9641, 1.323303
705.4462, 1.310486
705.9283, 2.499847
706.4105, 3.250610
706.8926, 3.280884
707.3747, 2.802429
707.8568, 2.229034
708.3389, 1.538239
708.8210, 1.026154
709.3032, 0.7306820
709.7853, 0.7405700
710.2674, 1.441833
710.7495, 2.678192
711.2316, 3.761475
711.7137, 4.318451
712.1959, 4.581940
712.6780, 4.653412
713.1601, 4.554657
713.6422, 4.401001
714.1243, 4.060425
714.6064, 3.834564
715.0886, 3.935730
715.5707, 4.383789
716.0528, 4.388336
716.5349, 3.770264
717.0170, 3.170288
717.4991, 3.013885
717.9813, 3.255890
718.4634, 3.559967
718.9455, 3.923096
719.4276, 4.257202
719.9097, 4.471191
720.3918, 4.617615
720.8740, 4.753876
721.3561, 4.886475
721.8382, 5.028107
722.3203, 5.171570
722.8024, 5.332611
723.2845, 5.537354
723.7667, 5.956268
724.2488, 6.089325
724.7309, 5.759338
725.2130, 5.329773
725.6951, 5.299530
726.1772, 5.711456
726.6594, 5.863708
727.1415, 5.593048
727.6236, 5.118439
728.1057, 4.670898
728.5878, 4.300568
729.0699, 4.162415
729.5521, 4.523438
730.0342, 4.786530
730.5163, 4.354034
730.9984, 3.581635
731.4805, 3.102203
731.9626, 3.238190
732.4448, 3.492554
732.9269, 3.798798
733.4090, 4.152527
733.8911, 4.565887
734.3732, 5.075317
734.8553, 5.435242
735.3375, 5.590332
735.8196, 5.593781
736.3017, 5.498871
736.7838, 5.301788
737.2659, 5.218933
737.7480, 5.660553
738.2302, 6.140778
738.7123, 5.980530
739.1944, 5.282501
739.6765, 4.929413
740.1586, 5.706055
740.6407, 6.444794
741.1229, 6.542572
741.6050, 6.044586
742.0871, 5.768768
742.5692, 5.729767
743.0513, 5.747284
743.5334, 5.718140
744.0156, 5.670746
744.4977, 5.900909
744.9798, 6.409454
745.4619, 6.884033
745.9440, 7.158539
746.4261, 7.211090
746.9083, 6.921692
747.3904, 6.254059
747.8725, 5.738068
748.3546, 5.780304
748.8367, 5.932495
749.3188, 5.893463
749.8010, 5.537598
750.2831, 5.340973
750.7652, 5.385498
751.2473, 5.454529
751.7294, 5.409546
752.2115, 5.249298
752.6937, 4.806244
753.1758, 3.996643
753.6579, 3.415771
754.1400, 4.169250
754.6221, 5.413757
755.1042, 5.613617
755.5864, 4.192719
756.0685, 2.897919
756.5506, 2.758453
757.0327, 3.164825
757.5148, 3.516296
757.9969, 3.689911
758.4791, 3.899811
758.9612, 4.242920
759.4433, 4.512634
759.9254, 4.355988
760.4075, 3.739471
760.8896, 3.445038
761.3718, 3.691284
761.8539, 3.957947
762.3360, 3.343445
762.8181, 2.260162
763.3002, 1.587830
763.7823, 1.717010
764.2645, 2.065613
764.7466, 2.440552
765.2287, 2.794464
765.7108, 3.065491
766.1929, 3.308807
766.6750, 3.356781
767.1572, 3.062927
767.6393, 2.669952
768.1214, 2.724060
768.6035, 3.273712
769.0856, 3.550690
769.5677, 3.328552
770.0499, 2.805054
770.5320, 2.133270
771.0141, 1.401886
771.4962, 0.8414310
771.9783, 0.5606690
772.4604, 0.4602360
772.9426, 0.4819640
773.4247, 0.6455990
773.9068, 1.019623
774.3889, 2.074219
774.8710, 2.648010
775.3531, 2.374481
775.8353, 1.570496
776.3174, 1.148254
776.7995, 1.129364
777.2816, 1.149414
777.7637, 1.045807
778.2458, 0.9441830
778.7280, 1.110931
779.2101, 1.470367
779.6922, 1.771912
780.1743, 1.994110
780.6564, 2.034943
781.1385, 1.699158
781.6207, 1.100708
782.1028, 0.7620850
782.5849, 0.9730220
783.0670, 1.001343
783.5491, 0.5058290
784.0313, 0.2847900
784.5134, 0.3461000
784.9955, 0.3309330
785.4776, 0.9125670
785.9597, 0.9210210
786.4418, 0.6633000
786.9240, 0.6306460
787.4061, 0.7604680
787.8882, 0.8251650
788.3703, 0.6317140
788.8524, 0.4219970
789.3345, 0.3181760
789.8167, 0.3138120
790.2988, 0.3181760
790.7809, 0.3699040
791.2630, 0.3660890
791.7451, 0.2825320
792.2272, 0.1185300
792.7094, 0.2573550
793.1915, 0.8239140
793.6736, 1.147308
794.1557, 0.6719970
794.6378, 1.2820000E-03
795.1199, 7.6964997E-02
795.6021, 0.7099910
796.0842, 0.9884640
796.5663, 4.3365002E-02
797.0484, 0.9776920
797.5305, 1.106689
798.0126, 0.5130620
798.4948, 0.1302490
798.9769, 1.043304
799.4590, 1.413116
799.9411, 0.6288760
800.4232, 0.9036250
800.9053, 1.502899
801.3875, 1.245270
801.8696, 0.8805240
802.3517, 0.9065860
802.8338, 1.006256
803.3159, 0.6817320
803.7980, 6.2316999E-02
804.2802, 5.8044001E-02
804.7623, 1.280151
805.2444, 2.416260
805.7265, 2.658508
806.2086, 2.117401
806.6907, 1.687866
807.1729, 1.265991
807.6550, 1.430420
808.1371, 2.995117
808.6192, 5.117798
809.1013, 5.219727
809.5834, 3.631348
810.0656, 2.234558
810.5477, 2.514984
811.0298, 3.062469
811.5119, 2.781494
811.9940, 1.787048
812.4761, 1.215698
812.9583, 1.567535
813.4404, 1.956390
813.9225, 2.110229
814.4046, 2.081512
814.8867, 2.207275
815.3688, 2.496826
815.8510, 2.748047
816.3331, 2.795959
816.8152, 2.770996
817.2973, 2.964691
817.7794, 3.296722
818.2615, 3.454041
818.7437, 2.945618
819.2258, 2.544067
819.7079, 2.660370
820.1900, 3.243958
820.6721, 3.811829
821.1542, 4.471680
821.6364, 4.874664
822.1185, 4.870514
822.6006, 4.543640
823.0827, 4.034393
823.5648, 3.394653
824.0469, 2.990814
824.5291, 3.224396
825.0112, 3.625854
825.4933, 3.772583
825.9754, 3.718170
826.4575, 3.632416
826.9396, 3.377167
827.4218, 3.339355
827.9039, 3.781921
828.3860, 4.490906
828.8681, 4.725067
829.3502, 4.433472
829.8323, 3.910583
830.3145, 3.032837
830.7966, 2.247711
831.2787, 2.652740
831.7608, 3.910950
832.2429, 4.969482
832.7250, 5.356720
833.2072, 5.405914
833.6893, 5.133759
834.1714, 4.662476
834.6535, 4.290131
835.1356, 3.835541
835.6177, 3.885162
836.0999, 4.780457
836.5820, 6.022583
837.0641, 6.373383
837.5462, 5.917389
838.0283, 5.639252
838.5104, 5.951324
838.9926, 6.387482
839.4747, 6.460419
839.9568, 6.284698
840.4389, 6.060150
840.9210, 5.661407
841.4031, 5.452301
841.8853, 5.483063
842.3674, 5.747345
842.8495, 6.378265
843.3316, 7.527679
843.8137, 8.089233
844.2958, 7.757813
844.7780, 7.108368
845.2601, 6.936249
845.7422, 7.118347
846.2243, 7.375519
846.7064, 7.686951
847.1885, 7.921844
847.6707, 7.976318
848.1528, 7.928436
848.6349, 7.859406
849.1170, 7.632111
849.5991, 7.730530
850.0812, 8.413666
850.5634, 9.018402
851.0455, 8.590668
851.5276, 7.321747
852.0097, 6.704102
852.4918, 6.997192
852.9739, 7.443787
853.4561, 7.278717
853.9382, 6.918945
854.4203, 6.924927
854.9024, 7.488739
855.3845, 7.849640
855.8666, 7.622864
856.3488, 7.346313
856.8309, 7.391479
857.3130, 7.862366
857.7951, 8.077911
858.2772, 7.996979
858.7593, 7.864380
859.2415, 7.938965
859.7236, 8.077118
860.2057, 8.026733
860.6878, 7.772797
861.1699, 7.626251
861.6520, 7.987030
862.1342, 8.297180
862.6163, 8.150208
863.0984, 7.511719
863.5805, 7.043060
864.0626, 6.772614
864.5447, 6.628754
865.0269, 6.614136
865.5090, 6.697266
865.9911, 6.744598
866.4732, 6.774719
866.9553, 6.876343
867.4374, 7.202362
867.9196, 7.510315
868.4017, 7.641754
868.8838, 7.627228
869.3659, 7.538361
869.8480, 7.187195
870.3301, 6.923981
870.8123, 6.890228
871.2944, 7.058624
871.7765, 7.108276
872.2586, 7.018951
872.7407, 7.150269
873.2228, 7.949005
873.7050, 8.721161
874.1871, 8.687469
874.6692, 8.083679
875.1513, 7.425049
875.6334, 6.602020
876.1155, 6.159515
876.5977, 6.303833
877.0798, 6.728119
877.5619, 6.932922
878.0440, 6.930328
878.5261, 6.894287
879.0082, 6.805023
879.4904, 6.701355
879.9725, 6.650543
880.4546, 6.601868
880.9367, 6.434784
881.4188, 6.037415
881.9009, 5.612122
882.3831, 5.073822
882.8652, 4.639557
883.3473, 4.588074
883.8294, 5.118713
884.3115, 5.218628
884.7936, 4.779938
885.2758, 4.191010
885.7579, 3.711304
886.2400, 3.412140
886.7221, 3.566467
887.2042, 4.238770
887.6863, 4.788788
888.1685, 4.788879
888.6506, 4.582031
889.1327, 4.362579
889.6148, 4.127258
890.0969, 4.037476
890.5790, 4.147003
891.0612, 4.241364
891.5433, 4.119171
892.0254, 3.873871
892.5075, 3.900330
892.9896, 4.168121
893.4717, 4.455872
893.9539, 4.775513
894.4360, 4.938110
894.9181, 4.807190
895.4002, 4.398071
895.8823, 3.815521
896.3644, 2.802765
896.8466, 2.163757
897.3287, 2.252411
897.8108, 2.742249
898.2929, 2.634796
898.7750, 2.057892
899.2571, 1.835815
899.7393, 2.530212
900.2214, 3.324188
900.7035, 3.575745
901.1856, 3.441711
901.6677, 3.182129
902.1498, 2.809967
902.6320, 2.313629
903.1141, 1.484955
903.5962, 0.7659910
904.0783, 0.9717410
904.5604, 2.004456
905.0425, 2.552673
905.5247, 2.398895
906.0068, 1.918274
906.4889, 1.179077
906.9710, 0.4673160
907.4531, 0.1287230
907.9352, 0.3006900
908.4174, 0.5495000
908.8995, 0.9902040
909.3816, 1.281708
909.8637, 1.131897
910.3458, 0.5404970
910.8279, 0.2447510
911.3101, 0.2469480
911.7922, 0.3777470
912.2743, 0.5891110
912.7564, 0.8099980
913.2385, 1.013977
913.7206, 1.175720
914.2028, 1.152130
914.6849, 0.7132260
915.1670, 0.2873840
915.6491, 4.7913000E-02
916.1312, 0.2622990
916.6133, 0.1765440
917.0955, 0.2178650
917.5776, 0.5729370
918.0597, 0.7981870
918.5418, 0.8744510
919.0239, 0.6528930
919.5060, 0.2840270
919.9882, 6.2194999E-02
920.4703, 0.2047420
920.9524, 0.3375850
921.4345, 0.4073790
921.9166, 0.4252320
922.3987, 0.3931880
922.8809, 0.3035580
923.3630, 0.1918640
923.8451, 4.1382000E-02
924.3272, 2.4963001E-02
924.8093, 0.3398740
925.2914, 0.7735290
925.7736, 0.6794430
926.2557, 0.1546940
926.7378, 0.6733700
927.2199, 0.1361080
927.7020, 0.3914180
928.1841, 0.2676700
928.6663, 0.5021970
929.1484, 0.5716860
929.6305, 9.2468001E-02
930.1126, 0.7114560
930.5947, 0.7307130
931.0768, 0.4624020
931.5590, 0.2914120
932.0411, 0.1846920
932.5232, 4.6080002E-03
933.0053, 0.5660400
933.4874, 0.9195250
933.9695, 0.8216550
934.4517, 0.4790340
934.9338, 0.4967960
935.4159, 0.8874820
935.8980, 0.8401490
936.3801, 4.2206001E-02
936.8622, 0.9784850
937.3444, 0.7862240
937.8265, 0.1162720
938.3086, 3.8849000E-02
938.7907, 0.9455570
939.2728, 1.738251
939.7549, 2.139435
940.2371, 2.251862
940.7192, 2.070740
941.2013, 1.580963
941.6834, 1.272522
942.1655, 1.165985
942.6476, 1.196442
943.1298, 1.451813
943.6119, 1.723114
944.0940, 1.694824
944.5761, 1.369629
945.0582, 1.294525
945.5403, 2.021545
946.0225, 2.469818
946.5046, 2.102692
946.9867, 1.243744
947.4688, 1.382996
947.9509, 2.448547
948.4330, 3.329773
948.9152, 3.508453
949.3973, 3.372131
949.8794, 3.227692
950.3615, 3.048676
950.8436, 2.787537
951.3257, 2.040619
951.8079, 1.826080
952.2900, 2.398041
952.7721, 3.245453
953.2542, 3.896362
953.7363, 4.314636
954.2184, 3.992737
954.7006, 2.788574
955.1827, 1.932831
955.6648, 2.999573
956.1469, 4.453827
956.6290, 4.799286
957.1111, 3.709564
957.5933, 3.270325
958.0754, 3.936005
958.5575, 4.485352
959.0396, 4.220367
959.5217, 3.437866
960.0038, 3.157135
960.4860, 3.315796
960.9681, 3.591675
961.4502, 3.921509
961.9323, 4.204224
962.4144, 4.320190
962.8965, 4.351227
963.3787, 4.459198
963.8608, 4.576080
964.3429, 5.043823
964.8250, 6.096252
965.3071, 7.033020
965.7892, 6.506866
966.2714, 5.173187
966.7535, 4.839752
967.2356, 5.980774
967.7177, 6.840515
968.1998, 6.012421
968.6819, 4.891968
969.1641, 4.539581
969.6462, 5.036835
970.1283, 5.209869
970.6104, 4.997620
971.0925, 4.805237
971.5746, 4.899139
972.0568, 5.146454
972.5389, 5.449097
973.0210, 5.708038
973.5031, 5.597778
973.9852, 4.530731
974.4673, 3.641998
974.9495, 3.338776
975.4316, 3.362427
975.9137, 3.284698
976.3958, 3.088440
976.8779, 3.167206
977.3600, 3.669739
977.8422, 4.081848
978.3243, 3.749695
978.8064, 3.072296
979.2885, 2.554749
979.7706, 2.319946
980.2527, 2.040649
980.7349, 1.454651
981.2170, 1.093170
981.6991, 1.370850
982.1812, 2.159790
982.6633, 2.495697
983.1454, 2.390930
983.6276, 2.078613
984.1097, 1.410278
984.5918, 0.7932740
985.0739, 0.6834720
985.5560, 0.9217830
986.0381, 1.092712
986.5203, 1.047516
987.0024, 1.095337
987.4845, 1.346741
987.9666, 1.664978
988.4487, 1.990051
988.9308, 2.230682
989.4130, 2.036194
989.8951, 1.279022
990.3772, 0.6600340
990.8593, 0.6974490
991.3414, 0.9129030
991.8235, 1.004211
992.3057, 0.9771420
992.7878, 0.8431700
993.2699, 0.5540160
993.7520, 0.3032840
994.2341, 0.2019960
994.7162, 0.2317200
995.1984, 0.4545900
995.6805, 0.8056030
996.1626, 1.133972
996.6447, 1.726868
997.1268, 1.866943
997.6089, 1.049164
998.0911, 9.3989996E-03
998.5732, 0.1419680
999.0553, 0.5830380
999.5374, 1.240234
1000.020, 1.722565
1000.502, 1.972260
1000.984, 1.761902
1001.466, 1.399170
1001.948, 1.185059
1002.430, 1.167389
1002.912, 1.135284
1003.394, 1.108978
1003.876, 0.9946290
1004.359, 0.6878970
1004.841, 0.3055730
1005.323, 0.2899170
1005.805, 0.5568850
1006.287, 0.7528990
1006.769, 0.6257020
1007.251, 0.5249940
1007.733, 0.6660160
1008.216, 0.9290470
1008.698, 1.150970
1009.180, 1.345581
1009.662, 1.437531
1010.144, 1.412354
1010.626, 1.330322
1011.108, 1.294891
1011.590, 1.218475
1012.072, 0.8657530
1012.555, 0.2474980
1013.037, 0.1231990
1013.519, 2.5146000E-02
1014.001, 0.3665160
1014.483, 0.8983150
1014.965, 1.503265
1015.447, 1.787903
1015.929, 1.767609
1016.411, 1.550964
1016.894, 1.095703
1017.376, 0.6454770
1017.858, 0.2732540
1018.340, 0.1030580
1018.822, 0.3568420
1019.304, 1.442444
1019.786, 1.925201
1020.268, 1.643463
1020.751, 1.191315
1021.233, 1.019501
1021.715, 1.029266
1022.197, 0.8994450
1022.679, 0.6743470
1023.161, 0.6488950
1023.643, 1.324677
1024.125, 1.827637
1024.607, 1.661560
1025.090, 1.136993
1025.572, 0.8488770
1026.054, 0.7938540
1026.536, 1.077087
1027.018, 1.801666
1027.500, 2.472961
1027.982, 2.480133
1028.464, 2.182129
1028.947, 1.980377
1029.429, 1.952667
1029.911, 1.985199
1030.393, 2.175476
1030.875, 2.218536
1031.357, 1.858429
1031.839, 1.280304
1032.321, 1.207489
1032.803, 1.521484
1033.286, 1.706757
1033.768, 1.221771
1034.250, 0.8828740
1034.732, 1.193909
1035.214, 1.800323
1035.696, 2.088440
1036.178, 1.876526
1036.660, 2.502686
1037.143, 4.193115
1037.625, 5.844940
1038.107, 6.501892
1038.589, 6.522034
1039.071, 6.277283
1039.553, 5.804260
1040.035, 5.123596
1040.517, 3.910339
1041.000, 3.005676
1041.482, 2.722260
1041.964, 2.832947
1042.446, 2.847351
1042.928, 2.792175
1043.410, 2.754791
1043.892, 2.743317
1044.374, 2.811981
1044.856, 3.199982
1045.339, 3.537781
1045.821, 3.480743
1046.303, 2.982819
1046.785, 2.345337
1047.267, 1.515411
1047.749, 1.027435
1048.231, 1.514191
1048.713, 2.351318
1049.195, 2.938507
1049.677, 3.227631
1050.160, 3.087708
1050.642, 1.743622
1051.124, 1.044922
1051.606, 1.390137
1052.088, 2.145447
1052.570, 2.483795
1053.052, 2.497742
1053.534, 2.538422
1054.017, 2.650146
1054.499, 2.699005
1054.981, 2.551453
1055.463, 2.360748
1055.945, 2.276367
1056.427, 2.268829
1056.909, 1.961273
1057.391, 1.246246
1057.874, 0.8421020
1058.356, 1.181763
1058.838, 1.684052
1059.320, 1.533752
1059.802, 1.133636
1060.284, 1.108490
1060.766, 1.996460
1061.248, 2.250488
1061.730, 1.578552
1062.213, 0.7556760
1062.695, 0.2529600
1063.177, 4.9500000E-02
1063.659, 0.1207890
1064.141, 0.4271240
1064.623, 0.7968440
1065.105, 1.293457
1065.587, 1.650787
1066.070, 1.790070
1066.552, 1.707642
1067.034, 1.261627
1067.516, 0.4284360
1067.998, 5.7370001E-03
1068.480, 0.1115720
1068.962, 0.4179380
1069.444, 0.7929690
1069.927, 1.116730
1070.409, 1.330048
1070.891, 1.406464
1071.373, 1.202850
1071.855, 0.5323790
1072.337, 7.3517002E-02
1072.819, 0.1259160
1073.301, 0.4070740
1073.783, 0.3513180
1074.266, 0.1233830
1074.748, 0.1067810
1075.230, 0.5589900
1075.712, 0.7911070
1076.194, 0.3810420
1076.676, 3.5918999E-02
1077.158, 7.1808003E-02
1077.640, 0.2388920
1078.122, 0.6119080
1078.604, 1.020660
1079.087, 1.271912
1079.569, 1.198853
1080.051, 1.026489
1080.533, 0.7744140
1081.015, 0.4719540
1081.497, 0.2306520
1081.979, 2.1850999E-02
1082.461, 0.4722290
1082.944, 1.847504
1083.426, 3.075653
1083.908, 2.984467
1084.390, 2.308014
1084.872, 1.804199
1085.354, 1.535431
1085.836, 1.537628
1086.318, 2.089386
1086.801, 2.344238
1087.283, 1.995239
1087.765, 1.419220
1088.247, 1.330017
1088.729, 1.570221
1089.211, 1.741791
1089.693, 1.759186
1090.175, 1.709961
1090.657, 1.651062
1091.140, 1.496063
1091.622, 1.109131
1092.104, 0.5652770
1092.586, 0.5503850
1093.068, 1.015167
1093.550, 1.432617
1094.032, 1.653046
1094.514, 1.628754
1094.997, 1.071686
1095.479, 0.3726810
1095.961, 6.0851999E-02
1096.443, 0.2729190
1096.925, 0.4256590
1097.407, 0.5019840
1097.889, 0.6287540
1098.371, 0.9285890
1098.854, 1.317047
1099.336, 1.802094
1099.818, 2.297791
1100.300, 2.483337
1100.782, 2.159332
1101.264, 1.702332
1101.746, 1.074585
1102.228, 0.5021360
1102.710, 0.3643490
1103.193, 0.5090330
1103.675, 0.5765380
1104.157, 0.5268550
1104.639, 0.4155580
1105.121, 1.1230000E-02
1105.603, 0.1388850
1106.085, 0.4466860
1106.567, 1.403687
1107.049, 1.542664
1107.531, 0.9533690
1108.014, 0.5409850
1108.496, 0.5835880
1108.978, 0.6967470
1109.460, 0.5325320
1109.942, 0.3551640
1110.424, 0.4278260
1110.906, 0.7617800
1111.388, 0.9796750
1111.871, 1.083252
1112.353, 1.030273
1112.835, 0.7483220
1113.317, 0.3699950
1113.799, 0.2759400
1114.281, 0.8124690
1114.763, 0.5397030
1115.245, 1.630035
1115.728, 2.408173
1116.210, 1.434448
1116.692, 0.2628780
1117.174, 0.2752990
1117.656, 0.9301450
1118.138, 1.344727
1118.620, 1.511200
1119.102, 1.519257
1119.584, 1.160400
1120.067, 0.9871220
1120.549, 1.165649
1121.031, 1.414276
1121.513, 1.155090
1121.995, 0.6482850
1122.477, 0.9816590
1122.959, 2.233246
1123.441, 3.214966
1123.924, 3.301239
1124.406, 2.942322
1124.888, 2.193512
1125.370, 1.260986
1125.852, 0.7401430
1126.334, 0.5956420
1126.816, 0.4216310
1127.298, 0.1141660
1127.781, 0.1670230
1128.263, 0.3465580
1128.745, 0.4090580
1129.227, 0.2884520
1129.709, 7.3199999E-04
1130.191, 0.1120910
1130.673, 3.2196000E-02
1131.155, 9.8328002E-02
1131.637, 0.5534060
1132.120, 1.018555
1132.602, 0.9465030
1133.084, 0.6935420
1133.566, 0.8276060
1134.048, 1.707306
1134.530, 1.857971
1135.012, 1.091370
1135.494, 0.3509830
1135.976, 0.4178470
1136.458, 0.7700200
1136.941, 0.4400940
1137.423, 0.2745970
1137.905, 0.6512760
1138.387, 6.1889999E-02
1138.869, 0.1831050
1139.351, 0.1534730
1139.833, 0.4721680
1140.315, 6.4208999E-02
1140.798, 0.7787170
1141.280, 1.471710
1141.762, 1.964478
1142.244, 2.120361
1142.726, 1.534698
1143.208, 1.050781
1143.690, 0.8103640
1144.172, 0.8085940
1144.655, 1.238220
1145.137, 1.914001
1145.619, 2.022919
1146.101, 1.460052
1146.583, 0.9121090
1147.065, 0.6534120
1147.547, 0.6404720
1148.029, 0.9981990
1148.511, 1.496704
1148.994, 1.312958
1149.476, 0.5558470
1149.958, 0.2784120
1150.440, 0.8210140
1150.922, 1.354675
1151.404, 1.279388
1151.886, 0.9454040
1152.368, 0.5566410
1152.851, 0.1579900
1153.333, 0.2181400
1153.815, 0.7356260
1154.297, 1.184784
1154.779, 1.302734
1155.261, 1.419006
1155.743, 2.122742
1156.225, 2.821320
1156.708, 2.635590
1157.190, 1.333466
1157.672, 0.9934080
1158.154, 1.745331
1158.636, 2.332367
1159.118, 1.880005
1159.600, 1.105042
1160.082, 0.7455750
1160.564, 0.6500850
1161.047, 0.5470890
1161.529, 0.2690730
1162.011, 0.3879700
1162.493, 1.050903
1162.975, 1.516327
1163.457, 0.9577330
1163.939, 4.1962001E-02
1164.421, 0.4186400
1164.903, 0.4623110
1165.385, 0.2214050
1165.868, 0.6274720
1166.350, 1.046417
1166.832, 0.8585820
1167.314, 0.4920650
1167.796, 0.3918150
1168.278, 0.4682920
1168.760, 0.5189820
1169.242, 0.5730290
1169.725, 0.8813170
1170.207, 1.934174
1170.689, 2.650848
1171.171, 2.867340
1171.653, 2.674683
1172.135, 1.986389
1172.617, 1.099304
1173.099, 0.5086670
1173.582, 0.2393800
1174.064, 0.3811950
1174.546, 1.504303
1175.028, 2.352966
1175.510, 2.599365
1175.992, 2.394440
1176.474, 1.791107
1176.956, 1.001984
1177.438, 0.7464290
1177.921, 1.227783
1178.403, 1.605804
1178.885, 1.414185
1179.367, 1.150604
1179.849, 0.9234920
1180.331, 0.8843380
1180.813, 1.939636
1181.295, 3.635712
1181.778, 4.089355
1182.260, 2.378937
1182.742, 0.8887020
1183.224, 0.8230290
1183.706, 1.182037
1184.188, 1.481079
1184.670, 1.719757
1185.152, 1.915192
1185.635, 2.031158
1186.117, 1.939758
1186.599, 1.444733
1187.081, 1.071716
1187.563, 1.219025
1188.045, 1.474487
1188.527, 1.545898
1189.009, 1.448059
1189.491, 1.216003
1189.974, 0.8891300
1190.456, 0.7634580
1190.938, 1.173126
1191.420, 1.567963
1191.902, 1.647217
1192.384, 1.600708
1192.866, 1.597534
1193.348, 1.634186
1193.830, 1.782043
1194.313, 2.035492
1194.795, 2.312225
1195.277, 2.723114
1195.759, 2.916351
1196.241, 2.679382
1196.723, 2.183044
1197.205, 1.559662
1197.687, 0.7946780
1198.169, 0.5104680
1198.652, 0.7110290
1199.134, 0.9779970
1199.616, 1.030396
1200.098, 1.070740
1200.580, 1.289581
1201.062, 1.542358
1201.544, 1.549652
1202.026, 1.302979
1202.509, 1.266998
1202.991, 1.482361
1203.473, 1.605042
1203.955, 1.211090
1204.437, 0.8085940
1204.919, 0.6967770
1205.401, 0.8287960
1205.883, 1.189667
1206.365, 1.789764
1206.848, 2.047821
1207.330, 1.877136
1207.812, 1.473816
1208.294, 0.4633480
1208.776, 0.2339780
1209.258, 0.4328920
1209.740, 1.874878
1210.222, 2.427460
1210.705, 2.085785
1211.187, 1.876038
1211.669, 2.017853
1212.151, 2.003876
1212.633, 1.041840
1213.115, 0.1209410
1213.597, 0.1780700
1214.079, 0.8952940
1214.562, 1.025055
1215.044, 0.5903020
1215.526, 0.7011720
1216.008, 1.740479
1216.490, 2.672028
1216.972, 2.564514
1217.454, 2.121063
1217.936, 1.832428
1218.418, 1.679657
1218.901, 1.490265
1219.383, 1.265015
1219.865, 1.180695
1220.347, 1.324707
1220.829, 1.462311
1221.311, 1.396423
1221.793, 1.261505
1222.275, 1.198059
1222.757, 1.191193
1223.240, 0.7728580
1223.722, 2.0752000E-02
1224.204, 0.1972050
1224.686, 0.6266480
1225.168, 1.446899
1225.650, 1.507996
1226.132, 1.282043
1226.614, 1.198029
1227.096, 1.243774
1227.579, 1.300873
1228.061, 1.354675
1228.543, 1.234314
1229.025, 0.7372440
1229.507, 0.3783570
1229.989, 0.5395200
1230.471, 0.9023440
1230.953, 1.287628
1231.436, 1.656372
1231.918, 1.520844
1232.400, 0.9605410
1232.882, 0.5074770
1233.364, 0.3091430
1233.846, 0.3973390
1234.328, 1.335052
1234.810, 2.044189
1235.292, 1.487274
1235.775, 6.6376001E-02
1236.257, 0.3457640
1236.739, 0.4368590
1237.221, 1.125763
1237.703, 1.038910
1238.185, 1.068329
1238.667, 1.768188
1239.149, 2.486969
1239.632, 2.782410
1240.114, 2.694794
1240.596, 2.360779
1241.078, 1.851044
1241.560, 1.413086
1242.042, 1.069580
1242.524, 0.9509890
1243.006, 1.100342
1243.489, 1.454773
1243.971, 2.148987
1244.453, 3.006989
1244.935, 3.205292
1245.417, 2.872894
1245.899, 2.499725
1246.381, 2.248505
1246.863, 2.029327
1247.345, 1.816010
1247.828, 1.647247
1248.310, 1.583008
1248.792, 1.585785
1249.274, 1.506561
1249.756, 1.398621
1250.238, 1.441254
1250.720, 1.958435
1251.202, 2.218872
1251.684, 2.104340
1252.167, 1.884521
1252.649, 1.710083
1253.131, 1.632629
1253.613, 1.822021
1254.095, 2.197693
1254.577, 2.506866
1255.059, 2.928680
1255.541, 2.621185
1256.023, 1.285248
1256.506, 0.2916870
1256.988, 1.465820
1257.470, 3.314484
1257.952, 3.637115
1258.434, 2.850616
1258.916, 2.278473
1259.398, 2.213440
1259.880, 1.965698
1260.363, 1.448578
1260.845, 1.052551
1261.327, 1.246399
1261.809, 1.611267
1262.291, 1.692200
1262.773, 1.596649
1263.255, 1.660706
1263.737, 2.049438
1264.219, 1.987213
1264.702, 1.387451
1265.184, 0.8731380
1265.666, 1.032318
1266.148, 1.359253
1266.630, 1.609283
1267.112, 1.685608
1267.594, 1.351868
1268.076, 0.5499270
1268.559, 0.2997130
1269.041, 0.6542360
1269.523, 1.007629
1270.005, 1.106598
1270.487, 1.038361
1270.969, 0.7440800
1271.451, 0.3988650
1271.933, 0.2287900
1272.416, 0.2268680
1272.898, 0.3697810
1273.380, 0.6333920
1273.862, 0.7803960
1274.344, 0.5001830
1274.826, 0.2954710
1275.308, 0.3398130
1275.790, 0.5374760
1276.272, 0.7874150
1276.755, 1.089233
1277.237, 1.563019
1277.719, 2.144501
1278.201, 2.393707
1278.683, 1.767242
1279.165, 1.257996
1279.647, 1.002502
1280.129, 0.9960630
1280.611, 1.530640
1281.094, 2.177246
1281.576, 1.814545
1282.058, 0.6315920
1282.540, 0.1877140
1283.022, 0.4525760
1283.504, 6.2775001E-02
1283.986, 1.671021
1284.468, 3.052094
1284.950, 2.449188
1285.433, 1.134857
1285.915, 0.7221370
1286.397, 1.104279
1286.879, 1.653839
1287.361, 2.468811
1287.843, 2.691589
1288.325, 2.166718
1288.807, 1.669403
1289.290, 2.086121
1289.772, 2.627472
1290.254, 2.512695
1290.736, 2.016602
1291.218, 1.850952
1291.700, 2.038422
1292.182, 2.273529
1292.664, 2.241058
1293.146, 2.395813
1293.629, 2.421112
1294.111, 2.345428
1294.593, 2.183838
1295.075, 1.931763
1295.557, 1.531036
1296.039, 1.008240
1296.521, 0.4898680
1297.003, 1.6266000E-02
1297.486, 8.0994003E-02
1297.968, 0.8414610
1298.450, 1.575012
1298.932, 1.830872
1299.414, 1.813446
1299.896, 1.392456
1300.378, 1.117828
1300.860, 0.6509090
1301.343, 0.1826480
1301.825, 0.0000000E+00
##END=



