##NAMES=Frondelite
##RRUFFID=R050622
##IDEAL CHEMISTRY=(Mn^2+^_0.5_Fe^3+^_0.5_)_2_Fe^3+^_3_(PO_4_)_3_(OH)_5_
##LOCALITY=Hagendorf, Bavaria, Germany
##OWNER=RRUFF
##SOURCE=University of Arizona Mineral Museum
##DESCRIPTION=Black bladed crystals in divergent radial aggregates
##STATUS=The identification of this mineral is confirmed by single-crystal X-ray diffraction and chemical analysis.
##URL=rruff.info/R050622
##MEASURED CHEMISTRY=(Mn^2+^_0.63_Fe^2+^_0.37_)_Î£=1_Fe^3+^_4.00_(P_1.00_O_4_)_3_(OH)_5_
149.9194, 0.0000000E+00
150.4015, 1.7780000E-03
150.8836, 1.1360000E-02
151.3657, 0.3635250
151.8479, 0.7348790
152.3300, 0.9223860
152.8121, 0.8170320
153.2942, 0.6446300
153.7763, 0.3468320
154.2584, 9.9388003E-02
154.7406, 4.0399999E-04
155.2227, 4.8717000E-02
155.7048, 0.1928410
156.1869, 0.3059270
156.6690, 0.3765410
157.1511, 0.4942090
157.6333, 0.7458650
158.1154, 0.9549870
158.5975, 1.129871
159.0796, 1.268150
159.5617, 1.306179
160.0438, 1.100609
160.5260, 0.6357350
161.0081, 0.3147430
161.4902, 0.2662320
161.9723, 0.3686870
162.4544, 0.5555270
162.9365, 0.8739280
163.4187, 1.111961
163.9008, 0.9594920
164.3829, 0.4422720
164.8650, 8.5091002E-02
165.3471, 0.3495290
165.8292, 1.022209
166.3113, 1.492886
166.7935, 1.575615
167.2756, 1.552467
167.7577, 1.529854
168.2398, 1.410141
168.7219, 1.277267
169.2040, 1.238499
169.6862, 1.325424
170.1683, 1.332249
170.6504, 1.124340
171.1325, 0.8724060
171.6146, 0.6420940
172.0967, 0.4579090
172.5789, 0.3376850
173.0610, 0.3519130
173.5431, 0.6178400
174.0252, 0.7968060
174.5073, 0.7584800
174.9894, 0.5649300
175.4716, 0.4394800
175.9537, 0.4262240
176.4358, 0.4880560
176.9179, 0.5951690
177.4000, 0.7551080
177.8821, 0.8072280
178.3643, 0.7871780
178.8464, 0.7164230
179.3285, 0.5789380
179.8106, 0.3680800
180.2927, 0.1457330
180.7748, 7.9506002E-02
181.2570, 0.3821720
181.7391, 0.5829540
182.2212, 0.5826840
182.7033, 0.4531970
183.1854, 0.2916600
183.6675, 0.1324620
184.1497, 1.1166000E-02
184.6318, 9.3891002E-02
185.1139, 0.1342620
185.5960, 0.1104350
186.0781, 3.0708000E-02
186.5602, 0.2500920
187.0423, 0.4395290
187.5245, 0.5515980
188.0066, 0.6253700
188.4887, 0.6245380
188.9708, 0.5601960
189.4529, 0.4935300
189.9350, 0.4193380
190.4172, 0.3483620
190.8993, 0.4164810
191.3814, 0.8528180
191.8635, 1.366467
192.3456, 1.524830
192.8277, 1.169018
193.3099, 0.6847690
193.7920, 0.4648280
194.2741, 0.5339740
194.7562, 0.6217160
195.2383, 0.6335560
195.7204, 0.6031300
196.2026, 0.5563390
196.6847, 0.5032270
197.1668, 0.4252050
197.6489, 0.2407230
198.1310, 0.1637040
198.6131, 0.3350940
199.0953, 2.8705999E-02
199.5774, 0.5797200
200.0595, 1.060562
200.5416, 1.371422
201.0237, 1.491081
201.5058, 1.447121
201.9880, 1.156765
202.4701, 0.8374860
202.9522, 0.4480970
203.4343, 8.8619001E-02
203.9164, 0.1321950
204.3985, 0.1633570
204.8807, 5.1624000E-02
205.3628, 6.8195000E-02
205.8449, 0.2200810
206.3270, 0.3452490
206.8091, 0.3921510
207.2912, 0.4419900
207.7733, 0.6010130
208.2555, 0.9321290
208.7376, 1.340073
209.2197, 1.453030
209.7018, 0.8369370
210.1839, 0.4004480
210.6660, 0.3498080
211.1482, 0.5105780
211.6303, 0.6397360
212.1124, 0.6113660
212.5945, 0.4650120
213.0766, 0.3600350
213.5587, 0.1983380
214.0409, 0.1833420
214.5230, 0.5138700
215.0051, 1.005745
215.4872, 1.312336
215.9693, 1.234119
216.4514, 0.8898010
216.9336, 0.7352220
217.4157, 0.8189470
217.8978, 0.9728130
218.3799, 1.267269
218.8620, 1.602165
219.3441, 1.691841
219.8263, 1.322521
220.3084, 0.7032470
220.7905, 0.4073910
221.2726, 0.5498240
221.7547, 0.7625160
222.2368, 0.8913420
222.7190, 0.9433440
223.2011, 0.9729390
223.6832, 1.030396
224.1653, 1.037651
224.6474, 0.8336520
225.1295, 0.2825810
225.6117, 0.1584210
226.0938, 8.3668001E-02
226.5759, 0.4439090
227.0580, 0.8939780
227.5401, 1.069218
228.0222, 1.060425
228.5043, 0.9960520
228.9865, 0.8750040
229.4686, 0.7241440
229.9507, 0.5077250
230.4328, 0.2275200
230.9149, 0.1222150
231.3970, 0.4825670
231.8792, 0.8930510
232.3613, 0.9555550
232.8434, 0.6022420
233.3255, 0.1839290
233.8076, 7.0418999E-02
234.2897, 0.2929800
234.7719, 0.4659840
235.2540, 0.4904860
235.7361, 0.4409070
236.2182, 0.3105960
236.7003, 0.1070440
237.1824, 4.4964001E-02
237.6646, 4.6181001E-02
238.1467, 0.4492000
238.6288, 0.6908110
239.1109, 0.5415690
239.5930, 0.3362120
240.0751, 0.2178610
240.5573, 0.2141380
241.0394, 0.3041570
241.5215, 0.5164950
242.0036, 0.9279370
242.4857, 1.132145
242.9678, 0.9063190
243.4500, 0.6384200
243.9321, 0.5294880
244.4142, 0.5913050
244.8963, 0.7045100
245.3784, 0.7340350
245.8605, 0.6481440
246.3427, 0.5918580
246.8248, 0.5632440
247.3069, 0.5633240
247.7890, 0.6569860
248.2711, 0.8071060
248.7532, 0.8708720
249.2354, 0.6578670
249.7175, 4.3338999E-02
250.1996, 0.3106650
250.6817, 0.3297650
251.1638, 0.1946410
251.6459, 0.1330950
252.1281, 0.5766530
252.6102, 0.9260670
253.0923, 0.9575230
253.5744, 0.6002580
254.0565, 0.3567430
254.5386, 0.2820090
255.0208, 0.2457580
255.5029, 0.1858100
255.9850, 9.0499997E-02
256.4671, 3.2690000E-03
256.9492, 1.7540000E-02
257.4313, 8.8350000E-03
257.9135, 0.1416050
258.3956, 0.5460890
258.8777, 0.8743590
259.3598, 0.9337960
259.8419, 0.7780990
260.3240, 0.5994340
260.8062, 0.5454480
261.2883, 0.6114920
261.7704, 0.5896340
262.2525, 0.4829250
262.7346, 0.3368760
263.2167, 9.2464000E-02
263.6989, 0.1933520
264.1810, 0.3641620
264.6631, 0.3071140
265.1452, 4.8340000E-02
265.6273, 0.1764680
266.1094, 0.3660130
266.5916, 0.5311200
267.0737, 0.7027090
267.5558, 0.8541830
268.0379, 0.9069290
268.5200, 0.7965470
269.0021, 0.5791020
269.4843, 0.4901050
269.9664, 0.6091080
270.4485, 0.7284010
270.9306, 0.7941320
271.4127, 0.8124620
271.8948, 0.7863730
272.3770, 0.7053110
272.8591, 0.6031340
273.3412, 0.5743900
273.8233, 0.6324770
274.3054, 0.7119100
274.7875, 0.8254780
275.2697, 0.9431500
275.7518, 1.001186
276.2339, 0.9696310
276.7160, 0.8897130
277.1981, 0.8429220
277.6802, 0.8421820
278.1623, 0.8112030
278.6444, 0.7073820
279.1266, 0.5639230
279.6087, 0.4076500
280.0908, 0.2232320
280.5729, 0.1120380
281.0550, 0.3114550
281.5371, 0.8305930
282.0193, 1.175842
282.5014, 1.138092
282.9835, 0.8821260
283.4656, 0.6030500
283.9477, 0.3439600
284.4298, 0.1376910
284.9120, 2.8190000E-03
285.3941, 6.4315997E-02
285.8762, 3.0742999E-02
286.3583, 0.2127490
286.8404, 0.5134890
287.3225, 0.6946180
287.8047, 0.7382510
288.2868, 0.6771350
288.7689, 0.4163740
289.2510, 5.4400999E-02
289.7331, 5.4008000E-02
290.2152, 0.3915750
290.6974, 0.9714700
291.1795, 1.256432
291.6616, 1.233177
292.1437, 1.098972
292.6258, 0.9025800
293.1079, 0.6941340
293.5901, 0.5858190
294.0722, 0.6213420
294.5543, 0.7240180
295.0364, 0.8520320
295.5185, 1.008476
296.0006, 1.139263
296.4828, 1.228550
296.9649, 1.267567
297.4470, 1.237232
297.9291, 1.090275
298.4112, 0.9829060
298.8933, 1.095070
299.3755, 1.377895
299.8576, 1.522972
300.3397, 1.375771
300.8218, 1.095245
301.3039, 0.8966790
301.7860, 0.7842900
302.2682, 0.7184100
302.7503, 0.6744230
303.2324, 0.6585500
303.7145, 0.7058140
304.1966, 0.8637660
304.6787, 1.018555
305.1609, 1.044147
305.6430, 0.9546390
306.1251, 0.8433610
306.6072, 0.7305830
307.0893, 0.6269570
307.5714, 0.5437660
308.0536, 0.4540750
308.5357, 0.4300730
309.0178, 0.5589940
309.4999, 0.8038180
309.9820, 1.076607
310.4641, 1.504539
310.9463, 1.884808
311.4284, 1.820480
311.9105, 1.219376
312.3926, 0.6460110
312.8747, 0.4965780
313.3568, 0.6253510
313.8390, 0.7974010
314.3211, 0.9998130
314.8032, 1.196766
315.2853, 1.340473
315.7674, 1.429024
316.2495, 1.545124
316.7317, 1.825066
317.2138, 2.091774
317.6959, 2.037621
318.1780, 1.500866
318.6601, 1.008492
319.1422, 1.038437
319.6243, 1.512611
320.1064, 1.896400
320.5886, 2.040543
321.0707, 1.997726
321.5528, 1.803547
322.0349, 1.438725
322.5170, 1.155502
322.9991, 1.160568
323.4813, 1.348984
323.9634, 1.428753
324.4455, 1.312759
324.9276, 1.155807
325.4097, 1.116814
325.8918, 1.174667
326.3740, 1.242359
326.8561, 1.345066
327.3382, 1.421299
327.8203, 1.321495
328.3024, 0.9905130
328.7845, 0.7112050
329.2667, 0.7153210
329.7488, 0.9371760
330.2309, 1.235260
330.7130, 1.774082
331.1951, 2.241779
331.6772, 2.252178
332.1594, 1.812263
332.6415, 1.359325
333.1236, 1.077396
333.6057, 0.9595910
334.0878, 0.9552730
334.5699, 1.104446
335.0521, 1.291508
335.5342, 1.466751
336.0163, 1.624279
336.4984, 1.742950
336.9805, 1.814056
337.4626, 1.841991
337.9448, 1.812473
338.4269, 1.706818
338.9090, 1.665817
339.3911, 1.834930
339.8732, 2.090927
340.3553, 2.175442
340.8375, 2.011478
341.3196, 1.780544
341.8017, 1.669136
342.2838, 1.667091
342.7659, 1.720085
343.2480, 1.900803
343.7302, 2.085144
344.2123, 2.115078
344.6944, 1.980618
345.1765, 1.823204
345.6586, 1.723907
346.1407, 1.693794
346.6229, 1.734440
347.1050, 1.933613
347.5871, 2.124542
348.0692, 2.220814
348.5513, 2.227333
349.0334, 2.155224
349.5156, 1.987133
349.9977, 1.769566
350.4798, 1.634754
350.9619, 1.611877
351.4440, 1.595009
351.9261, 1.590767
352.4083, 1.563435
352.8904, 1.401291
353.3725, 1.049789
353.8546, 0.7180750
354.3367, 0.7429310
354.8188, 1.221176
355.3010, 1.587551
355.7831, 1.785164
356.2652, 1.861103
356.7473, 1.828300
357.2294, 1.698845
357.7115, 1.515385
358.1937, 1.278568
358.6758, 0.9872780
359.1579, 0.9376370
359.6400, 1.396004
360.1221, 1.835236
360.6042, 1.907726
361.0863, 1.697086
361.5685, 1.488464
362.0506, 1.429981
362.5327, 1.491577
363.0148, 1.553379
363.4969, 1.669270
363.9790, 1.719189
364.4612, 1.648636
364.9433, 1.517258
365.4254, 1.398956
365.9075, 1.317760
366.3896, 1.244858
366.8717, 1.125591
367.3539, 0.8842390
367.8360, 0.7820630
368.3181, 0.9119260
368.8002, 1.121063
369.2823, 1.305222
369.7644, 1.438805
370.2466, 1.531548
370.7287, 1.594170
371.2108, 1.626110
371.6929, 1.686684
372.1750, 1.899082
372.6571, 2.006809
373.1393, 1.839645
373.6214, 1.542564
374.1035, 1.328842
374.5856, 1.312798
375.0677, 1.445305
375.5498, 1.585617
376.0320, 1.841930
376.5141, 1.932125
376.9962, 1.725945
377.4783, 1.425941
377.9604, 1.188076
378.4425, 1.057575
378.9247, 1.010849
379.4068, 1.034916
379.8889, 1.167858
380.3710, 1.237869
380.8531, 1.207417
381.3352, 1.147694
381.8174, 1.059059
382.2995, 0.9633060
382.7816, 0.9131240
383.2637, 0.9741020
383.7458, 1.115772
384.2279, 1.112846
384.7101, 0.8330190
385.1922, 0.6096990
385.6743, 0.5076900
386.1564, 0.5215840
386.6385, 0.6828350
387.1206, 1.028011
387.6028, 1.396126
388.0849, 1.502018
388.5670, 1.283806
389.0491, 1.099632
389.5312, 1.109943
390.0133, 1.121475
390.4955, 0.9630580
390.9776, 0.6383360
391.4597, 0.3580970
391.9418, 0.3123510
392.4239, 0.4650460
392.9060, 0.6102980
393.3882, 0.7614560
393.8703, 0.8559530
394.3524, 0.8234290
394.8345, 0.7100330
395.3166, 0.6121640
395.7987, 0.5732460
396.2809, 0.5617640
396.7630, 0.5277370
397.2451, 0.4672240
397.7272, 0.4381450
398.2093, 0.4818040
398.6914, 0.5645370
399.1736, 0.6282580
399.6557, 0.6635480
400.1378, 0.7058410
400.6199, 0.8153190
401.1020, 0.9499860
401.5841, 0.9753910
402.0662, 0.8359070
402.5483, 0.6572800
403.0305, 0.6086880
403.5126, 0.6777380
403.9947, 0.7166180
404.4768, 0.7507630
404.9589, 0.7481420
405.4410, 0.6381260
405.9232, 0.4338420
406.4053, 0.2713970
406.8874, 0.2544940
407.3695, 0.3494720
407.8516, 0.3737680
408.3337, 0.2443160
408.8159, 0.1510930
409.2980, 0.2142750
409.7801, 0.3362160
410.2622, 0.3378180
410.7443, 0.1540070
411.2264, 9.1805004E-02
411.7086, 0.2003060
412.1907, 9.6473999E-02
412.6728, 3.0556001E-02
413.1549, 6.1935000E-02
413.6370, 8.3099000E-02
414.1191, 1.7619999E-02
414.6013, 0.1306800
415.0834, 0.3334010
415.5655, 0.5945930
416.0476, 0.8960080
416.5297, 0.9025380
417.0118, 0.1245610
417.4940, 0.3910480
417.9761, 0.2763480
418.4582, 0.1262820
418.9403, 0.3839760
419.4224, 0.3328740
419.9045, 0.1352230
420.3867, 7.6880999E-02
420.8688, 0.2197990
421.3509, 0.3401450
421.8330, 0.4415740
422.3151, 0.5091290
422.7972, 0.5259590
423.2794, 0.4985390
423.7615, 0.4524880
424.2436, 0.4187850
424.7257, 0.3853800
425.2078, 0.2485430
425.6899, 0.1111300
426.1721, 0.3602070
426.6542, 0.3345150
427.1363, 0.1664050
427.6184, 5.9900002E-04
428.1005, 0.1263690
428.5826, 0.2175790
429.0648, 0.2982940
429.5469, 0.3698580
430.0290, 0.3367650
430.5111, 9.0588003E-02
430.9932, 0.1690140
431.4753, 0.2650260
431.9575, 0.2115780
432.4396, 0.1259420
432.9217, 5.7220001E-02
433.4038, 6.5270001E-03
433.8859, 9.5604002E-02
434.3680, 0.2161640
434.8502, 0.3160590
435.3323, 0.3637350
435.8144, 0.3632700
436.2965, 0.3328930
436.7786, 0.2357290
437.2607, 0.1651880
437.7429, 0.1832540
438.2250, 0.2649080
438.7071, 0.3651890
439.1892, 0.4770970
439.6713, 0.5683440
440.1534, 0.5904310
440.6356, 0.5306590
441.1177, 0.4510800
441.5998, 0.3112490
442.0819, 0.1859090
442.5640, 0.1424750
443.0461, 0.1696850
443.5282, 0.2058980
444.0103, 0.2076070
444.4925, 0.1820950
444.9746, 0.1766820
445.4567, 0.2239150
445.9388, 0.2533530
446.4209, 0.2330740
446.9030, 0.2035180
447.3852, 0.2182540
447.8673, 0.2852100
448.3494, 0.3489040
448.8315, 0.3247870
449.3136, 0.1758000
449.7957, 0.1201400
450.2779, 0.1833040
450.7600, 0.3186000
451.2421, 0.5914270
451.7242, 0.9160040
452.2063, 1.130020
452.6884, 1.128922
453.1706, 1.005108
453.6527, 0.9714890
454.1348, 1.081936
454.6169, 1.122948
455.0990, 0.9964750
455.5811, 0.8106770
456.0633, 0.5962410
456.5454, 0.3701400
457.0275, 0.2276540
457.5096, 0.2874260
457.9917, 0.4892920
458.4738, 0.6420750
458.9560, 0.7578660
459.4381, 0.7589000
459.9202, 0.4127460
460.4023, 6.2877998E-02
460.8844, 0.2291980
461.3665, 0.1494900
461.8487, 0.6326180
462.3308, 0.8444140
462.8129, 0.8674550
463.2950, 1.057133
463.7771, 1.607353
464.2592, 2.162033
464.7414, 2.092716
465.2235, 1.285252
465.7056, 0.7036780
466.1877, 0.5205120
466.6698, 0.5499570
467.1519, 0.7295000
467.6341, 1.004063
468.1162, 1.230698
468.5983, 1.320347
469.0804, 1.287907
469.5625, 1.208000
470.0446, 0.9177860
470.5268, 0.8154870
471.0089, 1.115417
471.4910, 1.488258
471.9731, 1.599178
472.4552, 1.407997
472.9373, 1.163696
473.4195, 1.157501
473.9016, 1.416962
474.3837, 1.542328
474.8658, 1.385662
475.3479, 1.227848
475.8300, 1.204674
476.3122, 1.265629
476.7943, 1.287636
477.2764, 1.217102
477.7585, 1.154976
478.2406, 1.312447
478.7227, 1.732227
479.2049, 1.982368
479.6870, 1.908035
480.1691, 1.713928
480.6512, 1.527935
481.1333, 1.356461
481.6154, 1.202400
482.0976, 1.037853
482.5797, 0.9071040
483.0618, 0.8843000
483.5439, 0.9719050
484.0260, 1.108776
484.5081, 1.358185
484.9902, 1.614044
485.4724, 1.604347
485.9545, 1.187969
486.4366, 0.9249270
486.9187, 1.111977
487.4008, 1.512642
487.8829, 1.846588
488.3651, 2.058540
488.8472, 2.086803
489.3293, 1.853615
489.8114, 1.370323
490.2935, 1.127907
490.7756, 1.280407
491.2578, 1.445007
491.7399, 1.553612
492.2220, 1.594631
492.7041, 1.539631
493.1862, 1.387024
493.6683, 1.209190
494.1505, 1.111736
494.6326, 1.112900
495.1147, 1.119957
495.5968, 1.171249
496.0789, 1.190907
496.5610, 1.139088
497.0432, 1.036587
497.5253, 0.9098510
498.0074, 0.7575260
498.4895, 0.6353300
498.9716, 0.7041660
499.4537, 1.020931
499.9359, 1.155766
500.4180, 0.8309750
500.9001, 0.4468690
501.3822, 0.3604620
501.8643, 0.5495640
502.3464, 0.7313080
502.8286, 0.7250900
503.3107, 0.6535530
503.7928, 0.7369190
504.2749, 0.9812890
504.7570, 1.163937
505.2391, 1.148026
505.7213, 1.004887
506.2034, 0.6742820
506.6855, 1.055634
507.1676, 1.245815
507.6497, 1.254433
508.1318, 0.5460970
508.6140, 0.7662700
509.0961, 0.6149830
509.5782, 0.4485470
510.0603, 0.7998310
510.5424, 0.1976780
511.0245, 0.5418280
511.5067, 0.5090710
511.9888, 0.6482660
512.4709, 0.4124530
512.9530, 0.5404930
513.4351, 0.6527940
513.9172, 0.4928510
514.3994, 0.2911110
514.8815, 0.3785170
515.3636, 0.7973440
515.8457, 0.9447590
516.3278, 0.6008830
516.8099, 0.2710530
517.2921, 0.1936300
517.7742, 0.2531470
518.2563, 0.2471240
518.7384, 9.8159999E-02
519.2205, 3.3115000E-02
519.7026, 2.4326000E-02
520.1848, 0.2326320
520.6669, 0.2993510
521.1490, 9.5817998E-02
521.6311, 0.1259540
522.1132, 3.7441000E-02
522.5953, 0.2921410
523.0775, 0.4766690
523.5596, 0.3336260
524.0417, 0.1291470
524.5238, 4.6124000E-02
525.0059, 5.5420000E-02
525.4880, 6.4525999E-02
525.9702, 3.7422001E-02
526.4523, 1.6018000E-02
526.9344, 8.7761000E-02
527.4165, 0.2169530
527.8986, 0.2503780
528.3807, 0.1491890
528.8629, 3.3990000E-03
529.3450, 0.2148630
529.8271, 0.4382170
530.3092, 0.5786170
530.7913, 0.5779380
531.2734, 0.4896890
531.7556, 0.4506150
532.2377, 0.4962500
532.7198, 0.4905850
533.2019, 0.3533780
533.6840, 0.2091750
534.1661, 0.1007690
534.6483, 4.1386001E-02
535.1304, 5.6910999E-02
535.6125, 0.1891710
536.0946, 0.3878140
536.5767, 0.6097450
537.0588, 0.8635100
537.5410, 0.9434360
538.0231, 0.6940080
538.5052, 0.2985760
538.9873, 2.5630999E-02
539.4694, 0.1315310
539.9515, 0.1736760
540.4337, 6.7670001E-03
540.9158, 0.2294960
541.3979, 0.3177410
541.8800, 0.2717400
542.3621, 0.1560820
542.8442, 9.7200004E-03
543.3264, 0.1772380
543.8085, 0.1784130
544.2906, 0.2079390
544.7726, 0.4553180
545.2548, 0.4598350
545.7369, 0.3999790
546.2190, 0.4002080
546.7011, 0.4644170
547.1832, 0.5314750
547.6653, 0.5509680
548.1475, 0.5408630
548.6296, 0.5957570
549.1117, 0.7874340
549.5938, 0.8549770
550.0759, 0.5673600
550.5580, 0.2268600
551.0402, 4.9740002E-02
551.5223, 5.3467002E-02
552.0044, 0.1409030
552.4865, 0.3164600
552.9686, 0.5170750
553.4507, 0.6185610
553.9329, 0.6154710
554.4150, 0.6071510
554.8971, 0.6512260
555.3792, 0.7195210
555.8613, 0.7384950
556.3434, 0.6983260
556.8256, 0.6444130
557.3077, 0.5349010
557.7898, 0.4493140
558.2719, 0.4965630
558.7540, 0.6516230
559.2361, 0.7750550
559.7183, 0.7633710
560.2004, 0.6586760
560.6825, 0.6450200
561.1646, 0.8227770
561.6467, 0.9189680
562.1288, 0.8562360
562.6110, 0.7540970
563.0931, 0.6857870
563.5752, 0.6594850
564.0573, 0.6555600
564.5394, 0.6759830
565.0215, 0.7022250
565.5037, 0.6826400
565.9858, 0.6097370
566.4679, 0.5344850
566.9500, 0.4823680
567.4321, 0.4265250
567.9142, 0.3069840
568.3964, 0.1073490
568.8785, 5.9320000E-03
569.3606, 0.1060070
569.8427, 0.2977790
570.3248, 0.5156630
570.8069, 0.7309150
571.2891, 0.8408280
571.7712, 0.7729760
572.2533, 0.6053160
572.7354, 0.5371820
573.2175, 0.6606220
573.6996, 0.7237400
574.1818, 0.6550640
574.6639, 0.5906790
575.1460, 0.6186870
575.6281, 0.7251320
576.1102, 0.8489880
576.5923, 0.9533730
577.0745, 1.047291
577.5566, 1.213123
578.0387, 1.504791
578.5208, 1.555916
579.0029, 1.050175
579.4850, 0.5267220
579.9672, 0.4698140
580.4493, 0.7853390
580.9314, 1.037861
581.4135, 1.000549
581.8956, 0.8903010
582.3777, 0.9292070
582.8599, 1.080475
583.3420, 1.191364
583.8241, 1.207653
584.3062, 1.170025
584.7883, 1.132759
585.2704, 1.098160
585.7526, 1.030285
586.2347, 0.8855930
586.7168, 0.7770310
587.1989, 0.7202800
587.6810, 0.7314190
588.1631, 0.8756480
588.6453, 1.170719
589.1274, 1.459084
589.6095, 1.491875
590.0916, 1.238499
590.5737, 0.6768950
591.0558, 1.122952
591.5380, 1.379704
592.0201, 1.455166
592.5022, 0.8099980
592.9843, 1.092331
593.4664, 1.004494
593.9485, 0.9024350
594.4307, 1.318890
594.9128, 0.7820850
595.3949, 1.190975
595.8770, 1.222286
596.3591, 1.424698
596.8412, 1.250275
597.3234, 1.182331
597.8055, 1.485992
598.2876, 1.593735
598.7697, 1.378590
599.2518, 1.592342
599.7339, 1.041542
600.2161, 1.160706
600.6982, 1.566193
601.1803, 1.355961
601.6624, 1.561913
602.1445, 1.623028
602.6266, 1.299133
603.1088, 1.199802
603.5909, 1.142677
604.0730, 1.259350
604.5551, 1.387791
605.0372, 1.403492
605.5193, 1.308559
606.0015, 1.190926
606.4836, 1.074326
606.9657, 0.9688930
607.4478, 0.9110320
607.9299, 0.8862710
608.4120, 0.7758200
608.8942, 0.5007310
609.3763, 0.2356820
609.8584, 0.2761000
610.3405, 0.7602180
610.8226, 1.040575
611.3047, 0.9866100
611.7869, 0.8742680
612.2690, 0.7819900
612.7511, 0.7333240
613.2332, 0.7682880
613.7153, 0.8987160
614.1974, 1.041542
614.6796, 1.071852
615.1617, 0.9824450
615.6438, 0.9233550
616.1259, 0.9166910
616.6080, 0.9101410
617.0901, 0.8878000
617.5723, 0.8442480
618.0544, 0.7576330
618.5365, 0.6044010
619.0186, 0.4826740
619.5007, 0.4156820
619.9828, 0.4292640
620.4650, 0.6400550
620.9471, 1.032225
621.4292, 1.304308
621.9113, 1.227585
622.3934, 0.9062400
622.8755, 0.7470990
623.3577, 0.9478720
623.8398, 1.029358
624.3219, 0.9175720
624.8040, 0.7454830
625.2861, 0.5882850
625.7682, 0.4490950
626.2504, 0.3036330
626.7325, 0.1376550
627.2145, 4.1789999E-03
627.6967, 2.2283999E-02
628.1788, 0.1994690
628.6609, 0.3588070
629.1430, 0.4700030
629.6251, 0.5460870
630.1072, 0.5746900
630.5894, 0.5742240
631.0715, 0.6172810
631.5536, 0.8394220
632.0357, 0.9706710
632.5178, 0.7676470
632.9999, 0.4223060
633.4821, 0.2604450
633.9642, 0.3419170
634.4463, 0.4646570
634.9284, 0.4239310
635.4105, 0.2391340
635.8926, 0.2081280
636.3748, 0.4731850
636.8569, 0.6667840
637.3390, 0.7523990
637.8211, 0.7321490
638.3032, 0.5239030
638.7853, 0.1747340
639.2675, 4.2057000E-02
639.7496, 0.1481840
640.2317, 0.4751070
640.7138, 0.4926320
641.1959, 0.2318040
641.6780, 4.6376999E-02
642.1602, 7.6472998E-02
642.6423, 0.1864050
643.1244, 0.2050250
643.6065, 0.1131420
644.0886, 3.9762001E-02
644.5707, 7.6650999E-02
645.0529, 0.1069740
645.5350, 8.8496998E-02
646.0171, 0.3685610
646.4992, 0.5450130
646.9813, 0.5618720
647.4634, 0.4734380
647.9456, 0.3018990
648.4277, 6.2291998E-02
648.9098, 6.1602000E-02
649.3919, 5.0312001E-02
649.8740, 3.0641999E-02
650.3561, 0.2440030
650.8383, 0.4590490
651.3204, 0.4908890
651.8025, 0.3183590
652.2846, 0.2405050
652.7667, 0.4765130
653.2488, 0.7352390
653.7310, 0.7147160
654.2131, 0.4930950
654.6952, 0.3358970
655.1773, 0.3567330
655.6594, 0.4382290
656.1415, 0.3805220
656.6237, 0.1263470
657.1058, 2.8309999E-03
657.5879, 0.1158490
658.0700, 0.2291530
658.5521, 0.2344860
659.0342, 0.2136590
659.5164, 0.2941470
659.9985, 0.5039830
660.4806, 0.6944870
660.9627, 0.7449800
661.4448, 0.6874350
661.9269, 0.5463220
662.4091, 0.3224770
662.8912, 0.2460230
663.3733, 0.4910890
663.8554, 0.8500230
664.3375, 0.8846050
664.8196, 0.3991810
665.3018, 0.1603830
665.7839, 0.3425270
666.2660, 0.6145130
666.7481, 0.9226210
667.2302, 1.162575
667.7123, 1.127356
668.1945, 0.7503990
668.6766, 0.3273160
669.1587, 0.2654210
669.6408, 0.5482940
670.1229, 0.7441860
670.6050, 0.7987250
671.0872, 0.8021200
671.5693, 0.7843740
672.0514, 0.7510260
672.5335, 0.7229040
673.0156, 0.7155720
673.4977, 0.6481610
673.9799, 0.3944110
674.4620, 0.1494180
674.9441, 8.6588003E-02
675.4262, 0.1792680
675.9083, 0.3398860
676.3904, 0.5301150
676.8726, 0.6932260
677.3547, 0.7286570
677.8368, 0.6174200
678.3189, 0.4994790
678.8010, 0.2798790
679.2831, 0.1948870
679.7653, 0.4842720
680.2474, 0.8781600
680.7295, 1.043692
681.2116, 0.9208700
681.6937, 0.6847400
682.1758, 0.2754500
682.6580, 9.9697001E-02
683.1401, 0.1021390
683.6222, 0.2117610
684.1043, 0.4974670
684.5864, 0.6007350
685.0685, 0.5635810
685.5507, 0.4359280
686.0328, 0.1492560
686.5149, 4.8847001E-02
686.9970, 0.3797150
687.4791, 0.6227660
687.9612, 0.5217110
688.4434, 0.2978020
688.9255, 0.2591820
689.4076, 0.4721390
689.8897, 0.6701070
690.3718, 0.5478210
690.8539, 0.3039760
691.3361, 0.4182570
691.8182, 0.8767590
692.3003, 1.131453
692.7824, 0.9024390
693.2645, 0.4734040
693.7466, 0.3010060
694.2288, 0.4715820
694.7109, 0.5460400
695.1930, 0.5114230
695.6751, 0.4052450
696.1572, 0.1308520
696.6393, 0.1555230
697.1215, 0.2249640
697.6036, 4.1698001E-02
698.0857, 0.1606410
698.5678, 0.1165350
699.0499, 0.2912670
699.5320, 3.2963000E-02
700.0142, 0.4074400
700.4963, 0.6608580
700.9784, 0.6146140
701.4605, 0.4351540
701.9426, 0.3450410
702.4247, 0.3602430
702.9069, 0.3369060
703.3890, 0.1797290
703.8711, 9.3203999E-02
704.3532, 0.2240660
704.8353, 0.4403720
705.3174, 0.5873700
705.7996, 0.6314430
706.2817, 0.6193080
706.7638, 0.5654320
707.2459, 0.5020310
707.7280, 0.5879840
708.2101, 0.8620570
708.6923, 0.8778420
709.1743, 0.3745710
709.6564, 0.2207010
710.1385, 0.3966580
710.6207, 0.1825390
711.1028, 5.3720001E-02
711.5849, 0.4201950
712.0670, 0.6483080
712.5491, 0.4922330
713.0313, 0.2259620
713.5134, 0.1707100
713.9955, 0.3547440
714.4776, 0.6123910
714.9597, 0.8423400
715.4418, 1.017048
715.9240, 1.042757
716.4061, 0.9031940
716.8882, 0.7404580
717.3703, 0.5283850
717.8524, 0.3874170
718.3345, 0.5193670
718.8167, 0.8151490
719.2988, 0.8822230
719.7809, 0.4920080
720.2630, 0.1721880
720.7451, 0.1644800
721.2272, 0.2688390
721.7094, 0.2733460
722.1915, 0.1875630
722.6736, 0.1581060
723.1557, 0.2780700
723.6378, 0.4656890
724.1199, 0.5480980
724.6021, 0.5159510
725.0842, 0.5157130
725.5663, 0.6193870
726.0484, 0.6350250
726.5305, 0.3250920
727.0126, 0.1184600
727.4948, 0.2801670
727.9769, 3.8157001E-02
728.4590, 0.1729220
728.9411, 0.1928650
729.4232, 0.1358340
729.9053, 7.2956003E-02
730.3875, 2.1769000E-02
730.8696, 1.4416000E-02
731.3517, 3.2930002E-02
731.8338, 8.0779996E-03
732.3159, 0.2208310
732.7980, 0.6046350
733.2802, 0.7943780
733.7623, 0.7493690
734.2444, 0.6187020
734.7265, 0.3860110
735.2086, 0.1576190
735.6907, 0.1006280
736.1729, 0.2295610
736.6550, 0.3216080
737.1371, 0.2525940
737.6192, 0.2160090
738.1013, 0.4083880
738.5834, 0.6799770
739.0656, 0.7610030
739.5477, 0.6044240
740.0298, 0.4109920
740.5119, 0.3682040
740.9940, 0.4446350
741.4761, 0.4839940
741.9583, 0.4702430
742.4404, 0.4637450
742.9225, 0.4893110
743.4046, 0.5140340
743.8867, 0.4901350
744.3688, 0.4298740
744.8510, 0.4156170
745.3331, 0.5090980
745.8152, 0.5831390
746.2973, 0.5494040
746.7794, 0.5029600
747.2615, 0.5917150
747.7437, 0.7720680
748.2258, 0.8218150
748.7079, 0.5829140
749.1900, 0.2476290
749.6721, 0.2026600
750.1542, 0.4420910
750.6364, 0.5890330
751.1185, 0.5937960
751.6006, 0.5201300
752.0827, 0.3518050
752.5648, 0.1537950
753.0469, 0.1177500
753.5291, 0.3238510
754.0112, 0.4610080
754.4933, 0.4462640
754.9754, 0.3802660
755.4575, 0.2736910
755.9396, 0.1853660
756.4218, 0.2450520
756.9039, 0.4882910
757.3860, 0.7319320
757.8681, 0.7890530
758.3502, 0.6915340
758.8323, 0.5268690
759.3145, 0.2913270
759.7966, 0.1034580
760.2787, 8.5800001E-04
760.7608, 1.8257000E-02
761.2429, 8.2478002E-02
761.7250, 0.3216190
762.2072, 0.4415000
762.6893, 0.3207590
763.1714, 0.2456510
763.6535, 0.3298890
764.1356, 0.4547480
764.6177, 0.5452750
765.0999, 0.5730610
765.5820, 0.4768640
766.0641, 0.1324410
766.5462, 0.1847310
767.0283, 6.3299999E-04
767.5104, 0.5165370
767.9926, 0.7536180
768.4747, 0.6295030
768.9568, 0.4647790
769.4389, 0.4756280
769.9210, 0.5973640
770.4031, 0.6177940
770.8853, 0.4560170
771.3674, 0.3496670
771.8495, 0.2509780
772.3316, 0.2576580
772.8137, 0.5664940
773.2958, 0.9494130
773.7780, 1.010469
774.2601, 0.6422920
774.7422, 0.3146760
775.2243, 0.4228500
775.7064, 0.6728290
776.1885, 0.6768880
776.6707, 0.4820580
777.1528, 0.2979160
777.6349, 0.1979060
778.1170, 0.1673240
778.5991, 0.1959300
779.0812, 0.2816980
779.5634, 0.3836670
780.0455, 0.5409660
780.5276, 0.6231900
781.0097, 0.5375580
781.4918, 0.4217850
781.9739, 0.3591770
782.4561, 0.3531570
782.9382, 0.4206410
783.4203, 0.6916330
783.9024, 0.8478280
784.3845, 0.6394820
784.8666, 0.2855490
785.3488, 4.9569998E-03
785.8309, 0.1557250
786.3130, 0.1047120
786.7951, 0.1951520
787.2772, 0.5507010
787.7593, 0.5858750
788.2415, 0.3096100
788.7236, 0.1842060
789.2057, 0.2624760
789.6878, 0.3889900
790.1699, 0.5095670
790.6520, 0.6131730
791.1342, 0.6812650
791.6162, 0.7104630
792.0983, 0.7284450
792.5804, 0.6942980
793.0626, 0.6976720
793.5447, 0.8584460
794.0268, 1.027359
794.5089, 0.9909270
794.9910, 0.7556000
795.4731, 0.5565240
795.9553, 0.5847150
796.4374, 0.6846030
796.9195, 0.5655670
797.4016, 0.2981450
797.8837, 0.2367940
798.3658, 0.4525740
798.8480, 0.6823350
799.3301, 0.7441230
799.8122, 0.6613290
800.2943, 0.4986920
800.7764, 0.1605590
801.2585, 5.2956000E-02
801.7407, 4.9368002E-02
802.2228, 1.5053000E-02
802.7049, 5.8107000E-02
803.1870, 9.4360001E-02
803.6691, 3.8419999E-02
804.1512, 0.3775880
804.6334, 0.6341650
805.1155, 0.5945950
805.5976, 0.4696450
806.0797, 0.4704400
806.5618, 0.5375600
807.0439, 0.4995190
807.5261, 0.3249300
808.0082, 0.1800900
808.4903, 0.2324350
808.9724, 0.4244290
809.4545, 0.5195900
809.9366, 0.4895900
810.4188, 0.5785620
810.9009, 0.9077430
811.3830, 1.211639
811.8651, 1.290873
812.3472, 1.184498
812.8293, 1.038164
813.3115, 0.8054160
813.7936, 0.6325400
814.2757, 0.5544680
814.7578, 0.5291860
815.2399, 0.5537220
815.7220, 0.6063650
816.2042, 0.6622540
816.6863, 0.7127670
817.1684, 0.7497370
817.6505, 0.7464280
818.1326, 0.7321550
818.6147, 0.7959310
819.0969, 0.9151270
819.5790, 0.9224850
820.0611, 0.7652320
820.5432, 0.5982820
821.0253, 0.5757600
821.5074, 0.6735120
821.9896, 0.7329080
822.4717, 0.7440760
822.9538, 0.7207680
823.4359, 0.6440930
823.9180, 0.5568500
824.4001, 0.4556900
824.8823, 0.3751450
825.3644, 0.3144910
825.8465, 0.2596570
826.3286, 0.2831360
826.8107, 0.5379850
827.2928, 0.7714040
827.7750, 0.7064690
828.2571, 0.4811480
828.7392, 0.3864670
829.2213, 0.4989660
829.7034, 0.6391510
830.1855, 0.6148990
830.6677, 0.7175460
831.1498, 0.8093760
831.6319, 0.7967620
832.1140, 0.9497800
832.5961, 0.9699480
833.0782, 0.9127580
833.5604, 0.7938390
834.0425, 0.6430030
834.5246, 0.5918430
835.0067, 0.7585320
835.4888, 0.8226530
835.9709, 0.7324070
836.4531, 0.6035250
836.9352, 0.4297140
837.4173, 0.2729090
837.8994, 0.2169950
838.3815, 0.2786640
838.8636, 0.4101770
839.3458, 0.6219880
839.8279, 0.8613010
840.3100, 1.169966
840.7921, 1.443136
841.2742, 1.431387
841.7563, 1.117750
842.2385, 0.7550960
842.7206, 0.5366290
843.2027, 0.4488490
843.6848, 0.4597070
844.1669, 0.5724140
844.6490, 0.6444300
845.1312, 0.6372490
845.6133, 0.6771340
846.0954, 0.8973790
846.5775, 1.166670
847.0596, 1.157782
847.5417, 0.7110920
848.0239, 0.4526200
848.5060, 0.4879380
848.9881, 0.5759010
849.4702, 0.6575280
849.9523, 0.7428110
850.4344, 0.8969190
850.9166, 1.088800
851.3987, 1.122080
851.8808, 0.7926410
852.3629, 0.4314160
852.8450, 0.2907580
853.3271, 0.3093950
853.8093, 0.4487840
854.2914, 0.6706470
854.7735, 0.8283790
855.2556, 0.8244820
855.7377, 0.7210500
856.2198, 0.6257310
856.7020, 0.5453990
857.1841, 0.4490320
857.6662, 0.3120350
858.1483, 0.3088110
858.6304, 0.5610470
859.1125, 0.8706280
859.5947, 1.001253
860.0768, 0.9521470
860.5589, 0.9317510
861.0410, 1.028324
861.5231, 1.031673
862.0052, 0.7508240
862.4874, 0.5203300
862.9695, 0.6647740
863.4516, 1.014194
863.9337, 1.173710
864.4158, 1.014269
864.8979, 0.7639180
865.3801, 0.4573840
865.8622, 0.2225280
866.3443, 0.2533650
866.8264, 0.4553780
867.3085, 0.5876480
867.7906, 0.5814670
868.2728, 0.5387270
868.7549, 0.5507280
869.2370, 0.6013890
869.7191, 0.6580850
870.2012, 0.7227590
870.6833, 0.7124120
871.1655, 0.5804580
871.6476, 0.5346970
872.1297, 0.7659530
872.6118, 1.119555
873.0939, 1.190863
873.5760, 0.8408450
874.0581, 0.6202140
874.5402, 0.6172710
875.0223, 0.6419830
875.5045, 0.6863400
875.9866, 0.7049540
876.4687, 0.6322420
876.9508, 0.4789140
877.4329, 0.3551640
877.9150, 0.3302670
878.3972, 0.3011170
878.8793, 0.1446510
879.3614, 2.4110000E-03
879.8435, 8.7338999E-02
880.3256, 0.3351120
880.8077, 0.5074160
881.2899, 0.1607950
881.7720, 0.5822180
882.2541, 0.8136100
882.7362, 0.8651330
883.2183, 0.1981530
883.7004, 0.4588890
884.1826, 0.3477760
884.6647, 0.2213900
885.1468, 0.6125810
885.6289, 4.9913000E-02
886.1110, 0.4328000
886.5931, 0.4381770
887.0753, 0.6162700
887.5574, 0.4202460
888.0395, 0.3397200
888.5216, 0.6333790
889.0037, 0.7197900
889.4858, 0.4807850
889.9680, 0.6696400
890.4501, 9.3507998E-02
890.9322, 0.1885810
891.4143, 0.5732270
891.8964, 0.6334110
892.3785, 0.6087590
892.8607, 0.4084380
893.3428, 0.2809090
893.8249, 0.2530170
894.3070, 0.2695560
894.7891, 0.3217640
895.2712, 0.3588220
895.7534, 0.2578810
896.2355, 0.1540390
896.7176, 0.3409000
897.1997, 0.7386250
897.6818, 1.000738
898.1639, 0.9936160
898.6461, 0.8270320
899.1282, 0.5944600
899.6103, 0.3216210
900.0924, 0.1030120
900.5745, 6.2567003E-02
901.0566, 0.1166970
901.5388, 2.5126999E-02
902.0209, 9.0378001E-02
902.5030, 0.1540830
902.9851, 0.1653020
903.4672, 0.1141930
903.9493, 4.7520000E-02
904.4315, 0.1360210
904.9136, 0.1119250
905.3957, 6.4568996E-02
905.8778, 3.8518999E-02
906.3599, 9.4929999E-03
906.8420, 0.1573050
907.3242, 0.3859370
907.8063, 0.5305230
908.2884, 0.5221540
908.7705, 0.4642470
909.2526, 0.3562300
909.7347, 0.2484510
910.2169, 0.2121520
910.6990, 0.2068210
911.1811, 0.1097970
911.6632, 0.1164530
912.1453, 0.2923130
912.6274, 0.2484440
913.1096, 7.6223001E-02
913.5917, 0.1482330
914.0738, 0.3789140
914.5559, 0.4689450
915.0380, 0.4015010
915.5201, 0.3146740
916.0023, 0.3047850
916.4844, 0.3493480
916.9665, 0.4191020
917.4486, 0.5131440
917.9307, 0.5340900
918.4128, 0.4724770
918.8950, 0.3571950
919.3771, 0.1775050
919.8592, 2.3040001E-03
920.3413, 0.1017280
920.8234, 0.1228050
921.3055, 0.1263540
921.7877, 8.5147999E-02
922.2698, 7.4574001E-02
922.7519, 0.1994130
923.2340, 0.2556440
923.7161, 6.8742998E-02
924.1982, 0.2357250
924.6804, 0.4365180
925.1625, 0.5044670
925.6446, 0.5189400
926.1267, 0.5001370
926.6088, 0.4302750
927.0909, 0.2075860
927.5731, 7.9060001E-03
928.0552, 1.3712000E-02
928.5373, 0.1652320
929.0194, 0.3600080
929.5015, 0.5134830
929.9836, 0.5843370
930.4658, 0.4326520
930.9479, 0.2431640
931.4300, 0.3301140
931.9121, 0.6163600
932.3942, 0.8512990
932.8763, 0.9476490
933.3585, 0.8982720
933.8406, 0.6453930
934.3227, 0.3201560
934.8048, 0.3060210
935.2869, 0.5570560
935.7690, 0.6178440
936.2512, 0.4167960
936.7333, 0.2715440
937.2154, 0.3668800
937.6975, 0.5610450
938.1796, 0.5937920
938.6617, 0.4523410
939.1439, 0.4237120
939.6260, 0.5634400
940.1081, 0.6682620
940.5902, 0.6858560
941.0723, 0.6656020
941.5544, 0.6207280
942.0366, 0.5721110
942.5187, 0.6085240
943.0008, 0.8279740
943.4829, 0.8937820
943.9650, 0.6422160
944.4471, 0.4238570
944.9293, 0.4294090
945.4114, 0.4929140
945.8935, 0.3849620
946.3756, 0.1396790
946.8577, 6.2944002E-02
947.3398, 0.3872360
947.8220, 0.6474970
948.3041, 0.5322860
948.7862, 0.3319510
949.2683, 0.2872660
949.7504, 0.3675000
950.2325, 0.4871860
950.7147, 0.6147540
951.1968, 0.7130620
951.6789, 0.7392350
952.1610, 0.7402520
952.6431, 0.7790160
953.1252, 0.8362580
953.6074, 0.8592320
954.0895, 0.8526590
954.5716, 0.8992900
955.0537, 1.041616
955.5358, 1.147308
956.0179, 0.9998760
956.5000, 0.6610390
956.9821, 0.3588660
957.4642, 0.1003760
957.9464, 0.1708550
958.4285, 0.6690960
958.9106, 1.017401
959.3927, 0.7254620
959.8748, 0.1092660
960.3569, 6.9052003E-02
960.8391, 0.7751140
961.3212, 1.096676
961.8033, 0.9224950
962.2854, 0.6383740
962.7675, 0.2818340
963.2496, 2.8206000E-02
963.7318, 0.1231750
964.2139, 0.5013330
964.6960, 0.6538200
965.1781, 0.3961890
965.6602, 0.2065430
966.1423, 8.9873999E-02
966.6245, 4.0371001E-02
967.1066, 4.6618000E-02
967.5887, 0.1233580
968.0708, 0.3313620
968.5529, 0.6617530
969.0350, 0.8996750
969.5172, 0.9925500
969.9993, 0.9726960
970.4814, 0.7988110
970.9635, 0.5975760
971.4456, 0.4209060
971.9277, 0.2897430
972.4099, 0.2371040
972.8920, 0.2714920
973.3741, 0.3734570
973.8562, 0.6458630
974.3383, 0.8619330
974.8204, 0.7965030
975.3026, 0.5883310
975.7847, 0.3928050
976.2668, 0.2450050
976.7489, 0.1536710
977.2310, 0.1232110
977.7131, 0.1395530
978.1953, 0.2034660
978.6774, 0.2964920
979.1595, 0.3880160
979.6416, 0.4760320
980.1237, 0.5417690
980.6058, 0.5760020
981.0880, 0.6085130
981.5701, 0.6750030
982.0522, 0.7264210
982.5343, 0.6513560
983.0164, 0.4808640
983.4985, 0.3947770
983.9807, 0.3946270
984.4628, 0.3921830
984.9449, 0.3603900
985.4270, 0.3268910
985.9091, 0.3108690
986.3912, 0.3374500
986.8734, 0.5227360
987.3555, 0.5034480
987.8376, 0.4516600
988.3197, 0.6176610
988.8018, 0.5759070
989.2839, 0.6423450
989.7661, 0.6300740
990.2482, 0.7370410
990.7303, 0.7611890
991.2124, 0.7969170
991.6945, 0.8657530
992.1766, 0.8958020
992.6588, 0.8833690
993.1409, 0.8290560
993.6230, 0.6592370
994.1051, 0.5011710
994.5872, 0.5600970
995.0693, 0.8317130
995.5515, 0.9999770
996.0336, 1.003754
996.5157, 0.9887120
996.9978, 0.9554460
997.4799, 0.9237330
997.9620, 0.9137250
998.4442, 0.9070800
998.9263, 0.8518330
999.4084, 0.7445810
999.8905, 0.7348960
1000.373, 0.9990330
1000.855, 1.180948
1001.337, 1.053190
1001.819, 0.8869300
1002.301, 0.9147320
1002.783, 1.065134
1003.265, 1.183428
1003.747, 1.232561
1004.230, 1.225847
1004.712, 1.132673
1005.194, 1.028538
1005.676, 0.9766290
1006.158, 0.9292950
1006.640, 0.7841450
1007.122, 0.5983350
1007.604, 0.5401190
1008.086, 0.6676080
1008.569, 0.8519800
1009.051, 1.082581
1009.533, 1.238310
1010.015, 1.098417
1010.497, 0.8298230
1010.979, 0.7323060
1011.461, 0.8084870
1011.943, 0.8892970
1012.426, 0.8964290
1012.908, 0.8636820
1013.390, 0.7759380
1013.872, 0.7021710
1014.354, 0.8251360
1014.836, 1.062956
1015.318, 1.174925
1015.800, 1.129868
1016.282, 1.016138
1016.765, 0.8800810
1017.247, 0.7880570
1017.729, 0.8887140
1018.211, 1.102175
1018.693, 1.107637
1019.175, 0.9379230
1019.657, 0.8023890
1020.139, 0.7488100
1020.622, 0.8097720
1021.104, 1.023552
1021.586, 1.257593
1022.068, 1.252966
1022.550, 1.018713
1023.032, 0.8851850
1023.514, 0.8541970
1023.996, 0.8015190
1024.478, 0.6950870
1024.961, 0.5854720
1025.443, 0.5082820
1025.925, 0.4536610
1026.407, 0.4025190
1026.889, 0.3556860
1027.371, 0.2953260
1027.853, 0.2141760
1028.335, 0.1712440
1028.818, 0.1781430
1029.300, 0.1821420
1029.782, 0.1296330
1030.264, 5.9960999E-02
1030.746, 8.4307000E-02
1031.228, 0.2230680
1031.710, 0.3367540
1032.192, 0.4146770
1032.674, 0.4826560
1033.156, 0.5836350
1033.639, 0.5925120
1034.121, 0.3384270
1034.603, 3.6256999E-02
1035.085, 8.8652000E-02
1035.567, 0.3304160
1036.049, 0.4876040
1036.531, 0.1375480
1037.013, 1.3729000E-02
1037.496, 0.4934670
1037.978, 1.021938
1038.460, 1.138393
1038.942, 0.9591660
1039.424, 0.8463420
1039.906, 0.8374180
1040.388, 0.7813190
1040.870, 0.6091040
1041.353, 0.4893700
1041.835, 0.4491410
1042.317, 0.5143220
1042.799, 0.7677560
1043.281, 1.073545
1043.763, 1.065010
1044.245, 0.5770030
1044.727, 0.2826600
1045.209, 0.3347280
1045.692, 0.4164830
1046.174, 0.4921610
1046.656, 0.5240230
1047.138, 0.4519210
1047.620, 0.3169990
1048.102, 0.2204090
1048.584, 0.1540370
1049.066, 0.1889930
1049.548, 0.4612030
1050.031, 0.6708850
1050.513, 0.7397820
1050.995, 0.6935810
1051.477, 0.4478590
1051.959, 0.1258530
1052.441, 4.3214999E-02
1052.923, 0.3005710
1053.405, 0.5029680
1053.888, 0.6042880
1054.370, 0.5896020
1054.852, 0.2815130
1055.334, 7.5039999E-03
1055.816, 0.1149750
1056.298, 0.4662380
1056.780, 0.6584910
1057.262, 0.6131920
1057.745, 0.5932920
1058.227, 0.7449890
1058.709, 0.8470650
1059.191, 0.7830220
1059.673, 0.6729980
1060.155, 0.5681610
1060.637, 0.5184020
1061.119, 0.5478460
1061.601, 0.6670360
1062.083, 0.7653500
1062.566, 0.8423160
1063.048, 0.8431680
1063.530, 0.5968820
1064.012, 0.3958590
1064.494, 0.6348950
1064.976, 1.065357
1065.458, 1.113232
1065.940, 0.6669060
1066.423, 0.3402390
1066.905, 0.5219500
1067.387, 0.6789000
1067.869, 0.4492910
1068.351, 0.2014730
1068.833, 0.3160360
1069.315, 0.6215650
1069.797, 0.7814180
1070.280, 0.7456630
1070.762, 0.6178050
1071.244, 0.3472600
1071.726, 0.1598610
1072.208, 0.2603240
1072.690, 0.3867950
1073.172, 0.2937970
1073.654, 8.9573003E-02
1074.136, 4.1733000E-02
1074.619, 6.4416997E-02
1075.101, 3.7020000E-03
1075.583, 0.1895370
1076.065, 0.3654520
1076.547, 0.4469910
1077.029, 0.4886550
1077.511, 0.5820670
1077.993, 0.6375770
1078.475, 0.4215510
1078.958, 1.2405000E-02
1079.440, 0.1854360
1079.922, 0.2267610
1080.404, 0.5900270
1080.886, 0.5374070
1081.368, 0.3973390
1081.850, 0.3735490
1082.332, 0.4281750
1082.814, 0.5100140
1083.297, 0.6016370
1083.779, 0.6975570
1084.261, 0.8460560
1084.743, 0.8338130
1085.225, 0.3305890
1085.707, 0.1048550
1086.189, 1.3077000E-02
1086.671, 0.2765960
1087.154, 0.4063740
1087.636, 0.3621330
1088.118, 0.2396980
1088.600, 2.9774001E-02
1089.082, 5.5438999E-02
1089.564, 0.1551630
1090.046, 0.4135190
1090.528, 0.6788520
1091.010, 0.8435880
1091.493, 0.6920530
1091.975, 0.3793680
1092.457, 0.3196160
1092.939, 0.6299820
1093.421, 0.8552740
1093.903, 0.7659870
1094.385, 0.6308310
1094.867, 0.5267770
1095.349, 0.4671970
1095.832, 0.4956360
1096.314, 0.5610080
1096.796, 0.5576820
1097.278, 0.4699940
1097.760, 0.4286440
1098.242, 0.6385460
1098.724, 0.6711790
1099.206, 0.1253890
1099.689, 0.3740900
1100.171, 0.3504430
1100.653, 3.5227001E-02
1101.135, 0.2627260
1101.617, 0.4923340
1102.099, 0.6006090
1102.581, 0.5192550
1103.063, 0.4118800
1103.546, 0.2623420
1104.028, 0.1586610
1104.510, 0.1381890
1104.992, 0.1947440
1105.474, 0.3916400
1105.956, 0.6687390
1106.438, 0.7464140
1106.920, 0.4577850
1107.402, 0.2876070
1107.885, 0.3971730
1108.367, 0.5251810
1108.849, 0.5936180
1109.331, 0.6271740
1109.813, 0.6670480
1110.295, 0.6891570
1110.777, 0.6016040
1111.259, 0.3412460
1111.741, 0.2141190
1112.224, 0.4227830
1112.706, 0.5125770
1113.188, 0.1723790
1113.670, 9.0599000E-02
1114.152, 0.2292210
1114.634, 0.7648090
1115.116, 0.8301470
1115.598, 0.3791470
1116.081, 1.3844000E-02
1116.563, 0.4068450
1117.045, 0.4837820
1117.527, 0.1179920
1118.009, 0.6427000
1118.491, 0.7079580
1118.973, 0.5464130
1119.455, 0.4074080
1119.938, 0.2971710
1120.420, 0.2735540
1120.902, 0.3573040
1121.384, 0.4931110
1121.866, 0.7861140
1122.348, 0.8764650
1122.830, 0.5061040
1123.312, 0.1380980
1123.794, 0.2417830
1124.276, 0.6481400
1124.759, 0.8120440
1125.241, 0.6794340
1125.723, 0.6380580
1126.205, 0.7523940
1126.687, 0.6654720
1127.169, 0.1936260
1127.651, 0.1309810
1128.133, 8.9001000E-02
1128.616, 0.5740830
1129.098, 0.8382990
1129.580, 0.8879450
1130.062, 0.8051610
1130.544, 0.5708730
1131.026, 0.4399600
1131.508, 0.4547210
1131.990, 0.5204120
1132.473, 0.5978450
1132.955, 0.6688560
1133.437, 0.7091980
1133.919, 0.7119120
1134.401, 0.6258680
1134.883, 0.4653510
1135.365, 0.4023340
1135.847, 0.4446300
1136.329, 0.5372180
1136.812, 0.6606080
1137.294, 0.7649060
1137.776, 0.8390830
1138.258, 0.8757500
1138.740, 0.8751660
1139.222, 0.8473300
1139.704, 0.7992690
1140.186, 0.7322830
1140.668, 0.6863270
1141.151, 0.6707950
1141.633, 0.6585660
1142.115, 0.6338310
1142.597, 0.6351150
1143.079, 0.7547800
1143.561, 0.8771110
1144.043, 0.7880460
1144.525, 0.5900310
1145.008, 0.4711820
1145.490, 0.4514120
1145.972, 0.5224780
1146.454, 0.6709330
1146.936, 0.8331510
1147.418, 1.027767
1147.900, 1.105095
1148.382, 0.7946210
1148.865, 0.4050710
1149.347, 0.2781810
1149.829, 0.3463630
1150.311, 0.4957750
1150.793, 0.6765880
1151.275, 0.8260210
1151.757, 0.9272100
1152.239, 0.9518390
1152.721, 0.8435710
1153.203, 0.7016960
1153.686, 0.5083710
1154.168, 0.3828220
1154.650, 0.4914590
1155.132, 0.7494390
1155.614, 0.9886740
1156.096, 1.179192
1156.578, 1.221640
1157.060, 0.9977020
1157.543, 0.7290840
1158.025, 0.4050810
1158.507, 0.2247540
1158.989, 0.3505250
1159.471, 0.6017780
1159.953, 0.7942450
1160.435, 0.9174190
1160.917, 0.9325830
1161.400, 0.7641350
1161.882, 0.6472130
1162.364, 0.5733990
1162.846, 0.5655330
1163.328, 0.6612950
1163.810, 0.7887330
1164.292, 0.9179360
1164.774, 1.026588
1165.256, 1.070890
1165.739, 1.049725
1166.221, 0.9464000
1166.703, 0.7037580
1167.185, 0.6219960
1167.667, 0.7763230
1168.149, 0.9665510
1168.631, 1.124537
1169.113, 1.195423
1169.595, 1.099655
1170.078, 0.8961910
1170.560, 0.7996160
1171.042, 0.8061410
1171.524, 0.7393760
1172.006, 0.6191980
1172.488, 0.6091160
1172.970, 0.7530420
1173.452, 0.8681550
1173.934, 0.8277030
1174.417, 0.7200390
1174.899, 0.7597030
1175.381, 0.6702190
1175.863, 0.8285940
1176.345, 0.6361140
1176.827, 0.6027720
1177.309, 0.7204880
1177.791, 0.7973520
1178.274, 0.7714100
1178.756, 0.7305110
1179.238, 0.7465740
1179.720, 0.7598360
1180.202, 0.6641430
1180.684, 0.5620590
1181.166, 0.6254350
1181.648, 0.7872580
1182.130, 0.9916270
1182.613, 1.160349
1183.095, 1.060516
1183.577, 0.5590190
1184.059, 0.2370030
1184.541, 0.5964740
1185.023, 0.9660360
1185.505, 1.005789
1185.987, 0.8944490
1186.469, 0.6384620
1186.952, 0.3724500
1187.434, 0.3530940
1187.916, 0.5787470
1188.398, 0.6530530
1188.880, 0.2744260
1189.362, 0.1539880
1189.844, 0.6400150
1190.326, 1.025524
1190.809, 1.071222
1191.291, 0.9349730
1191.773, 0.6406270
1192.255, 0.3144440
1192.737, 0.2761120
1193.219, 0.5597970
1193.701, 0.7701910
1194.183, 0.9144100
1194.666, 0.9535850
1195.148, 0.8811340
1195.630, 0.6876350
1196.112, 0.3374350
1196.594, 1.9680001E-03
1197.076, 0.1531730
1197.558, 0.1409020
1198.040, 2.4379999E-03
1198.522, 0.2452240
1199.005, 0.4838490
1199.487, 0.6978420
1199.969, 0.7965490
1200.451, 0.7690280
1200.933, 0.7033940
1201.415, 0.6480290
1201.897, 0.5815830
1202.379, 0.4584980
1202.861, 0.3313660
1203.344, 0.3007640
1203.826, 0.3154580
1204.308, 0.2426930
1204.790, 0.1481000
1205.272, 0.2655390
1205.754, 0.5905610
1206.236, 0.7865730
1206.718, 0.6534790
1207.201, 0.4952130
1207.683, 0.4939040
1208.165, 0.5380080
1208.647, 0.5863270
1209.129, 0.6121860
1209.611, 0.5594440
1210.093, 0.4770580
1210.575, 0.4927850
1211.057, 0.6275690
1211.540, 0.6738260
1212.022, 0.5434910
1212.504, 0.4142420
1212.986, 0.2892480
1213.468, 0.1919670
1213.950, 0.1520940
1214.432, 0.1156460
1214.914, 2.3491001E-02
1215.396, 9.4677001E-02
1215.879, 0.1607020
1216.361, 0.1754150
1216.843, 0.1286240
1217.325, 6.5400000E-03
1217.807, 8.1684001E-02
1218.289, 0.1189920
1218.771, 0.1099280
1219.253, 4.9764998E-02
1219.736, 2.1986000E-02
1220.218, 0.1216740
1220.700, 0.2880820
1221.182, 0.4316410
1221.664, 0.5207160
1222.146, 0.3628440
1222.628, 6.3662000E-02
1223.110, 6.7900000E-03
1223.593, 0.2223640
1224.075, 0.5179180
1224.557, 0.8018170
1225.039, 0.9511180
1225.521, 0.7773880
1226.003, 0.5411240
1226.485, 0.4614320
1226.967, 0.4521220
1227.449, 0.4759810
1227.932, 0.4781570
1228.414, 0.3405000
1228.896, 0.1033310
1229.378, 1.2350000E-02
1229.860, 5.3799000E-02
1230.342, 0.1993030
1230.824, 0.5855290
1231.306, 0.7881600
1231.788, 0.5006520
1232.271, 0.2044220
1232.753, 0.2157780
1233.235, 0.3346460
1233.717, 0.2562240
1234.199, 0.4447190
1234.681, 0.1629730
1235.163, 0.7284980
1235.645, 1.059978
1236.128, 1.138134
1236.610, 1.004292
1237.092, 0.6417850
1237.574, 4.8133999E-02
1238.056, 0.3909840
1238.538, 0.6424620
1239.020, 0.7140790
1239.502, 6.6634998E-02
1239.984, 0.3466890
1240.467, 0.2556970
1240.949, 0.1494200
1241.431, 0.5602930
1241.913, 9.2300000E-03
1242.395, 0.3673210
1242.877, 0.3913670
1243.359, 0.5890980
1243.841, 0.4127040
1244.323, 0.3518390
1244.806, 0.6647300
1245.288, 0.7696460
1245.770, 0.5471820
1246.252, 0.7548890
1246.734, 0.1984580
1247.216, 0.3132740
1247.698, 0.7177030
1248.180, 0.5168760
1248.662, 0.7322180
1249.145, 0.7890640
1249.627, 0.1255870
1250.109, 0.7128810
1250.591, 0.7560020
1251.073, 0.2242340
1251.555, 0.7202400
1252.037, 0.2577020
1252.519, 0.1677170
1253.002, 0.3391910
1253.484, 0.2353940
1253.966, 0.5709510
1254.448, 0.4908470
1254.930, 0.3628370
1255.412, 0.4066100
1255.894, 0.5206810
1256.376, 0.5210110
1256.859, 0.3852230
1257.341, 0.2843440
1257.823, 0.4433710
1258.305, 0.6497880
1258.787, 0.6466080
1259.269, 0.5446820
1259.751, 0.4942670
1260.233, 0.4773030
1260.715, 0.4148450
1261.198, 0.3210910
1261.680, 0.2864110
1262.162, 0.3299920
1262.644, 0.3811610
1263.126, 0.3971610
1263.608, 0.3885100
1264.090, 0.3132610
1264.572, 0.2464890
1265.054, 0.2794340
1265.537, 0.3173680
1266.019, 0.2383440
1266.501, 0.1115230
1266.983, 0.2092420
1267.465, 0.1224590
1267.947, 6.3795000E-02
1268.429, 0.1709630
1268.911, 3.7650000E-03
1269.394, 0.1882380
1269.876, 0.3683380
1270.358, 0.3979090
1270.840, 0.4126950
1271.322, 0.5453280
1271.804, 0.6874870
1272.286, 0.6606980
1272.768, 0.5424160
1273.250, 0.4390030
1273.733, 0.3567160
1274.215, 0.3036100
1274.697, 0.2721440
1275.179, 0.2388800
1275.661, 0.1990050
1276.143, 0.1724820
1276.625, 0.1847720
1277.107, 0.1757580
1277.589, 7.8161001E-02
1278.072, 1.6396999E-02
1278.554, 3.6556002E-02
1279.036, 0.1295720
1279.518, 0.3808120
1280.000, 0.6206630
1280.482, 0.5167500
1280.964, 0.1143340
1281.446, 2.7346000E-02
1281.929, 0.1223600
1282.411, 0.2890000
1282.893, 0.4637700
1283.375, 0.5650420
1283.857, 0.5732400
1284.339, 0.4599740
1284.821, 0.2788560
1285.303, 9.1906004E-02
1285.786, 2.1000000E-04
1286.268, 0.0000000E+00
##END=



