##NAMES=Froodite
##RRUFFID=R070459
##IDEAL CHEMISTRY=PdBi_2_
##LOCALITY=Oktyabr'sky mine, Noril'sk, Putoran Mountains, Taymyrskiy Autonomous Okrug, Eastern-Siberian Region, Russia
##OWNER=RRUFF
##SOURCE=Michael Scott
##DESCRIPTION=Gray metallic massive embedded in ore
##STATUS=The identification of this mineral is not yet confirmed.
##URL=rruff.info/R070459
161.4676, 0.0000000E+00
161.9497, 19.12683
162.4318, 32.74048
162.9139, 45.05530
163.3960, 31.10327
163.8782, 5.866333
164.3603, 0.9324950
164.8424, 16.85437
165.3245, 36.06738
165.8066, 38.19031
166.2887, 26.26343
166.7709, 8.235596
167.2530, 5.517944
167.7351, 19.49634
168.2172, 32.17249
168.6993, 41.81543
169.1814, 47.41248
169.6636, 42.42969
170.1457, 20.41443
170.6278, 0.3972170
171.1099, 0.2104490
171.5920, 18.05200
172.0741, 34.09485
172.5563, 41.22302
173.0384, 41.15381
173.5205, 36.96008
174.0026, 24.07092
174.4847, 12.88452
174.9668, 15.94348
175.4490, 34.11340
175.9311, 47.55176
176.4132, 44.86401
176.8953, 25.22571
177.3774, 14.72363
177.8595, 26.45325
178.3417, 41.30957
178.8238, 45.86829
179.3059, 38.86157
179.7880, 31.08728
180.2701, 35.16260
180.7522, 55.36340
181.2344, 70.07410
181.7165, 70.98389
182.1986, 67.55017
182.6807, 63.59607
183.1628, 59.66113
183.6449, 55.15833
184.1271, 49.93591
184.6092, 43.52490
185.0913, 38.62415
185.5734, 36.51599
186.0555, 37.79749
186.5376, 47.34375
187.0198, 54.11487
187.5019, 60.92847
187.9840, 58.35974
188.4661, 29.33521
188.9482, 0.2307130
189.4303, 15.97363
189.9125, 25.08875
190.3946, 27.37671
190.8767, 3.177002
191.3588, 13.43408
191.8409, 11.50940
192.3230, 9.287354
192.8052, 23.68408
193.2873, 3.505798
193.7694, 18.40955
194.2515, 18.60773
194.7336, 25.68518
195.2157, 18.74908
195.6979, 15.99432
196.1800, 27.07172
196.6621, 30.12164
197.1442, 21.28101
197.6263, 28.55310
198.1084, 7.281677
198.5906, 11.01971
199.0727, 25.43829
199.5548, 17.43011
200.0369, 24.71191
200.5190, 26.06323
201.0011, 0.7769170
201.4833, 21.69464
201.9654, 22.65063
202.4475, 3.310608
202.9296, 23.05060
203.4117, 6.341003
203.8938, 2.273499
204.3760, 8.231934
204.8581, 4.018738
205.3402, 15.68176
205.8223, 12.05695
206.3044, 7.018433
206.7865, 7.758728
207.2687, 8.548401
207.7508, 6.811279
208.2329, 0.6593020
208.7150, 8.191833
209.1971, 28.21002
209.6792, 43.80432
210.1614, 30.40240
210.6435, 2.6001001E-02
211.1256, 20.22992
211.6077, 11.96643
212.0898, 12.60455
212.5719, 24.52576
213.0541, 16.75348
213.5362, 7.370483
214.0183, 10.68573
214.5004, 22.58752
214.9825, 32.82202
215.4646, 35.39069
215.9468, 31.71460
216.4289, 26.98743
216.9110, 19.25946
217.3931, 13.77979
217.8752, 14.57825
218.3573, 19.69830
218.8395, 24.13531
219.3216, 25.78705
219.8037, 23.43689
220.2858, 20.28870
220.7679, 16.07806
221.2500, 11.29388
221.7322, 2.150757
222.2143, 8.579590
222.6964, 12.10132
223.1785, 5.035400
223.6606, 44.64648
224.1427, 62.82104
224.6249, 30.62109
225.1070, 1.225281
225.5891, 0.1893310
226.0712, 21.61151
226.5533, 44.70813
227.0354, 46.25909
227.5176, 21.58069
227.9997, 8.074890
228.4818, 17.57440
228.9639, 28.67609
229.4460, 31.55481
229.9281, 26.90405
230.4103, 23.60223
230.8924, 33.49396
231.3745, 63.10919
231.8566, 75.96631
232.3387, 55.24408
232.8208, 33.39679
233.3030, 13.65802
233.7851, 30.30756
234.2672, 39.90509
234.7493, 42.75696
235.2314, 18.98358
235.7135, 29.52582
236.1957, 26.39050
236.6778, 22.76031
237.1599, 38.25146
237.6420, 18.43317
238.1241, 33.50543
238.6062, 34.61456
239.0884, 42.07837
239.5705, 35.70587
240.0526, 33.58746
240.5347, 45.27960
241.0168, 49.29993
241.4989, 41.27515
241.9811, 49.04962
242.4632, 29.92578
242.9453, 19.25726
243.4274, 12.76483
243.9095, 9.051270
244.3916, 9.759949
244.8738, 20.35760
245.3559, 39.48944
245.8380, 56.48914
246.3201, 56.79169
246.8022, 30.70807
247.2843, 16.21997
247.7665, 21.13782
248.2486, 30.50952
248.7307, 33.47278
249.2128, 29.13947
249.6949, 22.58337
250.1770, 19.47754
250.6592, 20.66949
251.1413, 24.17969
251.6234, 35.38770
252.1055, 45.68127
252.5876, 47.68140
253.0697, 40.79633
253.5519, 31.18958
254.0340, 25.33368
254.5161, 23.82922
254.9982, 25.17108
255.4803, 32.14697
255.9624, 40.47601
256.4445, 47.43494
256.9267, 51.32111
257.4088, 52.90778
257.8909, 52.71350
258.3730, 50.60315
258.8551, 44.42706
259.3372, 26.87128
259.8194, 10.71570
260.3015, 9.802185
260.7836, 25.26135
261.2657, 41.35870
261.7478, 42.26752
262.2299, 25.10870
262.7121, 13.72034
263.1942, 10.33936
263.6763, 11.71802
264.1584, 17.21143
264.6405, 26.43970
265.1227, 34.50983
265.6048, 39.10406
266.0869, 38.92273
266.5690, 37.79541
267.0511, 33.62817
267.5332, 29.88391
268.0154, 29.89148
268.4975, 33.49677
268.9796, 36.68237
269.4617, 38.97125
269.9438, 40.65552
270.4259, 41.69427
270.9081, 42.35583
271.3902, 42.00604
271.8723, 39.69836
272.3544, 35.58209
272.8365, 31.16791
273.3186, 26.42310
273.8008, 22.19965
274.2829, 22.95203
274.7650, 34.41583
275.2471, 46.71582
275.7292, 52.60510
276.2113, 52.13867
276.6935, 48.95551
277.1756, 44.42706
277.6577, 39.07849
278.1398, 36.01318
278.6219, 35.68683
279.1040, 37.22369
279.5862, 41.00208
280.0683, 46.16138
280.5504, 50.72754
281.0325, 55.70117
281.5146, 58.71710
281.9967, 55.11719
282.4789, 37.48608
282.9610, 19.71484
283.4431, 11.27466
283.9252, 11.23303
284.4073, 13.01538
284.8894, 14.15326
285.3716, 13.93591
285.8537, 10.87140
286.3358, 0.6897580
286.8179, 6.593079
287.3000, 3.317444
287.7821, 8.232239
288.2643, 19.18732
288.7464, 26.15063
289.2285, 29.53339
289.7106, 30.14471
290.1927, 24.44128
290.6748, 22.26410
291.1570, 33.55798
291.6391, 53.22968
292.1212, 64.53638
292.6033, 59.64880
293.0854, 44.40454
293.5675, 29.94916
294.0497, 13.53180
294.5318, 3.586609
295.0139, 6.573425
295.4960, 18.38898
295.9781, 30.93109
296.4602, 42.30908
296.9424, 51.61475
297.4245, 56.09814
297.9066, 55.05359
298.3887, 54.49475
298.8708, 60.00360
299.3529, 66.45984
299.8351, 63.30566
300.3172, 45.96936
300.7993, 24.39917
301.2814, 13.47388
301.7635, 14.02704
302.2456, 12.88440
302.7278, 2.507507
303.2099, 9.492798
303.6920, 10.84973
304.1741, 1.626587
304.6562, 16.66113
305.1383, 21.10266
305.6205, 14.42566
306.1026, 9.007141
306.5847, 6.374451
307.0668, 5.755798
307.5489, 5.751221
308.0310, 6.205139
308.5132, 9.678467
308.9953, 20.40997
309.4774, 38.65656
309.9595, 50.26038
310.4416, 51.54193
310.9237, 48.08582
311.4059, 44.42303
311.8880, 40.66876
312.3701, 33.18781
312.8522, 15.86993
313.3343, 7.954346
313.8164, 13.44470
314.2986, 18.26099
314.7807, 49.96466
315.2628, 59.01404
315.7449, 48.68744
316.2270, 35.28845
316.7091, 28.02582
317.1913, 26.25049
317.6734, 25.75616
318.1555, 24.27783
318.6376, 26.33337
319.1197, 38.63287
319.6018, 55.88788
320.0840, 65.10339
320.5661, 59.02356
321.0482, 42.61975
321.5303, 32.20148
322.0124, 29.11481
322.4945, 28.97681
322.9767, 34.35602
323.4588, 41.25110
323.9409, 43.20801
324.4230, 37.57715
324.9051, 27.70270
325.3872, 19.82660
325.8694, 11.11481
326.3515, 9.856201
326.8336, 14.31390
327.3157, 30.82697
327.7978, 40.33551
328.2799, 43.20190
328.7621, 19.50604
329.2442, 30.08881
329.7263, 26.92273
330.2084, 23.17389
330.6905, 38.53064
331.1726, 18.62054
331.6548, 33.63153
332.1369, 34.69562
332.6190, 42.18915
333.1011, 35.89764
333.5832, 33.89813
334.0653, 45.74896
334.5475, 49.95935
335.0296, 42.14545
335.5117, 50.13947
335.9938, 29.82001
336.4759, 34.24701
336.9580, 49.38068
337.4402, 42.15863
337.9223, 50.31561
338.4044, 52.61755
338.8865, 28.30127
339.3686, 50.27106
339.8507, 52.21967
340.3329, 33.61157
340.8150, 53.91614
341.2971, 38.03198
341.7792, 35.06677
342.2613, 41.86536
342.7434, 38.77618
343.2256, 52.01886
343.7077, 49.88678
344.1898, 46.08478
344.6719, 47.64374
345.1540, 32.34863
345.6361, 48.68579
346.1183, 43.53082
346.6004, 49.11005
347.0825, 57.12122
347.5646, 46.54822
348.0467, 55.61322
348.5288, 34.17328
349.0110, 38.29517
349.4931, 39.67267
349.9752, 57.35718
350.4573, 36.11102
350.9394, 39.52130
351.4215, 53.41119
351.9037, 52.54089
352.3858, 57.76996
352.8679, 44.87543
353.3500, 49.13245
353.8321, 48.68390
354.3142, 52.98993
354.7964, 36.61816
355.2785, 24.75311
355.7606, 30.09979
356.2427, 32.67712
356.7248, 48.89600
357.2069, 58.09039
357.6891, 60.63782
358.1712, 36.63538
358.6533, 46.87903
359.1354, 43.33759
359.6175, 39.23438
360.0996, 54.28979
360.5818, 34.44556
361.0639, 48.71893
361.5460, 48.89331
362.0281, 55.99084
362.5102, 49.32703
362.9923, 46.95032
363.4745, 58.37231
363.9566, 28.97168
364.4387, 16.70221
364.9208, 11.82898
365.4029, 10.45319
365.8850, 10.43646
366.3672, 11.70380
366.8493, 13.46179
367.3314, 14.54852
367.8135, 17.65417
368.2956, 30.53027
368.7777, 52.06995
369.2599, 61.14008
369.7420, 36.74768
370.2241, 2.211487
370.7062, 22.56561
371.1883, 19.29388
371.6704, 8.330383
372.1526, 0.7055660
372.6347, 3.790466
373.1168, 10.77490
373.5989, 26.09698
374.0810, 40.38251
374.5631, 45.08435
375.0453, 40.83899
375.5274, 33.90662
376.0095, 26.33319
376.4916, 19.60364
376.9737, 19.31085
377.4558, 33.53516
377.9380, 44.17932
378.4201, 41.91809
378.9022, 31.77386
379.3843, 22.23267
379.8664, 16.51685
380.3485, 16.24799
380.8307, 24.28131
381.3128, 50.11810
381.7949, 65.23492
382.2770, 61.39056
382.7591, 49.72687
383.2412, 39.55420
383.7234, 33.05328
384.2055, 28.82251
384.6876, 25.12775
385.1697, 21.40277
385.6518, 21.17767
386.1339, 28.61749
386.6161, 35.06030
387.0982, 35.38422
387.5803, 30.90887
388.0624, 26.40875
388.5445, 25.54633
389.0266, 27.76971
389.5088, 27.93274
389.9909, 24.69043
390.4730, 20.61371
390.9551, 14.60126
391.4372, 8.530457
391.9193, 4.036072
392.4015, 1.743530
392.8836, 2.722778
393.3657, 10.58765
393.8478, 30.24445
394.3299, 44.44788
394.8120, 48.26062
395.2942, 48.05634
395.7763, 47.37280
396.2584, 46.95618
396.7405, 46.37238
397.2226, 46.06549
397.7047, 46.06659
398.1869, 42.04913
398.6690, 31.03113
399.1511, 18.98688
399.6332, 7.717041
400.1153, 1.939148
400.5974, 7.873291
401.0796, 8.122437
401.5617, 4.121704
402.0438, 1.825745
402.5259, 10.77814
403.0080, 18.33282
403.4901, 19.76929
403.9723, 18.62933
404.4544, 19.95294
404.9365, 25.96881
405.4186, 32.31891
405.9007, 35.51044
406.3828, 35.87482
406.8650, 34.78149
407.3471, 31.74969
407.8292, 28.75256
408.3113, 30.53326
408.7934, 39.19305
409.2755, 42.30042
409.7577, 28.67627
410.2398, 10.14984
410.7219, 4.987793
411.2040, 16.44342
411.6861, 30.74084
412.1682, 33.03241
412.6504, 20.98425
413.1325, 18.73315
413.6146, 37.95050
414.0967, 55.94452
414.5788, 58.00989
415.0609, 47.66650
415.5431, 37.97375
416.0252, 37.43036
416.5073, 43.00519
416.9894, 40.27930
417.4715, 11.88562
417.9536, 3.800964
418.4358, 5.265137
418.9179, 24.99835
419.4000, 42.87512
419.8821, 54.34479
420.3642, 58.56921
420.8463, 52.07904
421.3285, 27.45587
421.8106, 12.77893
422.2927, 13.32623
422.7748, 18.54297
423.2569, 25.59894
423.7390, 33.16992
424.2212, 39.64355
424.7033, 44.24323
425.1854, 46.72455
425.6675, 44.92548
426.1496, 35.34338
426.6317, 27.48022
427.1139, 23.95990
427.5960, 24.29620
428.0781, 28.77643
428.5602, 38.06531
429.0423, 47.77527
429.5244, 50.29523
430.0066, 45.21338
430.4887, 39.50781
430.9708, 32.74194
431.4529, 28.76898
431.9350, 33.93091
432.4171, 49.03729
432.8993, 58.30621
433.3814, 47.43640
433.8635, 27.41278
434.3456, 20.42090
434.8277, 30.83606
435.3098, 42.17834
435.7920, 40.37177
436.2741, 25.93781
436.7562, 12.44855
437.2383, 5.035034
437.7204, 16.55090
438.2025, 14.09039
438.6847, 0.5413820
439.1668, 17.10858
439.6489, 36.74823
440.1310, 54.71960
440.6131, 60.77710
441.0952, 44.15515
441.5774, 30.56677
442.0595, 19.85114
442.5416, 13.42645
443.0237, 14.23767
443.5058, 21.92810
443.9879, 31.88757
444.4701, 39.72327
444.9522, 45.98566
445.4343, 45.90100
445.9164, 29.89282
446.3985, 17.16846
446.8806, 16.22260
447.3628, 22.77362
447.8449, 28.32263
448.3270, 28.66284
448.8091, 26.10303
449.2912, 26.15540
449.7733, 28.33777
450.2555, 32.88080
450.7376, 44.30548
451.2197, 55.16003
451.7018, 59.51752
452.1839, 56.35284
452.6660, 49.73926
453.1482, 40.53607
453.6303, 29.99353
454.1124, 25.13013
454.5945, 27.99725
455.0766, 31.85504
455.5587, 33.06934
456.0409, 32.03729
456.5230, 29.24683
457.0051, 21.65765
457.4872, 14.65900
457.9693, 15.08136
458.4514, 21.13416
458.9336, 22.74573
459.4156, 13.32477
459.8978, 1.011169
460.3799, 3.546753
460.8620, 11.00122
461.3441, 25.00201
461.8262, 38.19556
462.3083, 47.93024
462.7905, 50.18121
463.2726, 44.70959
463.7547, 35.88562
464.2368, 28.00885
464.7189, 21.16010
465.2010, 14.64716
465.6832, 5.525085
466.1653, 0.1287230
466.6474, 0.8633420
467.1295, 6.205933
467.6116, 13.45148
468.0938, 21.19214
468.5759, 17.22485
469.0580, 34.40808
469.5401, 44.59033
470.0222, 48.12695
470.5043, 25.11285
470.9865, 36.37030
471.4686, 33.90002
471.9507, 30.86591
472.4328, 46.95782
472.9149, 27.80444
473.3970, 43.59180
473.8792, 45.43097
474.3613, 53.65302
474.8434, 48.05151
475.3255, 46.68152
475.8076, 58.74890
476.2897, 63.52209
476.7719, 56.32782
477.2540, 64.99054
477.7361, 45.34985
478.2182, 50.51416
478.7003, 66.37982
479.1824, 59.88043
479.6646, 68.72748
480.1467, 71.71979
480.6288, 48.11761
481.1109, 70.81073
481.5930, 73.48547
482.0751, 64.83728
482.5573, 58.62885
483.0394, 44.43530
483.5215, 30.74243
484.0036, 23.59460
484.4857, 22.24139
484.9678, 21.74982
485.4500, 22.08765
485.9321, 23.83246
486.4142, 27.66772
486.8963, 31.76080
487.3784, 33.63116
487.8605, 32.77539
488.3427, 31.32153
488.8248, 31.63354
489.3069, 33.76947
489.7890, 37.02478
490.2711, 45.60284
490.7532, 49.29346
491.2354, 38.03345
491.7175, 18.30487
492.1996, 5.473755
492.6817, 9.312256
493.1638, 18.69183
493.6459, 18.89709
494.1281, 10.83154
494.6102, 7.925720
495.0923, 17.42365
495.5744, 30.91370
496.0565, 32.94550
496.5386, 20.20166
497.0208, 15.79779
497.5029, 35.41949
497.9850, 59.60999
498.4671, 67.63416
498.9492, 58.66949
499.4313, 44.98712
499.9135, 35.74200
500.3956, 30.76746
500.8777, 27.55652
501.3598, 28.54364
501.8419, 28.38153
502.3240, 23.62537
502.8062, 18.48700
503.2883, 19.92297
503.7704, 29.26019
504.2525, 37.68597
504.7346, 31.07355
505.2167, 6.150085
505.6989, 10.10559
506.1810, 16.34033
506.6631, 13.73303
507.1452, 5.014648
507.6273, 31.22131
508.1094, 45.22864
508.5916, 33.08307
509.0737, 11.86731
509.5558, 6.764587
510.0379, 17.09833
510.5200, 21.58539
511.0021, 9.183044
511.4843, 8.047974
511.9664, 10.39087
512.4485, 3.895508
512.9306, 16.17310
513.4127, 21.74030
513.8948, 23.10632
514.3770, 21.81171
514.8591, 18.38177
515.3412, 13.58337
515.8233, 7.177795
516.3054, 0.3208620
516.7875, 0.6295170
517.2697, 19.46741
517.7518, 31.31244
518.2339, 29.13977
518.7160, 22.03503
519.1981, 16.03424
519.6802, 13.36920
520.1624, 15.93231
520.6445, 29.25757
521.1266, 53.90894
521.6087, 66.10602
522.0908, 61.77228
522.5729, 50.25427
523.0551, 27.51593
523.5372, 3.157593
524.0193, 5.601990
524.5014, 11.86945
524.9835, 33.74274
525.4656, 36.83289
525.9478, 24.57281
526.4299, 14.68048
526.9120, 11.27338
527.3941, 12.48669
527.8762, 18.51331
528.3583, 29.78784
528.8405, 34.69421
529.3226, 27.42236
529.8047, 17.66461
530.2868, 9.987732
530.7689, 5.050476
531.2510, 3.913208
531.7332, 7.383484
532.2153, 13.29272
532.6974, 16.35168
533.1795, 15.63074
533.6616, 13.55280
534.1437, 4.472534
534.6259, 1.041931
535.1080, 8.916870
535.5901, 30.22589
536.0722, 44.13257
536.5543, 34.67987
537.0364, 11.05981
537.5186, 4.256104
538.0007, 19.68341
538.4828, 31.02051
538.9649, 21.81616
539.4470, 7.588257
539.9291, 8.566467
540.4113, 28.73090
540.8934, 44.67731
541.3755, 42.28668
541.8576, 29.41058
542.3397, 14.66534
542.8218, 0.4387210
543.3040, 6.984863
543.7861, 4.146118
544.2682, 29.97125
544.7503, 45.24115
545.2324, 39.56836
545.7145, 35.92743
546.1967, 39.55060
546.6788, 47.63934
547.1609, 58.63983
547.6430, 71.40411
548.1251, 82.78156
548.6072, 87.96710
549.0894, 86.57214
549.5715, 91.98529
550.0536, 110.0670
550.5357, 126.6904
551.0178, 136.0870
551.4999, 141.3099
551.9821, 146.8658
552.4642, 154.4488
552.9463, 160.7466
553.4284, 161.9003
553.9105, 159.0306
554.3926, 157.1165
554.8748, 157.7480
555.3569, 156.8057
555.8390, 149.0911
556.3211, 134.7613
556.8032, 125.1292
557.2853, 128.2782
557.7675, 127.8481
558.2496, 112.2839
558.7317, 88.88422
559.2138, 71.21234
559.6959, 63.53058
560.1780, 59.93915
560.6602, 52.52393
561.1423, 39.74860
561.6244, 31.42285
562.1065, 29.15918
562.5886, 30.14331
563.0707, 38.79712
563.5529, 48.52094
564.0350, 47.33881
564.5171, 27.40717
564.9992, 5.294373
565.4813, 4.651978
565.9634, 23.87653
566.4456, 36.50201
566.9277, 35.16101
567.4098, 28.27881
567.8919, 24.29645
568.3740, 22.85443
568.8561, 20.37555
569.3383, 10.67688
569.8204, 4.400208
570.3025, 13.79205
570.7846, 31.88971
571.2667, 42.64362
571.7488, 39.28522
572.2310, 28.61304
572.7131, 22.40186
573.1952, 21.21136
573.6773, 23.10284
574.1594, 34.57867
574.6415, 42.54022
575.1237, 38.74323
575.6058, 27.28345
576.0879, 16.87402
576.5700, 11.31982
577.0521, 9.880981
577.5342, 12.88342
578.0164, 20.36072
578.4985, 25.78430
578.9806, 27.43140
579.4627, 26.84460
579.9448, 24.92535
580.4269, 21.85815
580.9091, 19.28778
581.3912, 18.36920
581.8733, 16.99377
582.3554, 13.54810
582.8375, 8.924927
583.3196, 6.038025
583.8018, 6.114929
584.2839, 8.411438
584.7660, 12.17468
585.2481, 19.51398
585.7302, 22.14563
586.2123, 15.28168
586.6945, 8.789978
587.1766, 6.811401
587.6587, 8.263062
588.1408, 9.998413
588.6229, 10.12237
589.1050, 13.64209
589.5872, 26.27100
590.0693, 45.96106
590.5514, 56.63068
591.0335, 53.64789
591.5156, 43.22290
591.9977, 25.52057
592.4799, 2.601501
592.9620, 5.918030
593.4441, 19.78082
593.9262, 43.55688
594.4083, 38.88306
594.8904, 17.76367
595.3726, 5.732849
595.8547, 11.71869
596.3368, 24.23328
596.8189, 26.02142
597.3010, 13.70160
597.7831, 6.897095
598.2653, 11.14911
598.7474, 15.81494
599.2295, 16.57733
599.7116, 15.02612
600.1937, 13.53235
600.6758, 13.09112
601.1580, 11.50983
601.6401, 3.577393
602.1222, 8.003418
602.6043, 5.011719
603.0864, 19.35602
603.5685, 43.39038
604.0507, 47.61200
604.5328, 33.81470
605.0149, 25.57739
605.4970, 26.40125
605.9791, 28.59595
606.4612, 29.51044
606.9434, 30.28912
607.4255, 33.38226
607.9076, 38.87006
608.3897, 43.28217
608.8718, 42.51959
609.3539, 36.71088
609.8361, 31.86395
610.3182, 27.38135
610.8003, 24.91333
611.2824, 28.14679
611.7645, 31.86816
612.2466, 28.55859
612.7288, 16.23364
613.2109, 7.348450
613.6930, 15.29291
614.1751, 30.51007
614.6572, 35.05933
615.1393, 27.52454
615.6215, 15.75317
616.1036, 3.127136
616.5857, 8.331360
617.0678, 12.55957
617.5499, 4.377686
618.0320, 5.605652
618.5142, 19.20221
618.9963, 20.60358
619.4784, 36.46735
619.9605, 45.30823
620.4426, 47.50348
620.9247, 23.15033
621.4069, 33.08063
621.8890, 29.27637
622.3711, 24.91187
622.8532, 39.67352
623.3353, 19.19000
623.8174, 33.64716
624.2996, 34.15613
624.7817, 41.04828
625.2638, 34.11664
625.7459, 31.45441
626.2280, 42.61896
626.7101, 46.12665
627.1923, 37.60406
627.6744, 44.90393
628.1565, 23.93762
628.6386, 27.77429
629.1207, 42.31219
629.6028, 34.48505
630.0850, 42.03546
630.5671, 43.93201
631.0492, 19.00818
631.5313, 40.37256
632.0134, 42.00623
632.4955, 45.37677
632.9777, 33.62500
633.4598, 19.69452
633.9419, 17.71796
634.4240, 23.89093
634.9061, 23.71106
635.3882, 14.08698
635.8704, 7.641235
636.3525, 15.24921
636.8346, 34.23254
637.3167, 47.32452
637.7988, 55.88379
638.2809, 57.65594
638.7631, 44.70532
639.2452, 29.78491
639.7273, 26.01599
640.2094, 33.29608
640.6915, 41.71588
641.1736, 43.22125
641.6558, 40.29675
642.1379, 42.56732
642.6200, 52.04730
643.1021, 57.82611
643.5842, 55.49823
644.0663, 49.28967
644.5485, 45.71741
645.0306, 44.52985
645.5127, 35.59662
645.9948, 0.9534300
646.4769, 29.44794
646.9590, 26.91559
647.4412, 0.8761600
647.9233, 25.62927
648.4054, 43.54309
648.8875, 53.00214
649.3696, 52.74084
649.8517, 39.99902
650.3339, 31.67194
650.8160, 31.65948
651.2981, 31.55841
651.7802, 24.85687
652.2623, 16.85602
652.7444, 16.07416
653.2266, 25.62854
653.7087, 35.82025
654.1908, 41.38745
654.6729, 41.65710
655.1550, 31.03961
655.6371, 9.273376
656.1193, 5.217896
656.6014, 1.423279
657.0835, 23.00159
657.5656, 35.90588
658.0477, 34.50421
658.5298, 31.68262
659.0120, 24.37354
659.4941, 18.27655
659.9762, 17.71234
660.4583, 22.13928
660.9404, 26.83972
661.4225, 28.61011
661.9047, 28.73413
662.3868, 28.54163
662.8689, 28.13147
663.3510, 31.80585
663.8331, 43.15503
664.3152, 52.49921
664.7974, 47.24261
665.2795, 28.55219
665.7616, 20.92737
666.2437, 39.15131
666.7258, 51.93158
667.2079, 39.71417
667.6901, 19.58392
668.1722, 15.96307
668.6543, 31.65979
669.1364, 46.95685
669.6185, 40.95691
670.1006, 18.63794
670.5828, 12.29376
671.0649, 28.10974
671.5470, 39.44336
672.0291, 36.15344
672.5112, 25.26965
672.9933, 11.82477
673.4755, 4.522461
673.9576, 10.34705
674.4397, 7.632446
674.9218, 28.58429
675.4039, 36.86548
675.8860, 35.23828
676.3682, 31.88184
676.8503, 30.12170
677.3324, 28.37604
677.8145, 23.51190
678.2966, 14.46631
678.7787, 10.92767
679.2609, 14.34686
679.7430, 21.34113
680.2251, 36.67981
680.7072, 51.88721
681.1893, 54.15924
681.6714, 39.66895
682.1536, 25.36597
682.6357, 19.96631
683.1178, 20.67535
683.5999, 25.87054
684.0820, 34.30945
684.5641, 41.09900
685.0463, 43.58862
685.5284, 42.94739
686.0105, 42.33307
686.4926, 44.59698
686.9747, 40.06836
687.4568, 14.31232
687.9390, 3.701294
688.4211, 5.270386
688.9032, 29.02722
689.3853, 44.17499
689.8674, 42.41132
690.3495, 34.54016
690.8317, 24.91174
691.3138, 16.87683
691.7959, 21.91663
692.2780, 40.74829
692.7601, 53.87793
693.2422, 45.84766
693.7244, 23.44122
694.2065, 13.30420
694.6886, 26.26556
695.1707, 34.20044
695.6528, 32.92786
696.1349, 29.77863
696.6171, 30.28845
697.0992, 32.65912
697.5813, 30.51288
698.0634, 18.53809
698.5455, 6.470642
699.0276, 8.104309
699.5098, 19.37756
699.9919, 24.42523
700.4740, 19.75018
700.9561, 15.57538
701.4382, 21.74170
701.9203, 35.99597
702.4025, 40.37177
702.8846, 16.14001
703.3667, 7.122559
703.8488, 33.09851
704.3309, 60.05389
704.8130, 63.82269
705.2952, 48.88049
705.7773, 34.98993
706.2594, 34.88098
706.7415, 40.09137
707.2236, 37.81201
707.7057, 29.68207
708.1879, 26.53741
708.6700, 31.55212
709.1521, 37.85065
709.6342, 39.44873
710.1163, 36.43335
710.5984, 30.71619
711.0806, 14.07410
711.5627, 5.696472
712.0448, 14.45648
712.5269, 28.21277
713.0090, 38.84753
713.4911, 44.51526
713.9733, 43.97327
714.4554, 35.30597
714.9375, 23.44531
715.4196, 17.03906
715.9017, 15.19495
716.3839, 12.42175
716.8660, 6.411377
717.3481, 5.083557
717.8302, 20.07312
718.3123, 51.19421
718.7944, 61.42914
719.2766, 30.16394
719.7587, 6.529785
720.2408, 2.024597
720.7229, 6.635864
721.2050, 14.75696
721.6871, 24.05731
722.1693, 28.34106
722.6514, 21.90564
723.1335, 11.88940
723.6156, 11.10999
724.0977, 17.96991
724.5798, 19.44452
725.0620, 10.95770
725.5441, 2.114197
726.0262, 3.131226
726.5083, 14.00958
726.9904, 23.11322
727.4725, 32.45471
727.9547, 37.51337
728.4368, 36.68933
728.9189, 31.86829
729.4010, 20.13672
729.8831, 4.650757
730.3652, 1.119751
730.8474, 19.17926
731.3295, 44.63489
731.8116, 39.41156
732.2937, 11.64996
732.7758, 2.536926
733.2579, 7.077454
733.7401, 24.76495
734.2222, 35.57874
734.7043, 39.74695
735.1864, 44.34418
735.6685, 56.74072
736.1506, 59.42383
736.6328, 38.19849
737.1149, 15.98065
737.5970, 13.55261
738.0791, 28.59167
738.5612, 42.18445
739.0433, 45.42822
739.5255, 41.78802
740.0076, 31.53204
740.4897, 17.54840
740.9718, 8.475403
741.4539, 6.273682
741.9360, 11.49493
742.4182, 27.03418
742.9003, 50.21729
743.3824, 56.47314
743.8645, 33.17999
744.3466, 14.51642
744.8287, 3.455383
745.3109, 0.9916990
745.7930, 4.255859
746.2751, 16.42828
746.7572, 24.71545
747.2393, 24.56683
747.7214, 20.09009
748.2036, 11.36383
748.6857, 1.883484
749.1678, 0.5501710
749.6499, 9.079529
750.1320, 19.21552
750.6141, 24.90424
751.0963, 26.75134
751.5784, 26.97406
752.0605, 25.26245
752.5426, 22.71338
753.0247, 17.75220
753.5068, 13.80316
753.9890, 12.12085
754.4711, 13.02740
754.9532, 18.95447
755.4353, 35.44110
755.9174, 45.44507
756.3995, 32.88049
756.8817, 13.73108
757.3638, 8.515625
757.8459, 17.15955
758.3280, 27.91064
758.8101, 34.06335
759.2922, 36.49463
759.7744, 39.22864
760.2565, 42.88666
760.7386, 40.68750
761.2207, 29.31775
761.7028, 17.21857
762.1849, 8.527771
762.6671, 3.264343
763.1492, 0.7484740
763.6313, 0.7338870
764.1134, 4.528809
764.5955, 27.75281
765.0776, 49.55780
765.5598, 52.84454
766.0419, 42.95135
766.5240, 34.82697
767.0061, 34.97003
767.4882, 37.16565
767.9703, 31.43750
768.4525, 20.17639
768.9346, 18.01624
769.4167, 26.72968
769.8988, 35.87103
770.3809, 41.74005
770.8630, 42.89093
771.3452, 35.39117
771.8273, 13.49420
772.3094, 0.2428590
772.7915, 3.952332
773.2736, 2.020508
773.7557, 9.614990
774.2379, 23.18286
774.7200, 26.97113
775.2021, 18.75531
775.6842, 11.10217
776.1663, 16.52966
776.6484, 26.69122
777.1306, 28.37085
777.6127, 22.29315
778.0948, 11.50336
778.5769, 3.586548
779.0590, 13.80469
779.5411, 5.224548
780.0233, 10.27747
780.5054, 26.23926
780.9875, 35.17847
781.4696, 37.47247
781.9517, 13.21857
782.4338, 23.24542
782.9160, 19.53387
783.3981, 15.25867
783.8802, 30.11005
784.3623, 9.716553
784.8444, 24.26416
785.3265, 24.86371
785.8087, 31.84674
786.2908, 25.00635
786.7729, 22.43536
787.2550, 33.69165
787.7371, 37.29150
788.2192, 28.84052
788.7014, 36.22833
789.1835, 15.35168
789.6656, 19.36249
790.1477, 33.99365
790.6298, 26.20795
791.1119, 33.85199
791.5941, 35.63904
792.0762, 10.80933
792.5583, 32.26819
793.0404, 33.70831
793.5225, 14.59381
794.0046, 34.46582
794.4868, 18.18451
794.9689, 14.80743
795.4510, 21.14154
795.9331, 17.35156
796.4152, 29.52283
796.8973, 26.31696
797.3795, 21.73712
797.8616, 23.15253
798.3437, 7.578308
798.8258, 23.52252
799.3079, 17.93652
799.7900, 23.05237
800.2722, 30.59369
800.7543, 19.56079
801.2364, 28.19159
801.7185, 29.29578
802.2006, 36.55402
802.6827, 34.63635
803.1649, 30.08765
803.6470, 32.89807
804.1291, 43.92621
804.6112, 45.20990
805.0933, 16.66534
805.5754, 11.00415
806.0576, 11.65222
806.5397, 3.852905
807.0218, 16.47186
807.5039, 21.60535
807.9860, 24.88214
808.4681, 31.99036
808.9503, 40.44800
809.4324, 41.66321
809.9145, 35.26703
810.3966, 28.31952
810.8787, 22.66443
811.3608, 15.83527
811.8430, 3.812073
812.3251, 11.73303
812.8072, 18.53943
813.2893, 12.94025
813.7714, 4.278809
814.2535, 14.98163
814.7357, 29.51477
815.2178, 24.01642
815.6999, 6.452759
816.1820, 3.896851
816.6641, 0.5565190
817.1462, 10.43457
817.6284, 19.67059
818.1105, 28.70386
818.5926, 40.59741
819.0747, 53.76532
819.5568, 59.30878
820.0389, 52.84344
820.5211, 40.72632
821.0032, 32.41010
821.4853, 27.88458
821.9674, 27.02429
822.4495, 32.42877
822.9316, 34.45447
823.4138, 27.21143
823.8959, 16.73511
824.3780, 10.84149
824.8601, 9.556152
825.3422, 8.236145
825.8243, 1.175903
826.3065, 0.2048340
826.7886, 18.41907
827.2707, 39.58875
827.7528, 43.78394
828.2349, 31.73267
828.7170, 21.04718
829.1992, 23.51428
829.6813, 30.80835
830.1633, 31.09674
830.6454, 26.64569
831.1276, 26.87598
831.6097, 33.01807
832.0918, 36.84827
832.5739, 32.29742
833.0560, 23.12708
833.5381, 20.71765
834.0203, 29.10077
834.5024, 29.67438
834.9845, 13.42889
835.4666, 1.489563
835.9487, 9.082336
836.4308, 25.19812
836.9130, 34.60724
837.3951, 37.15094
837.8772, 36.71747
838.3593, 32.20270
838.8414, 26.26001
839.3235, 16.98376
839.8057, 8.861877
840.2878, 10.57666
840.7699, 22.65137
841.2520, 33.32074
841.7341, 31.51764
842.2162, 23.58917
842.6984, 19.70685
843.1805, 19.93445
843.6626, 27.17511
844.1447, 42.40985
844.6268, 54.24432
845.1089, 52.65741
845.5911, 40.06757
846.0732, 26.37396
846.5553, 7.806641
847.0374, 1.206116
847.5195, 6.649231
848.0016, 16.96643
848.4838, 23.58093
848.9659, 26.32556
849.4480, 23.13116
849.9301, 9.418396
850.4122, 3.852844
850.8943, 20.80377
851.3765, 38.53717
851.8586, 40.33295
852.3407, 32.93658
852.8228, 30.10852
853.3049, 35.24475
853.7870, 38.72760
854.2692, 26.77765
854.7513, 10.23932
855.2334, 13.88867
855.7155, 32.68939
856.1976, 40.73804
856.6797, 30.98163
857.1619, 16.79456
857.6440, 9.851746
858.1261, 9.389893
858.6082, 11.97046
859.0903, 19.95294
859.5724, 23.19244
860.0546, 18.01385
860.5367, 11.13263
861.0188, 4.537720
861.5009, 7.7820003E-02
861.9830, 1.668579
862.4651, 11.61560
862.9473, 23.69397
863.4294, 42.18311
863.9115, 56.13275
864.3936, 57.76038
864.8757, 50.77429
865.3578, 41.58118
865.8400, 32.14270
866.3221, 24.32831
866.8042, 19.20105
867.2863, 16.64923
867.7684, 16.69458
868.2505, 19.40295
868.7327, 25.64026
869.2148, 34.43146
869.6969, 41.62274
870.1790, 42.48474
870.6611, 37.99786
871.1432, 28.97266
871.6254, 13.97284
872.1075, 8.502747
872.5896, 17.52991
873.0717, 27.70148
873.5538, 29.54620
874.0359, 26.40265
874.5181, 29.39978
875.0002, 44.20294
875.4823, 51.77509
875.9644, 47.76874
876.4465, 41.33368
876.9286, 35.13971
877.4108, 29.19238
877.8929, 22.64014
878.3750, 15.50995
878.8571, 10.71393
879.3392, 11.34344
879.8214, 13.10394
880.3035, 10.66138
880.7856, 7.801208
881.2677, 12.28223
881.7498, 24.46124
882.2319, 36.36731
882.7141, 42.15997
883.1962, 42.69275
883.6783, 36.65784
884.1604, 25.24060
884.6425, 15.44641
885.1246, 8.328430
885.6068, 7.145203
886.0889, 14.37488
886.5710, 24.73743
887.0531, 26.68152
887.5352, 17.81604
888.0173, 14.30823
888.4995, 18.68005
888.9816, 24.14410
889.4637, 31.52551
889.9458, 37.69440
890.4279, 35.40704
890.9100, 26.09857
891.3922, 23.01538
891.8743, 35.90332
892.3564, 44.93848
892.8385, 40.25635
893.3206, 32.14001
893.8027, 29.25354
894.2849, 30.98077
894.7670, 32.93591
895.2491, 33.33215
895.7312, 33.64526
896.2133, 35.27649
896.6954, 37.53748
897.1776, 38.81921
897.6597, 39.69147
898.1418, 43.37146
898.6239, 50.79468
899.1060, 56.77197
899.5881, 55.20105
900.0703, 47.47913
900.5524, 39.32477
901.0345, 30.64276
901.5166, 23.43518
901.9987, 17.55518
902.4808, 16.08649
902.9630, 23.63312
903.4451, 36.51648
903.9272, 38.71545
904.4093, 20.43964
904.8914, 11.86377
905.3735, 19.75818
905.8557, 30.61566
906.3378, 42.86530
906.8199, 52.73553
907.3020, 42.19550
907.7841, 57.18842
908.2662, 65.18768
908.7484, 66.32672
909.2305, 40.91840
909.7126, 49.79089
910.1947, 44.92523
910.6768, 39.49615
911.1589, 53.19366
911.6411, 31.64612
912.1232, 45.04010
912.6053, 44.48639
913.0874, 50.31598
913.5695, 42.32251
914.0516, 38.59875
914.5338, 48.70190
915.0159, 51.14905
915.4980, 42.10449
915.9801, 48.63000
916.4622, 26.59961
916.9443, 29.37268
917.4265, 42.84698
917.9086, 33.95685
918.3907, 40.44458
918.8728, 41.07556
919.3549, 15.08185
919.8370, 35.38501
920.3192, 35.94299
920.8013, 15.67328
921.2834, 34.39331
921.7655, 16.96381
922.2476, 12.43872
922.7297, 17.62512
923.2119, 12.68719
923.6940, 23.71094
924.1761, 19.35773
924.6582, 13.63080
925.1403, 13.89905
925.6224, 2.822021
926.1046, 7.326660
926.5867, 2.787720
927.0688, 22.01709
927.5509, 31.20081
928.0330, 29.13354
928.5151, 25.19800
928.9973, 21.43945
929.4794, 20.70685
929.9615, 29.83301
930.4436, 40.10858
930.9257, 38.67706
931.4078, 28.09711
931.8900, 20.19824
932.3721, 20.05566
932.8542, 21.89288
933.3363, 17.27936
933.8184, 10.21411
934.3005, 12.41815
934.7827, 22.63812
935.2648, 33.12476
935.7469, 41.74908
936.2290, 46.20123
936.7111, 44.14429
937.1932, 36.74579
937.6754, 27.48834
938.1575, 16.05762
938.6396, 4.819092
939.1217, 8.043579
939.6038, 13.07043
940.0859, 1.289124
940.5681, 16.80457
941.0502, 21.42230
941.5323, 9.417053
942.0144, 0.1566160
942.4965, 9.088928
942.9786, 11.59454
943.4608, 0.8050540
943.9429, 12.81836
944.4250, 22.54504
944.9071, 27.93762
945.3892, 28.36285
945.8713, 21.97034
946.3535, 13.71112
946.8356, 2.163574
947.3177, 12.64685
947.7998, 2.593323
948.2819, 16.71661
948.7640, 24.55658
949.2462, 16.32568
949.7283, 8.432068
950.2104, 13.22925
950.6925, 19.87103
951.1746, 16.30017
951.6567, 9.055847
952.1389, 9.911499
952.6210, 18.88721
953.1031, 28.63690
953.5852, 35.40466
954.0673, 37.85101
954.5494, 29.90979
955.0316, 17.26007
955.5137, 17.03845
955.9958, 28.13977
956.4779, 36.91968
956.9600, 38.34613
957.4421, 34.80243
957.9243, 27.58124
958.4064, 18.54053
958.8885, 17.53912
959.3706, 25.14069
959.8527, 29.97638
960.3348, 29.72937
960.8170, 28.16632
961.2991, 26.77075
961.7812, 27.30475
962.2633, 35.50256
962.7454, 56.25415
963.2275, 61.93903
963.7097, 45.34363
964.1918, 27.19153
964.6739, 9.963379
965.1560, 2.232300
965.6381, 2.695007
966.1202, 7.487183
966.6024, 13.61713
967.0845, 12.87793
967.5666, 12.26276
968.0487, 12.35583
968.5308, 12.78986
969.0129, 12.31836
969.4951, 12.47156
969.9772, 17.18481
970.4593, 27.65594
970.9414, 33.19836
971.4235, 28.53174
971.9056, 20.15771
972.3878, 4.708191
972.8699, 7.992004
973.3520, 4.019592
973.8341, 13.20978
974.3162, 27.51196
974.7983, 32.20551
975.2805, 32.08136
975.7626, 30.34229
976.2447, 26.14911
976.7268, 14.75244
977.2089, 0.8814700
977.6910, 3.855042
978.1732, 2.990845
978.6553, 12.80127
979.1374, 19.85815
979.6195, 24.05841
980.1016, 24.01208
980.5837, 21.13586
981.0659, 18.89862
981.5480, 17.97491
982.0301, 19.09576
982.5122, 22.63879
982.9943, 28.28534
983.4764, 37.13672
983.9586, 47.63141
984.4407, 51.73389
984.9228, 49.01129
985.4049, 40.94409
985.8870, 27.33051
986.3691, 13.69617
986.8513, 3.861938
987.3334, 1.507629
987.8155, 0.7475590
988.2976, 12.33478
988.7797, 19.90656
989.2618, 22.25873
989.7440, 22.67377
990.2261, 21.77740
990.7082, 20.88098
991.1903, 22.20746
991.6724, 25.61646
992.1545, 24.71893
992.6367, 15.78522
993.1188, 10.12366
993.6009, 8.800903
994.0830, 11.35785
994.5651, 20.95709
995.0472, 33.07703
995.5294, 38.08948
996.0115, 34.40448
996.4936, 30.70618
996.9757, 24.14526
997.4578, 20.68719
997.9399, 27.01764
998.4221, 34.12390
998.9042, 34.47681
999.3863, 29.20404
999.8684, 23.36731
1000.351, 15.26379
1000.833, 11.61719
1001.315, 20.27966
1001.797, 28.46997
1002.279, 27.07123
1002.761, 21.56531
1003.243, 20.80377
1003.725, 25.09265
1004.207, 25.76691
1004.690, 12.01599
1005.172, 2.951721
1005.654, 17.94977
1006.136, 38.66687
1006.618, 46.93781
1007.100, 45.27747
1007.582, 44.54633
1008.064, 47.88165
1008.547, 45.54303
1009.029, 20.74280
1009.511, 4.160583
1009.993, 0.4685060
1010.475, 16.58728
1010.957, 20.50775
1011.439, 11.15942
1011.921, 4.105957
1012.403, 7.533630
1012.886, 13.94690
1013.368, 15.81262
1013.850, 14.31042
1014.332, 8.562439
1014.814, 1.922852
1015.296, 6.518799
1015.778, 24.41333
1016.260, 39.09778
1016.742, 37.54028
1017.225, 28.22375
1017.707, 24.94373
1018.189, 26.51892
1018.671, 29.29132
1019.153, 32.66760
1019.635, 34.49500
1020.117, 33.97827
1020.599, 32.90485
1021.082, 33.02954
1021.564, 34.18970
1022.046, 36.73065
1022.528, 40.34723
1023.010, 40.08167
1023.492, 35.39423
1023.974, 29.27161
1024.456, 22.55585
1024.938, 16.59009
1025.421, 13.24884
1025.903, 12.49634
1026.385, 14.30804
1026.867, 19.09564
1027.349, 21.62494
1027.831, 19.56311
1028.313, 22.23804
1028.795, 38.09973
1029.278, 58.72327
1029.760, 64.03491
1030.242, 51.52728
1030.724, 45.31818
1031.206, 49.26984
1031.688, 49.30908
1032.170, 39.43030
1032.652, 28.37952
1033.135, 23.87158
1033.617, 24.33545
1034.099, 23.51227
1034.581, 19.56842
1035.063, 20.13446
1035.545, 28.23181
1036.027, 34.41180
1036.509, 33.93512
1036.991, 30.76343
1037.474, 28.72687
1037.956, 27.81079
1038.438, 28.06274
1038.920, 33.34937
1039.402, 31.91516
1039.884, 13.38922
1040.366, 1.533264
1040.848, 3.7475999E-02
1041.330, 16.65979
1041.813, 26.33905
1042.295, 29.37201
1042.777, 5.857178
1043.259, 16.62408
1043.741, 13.65277
1044.223, 10.11859
1044.705, 25.71118
1045.187, 5.968933
1045.670, 21.26068
1046.152, 22.60315
1046.634, 30.32965
1047.116, 24.23334
1047.598, 22.40704
1048.080, 34.40851
1048.562, 38.75409
1049.044, 31.06793
1049.526, 39.20239
1050.009, 19.07349
1050.491, 23.76599
1050.973, 39.14154
1051.455, 32.15234
1051.937, 40.54138
1052.419, 43.07373
1052.901, 18.99030
1053.383, 41.19586
1053.865, 43.38330
1054.348, 25.01837
1054.830, 45.64111
1055.312, 30.11530
1055.794, 41.02032
1056.276, 32.14166
1056.758, 25.00995
1057.240, 34.45172
1057.722, 46.36768
1058.205, 42.35120
1058.687, 25.92480
1059.169, 18.35883
1059.651, 30.15033
1060.133, 38.44537
1060.615, 27.48425
1061.097, 20.43799
1061.579, 42.46759
1062.062, 68.96613
1062.544, 63.41730
1063.026, 28.58844
1063.508, 4.594727
1063.990, 7.972229
1064.472, 16.49677
1064.954, 27.46936
1065.436, 35.32361
1065.918, 33.09174
1066.401, 26.08179
1066.883, 24.42059
1067.365, 28.15881
1067.847, 26.13080
1068.329, 6.803833
1068.811, 7.970703
1069.293, 5.439880
1069.775, 2.143677
1070.257, 9.331421
1070.740, 13.33167
1071.222, 7.070007
1071.704, 8.955933
1072.186, 14.75714
1072.668, 12.18567
1073.150, 32.63336
1073.632, 18.98169
1074.114, 0.6413570
1074.597, 1.831055
1075.079, 8.898315
1075.561, 16.50220
1076.043, 19.15826
1076.525, 22.04230
1077.007, 30.40515
1077.489, 34.67603
1077.971, 23.62341
1078.453, 11.09344
1078.936, 10.05090
1079.418, 17.31683
1079.900, 25.97314
1080.382, 34.36279
1080.864, 37.76556
1081.346, 29.55096
1081.828, 21.11237
1082.310, 19.07581
1082.792, 19.05524
1083.275, 15.24274
1083.757, 10.48303
1084.239, 12.64612
1084.721, 23.86407
1085.203, 33.95312
1085.685, 41.76208
1086.167, 43.30652
1086.649, 29.85870
1087.131, 14.70172
1087.614, 12.39246
1088.096, 18.40735
1088.578, 18.98505
1089.060, 10.31226
1089.542, 3.479126
1090.024, 2.267212
1090.506, 4.900574
1090.988, 15.35779
1091.471, 25.14117
1091.953, 24.44708
1092.435, 0.8529660
1092.917, 17.20142
1093.399, 26.52869
1093.881, 29.21069
1094.363, 5.344849
1094.845, 15.75977
1095.328, 12.43707
1095.810, 8.550232
1096.292, 23.78961
1096.774, 3.784546
1097.256, 18.72046
1097.738, 19.70831
1098.220, 27.08716
1098.702, 20.63391
1099.184, 18.45203
1099.667, 30.09845
1100.149, 34.08752
1100.631, 26.04425
1101.113, 33.82104
1101.595, 13.33197
1102.077, 17.64636
1102.559, 32.66199
1103.041, 25.31329
1103.523, 33.34222
1104.006, 35.51514
1104.488, 11.07068
1104.970, 32.91443
1105.452, 34.75336
1105.934, 16.02380
1106.416, 36.28094
1106.898, 20.38470
1107.380, 12.36444
1107.863, 1.873169
1108.345, 5.224304
1108.827, 11.78259
1109.309, 12.72363
1109.791, 10.64325
1110.273, 13.53760
1110.755, 24.40637
1111.237, 28.54529
1111.719, 18.22540
1112.202, 9.929749
1112.684, 7.351379
1113.166, 8.032959
1113.648, 11.76666
1114.130, 17.08905
1114.612, 20.95197
1115.094, 23.35901
1115.576, 24.05194
1116.058, 22.18439
1116.541, 19.86743
1117.023, 16.41992
1117.505, 13.85944
1117.987, 12.22217
1118.469, 12.93134
1118.951, 20.43903
1119.433, 37.08301
1119.915, 43.02612
1120.398, 33.43408
1120.880, 23.05640
1121.362, 13.11096
1121.844, 4.714539
1122.326, 2.236633
1122.808, 6.305664
1123.290, 4.357849
1123.772, 3.908691
1124.255, 12.01282
1124.737, 22.06976
1125.219, 24.25549
1125.701, 13.96118
1126.183, 3.983093
1126.665, 0.2653810
1127.147, 2.426819
1127.629, 10.45392
1128.111, 23.43237
1128.594, 29.05701
1129.076, 26.42664
1129.558, 20.60187
1130.040, 11.02295
1130.522, 8.493591
1131.004, 18.46967
1131.486, 30.47559
1131.968, 30.72211
1132.450, 20.62622
1132.933, 3.933716
1133.415, 19.23663
1133.897, 20.23260
1134.379, 4.446350
1134.861, 29.49744
1135.343, 44.39539
1135.825, 50.89343
1136.307, 50.51562
1136.790, 43.86108
1137.272, 28.72076
1137.754, 8.080994
1138.236, 0.5759890
1138.718, 6.229736
1139.200, 11.10596
1139.682, 10.19800
1140.164, 12.44696
1140.646, 28.71198
1141.129, 47.58722
1141.611, 42.75201
1142.093, 23.83679
1142.575, 22.54773
1143.057, 34.71820
1143.539, 35.20428
1144.021, 19.36444
1144.503, 9.010864
1144.985, 21.92865
1145.468, 38.78802
1145.950, 33.46130
1146.432, 19.50934
1146.914, 18.25891
1147.396, 24.77466
1147.878, 24.92596
1148.360, 17.67706
1148.842, 13.78217
1149.325, 19.63690
1149.807, 26.35168
1150.289, 27.96393
1150.771, 26.20770
1151.253, 17.14642
1151.735, 9.120911
1152.217, 15.80151
1152.699, 34.92010
1153.182, 55.26166
1153.664, 76.23230
1154.146, 80.95282
1154.628, 43.13934
1155.110, 8.561035
1155.592, 6.690063
1156.074, 17.78064
1156.556, 24.61475
1157.038, 26.46234
1157.521, 25.65192
1158.003, 22.01111
1158.485, 19.71826
1158.967, 17.44000
1159.449, 19.67096
1159.931, 33.19745
1160.413, 46.03644
1160.895, 52.27173
1161.377, 51.47968
1161.860, 39.74585
1162.342, 14.88574
1162.824, 5.613342
1163.306, 26.51392
1163.788, 35.83862
1164.270, 18.10156
1164.752, 7.648682
1165.234, 26.14313
1165.717, 53.42627
1166.199, 63.94434
1166.681, 59.48651
1167.163, 56.60272
1167.645, 56.62054
1168.127, 51.21667
1168.609, 37.84741
1169.091, 28.84808
1169.573, 29.93097
1170.056, 31.78027
1170.538, 24.39587
1171.020, 12.24066
1171.502, 9.336365
1171.984, 15.01501
1172.466, 18.38885
1172.948, 19.01184
1173.430, 16.06946
1173.912, 9.522278
1174.395, 3.874084
1174.877, 2.015381
1175.359, 4.558533
1175.841, 15.55188
1176.323, 30.48395
1176.805, 39.02197
1177.287, 40.93030
1177.769, 32.79303
1178.252, 17.08862
1178.734, 6.932373
1179.216, 8.568665
1179.698, 13.05487
1180.180, 9.767578
1180.662, 6.581665
1181.144, 16.69073
1181.626, 30.70630
1182.109, 32.68292
1182.591, 25.96179
1183.073, 25.49878
1183.555, 34.67682
1184.037, 39.64197
1184.519, 28.92816
1185.001, 17.82812
1185.483, 12.32953
1185.965, 11.01898
1186.448, 14.09961
1186.930, 19.93243
1187.412, 26.87848
1187.894, 34.53809
1188.376, 41.88208
1188.858, 51.67914
1189.340, 55.71350
1189.822, 46.88428
1190.304, 39.70050
1190.787, 44.87671
1191.269, 47.75665
1191.751, 33.00543
1192.233, 10.47284
1192.715, 7.696533
1193.197, 31.20618
1193.679, 44.79614
1194.161, 45.71710
1194.644, 46.28204
1195.126, 51.72827
1195.608, 48.65601
1196.090, 24.95227
1196.572, 2.285034
1197.054, 1.916748
1197.536, 20.64734
1198.018, 18.53052
1198.500, 6.563721
1198.983, 12.17523
1199.465, 5.986572
1199.947, 23.27435
1200.429, 29.19550
1200.911, 28.06165
1201.393, 21.91577
1201.875, 15.76099
1202.357, 21.39026
1202.839, 32.78778
1203.322, 38.09607
1203.804, 36.86481
1204.286, 25.70227
1204.768, 7.925476
1205.250, 5.881592
1205.732, 37.33881
1206.214, 64.34052
1206.696, 48.94086
1207.179, 24.08655
1207.661, 15.09357
1208.143, 16.88293
1208.625, 26.92462
1209.107, 39.55566
1209.589, 41.61743
1210.071, 28.71844
1210.553, 16.49335
1211.036, 5.205322
1211.518, 1.114502
1212.000, 16.06079
1212.482, 28.56641
1212.964, 16.71643
1213.446, 1.443054
1213.928, 5.017212
1214.410, 34.53625
1214.892, 50.91827
1215.375, 50.44415
1215.857, 46.46387
1216.339, 38.50824
1216.821, 29.87000
1217.303, 20.56726
1217.785, 14.90259
1218.267, 17.64380
1218.749, 24.87164
1219.231, 26.38428
1219.714, 22.71576
1220.196, 22.35638
1220.678, 24.73096
1221.160, 21.40930
1221.642, 11.46735
1222.124, 2.642456
1222.606, 1.026550
1223.088, 1.251160
1223.571, 15.35083
1224.053, 31.04175
1224.535, 27.27069
1225.017, 16.32330
1225.499, 22.95276
1225.981, 40.77222
1226.463, 45.87543
1226.945, 34.18683
1227.427, 0.3648680
1227.910, 16.96820
1228.392, 26.54901
1228.874, 29.49304
1229.356, 5.887146
1229.838, 16.56244
1230.320, 13.50079
1230.802, 9.876099
1231.284, 25.37756
1231.766, 5.634216
1232.249, 20.83362
1232.731, 22.08319
1233.213, 29.71613
1233.695, 23.54901
1234.177, 21.66010
1234.659, 33.59918
1235.141, 37.87927
1235.623, 30.12830
1236.106, 44.03455
1236.588, 53.41449
1237.070, 55.48969
1237.552, 50.11993
1238.034, 37.43567
1238.516, 16.31830
1238.998, 0.9898680
1239.480, 4.122620
1239.963, 1.8310000E-03
1240.445, 13.78558
1240.927, 29.80499
1241.409, 38.16699
1241.891, 40.29407
1242.373, 36.48425
1242.855, 29.47516
1243.337, 22.77008
1243.819, 18.23346
1244.302, 20.89087
1244.784, 31.96161
1245.266, 39.63184
1245.748, 31.69537
1246.230, 24.62354
1246.712, 31.67657
1247.194, 37.78394
1247.676, 23.97333
1248.158, 6.936279
1248.641, 15.56067
1249.123, 46.20135
1249.605, 60.27051
1250.087, 50.13770
1250.569, 35.73999
1251.051, 9.445435
1251.533, 3.643372
1252.015, 7.475891
1252.498, 21.86621
1252.980, 26.43695
1253.462, 24.73981
1253.944, 21.45978
1254.426, 17.66846
1254.908, 23.48151
1255.390, 36.71002
1255.872, 33.54968
1256.354, 14.40216
1256.837, 3.1738002E-02
1257.319, 2.425598
1257.801, 5.307007
1258.283, 28.30133
1258.765, 48.01508
1259.247, 37.70978
1259.729, 18.65430
1260.211, 16.74701
1260.693, 23.73560
1261.176, 27.63580
1261.658, 26.80774
1262.140, 21.73633
1262.622, 12.04749
1263.104, 5.588562
1263.586, 1.628479
1264.068, 5.336182
1264.550, 28.47223
1265.033, 43.85822
1265.515, 27.56445
1265.997, 5.503906
1266.479, 8.150085
1266.961, 29.89636
1267.443, 31.48962
1267.925, 7.279480
1268.407, 2.410522
1268.890, 4.179993
1269.372, 9.244934
1269.854, 9.005676
1270.336, 6.758545
1270.818, 4.162415
1271.300, 4.517822
1271.782, 14.23450
1272.264, 23.95038
1272.746, 21.14453
1273.229, 11.50378
1273.711, 12.20068
1274.193, 19.30853
1274.675, 15.07489
1275.157, 0.0000000E+00
##END=



