##NAMES=Gadolinite-(Y)
##RRUFFID=R080129
##IDEAL CHEMISTRY=Fe^2+^Be_2_Y^3+^_2_(SiO_4_)_2_O_2_
##LOCALITY=Ytterøya mine, Røvika, Ytterøya (island), Levanger, Nord-Trøndelag, Norway
##OWNER=RRUFF
##SOURCE=Michael Scott
##DESCRIPTION=Reddish-brown fragment from metamict sample R070340, after heating at T = 1000 C for 23 hours
##STATUS=The identification of this mineral has been confirmed only by X-ray diffraction
##URL=rruff.info/R080129
148.3797, 0.0000000E+00
148.8618, 1.1192000E-02
149.3439, 0.3265150
149.8260, 0.7619090
150.3082, 1.443336
150.7903, 2.007843
151.2724, 2.315643
151.7545, 2.319672
152.2366, 2.540596
152.7188, 3.176331
153.2009, 4.028786
153.6830, 4.845512
154.1651, 6.284622
154.6472, 6.956505
155.1293, 6.203682
155.6115, 3.810127
156.0936, 1.899391
156.5757, 1.038086
157.0578, 0.7928770
157.5399, 0.7423860
158.0220, 0.6624070
158.5042, 0.6772840
158.9863, 0.8920140
159.4684, 1.371086
159.9505, 1.766174
160.4326, 1.868523
160.9147, 1.977028
161.3969, 2.333511
161.8790, 3.772369
162.3611, 5.128983
162.8432, 5.499481
163.3253, 4.391647
163.8074, 3.302719
164.2896, 2.961899
164.7717, 3.094109
165.2538, 3.112000
165.7359, 2.735931
166.2180, 2.290024
166.7001, 2.246529
167.1823, 2.970238
167.6644, 3.718613
168.1465, 3.924522
168.6286, 3.731010
169.1107, 3.637840
169.5928, 4.153069
170.0750, 4.612709
170.5571, 4.568192
171.0392, 3.710190
171.5213, 2.639519
172.0034, 1.750153
172.4855, 1.041924
172.9677, 0.5274200
173.4498, 0.3221890
173.9319, 0.2853320
174.4140, 0.2110440
174.8961, 9.6279997E-03
175.3782, 0.2091290
175.8604, 0.3380970
176.3425, 0.3792420
176.8246, 0.3533940
177.3067, 0.1991500
177.7888, 1.1269000E-02
178.2709, 0.1211780
178.7531, 5.3879000E-02
179.2352, 0.1099620
179.7173, 0.2870640
180.1994, 0.4755550
180.6815, 0.6039430
181.1636, 0.5645520
181.6458, 0.4059140
182.1279, 0.2847210
182.6100, 0.3214870
183.0921, 0.3964160
183.5742, 0.1892850
184.0563, 0.3079910
184.5385, 0.7988890
185.0206, 0.9679490
185.5027, 0.8606260
185.9848, 0.6747440
186.4669, 0.3849490
186.9490, 7.5989000E-02
187.4312, 8.4320001E-02
187.9133, 0.4532780
188.3954, 0.8276520
188.8775, 0.6885300
189.3596, 9.6488997E-02
189.8417, 0.3728180
190.3239, 0.5186230
190.8060, 0.3626400
191.2881, 6.7299001E-02
191.7702, 0.8257060
192.2523, 1.626122
192.7344, 2.065292
193.2166, 2.141685
193.6987, 2.228027
194.1808, 2.473099
194.6629, 2.866898
195.1450, 3.328903
195.6271, 3.891907
196.1093, 4.442299
196.5914, 4.678551
197.0735, 4.548935
197.5556, 4.732559
198.0377, 5.586647
198.5198, 7.122673
199.0020, 8.728569
199.4841, 10.42710
199.9662, 12.13418
200.4483, 13.71904
200.9304, 15.13346
201.4125, 16.74239
201.8947, 18.82396
202.3768, 21.43844
202.8589, 23.70906
203.3410, 25.51311
203.8231, 27.13856
204.3052, 29.16296
204.7874, 31.72285
205.2695, 34.16470
205.7516, 36.13395
206.2337, 37.57751
206.7158, 39.12688
207.1979, 40.76139
207.6801, 42.53943
208.1622, 44.59810
208.6443, 47.03850
209.1264, 49.48322
209.6085, 51.69447
210.0906, 53.55016
210.5728, 55.72577
211.0549, 58.18306
211.5370, 60.98630
212.0191, 64.20395
212.5012, 67.85892
212.9833, 71.93507
213.4655, 76.33183
213.9476, 80.97130
214.4297, 86.33664
214.9118, 92.60655
215.3939, 99.51074
215.8760, 106.5296
216.3581, 113.4308
216.8403, 120.8090
217.3224, 129.0320
217.8045, 138.6508
218.2866, 147.6535
218.7687, 156.1337
219.2508, 163.8827
219.7330, 170.3287
220.2151, 176.0688
220.6972, 179.3848
221.1793, 179.4519
221.6614, 176.1528
222.1435, 169.7569
222.6257, 159.4723
223.1078, 146.3452
223.5899, 132.7569
224.0720, 117.9945
224.5541, 103.8669
225.0362, 90.82162
225.5184, 78.71774
226.0005, 68.33047
226.4826, 59.80275
226.9647, 52.93298
227.4468, 46.96661
227.9289, 42.10254
228.4111, 37.91194
228.8932, 34.21788
229.3753, 31.05162
229.8574, 28.31612
230.3395, 26.03255
230.8216, 24.18913
231.3038, 22.74590
231.7859, 21.75557
232.2680, 21.11363
232.7501, 20.81592
233.2322, 21.07610
233.7143, 21.17265
234.1965, 20.97029
234.6786, 20.63951
235.1607, 20.64993
235.6428, 21.06007
236.1249, 21.72220
236.6070, 22.63672
237.0892, 24.13086
237.5713, 25.11884
238.0534, 25.50697
238.5355, 25.41396
239.0176, 25.17062
239.4997, 24.95778
239.9819, 24.34085
240.4640, 23.07858
240.9461, 20.85995
241.4282, 18.73526
241.9103, 16.77026
242.3924, 14.87059
242.8746, 12.81903
243.3567, 10.47676
243.8388, 8.191849
244.3209, 6.040344
244.8030, 3.880920
245.2851, 2.292847
245.7673, 1.366013
246.2494, 0.9760890
246.7315, 0.9333650
247.2136, 1.582794
247.6957, 2.012695
248.1778, 1.805252
248.6600, 0.6574860
249.1421, 0.1277010
249.6242, 0.5002290
250.1063, 0.5646060
250.5884, 0.5067290
251.0705, 0.2975770
251.5527, 1.9347999E-02
252.0348, 0.2505040
252.5169, 0.4099580
252.9990, 0.9948430
253.4811, 2.304916
253.9632, 3.852036
254.4454, 4.688629
254.9275, 4.406036
255.4096, 4.199844
255.8917, 4.447678
256.3738, 5.186005
256.8560, 6.260590
257.3381, 7.915497
257.8202, 9.710464
258.3023, 10.96786
258.7844, 11.45114
259.2665, 11.87825
259.7487, 12.42545
260.2308, 13.06927
260.7129, 14.09096
261.1950, 15.58939
261.6771, 17.33264
262.1592, 18.97783
262.6414, 20.38150
263.1235, 22.01228
263.6056, 24.03346
264.0877, 26.49881
264.5698, 28.78859
265.0519, 30.81638
265.5341, 32.87097
266.0162, 35.31775
266.4983, 38.19852
266.9804, 41.13618
267.4625, 44.12708
267.9446, 47.15660
268.4268, 50.11787
268.9089, 52.95366
269.3910, 55.74802
269.8731, 58.59813
270.3552, 61.47694
270.8373, 64.38742
271.3195, 67.35320
271.8016, 70.37785
272.2837, 73.59628
272.7658, 77.07336
273.2479, 80.69188
273.7300, 84.43819
274.2122, 88.32275
274.6943, 92.16753
275.1764, 95.83363
275.6585, 99.41304
276.1406, 103.3825
276.6227, 107.7646
277.1049, 112.4689
277.5870, 117.4545
278.0691, 122.7323
278.5512, 128.2038
279.0333, 133.9204
279.5154, 139.7876
279.9976, 145.4285
280.4797, 150.8078
280.9618, 156.2217
281.4439, 162.1802
281.9260, 168.6660
282.4081, 174.6693
282.8903, 180.0852
283.3724, 184.9187
283.8545, 189.1990
284.3366, 192.9317
284.8187, 196.0598
285.3008, 198.8095
285.7830, 201.1056
286.2651, 201.7243
286.7472, 200.4625
287.2293, 197.6947
287.7114, 193.8318
288.1935, 188.8783
288.6757, 183.4844
289.1578, 178.0636
289.6399, 172.5221
290.1220, 166.5639
290.6041, 160.0403
291.0862, 153.4169
291.5684, 147.2907
292.0505, 141.6244
292.5326, 136.3373
293.0147, 131.5807
293.4968, 127.1636
293.9789, 122.3194
294.4611, 117.0391
294.9432, 111.5542
295.4253, 106.0440
295.9074, 100.5219
296.3895, 95.18019
296.8716, 89.99197
297.3538, 85.01578
297.8359, 80.40265
298.3180, 76.12466
298.8001, 71.98114
299.2822, 67.66547
299.7643, 63.26677
300.2465, 59.08083
300.7286, 55.21538
301.2107, 51.62357
301.6928, 48.19972
302.1749, 44.97260
302.6570, 41.92130
303.1392, 39.01089
303.6213, 36.29053
304.1034, 33.93077
304.5855, 32.08939
305.0676, 30.46280
305.5497, 28.70349
306.0319, 26.84872
306.5140, 25.00423
306.9961, 23.22876
307.4782, 21.52541
307.9603, 19.87703
308.4424, 18.27014
308.9246, 16.76602
309.4067, 15.46983
309.8888, 14.32535
310.3709, 13.15535
310.8530, 11.76292
311.3351, 10.37161
311.8173, 9.184845
312.2994, 8.254257
312.7815, 7.428009
313.2636, 6.674545
313.7457, 5.965988
314.2278, 5.246872
314.7100, 4.581619
315.1921, 3.844910
315.6742, 2.892517
316.1563, 1.658875
316.6384, 0.5635530
317.1205, 0.1720580
317.6027, 0.6596530
318.0848, 1.034988
318.5669, 1.290619
319.0490, 1.487930
319.5311, 1.658127
320.0132, 1.805115
320.4954, 1.883209
320.9775, 1.714249
321.4596, 1.550903
321.9417, 1.612076
322.4238, 2.503754
322.9059, 3.043060
323.3881, 2.756805
323.8702, 1.725388
324.3523, 0.9281920
324.8344, 0.5849610
325.3165, 0.4616700
325.7986, 0.4147340
326.2808, 0.6232450
326.7629, 0.6811980
327.2450, 0.5853880
327.7271, 0.3246460
328.2092, 0.1442570
328.6913, 0.9794160
329.1735, 1.883804
329.6556, 2.766647
330.1377, 3.685547
330.6198, 4.463684
331.1019, 4.979279
331.5840, 5.385925
332.0662, 5.981415
332.5483, 6.785538
333.0304, 7.760910
333.5125, 8.946823
333.9946, 10.45528
334.4767, 11.60298
334.9589, 12.13162
335.4410, 12.53540
335.9231, 13.48822
336.4052, 15.21098
336.8873, 16.88248
337.3694, 18.29510
337.8516, 19.45697
338.3336, 20.56409
338.8158, 21.58203
339.2979, 22.63121
339.7800, 23.87500
340.2621, 25.34183
340.7442, 26.75241
341.2263, 28.02339
341.7085, 29.20470
342.1906, 30.35095
342.6727, 31.45015
343.1548, 32.65523
343.6369, 34.19695
344.1190, 36.02898
344.6012, 37.61755
345.0833, 38.86742
345.5654, 39.89575
346.0475, 40.84555
346.5296, 41.71878
347.0117, 42.64523
347.4939, 43.68192
347.9760, 44.81218
348.4581, 46.06667
348.9402, 47.47867
349.4223, 48.81265
349.9044, 49.84685
350.3866, 50.60947
350.8687, 51.20956
351.3508, 51.56917
351.8329, 51.85497
352.3150, 52.37865
352.7971, 53.13515
353.2793, 53.85391
353.7614, 54.39168
354.2435, 54.75082
354.7256, 54.92007
355.2077, 54.76700
355.6898, 54.58549
356.1720, 54.72357
356.6541, 55.09233
357.1362, 55.31117
357.6183, 55.07529
358.1004, 54.63979
358.5826, 54.24112
359.0647, 53.96146
359.5468, 53.62297
360.0289, 53.08432
360.5110, 52.42207
360.9931, 51.77989
361.4753, 51.39955
361.9574, 50.91318
362.4395, 50.05569
362.9216, 48.72726
363.4037, 47.52998
363.8858, 46.60390
364.3680, 45.91573
364.8501, 45.42923
365.3322, 45.58063
365.8143, 45.49043
366.2964, 44.77493
366.7785, 43.45081
367.2607, 42.44765
367.7428, 42.33553
368.2249, 42.24619
368.7070, 41.64275
369.1891, 39.90488
369.6712, 38.48106
370.1534, 37.44467
370.6355, 36.74226
371.1176, 36.23425
371.5997, 36.08022
372.0818, 35.93315
372.5639, 35.58571
373.0461, 34.84488
373.5282, 34.46823
374.0103, 34.57162
374.4924, 34.92986
374.9745, 35.18935
375.4566, 35.31725
375.9388, 35.45340
376.4209, 35.63614
376.9030, 35.84087
377.3851, 35.89220
377.8672, 35.76295
378.3493, 35.69447
378.8315, 35.89374
379.3136, 36.36934
379.7957, 37.10001
380.2778, 38.07541
380.7599, 39.17297
381.2420, 40.14873
381.7242, 41.03879
382.2063, 42.03346
382.6884, 43.19421
383.1705, 44.51984
383.6526, 46.04501
384.1347, 47.78860
384.6169, 49.57397
385.0990, 51.03810
385.5811, 52.31213
386.0632, 53.74100
386.5453, 55.43506
387.0274, 57.36745
387.5096, 59.56154
387.9917, 62.00339
388.4738, 64.46547
388.9559, 66.74049
389.4380, 68.88336
389.9201, 70.96675
390.4023, 72.82315
390.8844, 74.82742
391.3665, 77.43942
391.8486, 80.48553
392.3307, 83.23058
392.8128, 85.14233
393.2950, 86.74907
393.7771, 88.38959
394.2592, 90.06097
394.7413, 91.89285
395.2234, 94.13185
395.7055, 96.49947
396.1877, 98.56721
396.6698, 100.0485
397.1519, 101.3960
397.6340, 102.8580
398.1161, 104.5093
398.5982, 105.6594
399.0804, 106.1605
399.5625, 106.2104
400.0446, 105.9496
400.5267, 105.3857
401.0088, 104.5042
401.4909, 103.2465
401.9731, 101.6755
402.4552, 100.0881
402.9373, 98.67647
403.4194, 96.93852
403.9015, 94.58569
404.3836, 91.47493
404.8658, 88.27602
405.3479, 84.96808
405.8300, 81.63618
406.3121, 78.33260
406.7942, 75.03218
407.2763, 71.93619
407.7585, 69.29219
408.2406, 66.91100
408.7227, 63.65530
409.2048, 59.43880
409.6869, 55.17052
410.1690, 51.71291
410.6512, 48.95520
411.1333, 46.18170
411.6154, 43.18507
412.0975, 40.25134
412.5796, 37.82101
413.0617, 35.83138
413.5439, 33.91850
414.0260, 31.88036
414.5081, 29.76888
414.9902, 27.67830
415.4723, 25.60622
415.9544, 23.55009
416.4366, 21.44849
416.9187, 19.39145
417.4008, 17.52061
417.8829, 15.86993
418.3650, 14.41867
418.8471, 13.18326
419.3293, 12.15013
419.8114, 11.17120
420.2935, 10.20517
420.7756, 9.263306
421.2577, 8.370422
421.7398, 7.483795
422.2220, 6.706573
422.7041, 6.138016
423.1862, 5.677444
423.6683, 5.141235
424.1504, 4.439514
424.6325, 3.717575
425.1147, 2.980911
425.5968, 2.198395
426.0789, 1.600586
426.5610, 1.251007
427.0431, 1.027527
427.5252, 0.8554990
428.0074, 0.8011930
428.4895, 0.6279140
428.9716, 0.2456510
429.4537, 0.2506710
429.9358, 0.5315090
430.4179, 0.5443420
430.9001, 0.5304870
431.3822, 0.5964360
431.8643, 0.7427670
432.3464, 0.9963230
432.8285, 1.408920
433.3106, 1.759232
433.7928, 1.660645
434.2749, 1.176666
434.7570, 0.8477170
435.2391, 0.8764190
435.7212, 1.132278
436.2033, 1.476563
436.6855, 1.880386
437.1676, 2.083557
437.6497, 1.750259
438.1318, 1.138458
438.6139, 0.6397550
439.0960, 0.3265530
439.5782, 9.1536999E-02
440.0603, 8.5693002E-02
440.5424, 0.2537540
441.0245, 0.4993900
441.5066, 1.002716
441.9887, 1.479050
442.4709, 1.684067
442.9530, 1.627136
443.4351, 1.710876
443.9172, 2.281769
444.3993, 2.933533
444.8814, 3.361557
445.3636, 3.376450
445.8457, 3.354172
446.3278, 3.207840
446.8099, 3.058502
447.2920, 3.208710
447.7741, 3.948471
448.2563, 4.675095
448.7384, 5.201065
449.2205, 5.509903
449.7026, 5.807693
450.1847, 6.087326
450.6668, 6.363922
451.1490, 6.655304
451.6311, 6.975143
452.1132, 7.266418
452.5953, 7.521149
453.0774, 7.746048
453.5595, 7.935089
454.0417, 8.073257
454.5238, 8.321213
455.0059, 8.880905
455.4880, 9.657379
455.9701, 10.14047
456.4522, 10.27814
456.9344, 10.34445
457.4165, 10.61890
457.8986, 11.05940
458.3807, 11.54887
458.8628, 12.11140
459.3449, 12.64258
459.8271, 13.02458
460.3092, 13.27365
460.7913, 13.46819
461.2734, 13.59196
461.7555, 13.71896
462.2376, 13.93304
462.7198, 14.26807
463.2019, 14.57333
463.6840, 14.65497
464.1661, 14.70473
464.6482, 14.95435
465.1303, 15.64012
465.6125, 16.34445
466.0946, 17.03462
466.5767, 17.69113
467.0588, 18.10670
467.5409, 18.00871
468.0230, 17.89497
468.5052, 17.98169
468.9873, 18.33105
469.4694, 18.74017
469.9515, 19.25314
470.4336, 19.78905
470.9157, 20.21991
471.3979, 20.49384
471.8800, 20.84142
472.3621, 21.33441
472.8442, 21.94598
473.3263, 22.59988
473.8084, 23.30986
474.2906, 23.95427
474.7727, 24.35674
475.2548, 24.58984
475.7369, 25.03522
476.2190, 25.76262
476.7011, 26.57878
477.1833, 27.27650
477.6654, 27.88338
478.1475, 28.47701
478.6296, 29.11717
479.1117, 29.74100
479.5938, 30.24678
480.0760, 30.65900
480.5581, 31.12090
481.0402, 31.84782
481.5223, 32.58554
482.0044, 33.09647
482.4865, 33.22357
482.9687, 33.42502
483.4508, 33.97273
483.9329, 34.65900
484.4150, 35.17961
484.8971, 35.36598
485.3792, 35.50446
485.8614, 35.66902
486.3435, 35.85301
486.8256, 35.96512
487.3077, 36.05217
487.7898, 35.99516
488.2719, 35.67924
488.7541, 34.93179
489.2362, 34.41887
489.7183, 34.23807
490.2004, 34.20593
490.6825, 34.01257
491.1646, 33.63010
491.6468, 33.10191
492.1289, 32.44473
492.6110, 31.66954
493.0931, 30.64821
493.5752, 29.37115
494.0573, 28.31613
494.5395, 28.16061
495.0216, 28.45155
495.5037, 28.09760
495.9858, 26.87863
496.4679, 25.52019
496.9500, 24.62411
497.4322, 24.05852
497.9143, 23.62172
498.3964, 23.38754
498.8785, 23.11151
499.3606, 22.72256
499.8427, 22.18460
500.3249, 21.40889
500.8070, 19.96721
501.2891, 18.63263
501.7712, 17.85240
502.2533, 17.87399
502.7354, 17.73930
503.2176, 17.30194
503.6997, 16.72931
504.1818, 16.20026
504.6639, 15.80190
505.1460, 15.26842
505.6281, 14.49503
506.1103, 13.56210
506.5924, 12.80637
507.0745, 12.23561
507.5566, 11.80695
508.0387, 11.62465
508.5208, 11.65886
509.0030, 11.21762
509.4851, 10.22731
509.9672, 9.177078
510.4493, 8.627121
510.9314, 8.458969
511.4135, 8.266602
511.8957, 7.937119
512.3778, 7.573746
512.8599, 7.266357
513.3420, 7.022873
513.8242, 6.862381
514.3063, 6.875992
514.7884, 6.919998
515.2705, 6.910217
515.7526, 6.841629
516.2347, 6.661453
516.7169, 6.200363
517.1990, 5.704178
517.6811, 5.357727
518.1632, 5.209259
518.6453, 5.181412
519.1274, 5.336563
519.6096, 5.592560
520.0917, 5.809326
520.5738, 6.030548
521.0559, 6.128464
521.5380, 6.001511
522.0201, 5.674667
522.5023, 5.641647
522.9844, 6.015244
523.4665, 6.365067
523.9486, 6.322403
524.4307, 5.911896
524.9128, 5.626373
525.3950, 5.516205
525.8771, 5.504257
526.3592, 5.492935
526.8413, 5.493973
527.3234, 5.565338
527.8055, 5.874847
528.2877, 6.120667
528.7698, 5.811646
529.2519, 5.082047
529.7340, 4.494934
530.2161, 4.570328
530.6982, 4.773972
531.1804, 4.659470
531.6625, 4.110214
532.1446, 3.655640
532.6267, 3.635590
533.1088, 3.714172
533.5909, 3.582047
534.0731, 3.035889
534.5552, 2.476166
535.0373, 1.816315
535.5194, 1.181229
536.0015, 0.8846890
536.4836, 1.083923
536.9658, 1.303650
537.4479, 1.357635
537.9300, 1.256897
538.4121, 1.336533
538.8942, 1.654541
539.3763, 1.897430
539.8585, 1.709381
540.3406, 1.176239
540.8227, 0.8013760
541.3048, 0.6575930
541.7869, 0.6353000
542.2690, 0.6455990
542.7512, 0.6709290
543.2333, 0.6687320
543.7154, 0.6483610
544.1975, 0.5715330
544.6796, 0.3232730
545.1617, 3.8619999E-02
545.6439, 0.2516940
546.1260, 6.8236999E-02
546.6081, 0.3713380
547.0902, 0.2590180
547.5723, 0.4648130
548.0544, 0.9425660
548.5366, 0.9218900
549.0187, 0.6796720
549.5008, 0.4534000
549.9829, 0.2226100
550.4650, 3.2867000E-02
550.9471, 0.1674040
551.4293, 0.2962040
551.9114, 9.3506001E-02
552.3935, 0.5304570
552.8756, 1.046448
553.3577, 1.221008
553.8398, 1.124557
554.3220, 1.073273
554.8041, 1.068405
555.2862, 1.068192
555.7683, 1.048386
556.2504, 1.008499
556.7325, 0.9131320
557.2147, 0.7308960
557.6968, 0.6440730
558.1789, 0.9975430
558.6610, 1.499863
559.1431, 1.717560
559.6252, 1.307404
560.1074, 0.7806850
560.5895, 0.2635960
561.0716, 0.2239070
561.5537, 0.6076660
562.0358, 0.9403990
562.5179, 1.102127
563.0001, 0.9893040
563.4822, 0.5630800
563.9643, 0.2941440
564.4464, 0.2021790
564.9285, 0.2415010
565.4106, 0.4166110
565.8928, 0.7637330
566.3749, 1.019440
566.8570, 1.166046
567.3391, 1.217850
567.8212, 1.143951
568.3033, 0.9680480
568.7855, 0.8757630
569.2676, 0.9783940
569.7497, 1.147720
570.2318, 1.124756
570.7139, 0.9735110
571.1960, 0.9711760
571.6782, 1.482788
572.1603, 2.074905
572.6424, 2.340332
573.1245, 2.223312
573.6066, 2.177597
574.0887, 2.454834
574.5709, 2.827606
575.0530, 3.123428
575.5351, 3.384979
576.0172, 3.468384
576.4993, 3.204010
576.9814, 2.841888
577.4636, 2.810333
577.9457, 3.231216
578.4278, 3.661453
578.9099, 3.994568
579.3920, 4.252930
579.8741, 4.508362
580.3563, 4.756958
580.8384, 5.038635
581.3205, 5.436661
581.8026, 5.885300
582.2847, 6.075104
582.7668, 5.989487
583.2490, 6.086456
583.7311, 6.960724
584.2132, 8.164063
584.6953, 9.106110
585.1774, 9.536957
585.6595, 9.944427
586.1416, 10.59438
586.6237, 11.37776
587.1058, 12.13824
587.5880, 12.86156
588.0701, 13.53459
588.5522, 14.06384
589.0343, 14.51503
589.5164, 15.22775
589.9985, 16.39880
590.4807, 17.49701
590.9628, 18.25015
591.4449, 18.64574
591.9270, 19.35316
592.4091, 20.44266
592.8912, 21.53670
593.3734, 22.21478
593.8555, 22.58133
594.3376, 23.12714
594.8197, 23.93871
595.3018, 24.85085
595.7839, 25.74715
596.2661, 26.60551
596.7482, 27.38106
597.2303, 27.99818
597.7124, 28.59631
598.1945, 29.38271
598.6766, 30.23659
599.1588, 30.79056
599.6409, 30.63402
600.1230, 30.44066
600.6051, 30.50339
601.0872, 30.84932
601.5693, 31.04666
602.0515, 31.05817
602.5336, 30.96518
603.0157, 30.81265
603.4978, 30.61700
603.9799, 30.28140
604.4620, 29.77794
604.9442, 29.14964
605.4263, 28.41060
605.9084, 27.56985
606.3905, 26.72891
606.8726, 25.90265
607.3547, 25.09398
607.8369, 24.32039
608.3190, 23.56024
608.8011, 22.73970
609.2832, 21.75398
609.7653, 20.74649
610.2474, 19.73952
610.7296, 18.74298
611.2117, 17.88785
611.6938, 17.32706
612.1759, 16.82309
612.6580, 16.29593
613.1401, 15.78763
613.6223, 15.01219
614.1044, 13.82014
614.5865, 12.58209
615.0686, 11.68132
615.5507, 11.16954
616.0328, 10.46968
616.5150, 9.466965
616.9971, 8.415329
617.4792, 7.759705
617.9613, 7.431824
618.4434, 7.069138
618.9255, 6.479172
619.4077, 5.853149
619.8898, 5.470032
620.3719, 5.255493
620.8540, 4.964752
621.3361, 4.298386
621.8182, 3.679810
622.3004, 3.375214
622.7825, 3.394196
623.2646, 3.431580
623.7467, 3.514450
624.2288, 3.527100
624.7109, 3.377335
625.1931, 2.948685
625.6752, 2.746887
626.1573, 2.788376
626.6394, 3.018555
627.1215, 3.484161
627.6036, 4.191116
628.0858, 4.608871
628.5679, 4.606598
629.0500, 4.410934
629.5321, 4.256042
630.0142, 4.178055
630.4963, 4.302856
630.9785, 4.775650
631.4606, 5.377991
631.9427, 6.028229
632.4248, 6.671265
632.9069, 7.129135
633.3890, 7.118423
633.8712, 7.093140
634.3533, 7.286484
634.8354, 7.729401
635.3175, 8.071732
635.7996, 8.165955
636.2817, 8.309189
636.7639, 8.692932
637.2460, 9.386215
637.7281, 9.936172
638.2102, 10.31088
638.6923, 10.63162
639.1744, 11.03360
639.6566, 11.49966
640.1387, 11.95003
640.6208, 12.35521
641.1029, 12.76152
641.5850, 13.23793
642.0671, 13.75104
642.5493, 14.24315
643.0314, 14.69360
643.5135, 15.11206
643.9956, 15.55278
644.4777, 15.97432
644.9598, 16.24905
645.4420, 16.03297
645.9241, 16.00543
646.4062, 16.43509
646.8883, 17.29648
647.3704, 18.04808
647.8525, 18.70560
648.3347, 19.20967
648.8168, 19.46680
649.2989, 19.48726
649.7810, 19.55960
650.2631, 19.68652
650.7452, 19.84265
651.2274, 20.07184
651.7095, 20.29875
652.1916, 20.33078
652.6737, 20.07739
653.1558, 19.84322
653.6379, 19.81180
654.1201, 19.94377
654.6022, 20.18541
655.0843, 20.92101
655.5664, 21.30113
656.0485, 20.95189
656.5306, 20.12587
657.0128, 19.38998
657.4949, 18.72734
657.9770, 18.20219
658.4591, 17.90419
658.9412, 17.74997
659.4233, 17.30241
659.9055, 16.52336
660.3876, 15.86127
660.8697, 15.74632
661.3518, 15.89091
661.8339, 15.49321
662.3160, 14.58488
662.7982, 13.70088
663.2803, 13.31093
663.7624, 13.07600
664.2445, 12.65814
664.7266, 11.97694
665.2087, 11.32892
665.6909, 10.83884
666.1730, 10.40810
666.6551, 9.957153
667.1372, 9.496063
667.6193, 8.970520
668.1014, 8.305573
668.5836, 7.659149
669.0657, 7.296188
669.5478, 7.250244
670.0299, 7.099594
670.5120, 6.682846
670.9941, 6.255157
671.4763, 6.552429
671.9584, 7.307785
672.4405, 7.489838
672.9226, 6.018890
673.4047, 4.287094
673.8868, 3.606400
674.3690, 3.719772
674.8511, 3.682892
675.3332, 2.946915
675.8153, 2.158783
676.2974, 1.563568
676.7795, 1.174606
677.2617, 0.8815920
677.7438, 0.6847530
678.2259, 0.5774690
678.7080, 0.5966340
679.1901, 0.7570040
679.6722, 0.7257080
680.1544, 0.4685970
680.6365, 0.2069240
681.1186, 0.1748500
681.6007, 0.2930760
682.0828, 0.3432770
682.5649, 0.2823940
683.0471, 0.2277070
683.5292, 0.1907650
684.0113, 0.2526250
684.4934, 0.5408480
684.9755, 1.430847
685.4576, 2.022415
685.9398, 1.894119
686.4219, 1.386276
686.9040, 1.068176
687.3861, 1.007034
687.8682, 1.003281
688.3503, 1.014236
688.8325, 1.072098
689.3146, 1.273880
689.7967, 1.621277
690.2788, 2.041824
690.7609, 2.639069
691.2430, 3.194397
691.7252, 3.130295
692.2073, 2.607819
692.6894, 2.355057
693.1715, 3.176285
693.6536, 4.105865
694.1357, 4.387665
694.6179, 4.004684
695.1000, 3.693253
695.5821, 3.592651
696.0642, 3.676575
696.5463, 3.969452
697.0284, 4.519257
697.5106, 5.020096
697.9927, 5.480255
698.4748, 5.838409
698.9569, 5.995987
699.4390, 5.990891
699.9211, 6.101074
700.4033, 6.348816
700.8854, 6.662338
701.3675, 7.071869
701.8496, 7.493164
702.3317, 7.782440
702.8138, 7.859375
703.2960, 7.832672
703.7781, 7.530075
704.2602, 7.251343
704.7423, 7.357574
705.2244, 8.443588
705.7065, 9.206757
706.1887, 9.452454
706.6708, 9.381958
707.1529, 9.350189
707.6350, 9.361206
708.1171, 9.419830
708.5992, 9.554306
709.0814, 9.690262
709.5635, 9.643845
710.0456, 9.457367
710.5277, 9.316589
711.0098, 9.253448
711.4919, 9.287018
711.9741, 9.525391
712.4562, 9.904816
712.9383, 10.16800
713.4204, 10.25612
713.9025, 10.20490
714.3846, 9.923660
714.8668, 9.412537
715.3489, 9.157364
715.8310, 9.301376
716.3131, 9.445663
716.7952, 9.350967
717.2773, 9.037323
717.7595, 8.831177
718.2416, 8.740135
718.7237, 8.655113
719.2058, 8.518547
719.6879, 8.317566
720.1700, 7.984535
720.6522, 7.496712
721.1343, 7.125298
721.6164, 7.220352
722.0985, 7.377724
722.5806, 7.219315
723.0627, 6.399040
723.5449, 5.945404
724.0270, 6.084862
724.5091, 6.416458
724.9912, 6.634491
725.4733, 6.771278
725.9554, 6.533142
726.4376, 5.789322
726.9197, 4.976952
727.4018, 4.780289
727.8839, 5.028053
728.3660, 5.173172
728.8481, 5.034866
729.3303, 4.848312
729.8124, 4.835846
730.2945, 4.902451
730.7766, 4.904648
731.2587, 4.730179
731.7408, 4.567047
732.2230, 4.505890
732.7051, 4.467400
733.1872, 4.290146
733.6693, 3.913918
734.1514, 3.583481
734.6335, 3.367699
735.1157, 3.227203
735.5978, 3.025192
736.0799, 2.774910
736.5620, 2.632904
737.0441, 2.784286
737.5262, 2.994675
738.0084, 2.980156
738.4905, 2.792191
738.9726, 2.604416
739.4547, 2.416954
739.9368, 2.316277
740.4189, 2.458878
740.9011, 2.804939
741.3832, 2.758690
741.8653, 2.042534
742.3474, 1.428589
742.8295, 1.306099
743.3116, 1.590752
743.7938, 1.601471
744.2759, 1.330833
744.7580, 1.005920
745.2401, 0.7392350
745.7222, 0.5437700
746.2043, 0.4653930
746.6865, 0.4997710
747.1686, 0.5293200
747.6507, 0.5415190
748.1328, 0.4884720
748.6149, 0.3042760
749.0970, 5.8517002E-02
749.5792, 0.3021470
750.0613, 0.3895870
750.5434, 0.3960800
751.0255, 0.3720400
751.5076, 0.3207550
751.9897, 0.1504140
752.4719, 0.1731720
752.9540, 0.4219440
753.4361, 0.3315810
753.9182, 2.2841999E-02
754.4003, 0.2964630
754.8824, 0.5873340
755.3646, 0.7640150
755.8467, 0.7040250
756.3288, 0.5849150
756.8109, 0.5391920
757.2930, 0.6491470
757.7751, 0.6992340
758.2573, 0.6030120
758.7394, 0.5132140
759.2215, 0.6261980
759.7036, 1.004433
760.1857, 1.119835
760.6678, 0.8783800
761.1500, 0.5048680
761.6321, 0.3070680
762.1142, 0.2420040
762.5963, 0.1735990
763.0784, 5.9944000E-02
763.5605, 6.0348999E-02
764.0427, 0.1914140
764.5248, 0.2968830
765.0069, 0.3255770
765.4890, 0.1792070
765.9711, 7.9308003E-02
766.4532, 8.2069002E-02
766.9354, 0.1163940
767.4175, 3.9802998E-02
767.8996, 0.1952590
768.3817, 0.2791670
768.8638, 0.1390840
769.3459, 0.1194920
769.8281, 0.4111940
770.3102, 0.6933520
770.7923, 0.7997670
771.2744, 0.5191730
771.7565, 0.2780610
772.2386, 0.4815900
772.7208, 0.9060060
773.2029, 1.159576
773.6850, 0.9592210
774.1671, 0.8211360
774.6492, 0.8264620
775.1313, 0.9290160
775.6135, 1.035118
776.0956, 1.140892
776.5777, 1.273483
777.0598, 1.455078
777.5419, 1.642929
778.0240, 1.811653
778.5062, 1.929771
778.9883, 1.897064
779.4704, 1.476959
779.9525, 1.088608
780.4346, 0.9388730
780.9167, 1.018829
781.3989, 1.299377
781.8810, 2.255592
782.3631, 2.803322
782.8452, 2.571892
783.3273, 1.863800
783.8094, 1.582207
784.2916, 1.764633
784.7737, 2.007362
785.2558, 2.198029
785.7379, 2.335609
786.2200, 2.395844
786.7021, 2.396637
787.1843, 2.396675
787.6664, 2.486870
788.1485, 2.524422
788.6306, 2.345535
789.1127, 2.032417
789.5948, 1.912735
790.0770, 2.219521
790.5591, 2.419968
791.0412, 2.379791
791.5233, 2.145782
792.0054, 1.780151
792.4875, 1.275993
792.9697, 1.078270
793.4518, 1.600967
793.9339, 2.356140
794.4160, 2.539513
794.8981, 2.280975
795.3802, 2.014046
795.8624, 1.851501
796.3445, 1.820557
796.8266, 2.099426
797.3087, 2.568192
797.7908, 2.613579
798.2729, 1.889290
798.7551, 1.406105
799.2372, 1.559647
799.7193, 2.125191
800.2014, 2.203163
800.6835, 1.836174
801.1656, 1.614830
801.6478, 2.044708
802.1299, 2.622337
802.6120, 2.678604
803.0941, 2.369545
803.5762, 2.202278
804.0583, 2.656982
804.5405, 3.009575
805.0226, 2.942406
805.5047, 2.538368
805.9868, 2.047989
806.4689, 1.362045
806.9510, 0.9280780
807.4332, 0.9839480
807.9153, 1.352585
808.3974, 1.554497
808.8795, 1.601822
809.3616, 1.552795
809.8438, 1.433319
810.3259, 1.257469
810.8080, 0.9852220
811.2901, 0.6377490
811.7722, 0.2943570
812.2543, 0.2110670
812.7365, 0.4857410
813.2186, 0.3537450
813.7007, 8.6471997E-02
814.1828, 0.4680940
814.6649, 0.8054730
815.1470, 0.9171910
815.6292, 0.6341480
816.1113, 0.2141270
816.5934, 0.2013930
817.0755, 0.4534230
817.5576, 0.5247270
818.0397, 3.4260000E-03
818.5219, 0.4910890
819.0040, 0.6002580
819.4861, 0.4370420
819.9682, 0.3613970
820.4503, 0.5287480
820.9324, 0.5252000
821.4146, 0.1636960
821.8967, 0.3466190
822.3788, 0.4146580
822.8609, 6.1562002E-02
823.3430, 0.3488080
823.8251, 0.7440340
824.3073, 1.032799
824.7894, 1.081879
825.2715, 0.9561310
825.7536, 0.7923660
826.2357, 0.4907990
826.7178, 0.2923430
827.2000, 0.3842700
827.6821, 0.5920490
828.1642, 0.5952000
828.6463, 0.3593060
829.1284, 7.8560002E-02
829.6105, 0.2313460
830.0927, 0.5588910
830.5748, 0.8566440
831.0569, 1.123657
831.5390, 1.387360
832.0211, 1.712608
832.5032, 1.964157
832.9854, 1.957962
833.4675, 1.841049
833.9496, 1.835068
834.4317, 2.138588
834.9138, 2.337593
835.3959, 2.354012
835.8781, 2.300697
836.3602, 2.353615
836.8423, 2.510040
837.3244, 2.658310
837.8065, 2.766342
838.2886, 2.888374
838.7708, 3.060646
839.2529, 3.307091
839.7350, 3.680962
840.2171, 4.277122
840.6992, 4.815620
841.1813, 5.182503
841.6635, 5.456345
842.1456, 5.737778
842.6277, 6.065094
843.1098, 6.251930
843.5919, 6.246872
844.0740, 6.213799
844.5562, 6.324806
845.0383, 6.568214
845.5204, 6.946495
846.0025, 7.484970
846.4846, 7.979530
846.9667, 8.276108
847.4489, 8.463684
847.9310, 8.619629
848.4131, 8.752014
848.8952, 8.848404
849.3773, 8.839684
849.8594, 8.891853
850.3416, 9.154564
850.8237, 9.623245
851.3058, 10.06107
851.7879, 10.45548
852.2700, 10.91045
852.7521, 11.62086
853.2343, 12.39406
853.7164, 13.01624
854.1985, 13.45851
854.6806, 13.78979
855.1627, 13.82469
855.6448, 13.95357
856.1270, 14.43134
856.6091, 15.27017
857.0912, 15.80257
857.5733, 15.98814
858.0554, 16.06363
858.5375, 16.10072
859.0197, 16.15672
859.5018, 16.38026
859.9839, 16.75145
860.4660, 17.15546
860.9481, 17.50381
861.4302, 17.89069
861.9124, 18.44643
862.3945, 19.13195
862.8766, 19.58926
863.3587, 19.74906
863.8408, 19.81606
864.3229, 19.81260
864.8051, 19.79581
865.2872, 20.00291
865.7693, 20.38814
866.2514, 20.66769
866.7335, 20.52964
867.2156, 20.39841
867.6978, 20.65755
868.1799, 21.16730
868.6620, 21.61400
869.1441, 21.88430
869.6262, 22.13162
870.1083, 22.35057
870.5905, 22.55054
871.0726, 22.81225
871.5547, 23.14688
872.0368, 23.22490
872.5189, 22.89057
873.0010, 22.48476
873.4832, 22.29865
873.9653, 22.33704
874.4474, 22.63551
874.9295, 23.51109
875.4116, 24.10968
875.8937, 24.05847
876.3759, 23.73659
876.8580, 23.45660
877.3401, 23.18759
877.8222, 23.26574
878.3043, 23.77850
878.7864, 24.31239
879.2686, 24.34365
879.7507, 24.11319
880.2328, 24.09258
880.7149, 24.37164
881.1970, 24.62980
881.6791, 24.74809
882.1613, 24.75786
882.6434, 24.66664
883.1255, 24.46529
883.6076, 24.34529
884.0897, 24.32625
884.5718, 24.34277
885.0540, 24.30029
885.5361, 24.25477
886.0182, 24.42672
886.5003, 24.80428
886.9824, 25.22964
887.4645, 25.72796
887.9467, 26.12449
888.4288, 26.25439
888.9109, 26.13879
889.3930, 26.09997
889.8751, 26.16365
890.3572, 26.26484
890.8394, 26.38725
891.3215, 26.52911
891.8036, 26.68373
892.2857, 26.85214
892.7678, 27.05153
893.2499, 27.38663
893.7321, 27.63706
894.2142, 27.58369
894.6963, 27.34148
895.1784, 27.12932
895.6605, 26.87692
896.1426, 26.84465
896.6248, 27.15752
897.1069, 27.58140
897.5890, 27.72263
898.0711, 27.61784
898.5532, 27.65627
899.0353, 27.94856
899.5175, 28.19128
899.9996, 28.00470
900.4817, 27.64911
900.9638, 27.42941
901.4459, 27.41736
901.9280, 27.48810
902.4102, 27.70050
902.8923, 27.89328
903.3744, 27.96564
903.8565, 27.91657
904.3386, 27.69148
904.8207, 27.28448
905.3029, 26.98277
905.7850, 27.19051
906.2671, 27.51461
906.7492, 27.48639
907.2313, 27.10716
907.7134, 26.77020
908.1956, 26.57164
908.6777, 26.46535
909.1598, 26.47676
909.6419, 26.56723
910.1240, 26.59848
910.6061, 26.57578
911.0883, 26.28154
911.5704, 25.50440
912.0525, 24.55169
912.5346, 23.76237
913.0167, 23.09942
913.4988, 22.48341
913.9810, 22.09987
914.4631, 21.47620
914.9452, 20.25938
915.4273, 18.93094
915.9094, 18.28353
916.3915, 18.39680
916.8737, 18.16731
917.3558, 17.39119
917.8379, 16.47192
918.3200, 15.84192
918.8021, 15.37666
919.2842, 14.87935
919.7664, 14.29768
920.2485, 13.79284
920.7306, 13.58175
921.2127, 13.30960
921.6948, 12.71359
922.1769, 11.75182
922.6591, 11.07480
923.1412, 10.69540
923.6233, 10.44994
924.1054, 10.34041
924.5875, 10.22281
925.0696, 9.799324
925.5518, 9.138351
926.0339, 8.633110
926.5160, 8.580574
926.9981, 8.562065
927.4802, 8.429970
927.9623, 8.231407
928.4445, 8.140335
928.9266, 8.175102
929.4087, 8.058884
929.8908, 7.629143
930.3729, 7.171211
930.8550, 7.237267
931.3372, 7.514603
931.8193, 7.422623
932.3014, 6.431404
932.7835, 5.650269
933.2656, 5.488693
933.7477, 5.524193
934.2299, 5.354233
934.7120, 4.938721
935.1941, 4.764923
935.6762, 4.898361
936.1583, 5.071167
936.6404, 5.027321
937.1226, 4.864426
937.6047, 4.755646
938.0868, 4.720299
938.5689, 4.628609
939.0510, 4.469276
939.5331, 4.195152
940.0153, 3.705215
940.4974, 3.070709
940.9795, 2.799240
941.4616, 2.909554
941.9437, 3.159531
942.4258, 3.468010
942.9080, 3.768692
943.3901, 4.045341
943.8722, 4.248093
944.3543, 4.284279
944.8364, 3.979630
945.3185, 3.726250
945.8007, 3.638794
946.2828, 3.635231
946.7649, 3.536507
947.2470, 3.300827
947.7291, 3.097229
948.2112, 2.976509
948.6934, 2.961052
949.1755, 3.137772
949.6576, 3.343201
950.1397, 3.372597
950.6218, 3.152077
951.1039, 3.121880
951.5861, 3.566414
952.0682, 3.851685
952.5503, 3.481247
953.0324, 1.549088
953.5145, 2.480186
953.9966, 3.012527
954.4788, 3.184258
954.9609, 1.863319
955.4430, 2.476532
955.9251, 2.296349
956.4072, 2.092674
956.8893, 2.985237
957.3715, 1.849419
957.8536, 2.700523
958.3357, 2.756401
958.8178, 3.176361
959.2999, 2.808189
959.7820, 2.683502
960.2642, 3.347374
960.7463, 3.048874
961.2284, 2.921272
961.7105, 2.411415
962.1926, 1.879944
962.6747, 1.680916
963.1569, 1.931450
963.6390, 2.053925
964.1211, 2.006241
964.6032, 1.945290
965.0853, 1.985085
965.5674, 2.083420
966.0496, 2.154472
966.5317, 2.184067
967.0138, 2.099083
967.4959, 1.675522
967.9780, 1.325562
968.4601, 1.352028
968.9423, 1.581894
969.4244, 1.618286
969.9065, 1.415764
970.3886, 1.209549
970.8707, 1.034645
971.3528, 0.8760150
971.8350, 0.6907960
972.3171, 0.5097430
972.7992, 0.3859940
973.2813, 0.3352200
973.7634, 0.3032230
974.2455, 0.3213040
974.7277, 0.3003540
975.2098, 0.1487730
975.6919, 0.1378480
976.1740, 0.2130890
976.6561, 7.2623998E-02
977.1382, 0.1791000
977.6204, 0.6320190
978.1025, 1.051201
978.5846, 1.114418
979.0667, 0.9063870
979.5488, 0.6800540
980.0309, 0.4815520
980.5131, 0.3134460
980.9952, 0.1578600
981.4773, 4.9575999E-02
981.9594, 7.0992000E-02
982.4415, 0.2056120
982.9236, 0.3088300
983.4058, 0.3457180
983.8879, 0.4080350
984.3700, 0.7034530
984.8521, 0.9765550
985.3342, 0.9455570
985.8163, 0.4870610
986.2985, 0.1744690
986.7806, 1.4626000E-02
987.2627, 4.8679998E-03
987.7448, 0.2216490
988.2269, 0.5560000
988.7090, 0.6153870
989.1912, 0.4726030
989.6733, 0.4273450
990.1554, 0.8134160
990.6375, 1.135262
991.1196, 1.172775
991.6017, 0.9826810
992.0839, 0.6267620
992.5660, 1.5671000E-02
993.0481, 0.3597870
993.5302, 0.4327390
994.0123, 0.3160100
994.4944, 2.9655000E-02
994.9766, 0.4029540
995.4587, 0.4279940
995.9408, 3.1493999E-02
996.4229, 0.2655490
996.9050, 0.2068020
997.3871, 9.5794998E-02
997.8693, 8.0800001E-03
998.3514, 2.6389999E-02
998.8335, 0.2552190
999.3156, 0.8267590
999.7977, 1.260391
1000.280, 1.332497
1000.762, 1.220886
1001.244, 0.9768830
1001.726, 0.6897740
1002.208, 0.5090260
1002.690, 0.4052580
1003.173, 0.5578080
1003.655, 1.135567
1004.137, 1.636848
1004.619, 1.376762
1005.101, 0.6086120
1005.583, 0.2641980
1006.065, 0.3823620
1006.547, 0.5118410
1007.029, 0.3666610
1007.512, 0.1752470
1007.994, 8.1115998E-02
1008.476, 5.9997998E-02
1008.958, 1.0070000E-03
1009.440, 8.7654002E-02
1009.922, 0.2959590
1010.404, 0.7471690
1010.886, 1.121147
1011.369, 0.7824940
1011.851, 0.1114880
1012.333, 0.2249680
1012.815, 0.1195910
1013.297, 0.3616870
1013.779, 0.1624980
1014.261, 6.5825999E-02
1014.743, 0.5526350
1015.225, 1.581467
1015.708, 2.287369
1016.190, 2.672104
1016.672, 2.750290
1017.154, 2.293015
1017.636, 1.753105
1018.118, 1.362968
1018.600, 1.158226
1019.082, 1.231529
1019.565, 1.724693
1020.047, 2.089485
1020.529, 2.200333
1021.011, 2.246117
1021.493, 2.561577
1021.975, 2.991112
1022.457, 3.198151
1022.939, 3.111069
1023.421, 2.935875
1023.904, 2.676857
1024.386, 2.432693
1024.868, 2.215187
1025.350, 2.041832
1025.832, 2.111649
1026.314, 2.422897
1026.796, 2.759460
1027.278, 3.069344
1027.760, 3.299736
1028.243, 3.332397
1028.725, 3.271103
1029.207, 3.290535
1029.689, 3.561401
1030.171, 3.666718
1030.653, 3.543816
1031.135, 3.376022
1031.617, 3.335381
1032.100, 3.395592
1032.582, 3.506905
1033.064, 3.656380
1033.546, 3.739731
1034.028, 3.583603
1034.510, 3.477005
1034.992, 3.579018
1035.474, 3.826088
1035.957, 4.067741
1036.439, 4.310944
1036.921, 4.456123
1037.403, 4.458237
1037.885, 4.435120
1038.367, 4.594513
1038.849, 4.769371
1039.331, 4.690422
1039.813, 4.172379
1040.296, 4.046623
1040.778, 4.587677
1041.260, 5.041763
1041.742, 4.905685
1042.224, 4.393021
1042.706, 4.246429
1043.188, 4.387344
1043.670, 4.502144
1044.152, 4.416298
1044.635, 4.300484
1045.117, 4.164726
1045.599, 4.070618
1046.081, 4.124146
1046.563, 4.358681
1047.045, 4.440903
1047.527, 4.335548
1048.009, 4.262566
1048.492, 4.518509
1048.974, 4.840309
1049.456, 4.961716
1049.938, 4.875023
1050.420, 4.685013
1050.902, 4.270203
1051.384, 4.004242
1051.866, 4.010925
1052.349, 4.194099
1052.831, 4.436661
1053.313, 4.662186
1053.795, 4.599106
1054.277, 4.058014
1054.759, 3.707161
1055.241, 4.083305
1055.723, 4.549103
1056.205, 4.684639
1056.688, 4.477127
1057.170, 4.154648
1057.652, 3.726181
1058.134, 3.561630
1058.616, 4.137627
1059.098, 4.764748
1059.580, 4.697777
1060.062, 4.235031
1060.544, 3.947456
1061.027, 3.999840
1061.509, 3.983223
1061.991, 3.876968
1062.473, 3.785255
1062.955, 3.823357
1063.437, 3.908669
1063.919, 3.914253
1064.401, 3.832275
1064.884, 3.654388
1065.366, 3.178688
1065.848, 2.834663
1066.330, 2.788994
1066.812, 2.926064
1067.294, 3.004204
1067.776, 3.033134
1068.258, 3.065277
1068.740, 3.104996
1069.223, 3.141319
1069.705, 3.159668
1070.187, 3.137604
1070.669, 3.100967
1071.151, 3.041374
1071.633, 2.928108
1072.115, 2.729065
1072.597, 2.627701
1073.079, 1.542252
1073.562, 2.961731
1074.044, 3.781158
1074.526, 4.029831
1075.008, 2.006065
1075.490, 2.916573
1075.972, 2.655968
1076.454, 2.342346
1076.936, 3.660439
1077.419, 1.964127
1077.901, 3.258575
1078.383, 3.361786
1078.865, 4.010902
1079.347, 3.476913
1079.829, 3.307732
1080.311, 4.320969
1080.793, 3.611931
1081.275, 3.806679
1081.758, 3.719460
1082.240, 3.326523
1082.722, 3.122383
1083.204, 3.187889
1083.686, 3.229706
1084.168, 2.819893
1084.650, 2.384094
1085.132, 2.381340
1085.615, 2.825958
1086.097, 3.115425
1086.579, 3.211876
1087.061, 3.222900
1087.543, 3.171616
1088.025, 3.072006
1088.507, 2.926140
1088.989, 2.756096
1089.471, 2.599373
1089.953, 2.464035
1090.436, 2.343582
1090.918, 2.172531
1091.400, 2.105858
1091.882, 2.272179
1092.364, 2.598541
1092.846, 2.774353
1093.328, 2.808762
1093.810, 2.748581
1094.293, 2.513680
1094.775, 2.322464
1095.257, 2.274857
1095.739, 2.321770
1096.221, 2.432564
1096.703, 2.627083
1097.185, 2.747093
1097.667, 2.789040
1098.150, 2.744110
1098.632, 2.469322
1099.114, 2.222206
1099.596, 2.344826
1100.078, 2.681404
1100.560, 2.683640
1101.042, 2.150787
1101.524, 1.806114
1102.006, 1.747757
1102.489, 1.871819
1102.971, 2.234230
1103.453, 2.610435
1103.935, 2.589401
1104.417, 2.150093
1104.899, 1.787453
1105.381, 1.631638
1105.863, 1.551987
1106.345, 1.524155
1106.828, 1.548553
1107.310, 1.696861
1107.792, 1.896271
1108.274, 1.884262
1108.756, 1.540596
1109.238, 1.267097
1109.720, 1.405937
1110.202, 1.522476
1110.685, 1.326851
1111.167, 0.8821490
1111.649, 0.7161870
1112.131, 0.7987060
1112.613, 0.8137590
1113.095, 0.5327840
1113.577, 0.3098370
1114.059, 0.5260470
1114.542, 0.8690410
1115.024, 0.9546360
1115.506, 0.7104800
1115.988, 0.5164720
1116.470, 0.3667530
1116.952, 0.3239670
1117.434, 0.5348210
1117.916, 0.7891160
1118.398, 0.8441770
1118.880, 0.7634430
1119.363, 0.6969990
1119.845, 0.5795210
1120.327, 0.7224120
1120.809, 1.258934
1121.291, 1.691055
1121.773, 1.315247
1122.255, 0.5891110
1122.737, 0.3608320
1123.220, 0.5992740
1123.702, 0.7771530
1124.184, 0.7468800
1124.666, 0.5770340
1125.148, 0.2127460
1125.630, 0.1871110
1126.112, 0.4166030
1126.594, 0.4673390
1127.077, 0.2018890
1127.559, 0.4181670
1128.041, 0.7938540
1128.523, 0.2998430
1129.005, 0.1216810
1129.487, 2.5673000E-02
1129.969, 0.5057300
1130.451, 0.4970630
1130.933, 8.3365999E-02
1131.416, 2.5764000E-02
1131.898, 0.4595720
1132.380, 0.8418810
1132.862, 0.3237000
1133.344, 0.2162550
1133.826, 7.0816003E-02
1134.308, 1.115067
1134.790, 1.386627
1135.272, 0.8654020
1135.755, 0.4148030
1136.237, 0.4142000
1136.719, 0.5710530
1137.201, 0.6295090
1137.683, 0.6765440
1138.165, 0.8642960
1138.647, 1.294144
1139.129, 1.415321
1139.612, 1.197113
1140.094, 0.8838270
1140.576, 0.5053710
1141.058, 0.2246860
1141.540, 0.3792650
1142.022, 0.7699810
1142.504, 0.9678500
1142.986, 0.7312770
1143.469, 0.5996930
1143.951, 0.5933910
1144.433, 0.6683040
1144.915, 0.7986300
1145.397, 0.9792400
1145.879, 1.234238
1146.361, 1.535629
1146.843, 1.778702
1147.325, 1.968422
1147.807, 2.042053
1148.290, 1.966209
1148.772, 1.821938
1149.254, 1.713989
1149.736, 1.615601
1150.218, 1.395721
1150.700, 1.066437
1151.182, 0.8950350
1151.664, 0.9365390
1152.147, 1.282967
1152.629, 2.169243
1153.111, 3.121895
1153.593, 3.097839
1154.075, 2.336601
1154.557, 1.780312
1155.039, 1.571136
1155.521, 1.629028
1156.004, 2.270248
1156.486, 2.765297
1156.968, 2.716110
1157.450, 2.315277
1157.932, 2.155830
1158.414, 2.206863
1158.896, 2.216431
1159.378, 2.084045
1159.860, 2.095474
1160.343, 2.667786
1160.825, 3.242188
1161.307, 3.385796
1161.789, 3.171959
1162.271, 3.213371
1162.753, 3.491913
1163.235, 3.571190
1163.717, 3.195984
1164.199, 2.813240
1164.682, 2.781769
1165.164, 2.953918
1165.646, 3.246544
1166.128, 3.639526
1166.610, 3.757629
1167.092, 3.590691
1167.574, 3.411125
1168.056, 3.328270
1168.539, 3.366966
1169.021, 3.571190
1169.503, 3.786888
1169.985, 3.868896
1170.467, 3.823479
1170.949, 3.677414
1171.431, 3.432907
1171.913, 3.290833
1172.396, 3.333397
1172.878, 3.369408
1173.360, 3.332191
1173.842, 3.285049
1174.324, 3.306931
1174.806, 3.418076
1175.288, 3.634338
1175.770, 3.980476
1176.252, 4.158035
1176.734, 3.710526
1177.217, 3.184044
1177.699, 3.319252
1178.181, 3.875816
1178.663, 4.144478
1179.145, 3.783966
1179.627, 3.727341
1180.109, 4.114433
1180.591, 4.595558
1181.074, 4.834183
1181.556, 4.885658
1182.038, 4.909157
1182.520, 4.889381
1183.002, 4.671227
1183.484, 4.016396
1183.966, 3.662766
1184.448, 3.739929
1184.931, 3.989357
1185.413, 4.181557
1185.895, 4.305946
1186.377, 4.387779
1186.859, 4.428894
1187.341, 4.321213
1187.823, 3.868935
1188.305, 3.588463
1188.787, 3.628822
1189.270, 3.761154
1189.752, 3.615440
1190.234, 3.374619
1190.716, 3.421852
1191.198, 3.778641
1191.680, 3.931381
1192.162, 3.652542
1192.644, 3.388779
1193.126, 3.212128
1193.609, 3.143715
1194.091, 3.345261
1194.573, 3.636955
1195.055, 3.627472
1195.537, 3.242119
1196.019, 3.002419
1196.501, 3.121246
1196.983, 3.211533
1197.466, 3.152763
1197.948, 3.010208
1198.430, 2.897301
1198.912, 2.797798
1199.394, 2.653488
1199.876, 2.429695
1200.358, 2.360619
1200.840, 2.614372
1201.323, 2.793175
1201.805, 2.753433
1202.287, 2.561363
1202.769, 2.209587
1203.251, 1.840439
1203.733, 1.820030
1204.215, 2.358917
1204.697, 2.639076
1205.179, 2.398102
1205.661, 2.141174
1206.144, 2.106972
1206.626, 2.181870
1207.108, 2.114784
1207.590, 1.946136
1208.072, 1.747917
1208.554, 1.499100
1209.036, 1.367271
1209.518, 1.446693
1210.001, 1.478676
1210.483, 1.270653
1210.965, 0.9865720
1211.447, 1.060112
1211.929, 1.348038
1212.411, 1.554863
1212.893, 1.555901
1213.375, 1.582764
1213.858, 1.704857
1214.340, 1.769592
1214.822, 1.674797
1215.304, 1.476120
1215.786, 1.268776
1216.268, 1.077499
1216.750, 0.9471820
1217.232, 0.8628160
1217.714, 0.9332810
1218.197, 1.257866
1218.679, 1.533310
1219.161, 1.552155
1219.643, 1.394730
1220.125, 1.164719
1220.607, 0.9229740
1221.089, 0.8205640
1221.571, 1.154213
1222.053, 1.086807
1222.536, 0.4108660
1223.018, 0.2124560
1223.500, 0.2927700
1223.982, 5.0522000E-02
1224.464, 0.2281490
1224.946, 0.4563370
1225.428, 0.4347840
1225.910, 0.3273090
1226.393, 0.5467000
1226.875, 5.9974998E-02
1227.357, 0.5099260
1227.839, 0.8487780
1228.321, 0.8849490
1228.803, 0.1584630
1229.285, 0.9045940
1229.767, 1.294991
1230.250, 0.1871570
1230.732, 0.4123460
1231.214, 0.4115830
1231.696, 0.1821290
1232.178, 0.1293260
1232.660, 0.4003300
1233.142, 0.3645780
1233.624, 0.1675950
1234.106, 0.1801680
1234.589, 0.6319960
1235.071, 0.8277280
1235.553, 0.7286530
1236.035, 0.4701460
1236.517, 3.2860000E-02
1236.999, 0.4713210
1237.481, 0.3334500
1237.963, 0.1203380
1238.445, 0.2612840
1238.928, 9.3758002E-02
1239.410, 0.2407530
1239.892, 0.1468580
1240.374, 3.8750000E-02
1240.856, 0.2990040
1241.338, 0.5123830
1241.820, 0.5442660
1242.302, 0.4398650
1242.785, 0.2927170
1243.267, 6.5284997E-02
1243.749, 2.1515001E-02
1244.231, 0.1788410
1244.713, 0.3111500
1245.195, 0.2107930
1245.677, 6.4696997E-02
1246.159, 3.7331000E-02
1246.641, 6.2027000E-02
1247.124, 0.2243650
1247.606, 0.4578550
1248.088, 0.6939620
1248.570, 0.9140170
1249.052, 1.025574
1249.534, 0.7771150
1250.016, 0.6080170
1250.498, 0.8665770
1250.980, 1.327957
1251.463, 1.758331
1251.945, 2.152481
1252.427, 2.249435
1252.909, 2.071091
1253.391, 1.928879
1253.873, 1.957397
1254.355, 2.145020
1254.837, 2.598099
1255.320, 3.081787
1255.802, 3.324051
1256.284, 3.346451
1256.766, 3.222580
1257.248, 3.007462
1257.730, 3.027283
1258.212, 3.835556
1258.694, 4.412903
1259.177, 4.428574
1259.659, 4.217804
1260.141, 4.089127
1260.623, 4.024185
1261.105, 3.888840
1261.587, 3.751343
1262.069, 3.903732
1262.551, 4.926453
1263.033, 5.536987
1263.516, 5.371384
1263.998, 5.004547
1264.480, 5.130203
1264.962, 5.401459
1265.444, 5.290359
1265.926, 5.059723
1266.408, 4.965698
1266.890, 4.837494
1267.372, 5.204544
1267.855, 5.999832
1268.337, 6.596878
1268.819, 6.483017
1269.301, 6.115463
1269.783, 6.159286
1270.265, 6.644363
1270.747, 7.080688
1271.229, 7.293488
1271.712, 7.169388
1272.194, 6.547623
1272.676, 5.887161
1273.158, 5.732559
1273.640, 5.872787
1274.122, 5.995316
1274.604, 6.087936
1275.086, 6.374100
1275.568, 6.931427
1276.051, 6.989990
1276.533, 6.518738
1277.015, 6.028824
1277.497, 5.880173
1277.979, 5.915131
1278.461, 6.138504
1278.943, 6.376038
1279.425, 6.399628
1279.907, 6.231125
1280.390, 6.390793
1280.872, 6.827499
1281.354, 7.134857
1281.836, 6.904572
1282.318, 6.669510
1282.800, 6.561111
1283.282, 6.601639
1283.764, 6.875046
1284.247, 7.302338
1284.729, 7.533752
1285.211, 7.619705
1285.693, 7.831284
1286.175, 8.622818
1286.657, 8.980438
1287.139, 8.727737
1287.621, 8.211044
1288.104, 7.523270
1288.586, 6.862015
1289.068, 6.692825
1289.550, 6.878479
1290.032, 7.104813
1290.514, 7.348312
1290.996, 7.551636
1291.478, 7.769547
1291.960, 7.725586
1292.443, 7.043472
1292.925, 6.231094
1293.407, 5.941422
1293.889, 5.940643
1294.371, 5.837006
1294.853, 5.562576
1295.335, 5.510178
1295.817, 5.693558
1296.299, 5.640137
1296.782, 4.946518
1297.264, 4.183823
1297.746, 3.727890
1298.228, 3.479126
1298.710, 3.400192
1299.192, 3.470810
1299.674, 3.134735
1300.156, 2.464447
1300.639, 1.921509
1301.121, 1.836960
1301.603, 1.619263
1302.085, 0.7265630
1302.567, 2.6733000E-02
1303.049, 3.7627999E-02
1303.531, 0.0000000E+00
##END=



