##NAMES=Gadolinite-(Y)
##RRUFFID=R080129
##IDEAL CHEMISTRY=Fe^2+^Be_2_Y^3+^_2_(SiO_4_)_2_O_2_
##LOCALITY=Ytterøya mine, Røvika, Ytterøya (island), Levanger, Nord-Trøndelag, Norway
##OWNER=RRUFF
##SOURCE=Michael Scott
##DESCRIPTION=Reddish-brown fragment from metamict sample R070340, after heating at T = 1000 C for 23 hours
##STATUS=The identification of this mineral has been confirmed only by X-ray diffraction
##URL=rruff.info/R080129
148.2624, 0.0000000E+00
148.7445, 0.3997190
149.2267, 0.1320190
149.7088, 0.2549440
150.1909, 1.776062
150.6730, 3.605469
151.1551, 5.363770
151.6372, 6.946777
152.1194, 8.330322
152.6015, 9.493164
153.0836, 10.20239
153.5657, 11.24579
154.0478, 12.82117
154.5299, 14.60950
155.0121, 16.25427
155.4942, 17.64667
155.9763, 18.99915
156.4584, 20.75061
156.9405, 22.98450
157.4226, 24.83716
157.9048, 25.85333
158.3869, 26.30951
158.8690, 26.81555
159.3511, 27.52759
159.8332, 28.37451
160.3153, 29.36340
160.7975, 30.51068
161.2796, 31.45721
161.7617, 31.94159
162.2438, 32.00488
162.7259, 31.90137
163.2081, 31.34912
163.6902, 30.95703
164.1723, 31.38074
164.6544, 32.68842
165.1365, 33.93365
165.6186, 34.02643
166.1008, 32.90924
166.5829, 31.90582
167.0650, 31.34601
167.5471, 30.74402
168.0292, 29.65198
168.5113, 28.15814
168.9935, 26.65778
169.4756, 25.71436
169.9577, 25.82092
170.4398, 25.42987
170.9219, 24.13306
171.4040, 22.56152
171.8862, 21.24042
172.3683, 20.36169
172.8504, 19.73993
173.3325, 18.94513
173.8146, 17.71460
174.2967, 16.60095
174.7789, 15.72809
175.2610, 14.97150
175.7431, 14.18378
176.2252, 13.29633
176.7073, 12.31500
177.1894, 11.26294
177.6716, 9.987854
178.1537, 8.812683
178.6358, 7.830505
179.1179, 6.985657
179.6000, 6.185791
180.0821, 5.382141
180.5643, 4.595886
181.0464, 3.896057
181.5285, 3.396545
182.0106, 2.824219
182.4927, 1.915649
182.9748, 0.7717900
183.4570, 0.1432500
183.9391, 0.5529790
184.4212, 0.5960080
184.9033, 0.6838990
185.3854, 0.8916630
185.8675, 1.027832
186.3497, 0.9102780
186.8318, 0.5333250
187.3139, 9.4971001E-02
187.7960, 0.4267580
188.2781, 0.9158330
188.7602, 1.215820
189.2424, 1.272400
189.7245, 1.201721
190.2066, 1.049805
190.6887, 0.6939700
191.1708, 0.7290040
191.6530, 1.840820
192.1351, 3.204163
192.6172, 4.029419
193.0993, 3.957092
193.5814, 3.501953
194.0635, 3.704285
194.5457, 4.886169
195.0278, 6.111694
195.5099, 7.390747
195.9920, 8.508484
196.4741, 9.129517
196.9562, 9.074707
197.4384, 8.696228
197.9205, 9.052185
198.4026, 10.71716
198.8847, 12.39648
199.3668, 14.02301
199.8489, 15.59222
200.3311, 17.12042
200.8132, 18.34821
201.2953, 19.70966
201.7774, 21.76935
202.2595, 25.01141
202.7416, 28.58691
203.2238, 32.15924
203.7059, 35.67133
204.1880, 39.21387
204.6701, 42.78937
205.1522, 46.16559
205.6343, 48.68732
206.1165, 50.06842
206.5986, 51.47986
207.0807, 52.99689
207.5628, 54.64343
208.0449, 56.53870
208.5270, 58.82123
209.0092, 61.34973
209.4913, 63.21021
209.9734, 63.37225
210.4555, 64.21149
210.9376, 67.33844
211.4197, 71.91522
211.9019, 75.57208
212.3840, 76.83624
212.8661, 76.56140
213.3482, 77.26636
213.8303, 79.33020
214.3124, 81.63867
214.7946, 83.36578
215.2767, 84.69543
215.7588, 86.58789
216.2409, 89.77661
216.7230, 93.60223
217.2052, 96.81793
217.6873, 99.10352
218.1694, 101.3792
218.6515, 104.3328
219.1336, 107.9675
219.6157, 111.8151
220.0979, 115.8315
220.5800, 119.9480
221.0621, 124.3033
221.5442, 129.1115
222.0263, 133.3505
222.5084, 136.1312
222.9906, 137.4547
223.4727, 137.4850
223.9548, 136.3849
224.4369, 133.7631
224.9190, 128.6850
225.4011, 120.8469
225.8833, 112.3771
226.3654, 105.8213
226.8475, 101.5852
227.3296, 97.38684
227.8117, 92.16821
228.2938, 87.22168
228.7760, 83.60986
229.2581, 81.49316
229.7402, 79.93933
230.2223, 77.58350
230.7044, 73.93762
231.1865, 71.06982
231.6687, 70.09192
232.1508, 69.27795
232.6329, 67.47107
233.1150, 64.50281
233.5971, 61.12415
234.0792, 58.52222
234.5614, 57.44446
235.0435, 55.25610
235.5256, 50.91504
236.0077, 46.34241
236.4898, 42.78015
236.9719, 40.41248
237.4541, 38.52930
237.9362, 36.11548
238.4183, 32.68250
238.9004, 29.95203
239.3825, 28.30225
239.8646, 26.93213
240.3468, 25.44080
240.8289, 23.72034
241.3110, 21.75305
241.7931, 19.49719
242.2752, 16.74207
242.7573, 14.40271
243.2395, 12.28613
243.7216, 10.63135
244.2037, 9.866089
244.6858, 9.917969
245.1679, 10.09778
245.6501, 9.628296
246.1322, 8.296631
246.6143, 7.009766
247.0964, 5.285156
247.5785, 3.954590
248.0606, 3.828857
248.5428, 4.838867
249.0249, 6.100464
249.5070, 6.876221
249.9891, 7.139160
250.4712, 6.428711
250.9533, 3.711426
251.4355, 0.8956300
251.9176, 0.5749510
252.3997, 0.7166750
252.8818, 0.6845700
253.3639, 1.454468
253.8460, 3.052612
254.3282, 4.414307
254.8103, 5.289673
255.2924, 6.129150
255.7745, 7.433594
256.2566, 9.136353
256.7387, 10.50964
257.2209, 10.98413
257.7030, 10.62183
258.1851, 10.28577
258.6672, 10.03088
259.1493, 9.774292
259.6314, 9.532959
260.1136, 9.289551
260.5957, 8.862061
261.0778, 8.118408
261.5599, 7.089478
262.0420, 5.912842
262.5241, 4.256470
263.0063, 2.852783
263.4884, 2.446167
263.9705, 2.912231
264.4526, 3.167847
264.9347, 2.860352
265.4168, 1.876465
265.8990, 0.1628420
266.3811, 2.638550
266.8632, 5.468628
267.3453, 7.483276
267.8274, 8.785034
268.3095, 10.16345
268.7917, 11.64978
269.2738, 13.62000
269.7559, 16.48511
270.2380, 20.37219
270.7201, 24.52820
271.2022, 28.78516
271.6844, 33.02209
272.1665, 36.36230
272.6486, 38.05725
273.1307, 39.29041
273.6128, 41.16772
274.0949, 43.71313
274.5771, 46.69458
275.0592, 49.79138
275.5413, 53.14319
276.0234, 57.62451
276.5055, 64.18384
276.9876, 70.86450
277.4698, 75.99133
277.9519, 79.82776
278.4340, 83.77625
278.9161, 88.66541
279.3982, 94.35474
279.8803, 100.4336
280.3625, 107.0768
280.8446, 113.7487
281.3267, 120.0959
281.8088, 126.1777
282.2909, 132.1871
282.7730, 137.9449
283.2552, 143.6865
283.7373, 150.4028
284.2194, 158.9067
284.7015, 166.8164
285.1836, 172.7307
285.6658, 177.5328
286.1479, 182.6598
286.6300, 189.0735
287.1121, 195.8501
287.5942, 200.8286
288.0764, 203.6219
288.5585, 205.4312
289.0406, 206.7925
289.5227, 207.4785
290.0048, 207.0858
290.4869, 205.4059
290.9691, 202.9000
291.4512, 200.3663
291.9333, 197.9387
292.4154, 195.0781
292.8975, 191.1128
293.3796, 187.0026
293.8618, 183.4984
294.3439, 180.7908
294.8260, 178.5192
295.3081, 176.3599
295.7902, 174.4340
296.2723, 172.0511
296.7545, 168.0750
297.2366, 164.3260
297.7187, 162.1305
298.2008, 161.4734
298.6829, 161.0707
299.1650, 159.5066
299.6472, 156.6224
300.1293, 154.0017
300.6114, 151.8232
301.0935, 149.8502
301.5756, 147.9976
302.0577, 146.2626
302.5399, 144.6887
303.0220, 143.4816
303.5041, 142.5981
303.9862, 141.0135
304.4683, 137.9838
304.9504, 135.1038
305.4326, 132.9233
305.9147, 131.3188
306.3968, 130.0514
306.8789, 129.0726
307.3610, 128.2788
307.8431, 127.1628
308.3253, 125.4779
308.8074, 123.8669
309.2895, 122.5134
309.7716, 121.2397
310.2537, 119.9078
310.7358, 118.4242
311.2180, 116.8446
311.7001, 115.3497
312.1822, 114.0387
312.6643, 112.6383
313.1464, 111.1832
313.6285, 109.5314
314.1107, 107.4825
314.5928, 105.0179
315.0749, 102.4447
315.5570, 100.1854
316.0391, 98.29382
316.5212, 96.49573
317.0034, 94.67065
317.4855, 92.99915
317.9676, 91.89087
318.4497, 91.21985
318.9318, 90.20959
319.4139, 87.72754
319.8961, 83.52832
320.3782, 80.48083
320.8603, 79.39380
321.3424, 78.72998
321.8245, 78.23633
322.3066, 77.70435
322.7888, 76.74890
323.2709, 74.98254
323.7530, 72.56348
324.2351, 70.43811
324.7172, 68.27368
325.1993, 66.93689
325.6815, 67.32532
326.1636, 68.43103
326.6457, 68.79736
327.1278, 67.60352
327.6099, 65.52502
328.0920, 64.16418
328.5742, 63.65063
329.0563, 63.61621
329.5384, 64.39258
330.0205, 65.31042
330.5026, 65.67090
330.9847, 65.28235
331.4669, 64.77734
331.9490, 65.17224
332.4311, 66.76758
332.9132, 67.95215
333.3953, 68.14795
333.8774, 68.12610
334.3596, 68.04846
334.8417, 68.04517
335.3238, 68.49817
335.8059, 69.97449
336.2880, 72.50208
336.7701, 74.62402
337.2523, 75.79309
337.7344, 77.13965
338.2165, 79.29260
338.6986, 82.01270
339.1807, 84.76526
339.6628, 87.31006
340.1450, 89.60925
340.6271, 91.43762
341.1092, 92.37341
341.5913, 93.64954
342.0735, 96.29993
342.5556, 99.32288
343.0377, 101.4200
343.5198, 101.9785
344.0019, 101.8313
344.4840, 102.3026
344.9662, 103.5320
345.4483, 104.7860
345.9304, 105.9442
346.4125, 106.9908
346.8946, 107.9767
347.3767, 108.9161
347.8589, 109.5216
348.3410, 109.4155
348.8231, 108.6130
349.3052, 107.7767
349.7873, 107.0726
350.2694, 106.2379
350.7516, 105.0526
351.2337, 103.5736
351.7158, 102.0779
352.1979, 100.6265
352.6800, 99.27173
353.1621, 98.26196
353.6443, 97.76575
354.1264, 97.24268
354.6085, 96.42200
355.0906, 95.37073
355.5727, 94.17163
356.0548, 92.91687
356.5370, 91.46436
357.0191, 89.36316
357.5012, 86.51331
357.9833, 84.29065
358.4654, 83.83435
358.9475, 84.00024
359.4297, 83.30750
359.9118, 81.43384
360.3939, 79.64050
360.8760, 78.95837
361.3581, 79.19971
361.8402, 79.51111
362.3224, 79.95471
362.8045, 79.96863
363.2866, 78.54163
363.7687, 75.86304
364.2508, 73.93347
364.7329, 74.07019
365.2151, 75.27893
365.6972, 75.88013
366.1793, 75.66711
366.6614, 75.26660
367.1435, 75.11523
367.6256, 75.15088
368.1078, 75.17822
368.5899, 75.36829
369.0720, 75.38928
369.5541, 74.71252
370.0362, 73.55066
370.5183, 73.05383
371.0005, 73.99329
371.4826, 75.72083
371.9647, 76.71497
372.4468, 76.67480
372.9289, 76.68079
373.4110, 77.21667
373.8932, 78.06482
374.3753, 78.75098
374.8574, 79.09839
375.3395, 79.54712
375.8216, 80.78760
376.3037, 82.93433
376.7859, 84.61462
377.2680, 85.23413
377.7501, 85.66467
378.2322, 86.79382
378.7143, 88.57654
379.1964, 90.06555
379.6786, 90.42334
380.1607, 89.81067
380.6428, 90.11584
381.1249, 92.00647
381.6070, 93.90198
382.0891, 95.21021
382.5713, 96.14099
383.0534, 97.08008
383.5355, 98.20496
384.0176, 99.44727
384.4997, 100.6288
384.9818, 101.3940
385.4640, 102.7405
385.9461, 105.6637
386.4282, 108.5393
386.9103, 109.7421
387.3924, 109.1699
387.8745, 108.0999
388.3567, 107.9742
388.8388, 109.0051
389.3209, 109.5096
389.8030, 109.0486
390.2851, 108.6042
390.7672, 108.6534
391.2494, 108.9980
391.7315, 109.1331
392.2136, 108.7299
392.6957, 108.0198
393.1778, 107.9174
393.6599, 108.9192
394.1421, 109.8546
394.6242, 110.7721
395.1063, 111.4902
395.5884, 111.6385
396.0706, 111.2114
396.5527, 110.8083
397.0348, 111.4396
397.5169, 113.6222
397.9990, 114.7321
398.4811, 113.8921
398.9633, 112.7213
399.4454, 111.8459
399.9275, 111.1665
400.4096, 110.2705
400.8917, 108.8546
401.3738, 107.0206
401.8560, 105.1738
402.3381, 103.2313
402.8202, 101.4647
403.3023, 100.3691
403.7844, 99.28381
404.2665, 97.55225
404.7487, 94.98706
405.2308, 91.75769
405.7129, 87.79431
406.1950, 83.00183
406.6771, 78.89319
407.1592, 76.31873
407.6414, 73.94495
408.1235, 70.83313
408.6056, 67.05139
409.0877, 63.08826
409.5698, 59.05908
410.0519, 55.08459
410.5341, 51.39099
411.0162, 47.96826
411.4983, 44.93115
411.9804, 42.64490
412.4625, 40.73535
412.9446, 38.64453
413.4268, 36.32849
413.9089, 33.72900
414.3910, 30.51331
414.8731, 26.87720
415.3552, 23.83472
415.8373, 21.83496
416.3195, 20.35950
416.8016, 18.56970
417.2837, 16.40759
417.7658, 14.71423
418.2479, 14.22205
418.7300, 14.04956
419.2122, 13.03552
419.6943, 11.09595
420.1764, 9.124756
420.6585, 7.779053
421.1406, 7.048828
421.6227, 6.615967
422.1049, 6.750610
422.5870, 6.838379
423.0691, 6.636719
423.5512, 6.217529
424.0333, 5.726440
424.5154, 5.225708
424.9976, 4.648438
425.4797, 3.877197
425.9618, 2.886230
426.4439, 1.736572
426.9260, 0.3131100
427.4081, 1.164673
427.8903, 2.651489
428.3724, 4.067139
428.8545, 5.197876
429.3366, 5.845947
429.8187, 6.030029
430.3008, 6.224854
430.7830, 6.290283
431.2651, 6.513184
431.7472, 7.177124
432.2293, 7.929077
432.7114, 8.292725
433.1935, 8.104248
433.6757, 7.669678
434.1578, 7.548584
434.6399, 7.955200
435.1220, 7.965454
435.6041, 6.855957
436.0862, 5.925537
436.5684, 5.980347
437.0505, 6.823120
437.5326, 7.660645
438.0147, 7.925903
438.4968, 7.780151
438.9789, 7.878540
439.4611, 8.510986
439.9432, 8.646729
440.4253, 7.309082
440.9074, 5.495117
441.3895, 4.277344
441.8716, 3.941162
442.3538, 3.766235
442.8359, 3.123779
443.3180, 2.070068
443.8001, 0.9871830
444.2822, 1.2210000E-03
444.7643, 1.123047
445.2465, 2.785156
445.7286, 4.854614
446.2107, 6.669556
446.6928, 7.625366
447.1749, 8.530518
447.6570, 10.28430
448.1392, 12.82690
448.6213, 15.51978
449.1034, 18.10559
449.5855, 20.53662
450.0677, 22.62439
450.5498, 24.05481
451.0319, 25.84094
451.5140, 28.13342
451.9961, 30.96484
452.4782, 34.50854
452.9604, 38.75806
453.4425, 43.27417
453.9246, 47.68091
454.4067, 52.01624
454.8888, 55.77515
455.3709, 57.99976
455.8531, 60.77100
456.3352, 65.04993
456.8173, 70.34253
457.2994, 75.93262
457.7815, 81.48157
458.2636, 86.84607
458.7458, 91.62720
459.2279, 95.08215
459.7100, 99.57849
460.1921, 105.7677
460.6742, 112.3876
461.1563, 118.8531
461.6385, 125.0953
462.1206, 131.1523
462.6027, 136.9771
463.0848, 142.6543
463.5669, 148.6743
464.0490, 155.1097
464.5312, 161.6492
465.0133, 168.1693
465.4954, 174.6919
465.9775, 181.3203
466.4596, 188.1223
466.9417, 194.7991
467.4239, 200.9727
467.9060, 206.7407
468.3881, 212.8715
468.8702, 219.5989
469.3523, 226.5229
469.8344, 233.3616
470.3166, 240.1454
470.7987, 246.8484
471.2808, 253.4219
471.7629, 259.9784
472.2450, 266.5365
472.7271, 273.1312
473.2093, 279.9246
473.6914, 287.0603
474.1735, 294.3030
474.6556, 301.2390
475.1377, 307.8971
475.6198, 314.2526
476.1020, 320.2064
476.5841, 325.9293
477.0662, 331.6687
477.5483, 337.3627
478.0304, 342.6842
478.5125, 347.2435
478.9947, 351.2164
479.4768, 356.0808
479.9589, 362.9547
480.4410, 369.3986
480.9231, 375.1396
481.4052, 380.2745
481.8874, 384.8730
482.3695, 388.9751
482.8516, 392.5586
483.3337, 395.5308
483.8158, 397.8207
484.2979, 400.1182
484.7801, 402.6489
485.2622, 404.8021
485.7443, 406.5166
486.2264, 407.7037
486.7085, 408.2010
487.1906, 407.9054
487.6728, 407.1538
488.1549, 406.4182
488.6370, 405.7311
489.1191, 404.6530
489.6012, 402.9230
490.0833, 400.8845
490.5655, 399.2269
491.0476, 397.8011
491.5297, 395.3594
492.0118, 390.4989
492.4939, 384.8019
492.9760, 380.5658
493.4582, 377.8026
493.9403, 374.8746
494.4224, 370.9326
494.9045, 366.1641
495.3866, 361.2382
495.8687, 356.4480
496.3509, 350.9277
496.8330, 343.6097
497.3151, 335.8755
497.7972, 329.5789
498.2793, 324.8293
498.7614, 320.1329
499.2436, 314.2385
499.7257, 307.1433
500.2078, 299.2363
500.6899, 289.7727
501.1720, 280.4495
501.6541, 271.4365
502.1363, 262.7426
502.6184, 254.3965
503.1005, 246.3774
503.5826, 238.4143
504.0647, 230.1964
504.5468, 221.6692
505.0290, 213.5295
505.5111, 206.0793
505.9932, 198.6204
506.4753, 190.9457
506.9575, 183.1067
507.4396, 175.1138
507.9217, 166.8822
508.4038, 158.8248
508.8859, 151.6376
509.3680, 145.2545
509.8502, 138.8130
510.3323, 132.1145
510.8144, 125.2828
511.2965, 118.1575
511.7786, 110.8855
512.2607, 104.1281
512.7429, 98.29041
513.2250, 92.85889
513.7071, 87.34766
514.1892, 81.80579
514.6713, 76.35645
515.1534, 70.98035
515.6356, 65.86121
516.1177, 61.41797
516.5998, 58.10815
517.0819, 54.35217
517.5640, 49.78967
518.0461, 45.04297
518.5283, 40.20508
519.0104, 35.52209
519.4925, 31.68909
519.9746, 29.24890
520.4567, 27.73450
520.9388, 25.30396
521.4210, 20.94385
521.9031, 17.57324
522.3852, 15.99744
522.8673, 15.01392
523.3494, 13.94775
523.8315, 12.67114
524.3137, 11.21582
524.7958, 9.581665
525.2779, 7.798828
525.7600, 5.945435
526.2421, 3.909058
526.7242, 2.221924
527.2064, 0.9987790
527.6885, 0.3688960
528.1706, 0.7192380
528.6527, 2.335205
529.1348, 3.521606
529.6169, 2.894897
530.0991, 1.470093
530.5812, 1.010376
531.0633, 1.721436
531.5454, 2.548828
532.0275, 2.673828
532.5096, 2.246948
532.9918, 2.340942
533.4739, 3.388794
533.9560, 4.318604
534.4381, 4.558228
534.9202, 4.755737
535.4023, 5.720093
535.8845, 7.537354
536.3666, 9.592285
536.8487, 11.28528
537.3308, 12.61804
537.8129, 13.81641
538.2950, 14.61267
538.7772, 15.62561
539.2593, 17.24023
539.7414, 19.00073
540.2235, 20.29590
540.7056, 20.99084
541.1877, 21.76123
541.6699, 23.39160
542.1520, 25.75427
542.6341, 28.04517
543.1162, 30.32410
543.5983, 32.23254
544.0804, 33.15295
544.5626, 33.61157
545.0447, 34.61914
545.5268, 36.53418
546.0089, 38.58447
546.4910, 40.69336
546.9731, 42.55017
547.4553, 43.25696
547.9374, 42.61035
548.4195, 41.99353
548.9016, 42.80835
549.3837, 45.08997
549.8658, 46.99109
550.3480, 48.59082
550.8301, 49.79944
551.3122, 50.24219
551.7943, 50.43640
552.2764, 51.04260
552.7585, 52.21741
553.2407, 53.57263
553.7228, 54.57446
554.2049, 55.17090
554.6870, 56.39282
555.1691, 59.17358
555.6512, 61.22095
556.1334, 60.92371
556.6155, 59.82129
557.0976, 60.04187
557.5797, 62.27307
558.0618, 64.87366
558.5439, 66.34363
559.0261, 66.95178
559.5082, 67.70398
559.9903, 68.75122
560.4724, 69.74426
560.9545, 70.37170
561.4366, 70.71887
561.9188, 71.24426
562.4009, 72.12122
562.8830, 73.07397
563.3651, 74.05054
563.8472, 75.00476
564.3293, 75.61646
564.8115, 75.83276
565.2936, 76.40967
565.7757, 78.35278
566.2578, 81.71191
566.7399, 84.04663
567.2220, 83.95276
567.7042, 84.19507
568.1863, 85.57385
568.6684, 87.36340
569.1505, 88.95459
569.6326, 90.22534
570.1147, 91.24731
570.5969, 91.84033
571.0790, 92.13086
571.5611, 93.09412
572.0432, 95.00769
572.5253, 96.67285
573.0074, 97.26501
573.4896, 97.28845
573.9717, 97.46362
574.4538, 97.88196
574.9359, 98.43396
575.4180, 99.15247
575.9001, 100.0040
576.3823, 101.0094
576.8644, 102.1034
577.3465, 102.8666
577.8286, 102.9148
578.3107, 102.4591
578.7928, 102.2603
579.2750, 102.8076
579.7571, 102.9924
580.2392, 102.5249
580.7213, 101.8408
581.2034, 101.1639
581.6855, 100.5868
582.1677, 100.2139
582.6498, 100.2623
583.1319, 100.4445
583.6140, 99.68604
584.0961, 97.63611
584.5782, 95.78296
585.0604, 94.30090
585.5425, 93.37610
586.0246, 93.49158
586.5067, 94.52930
586.9889, 95.13867
587.4710, 94.73865
587.9531, 93.61432
588.4352, 91.72656
588.9174, 89.28534
589.3995, 87.41675
589.8816, 86.71765
590.3637, 86.53009
590.8458, 85.65503
591.3279, 83.68036
591.8101, 82.18304
592.2922, 81.47028
592.7743, 80.90686
593.2564, 80.25378
593.7385, 79.48212
594.2206, 78.66864
594.7028, 77.85950
595.1849, 76.83173
595.6670, 75.04504
596.1491, 72.30774
596.6312, 70.27637
597.1133, 69.45941
597.5955, 68.81750
598.0776, 67.75372
598.5597, 66.45807
599.0418, 65.34937
599.5239, 64.73175
600.0060, 63.86810
600.4882, 61.90656
600.9703, 59.28595
601.4524, 57.00732
601.9345, 55.27148
602.4166, 53.87366
602.8987, 52.78265
603.3809, 51.93341
603.8630, 50.57391
604.3451, 48.24725
604.8272, 46.03833
605.3093, 44.25116
605.7914, 42.60468
606.2736, 40.82678
606.7557, 38.87054
607.2378, 36.78351
607.7199, 34.55396
608.2020, 32.22620
608.6841, 30.10840
609.1663, 28.34570
609.6484, 26.38403
610.1305, 23.62360
610.6126, 20.91058
611.0947, 19.15186
611.5768, 18.31934
612.0590, 17.28046
612.5411, 15.29108
613.0232, 13.00983
613.5053, 11.18365
613.9874, 9.758118
614.4695, 8.287048
614.9517, 6.551392
615.4338, 4.754395
615.9159, 3.139709
616.3980, 1.592468
616.8801, 0.7165530
617.3622, 0.9979860
617.8444, 1.319458
618.3265, 1.377747
618.8086, 1.095093
619.2907, 0.3517460
619.7728, 0.9016720
620.2549, 2.337280
620.7371, 3.726257
621.2192, 5.047729
621.7013, 5.482239
622.1834, 4.482178
622.6655, 3.764404
623.1476, 5.019104
623.6298, 6.965942
624.1119, 7.388855
624.5940, 5.684753
625.0761, 3.743958
625.5582, 1.944519
626.0403, 0.6297610
626.5225, 0.4285890
627.0046, 1.260620
627.4867, 2.354187
627.9688, 3.288208
628.4509, 4.003113
628.9330, 4.358032
629.4152, 4.263306
629.8973, 3.922180
630.3794, 3.128296
630.8615, 2.318176
631.3436, 1.592957
631.8257, 1.062378
632.3079, 0.9865720
632.7900, 1.627991
633.2721, 2.424133
633.7542, 2.742554
634.2363, 2.563477
634.7184, 1.473267
635.2006, 0.9260860
635.6827, 3.297058
636.1648, 4.337402
636.6469, 4.222412
637.1290, 4.564514
637.6111, 5.775879
638.0933, 6.956787
638.5754, 7.831238
639.0575, 8.517700
639.5396, 9.000732
640.0217, 9.375305
640.5038, 10.04639
640.9860, 11.41486
641.4681, 13.27393
641.9502, 14.56427
642.4323, 15.00098
642.9144, 15.56946
643.3965, 16.52777
643.8787, 17.64130
644.3608, 18.75568
644.8429, 19.88324
645.3250, 21.13391
645.8071, 22.79626
646.2892, 24.38330
646.7714, 25.20776
647.2535, 25.52985
647.7356, 26.28802
648.2177, 27.79291
648.6998, 29.35974
649.1819, 30.17407
649.6641, 30.18414
650.1462, 30.59900
650.6283, 31.83838
651.1104, 32.94501
651.5925, 33.42950
652.0746, 33.87762
652.5568, 35.05188
653.0389, 36.94006
653.5210, 38.69629
654.0031, 39.57184
654.4852, 39.83215
654.9673, 40.09448
655.4495, 40.31549
655.9316, 41.05939
656.4137, 42.82666
656.8958, 44.80786
657.3779, 45.75513
657.8600, 45.70343
658.3422, 46.12396
658.8243, 47.42731
659.3064, 49.03137
659.7885, 50.91156
660.2706, 52.78259
660.7527, 54.18805
661.2349, 55.01154
661.7170, 55.51520
662.1991, 55.91974
662.6812, 56.24371
663.1633, 56.99976
663.6454, 58.61560
664.1276, 59.80359
664.6097, 59.43085
665.0918, 58.90723
665.5739, 59.61304
666.0560, 61.58661
666.5381, 63.53326
667.0203, 64.88947
667.5024, 65.91223
667.9845, 66.68787
668.4666, 67.34723
668.9487, 68.49225
669.4308, 70.40009
669.9130, 72.09802
670.3951, 72.16437
670.8772, 70.31952
671.3593, 69.16370
671.8414, 69.33417
672.3235, 69.46558
672.8057, 69.05792
673.2878, 68.60272
673.7699, 68.71503
674.2520, 69.45166
674.7341, 70.20459
675.2162, 70.58783
675.6984, 70.68597
676.1805, 70.63275
676.6626, 70.41956
677.1447, 70.12939
677.6268, 69.76239
678.1089, 69.26538
678.5911, 68.53503
679.0732, 67.48676
679.5553, 66.75897
680.0374, 66.30426
680.5195, 66.36304
681.0016, 67.49976
681.4838, 68.76727
681.9659, 69.18164
682.4480, 68.61963
682.9301, 67.46283
683.4122, 65.76697
683.8943, 63.77222
684.3765, 62.55585
684.8586, 62.23047
685.3407, 61.61835
685.8228, 60.26672
686.3049, 58.55194
686.7870, 56.88220
687.2692, 55.28467
687.7513, 53.88367
688.2334, 52.77930
688.7155, 51.84436
689.1976, 51.12402
689.6797, 50.47876
690.1619, 49.69446
690.6440, 48.67816
691.1261, 47.45648
691.6082, 46.05908
692.0903, 44.55621
692.5724, 43.31256
693.0546, 42.55811
693.5367, 41.65240
694.0188, 40.11047
694.5009, 38.51990
694.9830, 37.45270
695.4651, 36.88452
695.9473, 36.41101
696.4294, 36.14319
696.9116, 35.70380
697.3937, 34.67932
697.8758, 33.33960
698.3579, 32.09241
698.8400, 31.06970
699.3221, 30.42120
699.8043, 30.39703
700.2864, 30.83807
700.7685, 30.47607
701.2506, 28.63428
701.7327, 27.41840
702.2148, 27.73138
702.6970, 28.39551
703.1791, 28.83722
703.6612, 28.99988
704.1433, 28.81677
704.6254, 28.08838
705.1075, 27.24908
705.5897, 26.70575
706.0718, 26.30914
706.5539, 25.65692
707.0360, 24.70392
707.5181, 24.04688
708.0002, 24.25244
708.4824, 25.05957
708.9645, 25.08893
709.4466, 23.68158
709.9287, 22.76544
710.4108, 22.84778
710.8929, 23.13074
711.3751, 23.29340
711.8572, 23.28998
712.3393, 23.06610
712.8214, 22.48547
713.3035, 21.97321
713.7856, 21.69635
714.2678, 21.80804
714.7499, 22.96710
715.2320, 25.16150
715.7141, 26.87628
716.1962, 27.07703
716.6783, 26.20758
717.1605, 25.52820
717.6426, 24.94025
718.1247, 24.70386
718.6068, 24.97656
719.0889, 25.35693
719.5710, 25.60156
720.0532, 25.87061
720.5353, 26.51483
721.0174, 27.67297
721.4995, 28.71686
721.9816, 29.10254
722.4637, 29.05035
722.9459, 28.89166
723.4280, 28.67883
723.9101, 28.66107
724.3922, 28.94543
724.8743, 29.31940
725.3564, 29.44727
725.8386, 29.23846
726.3207, 29.24164
726.8028, 29.60828
727.2849, 29.95758
727.7670, 30.14154
728.2491, 30.25415
728.7313, 30.47583
729.2134, 30.80127
729.6955, 30.92133
730.1776, 29.89022
730.6597, 30.32139
731.1418, 30.51254
731.6240, 30.47650
732.1061, 29.53308
732.5882, 29.76140
733.0703, 29.52013
733.5524, 29.25961
734.0345, 29.65286
734.5167, 28.84137
734.9988, 29.22426
735.4809, 29.13037
735.9630, 29.25469
736.4451, 28.90651
736.9272, 28.70429
737.4094, 28.97466
737.8915, 28.98337
738.3736, 28.58080
738.8557, 28.91101
739.3378, 28.21057
739.8199, 26.72198
740.3021, 25.72791
740.7842, 25.48041
741.2663, 25.32263
741.7484, 24.66956
742.2305, 23.71960
742.7126, 23.51569
743.1948, 24.80420
743.6769, 25.45825
744.1590, 24.96484
744.6411, 24.24268
745.1232, 23.74011
745.6053, 23.37323
746.0875, 22.91931
746.5696, 22.32581
747.0517, 21.59418
747.5338, 20.42505
748.0159, 19.26495
748.4980, 19.12506
748.9802, 19.90521
749.4623, 20.44397
749.9444, 20.12030
750.4265, 19.35315
750.9086, 18.93921
751.3907, 19.03485
751.8729, 18.74805
752.3550, 17.83087
752.8371, 16.82703
753.3192, 15.83722
753.8013, 14.89459
754.2834, 14.10181
754.7656, 13.44690
755.2477, 12.63220
755.7298, 11.19165
756.2119, 9.789612
756.6940, 9.104858
757.1761, 8.958862
757.6583, 8.995361
758.1404, 9.085571
758.6225, 9.005127
759.1046, 8.473511
759.5867, 7.597168
760.0688, 7.064209
760.5510, 7.083191
761.0331, 6.923645
761.5152, 6.338928
761.9973, 5.643005
762.4794, 5.048950
762.9615, 4.539429
763.4437, 4.053162
763.9258, 3.609680
764.4079, 3.133179
764.8900, 2.379761
765.3721, 1.711304
765.8542, 1.690674
766.3364, 2.185974
766.8185, 2.512695
767.3006, 2.281067
767.7827, 1.886414
768.2648, 2.153381
768.7469, 3.123779
769.2291, 3.549011
769.7112, 3.259155
770.1933, 2.696350
770.6754, 1.913513
771.1575, 1.076172
771.6396, 0.4681400
772.1218, 8.0139004E-02
772.6039, 0.1446530
773.0860, 0.1322020
773.5681, 0.2004390
774.0502, 0.5484010
774.5323, 1.627991
775.0145, 2.385742
775.4966, 2.661987
775.9787, 2.597595
776.4608, 2.181458
776.9429, 1.619080
777.4250, 1.488159
777.9072, 1.771729
778.3893, 1.880249
778.8714, 1.644287
779.3535, 1.333069
779.8356, 1.151917
780.3177, 1.100342
780.7999, 1.160339
781.2820, 1.631592
781.7641, 1.791779
782.2462, 1.292603
782.7283, 0.7807920
783.2104, 0.7286680
783.6926, 0.9664310
784.1747, 1.090057
784.6568, 0.9691160
785.1389, 0.7423710
785.6210, 0.5872500
786.1031, 0.4002990
786.5853, 0.1634830
787.0674, 1.034119
787.5495, 1.552277
788.0316, 1.412201
788.5137, 1.010040
788.9958, 0.8952940
789.4780, 1.081543
789.9601, 1.411224
790.4422, 1.930481
790.9243, 2.528656
791.4064, 3.274811
791.8885, 4.016052
792.3707, 4.597992
792.8528, 5.048187
793.3349, 5.537598
793.8170, 6.193848
794.2991, 6.811768
794.7813, 7.209137
795.2634, 7.514404
795.7455, 7.903748
796.2276, 8.386627
796.7097, 8.842560
797.1918, 9.177521
797.6740, 9.574127
798.1561, 10.57858
798.6382, 12.23871
799.1203, 12.96954
799.6024, 12.29953
800.0845, 11.79340
800.5667, 12.33435
801.0488, 13.40665
801.5309, 14.07153
802.0130, 14.25540
802.4951, 14.54681
802.9772, 15.10999
803.4594, 15.65036
803.9415, 16.07556
804.4236, 16.38959
804.9057, 16.46317
805.3878, 16.38889
805.8699, 16.69330
806.3521, 17.97015
806.8342, 19.47446
807.3163, 19.97244
807.7985, 19.69104
808.2806, 19.47101
808.7627, 19.46283
809.2448, 19.89923
809.7269, 21.06625
810.2090, 22.61145
810.6912, 23.41534
811.1733, 23.10385
811.6554, 22.93579
812.1375, 23.06824
812.6196, 23.17429
813.1017, 22.95624
813.5839, 22.72089
814.0660, 22.98148
814.5481, 23.82690
815.0302, 24.50870
815.5123, 24.59747
815.9944, 24.52884
816.4766, 24.52011
816.9587, 24.62833
817.4408, 25.01627
817.9229, 25.69861
818.4050, 26.48212
818.8871, 27.23538
819.3693, 27.79065
819.8514, 27.57764
820.3335, 26.57355
820.8156, 26.35156
821.2977, 27.42041
821.7798, 28.32590
822.2620, 27.96838
822.7441, 26.84003
823.2262, 26.31976
823.7083, 26.65167
824.1904, 26.91977
824.6725, 27.08737
825.1547, 27.23383
825.6368, 27.45383
826.1189, 27.63626
826.6010, 27.59842
827.0831, 27.29318
827.5652, 26.91830
828.0474, 26.54660
828.5295, 26.31088
829.0116, 26.48813
829.4937, 26.87659
829.9758, 26.89935
830.4579, 26.47592
830.9401, 26.15738
831.4222, 26.39496
831.9043, 26.91223
832.3864, 26.87152
832.8685, 26.20941
833.3506, 25.30856
833.8328, 23.90457
834.3149, 22.92078
834.7970, 23.26889
835.2791, 24.14139
835.7612, 24.03369
836.2433, 22.73514
836.7255, 21.76871
837.2076, 21.65158
837.6897, 21.60672
838.1718, 21.24243
838.6539, 20.73740
839.1360, 20.26950
839.6182, 19.90829
840.1003, 19.69534
840.5824, 19.70493
841.0645, 19.70844
841.5466, 19.31366
842.0287, 18.67325
842.5109, 18.37186
842.9930, 18.47003
843.4751, 18.45526
843.9572, 18.01224
844.4393, 17.33109
844.9214, 16.80676
845.4036, 16.46762
845.8857, 16.07190
846.3678, 15.54593
846.8499, 15.08105
847.3320, 14.85712
847.8141, 14.65866
848.2963, 14.15219
848.7784, 13.36838
849.2605, 12.91055
849.7426, 13.32486
850.2247, 13.55096
850.7068, 13.11389
851.1890, 12.33109
851.6711, 11.25119
852.1532, 10.13278
852.6353, 9.628845
853.1174, 10.11536
853.5995, 10.86618
854.0817, 11.17123
854.5638, 11.06454
855.0459, 10.46124
855.5280, 9.433197
856.0101, 8.769287
856.4922, 8.810822
856.9744, 9.049927
857.4565, 8.820343
857.9386, 8.141937
858.4207, 7.805573
858.9028, 8.003479
859.3849, 8.059967
859.8671, 7.682220
860.3492, 7.306671
860.8313, 7.353241
861.3134, 7.646149
861.7955, 7.700317
862.2776, 7.431366
862.7598, 7.019592
863.2419, 6.272034
863.7240, 5.643066
864.2061, 5.633209
864.6882, 5.886932
865.1703, 5.759247
865.6525, 5.103882
866.1346, 4.327637
866.6167, 3.675201
867.0988, 3.142883
867.5809, 2.736664
868.0630, 2.449097
868.5452, 2.326263
869.0273, 2.359802
869.5094, 2.296539
869.9915, 1.922668
870.4736, 1.411194
870.9557, 1.257751
871.4379, 1.551788
871.9200, 1.671631
872.4021, 1.607971
872.8842, 1.324127
873.3663, 0.5924380
873.8484, 0.2117920
874.3306, 0.4386600
874.8127, 6.9274999E-02
875.2948, 9.8389000E-02
875.7769, 0.2549740
876.2590, 0.4642940
876.7411, 7.1808003E-02
877.2233, 0.3362120
877.7054, 0.1052550
878.1875, 0.5555110
878.6696, 0.9141850
879.1517, 0.6088260
879.6339, 0.2583310
880.1160, 0.4692080
880.5981, 0.8609920
881.0802, 0.8427120
881.5623, 0.5179750
882.0444, 0.3857120
882.5266, 0.6011660
883.0087, 0.8780520
883.4908, 0.9613950
883.9729, 0.8277890
884.4550, 0.2169800
884.9371, 0.9243160
885.4193, 1.497681
885.9014, 1.135529
886.3835, 0.7837830
886.8656, 1.126404
887.3477, 1.936401
887.8298, 2.612488
888.3120, 3.233917
888.7941, 3.504700
889.2762, 2.929626
889.7583, 2.610382
890.2404, 3.100433
890.7225, 3.852386
891.2047, 4.213745
891.6868, 4.219543
892.1689, 4.541779
892.6510, 5.753876
893.1331, 6.855347
893.6152, 7.151459
894.0974, 7.222137
894.5795, 7.749847
895.0616, 8.619904
895.5437, 9.298798
896.0258, 9.566284
896.5079, 9.739838
896.9901, 10.12906
897.4722, 10.68805
897.9543, 11.33231
898.4364, 12.05182
898.9185, 12.84766
899.4006, 13.71906
899.8828, 14.48145
900.3649, 14.94360
900.8470, 15.21768
901.3291, 15.72812
901.8112, 16.52869
902.2933, 17.30420
902.7755, 18.05304
903.2576, 18.72629
903.7397, 19.27625
904.2218, 19.75156
904.7039, 20.20728
905.1860, 20.63397
905.6682, 21.17880
906.1503, 21.97186
906.6324, 22.71713
907.1145, 23.31479
907.5966, 23.86990
908.0787, 24.49350
908.5609, 25.14368
909.0430, 25.69537
909.5251, 26.10773
910.0072, 26.40033
910.4893, 26.59100
910.9714, 26.67181
911.4536, 26.62042
911.9357, 26.44397
912.4178, 26.11090
912.8999, 25.64218
913.3820, 25.24802
913.8641, 25.16141
914.3463, 25.14938
914.8284, 24.74335
915.3105, 24.01678
915.7926, 23.27750
916.2748, 22.57980
916.7569, 21.92175
917.2390, 21.30066
917.7211, 20.71036
918.2032, 20.16315
918.6854, 19.67645
919.1675, 19.04498
919.6496, 18.22607
920.1317, 17.39221
920.6138, 16.55060
921.0959, 15.74371
921.5781, 14.91788
922.0602, 14.13693
922.5423, 13.83215
923.0244, 14.60727
923.5065, 14.73297
923.9886, 13.53094
924.4708, 12.36237
924.9529, 11.90674
925.4350, 11.75748
925.9171, 11.39273
926.3992, 10.77533
926.8813, 10.20425
927.3635, 9.706970
927.8456, 9.393616
928.3277, 9.471771
928.8098, 9.668274
929.2919, 9.703918
929.7740, 9.567719
930.2562, 9.316956
930.7383, 8.976074
931.2204, 8.612671
931.7025, 8.271271
932.1846, 7.975311
932.6667, 7.791718
933.1489, 7.686371
933.6310, 7.578247
934.1131, 7.452484
934.5952, 7.241821
935.0773, 6.855164
935.5594, 6.357086
936.0416, 5.932953
936.5237, 5.597351
937.0058, 5.350739
937.4879, 5.172607
937.9700, 5.233826
938.4521, 5.746704
938.9343, 6.208862
939.4164, 5.967438
939.8985, 5.058807
940.3806, 4.286469
940.8627, 3.657745
941.3448, 3.182373
941.8270, 2.772888
942.3091, 2.648163
942.7912, 3.086578
943.2733, 3.785858
943.7554, 4.361969
944.2375, 4.832260
944.7197, 4.964767
945.2018, 4.418320
945.6839, 3.886185
946.1660, 3.718094
946.6481, 3.651703
947.1302, 3.300232
947.6124, 2.779251
948.0945, 2.584229
948.5766, 2.936249
949.0587, 3.342621
949.5408, 3.478287
950.0229, 3.518845
950.5051, 3.682846
950.9872, 3.892288
951.4693, 3.969238
951.9514, 3.886703
952.4335, 3.719513
952.9156, 3.459381
953.3978, 3.260208
953.8799, 3.457443
954.3620, 3.890854
954.8441, 4.135391
955.3262, 4.159454
955.8083, 4.003006
956.2905, 3.685425
956.7726, 3.366058
957.2547, 3.225128
957.7368, 3.211441
958.2189, 3.107056
958.7010, 2.905746
959.1832, 2.722412
959.6653, 2.557480
960.1474, 2.448929
960.6295, 2.370346
961.1116, 2.459686
961.5938, 3.059967
962.0759, 4.291901
962.5580, 4.816772
963.0401, 4.311768
963.5222, 3.763824
964.0043, 3.271317
964.4865, 2.924362
964.9686, 2.938202
965.4507, 3.145569
965.9328, 2.970093
966.4149, 2.100647
966.8970, 1.692337
967.3792, 2.290802
967.8613, 2.790985
968.3434, 2.614227
968.8255, 2.274506
969.3076, 2.415833
969.7897, 2.921356
970.2719, 3.034134
970.7540, 2.334091
971.2361, 1.683578
971.7182, 1.445740
972.2003, 1.387436
972.6824, 1.443298
973.1646, 1.504700
973.6467, 1.350586
974.1288, 0.9905850
974.6109, 0.8073580
975.0930, 1.154526
975.5751, 1.548904
976.0573, 1.458679
976.5394, 1.179031
977.0215, 1.249802
977.5036, 1.543915
977.9857, 1.448746
978.4678, 0.7734680
978.9500, 0.1225590
979.4321, 0.1608430
979.9142, 0.5463710
980.3963, 0.6110530
980.8784, 0.4305730
981.3605, 0.2244260
981.8427, 4.6066001E-02
982.3248, 2.5939999E-02
982.8069, 0.2341770
983.2890, 0.6318820
983.7711, 1.303528
984.2532, 2.130280
984.7354, 2.124451
985.2175, 1.256577
985.6996, 0.6340940
986.1817, 0.4957580
986.6638, 0.6685330
987.1459, 1.102432
987.6281, 1.622360
988.1102, 1.782913
988.5923, 1.498215
989.0744, 1.549179
989.5565, 2.104797
990.0386, 2.467331
990.5208, 2.351563
991.0029, 2.145798
991.4850, 2.221573
991.9671, 2.477722
992.4492, 2.505386
992.9313, 2.148453
993.4135, 1.947067
993.8956, 1.994736
994.3777, 2.063004
994.8598, 2.179626
995.3419, 2.206863
995.8240, 1.967743
996.3062, 1.517654
996.7883, 1.150192
997.2704, 0.9327090
997.7525, 0.6819760
998.2346, 0.2366640
998.7167, 8.8394001E-02
999.1989, 5.8761999E-02
999.6810, 0.1318210
1000.163, 0.2932430
1000.645, 0.3900450
1001.127, 0.3498080
1001.609, 2.4673000E-02
1002.092, 0.2422330
1002.574, 0.1231840
1003.056, 8.6516999E-02
1003.538, 0.6943660
1004.020, 1.552231
1004.502, 1.966187
1004.984, 1.829849
1005.466, 1.589676
1005.948, 1.466888
1006.431, 1.330261
1006.913, 0.9945680
1007.395, 0.6612550
1007.877, 0.5758820
1008.359, 0.6973110
1008.841, 0.9356230
1009.323, 1.238159
1009.805, 1.394485
1010.288, 1.142624
1010.770, 0.7737120
1011.252, 0.6501920
1011.734, 0.6606600
1012.216, 0.6015320
1012.698, 0.4735870
1013.180, 0.4042660
1013.662, 0.4423220
1014.144, 0.4380490
1014.627, 0.1895290
1015.109, 0.1706240
1015.591, 0.3600310
1016.073, 0.4270320
1016.555, 0.5506130
1017.037, 0.7360690
1017.519, 0.8007970
1018.001, 0.6461180
1018.484, 0.4834440
1018.966, 0.6701810
1019.448, 1.048187
1019.930, 0.8962860
1020.412, 0.2972260
1020.894, 0.1751860
1021.376, 0.6839750
1021.858, 1.149811
1022.340, 1.181915
1022.823, 0.9839480
1023.305, 0.8644100
1023.787, 0.8068390
1024.269, 0.6005710
1024.751, 0.2287900
1025.233, 0.1802220
1025.715, 0.6061100
1026.197, 0.9443510
1026.680, 0.8052370
1027.162, 0.4745180
1027.644, 0.5095370
1028.126, 0.9214170
1028.608, 1.175278
1029.090, 1.282410
1029.572, 1.121750
1030.054, 0.5435640
1030.536, 5.1803999E-02
1031.019, 1.9881999E-02
1031.501, 0.2435300
1031.983, 0.7431180
1032.465, 1.573135
1032.947, 1.793976
1033.429, 1.045258
1033.911, 0.6340030
1034.393, 0.9958190
1034.875, 1.494659
1035.358, 1.738190
1035.840, 1.752686
1036.322, 1.561890
1036.804, 1.058426
1037.286, 0.8248290
1037.768, 1.056488
1038.250, 1.221817
1038.732, 1.143784
1039.215, 1.033340
1039.697, 1.085358
1040.179, 1.211700
1040.661, 1.162079
1041.143, 0.8657380
1041.625, 0.6721500
1042.107, 0.7490840
1042.589, 0.6923680
1043.072, 0.1528930
1043.554, 0.2933650
1044.036, 6.2714003E-02
1044.518, 0.5346680
1045.000, 0.7147060
1045.482, 0.3508450
1045.964, 2.4551000E-02
1046.446, 0.5135350
1046.928, 0.8278660
1047.411, 0.8109440
1047.893, 0.6692350
1048.375, 0.4907990
1048.857, 0.3182980
1049.339, 0.2264100
1049.821, 0.2148740
1050.303, 0.3116460
1050.785, 0.7237850
1051.267, 0.9816280
1051.750, 0.8675840
1052.232, 0.6074520
1052.714, 0.2214050
1053.196, 0.1246340
1053.678, 4.3029999E-03
1054.160, 0.7599490
1054.642, 1.194611
1055.124, 0.8739620
1055.607, 0.4496150
1056.089, 0.1027830
1056.571, 0.1801150
1057.053, 0.4915160
1057.535, 0.7560730
1058.017, 0.7509460
1058.499, 0.3961490
1058.981, 0.1918640
1059.464, 0.1734010
1059.946, 0.4617310
1060.428, 1.414032
1060.910, 2.447632
1061.392, 3.026123
1061.874, 3.286285
1062.356, 3.639191
1062.838, 4.190582
1063.320, 4.738861
1063.802, 5.144409
1064.285, 5.605896
1064.767, 6.245361
1065.249, 6.955780
1065.731, 7.575287
1066.213, 8.189697
1066.695, 9.023926
1067.177, 10.11191
1067.659, 11.15060
1068.142, 11.92670
1068.624, 12.78204
1069.106, 13.87036
1069.588, 15.06854
1070.070, 16.18307
1070.552, 17.38120
1071.034, 19.08377
1071.516, 21.31476
1071.999, 23.42831
1072.481, 25.13223
1072.963, 26.70706
1073.445, 28.21460
1073.927, 29.70676
1074.409, 31.03104
1074.891, 32.46338
1075.373, 34.56506
1075.855, 37.33276
1076.338, 39.91714
1076.820, 41.74136
1077.302, 43.74475
1077.784, 46.73083
1078.266, 49.70209
1078.748, 51.63931
1079.230, 53.17813
1079.712, 55.25812
1080.194, 57.99142
1080.677, 60.97440
1081.159, 64.13977
1081.641, 67.34149
1082.123, 70.52631
1082.605, 73.65079
1083.087, 76.53345
1083.569, 79.39996
1084.052, 82.62143
1084.534, 86.15887
1085.016, 89.58557
1085.498, 92.70010
1085.980, 95.87967
1086.462, 99.60379
1086.944, 103.1117
1087.426, 105.6474
1087.908, 107.8837
1088.391, 110.5353
1088.873, 113.6597
1089.355, 117.0818
1089.837, 120.8810
1090.319, 124.4490
1090.801, 127.4347
1091.283, 130.2764
1091.765, 133.2627
1092.247, 136.2024
1092.730, 138.7307
1093.212, 141.0771
1093.694, 144.0500
1094.176, 147.9557
1094.658, 151.3252
1095.140, 153.1556
1095.622, 154.9234
1096.104, 157.3701
1096.587, 159.9753
1097.069, 162.3252
1097.551, 164.4625
1098.033, 166.5597
1098.515, 168.6443
1098.997, 170.5862
1099.479, 172.4450
1099.961, 174.0262
1100.443, 174.8602
1100.926, 175.8145
1101.408, 177.8452
1101.890, 180.2480
1102.372, 181.7400
1102.854, 182.2130
1103.336, 182.8072
1103.818, 184.0694
1104.300, 185.0140
1104.782, 185.1972
1105.265, 185.2657
1105.747, 185.6391
1106.229, 186.0737
1106.711, 186.2304
1107.193, 186.1252
1107.675, 185.9904
1108.157, 185.5422
1108.639, 185.6502
1109.122, 186.9307
1109.604, 188.1607
1110.086, 189.1005
1110.568, 189.5644
1111.050, 189.1152
1111.532, 188.0686
1112.014, 187.6194
1112.496, 188.2682
1112.979, 188.2546
1113.461, 186.8004
1113.943, 185.7262
1114.425, 186.0012
1114.907, 186.2343
1115.389, 185.0466
1115.871, 183.2313
1116.353, 182.7184
1116.835, 183.8460
1117.318, 184.2732
1117.800, 183.5659
1118.282, 182.8707
1118.764, 182.4434
1119.246, 181.9418
1119.728, 181.1437
1120.210, 180.2676
1120.692, 179.5192
1121.174, 178.8499
1121.657, 178.5447
1122.139, 178.9379
1122.621, 179.0116
1123.103, 178.4990
1123.585, 177.7520
1124.067, 176.9301
1124.549, 176.0800
1125.031, 175.2634
1125.514, 174.4490
1125.996, 173.4136
1126.478, 172.0121
1126.960, 170.8632
1127.442, 170.1573
1127.924, 168.9503
1128.406, 166.7706
1128.888, 164.7938
1129.370, 164.1252
1129.853, 163.9620
1130.335, 162.2874
1130.817, 159.1002
1131.299, 156.6195
1131.781, 154.8951
1132.263, 152.5158
1132.745, 149.1705
1133.227, 146.0363
1133.709, 143.7802
1134.192, 142.1416
1134.674, 140.8841
1135.156, 139.8457
1135.638, 138.3950
1136.120, 136.5344
1136.602, 134.2096
1137.084, 131.4497
1137.566, 128.6329
1138.049, 125.8999
1138.531, 123.0351
1139.013, 119.7285
1139.495, 116.4050
1139.977, 114.0706
1140.459, 112.4056
1140.941, 110.5442
1141.423, 108.4807
1141.906, 106.5875
1142.388, 104.8563
1142.870, 102.5168
1143.352, 98.98108
1143.834, 95.40363
1144.316, 93.46997
1144.798, 92.12555
1145.280, 89.66342
1145.762, 86.59454
1146.245, 83.97968
1146.727, 81.89557
1147.209, 79.96097
1147.691, 78.03113
1148.173, 76.05225
1148.655, 73.96014
1149.137, 71.84607
1149.619, 69.90649
1150.101, 67.89587
1150.584, 65.37665
1151.066, 62.60602
1151.548, 60.11536
1152.030, 58.00464
1152.512, 56.04700
1152.994, 54.09564
1153.476, 52.35870
1153.958, 51.33594
1154.441, 50.10510
1154.923, 47.82971
1155.405, 45.14789
1155.887, 42.81232
1156.369, 40.81415
1156.851, 38.76373
1157.333, 36.48407
1157.815, 34.58429
1158.297, 33.73743
1158.780, 32.54608
1159.262, 30.16949
1159.744, 27.69739
1160.226, 25.94141
1160.708, 24.62598
1161.190, 23.18207
1161.672, 21.56415
1162.154, 20.29694
1162.636, 19.83447
1163.119, 18.86060
1163.601, 17.06049
1164.083, 15.10504
1164.565, 13.15411
1165.047, 11.33606
1165.529, 9.790100
1166.011, 8.488586
1166.493, 7.311707
1166.976, 6.231873
1167.458, 5.584717
1167.940, 5.547913
1168.422, 4.986755
1168.904, 3.520325
1169.386, 2.087646
1169.868, 1.309448
1170.350, 0.8359990
1170.833, 6.5430000E-02
1171.315, 0.9385990
1171.797, 1.879517
1172.279, 2.760925
1172.761, 3.534668
1173.243, 4.190735
1173.725, 4.862427
1174.207, 5.575500
1174.689, 6.075623
1175.172, 6.094910
1175.654, 5.875977
1176.136, 5.714050
1176.618, 5.671814
1177.100, 6.184326
1177.582, 6.948730
1178.064, 6.847290
1178.546, 5.888916
1179.028, 5.341248
1179.511, 5.839966
1179.993, 6.189697
1180.475, 5.003357
1180.957, 3.477722
1181.439, 2.643188
1181.921, 2.225098
1182.403, 2.233154
1182.885, 2.206848
1183.368, 1.208923
1183.850, 0.8712770
1184.332, 3.019714
1184.814, 4.598022
1185.296, 6.564819
1185.778, 9.798889
1186.260, 12.94397
1186.742, 14.69922
1187.224, 16.25574
1187.707, 18.90082
1188.189, 22.54639
1188.671, 26.64014
1189.153, 31.44788
1189.635, 35.57397
1190.117, 37.94354
1190.599, 41.26996
1191.081, 46.50232
1191.564, 52.09796
1192.046, 57.18793
1192.528, 62.25006
1193.010, 67.92310
1193.492, 74.15680
1193.974, 80.68396
1194.456, 87.57227
1194.938, 94.24744
1195.421, 100.5237
1195.903, 107.2970
1196.385, 114.6973
1196.867, 123.3281
1197.349, 133.9375
1197.831, 144.9827
1198.313, 153.2513
1198.795, 159.5263
1199.277, 167.3636
1199.760, 176.5707
1200.242, 185.8373
1200.724, 194.9442
1201.206, 203.4054
1201.688, 211.0818
1202.170, 218.8480
1202.652, 227.6212
1203.134, 236.3099
1203.616, 243.4211
1204.099, 249.7290
1204.581, 256.4171
1205.063, 263.0023
1205.545, 268.5618
1206.027, 272.9554
1206.509, 276.5380
1206.991, 279.3606
1207.473, 281.8711
1207.956, 284.7529
1208.438, 286.7305
1208.920, 287.0583
1209.402, 286.3000
1209.884, 284.5723
1210.366, 282.2267
1210.848, 280.0276
1211.330, 277.8317
1211.813, 273.7571
1212.295, 266.5516
1212.777, 259.5675
1213.259, 253.3674
1213.741, 246.6440
1214.223, 239.0601
1214.705, 230.8524
1215.187, 222.0063
1215.669, 212.8678
1216.151, 204.1575
1216.634, 195.8168
1217.116, 186.6398
1217.598, 176.4521
1218.080, 168.1082
1218.562, 162.0104
1219.044, 155.1522
1219.526, 146.4615
1220.008, 137.5204
1220.491, 129.5219
1220.973, 122.5172
1221.455, 117.0448
1221.937, 112.4335
1222.419, 106.6614
1222.901, 100.3646
1223.383, 95.37817
1223.865, 91.66833
1224.348, 88.02917
1224.830, 84.12170
1225.312, 80.52539
1225.794, 77.33167
1226.276, 75.09387
1226.758, 74.67249
1227.240, 74.87268
1227.722, 74.89734
1228.204, 74.62891
1228.687, 73.58350
1229.169, 72.10388
1229.651, 71.31018
1230.133, 70.97314
1230.615, 70.90088
1231.097, 71.56494
1231.579, 71.79041
1232.061, 71.06665
1232.543, 70.21960
1233.026, 69.71436
1233.508, 69.69275
1233.990, 70.16333
1234.472, 71.41199
1234.954, 72.81787
1235.436, 74.40234
1235.918, 76.05310
1236.400, 77.47424
1236.883, 79.90076
1237.365, 83.47388
1237.847, 86.83643
1238.329, 89.25586
1238.811, 91.42371
1239.293, 94.03784
1239.775, 96.96387
1240.257, 99.93640
1240.740, 103.0396
1241.222, 106.2435
1241.704, 109.8958
1242.186, 115.5194
1242.668, 122.6316
1243.150, 128.0869
1243.632, 130.3877
1244.114, 133.7920
1244.596, 142.2268
1245.078, 151.2958
1245.561, 157.8741
1246.043, 164.2235
1246.525, 172.7280
1247.007, 182.0325
1247.489, 189.7931
1247.971, 196.1602
1248.453, 203.6035
1248.935, 213.0095
1249.418, 221.7495
1249.900, 229.5260
1250.382, 237.3025
1250.864, 245.4724
1251.346, 253.0861
1251.828, 259.4091
1252.310, 265.3744
1252.792, 272.3193
1253.275, 279.9882
1253.757, 287.9076
1254.239, 295.8673
1254.721, 300.3606
1255.203, 301.7761
1255.685, 304.8004
1256.167, 310.1532
1256.649, 314.7057
1257.131, 316.9762
1257.614, 318.1987
1258.096, 319.4131
1258.578, 320.4363
1259.060, 322.0634
1259.542, 322.7667
1260.024, 319.8933
1260.506, 314.8256
1260.988, 309.7496
1261.470, 305.0551
1261.953, 300.6755
1262.435, 296.8801
1262.917, 291.9476
1263.399, 285.7690
1263.881, 277.9301
1264.363, 267.0232
1264.845, 255.9673
1265.327, 246.3440
1265.810, 237.1959
1266.292, 227.6510
1266.774, 217.5339
1267.256, 205.8761
1267.738, 192.4528
1268.220, 180.1316
1268.702, 168.9713
1269.184, 157.3591
1269.667, 145.0432
1270.149, 133.2437
1270.631, 122.5034
1271.113, 112.4745
1271.595, 103.0170
1272.077, 93.53650
1272.559, 82.45605
1273.041, 71.33765
1273.523, 62.69556
1274.005, 55.65869
1274.488, 48.36646
1274.970, 41.00684
1275.452, 35.24927
1275.934, 31.54663
1276.416, 27.41577
1276.898, 21.37036
1277.380, 15.66162
1277.862, 10.05005
1278.345, 5.972900
1278.827, 5.017090
1279.309, 5.052979
1279.791, 4.591797
1280.273, 3.742432
1280.755, 2.610596
1281.237, 1.203613
1281.719, 0.1677250
1282.202, 1.624756
1282.684, 1.511230
1283.166, 0.3669430
1283.648, 1.630371
1284.130, 1.546387
1284.612, 1.941895
1285.094, 1.427734
1285.576, 3.247314
1286.058, 1.822266
1286.541, 9.6680000E-02
1287.023, 0.0000000E+00
##END=



