##NAMES=Gageite
##RRUFFID=R070471
##IDEAL CHEMISTRY=Mn^2+^_21_Si_8_O_27_(OH)_20_
##LOCALITY=Wessels mine, Hotazel, Kalahari manganese field, Northern Cape Province, South Africa
##OWNER=RRUFF
##SOURCE=Michael Scott
##DESCRIPTION=Matted aggregates of tan colored fibers associated with calcite
##STATUS=The identification of this mineral is not yet confirmed.
##URL=rruff.info/R070471
131.5238, 0.0000000E+00
132.0059, 12.44879
132.4880, 7.696838
132.9702, 1.654114
133.4523, 6.552612
133.9344, 16.81451
134.4165, 20.35138
134.8986, 15.98804
135.3807, 9.296875
135.8629, 8.209534
136.3450, 15.70691
136.8271, 19.65710
137.3092, 12.13409
137.7913, 5.633179
138.2734, 11.10376
138.7556, 30.13562
139.2377, 52.27777
139.7198, 59.26733
140.2019, 39.14716
140.6840, 27.56287
141.1661, 30.84357
141.6483, 39.11945
142.1304, 43.50946
142.6125, 41.62323
143.0946, 39.27075
143.5767, 48.46466
144.0588, 82.94836
144.5410, 108.3152
145.0231, 115.8406
145.5052, 118.3243
145.9873, 128.0655
146.4694, 149.5579
146.9515, 177.2709
147.4337, 199.0994
147.9158, 210.7847
148.3979, 220.9677
148.8800, 226.4921
149.3621, 231.9086
149.8442, 244.2164
150.3264, 266.4025
150.8085, 292.3702
151.2906, 306.5359
151.7727, 296.6329
152.2548, 289.1096
152.7369, 284.1159
153.2191, 282.9165
153.7012, 289.9231
154.1833, 307.8314
154.6654, 329.7747
155.1475, 334.9659
155.6296, 306.3525
156.1118, 283.9186
156.5939, 278.2773
157.0760, 281.8773
157.5581, 282.0793
158.0402, 272.5247
158.5223, 258.2822
159.0045, 255.6138
159.4866, 274.2132
159.9687, 288.5315
160.4508, 288.7039
160.9329, 276.4181
161.4150, 259.2843
161.8972, 244.7186
162.3793, 233.8139
162.8614, 231.0389
163.3435, 242.8442
163.8256, 250.4339
164.3077, 243.4725
164.7899, 227.8275
165.2720, 217.7560
165.7541, 221.0269
166.2362, 230.9362
166.7183, 231.1379
167.2004, 219.0934
167.6826, 205.1409
168.1647, 191.2225
168.6468, 178.4402
169.1289, 170.7243
169.6110, 171.5307
170.0931, 176.1710
170.5753, 174.3491
171.0574, 163.3051
171.5395, 152.6719
172.0216, 151.0172
172.5037, 154.1391
172.9858, 149.0257
173.4680, 124.9493
173.9501, 95.56073
174.4322, 86.35614
174.9143, 104.8801
175.3964, 122.7375
175.8785, 120.7023
176.3607, 103.0305
176.8428, 90.00177
177.3249, 89.94678
177.8070, 97.68237
178.2891, 104.9127
178.7712, 111.1595
179.2534, 115.5923
179.7355, 118.9130
180.2176, 120.5355
180.6997, 117.8850
181.1818, 106.8602
181.6639, 94.24103
182.1461, 89.97162
182.6282, 96.07660
183.1103, 102.2977
183.5924, 100.3554
184.0745, 91.70184
184.5566, 86.75250
185.0388, 91.58167
185.5209, 98.60632
186.0030, 101.7446
186.4851, 100.7236
186.9672, 97.70245
187.4493, 91.69208
187.9315, 83.61871
188.4136, 76.48480
188.8957, 69.85754
189.3778, 65.66376
189.8599, 67.80072
190.3420, 76.91919
190.8242, 83.81903
191.3063, 79.45862
191.7884, 65.76062
192.2705, 58.22095
192.7526, 63.37579
193.2347, 72.48029
193.7169, 77.05090
194.1990, 77.14691
194.6811, 75.90289
195.1632, 74.77679
195.6453, 73.80536
196.1274, 73.63739
196.6096, 76.24335
197.0917, 77.31580
197.5738, 71.66284
198.0559, 59.97357
198.5380, 50.91309
199.0201, 53.42120
199.5023, 64.88770
199.9844, 69.44885
200.4665, 61.35406
200.9486, 50.40710
201.4307, 43.88135
201.9128, 41.33301
202.3950, 40.27020
202.8771, 41.19220
203.3592, 42.97229
203.8413, 39.24011
204.3234, 25.70276
204.8055, 12.16302
205.2877, 3.426025
205.7698, 0.8806150
206.2519, 0.4745480
206.7340, 9.028870
207.2161, 24.25397
207.6982, 30.84436
208.1804, 23.38428
208.6625, 15.17950
209.1446, 16.46393
209.6267, 23.85980
210.1088, 28.71521
210.5909, 24.83252
211.0730, 14.94299
211.5552, 5.939514
212.0373, 5.101746
212.5194, 8.958435
213.0015, 6.531799
213.4836, 31.94427
213.9657, 49.55005
214.4479, 48.61060
214.9300, 35.38806
215.4121, 22.28351
215.8942, 7.232544
216.3763, 2.146912
216.8584, 3.443115
217.3406, 15.90717
217.8227, 23.18396
218.3048, 18.00873
218.7869, 7.593201
219.2690, 5.421387
219.7511, 14.30042
220.2333, 21.65729
220.7154, 19.78534
221.1975, 13.46619
221.6796, 7.539185
222.1617, 3.041565
222.6438, 4.6082001E-02
223.1260, 1.221130
223.6081, 2.8748000E-02
224.0902, 0.3863530
224.5723, 4.141418
225.0544, 8.807373
225.5365, 7.479980
226.0187, 3.112061
226.5008, 14.31293
226.9829, 14.69232
227.4650, 3.495789
227.9471, 3.713928
228.4292, 1.692505
228.9114, 11.56207
229.3935, 17.94305
229.8756, 19.76727
230.3577, 19.34027
230.8398, 18.45032
231.3219, 17.05188
231.8041, 14.16809
232.2862, 7.883423
232.7683, 1.594910
233.2504, 1.192749
233.7325, 0.1845700
234.2146, 1.487610
234.6968, 0.9594120
235.1789, 0.9893800
235.6610, 0.3994750
236.1431, 9.389465
236.6252, 17.25720
237.1073, 13.60901
237.5895, 0.4456790
238.0716, 10.86951
238.5537, 7.408630
239.0358, 4.869629
239.5179, 15.69666
240.0000, 27.04224
240.4822, 33.42737
240.9643, 25.34564
241.4464, 6.784241
241.9285, 6.091675
242.4106, 3.231506
242.8927, 7.449280
243.3749, 12.42328
243.8570, 9.886719
244.3391, 5.832153
244.8212, 4.542236
245.3033, 5.287598
245.7854, 6.388977
246.2676, 8.044678
246.7497, 9.563416
247.2318, 10.48291
247.7139, 10.82648
248.1960, 9.670410
248.6781, 5.567810
249.1603, 0.2480470
249.6424, 5.019775
250.1245, 10.72601
250.6066, 12.73499
251.0887, 4.540527
251.5708, 12.28027
252.0530, 26.01740
252.5351, 30.02148
253.0172, 27.59729
253.4993, 28.14014
253.9814, 34.27698
254.4635, 38.70844
254.9457, 36.93304
255.4278, 30.46753
255.9099, 23.15802
256.3920, 15.84302
256.8741, 9.386292
257.3563, 6.548218
257.8384, 8.182190
258.3205, 9.666138
258.8026, 8.666077
259.2847, 6.911987
259.7668, 8.189575
260.2490, 14.00830
260.7311, 19.58832
261.2132, 17.21960
261.6953, 4.464294
262.1774, 3.616882
262.6595, 4.100647
263.1417, 5.9142999E-02
263.6238, 6.825806
264.1059, 15.74744
264.5880, 25.58417
265.0701, 36.02509
265.5522, 47.60535
266.0344, 52.45453
266.5165, 46.27136
266.9986, 37.28955
267.4807, 29.12042
267.9628, 22.48792
268.4449, 18.39319
268.9271, 18.12708
269.4092, 21.43567
269.8913, 21.81750
270.3734, 17.62506
270.8555, 13.23920
271.3376, 8.429993
271.8198, 4.278076
272.3019, 3.253418
272.7840, 7.014954
273.2661, 13.79919
273.7482, 16.84985
274.2303, 11.31445
274.7125, 7.463806
275.1946, 6.360535
275.6767, 7.368347
276.1588, 10.62079
276.6409, 16.02863
277.1230, 21.59821
277.6052, 23.39337
278.0873, 17.18420
278.5694, 14.45367
279.0515, 16.89349
279.5336, 21.03314
280.0157, 24.92133
280.4979, 28.00769
280.9800, 30.34668
281.4621, 31.81415
281.9442, 31.87762
282.4263, 33.42194
282.9084, 41.51086
283.3906, 46.32874
283.8727, 40.35553
284.3548, 26.90704
284.8369, 15.93079
285.3190, 15.71716
285.8011, 25.35840
286.2833, 32.71313
286.7654, 37.85864
287.2475, 40.03174
287.7296, 34.90210
288.2117, 27.78668
288.6938, 27.41626
289.1760, 39.43689
289.6581, 57.42926
290.1402, 64.41565
290.6223, 55.84448
291.1044, 45.76831
291.5865, 37.15588
292.0687, 29.22937
292.5508, 20.45239
293.0329, 10.27075
293.5150, 2.373901
293.9971, 3.963440
294.4792, 16.68262
294.9614, 21.13007
295.4435, 2.429443
295.9256, 16.63519
296.4077, 16.06207
296.8898, 3.582703
297.3719, 22.27509
297.8541, 24.02454
298.3362, 12.68207
298.8183, 4.961487
299.3004, 2.701904
299.7825, 4.048950
300.2646, 9.597107
300.7468, 17.66492
301.2289, 23.48138
301.7110, 24.06982
302.1931, 21.89948
302.6752, 19.55206
303.1573, 16.80090
303.6395, 16.76843
304.1216, 25.03839
304.6037, 36.46375
305.0858, 38.23889
305.5679, 21.83441
306.0500, 5.069946
306.5322, 1.229858
307.0143, 7.549438
307.4964, 13.61249
307.9785, 15.63562
308.4606, 14.80011
308.9427, 12.75995
309.4249, 7.495667
309.9070, 6.014832
310.3891, 14.09668
310.8712, 25.60846
311.3533, 32.31512
311.8354, 32.31586
312.3176, 27.85516
312.7997, 20.33734
313.2818, 7.626526
313.7639, 2.592163
314.2460, 13.08179
314.7281, 24.84937
315.2103, 28.51495
315.6924, 24.40674
316.1745, 17.50897
316.6566, 10.99072
317.1387, 4.999573
317.6208, 2.013367
318.1030, 2.752625
318.5851, 5.423767
319.0672, 12.16644
319.5493, 20.07593
320.0314, 23.82495
320.5135, 21.15277
320.9957, 15.59638
321.4778, 15.33154
321.9599, 25.83588
322.4420, 32.00763
322.9241, 30.54688
323.4063, 26.69604
323.8884, 23.48651
324.3705, 21.93256
324.8526, 22.25085
325.3347, 25.81873
325.8168, 34.00684
326.2990, 37.17291
326.7811, 30.52710
327.2632, 23.21887
327.7453, 17.98816
328.2274, 14.97534
328.7095, 14.02283
329.1917, 16.17664
329.6738, 19.86487
330.1559, 19.04639
330.6380, 10.70477
331.1201, 5.170837
331.6022, 9.806396
332.0844, 18.21539
332.5665, 23.37122
333.0486, 23.11121
333.5307, 20.52045
334.0128, 18.51776
334.4949, 17.07007
334.9770, 14.97662
335.4591, 10.60101
335.9413, 7.115845
336.4234, 9.224731
336.9055, 17.36743
337.3876, 23.41553
337.8697, 22.53088
338.3518, 17.51648
338.8340, 12.68958
339.3161, 8.493774
339.7982, 5.549438
340.2803, 4.759827
340.7624, 6.205933
341.2445, 7.129578
341.7267, 4.764343
342.2088, 4.447937
342.6909, 12.05908
343.1730, 25.16992
343.6551, 35.00586
344.1372, 36.56384
344.6194, 32.26813
345.1015, 30.15973
345.5836, 35.41321
346.0657, 35.96375
346.5478, 24.53564
347.0299, 10.73730
347.5121, 5.024658
347.9942, 9.800903
348.4763, 20.02759
348.9584, 30.14337
349.4405, 42.45459
349.9226, 45.89587
350.4048, 29.52533
350.8869, 15.85681
351.3690, 19.33655
351.8511, 35.27979
352.3332, 47.88129
352.8153, 47.05682
353.2975, 35.80676
353.7796, 27.57184
354.2617, 27.19122
354.7438, 26.18085
355.2259, 20.08026
355.7080, 11.83923
356.1902, 3.114990
356.6723, 5.699585
357.1544, 10.81128
357.6365, 2.560730
358.1186, 20.34845
358.6007, 35.60791
359.0829, 35.74274
359.5650, 30.74585
360.0471, 28.51874
360.5292, 28.64020
361.0113, 27.40295
361.4934, 20.88324
361.9756, 12.31757
362.4577, 7.736328
362.9398, 7.573303
363.4219, 10.49255
363.9040, 18.26691
364.3861, 28.24530
364.8683, 32.36353
365.3504, 26.27130
365.8325, 18.15979
366.3146, 10.53467
366.7967, 4.514587
367.2788, 3.996399
367.7610, 11.25848
368.2431, 21.50427
368.7252, 26.42926
369.2073, 23.35547
369.6894, 22.00214
370.1715, 24.20087
370.6537, 27.39368
371.1358, 30.47925
371.6179, 32.74585
372.1000, 32.85846
372.5821, 28.88922
373.0642, 20.98297
373.5464, 16.04089
374.0285, 15.60669
374.5106, 16.50049
374.9927, 20.49646
375.4748, 24.55792
375.9569, 24.05206
376.4391, 17.10541
376.9212, 8.267517
377.4033, 5.806030
377.8854, 11.33777
378.3675, 17.24542
378.8496, 24.32208
379.3318, 30.30731
379.8139, 34.91113
380.2960, 37.59326
380.7781, 36.83282
381.2602, 26.42450
381.7423, 10.47034
382.2245, 7.560547
382.7066, 22.67914
383.1887, 36.58069
383.6708, 35.24524
384.1529, 26.12152
384.6350, 20.99390
385.1172, 23.84222
385.5993, 27.32379
386.0814, 25.40723
386.5635, 19.42389
387.0456, 13.94604
387.5277, 10.11700
388.0099, 7.775513
388.4920, 6.737549
388.9741, 7.018066
389.4562, 9.580139
389.9383, 16.60406
390.4204, 22.80212
390.9026, 23.05750
391.3847, 18.47443
391.8668, 16.03107
392.3489, 21.52319
392.8310, 33.05371
393.3131, 36.06433
393.7953, 18.68628
394.2774, 7.070740
394.7595, 6.336670
395.2416, 12.15021
395.7237, 22.53583
396.2058, 35.58362
396.6880, 45.54468
397.1701, 41.32574
397.6522, 17.56750
398.1343, 5.382385
398.6164, 15.59869
399.0985, 27.79504
399.5807, 34.67316
400.0628, 36.91217
400.5449, 37.15045
401.0270, 35.80554
401.5091, 33.95587
401.9912, 35.12091
402.4734, 40.39569
402.9555, 40.98468
403.4376, 29.31647
403.9197, 14.29535
404.4018, 6.985718
404.8839, 8.334229
405.3661, 12.43439
405.8482, 18.38934
406.3303, 24.79852
406.8124, 30.05450
407.2945, 34.07617
407.7766, 33.18591
408.2588, 21.30133
408.7409, 0.9880370
409.2230, 10.42102
409.7051, 1.537842
410.1872, 16.84552
410.6693, 32.06512
411.1515, 44.50122
411.6336, 49.69678
412.1157, 45.58575
412.5978, 35.06183
413.0799, 23.15375
413.5620, 4.722351
414.0442, 4.055603
414.5263, 3.383728
415.0084, 12.60162
415.4905, 15.87805
415.9726, 14.23505
416.4547, 13.38239
416.9369, 17.95892
417.4190, 25.78827
417.9011, 27.28925
418.3832, 18.46149
418.8653, 13.32178
419.3474, 23.58844
419.8296, 36.30139
420.3117, 37.77808
420.7938, 24.67371
421.2759, 10.15118
421.7580, 2.957031
422.2401, 2.008789
422.7223, 5.350586
423.2044, 14.11249
423.6865, 21.51440
424.1686, 20.03613
424.6507, 10.80035
425.1328, 5.614441
425.6150, 5.964844
426.0971, 10.01904
426.5792, 21.07983
427.0613, 34.85211
427.5434, 40.77258
428.0255, 34.14722
428.5077, 20.85504
428.9898, 11.89905
429.4719, 9.014709
429.9540, 7.199097
430.4361, 6.466736
430.9182, 6.634705
431.4004, 8.054199
431.8825, 10.33630
432.3646, 12.64435
432.8467, 14.64276
433.3288, 15.92480
433.8109, 14.40558
434.2931, 8.040588
434.7752, 3.559631
435.2573, 4.775879
435.7394, 7.904053
436.2215, 10.26202
436.7036, 11.37964
437.1858, 10.59900
437.6679, 5.093628
438.1500, 2.665527
438.6321, 4.293152
439.1142, 2.266357
439.5963, 8.690308
440.0785, 7.651184
440.5606, 1.472656
441.0427, 0.2947390
441.5248, 10.04797
442.0069, 18.79834
442.4890, 19.49762
442.9712, 15.88928
443.4533, 15.12988
443.9354, 19.47247
444.4175, 24.67651
444.8996, 24.83972
445.3817, 18.83148
445.8639, 11.86060
446.3460, 0.6688840
446.8281, 9.388245
447.3102, 7.542419
447.7923, 0.8027950
448.2744, 7.499084
448.7566, 8.152954
449.2387, 5.645752
449.7208, 6.383911
450.2029, 11.55121
450.6850, 15.06171
451.1671, 15.56598
451.6493, 14.04083
452.1314, 8.380249
452.6135, 2.9358000E-02
453.0956, 2.470764
453.5777, 11.98639
454.0598, 31.60278
454.5420, 36.82739
455.0241, 27.47351
455.5062, 17.73889
455.9883, 14.53705
456.4704, 16.11096
456.9525, 16.83740
457.4347, 16.82892
457.9168, 15.85706
458.3989, 13.43109
458.8810, 10.27765
459.3631, 6.855713
459.8452, 3.364624
460.3274, 0.1090090
460.8095, 3.822571
461.2916, 7.528748
461.7737, 7.199585
462.2558, 0.7141110
462.7379, 7.184753
463.2201, 20.28339
463.7022, 31.81134
464.1843, 33.48669
464.6664, 23.82220
465.1485, 11.27338
465.6306, 2.203125
466.1128, 3.023804
466.5949, 5.8533002E-02
467.0770, 16.86578
467.5591, 30.83679
468.0412, 24.97089
468.5233, 7.502625
469.0055, 4.405640
469.4876, 6.526123
469.9697, 5.079895
470.4518, 2.495667
470.9339, 0.8157960
471.4160, 4.663391
471.8982, 8.880127
472.3803, 11.35211
472.8624, 7.436035
473.3445, 5.052612
473.8266, 11.21179
474.3087, 7.467224
474.7909, 2.414490
475.2730, 1.328003
475.7551, 4.149902
476.2372, 7.178162
476.7193, 10.85938
477.2014, 14.42725
477.6836, 16.90662
478.1657, 18.43805
478.6478, 17.57349
479.1299, 11.41797
479.6120, 5.886719
480.0941, 5.130310
480.5763, 8.054443
481.0584, 11.27631
481.5405, 13.12738
482.0226, 15.01825
482.5047, 18.84772
482.9868, 24.04224
483.4690, 29.06494
483.9511, 34.10236
484.4332, 36.55530
484.9153, 31.65588
485.3974, 16.00238
485.8795, 6.939514
486.3617, 7.081848
486.8438, 11.55188
487.3259, 21.95715
487.8080, 34.14038
488.2901, 39.52527
488.7722, 33.61462
489.2544, 21.33960
489.7365, 13.03778
490.2186, 10.01984
490.7007, 6.751404
491.1828, 0.4577640
491.6649, 5.032104
492.1471, 1.418884
492.6292, 7.891296
493.1113, 14.98438
493.5934, 14.67474
494.0755, 11.52362
494.5576, 12.44922
495.0398, 16.99988
495.5219, 19.27161
496.0040, 15.70129
496.4861, 11.06976
496.9682, 13.51001
497.4503, 24.25641
497.9325, 32.00732
498.4146, 35.05139
498.8967, 35.21588
499.3788, 32.34216
499.8609, 27.63660
500.3430, 24.12158
500.8252, 23.40448
501.3073, 24.38977
501.7894, 24.81976
502.2715, 25.09363
502.7536, 23.71259
503.2357, 16.32001
503.7179, 11.03223
504.2000, 13.31940
504.6821, 20.81104
505.1642, 27.93048
505.6463, 32.38275
506.1284, 34.38702
506.6106, 33.67889
507.0927, 30.56219
507.5748, 29.15320
508.0569, 31.06256
508.5390, 34.64764
509.0211, 37.87463
509.5033, 40.72437
509.9854, 43.61456
510.4675, 47.78632
510.9496, 50.71576
511.4317, 50.09912
511.9138, 47.26843
512.3960, 46.01959
512.8781, 48.13428
513.3602, 51.52869
513.8423, 51.42578
514.3245, 45.20233
514.8066, 44.07977
515.2887, 53.88269
515.7708, 63.69037
516.2529, 69.66541
516.7350, 71.90918
517.2172, 71.08276
517.6993, 66.63525
518.1814, 60.65405
518.6635, 54.57245
519.1456, 48.71582
519.6277, 44.47339
520.1099, 41.69348
520.5920, 43.53381
521.0741, 56.50848
521.5562, 82.30658
522.0383, 96.05688
522.5204, 88.29663
523.0026, 78.51495
523.4847, 73.04681
523.9668, 71.65967
524.4489, 75.07184
524.9310, 82.93286
525.4131, 91.06561
525.8953, 93.41217
526.3774, 89.24286
526.8595, 85.54620
527.3416, 83.16235
527.8237, 80.43652
528.3058, 73.44165
528.7880, 66.64380
529.2701, 68.67303
529.7522, 85.16486
530.2343, 98.64441
530.7164, 90.66870
531.1985, 70.62976
531.6807, 61.71906
532.1628, 68.56366
532.6449, 77.77216
533.1270, 78.70209
533.6091, 71.90131
534.0912, 64.39642
534.5734, 49.91101
535.0555, 42.78943
535.5376, 51.72906
536.0197, 65.15283
536.5018, 72.69360
536.9839, 72.51971
537.4661, 67.82452
537.9482, 59.24683
538.4303, 48.74078
538.9124, 47.47284
539.3945, 59.01184
539.8766, 67.97070
540.3588, 66.35156
540.8409, 60.78424
541.3230, 59.87982
541.8051, 64.64246
542.2872, 67.36633
542.7693, 62.23907
543.2515, 55.68768
543.7336, 55.76611
544.2157, 61.26575
544.6978, 64.34039
545.1799, 60.47626
545.6620, 52.88391
546.1442, 49.58276
546.6263, 54.36163
547.1084, 55.86725
547.5905, 49.32001
548.0726, 44.28229
548.5547, 47.40283
549.0369, 55.81537
549.5190, 62.34918
550.0011, 63.92181
550.4832, 62.16113
550.9653, 57.28632
551.4474, 50.12036
551.9296, 48.78149
552.4117, 57.20166
552.8938, 65.65320
553.3759, 63.10895
553.8580, 49.71527
554.3401, 43.42822
554.8223, 50.66003
555.3044, 57.83551
555.7865, 59.70245
556.2686, 58.57745
556.7507, 57.03253
557.2328, 55.99243
557.7150, 56.19189
558.1971, 59.13934
558.6792, 64.52209
559.1613, 66.21051
559.6434, 62.55231
560.1255, 58.59210
560.6077, 54.74518
561.0898, 52.35388
561.5719, 53.90308
562.0540, 60.11578
562.5361, 64.70099
563.0182, 62.61737
563.5004, 58.32117
563.9825, 57.67426
564.4646, 60.48560
564.9467, 63.79852
565.4288, 66.52924
565.9109, 67.31702
566.3931, 63.32416
566.8752, 50.44220
567.3573, 41.01416
567.8394, 35.20056
568.3215, 32.23975
568.8036, 31.71814
569.2858, 33.74884
569.7679, 39.61499
570.2500, 51.41956
570.7321, 62.67188
571.2142, 64.23041
571.6964, 57.71631
572.1785, 52.77625
572.6606, 51.18091
573.1427, 51.11804
573.6248, 51.20740
574.1069, 51.50446
574.5891, 52.39923
575.0712, 56.67328
575.5533, 58.05573
576.0354, 53.79022
576.5175, 46.51965
576.9996, 36.98090
577.4818, 26.63495
577.9639, 20.26550
578.4460, 22.82153
578.9281, 31.88513
579.4102, 38.80914
579.8923, 43.55524
580.3745, 46.87622
580.8566, 49.34668
581.3386, 49.99048
581.8207, 47.04871
582.3029, 40.62659
582.7850, 35.89911
583.2671, 34.47363
583.7492, 35.11615
584.2313, 39.76776
584.7134, 45.51007
585.1956, 43.69757
585.6777, 31.17725
586.1598, 17.67462
586.6419, 18.55780
587.1240, 36.98059
587.6061, 43.93628
588.0883, 30.86053
588.5704, 17.38043
589.0525, 7.164490
589.5346, 1.403992
590.0167, 3.048340
590.4988, 13.27850
590.9810, 22.91461
591.4631, 25.81500
591.9452, 24.33978
592.4273, 21.20862
592.9094, 16.96368
593.3915, 14.36847
593.8737, 15.25574
594.3558, 17.96387
594.8379, 18.13495
595.3200, 10.83392
595.8021, 11.26099
596.2842, 29.20581
596.7664, 44.27032
597.2485, 45.31696
597.7306, 36.19525
598.2127, 24.11285
598.6948, 10.70667
599.1769, 1.770203
599.6591, 8.772949
600.1412, 26.75647
600.6233, 32.22693
601.1054, 19.60730
601.5875, 8.826904
602.0696, 16.38409
602.5518, 37.10522
603.0339, 45.91266
603.5160, 28.94458
603.9981, 20.50177
604.4802, 35.12634
604.9623, 50.86206
605.4445, 48.42499
605.9266, 30.72992
606.4087, 13.44000
606.8908, 5.861755
607.3729, 4.623779
607.8550, 4.333130
608.3372, 4.989014
608.8193, 4.728577
609.3014, 1.736755
609.7835, 1.065186
610.2656, 9.932068
610.7477, 26.30829
611.2299, 34.11243
611.7120, 24.95148
612.1941, 16.84503
612.6762, 15.32141
613.1583, 18.22925
613.6404, 25.73419
614.1226, 35.46930
614.6047, 40.23743
615.0868, 32.94836
615.5689, 18.50824
616.0510, 12.12073
616.5331, 14.97974
617.0153, 19.77423
617.4974, 26.96240
617.9795, 32.91443
618.4616, 32.90344
618.9437, 27.90833
619.4258, 24.37384
619.9080, 25.29791
620.3901, 25.81537
620.8722, 24.01141
621.3543, 20.34094
621.8364, 12.34686
622.3185, 0.7094730
622.8007, 6.111755
623.2828, 1.367126
623.7649, 19.85590
624.2470, 28.21704
624.7291, 22.76508
625.2112, 18.48645
625.6934, 22.71869
626.1755, 26.73639
626.6576, 19.85876
627.1397, 3.244812
627.6218, 7.299072
628.1039, 3.400696
628.5861, 3.566162
629.0682, 6.307190
629.5503, 6.674500
630.0324, 7.990784
630.5145, 11.25757
630.9966, 16.74884
631.4788, 26.34369
631.9609, 38.86353
632.4430, 38.71698
632.9251, 18.61169
633.4072, 2.987366
633.8893, 3.492188
634.3715, 8.229370
634.8536, 5.585754
635.3357, 4.178223
635.8178, 10.71484
636.2999, 9.371155
636.7820, 4.589539
637.2642, 2.240051
637.7463, 9.859192
638.2284, 15.29858
638.7105, 17.53888
639.1926, 17.94885
639.6747, 17.83118
640.1569, 17.11957
640.6390, 16.59460
641.1211, 17.79993
641.6032, 16.56274
642.0853, 6.539368
642.5674, 2.253235
643.0496, 0.3612670
643.5317, 14.29364
644.0138, 23.50269
644.4959, 17.85907
644.9780, 10.10162
645.4601, 10.80206
645.9423, 17.15625
646.4244, 23.67120
646.9065, 29.10339
647.3886, 31.54297
647.8707, 29.49902
648.3528, 23.37848
648.8350, 18.16937
649.3171, 13.05890
649.7992, 10.88629
650.2813, 15.34949
650.7634, 20.92792
651.2455, 22.27618
651.7277, 19.66418
652.2098, 17.50055
652.6919, 17.24762
653.1740, 17.82648
653.6561, 19.82867
654.1382, 21.75226
654.6204, 19.73541
655.1025, 13.20001
655.5846, 8.510864
656.0667, 13.28870
656.5488, 24.98254
657.0309, 25.01300
657.5131, 7.252869
657.9952, 2.734985
658.4773, 7.057617
658.9594, 22.12030
659.4415, 29.42566
659.9236, 29.50500
660.4058, 27.00189
660.8879, 21.06769
661.3700, 14.75311
661.8521, 7.895569
662.3342, 2.772095
662.8163, 3.949280
663.2985, 11.31866
663.7806, 19.32599
664.2627, 23.54388
664.7448, 24.44586
665.2269, 24.06927
665.7090, 22.22723
666.1912, 19.76959
666.6733, 15.18109
667.1554, 12.02002
667.6375, 15.50073
668.1196, 24.04803
668.6017, 29.06757
669.0839, 31.09015
669.5660, 27.81079
670.0481, 12.66754
670.5302, 4.444641
671.0123, 13.85504
671.4944, 14.50574
671.9766, 9.713440
672.4587, 0.3573000
672.9408, 10.38245
673.4229, 15.88593
673.9050, 16.09760
674.3871, 14.82562
674.8693, 12.22241
675.3514, 9.656616
675.8335, 7.720276
676.3156, 6.510559
676.7977, 5.974731
677.2798, 8.044189
677.7620, 7.932434
678.2441, 1.542236
678.7262, 4.292358
679.2083, 3.052185
679.6904, 3.110046
680.1725, 7.424927
680.6547, 6.271118
681.1368, 3.460510
681.6189, 2.920532
682.1010, 4.359070
682.5831, 6.877625
683.0652, 10.46423
683.5474, 13.97937
684.0295, 16.80560
684.5116, 18.75818
684.9937, 19.56744
685.4758, 17.80017
685.9579, 17.78741
686.4401, 22.19452
686.9222, 25.03552
687.4043, 22.51389
687.8864, 17.09332
688.3685, 12.20703
688.8506, 8.643250
689.3328, 7.937347
689.8149, 14.68857
690.2970, 23.47464
690.7791, 24.37482
691.2612, 17.85443
691.7433, 10.35776
692.2255, 4.431030
692.7076, 1.847198
693.1897, 6.636658
693.6718, 20.93188
694.1539, 24.96341
694.6360, 10.53143
695.1182, 1.335236
695.6003, 2.343994
696.0824, 0.8180240
696.5645, 1.400269
697.0466, 1.021210
697.5287, 1.411072
698.0109, 5.465912
698.4930, 11.94556
698.9751, 10.58038
699.4572, 4.881378
699.9393, 4.862701
700.4214, 3.987427
700.9036, 9.608704
701.3857, 11.39432
701.8678, 0.9991150
702.3499, 4.505707
702.8320, 2.827057
703.3141, 0.8634950
703.7963, 9.027985
704.2784, 1.344452
704.7605, 6.518890
705.2426, 7.083893
705.7247, 11.08246
706.2068, 7.790955
706.6890, 6.743652
707.1711, 12.94653
707.6532, 15.08188
708.1353, 11.03055
708.6174, 15.15436
709.0995, 4.498596
709.5817, 6.788300
710.0638, 14.68347
710.5459, 10.89502
711.0280, 15.11349
711.5101, 16.26010
711.9922, 3.510132
712.4744, 14.93430
712.9565, 15.95435
713.4386, 6.210052
713.9207, 16.80103
714.4028, 8.509369
714.8849, 6.942688
715.3671, 10.44467
715.8492, 8.584320
716.3313, 15.16122
716.8134, 13.68973
717.2955, 11.49866
717.7776, 12.44720
718.2598, 4.534760
718.7419, 13.13614
719.2240, 10.51782
719.7061, 13.43561
720.1882, 17.56693
720.6703, 11.95947
721.1525, 16.62704
721.6346, 5.353302
722.1167, 7.412476
722.5988, 8.032318
723.0809, 17.19040
723.5630, 6.009277
724.0452, 7.703339
724.5273, 14.86282
725.0094, 14.34073
725.4915, 17.02621
725.9736, 10.20456
726.4557, 12.32401
726.9379, 12.00156
727.4200, 20.17755
727.9021, 21.60141
728.3842, 14.60892
728.8663, 7.114594
729.3484, 14.96188
729.8306, 8.497284
730.3127, 10.42340
730.7948, 4.344666
731.2769, 5.247437
731.7590, 6.034912
732.2411, 10.41556
732.7233, 3.886383
733.2054, 11.50128
733.6875, 10.93604
734.1696, 11.23639
734.6517, 14.12167
735.1339, 22.51456
735.6160, 27.17990
736.0981, 25.91522
736.5802, 23.04767
737.0623, 18.18365
737.5444, 14.33493
738.0266, 16.05066
738.5087, 24.45523
738.9908, 30.03174
739.4729, 28.17233
739.9550, 22.96167
740.4371, 14.87012
740.9193, 6.604156
741.4014, 4.289032
741.8835, 8.698029
742.3656, 13.00122
742.8477, 10.34143
743.3298, 3.363464
743.8120, 0.8439330
744.2941, 3.024414
744.7762, 6.229584
745.2583, 10.26230
745.7404, 13.61536
746.2225, 15.29004
746.7047, 15.22729
747.1868, 13.00305
747.6689, 4.203979
748.1510, 0.2603150
748.6331, 3.211060
749.1152, 8.116638
749.5974, 10.68054
750.0795, 11.69177
750.5616, 13.98581
751.0437, 19.23566
751.5258, 21.79800
752.0079, 14.41394
752.4901, 3.931976
752.9722, 0.9087220
753.4543, 0.1730350
753.9364, 4.225922
754.4185, 11.76324
754.9006, 18.75333
755.3828, 21.29688
755.8649, 20.26413
756.3470, 17.73984
756.8291, 13.48700
757.3112, 8.211517
757.7933, 0.9689940
758.2755, 6.936737
758.7576, 1.207550
759.2397, 15.20679
759.7218, 23.85916
760.2039, 19.83939
760.6860, 15.44495
761.1682, 2.124329
761.6503, 10.61508
762.1324, 15.09457
762.6145, 16.42120
763.0966, 3.876312
763.5787, 9.252655
764.0609, 7.442749
764.5430, 5.343719
765.0251, 13.25888
765.5072, 2.729004
765.9893, 10.45200
766.4714, 10.88147
766.9536, 14.56204
767.4357, 11.07138
767.9178, 9.837952
768.3999, 15.82596
768.8820, 17.80933
769.3641, 13.50098
769.8463, 17.32812
770.3284, 6.519775
770.8105, 8.661896
771.2926, 16.33682
771.7747, 12.37695
772.2568, 16.43564
772.7390, 17.39883
773.2211, 4.495178
773.7032, 10.45517
774.1853, 12.54263
774.6674, 12.71014
775.1495, 10.68063
775.6317, 7.775818
776.1138, 3.733337
776.5959, 1.647522
777.0780, 5.124542
777.5601, 11.73315
778.0422, 18.49377
778.5244, 24.46255
779.0065, 26.65512
779.4886, 23.48904
779.9707, 18.05939
780.4528, 13.95221
780.9349, 11.25345
781.4171, 13.43265
781.8992, 22.89456
782.3813, 28.64780
782.8634, 25.93457
783.3455, 19.77438
783.8276, 14.02246
784.3098, 8.929169
784.7919, 9.358673
785.2740, 22.46506
785.7561, 31.11728
786.2382, 30.62268
786.7203, 26.19745
787.2025, 18.93610
787.6846, 11.41940
788.1667, 9.780426
788.6488, 17.45761
789.1309, 24.79672
789.6130, 23.97974
790.0952, 19.59799
790.5773, 17.71234
791.0594, 17.77713
791.5415, 14.62967
792.0236, 6.637665
792.5057, 8.9569002E-02
792.9879, 3.610657
793.4700, 14.95221
793.9521, 22.75647
794.4342, 27.17578
794.9163, 24.16812
795.3984, 9.385773
795.8806, 3.118866
796.3627, 1.538818
796.8448, 20.19025
797.3269, 30.64938
797.8090, 28.23291
798.2911, 25.11591
798.7733, 19.47214
799.2554, 15.58002
799.7375, 17.08926
800.2196, 21.45908
800.7017, 24.44812
801.1838, 25.26389
801.6660, 24.11649
802.1481, 18.87292
802.6302, 14.06763
803.1123, 13.94812
803.5944, 16.56711
804.0765, 18.41019
804.5587, 18.65030
805.0408, 18.64648
805.5229, 19.89462
806.0050, 20.79474
806.4871, 17.03308
806.9692, 10.11075
807.4514, 8.638580
807.9335, 14.11060
808.4156, 20.20319
808.8977, 22.70233
809.3798, 22.49179
809.8619, 22.21146
810.3441, 22.93353
810.8262, 17.73965
811.3083, 1.323730
811.7904, 10.40302
812.2725, 9.415283
812.7546, 1.173492
813.2368, 8.644531
813.7189, 20.47357
814.2010, 26.28793
814.6831, 20.33676
815.1652, 14.66226
815.6473, 12.58087
816.1295, 12.29608
816.6116, 14.04596
817.0937, 16.78384
817.5758, 17.61453
818.0579, 14.50110
818.5400, 11.91730
819.0222, 14.20520
819.5043, 18.73615
819.9864, 22.87073
820.4685, 25.47330
820.9506, 23.08017
821.4327, 14.73932
821.9149, 6.267975
822.3970, 5.254517
822.8791, 10.02017
823.3612, 13.19281
823.8433, 14.97128
824.3254, 14.88364
824.8076, 12.37494
825.2897, 10.57928
825.7718, 12.92072
826.2539, 18.05383
826.7360, 18.78204
827.2181, 11.75580
827.7003, 8.390686
828.1824, 11.23618
828.6645, 15.28394
829.1466, 20.22717
829.6287, 23.85107
830.1108, 22.21829
830.5930, 14.21823
831.0751, 7.024475
831.5572, 0.4237370
832.0393, 3.687988
832.5214, 3.352417
833.0035, 12.92352
833.4857, 15.40939
833.9678, 11.28476
834.4499, 9.019470
834.9320, 14.65210
835.4141, 19.66858
835.8962, 13.28244
836.3784, 2.929077
836.8605, 0.7189640
837.3426, 6.054596
837.8247, 12.54361
838.3068, 17.65100
838.7889, 20.40482
839.2711, 19.47888
839.7532, 16.11246
840.2353, 14.83997
840.7174, 15.66803
841.1995, 18.65738
841.6816, 24.38351
842.1638, 28.52298
842.6459, 26.54419
843.1280, 20.27341
843.6101, 18.80853
844.0922, 26.16232
844.5743, 26.18912
845.0565, 11.58289
845.5386, 1.019409
846.0207, 2.346344
846.5028, 3.290253
846.9849, 9.023987
847.4670, 15.08704
847.9492, 19.82178
848.4313, 22.92126
848.9134, 24.85651
849.3955, 27.00485
849.8776, 27.11050
850.3597, 19.87469
850.8419, 8.351135
851.3240, 4.514191
851.8061, 17.19571
852.2882, 27.38693
852.7703, 17.95200
853.2524, 3.319031
853.7346, 0.4730830
854.2167, 4.563812
854.6988, 8.826782
855.1809, 9.048981
855.6630, 9.538452
856.1451, 16.08154
856.6273, 24.58615
857.1094, 25.10913
857.5915, 19.78220
858.0736, 19.08432
858.5557, 24.81461
859.0378, 28.50891
859.5200, 23.80219
860.0021, 14.48053
860.4842, 9.193085
860.9663, 8.146210
861.4484, 7.622925
861.9305, 6.797302
862.4127, 10.03247
862.8948, 21.31134
863.3769, 33.41306
863.8590, 36.83539
864.3411, 31.52048
864.8232, 27.02396
865.3054, 21.76392
865.7875, 20.07730
866.2696, 29.57605
866.7517, 35.77634
867.2338, 24.64371
867.7159, 5.330383
868.1981, 0.6092530
868.6802, 14.20929
869.1623, 22.90982
869.6444, 10.77875
870.1265, 9.5581003E-02
870.6086, 4.334717
871.0908, 14.16949
871.5729, 17.44366
872.0550, 13.59515
872.5371, 10.62970
873.0192, 12.81464
873.5013, 16.10727
873.9835, 18.82108
874.4656, 20.05588
874.9477, 16.62387
875.4298, 10.78650
875.9119, 10.24127
876.3940, 17.65833
876.8762, 24.05426
877.3583, 16.45331
877.8404, 3.089111
878.3225, 3.060577
878.8046, 12.95664
879.2867, 19.25021
879.7689, 19.10046
880.2510, 16.86276
880.7331, 15.44946
881.2152, 14.93002
881.6973, 16.20697
882.1794, 19.25302
882.6616, 18.13852
883.1437, 11.49832
883.6258, 9.605988
884.1079, 17.92163
884.5900, 28.58829
885.0721, 32.45389
885.5543, 29.74799
886.0364, 24.00507
886.5185, 11.39432
887.0006, 5.398071
887.4827, 12.20718
887.9648, 19.38821
888.4470, 18.35574
888.9291, 12.97818
889.4112, 12.02771
889.8933, 16.88376
890.3754, 20.26126
890.8575, 21.69098
891.3397, 21.19620
891.8218, 16.92245
892.3039, 12.18384
892.7860, 10.27341
893.2681, 10.66531
893.7502, 10.66086
894.2324, 10.16061
894.7145, 7.882385
895.1966, 0.6949160
895.6787, 7.266296
896.1608, 3.384796
896.6429, 5.933929
897.1251, 12.01413
897.6072, 13.19980
898.0893, 14.15936
898.5714, 18.56403
899.0535, 22.59772
899.5356, 22.03278
900.0178, 19.25146
900.4999, 17.88733
900.9820, 17.81747
901.4641, 16.27792
901.9462, 12.01230
902.4283, 8.871490
902.9105, 12.29202
903.3926, 19.21567
903.8747, 24.31888
904.3568, 27.52448
904.8389, 27.43576
905.3210, 24.03113
905.8032, 20.36682
906.2853, 18.69144
906.7674, 18.10669
907.2495, 16.23196
907.7316, 13.42960
908.2137, 13.96783
908.6959, 18.22208
909.1780, 21.66672
909.6601, 22.72446
910.1422, 21.76944
910.6243, 18.96896
911.1064, 14.63934
911.5886, 10.23276
912.0707, 4.731232
912.5528, 5.491425
913.0349, 16.35037
913.5170, 25.38248
913.9991, 25.79379
914.4813, 20.69870
914.9634, 14.69919
915.4455, 7.062531
915.9276, 4.497070
916.4097, 11.02432
916.8918, 15.29727
917.3740, 11.42789
917.8561, 8.585999
918.3382, 16.32458
918.8203, 30.06097
919.3024, 36.78336
919.7845, 34.37573
920.2667, 30.23111
920.7488, 22.52698
921.2309, 15.96579
921.7130, 11.24957
922.1951, 9.180847
922.6772, 12.35742
923.1594, 19.38925
923.6415, 23.01807
924.1236, 20.54111
924.6057, 16.45523
925.0878, 11.47775
925.5699, 6.050262
926.0521, 1.143616
926.5342, 7.750427
927.0163, 10.94598
927.4984, 10.08694
927.9805, 5.503052
928.4626, 6.750061
928.9448, 17.76312
929.4269, 21.58368
929.9090, 21.58276
930.3911, 19.65021
930.8732, 17.49619
931.3553, 19.11862
931.8375, 25.76437
932.3196, 29.83023
932.8017, 22.34497
933.2838, 12.15152
933.7659, 9.603485
934.2480, 11.22910
934.7302, 10.30719
935.2123, 6.749664
935.6944, 5.258759
936.1765, 8.357056
936.6586, 12.89850
937.1407, 15.87628
937.6229, 17.44461
938.1050, 16.74402
938.5871, 14.90979
939.0692, 16.85291
939.5513, 22.90768
940.0334, 25.86270
940.5156, 19.92514
940.9977, 10.66898
941.4798, 7.930664
941.9619, 10.20386
942.4440, 11.90289
942.9261, 12.69882
943.4083, 12.55518
943.8904, 11.53333
944.3725, 10.88763
944.8546, 12.25055
945.3367, 14.65237
945.8188, 15.62396
946.3010, 15.12207
946.7831, 10.62207
947.2652, 1.531891
947.7473, 1.306946
948.2294, 7.874969
948.7115, 19.68625
949.1937, 22.24948
949.6758, 16.78677
950.1579, 11.16486
950.6400, 4.940125
951.1221, 2.990967
951.6042, 6.787384
952.0864, 11.58749
952.5685, 15.31927
953.0506, 17.30811
953.5327, 15.96738
954.0148, 11.85101
954.4969, 7.240143
954.9791, 0.5033570
955.4612, 1.408691
955.9433, 5.209564
956.4254, 11.17599
956.9075, 9.239410
957.3896, 3.724365
957.8718, 4.367584
958.3539, 12.60019
958.8360, 17.55023
959.3181, 17.57391
959.8002, 17.78302
960.2823, 20.18188
960.7645, 22.14661
961.2466, 20.86108
961.7287, 17.30466
962.2108, 14.68820
962.6929, 13.24448
963.1750, 12.05472
963.6572, 9.752045
964.1393, 9.754333
964.6214, 15.51810
965.1035, 21.84167
965.5856, 24.07092
966.0677, 22.27206
966.5499, 20.04123
967.0320, 16.96790
967.5141, 14.27405
967.9962, 9.502289
968.4783, 8.149139
968.9604, 16.39178
969.4426, 25.92184
969.9247, 27.87930
970.4068, 22.92618
970.8889, 17.44647
971.3710, 9.152893
971.8531, 5.064972
972.3353, 8.616730
972.8174, 13.49841
973.2995, 17.52771
973.7816, 20.71100
974.2637, 23.28174
974.7458, 25.20276
975.2280, 26.07520
975.7101, 25.89880
976.1922, 24.69199
976.6743, 19.79642
977.1564, 16.19250
977.6385, 19.00833
978.1207, 23.66138
978.6028, 22.87341
979.0849, 16.19379
979.5670, 10.80048
980.0491, 5.113861
980.5313, 5.581085
981.0134, 23.42407
981.4955, 38.71249
981.9776, 33.82324
982.4597, 18.75504
982.9418, 9.775635
983.4240, 9.387939
983.9061, 13.48956
984.3882, 27.34921
984.8703, 36.14346
985.3524, 30.21259
985.8345, 21.35944
986.3167, 19.39929
986.7988, 20.70627
987.2809, 17.03207
987.7630, 6.861664
988.2451, 0.1464540
988.7272, 3.210632
989.2094, 7.013855
989.6915, 6.926514
990.1736, 6.358063
990.6557, 9.344147
991.1378, 13.87759
991.6199, 15.00259
992.1021, 11.58282
992.5842, 9.096283
993.0663, 9.424011
993.5484, 11.69388
994.0305, 18.75027
994.5126, 24.73688
994.9948, 23.23190
995.4769, 16.50937
995.9590, 9.780121
996.4411, 4.255890
996.9232, 0.8803710
997.4053, 0.2709050
997.8875, 1.687378
998.3696, 6.785706
998.8517, 11.99683
999.3338, 14.36566
999.8159, 14.09293
1000.298, 9.821259
1000.780, 0.3438720
1001.262, 1.267792
1001.744, 21.87256
1002.227, 41.13522
1002.709, 36.22021
1003.191, 23.00275
1003.673, 14.58362
1004.155, 12.09409
1004.637, 15.77753
1005.119, 26.36139
1005.601, 31.08475
1006.083, 18.42825
1006.566, 5.703766
1007.048, 1.309143
1007.530, 2.638000
1008.012, 9.774994
1008.494, 19.53558
1008.976, 26.03116
1009.458, 27.75085
1009.940, 26.16721
1010.422, 17.31754
1010.905, 10.97122
1011.387, 15.40582
1011.869, 22.35059
1012.351, 25.10120
1012.833, 23.39142
1013.315, 17.41867
1013.797, 7.009827
1014.279, 1.099243
1014.762, 4.463013
1015.244, 4.404846
1015.726, 1.495941
1016.208, 7.410187
1016.690, 7.599091
1017.172, 3.902252
1017.654, 0.2568660
1018.136, 2.765656
1018.618, 1.333649
1019.101, 12.44049
1019.583, 22.53482
1020.065, 18.55579
1020.547, 11.22089
1021.029, 10.37164
1021.511, 12.97260
1021.993, 9.745331
1022.475, 1.522034
1022.958, 5.706573
1023.440, 8.707703
1023.922, 21.56219
1024.404, 25.45639
1024.886, 25.20377
1025.368, 23.40506
1025.850, 20.66489
1026.332, 16.66730
1026.814, 11.22635
1027.297, 9.234589
1027.779, 16.04425
1028.261, 20.44037
1028.743, 16.09802
1029.225, 11.56183
1029.707, 13.18179
1030.189, 18.14264
1030.671, 22.34384
1031.154, 25.44537
1031.636, 24.66785
1032.118, 16.48386
1032.600, 8.941406
1033.082, 1.371155
1033.564, 2.729889
1034.046, 0.1897890
1034.528, 6.369965
1035.010, 15.06830
1035.493, 25.74432
1035.975, 29.51874
1036.457, 19.25470
1036.939, 12.11789
1037.421, 11.20386
1037.903, 11.77161
1038.385, 11.47964
1038.867, 11.59326
1039.349, 14.59183
1039.832, 20.14594
1040.314, 22.31201
1040.796, 19.30167
1041.278, 16.15451
1041.760, 12.38840
1042.242, 9.434723
1042.724, 7.376587
1043.206, 6.959991
1043.689, 9.840881
1044.171, 15.24744
1044.653, 17.77277
1045.135, 16.99969
1045.617, 14.43240
1046.099, 7.323944
1046.581, 3.160431
1047.063, 6.437744
1047.546, 11.09888
1048.028, 10.46405
1048.510, 7.041382
1048.992, 11.70859
1049.474, 28.74905
1049.956, 33.02298
1050.438, 19.94785
1050.920, 11.94220
1051.402, 16.71082
1051.885, 23.64468
1052.367, 24.13055
1052.849, 20.87747
1053.331, 20.96494
1053.813, 24.72729
1054.295, 24.64984
1054.777, 20.22864
1055.259, 18.34290
1055.741, 21.13242
1056.224, 20.44794
1056.706, 9.921661
1057.188, 3.011383
1057.670, 4.189728
1058.152, 4.574219
1058.634, 9.604187
1059.116, 11.19766
1059.598, 16.34314
1060.081, 25.79810
1060.563, 29.61716
1061.045, 22.25833
1061.527, 12.32867
1062.009, 11.64273
1062.491, 16.56131
1062.973, 16.60953
1063.455, 12.99551
1063.938, 10.23718
1064.420, 8.763275
1064.902, 6.450958
1065.384, 2.649841
1065.866, 1.621735
1066.348, 9.173126
1066.830, 19.16553
1067.312, 20.41409
1067.794, 17.39017
1068.276, 20.18481
1068.759, 27.06049
1069.241, 30.21124
1069.723, 27.61432
1070.205, 22.70667
1070.687, 17.28552
1071.169, 11.81818
1071.651, 5.754913
1072.133, 0.6903080
1072.616, 1.855835
1073.098, 1.716492
1073.580, 2.501190
1074.062, 9.403961
1074.544, 13.80350
1075.026, 13.12891
1075.508, 10.47824
1075.990, 2.690918
1076.472, 0.3601990
1076.955, 14.53015
1077.437, 31.84048
1077.919, 30.91998
1078.401, 15.64783
1078.883, 4.410187
1079.365, 1.859528
1079.847, 2.673584
1080.329, 7.084869
1080.812, 11.57129
1081.294, 17.92084
1081.776, 21.66278
1082.258, 16.65723
1082.740, 7.613770
1083.222, 4.151825
1083.704, 7.390778
1084.186, 12.60455
1084.668, 24.27783
1085.151, 30.51624
1085.633, 27.14975
1086.115, 21.16928
1086.597, 12.91312
1087.079, 6.215607
1087.561, 7.488007
1088.043, 15.87195
1088.525, 18.54898
1089.007, 11.92572
1089.490, 9.564453
1089.972, 13.62357
1090.454, 18.06891
1090.936, 21.81122
1091.418, 21.90399
1091.900, 14.37711
1092.382, 3.501862
1092.864, 4.693726
1093.347, 19.05453
1093.829, 23.19925
1094.311, 16.15182
1094.793, 10.81775
1095.275, 10.25595
1095.757, 12.34512
1096.239, 15.88309
1096.721, 20.25549
1097.203, 25.48993
1097.686, 30.45496
1098.168, 29.87463
1098.650, 24.91672
1099.132, 19.78372
1099.614, 15.63464
1100.096, 15.69073
1100.578, 21.07578
1101.060, 25.40402
1101.542, 22.48901
1102.025, 15.29584
1102.507, 4.327667
1102.989, 5.739441
1103.471, 5.016602
1103.953, 2.952362
1104.435, 8.195129
1104.917, 8.661469
1105.399, 9.024719
1105.882, 11.72977
1106.364, 15.49213
1106.846, 23.94284
1107.328, 29.03885
1107.810, 19.99176
1108.292, 6.430573
1108.774, 1.397614
1109.256, 3.973358
1109.739, 5.151917
1110.221, 2.248779
1110.703, 1.185852
1111.185, 6.128998
1111.667, 10.33987
1112.149, 10.84689
1112.631, 10.39594
1113.113, 10.37057
1113.595, 11.06241
1114.078, 13.83920
1114.560, 19.00735
1115.042, 19.01007
1115.524, 8.149902
1116.006, 5.346130
1116.488, 16.26666
1116.970, 25.65717
1117.452, 27.07230
1117.934, 24.54456
1118.417, 21.58640
1118.899, 18.85718
1119.381, 19.61700
1119.863, 24.41095
1120.345, 24.77454
1120.827, 20.26297
1121.309, 16.11536
1121.791, 13.63843
1122.274, 11.78979
1122.756, 9.452393
1123.238, 7.662262
1123.720, 8.359283
1124.202, 10.52158
1124.684, 10.57016
1125.166, 9.420685
1125.648, 9.311646
1126.130, 10.99689
1126.613, 18.00821
1127.095, 30.75583
1127.577, 37.78229
1128.059, 26.92844
1128.541, 12.43524
1129.023, 7.493835
1129.505, 8.576965
1129.987, 14.74103
1130.469, 22.01172
1130.952, 24.64163
1131.434, 22.49081
1131.916, 19.69513
1132.398, 18.26016
1132.880, 14.26074
1133.362, 0.3856510
1133.844, 9.110596
1134.326, 5.380737
1134.809, 3.524017
1135.291, 13.83759
1135.773, 22.82257
1136.255, 24.56003
1136.737, 17.65564
1137.219, 13.17130
1137.701, 11.52240
1138.183, 11.75305
1138.666, 15.94144
1139.148, 17.06213
1139.630, 9.917175
1140.112, 3.487122
1140.594, 8.464600
1141.076, 20.45306
1141.558, 23.00809
1142.040, 15.93677
1142.522, 12.01617
1143.005, 11.04755
1143.487, 11.99066
1143.969, 14.42599
1144.451, 13.44662
1144.933, 5.923584
1145.415, 1.982361
1145.897, 2.175262
1146.379, 2.878510
1146.861, 11.00388
1147.344, 19.20526
1147.826, 19.55173
1148.308, 13.94003
1148.790, 8.949432
1149.272, 6.889374
1149.754, 9.461487
1150.236, 20.10275
1150.718, 28.44534
1151.201, 25.93448
1151.683, 19.83167
1152.165, 12.34061
1152.647, 7.000122
1153.129, 10.22147
1153.611, 18.57007
1154.093, 20.09265
1154.575, 10.98901
1155.057, 6.164856
1155.540, 11.70929
1156.022, 15.44803
1156.504, 13.81918
1156.986, 12.51651
1157.468, 15.37244
1157.950, 18.36053
1158.432, 15.30307
1158.914, 8.392181
1159.396, 11.22968
1159.879, 25.72083
1160.361, 31.58386
1160.843, 27.32434
1161.325, 21.10602
1161.807, 15.13220
1162.289, 8.840881
1162.771, 1.744415
1163.253, 2.636139
1163.736, 3.182953
1164.218, 13.52606
1164.700, 14.37378
1165.182, 9.680756
1165.664, 9.078186
1166.146, 11.56659
1166.628, 9.163269
1167.110, 0.8809810
1167.593, 2.733582
1168.075, 6.556213
1168.557, 15.99338
1169.039, 15.97968
1169.521, 14.52277
1170.003, 18.89008
1170.485, 23.75296
1170.967, 22.31769
1171.449, 16.19669
1171.932, 10.70258
1172.414, 6.121002
1172.896, 4.233337
1173.378, 7.601440
1173.860, 9.176910
1174.342, 7.153687
1174.824, 5.238464
1175.306, 4.470337
1175.788, 5.837067
1176.271, 11.30991
1176.753, 18.46597
1177.235, 18.99127
1177.717, 13.12173
1178.199, 9.061218
1178.681, 6.793091
1179.163, 2.974213
1179.645, 2.302185
1180.128, 0.2972720
1180.610, 13.21371
1181.092, 26.50952
1181.574, 27.61514
1182.056, 22.20029
1182.538, 14.49387
1183.020, 7.352234
1183.502, 4.431122
1183.984, 5.262787
1184.467, 9.084991
1184.949, 15.23123
1185.431, 23.00375
1185.913, 34.56769
1186.395, 38.16666
1186.877, 21.77411
1187.359, 7.996918
1187.841, 6.182556
1188.323, 8.433960
1188.806, 10.20078
1189.288, 12.21527
1189.770, 16.09576
1190.252, 21.39792
1190.734, 24.09760
1191.216, 24.35889
1191.698, 19.60492
1192.180, 9.856903
1192.663, 2.914642
1193.145, 0.4877930
1193.627, 0.8398130
1194.109, 2.925385
1194.591, 6.723633
1195.073, 14.51917
1195.555, 21.98279
1196.037, 16.87619
1196.520, 6.218994
1197.002, 5.551697
1197.484, 11.95422
1197.966, 14.52539
1198.448, 11.05856
1198.930, 5.649658
1199.412, 1.838165
1199.894, 4.424164
1200.376, 5.273163
1200.859, 15.53336
1201.341, 21.56094
1201.823, 24.52960
1202.305, 23.29269
1202.787, 20.89093
1203.269, 24.19690
1203.751, 32.80246
1204.233, 32.06122
1204.715, 17.98538
1205.198, 9.432220
1205.680, 8.404816
1206.162, 6.225616
1206.644, 3.5186999E-02
1207.126, 2.583527
1207.608, 4.409088
1208.090, 15.15182
1208.572, 22.94055
1209.055, 26.49750
1209.537, 18.54602
1210.019, 5.893829
1210.501, 5.172791
1210.983, 13.30191
1211.465, 18.31528
1211.947, 17.72287
1212.429, 16.18387
1212.911, 15.26541
1213.394, 15.76111
1213.876, 19.99359
1214.358, 23.39792
1214.840, 22.08154
1215.322, 20.74670
1215.804, 25.45081
1216.286, 31.22488
1216.768, 29.29828
1217.250, 20.33502
1217.733, 13.85947
1218.215, 9.165497
1218.697, 10.38315
1219.179, 18.74390
1219.661, 23.15958
1220.143, 21.17462
1220.625, 19.04968
1221.107, 20.71304
1221.590, 22.90720
1222.072, 21.21762
1222.554, 17.84824
1223.036, 16.93201
1223.518, 16.87854
1224.000, 14.14957
1224.482, 10.40125
1224.964, 9.998749
1225.447, 12.58105
1225.929, 14.19202
1226.411, 13.16171
1226.893, 11.57489
1227.375, 8.026031
1227.857, 6.996735
1228.339, 13.42606
1228.821, 18.30600
1229.303, 15.58594
1229.786, 10.79596
1230.268, 10.24658
1230.750, 12.78241
1231.232, 14.01108
1231.714, 13.89664
1232.196, 14.96426
1232.678, 17.10779
1233.160, 18.19772
1233.642, 17.80646
1234.125, 15.38293
1234.607, 10.81513
1235.089, 6.381195
1235.571, 2.651642
1236.053, 2.186340
1236.535, 9.596161
1237.017, 16.70438
1237.499, 12.74942
1237.982, 5.370728
1238.464, 4.676575
1238.946, 9.371704
1239.428, 13.78360
1239.910, 17.88019
1240.392, 18.95627
1240.874, 14.29105
1241.356, 12.71060
1241.839, 17.19122
1242.321, 16.85724
1242.803, 5.999237
1243.285, 0.3385620
1243.767, 10.23621
1244.249, 25.85638
1244.731, 26.12015
1245.213, 16.38208
1245.695, 10.80084
1246.177, 8.428070
1246.660, 7.970978
1247.142, 8.269196
1247.624, 6.017120
1248.106, 1.553680
1248.588, 0.1506960
1249.070, 2.907623
1249.552, 9.099823
1250.034, 23.49280
1250.517, 32.82120
1250.999, 28.21780
1251.481, 21.28323
1251.963, 18.71664
1252.445, 17.84079
1252.927, 15.37744
1253.409, 12.31543
1253.891, 12.94244
1254.374, 17.48914
1254.856, 17.39221
1255.338, 13.02972
1255.820, 10.68106
1256.302, 11.05472
1256.784, 11.03769
1257.266, 9.579010
1257.748, 10.78079
1258.230, 18.83041
1258.713, 25.80380
1259.195, 24.11346
1259.677, 18.76337
1260.159, 10.41998
1260.641, 3.938507
1261.123, 5.377625
1261.605, 11.26987
1262.087, 15.02032
1262.569, 16.02365
1263.052, 12.65625
1263.534, 1.262573
1264.016, 1.876099
1264.498, 5.387329
1264.980, 10.70908
1265.462, 11.18231
1265.944, 12.15533
1266.426, 16.76389
1266.909, 22.17413
1267.391, 25.37311
1267.873, 22.04880
1268.355, 12.61902
1268.837, 1.390015
1269.319, 5.0446000E-02
1269.801, 5.279938
1270.283, 3.426300
1270.766, 0.0000000E+00
##END=



