##NAMES=Gageite
##RRUFFID=R070471
##IDEAL CHEMISTRY=Mn^2+^_21_Si_8_O_27_(OH)_20_
##LOCALITY=Wessels mine, Hotazel, Kalahari manganese field, Northern Cape Province, South Africa
##OWNER=RRUFF
##SOURCE=Michael Scott
##DESCRIPTION=Matted aggregates of tan colored fibers associated with calcite
##STATUS=The identification of this mineral is not yet confirmed.
##URL=rruff.info/R070471
111.5860, 0.0000000E+00
112.0681, 16.77386
112.5502, 51.36975
113.0323, 71.83087
113.5145, 57.94403
113.9966, 36.58606
114.4787, 31.02063
114.9608, 33.03625
115.4429, 33.55231
115.9250, 23.11475
116.4072, 3.915039
116.8893, 6.126648
117.3714, 9.950317
117.8535, 34.26398
118.3356, 54.34143
118.8177, 46.22754
119.2999, 33.93481
119.7820, 25.79187
120.2641, 22.44214
120.7462, 22.58301
121.2283, 29.38837
121.7104, 39.13788
122.1926, 44.81348
122.6747, 41.88849
123.1568, 33.94421
123.6389, 22.28912
124.1210, 3.553711
124.6031, 10.40259
125.0853, 3.757324
125.5674, 19.25256
126.0495, 40.39093
126.5316, 43.50092
127.0137, 36.57013
127.4958, 34.12762
127.9780, 43.05072
128.4601, 55.82605
128.9422, 60.40125
129.4243, 56.70190
129.9064, 50.69098
130.3885, 46.22174
130.8707, 43.69183
131.3528, 44.82104
131.8349, 53.32861
132.3170, 66.45294
132.7991, 72.75702
133.2813, 70.69171
133.7634, 66.89325
134.2455, 72.43115
134.7276, 87.40637
135.2097, 101.5900
135.6918, 108.4043
136.1740, 107.9977
136.6561, 110.7704
137.1382, 117.9551
137.6203, 128.2166
138.1024, 138.5746
138.5845, 149.6862
139.0667, 158.9247
139.5488, 163.1869
140.0309, 160.8415
140.5130, 162.0442
140.9951, 169.2463
141.4772, 181.7509
141.9594, 192.8815
142.4415, 204.4779
142.9236, 212.2492
143.4057, 210.9423
143.8878, 195.0978
144.3699, 181.7277
144.8521, 174.7899
145.3342, 175.2616
145.8163, 176.3677
146.2984, 178.0047
146.7805, 180.3443
147.2626, 183.4001
147.7448, 185.6705
148.2269, 190.5828
148.7090, 199.4872
149.1911, 215.1001
149.6732, 229.6868
150.1553, 245.5478
150.6375, 260.6896
151.1196, 269.3561
151.6017, 264.4089
152.0838, 258.4016
152.5659, 256.4691
153.0480, 263.9995
153.5302, 269.5693
154.0123, 272.3091
154.4944, 272.4130
154.9765, 271.1478
155.4586, 265.4083
155.9407, 260.1786
156.4229, 258.7556
156.9050, 260.4990
157.3871, 258.9743
157.8692, 258.8492
158.3513, 260.9440
158.8334, 257.5118
159.3156, 241.0992
159.7977, 220.5647
160.2798, 205.1133
160.7619, 201.7732
161.2440, 199.9633
161.7261, 194.3115
162.2083, 182.7454
162.6904, 175.0667
163.1725, 181.0981
163.6546, 192.2173
164.1367, 196.7258
164.6188, 180.3911
165.1010, 162.8108
165.5831, 157.7378
166.0652, 172.6783
166.5473, 188.1717
167.0294, 193.8397
167.5115, 191.7208
167.9937, 187.7687
168.4758, 187.2923
168.9579, 185.4059
169.4400, 176.5145
169.9221, 152.1483
170.4042, 129.5247
170.8864, 123.9338
171.3685, 132.9451
171.8506, 142.1862
172.3327, 141.7282
172.8148, 136.0623
173.2969, 131.0106
173.7791, 127.6126
174.2612, 126.2835
174.7433, 128.7648
175.2254, 136.0533
175.7075, 141.5430
176.1896, 135.6455
176.6718, 124.3138
177.1539, 119.3203
177.6360, 132.5662
178.1181, 152.6414
178.6002, 162.6241
179.0823, 161.4269
179.5645, 155.7360
180.0466, 151.7214
180.5287, 148.7915
181.0108, 145.1707
181.4929, 138.7578
181.9750, 130.9288
182.4572, 124.1720
182.9393, 119.8525
183.4214, 116.2523
183.9035, 110.8862
184.3856, 104.1514
184.8677, 97.86621
185.3499, 93.13818
185.8320, 89.78571
186.3141, 87.46625
186.7962, 86.35144
187.2783, 85.82001
187.7604, 84.60681
188.2426, 82.74609
188.7247, 81.05762
189.2068, 79.23682
189.6889, 77.69672
190.1710, 79.94952
190.6531, 89.44983
191.1353, 101.3594
191.6174, 99.28339
192.0995, 82.01440
192.5816, 65.59698
193.0637, 69.37103
193.5458, 91.86359
194.0280, 105.5815
194.5101, 99.75671
194.9922, 79.47754
195.4743, 65.72247
195.9564, 57.98871
196.4385, 58.09052
196.9207, 74.82489
197.4028, 109.3296
197.8849, 130.0549
198.3670, 120.7357
198.8491, 84.68665
199.3312, 64.14020
199.8134, 62.92377
200.2955, 69.01001
200.7776, 64.78461
201.2597, 48.71704
201.7418, 35.22778
202.2239, 31.77850
202.7061, 39.37775
203.1882, 41.68750
203.6703, 37.21686
204.1524, 29.95892
204.6345, 26.71582
205.1166, 27.58221
205.5988, 32.06952
206.0809, 42.61169
206.5630, 61.37421
207.0451, 70.78076
207.5272, 69.01392
208.0093, 58.69836
208.4915, 43.97992
208.9736, 21.66620
209.4557, 3.998413
209.9378, 0.6749270
210.4199, 10.64746
210.9020, 20.50562
211.3842, 28.03119
211.8663, 33.27332
212.3484, 37.04413
212.8305, 40.87787
213.3126, 39.94952
213.7948, 27.69464
214.2769, 3.214294
214.7590, 19.05463
215.2411, 10.73444
215.7232, 15.98907
216.2053, 29.38757
216.6875, 23.42365
217.1696, 13.41528
217.6517, 12.03827
218.1338, 23.53467
218.6159, 31.90961
219.0980, 34.76807
219.5802, 32.38422
220.0623, 28.81848
220.5444, 24.17169
221.0265, 19.20221
221.5086, 14.31531
221.9907, 8.494873
222.4729, 5.220032
222.9550, 6.226501
223.4371, 11.52576
223.9192, 13.02148
224.4013, 8.076538
224.8834, 2.300842
225.3656, 1.771606
225.8477, 9.258057
226.3298, 16.27637
226.8119, 21.43323
227.2940, 24.71741
227.7761, 25.64862
228.2583, 23.61737
228.7404, 19.73737
229.2225, 14.78839
229.7046, 6.776917
230.1867, 1.587952
230.6688, 1.939514
231.1510, 9.425537
231.6331, 12.03888
232.1152, 6.896423
232.5973, 0.9777830
233.0794, 3.340332
233.5615, 3.019104
234.0437, 9.110291
234.5258, 12.55798
235.0079, 11.95868
235.4900, 12.60815
235.9721, 16.89661
236.4542, 21.56622
236.9364, 20.52161
237.4185, 9.272461
237.9006, 9.6375003E-02
238.3827, 3.271118
238.8648, 1.901428
239.3469, 6.035950
239.8291, 9.577209
240.3112, 11.85114
240.7933, 11.27313
241.2754, 4.149109
241.7575, 1.166138
242.2396, 1.167908
242.7218, 6.840393
243.2039, 12.24475
243.6860, 14.15234
244.1681, 13.74481
244.6502, 13.62933
245.1323, 14.58087
245.6145, 14.63495
246.0966, 12.51013
246.5787, 5.976196
247.0608, 3.497925
247.5429, 7.393677
248.0250, 14.28259
248.5072, 15.13959
248.9893, 5.351318
249.4714, 3.114014
249.9535, 4.756165
250.4356, 3.847534
250.9177, 11.35242
251.3999, 18.82343
251.8820, 24.86523
252.3641, 25.20673
252.8462, 15.90546
253.3283, 7.173157
253.8104, 4.420105
254.2926, 11.74408
254.7747, 14.03772
255.2568, 8.001892
255.7389, 2.504517
256.2210, 4.953674
256.7031, 6.059387
257.1852, 16.00708
257.6674, 16.44958
258.1495, 1.865784
258.6316, 6.274048
259.1137, 4.519165
259.5958, 3.411865
260.0779, 5.515564
260.5601, 1.410645
261.0422, 8.395203
261.5243, 10.29883
262.0064, 5.650085
262.4885, 0.9887700
262.9706, 3.574829
263.4528, 7.871338
263.9349, 11.39197
264.4170, 14.53040
264.8991, 16.15735
265.3812, 14.99237
265.8633, 9.727051
266.3455, 6.751770
266.8276, 6.609375
267.3097, 8.799438
267.7918, 12.53113
268.2739, 19.14264
268.7560, 24.09601
269.2382, 22.96960
269.7203, 12.91925
270.2024, 10.69263
270.6845, 21.04156
271.1666, 38.16656
271.6487, 43.12354
272.1309, 32.90521
272.6130, 18.60577
273.0951, 6.668091
273.5772, 3.702148
274.0593, 5.784302
274.5414, 4.623230
275.0236, 21.23859
275.5057, 24.56647
275.9878, 10.80933
276.4699, 3.212891
276.9520, 5.886963
277.4341, 4.084534
277.9163, 10.54980
278.3984, 10.99377
278.8805, 8.394592
279.3626, 10.39209
279.8447, 17.71320
280.3268, 25.85413
280.8090, 33.03857
281.2911, 39.33813
281.7732, 41.53113
282.2553, 38.19556
282.7374, 32.09430
283.2195, 30.10742
283.7017, 32.79596
284.1838, 34.35992
284.6659, 29.89520
285.1480, 19.81024
285.6301, 12.06006
286.1122, 6.877747
286.5944, 4.942017
287.0765, 10.62292
287.5586, 24.22449
288.0407, 33.63855
288.5228, 27.09338
289.0049, 7.684265
289.4871, 1.086914
289.9692, 5.282532
290.4513, 17.11011
290.9334, 16.89441
291.4155, 5.527771
291.8976, 4.287598
292.3798, 3.352905
292.8619, 5.613098
293.3440, 12.51508
293.8261, 16.24786
294.3082, 18.20886
294.7903, 20.54395
295.2725, 23.05603
295.7546, 24.25323
296.2367, 23.21747
296.7188, 20.46503
297.2009, 14.93127
297.6830, 5.186218
298.1652, 2.313599
298.6473, 3.942566
299.1294, 20.70831
299.6115, 33.85059
300.0936, 34.08112
300.5757, 26.96472
301.0579, 21.57513
301.5400, 18.77808
302.0221, 16.99506
302.5042, 15.00067
302.9863, 12.82520
303.4684, 10.64514
303.9506, 4.984253
304.4327, 0.9378660
304.9148, 7.460754
305.3969, 26.37775
305.8790, 43.96545
306.3611, 47.36340
306.8433, 40.92065
307.3254, 33.01233
307.8075, 24.16748
308.2896, 17.40961
308.7717, 16.53302
309.2538, 22.36188
309.7360, 27.06500
310.2181, 22.71674
310.7002, 14.18799
311.1823, 8.776917
311.6644, 10.54279
312.1465, 15.66754
312.6287, 24.02002
313.1108, 35.56982
313.5929, 42.04425
314.0750, 35.19189
314.5571, 22.63831
315.0392, 12.42029
315.5214, 5.925293
316.0035, 3.706787
316.4856, 9.070862
316.9677, 21.95715
317.4498, 30.50726
317.9319, 23.73566
318.4141, 12.56573
318.8962, 6.166260
319.3783, 13.22571
319.8604, 20.30261
320.3425, 22.45361
320.8246, 20.01025
321.3068, 17.50983
321.7889, 16.83911
322.2710, 16.19092
322.7531, 14.37006
323.2352, 6.693298
323.7173, 2.768066
324.1995, 6.835938
324.6816, 17.07349
325.1637, 24.30042
325.6458, 25.14911
326.1279, 24.24725
326.6100, 24.01001
327.0922, 26.62634
327.5743, 27.41992
328.0564, 25.18085
328.5385, 20.79199
329.0206, 17.15698
329.5027, 13.33148
329.9849, 11.15057
330.4670, 11.75922
330.9491, 19.54572
331.4312, 21.79034
331.9133, 14.46869
332.3954, 3.163696
332.8776, 0.9486080
333.3597, 6.108215
333.8418, 14.85645
334.3239, 22.31854
334.8061, 29.33344
335.2882, 32.88440
335.7703, 31.02289
336.2524, 26.41534
336.7345, 23.52997
337.2166, 23.12000
337.6988, 22.95801
338.1809, 22.23853
338.6630, 20.94580
339.1451, 19.83600
339.6272, 19.20074
340.1093, 18.36224
340.5915, 15.56921
341.0736, 9.380463
341.5557, 6.371979
342.0378, 10.35986
342.5199, 20.11017
343.0020, 26.51791
343.4842, 29.34262
343.9663, 29.62805
344.4484, 27.75006
344.9305, 23.75732
345.4126, 19.73700
345.8947, 15.68661
346.3769, 12.28717
346.8590, 11.19565
347.3411, 12.18277
347.8232, 14.73175
348.3053, 20.10849
348.7874, 26.85510
349.2696, 28.45056
349.7517, 21.30850
350.2338, 11.15567
350.7159, 6.169342
351.1980, 5.681061
351.6801, 7.321899
352.1623, 11.99356
352.6444, 17.21091
353.1265, 17.75552
353.6086, 11.24924
354.0907, 3.790619
354.5728, 2.408752
355.0550, 5.371674
355.5371, 7.653595
356.0192, 1.731232
356.5013, 3.740234
356.9834, 1.936432
357.4655, 22.48016
357.9477, 40.64020
358.4298, 43.02539
358.9119, 35.58533
359.3940, 27.97595
359.8761, 25.03729
360.3582, 22.78061
360.8404, 17.27802
361.3225, 7.852875
361.8046, 2.898071
362.2867, 11.67178
362.7688, 23.96097
363.2509, 29.42810
363.7331, 17.88470
364.2152, 5.922546
364.6973, 1.773010
365.1794, 5.118225
365.6615, 5.150543
366.1436, 1.959869
366.6258, 9.923096
367.1079, 14.78751
367.5900, 12.12732
368.0721, 11.33279
368.5542, 14.82028
369.0363, 21.33231
369.5185, 25.14020
370.0006, 23.63809
370.4827, 21.74255
370.9648, 21.70184
371.4469, 25.31073
371.9290, 27.75659
372.4112, 29.87457
372.8933, 30.65997
373.3754, 27.48276
373.8575, 14.80460
374.3396, 5.000732
374.8217, 4.763123
375.3039, 16.44650
375.7860, 23.84848
376.2681, 26.04016
376.7502, 25.01010
377.2323, 23.25620
377.7144, 20.52579
378.1966, 17.94562
378.6787, 15.04422
379.1608, 12.28641
379.6429, 15.13980
380.1250, 25.14374
380.6071, 34.30338
381.0893, 31.08136
381.5714, 16.64951
382.0535, 10.84378
382.5356, 22.12476
383.0177, 41.21356
383.4998, 46.59702
383.9820, 38.58936
384.4641, 28.04160
384.9462, 22.61960
385.4283, 20.78378
385.9104, 20.22778
386.3925, 21.08429
386.8747, 22.19946
387.3568, 21.59351
387.8389, 19.95862
388.3210, 19.37595
388.8031, 21.85031
389.2852, 25.62756
389.7674, 28.97739
390.2495, 31.78723
390.7316, 33.38611
391.2137, 32.29681
391.6958, 30.20102
392.1779, 29.97165
392.6601, 38.80228
393.1422, 45.43829
393.6243, 39.63702
394.1064, 20.96725
394.5885, 6.206879
395.0706, 4.374939
395.5528, 7.960419
396.0349, 10.59460
396.5170, 10.60104
396.9991, 9.730103
397.4812, 4.961212
397.9633, 1.762421
398.4455, 0.1898800
398.9276, 25.28558
399.4097, 48.48004
399.8918, 56.22076
400.3739, 32.60507
400.8560, 18.98712
401.3382, 22.04269
401.8203, 33.53656
402.3024, 36.62128
402.7845, 25.55475
403.2666, 15.00220
403.7487, 9.368195
404.2309, 8.622284
404.7130, 11.67001
405.1951, 20.68835
405.6772, 30.78629
406.1593, 35.86176
406.6414, 35.23959
407.1236, 32.68451
407.6057, 28.32617
408.0878, 22.73276
408.5699, 18.40057
409.0520, 15.27521
409.5341, 14.03275
410.0163, 15.79355
410.4984, 20.18262
410.9805, 25.21896
411.4626, 31.19940
411.9447, 36.64667
412.4268, 38.95667
412.9090, 38.19934
413.3911, 34.72833
413.8732, 25.17868
414.3553, 13.65216
414.8374, 9.196808
415.3195, 13.08099
415.8017, 18.05511
416.2838, 17.57455
416.7659, 13.65640
417.2480, 9.911224
417.7301, 8.319366
418.2122, 7.220337
418.6944, 3.993683
419.1765, 1.057251
419.6586, 2.263306
420.1407, 8.054871
420.6228, 21.48779
421.1049, 30.37616
421.5871, 33.16577
422.0692, 31.29694
422.5513, 21.09811
423.0334, 5.761566
423.5155, 4.483307
423.9977, 3.356476
424.4798, 8.9446999E-02
424.9619, 1.937347
425.4440, 0.2751160
425.9261, 0.8839720
426.4082, 6.250183
426.8904, 12.87164
427.3725, 15.63156
427.8546, 11.43542
428.3367, 8.680389
428.8188, 10.58951
429.3009, 17.10715
429.7831, 16.04071
430.2652, 2.979187
430.7473, 9.344971
431.2294, 8.526764
431.7115, 7.524323
432.1936, 20.36972
432.6758, 27.72174
433.1579, 30.84238
433.6400, 31.56281
434.1221, 29.85376
434.6042, 28.15594
435.0863, 28.10599
435.5685, 29.19763
436.0506, 29.12079
436.5327, 27.74048
437.0148, 25.02924
437.4969, 19.28894
437.9790, 12.04681
438.4612, 7.406067
438.9433, 8.167542
439.4254, 11.69318
439.9075, 17.28741
440.3896, 24.52667
440.8717, 27.39209
441.3539, 16.99207
441.8360, 2.484985
442.3181, 6.481354
442.8002, 5.540344
443.2823, 2.380249
443.7644, 0.7244260
444.2466, 0.5922240
444.7287, 4.272461
445.2108, 15.21893
445.6929, 25.29773
446.1750, 31.25256
446.6571, 32.79565
447.1393, 30.61011
447.6214, 19.60468
448.1035, 7.161377
448.5856, 1.271729
449.0677, 8.979858
449.5498, 12.80835
450.0320, 6.228210
450.5141, 8.146729
450.9962, 7.376099
451.4783, 17.26208
451.9604, 41.59515
452.4425, 50.05139
452.9247, 39.85693
453.4068, 29.87476
453.8889, 20.17639
454.3710, 12.35083
454.8531, 10.98993
455.3352, 16.13806
455.8174, 19.58582
456.2995, 16.11884
456.7816, 9.144104
457.2637, 10.16766
457.7458, 19.62000
458.2279, 29.26233
458.7101, 32.34363
459.1922, 29.96033
459.6743, 23.71057
460.1564, 11.18805
460.6385, 0.7430420
461.1206, 4.229919
461.6028, 1.264648
462.0849, 1.670410
462.5670, 0.2061770
463.0491, 1.909180
463.5312, 1.776794
464.0133, 1.388306
464.4955, 4.751282
464.9776, 7.768555
465.4597, 10.22797
465.9418, 11.84674
466.4239, 12.56653
466.9060, 12.47925
467.3882, 11.64740
467.8703, 10.05194
468.3524, 7.322876
468.8345, 0.1054080
469.3166, 5.396484
469.7987, 4.313660
470.2809, 9.119751
470.7630, 15.10266
471.2451, 9.894287
471.7272, 1.8300000E-04
472.2093, 2.381958
472.6914, 4.428467
473.1736, 11.93652
473.6557, 18.29218
474.1378, 23.13232
474.6199, 22.55347
475.1020, 15.87720
475.5841, 8.432617
476.0663, 5.861755
476.5484, 6.854431
477.0305, 4.974243
477.5126, 2.821228
477.9947, 9.125732
478.4768, 1.250427
478.9590, 16.58673
479.4411, 29.65033
479.9232, 26.05023
480.4053, 15.84320
480.8874, 7.959656
481.3695, 2.710632
481.8517, 0.4216310
482.3338, 2.472412
482.8159, 6.899780
483.2980, 11.60889
483.7801, 20.55328
484.2622, 25.34637
484.7444, 17.63556
485.2265, 2.031616
485.7086, 3.283203
486.1907, 19.81580
486.6728, 39.81750
487.1549, 42.64301
487.6371, 20.13074
488.1192, 6.596191
488.6013, 5.280701
489.0834, 9.849915
489.5655, 13.17560
490.0476, 14.87421
490.5298, 13.10657
491.0119, 5.480591
491.4940, 5.354675
491.9761, 7.815063
492.4582, 0.8597410
492.9403, 7.219727
493.4225, 10.88818
493.9046, 10.89966
494.3867, 11.04968
494.8688, 11.59906
495.3509, 12.47778
495.8330, 14.11206
496.3152, 16.04639
496.7973, 17.11859
497.2794, 15.33557
497.7615, 13.52252
498.2436, 15.12329
498.7257, 19.53271
499.2079, 23.21234
499.6900, 23.37579
500.1721, 22.01068
500.6542, 21.85199
501.1363, 24.66003
501.6184, 25.74146
502.1006, 22.03394
502.5827, 16.23877
503.0648, 12.34216
503.5469, 10.90198
504.0290, 11.45428
504.5111, 14.44824
504.9933, 19.83655
505.4754, 25.10229
505.9575, 31.40259
506.4396, 36.08813
506.9217, 36.47601
507.4038, 30.82037
507.8860, 30.22223
508.3681, 37.13861
508.8502, 45.68585
509.3323, 42.44830
509.8144, 27.19330
510.2965, 16.83459
510.7787, 20.80994
511.2608, 33.11182
511.7429, 38.03467
512.2250, 35.85663
512.7071, 33.70929
513.1892, 38.09515
513.6713, 45.79230
514.1534, 52.15167
514.6356, 56.25037
515.1177, 59.00177
515.5998, 59.35443
516.0819, 59.04431
516.5640, 61.07593
517.0461, 71.90271
517.5283, 80.32916
518.0104, 79.49957
518.4925, 69.51788
518.9746, 63.23035
519.4567, 68.06403
519.9388, 73.71930
520.4210, 74.15784
520.9031, 63.68854
521.3852, 58.25763
521.8673, 60.41901
522.3494, 65.87744
522.8315, 66.37939
523.3137, 59.46954
523.7958, 56.97552
524.2779, 64.75543
524.7600, 79.99707
525.2421, 85.08417
525.7242, 79.29773
526.2064, 73.42767
526.6885, 77.83337
527.1706, 88.84235
527.6527, 96.39325
528.1348, 99.40741
528.6169, 97.92859
529.0991, 87.69531
529.5812, 73.33734
530.0633, 64.11536
530.5454, 68.44263
531.0275, 75.79010
531.5096, 79.80432
531.9918, 80.67236
532.4739, 80.64771
532.9560, 82.33075
533.4381, 82.08240
533.9202, 76.99280
534.4023, 62.72156
534.8845, 52.76392
535.3666, 49.90997
535.8487, 50.66711
536.3308, 51.93579
536.8129, 53.97430
537.2950, 55.20465
537.7772, 55.33099
538.2593, 54.45453
538.7414, 53.05865
539.2235, 51.30817
539.7056, 48.46869
540.1877, 42.30615
540.6699, 33.80994
541.1520, 30.97858
541.6341, 34.41406
542.1162, 41.56781
542.5983, 52.18445
543.0804, 64.40649
543.5626, 73.44287
544.0447, 78.54620
544.5268, 79.12323
545.0089, 71.06738
545.4910, 57.44354
545.9731, 47.85327
546.4553, 49.71362
546.9374, 54.67291
547.4195, 58.08008
547.9016, 59.20050
548.3837, 60.82758
548.8658, 67.00287
549.3480, 71.81409
549.8301, 70.17157
550.3122, 55.06195
550.7943, 45.26813
551.2764, 42.54565
551.7585, 45.45630
552.2407, 52.04669
552.7228, 64.27948
553.2049, 72.85687
553.6870, 73.32471
554.1691, 66.92517
554.6512, 61.10162
555.1334, 55.75287
555.6155, 52.04138
556.0976, 51.33521
556.5797, 53.02112
557.0618, 56.15295
557.5439, 61.36206
558.0261, 65.19098
558.5082, 63.50085
558.9903, 58.10718
559.4724, 52.35681
559.9545, 43.33667
560.4366, 38.23584
560.9188, 43.84174
561.4009, 58.25018
561.8830, 68.66913
562.3651, 68.58777
562.8472, 66.30164
563.3293, 66.24664
563.8115, 70.26953
564.2936, 71.46985
564.7757, 68.73108
565.2578, 64.21857
565.7399, 60.07953
566.2220, 56.29883
566.7042, 52.52405
567.1863, 47.53510
567.6684, 43.50433
568.1505, 47.67590
568.6326, 59.94934
569.1147, 71.03839
569.5969, 76.39600
570.0790, 77.09344
570.5611, 73.92365
571.0432, 66.99316
571.5253, 61.45605
572.0074, 62.45569
572.4896, 66.76813
572.9717, 70.95721
573.4538, 75.08698
573.9359, 77.22614
574.4180, 74.52753
574.9001, 69.65540
575.3823, 67.09766
575.8644, 70.68109
576.3465, 73.55438
576.8286, 74.43683
577.3107, 73.36255
577.7928, 70.20648
578.2750, 63.16016
578.7571, 57.08551
579.2392, 54.83380
579.7213, 57.18799
580.2034, 58.38312
580.6855, 58.33337
581.1677, 57.47943
581.6498, 56.16217
582.1320, 54.43555
582.6141, 52.34387
583.0962, 49.35645
583.5783, 47.01483
584.0604, 49.12146
584.5425, 54.13318
585.0247, 56.52161
585.5068, 50.95099
585.9889, 43.62848
586.4710, 38.89410
586.9531, 36.92334
587.4352, 36.06976
587.9174, 36.44757
588.3995, 37.28387
588.8816, 38.22943
589.3637, 40.40680
589.8458, 40.20294
590.3279, 34.42261
590.8101, 28.43469
591.2922, 30.77478
591.7743, 45.52838
592.2564, 54.92493
592.7385, 53.49194
593.2206, 45.38531
593.7028, 42.56689
594.1849, 44.73474
594.6670, 46.41785
595.1491, 45.73395
595.6312, 42.65936
596.1133, 35.58313
596.5955, 24.47357
597.0776, 15.32831
597.5597, 11.93225
598.0418, 13.22833
598.5239, 19.44586
599.0060, 35.67053
599.4882, 46.22308
599.9703, 39.10236
600.4524, 24.43744
600.9345, 17.38885
601.4166, 32.12842
601.8987, 40.62469
602.3809, 34.12659
602.8630, 16.96906
603.3451, 12.44330
603.8272, 25.55780
604.3093, 38.98517
604.7914, 44.48041
605.2736, 42.35419
605.7557, 39.39008
606.2378, 35.49182
606.7199, 31.33881
607.2020, 26.99457
607.6841, 22.92365
608.1663, 19.96027
608.6484, 18.24414
609.1305, 17.89331
609.6126, 19.98511
610.0947, 23.38086
610.5768, 26.16443
611.0590, 27.54895
611.5411, 28.23785
612.0232, 29.16608
612.5053, 29.86377
612.9874, 28.17255
613.4695, 21.36310
613.9517, 14.73962
614.4338, 9.404419
614.9159, 4.989380
615.3980, 5.960938
615.8801, 14.44897
616.3622, 23.70142
616.8444, 27.78101
617.3265, 26.85370
617.8086, 24.16797
618.2907, 19.62573
618.7728, 15.01031
619.2549, 13.42914
619.7371, 13.74982
620.2192, 13.22198
620.7013, 9.388855
621.1834, 5.733093
621.6655, 4.223816
622.1476, 5.061584
622.6298, 9.041565
623.1119, 22.55804
623.5940, 33.93732
624.0761, 36.52570
624.5582, 28.38501
625.0403, 22.69257
625.5225, 19.25830
626.0046, 18.95544
626.4867, 24.13074
626.9688, 37.81433
627.4509, 41.93048
627.9330, 33.53186
628.4152, 20.59045
628.8973, 14.02252
629.3794, 13.10199
629.8615, 11.68683
630.3436, 7.600830
630.8257, 2.900146
631.3079, 0.2334590
631.7900, 1.596680
632.2721, 0.4442750
632.7542, 7.430237
633.2363, 14.54297
633.7184, 15.46393
634.2006, 10.33209
634.6827, 5.142822
635.1648, 0.5484010
635.6469, 4.168121
636.1290, 4.371826
636.6111, 0.7824400
637.0933, 5.700531
637.5754, 18.69986
638.0575, 30.01648
638.5396, 28.91315
639.0217, 13.99908
639.5038, 4.756409
639.9860, 5.599060
640.4681, 9.903290
640.9502, 5.080048
641.4323, 6.341095
641.9144, 14.23587
642.3965, 12.47513
642.8787, 6.552002
643.3608, 0.3451840
643.8429, 5.907684
644.3250, 10.91306
644.8071, 12.82895
645.2892, 14.45712
645.7714, 18.14069
646.2535, 25.05576
646.7356, 28.25623
647.2177, 26.12970
647.6998, 20.95370
648.1819, 13.45029
648.6641, 1.940430
649.1462, 5.422455
649.6283, 7.751495
650.1104, 7.372070
650.5925, 8.192627
651.0746, 9.616180
651.5568, 6.325317
652.0389, 5.606354
652.5210, 18.27536
653.0031, 21.03622
653.4852, 16.15094
653.9673, 9.589569
654.4495, 0.6689760
654.9316, 5.949768
655.4137, 6.587128
655.8958, 1.871521
656.3779, 2.367920
656.8600, 5.223694
657.3422, 6.960571
657.8243, 7.557770
658.3064, 6.835785
658.7885, 5.950043
659.2706, 4.458313
659.7527, 3.685455
660.2349, 5.349579
660.7170, 9.302185
661.1991, 11.99976
661.6812, 12.95218
662.1633, 13.00098
662.6454, 13.23141
663.1276, 13.35406
663.6097, 12.62320
664.0918, 10.18149
664.5739, 7.735413
665.0560, 6.627441
665.5381, 6.390717
666.0203, 6.012024
666.5024, 3.450592
666.9845, 2.481598
667.4666, 6.340851
667.9487, 13.88708
668.4308, 15.50107
668.9130, 7.504517
669.3951, 0.7070920
669.8772, 1.137634
670.3593, 8.441284
670.8414, 12.63843
671.3235, 13.50888
671.8057, 12.98059
672.2878, 11.26773
672.7699, 9.620270
673.2520, 11.83939
673.7341, 19.32886
674.2162, 25.72379
674.6984, 25.73264
675.1805, 21.82700
675.6626, 16.78900
676.1447, 7.670288
676.6268, 2.154602
677.1089, 3.405243
677.5911, 8.696655
678.0732, 12.62244
678.5553, 14.80801
679.0374, 16.40063
679.5195, 17.88611
680.0016, 18.84259
680.4838, 16.97488
680.9659, 12.11938
681.4480, 8.187439
681.9301, 8.309875
682.4122, 10.25085
682.8943, 8.629395
683.3765, 3.837646
683.8586, 0.2224120
684.3407, 0.8045650
684.8228, 3.577728
685.3049, 8.566437
685.7870, 16.84894
686.2692, 20.97876
686.7513, 14.67905
687.2334, 6.688446
687.7155, 3.724304
688.1976, 9.792236
688.6797, 11.83136
689.1619, 8.050232
689.6440, 2.575500
690.1261, 1.288300
690.6082, 4.026642
691.0903, 6.747253
691.5724, 8.352234
692.0546, 9.919281
692.5367, 14.09497
693.0188, 19.56088
693.5009, 22.68356
693.9830, 18.50555
694.4651, 14.98532
694.9473, 19.16995
695.4294, 28.63095
695.9115, 33.04550
696.3936, 24.87396
696.8757, 16.57376
697.3578, 12.48166
697.8400, 12.51422
698.3221, 11.03714
698.8042, 7.229034
699.2863, 3.856293
699.7684, 3.044678
700.2505, 4.962341
700.7327, 7.477570
701.2148, 10.60770
701.6969, 12.50482
702.1790, 11.05612
702.6611, 7.690521
703.1432, 3.788971
703.6254, 1.236603
704.1075, 3.512787
704.5896, 1.427795
705.0717, 9.159088
705.5538, 14.74737
706.0359, 15.99951
706.5181, 17.24689
707.0002, 18.91092
707.4823, 19.94083
707.9644, 18.21204
708.4465, 13.42108
708.9286, 9.707214
709.4108, 8.362549
709.8929, 9.278442
710.3750, 12.76819
710.8571, 18.14062
711.3392, 21.71790
711.8214, 19.18539
712.3035, 5.730011
712.7856, 18.47806
713.2677, 25.63794
713.7498, 27.76727
714.2319, 8.490082
714.7141, 16.85895
715.1962, 14.07962
715.6783, 10.82379
716.1604, 23.02179
716.6425, 6.723572
717.1246, 18.67935
717.6068, 19.37054
718.0889, 25.21561
718.5710, 19.86243
719.0531, 17.94870
719.5352, 27.21671
720.0173, 30.29913
720.4995, 23.64090
720.9816, 29.77011
721.4637, 13.04688
721.9458, 16.37323
722.4279, 28.37659
722.9100, 22.27136
723.3922, 28.59479
723.8743, 30.18164
724.3564, 10.24872
724.8385, 27.72598
725.3206, 29.02737
725.8027, 13.70978
726.2849, 29.90759
726.7670, 16.87662
727.2491, 14.18445
727.7312, 19.35812
728.2133, 16.41974
728.6954, 26.38281
729.1776, 23.96649
729.6597, 20.73532
730.1418, 22.08606
730.6239, 9.620972
731.1060, 21.43625
731.5881, 1.875366
732.0703, 10.02457
732.5524, 7.065308
733.0345, 3.648285
733.5166, 15.69064
733.9987, 0.7486570
734.4808, 11.01080
734.9630, 11.50897
735.4451, 17.18039
735.9272, 11.67490
736.4093, 9.618683
736.8914, 18.73856
737.3735, 21.66678
737.8557, 14.86584
738.3378, 20.85220
738.8199, 3.985992
739.3020, 7.168213
739.7841, 18.99936
740.2662, 12.74854
740.7484, 18.93872
741.2305, 20.36874
741.7126, 0.1071470
742.1947, 17.28421
742.6768, 18.38486
743.1589, 2.919769
743.6411, 18.97601
744.1232, 5.816071
744.6053, 3.087158
745.0874, 8.214386
745.5695, 5.135468
746.0516, 15.03317
746.5338, 12.42981
747.0159, 8.695740
747.4980, 9.700684
747.9801, 14.56622
748.4622, 13.68469
748.9443, 9.191772
749.4265, 7.673584
749.9086, 15.81918
750.3907, 20.20386
750.8728, 17.99283
751.3549, 11.72516
751.8370, 6.299561
752.3192, 1.337982
752.8013, 0.9666140
753.2834, 0.5788570
753.7655, 4.508087
754.2476, 8.152924
754.7297, 11.51874
755.2119, 14.60306
755.6940, 17.62531
756.1761, 20.61646
756.6582, 23.17014
757.1403, 24.64828
757.6224, 25.19974
758.1046, 26.33682
758.5867, 25.29971
759.0688, 19.74466
759.5509, 10.44046
760.0330, 6.811890
760.5151, 10.51767
760.9973, 13.69995
761.4794, 10.83267
761.9615, 3.891296
762.4436, 0.8206180
762.9257, 1.248138
763.4078, 1.699402
763.8900, 1.874268
764.3721, 5.371155
764.8542, 3.631104
765.3363, 4.188324
765.8184, 9.135284
766.3005, 4.371887
766.7827, 1.064178
767.2648, 1.854370
767.7469, 2.667206
768.2290, 9.635223
768.7111, 21.19043
769.1932, 29.48135
769.6754, 24.39426
770.1575, 9.447479
770.6396, 0.3819890
771.1217, 1.156982
771.6038, 0.7071840
772.0859, 4.230774
772.5681, 8.068420
773.0502, 10.89481
773.5323, 12.46701
774.0144, 12.98511
774.4965, 10.88364
774.9786, 8.809753
775.4608, 9.388611
775.9429, 14.14206
776.4250, 16.58591
776.9071, 15.30524
777.3892, 13.97659
777.8713, 20.13324
778.3535, 31.15234
778.8356, 33.69241
779.3177, 21.90161
779.7998, 10.23041
780.2819, 16.60022
780.7640, 30.74698
781.2462, 37.81418
781.7283, 24.41830
782.2104, 14.71008
782.6925, 16.72867
783.1746, 23.94525
783.6567, 27.50238
784.1389, 26.06201
784.6210, 25.83429
785.1031, 29.19891
785.5852, 32.07971
786.0673, 23.37692
786.5494, 6.545746
787.0316, 3.072876
787.5137, 3.276611
787.9958, 14.48849
788.4779, 23.23135
788.9600, 29.43082
789.4421, 33.20081
789.9243, 35.99289
790.4064, 34.76031
790.8885, 25.82666
791.3706, 13.41132
791.8527, 8.203918
792.3348, 12.20316
792.8170, 16.70999
793.2991, 19.59711
793.7812, 21.05417
794.2633, 20.68600
794.7454, 19.06000
795.2275, 18.37857
795.7097, 21.17346
796.1918, 24.07092
796.6739, 25.03238
797.1560, 24.24234
797.6381, 21.92297
798.1202, 13.07828
798.6024, 8.813324
799.0845, 14.42175
799.5666, 26.45959
800.0487, 29.34509
800.5308, 21.70944
801.0129, 13.86710
801.4951, 10.83530
801.9772, 10.40945
802.4593, 7.489136
802.9414, 3.198944
803.4235, 1.962250
803.9056, 10.90613
804.3878, 19.53082
804.8699, 20.57233
805.3520, 14.97388
805.8341, 11.61215
806.3162, 11.76447
806.7983, 13.45245
807.2805, 17.29102
807.7626, 22.33435
808.2447, 20.37949
808.7268, 11.25366
809.2089, 5.110413
809.6910, 11.36169
810.1732, 22.22748
810.6553, 26.60675
811.1374, 25.24817
811.6195, 21.84665
812.1016, 17.28442
812.5837, 11.90097
813.0659, 4.053986
813.5480, 5.789886
814.0301, 8.950409
814.5122, 3.293243
814.9943, 4.562408
815.4764, 12.81165
815.9586, 20.82471
816.4407, 25.14169
816.9228, 26.01227
817.4049, 26.83075
817.8870, 31.33676
818.3691, 35.87738
818.8513, 35.78134
819.3334, 31.48599
819.8155, 28.57266
820.2976, 30.76373
820.7797, 32.81326
821.2618, 33.47482
821.7440, 32.40714
822.2261, 25.01685
822.7082, 9.451843
823.1903, 2.639862
823.6724, 3.710999
824.1545, 2.716125
824.6367, 8.865753
825.1188, 14.63098
825.6009, 18.49655
826.0830, 18.58130
826.5651, 16.88623
827.0472, 14.46625
827.5294, 11.45190
828.0115, 7.956909
828.4936, 2.464844
828.9757, 1.344513
829.4578, 1.337921
829.9399, 1.947113
830.4221, 4.308655
830.9042, 5.754303
831.3863, 6.396149
831.8684, 4.559784
832.3505, 2.965179
832.8326, 7.674927
833.3148, 17.22357
833.7969, 22.14301
834.2790, 11.05182
834.7611, 1.091553
835.2432, 1.988525
835.7253, 12.27051
836.2075, 20.51224
836.6896, 27.71167
837.1717, 29.81253
837.6538, 21.97711
838.1359, 8.686554
838.6180, 5.539246
839.1002, 11.25180
839.5823, 16.46408
840.0644, 13.09885
840.5465, 9.254791
841.0286, 12.80865
841.5107, 22.27780
841.9929, 27.10767
842.4750, 21.22250
842.9571, 15.49286
843.4392, 12.83020
843.9213, 12.58209
844.4034, 11.21378
844.8856, 8.243591
845.3677, 6.431549
845.8498, 6.490387
846.3319, 8.140472
846.8140, 13.37939
847.2961, 20.34760
847.7783, 22.72751
848.2604, 11.40784
848.7425, 1.460083
849.2246, 0.1968380
849.7067, 5.527130
850.1888, 9.492126
850.6710, 11.70169
851.1531, 13.96658
851.6352, 17.33881
852.1173, 20.67462
852.5994, 20.74484
853.0815, 18.09103
853.5637, 15.42767
854.0458, 13.19046
854.5279, 12.27756
855.0100, 14.90558
855.4921, 19.28885
855.9742, 20.90857
856.4564, 15.57584
856.9385, 12.17953
857.4206, 12.01639
857.9027, 14.58752
858.3848, 21.28064
858.8669, 31.67978
859.3491, 34.12250
859.8312, 21.21259
860.3133, 6.124115
860.7954, 6.476654
861.2775, 15.99591
861.7596, 22.84512
862.2418, 20.04630
862.7239, 17.50104
863.2060, 18.46881
863.6881, 20.56964
864.1702, 19.99799
864.6523, 15.47699
865.1345, 14.94107
865.6166, 20.84167
866.0987, 27.83240
866.5808, 26.76129
867.0629, 20.79340
867.5450, 17.54901
868.0272, 19.91461
868.5093, 23.08023
868.9914, 25.02921
869.4735, 26.00906
869.9556, 26.14050
870.4377, 24.18875
870.9199, 24.37308
871.4020, 27.63342
871.8841, 30.65103
872.3662, 29.40567
872.8483, 24.67020
873.3304, 20.36124
873.8126, 16.93820
874.2947, 14.48941
874.7768, 13.55606
875.2589, 13.52591
875.7410, 13.61060
876.2231, 13.12988
876.7053, 14.92618
877.1874, 22.09659
877.6695, 27.93011
878.1516, 26.23871
878.6337, 16.54108
879.1158, 12.97974
879.5980, 15.94742
880.0801, 20.62180
880.5622, 23.82806
881.0443, 25.72214
881.5264, 27.07175
882.0085, 28.22232
882.4907, 27.76031
882.9728, 23.23856
883.4549, 18.93451
883.9370, 17.04776
884.4191, 17.46051
884.9012, 17.23813
885.3834, 16.36044
885.8655, 15.04373
886.3476, 12.26553
886.8297, 9.574646
887.3118, 11.42068
887.7939, 16.70389
888.2761, 19.81158
888.7582, 14.36392
889.2403, 9.920227
889.7224, 13.60980
890.2045, 22.38000
890.6866, 22.03018
891.1688, 8.529205
891.6509, 1.8798999E-02
892.1330, 4.096924
892.6151, 14.00220
893.0972, 14.78998
893.5793, 9.051849
894.0615, 5.472961
894.5436, 9.690643
895.0257, 14.66895
895.5078, 17.74307
895.9899, 18.76285
896.4720, 16.92801
896.9542, 9.047882
897.4363, 6.112549
897.9184, 11.48203
898.4005, 18.70322
898.8826, 16.72104
899.3647, 7.524872
899.8469, 0.2336430
900.3290, 3.182617
900.8111, 4.504425
901.2932, 5.519989
901.7753, 4.942719
902.2574, 1.012390
902.7396, 10.42319
903.2217, 17.27817
903.7038, 18.00473
904.1859, 16.38376
904.6680, 15.50296
905.1501, 15.22717
905.6323, 14.14713
906.1144, 12.15302
906.5965, 10.58694
907.0786, 11.62918
907.5607, 13.02966
908.0428, 12.57169
908.5250, 9.931305
909.0071, 6.806641
909.4892, 1.589966
909.9713, 1.476257
910.4534, 0.2728880
910.9355, 6.076691
911.4177, 10.26794
911.8998, 12.95187
912.3819, 13.84091
912.8640, 0.5691220
913.3461, 13.46722
913.8282, 20.68851
914.3104, 22.53793
914.7925, 2.925903
915.2746, 11.02731
915.7567, 8.022552
916.2388, 4.562592
916.7209, 16.56512
917.2031, 7.5438999E-02
917.6852, 11.83304
918.1673, 12.31525
918.6494, 17.95853
919.1315, 12.42755
919.6136, 10.34827
920.0958, 19.44766
920.5779, 22.35757
921.0600, 15.54147
921.5421, 21.51492
922.0242, 4.638397
922.5063, 7.813477
922.9885, 19.82187
923.4706, 14.03214
923.9527, 20.21100
924.4348, 21.65533
924.9169, 1.582855
925.3990, 18.93115
925.8812, 20.09641
926.3633, 4.645325
926.8454, 20.71283
927.3275, 7.554047
927.8096, 4.827545
928.2917, 9.952240
928.7739, 6.892914
929.2560, 16.73923
929.7381, 14.15775
930.2202, 10.46713
930.7023, 11.62369
931.1844, 0.9540410
931.6666, 11.94821
932.1487, 7.445404
932.6308, 11.59445
933.1129, 17.70486
933.5950, 12.88940
934.0771, 13.79660
934.5593, 7.714203
935.0414, 1.635986
935.5235, 3.230255
936.0056, 3.205841
936.4877, 7.278595
936.9698, 4.753784
937.4520, 1.099152
937.9341, 4.283417
938.4162, 10.58850
938.8983, 13.98795
939.3804, 10.35635
939.8625, 7.562561
940.3447, 7.011505
940.8268, 7.668610
941.3089, 8.737671
941.7910, 10.22327
942.2731, 12.23727
942.7552, 14.99323
943.2374, 16.39731
943.7195, 12.43719
944.2016, 7.315948
944.6837, 6.644501
945.1658, 11.22546
945.6479, 14.74060
946.1301, 13.39804
946.6122, 13.46680
947.0943, 18.64630
947.5764, 27.61462
948.0585, 30.17102
948.5406, 26.47067
949.0228, 22.63486
949.5049, 20.79739
949.9870, 21.38730
950.4691, 28.27243
950.9512, 37.89383
951.4333, 41.07370
951.9155, 25.70767
952.3976, 17.17133
952.8797, 22.06927
953.3618, 31.86685
953.8439, 30.35992
954.3260, 18.97528
954.8082, 12.38071
955.2903, 14.20807
955.7724, 18.32007
956.2545, 21.95181
956.7366, 23.15717
957.2188, 20.01791
957.7009, 8.494110
958.1830, 4.283478
958.6651, 11.06094
959.1472, 19.99121
959.6293, 26.85635
960.1115, 31.15817
960.5936, 26.42456
961.0757, 13.46426
961.5578, 2.896545
962.0399, 4.607056
962.5220, 8.814636
963.0042, 8.107727
963.4863, 3.392365
963.9684, 2.399292
964.4505, 7.951141
964.9326, 11.14215
965.4147, 8.738708
965.8969, 4.132019
966.3790, 5.735809
966.8611, 11.35773
967.3432, 13.75839
967.8253, 9.494415
968.3074, 3.882904
968.7896, 4.199036
969.2717, 9.835602
969.7538, 6.346954
970.2359, 12.68509
970.7180, 22.29669
971.2001, 20.92215
971.6823, 15.16803
972.1644, 7.436981
972.6465, 0.7340700
973.1286, 4.036194
973.6107, 17.07605
974.0928, 26.27780
974.5750, 20.68896
975.0571, 13.80579
975.5392, 12.88040
976.0213, 16.47226
976.5034, 15.84341
976.9855, 10.27017
977.4677, 7.413361
977.9498, 11.80890
978.4319, 18.04785
978.9140, 18.58264
979.3961, 14.88092
979.8782, 9.583466
980.3604, 2.746826
980.8425, 7.230988
981.3246, 3.541168
981.8067, 18.09268
982.2888, 23.78339
982.7709, 20.68710
983.2531, 19.85577
983.7352, 22.22131
984.2173, 24.85904
984.6994, 25.08719
985.1815, 23.66608
985.6636, 20.34396
986.1458, 15.08572
986.6279, 12.57440
987.1100, 15.07025
987.5921, 16.87469
988.0742, 15.42053
988.5563, 12.05917
989.0385, 10.46643
989.5206, 10.84543
990.0027, 13.76941
990.4848, 22.14975
990.9669, 29.51599
991.4490, 31.08829
991.9312, 29.31073
992.4133, 28.10333
992.8954, 28.44022
993.3775, 26.93143
993.8596, 23.25119
994.3417, 19.19736
994.8239, 17.20624
995.3060, 16.33600
995.7881, 14.12558
996.2702, 10.04327
996.7523, 7.702026
997.2344, 9.057953
997.7166, 12.59027
998.1987, 19.84192
998.6808, 29.26929
999.1629, 26.29749
999.6450, 9.192719
1000.127, 1.7700000E-02
1000.609, 13.36838
1001.091, 31.58255
1001.573, 29.19418
1002.056, 15.74301
1002.538, 8.394135
1003.020, 19.35730
1003.502, 26.95337
1003.984, 28.71933
1004.466, 27.52710
1004.948, 26.41302
1005.430, 25.14127
1005.913, 20.49042
1006.395, 12.16965
1006.877, 6.569946
1007.359, 11.80521
1007.841, 18.87808
1008.323, 20.61688
1008.805, 16.76550
1009.287, 13.68961
1009.769, 11.42911
1010.252, 9.804779
1010.734, 8.441010
1011.216, 8.080566
1011.698, 12.96179
1012.180, 19.93506
1012.662, 20.35263
1013.144, 4.801910
1013.626, 5.755157
1014.109, 2.455444
1014.591, 14.94641
1015.073, 17.96671
1015.555, 9.542419
1016.037, 7.260712
1016.519, 11.74609
1017.001, 17.87131
1017.483, 23.13803
1017.965, 26.78464
1018.448, 26.62885
1018.930, 23.35574
1019.412, 22.45358
1019.894, 27.52008
1020.376, 30.99527
1020.858, 30.94098
1021.340, 28.59662
1021.822, 26.06006
1022.305, 23.64890
1022.787, 22.26169
1023.269, 23.01297
1023.751, 23.34363
1024.233, 20.48334
1024.715, 17.18756
1025.197, 16.59860
1025.679, 19.78552
1026.161, 19.18033
1026.644, 13.46973
1027.126, 8.634552
1027.608, 9.785614
1028.090, 14.83115
1028.572, 21.77658
1029.054, 29.29980
1029.536, 32.81741
1030.018, 25.20444
1030.500, 20.39755
1030.983, 22.72134
1031.465, 28.00830
1031.947, 29.43298
1032.429, 27.29922
1032.911, 23.92365
1033.393, 19.62604
1033.875, 15.03619
1034.357, 10.05212
1034.839, 5.553680
1035.322, 1.737732
1035.804, 1.558380
1036.286, 0.1112370
1036.768, 8.027374
1037.250, 14.38562
1037.732, 14.36270
1038.214, 10.52286
1038.696, 6.835052
1039.179, 4.602753
1039.661, 4.921082
1040.143, 14.46341
1040.625, 18.54483
1041.107, 8.326324
1041.589, 3.461639
1042.071, 0.5355530
1042.553, 16.78561
1043.036, 21.14194
1043.518, 10.46307
1044.000, 1.346527
1044.482, 12.47250
1044.964, 26.52298
1045.446, 26.93182
1045.928, 14.54901
1046.410, 8.033508
1046.892, 9.495880
1047.375, 13.06711
1047.857, 18.00696
1048.339, 22.67081
1048.821, 23.34805
1049.303, 21.58212
1049.785, 20.61633
1050.267, 21.17661
1050.749, 22.86298
1051.231, 30.71869
1051.714, 34.61938
1052.196, 24.75491
1052.678, 1.870361
1053.160, 2.381836
1053.642, 11.01144
1054.124, 23.31445
1054.606, 22.65982
1055.088, 16.64273
1055.571, 7.724609
1056.053, 1.643707
1056.535, 5.470032
1057.017, 3.055634
1057.499, 4.577820
1057.981, 19.61777
1058.463, 32.89691
1058.945, 30.41422
1059.427, 19.25418
1059.910, 12.39597
1060.392, 11.09372
1060.874, 11.64282
1061.356, 14.01440
1061.838, 16.71082
1062.320, 19.44049
1062.802, 21.97159
1063.284, 23.97925
1063.766, 25.23102
1064.249, 23.55170
1064.731, 16.77640
1065.213, 10.15979
1065.695, 5.948914
1066.177, 5.001709
1066.659, 9.851135
1067.141, 23.08170
1067.623, 27.58948
1068.106, 21.96786
1068.588, 15.36237
1069.070, 13.67535
1069.552, 15.44519
1070.034, 20.60934
1070.516, 27.55969
1070.998, 31.12784
1071.480, 27.68985
1071.963, 22.26141
1072.445, 12.07547
1072.927, 3.772034
1073.409, 10.47836
1073.891, 27.45508
1074.373, 35.95773
1074.855, 33.24921
1075.337, 28.41605
1075.819, 27.22147
1076.302, 25.60770
1076.784, 20.10010
1077.266, 11.77231
1077.748, 6.792999
1078.230, 5.406860
1078.712, 3.740845
1079.194, 0.8286440
1079.676, 3.118286
1080.159, 5.128326
1080.641, 17.75635
1081.123, 27.01849
1081.605, 31.27957
1082.087, 31.19781
1082.569, 24.90530
1083.051, 18.72812
1083.533, 16.47629
1084.016, 17.56137
1084.498, 23.03403
1084.980, 30.77078
1085.462, 34.40912
1085.944, 26.78662
1086.426, 20.17670
1086.908, 17.82120
1087.390, 17.59326
1087.872, 17.09021
1088.354, 16.27704
1088.837, 14.02643
1089.319, 10.16895
1089.801, 7.884583
1090.283, 11.15326
1090.765, 15.45593
1091.247, 18.01675
1091.729, 18.79776
1092.211, 18.18039
1092.694, 15.87595
1093.176, 14.06290
1093.658, 13.51971
1094.140, 12.90362
1094.622, 8.245575
1095.104, 3.149567
1095.586, 3.765137
1096.068, 14.27277
1096.551, 16.67715
1097.033, 4.086121
1097.515, 3.753540
1097.997, 7.709137
1098.479, 28.91879
1098.961, 31.92270
1099.443, 21.66946
1099.925, 14.02298
1100.407, 16.60806
1100.890, 20.89294
1101.372, 27.03204
1101.854, 31.64835
1102.336, 30.53217
1102.818, 24.10944
1103.300, 20.25333
1103.782, 19.13510
1104.264, 17.77106
1104.746, 11.45801
1105.229, 6.982819
1105.711, 11.84210
1106.193, 21.38528
1106.675, 22.41556
1107.157, 13.17813
1107.639, 5.850067
1108.121, 2.123688
1108.603, 1.358124
1109.086, 3.582275
1109.568, 7.840271
1110.050, 14.56506
1110.532, 23.91330
1111.014, 26.63580
1111.496, 19.58118
1111.978, 13.70291
1112.460, 12.53723
1112.943, 14.82800
1113.425, 20.39819
1113.907, 27.08768
1114.389, 30.36823
1114.871, 28.86932
1115.353, 26.21326
1115.835, 23.40695
1116.317, 18.83377
1116.799, 8.932587
1117.281, 3.560333
1117.764, 0.9670720
1118.246, 13.62097
1118.728, 25.19696
1119.210, 25.37238
1119.692, 22.29059
1120.174, 16.57010
1120.656, 11.15042
1121.138, 9.922455
1121.621, 13.22766
1122.103, 13.56583
1122.585, 10.64414
1123.067, 6.570160
1123.549, 5.9234999E-02
1124.031, 4.654114
1124.513, 1.284454
1124.995, 7.242279
1125.478, 9.541016
1125.960, 3.621094
1126.442, 1.328827
1126.924, 4.961792
1127.406, 9.873566
1127.888, 11.32794
1128.370, 10.99130
1128.852, 11.21912
1129.334, 12.18527
1129.817, 9.597198
1130.299, 0.5259090
1130.781, 4.412964
1131.263, 3.694275
1131.745, 15.70282
1132.227, 16.17542
1132.709, 10.45602
1133.191, 9.369202
1133.673, 16.79440
1134.156, 22.57425
1134.638, 25.70728
1135.120, 24.82126
1135.602, 17.46292
1136.084, 6.291626
1136.566, 7.5165004E-02
1137.048, 2.244354
1137.530, 2.159363
1138.013, 0.3412780
1138.495, 4.153442
1138.977, 11.04050
1139.459, 17.37469
1139.941, 20.73080
1140.423, 21.10538
1140.905, 14.87799
1141.387, 2.944214
1141.870, 3.182617
1142.352, 10.21094
1142.834, 23.56436
1143.316, 25.14270
1143.798, 20.03333
1144.280, 16.08325
1144.762, 13.18820
1145.244, 13.42578
1145.726, 17.10614
1146.208, 20.89374
1146.691, 23.95355
1147.173, 24.27429
1147.655, 17.04800
1148.137, 5.089874
1148.619, 2.228943
1149.101, 11.37048
1149.583, 17.21515
1150.065, 17.00006
1150.548, 13.88538
1151.030, 9.136566
1151.512, 4.794220
1151.994, 3.723206
1152.476, 6.161194
1152.958, 8.079468
1153.440, 9.186371
1153.922, 10.05923
1154.405, 10.47382
1154.887, 11.57867
1155.369, 16.85895
1155.851, 23.64218
1156.333, 25.80908
1156.815, 21.34491
1157.297, 16.87823
1157.779, 12.05447
1158.261, 9.856842
1158.744, 13.00385
1159.226, 18.37125
1159.708, 17.52173
1160.190, 12.90564
1160.672, 10.66464
1161.154, 14.35178
1161.636, 16.67245
1162.118, 15.41080
1162.600, 13.52878
1163.083, 12.25995
1163.565, 12.01071
1164.047, 16.21909
1164.529, 23.37720
1165.011, 27.47583
1165.493, 24.62360
1165.975, 19.58096
1166.457, 11.43469
1166.940, 4.079590
1167.422, 1.810272
1167.904, 3.737976
1168.386, 4.053345
1168.868, 2.907043
1169.350, 2.238556
1169.832, 1.962616
1170.314, 3.817200
1170.797, 12.33005
1171.279, 21.10297
1171.761, 19.21033
1172.243, 7.465027
1172.725, 5.892883
1173.207, 16.00992
1173.689, 24.85620
1174.171, 20.15356
1174.653, 14.43982
1175.135, 17.24771
1175.618, 24.22232
1176.100, 23.91556
1176.582, 16.14133
1177.064, 10.34369
1177.546, 7.955261
1178.028, 7.340973
1178.510, 8.930115
1178.992, 10.18475
1179.475, 8.187683
1179.957, 3.988556
1180.439, 3.152191
1180.921, 6.019135
1181.403, 5.918121
1181.885, 0.2896730
1182.367, 3.964264
1182.849, 7.482819
1183.332, 21.27530
1183.814, 23.70392
1184.296, 14.67694
1184.778, 13.24176
1185.260, 20.39822
1185.742, 26.71088
1186.224, 29.83929
1186.706, 28.46054
1187.188, 15.32660
1187.671, 0.2719730
1188.153, 3.458069
1188.635, 6.959686
1189.117, 10.52862
1189.599, 5.384918
1190.081, 2.602448
1190.563, 9.495758
1191.045, 17.32571
1191.527, 13.66306
1192.010, 5.275146
1192.492, 2.080933
1192.974, 7.351563
1193.456, 10.41104
1193.938, 10.80408
1194.420, 11.68787
1194.902, 17.01749
1195.384, 21.63049
1195.867, 14.52908
1196.349, 3.096588
1196.831, 2.202911
1197.313, 23.44043
1197.795, 30.96814
1198.277, 20.93130
1198.759, 9.647644
1199.241, 11.05182
1199.724, 16.25742
1200.206, 12.76801
1200.688, 4.251099
1201.170, 0.5404360
1201.652, 5.576538
1202.134, 9.883820
1202.616, 13.38000
1203.098, 14.87567
1203.580, 12.08908
1204.063, 7.536560
1204.545, 2.347137
1205.027, 1.827759
1205.509, 0.9564510
1205.991, 17.79822
1206.473, 25.22574
1206.955, 19.49817
1207.437, 10.83585
1207.919, 10.23483
1208.402, 12.33881
1208.884, 7.757599
1209.366, 1.468475
1209.848, 1.722260
1210.330, 13.73157
1210.812, 23.60977
1211.294, 24.11716
1211.776, 22.15747
1212.259, 27.61292
1212.741, 34.03995
1213.223, 30.28064
1213.705, 17.38940
1214.187, 12.57181
1214.669, 21.17920
1215.151, 26.19342
1215.633, 24.02390
1216.115, 18.95050
1216.598, 13.06375
1217.080, 9.182587
1217.562, 13.81503
1218.044, 26.55835
1218.526, 29.45874
1219.008, 17.53812
1219.490, 8.469696
1219.972, 6.264771
1220.454, 8.324554
1220.937, 13.74026
1221.419, 19.89694
1221.901, 24.30652
1222.383, 26.44641
1222.865, 23.29019
1223.347, 12.96548
1223.829, 4.054657
1224.311, 1.362244
1224.794, 3.461365
1225.276, 1.167999
1225.758, 3.555420
1226.240, 9.126923
1226.722, 15.47940
1227.204, 18.37259
1227.686, 16.82376
1228.168, 16.56161
1228.651, 19.98434
1229.133, 23.91998
1229.615, 25.15784
1230.097, 24.20206
1230.579, 20.95563
1231.061, 15.29568
1231.543, 11.55371
1232.025, 10.06326
1232.507, 8.444366
1232.990, 5.358521
1233.472, 2.699860
1233.954, 1.973785
1234.436, 3.320587
1234.918, 7.256622
1235.400, 13.93326
1235.882, 20.29172
1236.364, 26.68576
1236.846, 27.18600
1237.329, 15.29959
1237.811, 5.306335
1238.293, 16.21860
1238.775, 32.34045
1239.257, 33.68985
1239.739, 19.34488
1240.221, 12.98086
1240.703, 15.26306
1241.186, 17.10147
1241.668, 14.19113
1242.150, 10.45935
1242.632, 7.947021
1243.114, 7.243805
1243.596, 9.722504
1244.078, 15.42065
1244.560, 17.02554
1245.042, 14.69553
1245.525, 10.50232
1246.007, 2.704529
1246.489, 1.795471
1246.971, 5.368652
1247.453, 15.06494
1247.935, 18.05066
1248.417, 14.61874
1248.899, 15.80807
1249.381, 20.64172
1249.864, 22.15475
1250.346, 14.26178
1250.828, 6.925415
1251.310, 6.948975
1251.792, 8.903564
1252.274, 8.396088
1252.756, 6.051758
1253.238, 9.187592
1253.721, 16.05743
1254.203, 17.26389
1254.685, 1.716309
1255.167, 8.279480
1255.649, 0.5548100
1256.131, 9.753998
1256.613, 11.42072
1257.095, 6.999146
1257.578, 8.132416
1258.060, 13.71213
1258.542, 20.10159
1259.024, 30.07990
1259.506, 35.10150
1259.988, 32.54343
1260.470, 27.58401
1260.952, 23.62415
1261.434, 20.20905
1261.917, 15.55576
1262.399, 10.38309
1262.881, 6.494019
1263.363, 4.954987
1263.845, 4.263947
1264.327, 4.606720
1264.809, 4.938446
1265.291, 3.672699
1265.773, 2.451843
1266.256, 4.600739
1266.738, 9.116425
1267.220, 13.90881
1267.702, 19.90662
1268.184, 23.04840
1268.666, 22.96509
1269.148, 21.34451
1269.630, 19.44876
1270.113, 17.86386
1270.595, 18.45880
1271.077, 19.96512
1271.559, 19.80698
1272.041, 16.89609
1272.523, 15.56830
1273.005, 15.87949
1273.487, 15.60828
1273.969, 20.08157
1274.452, 23.38840
1274.934, 19.66522
1275.416, 13.00430
1275.898, 8.654083
1276.380, 6.418182
1276.862, 11.26318
1277.344, 22.71112
1277.826, 29.78378
1278.308, 22.99875
1278.791, 13.85037
1279.273, 7.590149
1279.755, 3.756165
1280.237, 2.052917
1280.719, 2.440186
1281.201, 3.692719
1281.683, 5.564636
1282.165, 6.481842
1282.648, 2.137146
1283.130, 2.240051
1283.612, 13.84097
1284.094, 26.29791
1284.576, 32.22040
1285.058, 32.44162
1285.540, 27.96115
1286.022, 20.30078
1286.505, 16.45230
1286.987, 25.66211
1287.469, 25.88138
1287.951, 11.74097
1288.433, 0.6850890
1288.915, 2.773468
1289.397, 14.66495
1289.879, 21.17014
1290.361, 13.60776
1290.844, 7.309113
1291.326, 0.0000000E+00
##END=



