##NAMES=Galena
##RRUFFID=R060187
##IDEAL CHEMISTRY=Pb^2+^S^2-^
##LOCALITY=Polaris mine, Little Cornwallis Island, Northwest Territories, Canada
##OWNER=RRUFF
##SOURCE=Lloyd Twaites
##DESCRIPTION=Lead-gray metallic cubo-octahedra
##STATUS=The identification of this mineral has been confirmed by X-ray diffraction and chemical analysis
##URL=rruff.info/R060187
##MEASURED CHEMISTRY=Pb_1.00_S_1.00_
120.4703, 0.0000000E+00
120.9524, 0.3646970
121.4345, 1.121872
121.9166, 2.087669
122.3987, 3.273689
122.8808, 4.682343
123.3630, 5.549412
123.8451, 5.719711
124.3272, 5.468716
124.8093, 4.866425
125.2914, 3.885574
125.7735, 2.884369
126.2557, 2.304031
126.7378, 2.080448
127.2199, 2.370804
127.7020, 2.391716
128.1841, 2.221207
128.6662, 2.447941
129.1483, 3.592842
129.6305, 4.643421
130.1126, 4.772156
130.5947, 4.035610
131.0768, 3.141193
131.5589, 2.722622
132.0410, 2.900219
132.5232, 2.726566
133.0053, 1.347733
133.4874, 3.5355002E-02
133.9695, 0.5346830
134.4516, 0.2476730
134.9337, 0.5560300
135.4159, 1.406300
135.8980, 2.435654
136.3801, 3.116119
136.8622, 3.542812
137.3443, 3.815624
137.8264, 3.863029
138.3086, 3.947931
138.7907, 4.051680
139.2728, 4.118778
139.7549, 4.089876
140.2370, 3.898645
140.7191, 3.712914
141.2013, 3.437553
141.6834, 3.183262
142.1655, 3.258116
142.6476, 3.620771
143.1297, 3.632259
143.6118, 3.052402
144.0939, 2.453098
144.5761, 2.028116
145.0582, 1.767673
145.5403, 1.590347
146.0224, 1.460777
146.5045, 1.392847
146.9866, 1.378429
147.4688, 1.487595
147.9509, 1.605690
148.4330, 1.626892
148.9151, 1.544508
149.3972, 1.393511
149.8793, 1.068073
150.3615, 0.4962218
150.8436, 0.6933658
151.3257, 0.7748206
151.8078, 0.7468027
152.2899, 0.2814298
152.7720, 0.3808104
153.2542, 0.2538507
153.7363, 0.1176231
154.2184, 4.4057999E-02
154.7005, 0.1456680
155.1826, 0.1325260
155.6647, 6.8842001E-02
156.1469, 0.2246510
156.6290, 0.3268510
157.1111, 0.3782440
157.5932, 0.3712410
158.0753, 0.3117500
158.5574, 0.1953810
159.0396, 7.2519998E-03
159.5217, 0.3170320
160.0038, 0.3979910
160.4859, 6.5711997E-02
160.9680, 0.4460240
161.4501, 0.3649520
161.9323, 0.1112210
162.4144, 0.6102890
162.8965, 0.7531620
163.3786, 0.4255430
163.8607, 0.1664620
164.3428, 8.4105998E-02
164.8250, 0.2318550
165.3071, 0.1564010
165.7892, 0.1480620
166.2713, 0.5016060
166.7534, 0.6970710
167.2355, 0.7189350
167.7177, 0.6816750
168.1998, 0.5339150
168.6819, 0.3581180
169.1640, 0.2406440
169.6461, 0.1977580
170.1282, 0.2376520
170.6104, 0.1866475
171.0925, 0.4651709
171.5746, 0.6280053
172.0567, 0.6813669
172.5388, 0.2973733
173.0209, 0.4781332
173.5031, 0.4325683
173.9852, 0.3777201
174.4673, 0.6379666
174.9494, 0.3175854
175.4315, 0.5728351
175.9136, 0.5983034
176.3958, 0.7289397
176.8779, 0.6318478
177.3600, 0.6050931
177.8421, 0.8061368
178.3242, 0.8810467
178.8063, 0.7577400
179.2885, 0.8950611
179.7706, 0.5667250
180.2527, 0.6470072
180.7348, 0.9035899
181.2169, 0.7917333
181.6990, 0.9332153
182.1812, 0.9782147
182.6633, 0.5847257
183.1454, 0.9149490
183.6275, 1.114996
184.1096, 1.411743
184.5917, 1.627691
185.0738, 1.726337
185.5560, 1.782488
186.0381, 1.870142
186.5202, 1.999586
187.0023, 2.100229
187.4844, 2.044422
187.9665, 1.641621
188.4487, 1.383739
188.9308, 1.294502
189.4129, 1.331667
189.8950, 1.519049
190.3771, 1.859228
190.8592, 2.214182
191.3414, 2.290176
191.8235, 1.837513
192.3056, 1.559242
192.7877, 1.590033
193.2698, 1.801718
193.7519, 2.068945
194.2341, 2.358356
194.7162, 2.634361
195.1983, 2.830860
195.6804, 2.982912
196.1625, 3.008116
196.6446, 2.747931
197.1268, 2.340961
197.6089, 2.125090
198.0910, 2.271759
198.5731, 2.566956
199.0552, 2.648588
199.5373, 2.478073
200.0195, 2.343092
200.5016, 2.457132
200.9837, 2.763323
201.4658, 2.959688
201.9479, 2.874649
202.4300, 2.730328
202.9122, 2.820232
203.3943, 3.178587
203.8764, 3.477362
204.3585, 3.391010
204.8406, 2.923532
205.3227, 2.552500
205.8048, 2.418987
206.2870, 2.414555
206.7691, 2.502714
207.2512, 2.674442
207.7333, 2.833620
208.2154, 2.857485
208.6975, 2.716923
209.1797, 2.631510
209.6618, 2.682562
210.1439, 2.769501
210.6260, 2.836005
211.1081, 2.845830
211.5902, 2.845633
212.0724, 2.916370
212.5545, 3.079172
213.0366, 3.236078
213.5187, 3.464052
214.0008, 3.611855
214.4829, 3.559303
214.9651, 3.297718
215.4472, 2.938462
215.9293, 2.623617
216.4114, 2.301954
216.8935, 2.170650
217.3756, 2.391413
217.8578, 2.643805
218.3399, 2.648348
218.8220, 2.362937
219.3041, 2.023183
219.7862, 1.986864
220.2683, 2.498808
220.7505, 2.774135
221.2326, 2.636442
221.7147, 2.390007
222.1968, 2.262698
222.6789, 2.313220
223.1610, 2.456464
223.6432, 2.558057
224.1253, 2.571262
224.6074, 2.595511
225.0895, 2.614612
225.5716, 2.649748
226.0537, 2.746449
226.5358, 2.911674
227.0180, 2.848265
227.5001, 3.161042
227.9822, 3.358128
228.4643, 3.445743
228.9464, 3.096003
229.4285, 3.311017
229.9107, 3.299714
230.3928, 3.279119
230.8749, 3.573618
231.3570, 3.287490
231.8391, 3.576994
232.3212, 3.636716
232.8034, 3.801614
233.2855, 3.738775
233.7676, 3.746273
234.2497, 3.981570
234.7318, 3.867867
235.2139, 3.516511
235.6961, 3.823976
236.1782, 4.015742
236.6603, 4.098034
237.1424, 3.742972
237.6245, 3.952663
238.1066, 3.936026
238.5888, 3.910118
239.0709, 4.199296
239.5530, 3.862221
240.0351, 3.715055
240.5172, 3.811315
240.9993, 4.038646
241.4815, 4.160202
241.9636, 4.119935
242.4457, 4.076638
242.9278, 4.192448
243.4099, 4.393424
243.8920, 4.519598
244.3742, 4.444300
244.8563, 4.257156
245.3384, 4.187531
245.8205, 4.311728
246.3026, 4.374962
246.7847, 4.175166
247.2668, 3.834458
247.7490, 3.550034
248.2311, 3.447643
248.7132, 3.442882
249.1953, 3.309982
249.6774, 2.977193
250.1595, 2.654587
250.6417, 2.453527
251.1238, 2.310552
251.6059, 2.128398
252.0880, 1.828279
252.5701, 1.294457
253.0522, 1.503878
253.5344, 1.597600
254.0165, 1.581859
254.4986, 1.128762
254.9807, 1.240419
255.4628, 1.125749
255.9449, 1.001797
256.4271, 1.192930
256.9092, 0.8699400
257.3913, 0.8743630
257.8734, 0.8988830
258.3555, 0.9551690
258.8376, 0.9892840
259.3198, 0.9130580
259.8019, 0.6890140
260.2840, 0.4303470
260.7661, 0.1835880
261.2482, 0.4167336
261.7303, 0.5341898
262.2125, 0.5421654
262.6946, 0.1127915
263.1767, 0.2481730
263.6588, 0.1572248
264.1409, 5.6997839E-02
264.6230, 0.2718656
265.1052, 0.2888850
265.5873, 0.3808920
266.0694, 0.4341140
266.5515, 0.4215340
267.0336, 0.2480220
267.5157, 7.3881999E-02
267.9979, 0.3593300
268.4800, 0.2989580
268.9621, 0.3929240
269.4442, 0.8072170
269.9263, 0.8442840
270.4084, 0.7373540
270.8906, 0.5824790
271.3727, 0.4207900
271.8548, 0.2967140
272.3369, 0.2770050
272.8190, 0.4237040
273.3011, 0.4651290
273.7833, 0.3302130
274.2654, 0.1710610
274.7475, 6.3753001E-02
275.2296, 1.6922999E-02
275.7117, 4.1120001E-03
276.1938, 4.1000001E-04
276.6760, 1.6520000E-03
277.1581, 2.3119999E-02
277.6402, 5.8219999E-02
278.1223, 0.1139680
278.6044, 0.2264800
279.0865, 0.3722570
279.5686, 0.4761790
280.0508, 0.4691900
280.5329, 0.3477480
281.0150, 0.2922960
281.4971, 0.3457670
281.9792, 0.4072590
282.4613, 0.4310600
282.9435, 0.4319410
283.4256, 0.4469500
283.9077, 0.2643030
284.3898, 0.5210880
284.8719, 0.6486790
285.3540, 0.6544320
285.8362, 0.1734010
286.3183, 0.3209100
286.8004, 0.2164820
287.2825, 0.1016830
287.7646, 0.3382460
288.2467, 6.7818001E-02
288.7289, 0.1663200
289.2110, 0.2208750
289.6931, 8.6585999E-02
290.1752, 0.2648040
290.6573, 0.3211290
291.1394, 0.1093650
291.6216, 8.8615999E-02
292.1037, 3.4641001E-02
292.5858, 2.9720999E-02
293.0679, 0.2565410
293.5500, 0.1034560
294.0321, 0.1771140
294.5143, 0.2019010
294.9964, 0.3437010
295.4785, 0.2320080
295.9606, 0.1937500
296.4427, 0.3208320
296.9248, 6.5029003E-02
297.4070, 8.7442003E-02
297.8891, 1.9121001E-02
298.3712, 9.8586001E-02
298.8533, 9.5275998E-02
299.3354, 5.0218001E-02
299.8175, 0.2164720
300.2997, 0.2710700
300.7818, 0.1846160
301.2639, 0.1299700
301.7460, 0.1354740
302.2281, 0.1581890
302.7102, 0.1667250
303.1924, 0.1618800
303.6745, 0.1689680
304.1566, 0.2158840
304.6387, 0.2973500
305.1208, 0.3283530
305.6029, 0.2548500
306.0851, 0.1863150
306.5672, 0.1872040
307.0493, 0.2415390
307.5314, 0.2885270
308.0135, 0.2869060
308.4956, 0.2574630
308.9778, 0.2932770
309.4599, 0.4637910
309.9420, 0.6017780
310.4241, 0.6394950
310.9062, 0.6087050
311.3883, 0.5671800
311.8705, 0.5377400
312.3526, 0.5134230
312.8347, 0.4823040
313.3168, 0.4469870
313.7989, 0.4009200
314.2810, 0.2919830
314.7632, 0.1880030
315.2453, 0.2142280
315.7274, 0.4115620
316.2095, 0.6312910
316.6916, 0.6536510
317.1737, 0.4183650
317.6559, 0.2473730
318.1380, 0.1579070
318.6201, 0.1489060
319.1022, 0.2702480
319.5843, 0.5149450
320.0664, 0.7288910
320.5485, 0.7539710
321.0306, 0.5697190
321.5128, 0.4530130
321.9949, 0.3899410
322.4770, 0.4025920
322.9591, 0.6019170
323.4412, 0.9275380
323.9233, 1.099842
324.4055, 0.8868130
324.8876, 0.3667920
325.3697, 0.1248090
325.8518, 0.2982010
326.3339, 0.5013480
326.8160, 0.6269790
327.2982, 0.6912380
327.7803, 0.7593620
328.2624, 0.8676520
328.7445, 0.9802970
329.2266, 0.9964170
329.7087, 0.8993440
330.1909, 0.7556650
330.6730, 0.4982130
331.1551, 0.2309440
331.6372, 0.1209100
332.1193, 0.2038820
332.6014, 0.3461540
333.0836, 0.3718310
333.5657, 0.2319630
334.0478, 0.1222510
334.5299, 6.3479999E-03
335.0120, 5.1282998E-02
335.4941, 2.4217000E-02
335.9763, 0.2319700
336.4584, 0.2946115
336.9405, 0.6116098
337.4226, 0.8129229
337.9047, 0.9047605
338.3868, 0.5592470
338.8690, 0.2311770
339.3511, 0.1530630
339.8332, 0.3872560
340.3153, 0.6037720
340.7974, 0.5698110
341.2795, 0.3279480
341.7617, 0.2305640
342.2438, 0.3880820
342.7259, 0.5436340
343.2080, 0.6953740
343.6901, 0.7941900
344.1722, 0.7414260
344.6544, 0.4904650
345.1365, 0.1520400
345.6186, 4.3714002E-02
346.1007, 3.5905000E-02
346.5828, 3.6981001E-02
347.0649, 0.2167360
347.5471, 0.4367810
348.0292, 0.6428420
348.5113, 0.8145420
348.9934, 0.9171930
349.4755, 0.9103900
349.9576, 0.7504620
350.4398, 0.6401000
350.9219, 0.5912010
351.4040, 0.5707090
351.8861, 0.5950900
352.3682, 0.6435440
352.8503, 0.6762670
353.3325, 0.6606390
353.8146, 0.5934510
354.2967, 0.5218430
354.7788, 0.4898750
355.2609, 0.4314680
355.7430, 0.2937960
356.2252, 0.1218610
356.7073, 2.3739001E-02
357.1894, 0.1137480
357.6715, 0.1381150
358.1536, 5.9588999E-02
358.6357, 0.2510600
359.1179, 0.4663960
359.5999, 0.5701770
360.0821, 0.5869530
360.5642, 0.5047610
361.0463, 0.3385710
361.5284, 0.1625090
362.0105, 5.7471000E-02
362.4926, 2.6077000E-02
362.9748, 3.9505001E-02
363.4569, 0.1452460
363.9390, 0.2520760
364.4211, 0.3253640
364.9032, 0.3666500
365.3853, 0.3861260
365.8675, 0.3855390
366.3496, 0.3707430
366.8317, 0.4023190
367.3138, 0.5834730
367.7959, 0.6753310
368.2780, 0.5386980
368.7602, 0.3326090
369.2423, 0.2328730
369.7244, 0.3234810
370.2065, 0.5179520
370.6886, 0.6259780
371.1707, 0.6093890
371.6529, 0.6004140
372.1350, 0.6522180
372.6171, 0.6923690
373.0992, 0.6619930
373.5813, 0.5591260
374.0634, 0.4384160
374.5456, 0.3537900
375.0277, 0.3066190
375.5098, 0.2679500
375.9919, 0.2140320
376.4740, 0.1980760
376.9561, 0.2729650
377.4383, 0.4036380
377.9204, 0.5118040
378.4025, 0.5596630
378.8846, 0.5511160
379.3667, 0.4790200
379.8488, 0.3007400
380.3310, 0.1706880
380.8131, 0.2371410
381.2952, 0.3538780
381.7773, 0.3133870
382.2594, 3.8936999E-02
382.7415, 0.2383760
383.2237, 0.2234140
383.7058, 8.3125003E-02
384.1879, 0.3097760
384.6700, 0.3149770
385.1521, 0.2636290
385.6342, 0.3281010
386.1164, 0.4986170
386.5985, 0.6248550
387.0806, 0.6163690
387.5627, 0.5038770
388.0448, 0.3291760
388.5269, 6.0281999E-02
389.0091, 0.1500910
389.4912, 0.1286070
389.9733, 3.6913998E-02
390.4554, 0.1550180
390.9375, 0.1232390
391.4196, 8.7632999E-02
391.9018, 0.2224250
392.3839, 0.5048400
392.8660, 0.7192520
393.3481, 0.7757640
393.8302, 0.7109320
394.3123, 0.5916510
394.7945, 0.3850380
395.2766, 0.2304350
395.7587, 0.2433030
396.2408, 0.3288560
396.7229, 0.2974160
397.2050, 9.4180003E-02
397.6872, 0.1101680
398.1693, 0.1296750
398.6514, 5.4058999E-02
399.1335, 0.2801570
399.6156, 0.6703320
400.0977, 0.9997100
400.5798, 1.083881
401.0620, 0.9504880
401.5441, 0.7394550
402.0262, 0.5164130
402.5083, 0.3007400
402.9904, 0.2015060
403.4725, 0.2363240
403.9547, 0.3423620
404.4368, 0.6285080
404.9189, 0.9352180
405.4010, 1.013432
405.8831, 0.7960950
406.3652, 0.5020970
406.8474, 0.4737480
407.3295, 0.8895240
407.8116, 1.044813
408.2937, 0.7316690
408.7758, 0.3750630
409.2579, 0.1836460
409.7401, 0.1625080
410.2222, 0.2502980
410.7043, 0.4243620
411.1864, 0.6568350
411.6685, 0.7053380
412.1506, 0.3190260
412.6328, 5.3484000E-02
413.1149, 4.9697001E-02
413.5970, 0.1790040
414.0791, 0.2971450
414.5612, 0.3532550
415.0433, 0.3966510
415.5255, 0.5464430
416.0076, 0.8978670
416.4897, 1.049271
416.9718, 0.7911590
417.4539, 0.4735450
417.9360, 0.2191050
418.4182, 4.3269001E-02
418.9003, 6.0954001E-02
419.3824, 9.1898002E-02
419.8645, 5.7836000E-02
420.3466, 1.4158000E-02
420.8287, 0.1576640
421.3109, 0.2702320
421.7930, 0.2580490
422.2751, 0.2177640
422.7572, 0.2805200
423.2393, 0.5112300
423.7214, 0.7354530
424.2036, 0.7489380
424.6857, 0.5586880
425.1678, 0.3336620
425.6499, 2.0798000E-02
426.1320, 0.1953130
426.6141, 9.1701999E-02
427.0963, 0.2877450
427.5784, 0.6052750
428.0605, 0.7010860
428.5426, 0.6562830
429.0247, 0.5677160
429.5068, 0.4354260
429.9890, 0.3332580
430.4711, 0.3259350
430.9532, 0.3811620
431.4353, 0.3865950
431.9174, 0.3038400
432.3995, 0.2277720
432.8817, 0.1745870
433.3638, 0.1650880
433.8459, 0.2715410
434.3280, 0.5297750
434.8101, 0.8208740
435.2922, 0.9774210
435.7744, 0.9652990
436.2565, 0.9357080
436.7386, 0.9478470
437.2207, 0.9005390
437.7028, 0.6181820
438.1849, 0.1811220
438.6671, 8.8816002E-02
439.1492, 4.5896001E-02
439.6313, 0.5033030
440.1134, 0.8010290
440.5955, 0.7990930
441.0776, 0.7949950
441.5598, 0.8908350
442.0418, 0.9697430
442.5240, 0.8704380
443.0061, 0.5754100
443.4882, 0.2775300
443.9703, 0.2567380
444.4524, 0.6070130
444.9345, 0.7914420
445.4167, 0.6202420
445.8988, 0.4682590
446.3809, 0.4776810
446.8630, 0.5936600
447.3451, 0.7403430
447.8272, 0.8935510
448.3094, 1.001250
448.7915, 0.9009520
449.2736, 0.4658000
449.7557, 0.1866900
450.2378, 0.2360970
450.7199, 0.2360918
451.2021, 0.5695422
451.6842, 0.7872947
452.1663, 0.8955704
452.6484, 0.5664954
453.1305, 0.8021696
453.6126, 0.8115208
454.0948, 0.5268620
454.5769, 0.3469310
455.0590, 0.6045000
455.5411, 1.059563
456.0232, 1.303988
456.5053, 1.170321
456.9875, 0.9236580
457.4696, 0.7364100
457.9517, 0.6152870
458.4338, 0.6206340
458.9159, 0.8230980
459.3980, 1.060688
459.8802, 1.054480
460.3623, 0.7842450
460.8444, 0.5627360
461.3265, 0.4396560
461.8086, 0.3940990
462.2907, 0.4517910
462.7729, 0.5928210
463.2550, 0.6892600
463.7371, 0.6203340
464.2192, 0.4359390
464.7013, 0.4007420
465.1834, 0.6646890
465.6656, 0.8852830
466.1477, 1.027005
466.6298, 1.079584
467.1119, 0.9799160
467.5940, 0.7381790
468.0761, 0.4944180
468.5583, 0.4026870
469.0404, 0.4922640
469.5225, 0.5981390
470.0046, 0.7851390
470.4867, 0.9185520
470.9688, 0.9572200
471.4510, 0.9177670
471.9331, 0.7997680
472.4152, 0.5912510
472.8973, 0.3849910
473.3794, 0.4024760
473.8615, 0.7299170
474.3437, 0.9147380
474.8258, 0.7271560
475.3079, 0.4880090
475.7900, 0.3754880
476.2721, 0.3930200
476.7542, 0.4735480
477.2364, 0.6810540
477.7185, 0.9074180
478.2006, 0.6074756
478.6827, 0.8641959
479.1648, 1.005227
479.6469, 1.036786
480.1291, 0.6309883
480.6112, 0.7899451
481.0933, 0.7225749
481.5754, 1.010085
482.0575, 0.9818740
482.5396, 0.7931880
483.0217, 0.6000840
483.5038, 0.4256420
483.9860, 0.3211790
484.4681, 0.3910840
484.9502, 0.6466930
485.4323, 0.8032070
485.9144, 0.8063740
486.3965, 0.7743590
486.8787, 0.7239020
487.3608, 0.6794460
487.8429, 0.7040270
488.3250, 0.8226290
488.8071, 0.9458940
489.2892, 0.9023420
489.7714, 0.5794550
490.2535, 0.3638770
490.7356, 0.2289230
491.2177, 0.2064770
491.6998, 0.4282070
492.1819, 0.7778570
492.6641, 0.9793820
493.1462, 0.8350950
493.6283, 0.4763060
494.1104, 0.2833810
494.5925, 0.2898830
495.0746, 0.3726620
495.5568, 0.6329400
496.0389, 0.8682190
496.5210, 0.8860230
497.0031, 0.7070270
497.4852, 0.5398310
497.9673, 0.5775170
498.4495, 0.7356070
498.9316, 0.7659390
499.4137, 0.6354060
499.8958, 0.4915680
500.3779, 0.3967210
500.8600, 0.3534210
501.3422, 0.3662360
501.8243, 0.4605210
502.3064, 0.5561690
502.7885, 0.6384010
503.2706, 0.6888230
503.7527, 0.6469960
504.2349, 0.4981590
504.7170, 0.3651700
505.1991, 0.3870010
505.6812, 0.5764960
506.1633, 0.6442760
506.6454, 0.4833410
507.1276, 0.3345420
507.6097, 0.2787030
508.0918, 0.2943670
508.5739, 0.3661460
509.0560, 0.4835970
509.5381, 0.5853080
510.0203, 0.5581610
510.5024, 0.3408990
510.9845, 0.2050060
511.4666, 0.2236810
511.9487, 0.2518230
512.4308, 0.2363960
512.9130, 0.1886980
513.3951, 0.1293020
513.8772, 5.8798000E-02
514.3593, 1.2558000E-02
514.8414, 8.3036996E-02
515.3235, 0.2941070
515.8057, 0.4300150
516.2878, 0.4020180
516.7699, 0.3267240
517.2520, 0.3102050
517.7341, 0.3469420
518.2162, 0.3588550
518.6984, 0.3271300
519.1805, 0.2580360
519.6626, 0.1162850
520.1447, 8.6845003E-02
520.6268, 0.1841530
521.1089, 5.5365000E-02
521.5911, 0.1800470
522.0732, 0.2249700
522.5553, 6.7010000E-03
523.0374, 0.1405990
523.5195, 3.2390000E-03
524.0016, 0.1805800
524.4838, 0.1555110
524.9659, 5.3674001E-02
525.4480, 0.1344140
525.9301, 0.1737020
526.4122, 0.7504850
526.8943, 0.9661520
527.3765, 0.4534520
527.8586, 9.2569999E-02
528.3407, 3.6710002E-02
528.8228, 9.9523999E-02
529.3049, 0.1671770
529.7870, 0.1866910
530.2692, 0.1653190
530.7513, 9.0296000E-02
531.2334, 1.6232001E-02
531.7155, 2.7540000E-03
532.1976, 0.2325740
532.6797, 0.3876210
533.1619, 0.2200260
533.6440, 2.0638000E-02
534.1261, 6.1932001E-02
534.6082, 0.1569130
535.0903, 0.4058510
535.5724, 0.5046860
536.0546, 0.5329000
536.5367, 0.7096770
537.0188, 1.075330
537.5009, 1.357934
537.9830, 1.336206
538.4651, 1.058569
538.9473, 0.8435040
539.4294, 0.7033400
539.9115, 0.6026960
540.3936, 0.5102140
540.8757, 0.4608860
541.3578, 0.5200070
541.8400, 0.6894910
542.3221, 0.8923750
542.8042, 1.060776
543.2863, 1.195852
543.7684, 1.222699
544.2505, 0.9648410
544.7326, 0.8116490
545.2147, 0.9506890
545.6968, 1.173675
546.1790, 1.229721
546.6611, 1.063148
547.1432, 0.8540530
547.6253, 0.7969980
548.1074, 0.8827940
548.5895, 0.9905780
549.0717, 1.105866
549.5538, 1.205463
550.0359, 1.265400
550.5180, 1.316418
551.0001, 1.413331
551.4822, 1.592222
551.9644, 1.749797
552.4465, 1.850081
552.9286, 1.877928
553.4107, 1.762259
553.8928, 1.485159
554.3749, 1.222590
554.8571, 1.143676
555.3392, 1.242638
555.8213, 1.278273
556.3034, 1.231827
556.7855, 1.155509
557.2676, 1.006330
557.7498, 0.8611460
558.2319, 0.8473950
558.7140, 0.9753520
559.1961, 1.092735
559.6782, 1.010306
560.1603, 0.7250190
560.6425, 0.5616700
561.1246, 0.6263040
561.6067, 0.6611910
562.0888, 0.5204450
562.5709, 0.3431820
563.0530, 0.3007620
563.5352, 0.4375110
564.0173, 0.6142290
564.4994, 0.7238160
564.9815, 0.7785190
565.4636, 0.8252980
565.9457, 0.8757710
566.4279, 0.8758490
566.9100, 0.7487490
567.3921, 0.5489300
567.8742, 0.4755470
568.3563, 0.6523300
568.8384, 0.7604720
569.3206, 0.6017210
569.8027, 0.3478590
570.2848, 0.2274310
570.7669, 0.2649400
571.2490, 0.3165730
571.7311, 0.2471890
572.2133, 7.6715998E-02
572.6954, 3.7583999E-02
573.1775, 0.3329620
573.6596, 0.4811020
574.1417, 0.2824520
574.6238, 1.1167000E-02
575.1060, 7.9697996E-02
575.5881, 2.7673000E-02
576.0702, 0.1592820
576.5523, 0.1569450
577.0344, 6.3777000E-02
577.5165, 3.9498001E-02
577.9987, 8.4880002E-02
578.4808, 0.1799000
578.9629, 0.3956480
579.4450, 0.6208790
579.9271, 0.7105200
580.4092, 0.6519710
580.8914, 0.5143990
581.3735, 0.1900260
581.8556, 9.5954999E-02
582.3377, 4.5730001E-03
582.8198, 0.4369890
583.3019, 0.7865030
583.7841, 0.8196610
584.2662, 0.6312880
584.7483, 0.4971670
585.2304, 0.5011010
585.7125, 0.4173770
586.1946, 5.6754999E-02
586.6768, 0.2186550
587.1589, 7.7826001E-02
587.6410, 0.3422950
588.1231, 0.6395990
588.6052, 0.5633960
589.0873, 0.2864890
589.5695, 0.1792660
590.0516, 0.2682620
590.5337, 0.3388170
591.0158, 0.3435740
591.4979, 0.3223660
591.9800, 0.2969010
592.4622, 0.2790650
592.9443, 0.2876420
593.4264, 0.3615810
593.9085, 0.4342420
594.3906, 0.4257170
594.8727, 0.3710970
595.3549, 0.3870520
595.8370, 0.5161810
596.3191, 0.6432760
596.8012, 0.6013300
597.2833, 0.3354740
597.7654, 0.2989710
598.2476, 0.7516170
598.7297, 1.097965
599.2118, 1.094936
599.6939, 0.9060010
600.1760, 0.7186860
600.6581, 0.5979010
601.1403, 0.5554330
601.6224, 0.6618710
602.1045, 0.9045870
602.5866, 0.9564190
603.0687, 0.7330590
603.5508, 0.5042930
604.0330, 0.4460090
604.5151, 0.4525060
604.9972, 0.3380690
605.4793, 3.3566002E-02
605.9614, 0.1755180
606.4435, 0.1016550
606.9257, 0.1260490
607.4078, 0.3732980
607.8899, 0.6108150
608.3720, 0.7564590
608.8541, 0.7505960
609.3362, 0.6284930
609.8184, 0.5072590
610.3005, 0.3471910
610.7826, 0.2533300
611.2647, 0.2348870
611.7468, 0.2716370
612.2289, 0.3876770
612.7111, 0.5480360
613.1932, 0.6745790
613.6753, 0.7223050
614.1574, 0.7150440
614.6395, 0.6890230
615.1216, 0.6419960
615.6038, 0.6058480
616.0859, 0.5947480
616.5680, 0.5836350
617.0501, 0.5260360
617.5322, 0.4459440
618.0143, 0.4331560
618.4965, 0.5796660
618.9786, 0.7152430
619.4607, 0.7001210
619.9428, 0.6119700
620.4249, 0.6092060
620.9070, 0.7259960
621.3892, 0.8550210
621.8713, 0.8795480
622.3534, 0.8020060
622.8355, 0.7983620
623.3176, 1.061243
623.7997, 1.143437
624.2819, 0.8400790
624.7640, 0.4232130
625.2461, 0.1030510
625.7282, 6.9183998E-02
626.2103, 0.1298380
626.6924, 4.2128999E-02
627.1745, 0.1278680
627.6566, 0.1974410
628.1387, 0.1592370
628.6208, 0.1146040
629.1030, 7.8525998E-02
629.5851, 7.9899997E-02
630.0672, 0.1875530
630.5493, 0.4077130
631.0314, 0.5916260
631.5135, 0.7700890
631.9957, 0.8516180
632.4778, 0.7079340
632.9599, 0.4304910
633.4420, 0.2061720
633.9241, 0.1005570
634.4063, 9.2855997E-02
634.8884, 0.1650020
635.3705, 0.3259130
635.8526, 0.5143920
636.3347, 0.8463600
636.8168, 1.034861
637.2990, 0.8843740
637.7811, 0.5958330
638.2632, 0.4346040
638.7453, 0.4607440
639.2274, 0.4831500
639.7095, 0.2915870
640.1917, 4.2978998E-02
640.6738, 2.2049000E-02
641.1559, 0.2350310
641.6380, 0.4478750
642.1201, 0.5300660
642.6022, 0.5432840
643.0844, 0.6371720
643.5665, 0.9272050
644.0486, 1.045814
644.5307, 0.8147570
645.0128, 0.5842890
645.4949, 0.5733810
645.9771, 0.6846920
646.4592, 0.6924190
646.9413, 0.4916020
647.4234, 0.2627680
647.9055, 0.3101350
648.3876, 0.6257690
648.8698, 0.8041280
649.3519, 0.7756830
649.8340, 0.6919750
650.3161, 0.5909170
650.7982, 0.5132340
651.2803, 0.5647390
651.7625, 0.8370010
652.2446, 1.017928
652.7267, 0.9103980
653.2088, 0.6969110
653.6909, 0.5738220
654.1730, 0.5513350
654.6552, 0.5451340
655.1373, 0.4870230
655.6194, 0.4070060
656.1015, 0.3579580
656.5836, 0.3346480
657.0657, 0.3633710
657.5479, 0.5073750
658.0300, 0.6210870
658.5121, 0.6277350
658.9942, 0.5681590
659.4763, 0.5415540
659.9584, 0.6068770
660.4406, 0.6262440
660.9227, 0.3855280
661.4048, 1.1073000E-02
661.8869, 0.1735310
662.3690, 0.1195620
662.8511, 8.2105003E-02
663.3333, 0.4147410
663.8154, 0.8072970
664.2975, 1.010942
664.7796, 0.9394620
665.2617, 0.7958460
665.7438, 0.3968980
666.2260, 7.4642003E-02
666.7081, 0.1140560
667.1902, 0.4205840
667.6723, 0.7224570
668.1544, 0.8893360
668.6365, 0.9490950
669.1187, 0.9013940
669.6008, 0.7564380
670.0829, 0.6849380
670.5650, 0.7415460
671.0471, 0.7878100
671.5292, 0.6798790
672.0114, 0.4857330
672.4935, 0.4412790
672.9756, 0.6811450
673.4577, 0.8431020
673.9398, 0.7439100
674.4219, 0.5700150
674.9041, 0.5010140
675.3862, 0.5372960
675.8683, 0.5837890
676.3504, 0.5811940
676.8325, 0.5560000
677.3146, 0.5931190
677.7968, 0.7309590
678.2789, 0.7312300
678.7610, 0.4222590
679.2431, 0.1614650
679.7252, 0.2095950
680.2073, 0.4451680
680.6895, 0.6391340
681.1716, 0.7794680
681.6537, 0.7897750
682.1358, 0.4959100
682.6179, 0.1073910
683.1000, 6.4030997E-02
683.5822, 8.4969997E-03
684.0643, 0.1037350
684.5464, 0.1753310
685.0285, 0.2203720
685.5106, 0.2673450
685.9927, 0.2909800
686.4749, 0.3713480
686.9570, 0.5609310
687.4391, 0.7589720
687.9212, 0.9992340
688.4033, 1.199654
688.8854, 1.186743
689.3676, 0.8620460
689.8497, 0.5215610
690.3318, 0.4506650
690.8139, 0.5425370
691.2960, 0.5655890
691.7781, 0.4962960
692.2603, 0.4337570
692.7424, 0.4481970
693.2245, 0.4915980
693.7066, 0.4274770
694.1887, 0.1056140
694.6708, 1.5080000E-02
695.1530, 0.2405650
695.6351, 0.5014690
696.1172, 0.6193310
696.5993, 0.6267030
697.0814, 0.5166820
697.5635, 0.2842290
698.0457, 9.9809997E-02
698.5278, 0.2151050
699.0099, 0.5147650
699.4920, 0.5721190
699.9741, 0.3420620
700.4562, 0.1399500
700.9384, 0.1396000
701.4205, 0.2569830
701.9026, 0.3208890
702.3847, 0.3205340
702.8668, 0.2903310
703.3489, 0.1496300
703.8311, 6.3258000E-02
704.3132, 0.1521430
704.7953, 0.3360350
705.2774, 0.5093900
705.7595, 0.6319050
706.2416, 0.6725440
706.7238, 0.5488270
707.2059, 0.3074790
707.6880, 0.1556520
708.1701, 0.1031210
708.6522, 9.5080003E-02
709.1343, 0.1258390
709.6164, 0.1693250
710.0985, 0.1900840
710.5806, 0.1906420
711.0627, 0.1535400
711.5449, 2.3815000E-02
712.0270, 0.1292430
712.5091, 4.3503001E-02
712.9912, 0.3042210
713.4733, 0.3464460
713.9554, 0.1243340
714.4376, 0.1039300
714.9197, 6.2596999E-02
715.4018, 0.1690290
715.8839, 0.2769810
716.3660, 0.2465930
716.8481, 0.1862390
717.3303, 7.9576001E-02
717.8124, 2.4094000E-02
718.2945, 0.2167400
718.7766, 0.6279480
719.2587, 0.7963080
719.7408, 0.4719660
720.2230, 0.1444910
720.7051, 5.3739999E-03
721.1872, 3.7395999E-02
721.6693, 9.8344997E-02
722.1514, 0.1818030
722.6335, 0.1913590
723.1157, 2.7387001E-02
723.5978, 0.2175500
724.0799, 0.3090440
724.5620, 0.2359040
725.0441, 0.1441800
725.5262, 1.7364001E-02
726.0084, 4.2826999E-02
726.4905, 0.1142100
726.9726, 0.4156950
727.4547, 0.5725460
727.9368, 0.5173060
728.4189, 0.4003770
728.9011, 0.1602410
729.3832, 4.4899002E-02
729.8653, 1.1251000E-02
730.3474, 0.2068900
730.8295, 0.3857170
731.3116, 0.3992270
731.7938, 0.3307240
732.2759, 0.3302170
732.7580, 0.4017820
733.2401, 0.4190140
733.7222, 0.3399550
734.2043, 0.2951210
734.6865, 0.3984120
735.1686, 0.5690550
735.6507, 0.6250090
736.1328, 0.5306330
736.6149, 0.4455910
737.0970, 0.4074180
737.5792, 0.3837300
738.0613, 0.3583490
738.5434, 0.3285440
739.0255, 0.2887670
739.5076, 0.2380940
739.9897, 0.1937360
740.4719, 0.1834220
740.9540, 0.1927030
741.4361, 0.1705940
741.9182, 0.1032950
742.4003, 7.3977999E-02
742.8824, 0.1237070
743.3646, 0.2158870
743.8467, 0.3121110
744.3288, 0.4130610
744.8109, 0.4948500
745.2930, 0.6364380
745.7751, 0.6641560
746.2573, 0.3178870
746.7394, 7.3861003E-02
747.2215, 2.3026001E-02
747.7036, 0.4537350
748.1857, 0.8379260
748.6678, 0.6945000
749.1500, 0.2786650
749.6321, 0.1881910
750.1142, 0.4228210
750.5963, 0.5861580
751.0784, 0.5893770
751.5605, 0.5441530
752.0427, 0.5656810
752.5248, 0.6138770
753.0069, 0.4892560
753.4890, 5.7004001E-02
753.9711, 0.3830700
754.4532, 0.2467190
754.9354, 8.2000000E-03
755.4175, 7.0330001E-02
755.8996, 3.8694002E-02
756.3817, 8.9394003E-02
756.8638, 0.3111930
757.3459, 0.5259500
757.8281, 0.4692270
758.3102, 0.2252860
758.7923, 0.1003250
759.2744, 0.1124700
759.7565, 0.2955270
760.2386, 0.7554810
760.7208, 1.227595
761.2029, 1.213326
761.6850, 0.5220850
762.1671, 0.1222070
762.6492, 0.1995460
763.1313, 0.3227840
763.6135, 0.3655430
764.0956, 0.3796750
764.5777, 0.4275220
765.0598, 0.5178640
765.5419, 0.6256230
766.0240, 0.7740560
766.5062, 0.8954790
766.9883, 0.8799720
767.4704, 0.7498250
767.9525, 0.5688000
768.4346, 0.3475270
768.9167, 0.2067470
769.3989, 0.2792190
769.8810, 0.5054780
770.3631, 0.5304720
770.8452, 8.7846003E-02
771.3273, 9.3340002E-02
771.8094, 0.2811210
772.2916, 0.6713900
772.7737, 0.8258300
773.2558, 0.7933080
773.7379, 0.6782420
774.2200, 0.4900920
774.7021, 0.3123000
775.1843, 0.1701990
775.6664, 8.8068001E-02
776.1485, 0.1419150
776.6306, 0.2979160
777.1127, 0.4147530
777.5948, 0.4294840
778.0770, 0.3933790
778.5591, 0.3914870
779.0412, 0.4289160
779.5233, 0.3448370
780.0054, 1.4592000E-02
780.4875, 0.1721310
780.9697, 3.7048999E-02
781.4518, 0.3604450
781.9339, 0.5180130
782.4160, 0.5222070
782.8981, 0.5587340
783.3802, 0.7631840
783.8624, 0.9028010
784.3445, 0.7917390
784.8266, 0.5915190
785.3087, 0.5263550
785.7908, 0.6048320
786.2729, 0.6790550
786.7551, 0.6451340
787.2372, 0.5708770
787.7193, 0.6626750
788.2014, 0.9154160
788.6835, 0.8871350
789.1656, 0.4438090
789.6478, 1.9282000E-02
790.1299, 0.1374480
790.6120, 8.8246003E-02
791.0941, 4.2856000E-02
791.5762, 0.3110930
792.0583, 0.4927800
792.5404, 0.5725860
793.0225, 0.5672320
793.5046, 0.3649450
793.9868, 0.1407730
794.4689, 0.1650810
794.9510, 0.4689840
795.4331, 0.7727670
795.9152, 0.8582700
796.3973, 0.8197430
796.8795, 0.7832570
797.3616, 0.7560400
797.8437, 0.7841220
798.3258, 0.8807970
798.8079, 0.9911860
799.2900, 1.072231
799.7722, 1.122190
800.2543, 1.126198
800.7364, 1.054316
801.2185, 0.9977090
801.7006, 0.9976520
802.1827, 0.9794060
802.6649, 0.9148290
803.1470, 0.8058240
803.6291, 0.6142890
804.1112, 0.2832640
804.5933, 0.1373400
805.0754, 0.5538010
805.5576, 1.073480
806.0397, 1.224344
806.5218, 1.095101
807.0039, 0.9506900
807.4860, 0.8865500
807.9681, 0.8595610
808.4503, 0.8099580
808.9324, 0.7593500
809.4145, 0.8698620
809.8966, 1.192796
810.3787, 1.350705
810.8608, 1.205490
811.3430, 0.9453460
811.8251, 0.6718550
812.3072, 0.4293170
812.7893, 0.3474320
813.2714, 0.5688540
813.7535, 0.7108610
814.2357, 0.5984990
814.7178, 0.5015520
815.1999, 0.6361870
815.6820, 0.9246130
816.1641, 1.226886
816.6462, 1.498075
817.1284, 1.600713
817.6105, 1.214995
818.0926, 0.6532900
818.5747, 0.6069990
819.0568, 1.007130
819.5389, 1.283916
820.0211, 1.234984
820.5032, 1.057276
820.9853, 0.9699310
821.4674, 0.9664160
821.9495, 0.9495860
822.4316, 0.9192990
822.9138, 0.8742120
823.3959, 0.7707400
823.8780, 0.6963980
824.3601, 0.7165680
824.8422, 0.8089720
825.3243, 0.9281060
825.8065, 1.118513
826.2886, 1.205623
826.7707, 0.9674320
827.2528, 0.7286010
827.7349, 0.8669830
828.2170, 1.223790
828.6992, 1.384067
829.1813, 1.210175
829.6634, 0.9710940
830.1455, 0.9421490
830.6276, 1.075490
831.1097, 1.236833
831.5919, 1.424016
832.0740, 1.547505
832.5561, 1.573057
833.0382, 1.564277
833.5203, 1.588363
834.0024, 1.633061
834.4846, 1.601676
834.9667, 1.410352
835.4488, 1.280873
835.9309, 1.284435
836.4130, 1.286509
836.8951, 1.194375
837.3773, 1.059328
837.8594, 0.9742560
838.3415, 0.9563840
838.8236, 0.9812980
839.3057, 1.059681
839.7878, 1.142701
840.2700, 1.195919
840.7521, 1.213653
841.2342, 1.152648
841.7163, 1.021114
842.1984, 0.9646200
842.6805, 1.146941
843.1627, 1.464449
843.6448, 1.604555
844.1269, 1.563965
844.6090, 1.426259
845.0911, 1.164732
845.5732, 0.9523460
846.0554, 0.9111960
846.5375, 1.005668
847.0196, 1.142106
847.5017, 1.367685
847.9838, 1.534417
848.4659, 1.652729
848.9481, 1.698749
849.4302, 1.587669
849.9123, 1.438104
850.3944, 1.443581
850.8765, 1.600820
851.3586, 1.663787
851.8408, 1.324203
852.3229, 1.008339
852.8050, 1.171082
853.2871, 1.557880
853.7692, 1.728435
854.2513, 1.641305
854.7335, 1.499509
855.2156, 1.424037
855.6977, 1.413298
856.1798, 1.483238
856.6619, 1.630672
857.1440, 1.778399
857.6262, 1.949618
858.1083, 1.959189
858.5904, 1.657219
859.0725, 1.266805
859.5546, 1.105960
860.0367, 1.197057
860.5189, 1.261544
861.0010, 1.314052
861.4831, 1.321209
861.9652, 1.228485
862.4473, 1.131155
862.9294, 1.134436
863.4116, 1.193940
863.8937, 1.148635
864.3758, 0.9051480
864.8579, 0.7152500
865.3400, 0.7998120
865.8221, 0.9793530
866.3043, 1.025819
866.7864, 0.9792220
867.2685, 0.9903290
867.7506, 1.102121
868.2327, 1.184709
868.7148, 1.067775
869.1970, 0.8385110
869.6791, 0.8427540
870.1612, 1.083137
870.6433, 1.186480
871.1254, 1.051463
871.6075, 0.8795450
872.0897, 0.8196700
872.5718, 0.8428960
873.0539, 0.8558150
873.5360, 0.8416390
874.0181, 0.8632630
874.5002, 0.9571990
874.9823, 1.023705
875.4644, 1.045401
875.9465, 1.024815
876.4286, 0.9332430
876.9108, 0.7792120
877.3929, 0.7025560
877.8750, 0.8136760
878.3571, 0.9415620
878.8392, 1.007113
879.3214, 1.026984
879.8035, 1.021767
880.2856, 0.9920570
880.7677, 0.8967520
881.2498, 0.7030870
881.7319, 0.5799890
882.2141, 0.8624550
882.6962, 1.365832
883.1783, 1.474977
883.6604, 1.204854
884.1425, 0.9867310
884.6246, 0.9774800
885.1068, 1.027432
885.5889, 0.9714330
886.0710, 0.8256740
886.5531, 0.7136560
887.0352, 0.6278860
887.5173, 0.6067180
887.9995, 0.7395140
888.4816, 0.8172340
888.9637, 0.6262130
889.4458, 0.3172310
889.9279, 0.1971250
890.4100, 0.3159680
890.8922, 0.4470770
891.3743, 0.6317780
891.8564, 0.7387130
892.3385, 0.6313780
892.8206, 0.4618160
893.3027, 0.4115190
893.7849, 0.4823810
894.2670, 0.5463530
894.7491, 0.5162040
895.2312, 0.4984310
895.7133, 0.6226730
896.1954, 0.8034530
896.6776, 0.9455210
897.1597, 1.021966
897.6418, 0.9690210
898.1239, 0.7619360
898.6060, 0.5058410
899.0881, 0.3270720
899.5703, 0.2213790
900.0524, 0.1046700
900.5345, 3.2970998E-02
901.0166, 1.9535000E-02
901.4987, 0.2282150
901.9808, 0.4382420
902.4630, 0.3823220
902.9451, 0.1449460
903.4272, 9.6930005E-03
903.9093, 3.1681001E-02
904.3914, 2.5219001E-02
904.8735, 8.6626001E-02
905.3557, 0.1274750
905.8378, 0.1084180
906.3199, 0.3689140
906.8020, 0.3332810
907.2841, 7.6819998E-03
907.7662, 0.2455890
908.2484, 0.3880590
908.7305, 0.3813200
909.2126, 5.8160000E-02
909.6947, 0.3011660
910.1768, 0.4161480
910.6589, 0.3442630
911.1411, 0.2826600
911.6232, 0.3040920
912.1053, 0.3727760
912.5874, 0.5153530
913.0695, 0.6515280
913.5516, 0.6400690
914.0338, 0.5077310
914.5159, 0.3407700
914.9980, 0.1691020
915.4801, 4.4457000E-02
915.9622, 4.0549999E-03
916.4443, 4.7125999E-02
916.9265, 0.2253710
917.4086, 0.5378460
917.8907, 0.6262190
918.3728, 0.4283210
918.8549, 0.2182480
919.3370, 0.1100580
919.8192, 6.4154997E-02
920.3013, 2.1952000E-02
920.7834, 1.8503999E-02
921.2655, 2.5574001E-02
921.7476, 0.2804530
922.2297, 0.3965610
922.7119, 0.1538330
923.1940, 6.5007001E-02
923.6761, 3.5519999E-02
924.1582, 0.2973120
924.6403, 0.3760970
925.1224, 0.1908770
925.6046, 3.9512001E-02
926.0867, 1.5507000E-02
926.5688, 6.7739999E-03
927.0509, 8.8561997E-02
927.5330, 0.2127350
928.0151, 0.3042610
928.4973, 0.3575410
928.9794, 0.4054490
929.4615, 0.4838730
929.9436, 0.5028620
930.4257, 0.3103470
930.9078, 5.3188000E-02
931.3900, 6.8028003E-02
931.8721, 5.2618999E-02
932.3542, 6.6071004E-02
932.8363, 0.2669200
933.3184, 0.4746610
933.8005, 0.6191760
934.2827, 0.7106000
934.7648, 0.7955410
935.2469, 0.8616220
935.7290, 0.7555500
936.2111, 0.4441140
936.6932, 0.1776400
937.1754, 0.1075860
937.6575, 0.1529030
938.1396, 0.1665360
938.6217, 0.1437640
939.1038, 0.1543330
939.5859, 0.2222060
940.0681, 0.2550860
940.5502, 0.1937720
941.0323, 0.1417380
941.5144, 0.2151150
941.9965, 0.3712960
942.4786, 0.4235430
942.9608, 0.2951460
943.4429, 0.2266270
943.9250, 0.2748240
944.4071, 0.3286150
944.8892, 0.3666800
945.3713, 0.3716120
945.8535, 0.2868220
946.3356, 0.1333980
946.8177, 7.9444997E-02
947.2998, 0.2872740
947.7819, 0.4398790
948.2640, 0.3003950
948.7462, 0.1048810
949.2283, 9.1679998E-02
949.7104, 0.1954490
950.1925, 0.2406200
950.6746, 0.1758340
951.1567, 7.8506000E-02
951.6389, 2.5790000E-02
952.1210, 0.1010300
952.6031, 0.1063220
953.0852, 4.5062002E-02
953.5673, 0.1079740
954.0494, 0.3305230
954.5316, 0.5216510
955.0137, 0.6297930
955.4958, 0.6364970
955.9779, 0.4666280
956.4600, 0.1672000
956.9421, 3.2164998E-02
957.4242, 0.1334090
957.9063, 0.1808480
958.3884, 0.1843710
958.8705, 0.1225100
959.3527, 2.0345001E-02
959.8348, 0.2263290
960.3169, 0.4615200
960.7990, 0.7815390
961.2811, 0.7811080
961.7632, 0.2683130
962.2454, 2.5142999E-02
962.7275, 0.3079250
963.2096, 0.7682050
963.6917, 0.7776140
964.1738, 0.3841620
964.6559, 0.1969880
965.1381, 0.3880990
965.6202, 0.4949920
966.1023, 0.4940240
966.5844, 0.4402170
967.0665, 0.3005810
967.5486, 0.1616720
968.0308, 0.1953420
968.5129, 0.4079660
968.9950, 0.5103480
969.4771, 0.3552390
969.9592, 0.1967770
970.4413, 4.9802002E-02
970.9235, 3.9949999E-03
971.4056, 0.1992580
971.8877, 0.5175660
972.3698, 0.6487550
972.8519, 0.5113370
973.3340, 0.3669290
973.8162, 0.3430000
974.2983, 0.3922760
974.7804, 0.5424930
975.2625, 0.7015250
975.7446, 0.7066350
976.2267, 0.5894920
976.7089, 0.5485430
977.1910, 0.6841000
977.6731, 0.7768070
978.1552, 0.4758470
978.6373, 5.1176999E-02
979.1194, 2.2309000E-02
979.6016, 0.2829730
980.0837, 0.5061560
980.5658, 0.6105040
981.0479, 0.5940240
981.5300, 0.4595300
982.0121, 0.2818740
982.4943, 0.1952120
982.9764, 0.1921410
983.4585, 0.2519490
983.9406, 0.3674760
984.4227, 0.4502740
984.9048, 0.4746170
985.3870, 0.4327320
985.8691, 0.2992930
986.3512, 0.1338640
986.8333, 0.1624900
987.3154, 0.4233450
987.7975, 0.5515910
988.2797, 0.4993750
988.7618, 0.4362080
989.2439, 0.4316940
989.7260, 0.4248520
990.2081, 0.3296540
990.6902, 0.1559130
991.1724, 4.4571999E-02
991.6545, 3.6060000E-03
992.1366, 1.0935000E-02
992.6187, 0.1111040
993.1008, 0.2422090
993.5829, 0.4337070
994.0651, 0.6049750
994.5472, 0.6043090
995.0293, 0.4268910
995.5114, 0.3755010
995.9935, 0.6113670
996.4756, 0.7436940
996.9578, 0.6477050
997.4399, 0.5145120
997.9220, 0.4367430
998.4041, 0.3980440
998.8862, 0.3529050
999.3683, 0.2954240
999.8505, 0.3176260
1000.333, 0.5136500
1000.815, 0.6991450
1001.297, 0.8818830
1001.779, 0.9583910
1002.261, 0.7353240
1002.743, 0.3730940
1003.225, 0.2230580
1003.707, 0.3744350
1004.190, 0.4800510
1004.672, 0.2441400
1005.154, 4.4925999E-02
1005.636, 0.2234030
1006.118, 0.5141670
1006.600, 0.6064690
1007.082, 0.5131370
1007.564, 0.3661310
1008.046, 0.2101710
1008.529, 0.1024240
1009.011, 7.8497000E-02
1009.493, 0.1274180
1009.975, 0.3198920
1010.457, 0.5491030
1010.939, 0.5942360
1011.421, 0.4731910
1011.903, 0.3731030
1012.385, 0.3871310
1012.868, 0.4434350
1013.350, 0.4999570
1013.832, 0.5248740
1014.314, 0.4328510
1014.796, 0.2540810
1015.278, 7.2140999E-02
1015.760, 7.9301998E-02
1016.242, 0.1210780
1016.725, 1.1960000E-03
1017.207, 0.1902340
1017.689, 0.2957330
1018.171, 0.3354060
1018.653, 0.3872540
1019.135, 0.4480660
1019.617, 0.4987670
1020.099, 0.5271420
1020.581, 0.5063080
1021.064, 0.3887590
1021.546, 0.2596280
1022.028, 0.2850090
1022.510, 0.4535190
1022.992, 0.6577190
1023.474, 0.8994560
1023.956, 1.051300
1024.438, 1.080529
1024.921, 1.008940
1025.403, 0.8349540
1025.885, 0.6206350
1026.367, 0.5292950
1026.849, 0.5812020
1027.331, 0.5288320
1027.813, 0.3029010
1028.295, 0.2283410
1028.777, 0.4360340
1029.260, 0.6503640
1029.742, 0.6274540
1030.224, 0.4561150
1030.706, 0.3860300
1031.188, 0.4326650
1031.670, 0.5044530
1032.152, 0.6251480
1032.634, 0.7028600
1033.116, 0.7121660
1033.599, 0.6657920
1034.081, 0.5458920
1034.563, 0.3951170
1035.045, 0.3523950
1035.527, 0.4550840
1036.009, 0.5320950
1036.491, 0.5320130
1036.973, 0.6084020
1037.456, 0.8935570
1037.938, 1.157338
1038.420, 1.180138
1038.902, 1.035231
1039.384, 0.9736770
1039.866, 1.040744
1040.348, 1.066263
1040.830, 1.066165
1041.313, 0.9995240
1041.795, 0.7132030
1042.277, 0.4850150
1042.759, 0.6443060
1043.241, 1.037725
1043.723, 1.170068
1044.205, 0.9234560
1044.687, 0.7272740
1045.169, 0.5789100
1045.651, 0.5088780
1046.134, 0.5974850
1046.616, 0.7056290
1047.098, 0.7306820
1047.580, 0.6819710
1048.062, 0.5775900
1048.544, 0.3593340
1049.026, 0.2926780
1049.508, 0.5925480
1049.991, 0.8171220
1050.473, 0.7388540
1050.955, 0.6053690
1051.437, 0.6373570
1051.919, 0.7721240
1052.401, 0.7716670
1052.883, 0.5552900
1053.365, 0.4447870
1053.848, 0.5330480
1054.330, 0.6507430
1054.812, 0.7989690
1055.294, 0.8958920
1055.776, 0.8089380
1056.258, 0.6251330
1056.740, 0.5677220
1057.222, 0.7113000
1057.704, 0.7823010
1058.187, 0.6008980
1058.669, 0.4628600
1059.151, 0.5683010
1059.633, 0.7052370
1060.115, 0.6611610
1060.597, 0.5139560
1061.079, 0.4165880
1061.561, 0.4101780
1062.043, 0.4872250
1062.526, 0.8200600
1063.008, 1.011166
1063.490, 0.7369320
1063.972, 0.3763790
1064.454, 0.2346060
1064.936, 0.2812570
1065.418, 0.4159420
1065.900, 0.6191940
1066.383, 0.7953910
1066.865, 0.9597240
1067.347, 1.023626
1067.829, 0.8597330
1068.311, 0.6536700
1068.793, 0.5627710
1069.275, 0.5535240
1069.757, 0.5339650
1070.240, 0.4875380
1070.722, 0.4686080
1071.204, 0.5180540
1071.686, 0.5766000
1072.168, 0.6601550
1072.650, 0.7004660
1073.132, 0.5935430
1073.614, 0.4202620
1074.096, 0.3135510
1074.578, 0.3077530
1075.061, 0.3860410
1075.543, 0.6864220
1076.025, 0.8430900
1076.507, 0.5370100
1076.989, 0.1606730
1077.471, 9.4200000E-03
1077.953, 2.3770999E-02
1078.435, 2.6413999E-02
1078.918, 0.1167760
1079.400, 0.2251340
1079.882, 0.3654580
1080.364, 0.4757880
1080.846, 0.5394310
1081.328, 0.5498810
1081.810, 0.4628640
1082.292, 0.3444310
1082.774, 0.3073840
1083.257, 0.3332820
1083.739, 0.2470130
1084.221, 0.1182160
1084.703, 0.2717460
1085.185, 0.2255600
1085.667, 0.7698520
1086.149, 1.016568
1086.631, 1.050364
1087.114, 0.9213610
1087.596, 0.6984500
1088.078, 0.5459740
1088.560, 0.5271880
1089.042, 0.5001000
1089.524, 0.3549780
1090.006, 0.2463290
1090.488, 0.2903860
1090.970, 0.3937380
1091.453, 0.4700940
1091.935, 0.5109410
1092.417, 0.5538870
1092.899, 0.6141360
1093.381, 0.6031720
1093.863, 0.3923070
1094.345, 0.2238170
1094.827, 0.2632710
1095.309, 0.3448410
1095.792, 0.3311800
1096.274, 0.2491660
1096.756, 0.1628360
1097.238, 6.1390001E-02
1097.720, 3.5172001E-02
1098.202, 0.1982220
1098.684, 0.3301930
1099.166, 0.3365380
1099.649, 0.3082620
1100.131, 0.2879630
1100.613, 0.2875460
1101.095, 0.3245310
1101.577, 0.3966710
1102.059, 0.4631200
1102.541, 0.5148240
1103.023, 0.5585480
1103.505, 0.6248070
1103.988, 0.6504760
1104.470, 0.5241730
1104.952, 0.3930900
1105.434, 0.4952430
1105.916, 0.7682030
1106.398, 0.8369660
1106.880, 0.5477290
1107.362, 0.2854910
1107.844, 3.9149998E-03
1108.327, 0.1124620
1108.809, 0.2898250
1109.291, 0.6895480
1109.773, 0.5280720
1110.255, 5.5000000E-05
1110.737, 0.2823040
1111.219, 0.2242460
1111.701, 0.1321360
1112.184, 4.6340000E-02
1112.666, 0.1542330
1113.148, 3.2280002E-02
1113.630, 4.3232001E-02
1114.112, 0.2128610
1114.594, 0.5968130
1115.076, 0.7119380
1115.558, 0.5256470
1116.041, 0.3955150
1116.523, 0.3921590
1117.005, 0.3195330
1117.487, 3.3016000E-02
1117.969, 0.1445290
1118.451, 2.0507000E-02
1118.933, 0.3001810
1119.415, 0.3915780
1119.897, 0.3164640
1120.380, 0.3270980
1120.862, 0.4778290
1121.344, 0.5769310
1121.826, 0.5895690
1122.308, 0.6213450
1122.790, 0.7622630
1123.272, 0.8364440
1123.754, 0.6361630
1124.236, 0.2649810
1124.719, 7.8663997E-02
1125.201, 0.1033540
1125.683, 0.1641360
1126.165, 0.2868460
1126.647, 0.3374020
1127.129, 0.2554870
1127.611, 0.1995180
1128.093, 0.2953910
1128.576, 0.4422590
1129.058, 0.4326700
1129.540, 0.2794800
1130.022, 0.2971880
1130.504, 0.5093060
1130.986, 0.6026900
1131.468, 0.5209530
1131.950, 0.4240950
1132.432, 0.3898870
1132.915, 0.3658450
1133.397, 0.2836760
1133.879, 0.1671360
1134.361, 8.3230004E-02
1134.843, 3.6967002E-02
1135.325, 0.1333670
1135.807, 0.3672080
1136.289, 0.5001190
1136.771, 0.4563650
1137.254, 0.3875960
1137.736, 0.4156660
1138.218, 0.4944750
1138.700, 0.5545850
1139.182, 0.5927720
1139.664, 0.6011910
1140.146, 0.5775700
1140.628, 0.5019650
1141.111, 0.3803250
1141.593, 0.2595850
1142.075, 0.1560200
1142.557, 0.1049730
1143.039, 0.2273970
1143.521, 0.3976490
1144.003, 0.3805180
1144.485, 0.2973790
1144.968, 0.4793160
1145.450, 0.8292600
1145.932, 0.8850620
1146.414, 0.5295210
1146.896, 0.1473920
1147.378, 4.1339998E-03
1147.860, 4.6066999E-02
1148.342, 8.8567004E-02
1148.824, 9.1527000E-02
1149.307, 5.0611001E-02
1149.789, 0.2402330
1150.271, 0.2316040
1150.753, 7.1285002E-02
1151.235, 0.1579000
1151.717, 0.7373670
1152.199, 1.173634
1152.681, 1.050769
1153.163, 0.7281530
1153.646, 0.2183070
1154.128, 0.1850250
1154.610, 5.0450001E-02
1155.092, 0.3919780
1155.574, 0.5410210
1156.056, 0.2739730
1156.538, 0.1275070
1157.020, 0.4039900
1157.503, 0.6087700
1157.985, 0.5058100
1158.467, 0.3954020
1158.949, 0.4971440
1159.431, 0.6717250
1159.913, 0.7286750
1160.395, 0.6736570
1160.877, 0.6275100
1161.359, 0.6373970
1161.842, 0.5720400
1162.324, 0.3449650
1162.806, 0.1703760
1163.288, 7.7884004E-02
1163.770, 9.6886002E-02
1164.252, 0.3019800
1164.734, 0.5969670
1165.216, 0.7787870
1165.698, 0.8464730
1166.181, 0.7501720
1166.663, 0.4187340
1167.145, 0.2750560
1167.627, 0.4380160
1168.109, 0.5559890
1168.591, 0.4204650
1169.073, 0.2686410
1169.555, 0.3656000
1170.037, 0.6394720
1170.520, 0.8223760
1171.002, 0.9122770
1171.484, 0.8409790
1171.966, 0.6199090
1172.448, 0.5147490
1172.930, 0.5948660
1173.412, 0.6710950
1173.894, 0.6153600
1174.377, 0.5010410
1174.859, 0.4207500
1175.341, 0.3738010
1175.823, 0.3725450
1176.305, 0.4120190
1176.787, 0.3953350
1177.269, 0.3259280
1177.751, 0.3129450
1178.234, 0.3982480
1178.716, 0.5030220
1179.198, 0.5704810
1179.680, 0.6209020
1180.162, 0.7449570
1180.644, 0.8087750
1181.126, 0.5304010
1181.608, 0.1202270
1182.090, 3.6993999E-02
1182.573, 7.4111000E-02
1183.055, 0.2665770
1183.537, 0.4953960
1184.019, 0.6194840
1184.501, 0.4333450
1184.983, 0.2859070
1185.465, 0.4504380
1185.947, 0.6629730
1186.429, 0.6849200
1186.912, 0.5897690
1187.394, 0.5411300
1187.876, 0.5535790
1188.358, 0.5237240
1188.840, 0.2885080
1189.322, 0.2445620
1189.804, 0.6392810
1190.286, 0.9595150
1190.769, 1.017385
1191.251, 0.9426060
1191.733, 0.8049590
1192.215, 0.6335840
1192.697, 0.4908130
1193.179, 0.3617320
1193.661, 0.3993360
1194.143, 0.6560580
1194.625, 0.9126930
1195.108, 1.182945
1195.590, 1.213811
1196.072, 0.8350710
1196.554, 0.3694110
1197.036, 0.1878810
1197.518, 0.2124400
1198.000, 0.2007790
1198.482, 0.1651740
1198.964, 0.2655490
1199.447, 0.4765890
1199.929, 0.5166720
1200.411, 0.3366290
1200.893, 0.1093270
1201.375, 7.0969000E-02
1201.857, 0.1233470
1202.339, 0.1490860
1202.821, 0.5158800
1203.304, 0.5525020
1203.786, 0.4359340
1204.268, 0.5105210
1204.750, 0.7094140
1205.232, 0.7714110
1205.714, 0.6491600
1206.196, 0.4906280
1206.678, 0.3252520
1207.161, 0.3229680
1207.643, 0.8112060
1208.125, 1.185582
1208.607, 0.8256360
1209.089, 0.3201910
1209.571, 0.3978580
1210.053, 0.8228050
1210.535, 0.8563180
1211.017, 0.3602640
1211.500, 0.1798270
1211.982, 0.8269710
1212.464, 1.183131
1212.946, 0.7319060
1213.428, 0.4463100
1213.910, 0.8934730
1214.392, 1.405866
1214.874, 1.295907
1215.356, 0.7896140
1215.839, 0.5874100
1216.321, 0.7286340
1216.803, 0.7990820
1217.285, 0.7908620
1217.767, 0.7644450
1218.249, 0.7300820
1218.731, 0.6642800
1219.213, 0.5512400
1219.696, 0.4481730
1220.178, 0.4102370
1220.660, 0.4457670
1221.142, 0.6560710
1221.624, 0.9403840
1222.106, 0.9058520
1222.588, 0.6327620
1223.070, 0.4481240
1223.552, 0.4103530
1224.035, 0.4426930
1224.517, 0.5100550
1224.999, 0.5436880
1225.481, 0.3898070
1225.963, 0.2883620
1226.445, 0.5590530
1226.927, 0.9074310
1227.409, 1.016082
1227.891, 0.9690240
1228.374, 0.9467100
1228.856, 0.9557550
1229.338, 0.8632140
1229.820, 0.5515960
1230.302, 0.3916370
1230.784, 0.6287300
1231.266, 0.8074650
1231.748, 0.7778680
1232.231, 0.6536980
1232.713, 0.4710630
1233.195, 0.2670820
1233.677, 6.6238999E-02
1234.159, 0.1130700
1234.641, 8.4317997E-02
1235.123, 0.2178750
1235.605, 0.4699090
1236.088, 0.6782700
1236.570, 0.7000100
1237.052, 0.4749420
1237.534, 0.3026890
1238.016, 0.3862630
1238.498, 0.5280840
1238.980, 0.4061370
1239.462, 0.1742970
1239.944, 0.3143790
1240.427, 0.6763610
1240.909, 0.8217590
1241.391, 0.7644650
1241.873, 0.6367920
1242.355, 0.5100870
1242.837, 0.5606320
1243.319, 0.9207960
1243.801, 1.193569
1244.283, 0.9512820
1244.766, 0.6586540
1245.248, 0.6014840
1245.730, 0.6661220
1246.212, 0.7949590
1246.694, 0.9259760
1247.176, 0.9747290
1247.658, 0.9356530
1248.140, 0.8628450
1248.622, 0.7764210
1249.105, 0.6263110
1249.587, 0.2816710
1250.069, 9.5128998E-02
1250.551, 0.2505600
1251.033, 0.3894020
1251.515, 0.2375300
1251.997, 4.1496001E-02
1252.479, 0.2122120
1252.962, 0.6453800
1253.444, 0.7137660
1253.926, 0.4260850
1254.408, 0.2252720
1254.890, 0.1349690
1255.372, 9.9927999E-02
1255.854, 0.1096840
1256.336, 0.2400230
1256.818, 0.5383030
1257.301, 0.8055400
1257.783, 0.7979280
1258.265, 0.6626400
1258.747, 0.5764630
1259.229, 0.5060400
1259.711, 0.3611050
1260.193, 0.2138360
1260.675, 0.2027030
1261.157, 0.3768460
1261.640, 0.5390210
1262.122, 0.6575880
1262.604, 0.6634520
1263.086, 0.4651280
1263.568, 0.2490240
1264.050, 1.5873000E-02
1264.532, 0.1800000
1265.014, 0.1103510
1265.497, 6.2196001E-02
1265.979, 0.2072820
1266.461, 0.3220400
1266.943, 0.3858570
1267.425, 0.3853940
1267.907, 0.4527400
1268.389, 0.5997760
1268.871, 0.6186690
1269.354, 0.4603010
1269.836, 0.3382020
1270.318, 0.3414130
1270.800, 0.3992220
1271.282, 0.4642490
1271.764, 0.5174370
1272.246, 0.4583450
1272.728, 0.3796290
1273.210, 0.4563460
1273.693, 0.6311690
1274.175, 0.8666960
1274.657, 1.088975
1275.139, 1.129563
1275.621, 0.8545750
1276.103, 0.6325180
1276.585, 0.6337580
1277.067, 0.6140010
1277.549, 0.4370360
1278.032, 0.3058210
1278.514, 0.3761230
1278.996, 0.4768190
1279.478, 0.4474330
1279.960, 0.3375510
1280.442, 0.2468390
1280.924, 0.1724580
1281.406, 0.1053580
1281.889, 2.4285000E-02
1282.371, 0.1030820
1282.853, 0.3710130
1283.335, 0.4194770
1283.817, 0.1279080
1284.299, 6.1340001E-03
1284.781, 0.4472170
1285.263, 0.9211380
1285.745, 0.7044650
1286.228, 0.0000000E+00
##END=



