##NAMES=Georgbokiite
##RRUFFID=R070111
##IDEAL CHEMISTRY=Cu^2+^_5_O_2_(Se^4+^O_3_)_2_Cl_2_
##LOCALITY=Tolbachik Volcano, Kamchatka Peninsula, Russia
##OWNER=RRUFF
##SOURCE=Michael Scott
##DESCRIPTION=Deep reddish brown polished fragments embedded in epoxy, co-type material
##STATUS=The identification of this mineral has been confirmed only by chemical analysis
##URL=rruff.info/R070111
##MEASURED CHEMISTRY=light phase: Cu_5.00_O_2_(Se^4+^_1.00_O_3_)_2_Cl_2.00_
152.1655, 0.0000000E+00
152.6476, 5.720154
153.1298, 0.5575560
153.6119, 12.71814
154.0940, 43.55194
154.5761, 64.26367
155.0582, 63.57904
155.5403, 64.15955
156.0225, 66.24042
156.5046, 61.72314
156.9867, 56.42395
157.4688, 43.67548
157.9509, 22.47443
158.4330, 6.257874
158.9152, 3.220093
159.3973, 5.476746
159.8794, 3.180176
160.3615, 22.82269
160.8436, 43.73669
161.3257, 56.28058
161.8079, 59.94189
162.2900, 58.06885
162.7721, 41.81720
163.2542, 26.28400
163.7363, 22.00354
164.2184, 29.98273
164.7006, 40.61371
165.1827, 41.83026
165.6648, 30.86810
166.1469, 21.39496
166.6290, 14.51746
167.1111, 9.709534
167.5933, 5.342468
168.0754, 1.731934
168.5575, 2.616577
169.0396, 15.91089
169.5217, 49.47107
170.0038, 70.00403
170.4860, 66.12390
170.9681, 56.68237
171.4502, 50.38281
171.9323, 49.41406
172.4144, 52.64856
172.8965, 60.55103
173.3787, 78.76129
173.8608, 85.93060
174.3429, 74.19861
174.8250, 58.39008
175.3071, 44.66217
175.7892, 35.05127
176.2714, 30.40924
176.7535, 33.02362
177.2356, 47.36487
177.7177, 57.19879
178.1998, 57.85956
178.6819, 58.31042
179.1641, 64.43939
179.6462, 76.58948
180.1283, 90.49353
180.6104, 100.7244
181.0925, 105.4358
181.5746, 111.6501
182.0567, 123.0382
182.5389, 132.8061
183.0210, 135.6842
183.5031, 131.9546
183.9852, 126.7156
184.4673, 126.1669
184.9494, 132.7538
185.4316, 136.0477
185.9137, 132.3766
186.3958, 129.1024
186.8779, 132.2765
187.3600, 141.1154
187.8421, 148.9967
188.3243, 148.2990
188.8064, 136.2491
189.2885, 126.6034
189.7706, 121.3116
190.2527, 116.2272
190.7348, 107.9699
191.2170, 97.21973
191.6991, 88.24200
192.1812, 86.28662
192.6633, 94.33063
193.1454, 91.66406
193.6275, 65.95477
194.1097, 42.63135
194.5918, 36.75415
195.0739, 46.02948
195.5560, 58.68921
196.0381, 64.26343
196.5202, 62.21191
197.0024, 57.77081
197.4845, 46.16797
197.9666, 37.07043
198.4487, 36.15454
198.9308, 42.08319
199.4129, 49.70264
199.8951, 55.11682
200.3772, 58.29993
200.8593, 60.58710
201.3414, 63.58777
201.8235, 64.40002
202.3056, 58.28394
202.7878, 48.50452
203.2699, 44.08368
203.7520, 52.22644
204.2341, 72.01099
204.7162, 83.31250
205.1983, 81.61938
205.6805, 78.08246
206.1626, 73.80023
206.6447, 70.39716
207.1268, 71.29688
207.6089, 79.17151
208.0910, 92.57404
208.5732, 101.4484
209.0553, 104.0997
209.5374, 104.9347
210.0195, 104.7566
210.5016, 103.4425
210.9837, 100.4984
211.4659, 95.58862
211.9480, 89.39136
212.4301, 84.88605
212.9122, 78.93915
213.3943, 78.17126
213.8764, 88.28497
214.3586, 103.3737
214.8407, 114.6941
215.3228, 118.4299
215.8049, 116.6714
216.2870, 114.5740
216.7691, 112.7197
217.2513, 109.3226
217.7334, 99.24670
218.2155, 89.70178
218.6976, 93.35797
219.1797, 114.6974
219.6618, 141.0778
220.1440, 147.9018
220.6261, 115.9596
221.1082, 96.29791
221.5903, 100.7715
222.0724, 113.1570
222.5546, 116.5488
223.0367, 106.8314
223.5188, 93.56891
224.0009, 90.68005
224.4830, 105.2958
224.9651, 113.7759
225.4473, 114.7574
225.9294, 110.5964
226.4115, 103.0284
226.8936, 92.37665
227.3757, 77.32678
227.8578, 54.53412
228.3400, 18.51331
228.8221, 2.5146000E-02
229.3042, 11.09760
229.7863, 27.98279
230.2684, 38.12695
230.7505, 40.05695
231.2327, 36.65729
231.7148, 29.35999
232.1969, 17.13763
232.6790, 13.47217
233.1611, 26.21271
233.6432, 38.36597
234.1254, 43.09540
234.6075, 40.57202
235.0896, 32.39478
235.5717, 18.42175
236.0538, 0.6362300
236.5359, 8.606079
237.0181, 6.502625
237.5002, 18.14624
237.9823, 14.53729
238.4644, 2.137390
238.9465, 6.048096
239.4286, 2.181152
239.9108, 10.62549
240.3929, 17.86139
240.8750, 15.31158
241.3571, 12.10437
241.8392, 6.659485
242.3213, 2.044617
242.8035, 2.897339
243.2856, 11.25171
243.7677, 23.97705
244.2498, 33.74274
244.7319, 42.93945
245.2140, 45.07806
245.6962, 33.63654
246.1783, 18.73590
246.6604, 8.651367
247.1425, 6.110352
247.6246, 9.776306
248.1067, 18.88965
248.5889, 41.71198
249.0710, 51.48370
249.5531, 36.46484
250.0352, 18.97906
250.5173, 14.99426
250.9994, 25.66119
251.4816, 40.54456
251.9637, 47.99524
252.4458, 45.85541
252.9279, 45.65179
253.4100, 47.88794
253.8921, 51.31311
254.3743, 57.29352
254.8564, 64.39691
255.3385, 68.78833
255.8206, 66.98505
256.3027, 58.66046
256.7849, 54.38336
257.2670, 62.49915
257.7491, 66.40991
258.2312, 57.78784
258.7133, 42.63263
259.1954, 31.51990
259.6776, 31.32806
260.1597, 39.43134
260.6418, 44.53448
261.1239, 45.08667
261.6060, 44.37549
262.0881, 42.11273
262.5703, 39.33990
263.0524, 35.95026
263.5345, 31.80157
264.0166, 29.87170
264.4987, 38.11230
264.9808, 65.19830
265.4630, 82.77515
265.9451, 80.61011
266.4272, 73.00226
266.9093, 69.26868
267.3914, 71.73297
267.8735, 78.33777
268.3557, 88.27423
268.8378, 103.1149
269.3199, 112.9721
269.8020, 116.2995
270.2841, 114.4991
270.7662, 103.5962
271.2484, 86.16846
271.7305, 72.35193
272.2126, 72.99554
272.6947, 87.30322
273.1768, 97.53497
273.6589, 101.6141
274.1411, 104.0507
274.6232, 105.9651
275.1053, 108.0197
275.5874, 111.3552
276.0695, 115.9096
276.5516, 122.4927
277.0338, 135.1605
277.5159, 158.6564
277.9980, 176.3372
278.4801, 176.1139
278.9622, 167.6646
279.4443, 162.4374
279.9265, 164.4264
280.4086, 168.7289
280.8907, 169.3902
281.3728, 166.3137
281.8549, 160.1919
282.3370, 144.8746
282.8192, 131.0522
283.3013, 132.9634
283.7834, 154.6215
284.2655, 174.0715
284.7476, 170.6017
285.2297, 149.0359
285.7119, 134.8481
286.1940, 135.3484
286.6761, 142.3536
287.1582, 148.5027
287.6403, 153.7958
288.1224, 156.5709
288.6046, 157.4261
289.0867, 154.8538
289.5688, 144.7431
290.0509, 125.0352
290.5330, 106.6208
291.0151, 100.1203
291.4973, 103.4874
291.9794, 105.8161
292.4615, 108.0353
292.9436, 107.0281
293.4257, 96.03339
293.9078, 76.76343
294.3900, 64.47302
294.8721, 72.04773
295.3542, 92.07428
295.8363, 95.74969
296.3184, 69.60150
296.8005, 45.45721
297.2827, 36.55725
297.7648, 38.49078
298.2469, 43.78784
298.7290, 50.23352
299.2111, 56.15411
299.6932, 58.26678
300.1754, 56.43903
300.6575, 51.15698
301.1396, 38.07184
301.6217, 25.04468
302.1038, 18.63464
302.5859, 19.07214
303.0680, 21.94220
303.5501, 22.69366
304.0323, 22.19153
304.5144, 18.65094
304.9965, 6.412720
305.4786, 3.230896
305.9607, 2.810974
306.4428, 5.433105
306.9250, 13.92529
307.4071, 17.27515
307.8892, 16.18457
308.3713, 17.05878
308.8534, 26.69659
309.3355, 30.52264
309.8177, 19.40143
310.2998, 3.660217
310.7819, 1.980103
311.2640, 8.617126
311.7461, 25.68372
312.2282, 27.74036
312.7104, 4.238281
313.1925, 10.73126
313.6746, 11.77667
314.1567, 7.331848
314.6388, 1.209473
315.1209, 5.023621
315.6031, 9.141846
316.0852, 7.346924
316.5673, 1.063416
317.0494, 6.049561
317.5315, 8.225220
318.0136, 5.729187
318.4958, 7.201477
318.9779, 25.27411
319.4600, 36.38391
319.9421, 31.08331
320.4242, 16.23926
320.9063, 8.413025
321.3885, 8.244507
321.8706, 12.60767
322.3527, 25.18933
322.8348, 39.55347
323.3169, 49.25983
323.7990, 52.84424
324.2812, 51.52606
324.7633, 42.90021
325.2454, 27.87793
325.7275, 20.32166
326.2096, 27.62762
326.6917, 40.75342
327.1739, 49.09344
327.6560, 52.53467
328.1381, 53.39075
328.6202, 51.25659
329.1023, 47.75397
329.5844, 45.95715
330.0666, 46.49994
330.5487, 46.69684
331.0308, 42.62048
331.5129, 35.57043
331.9950, 34.97949
332.4771, 47.95221
332.9593, 62.07867
333.4414, 70.89880
333.9235, 74.04803
334.4056, 70.44623
334.8877, 58.62640
335.3698, 41.14081
335.8520, 25.61969
336.3341, 7.282959
336.8162, 2.642700
337.2983, 4.058594
337.7804, 17.47339
338.2625, 25.68097
338.7447, 25.77441
339.2268, 23.36401
339.7089, 26.67181
340.1910, 39.31653
340.6731, 45.45563
341.1552, 39.55286
341.6374, 33.26923
342.1195, 32.10175
342.6016, 35.86902
343.0837, 43.02832
343.5658, 53.90686
344.0479, 66.28455
344.5301, 63.96454
345.0122, 29.01520
345.4943, 3.500000
345.9764, 0.5064700
346.4585, 5.809570
346.9406, 10.58020
347.4228, 9.735474
347.9049, 6.633789
348.3870, 6.525818
348.8691, 10.26459
349.3512, 12.62128
349.8333, 11.40253
350.3155, 9.881775
350.7976, 8.672180
351.2797, 8.409607
351.7618, 11.28119
352.2439, 22.06049
352.7260, 37.30133
353.2082, 44.77783
353.6903, 42.00598
354.1724, 37.99042
354.6545, 38.89197
355.1366, 41.96252
355.6187, 43.02441
356.1009, 40.57245
356.5830, 36.83411
357.0651, 35.29877
357.5472, 34.88580
358.0293, 28.01929
358.5114, 8.891479
358.9936, 13.26141
359.4757, 22.47272
359.9578, 18.14410
360.4399, 10.27167
360.9220, 3.228333
361.4041, 16.66406
361.8863, 22.18005
362.3684, 19.14197
362.8505, 14.16266
363.3326, 12.53137
363.8147, 14.40826
364.2968, 17.59717
364.7790, 25.64496
365.2611, 30.91736
365.7432, 28.43280
366.2253, 21.61584
366.7074, 16.34015
367.1895, 15.29913
367.6717, 17.33356
368.1538, 20.26672
368.6359, 28.57733
369.1180, 29.42767
369.6001, 12.51025
370.0822, 3.458008
370.5644, 2.464539
371.0465, 13.84808
371.5286, 29.91339
372.0107, 29.51416
372.4928, 13.53217
372.9749, 8.090637
373.4571, 22.39203
373.9392, 34.53949
374.4213, 35.35138
374.9034, 29.80096
375.3855, 25.53851
375.8676, 26.28131
376.3498, 27.69843
376.8319, 21.80658
377.3140, 8.042480
377.7961, 1.566956
378.2782, 2.317627
378.7603, 1.239868
379.2425, 3.941956
379.7246, 5.789368
380.2067, 9.157288
380.6888, 17.76459
381.1709, 27.69556
381.6530, 32.74524
382.1352, 32.32312
382.6173, 27.22406
383.0994, 15.30554
383.5815, 1.265808
384.0636, 9.725647
384.5457, 5.134094
385.0279, 2.006836
385.5100, 8.847412
385.9921, 14.90668
386.4742, 19.71198
386.9563, 23.14240
387.4384, 24.34320
387.9206, 21.49530
388.4027, 11.13684
388.8848, 4.894104
389.3669, 5.908630
389.8490, 8.490540
390.3311, 8.134155
390.8133, 4.560242
391.2954, 2.509827
391.7775, 5.366028
392.2596, 12.05756
392.7417, 15.52185
393.2238, 12.79871
393.7060, 11.38281
394.1881, 14.83118
394.6702, 18.87872
395.1523, 18.61029
395.6344, 12.63068
396.1165, 7.198059
396.5987, 12.16101
397.0808, 27.23737
397.5629, 32.99084
398.0450, 20.61029
398.5271, 8.252319
399.0092, 9.194885
399.4914, 20.07098
399.9735, 31.15845
400.4556, 38.91443
400.9377, 45.23511
401.4198, 53.61542
401.9019, 63.64813
402.3841, 68.85724
402.8662, 65.14868
403.3483, 56.25983
403.8304, 49.74609
404.3125, 46.72791
404.7946, 43.44800
405.2768, 36.67883
405.7589, 30.41101
406.2410, 29.61023
406.7231, 34.70471
407.2052, 42.27667
407.6873, 49.88184
408.1695, 57.55499
408.6516, 61.42786
409.1337, 60.28662
409.6158, 57.13696
410.0979, 49.19232
410.5800, 40.91180
411.0622, 39.08197
411.5443, 46.10333
412.0264, 56.85022
412.5085, 62.95831
412.9906, 64.11725
413.4727, 60.95459
413.9549, 46.03668
414.4370, 33.59082
414.9191, 30.65625
415.4012, 35.09406
415.8833, 40.82806
416.3654, 44.74933
416.8476, 45.97968
417.3297, 45.00769
417.8118, 42.27289
418.2939, 41.51617
418.7760, 46.92352
419.2581, 52.96454
419.7403, 51.60028
420.2224, 40.49591
420.7045, 32.15411
421.1866, 37.07574
421.6687, 46.81842
422.1508, 45.83234
422.6330, 31.87360
423.1151, 17.77979
423.5972, 14.27350
424.0793, 21.36023
424.5614, 29.59937
425.0435, 40.69421
425.5257, 50.59106
426.0078, 58.54321
426.4899, 64.20575
426.9720, 66.45636
427.4541, 65.04138
427.9362, 61.44855
428.4184, 59.77106
428.9005, 61.53070
429.3826, 61.90881
429.8647, 58.21179
430.3468, 55.71021
430.8289, 57.29431
431.3111, 61.85876
431.7932, 66.86688
432.2753, 71.90033
432.7574, 75.07739
433.2395, 69.96381
433.7216, 54.11279
434.2038, 45.18756
434.6859, 55.09448
435.1680, 68.43390
435.6501, 67.93085
436.1322, 53.33710
436.6143, 41.44000
437.0965, 39.21063
437.5786, 44.49823
438.0607, 58.38660
438.5428, 80.59723
439.0249, 95.78979
439.5070, 91.95624
439.9892, 73.71301
440.4713, 63.17133
440.9534, 69.68201
441.4355, 70.19067
441.9176, 51.37482
442.3997, 29.09717
442.8819, 22.57129
443.3640, 34.49835
443.8461, 52.17267
444.3282, 63.58911
444.8103, 69.09015
445.2924, 68.24097
445.7746, 57.42365
446.2567, 43.64246
446.7388, 20.44458
447.2209, 1.797241
447.7030, 7.164856
448.1852, 10.86823
448.6673, 35.89508
449.1494, 46.46136
449.6315, 42.72144
450.1136, 38.81128
450.5957, 35.18909
451.0779, 33.79913
451.5600, 37.20557
452.0421, 44.33508
452.5242, 51.19659
453.0063, 60.28082
453.4884, 65.65155
453.9706, 57.62848
454.4527, 40.27686
454.9348, 30.11816
455.4169, 34.79138
455.8990, 46.26685
456.3811, 50.09753
456.8633, 41.46991
457.3454, 37.41364
457.8275, 40.48322
458.3096, 45.92151
458.7917, 53.37903
459.2738, 60.70325
459.7560, 62.86029
460.2381, 56.15875
460.7202, 43.44202
461.2023, 34.04608
461.6844, 28.49274
462.1665, 25.17615
462.6487, 23.29169
463.1308, 23.86267
463.6129, 29.64465
464.0950, 39.71033
464.5771, 47.65991
465.0592, 47.10712
465.5414, 41.55798
466.0235, 40.93549
466.5056, 46.30322
466.9877, 48.99023
467.4698, 44.14630
467.9519, 33.83160
468.4341, 22.47052
468.9162, 8.293823
469.3983, 2.251770
469.8804, 3.997314
470.3625, 2.589966
470.8446, 5.185974
471.3268, 11.91522
471.8089, 15.23291
472.2910, 8.344971
472.7731, 7.794922
473.2552, 21.18066
473.7373, 36.81610
474.2195, 43.02313
474.7016, 29.72894
475.1837, 11.28540
475.6658, 1.517029
476.1479, 3.152222
476.6300, 9.625244
477.1122, 15.63477
477.5943, 21.09058
478.0764, 24.40430
478.5585, 25.10107
479.0406, 24.64349
479.5227, 24.54022
480.0049, 23.49042
480.4870, 18.58026
480.9691, 7.102783
481.4512, 2.061768
481.9333, 2.648743
482.4154, 2.976990
482.8976, 12.03448
483.3797, 24.12646
483.8618, 33.57678
484.3439, 34.81622
484.8260, 27.89142
485.3081, 21.61243
485.7903, 10.61475
486.2724, 6.523254
486.7545, 20.30847
487.2366, 39.12933
487.7187, 47.13715
488.2008, 40.30835
488.6830, 26.62006
489.1651, 13.08118
489.6472, 0.8933110
490.1293, 2.138123
490.6114, 21.00549
491.0935, 39.76398
491.5757, 39.68506
492.0578, 29.31366
492.5399, 19.66229
493.0220, 12.76819
493.5041, 9.882019
493.9862, 13.68524
494.4684, 22.31250
494.9505, 30.41663
495.4326, 37.01227
495.9147, 43.61963
496.3968, 53.15955
496.8789, 64.88519
497.3611, 66.45807
497.8432, 50.32031
498.3253, 33.57446
498.8074, 21.02435
499.2895, 11.47357
499.7716, 1.901489
500.2538, 7.939758
500.7359, 13.49060
501.2180, 7.715881
501.7001, 10.34003
502.1822, 22.23254
502.6643, 26.71106
503.1465, 26.26086
503.6286, 17.35193
504.1107, 6.360291
504.5928, 0.9020390
505.0749, 2.346252
505.5570, 9.852722
506.0392, 32.45532
506.5213, 60.96204
507.0034, 64.74475
507.4855, 36.02649
507.9676, 7.784546
508.4497, 6.878235
508.9319, 28.98895
509.4140, 40.51160
509.8961, 31.89941
510.3782, 25.31403
510.8603, 29.75494
511.3424, 37.74219
511.8246, 40.08917
512.3067, 35.46667
512.7888, 29.19092
513.2709, 26.20978
513.7531, 26.42694
514.2352, 28.14441
514.7173, 31.98877
515.1994, 36.33124
515.6815, 42.86389
516.1636, 48.42572
516.6458, 49.50995
517.1279, 45.48175
517.6100, 39.55432
518.0921, 33.25293
518.5742, 26.87042
519.0563, 19.00305
519.5385, 9.327209
520.0206, 7.707275
520.5027, 24.85181
520.9848, 51.75006
521.4669, 56.43530
521.9490, 20.48999
522.4312, 2.141602
522.9133, 4.858521
523.3954, 21.99194
523.8775, 36.48761
524.3596, 45.36322
524.8417, 47.71436
525.3239, 42.37292
525.8060, 30.99866
526.2881, 17.88733
526.7702, 1.687683
527.2523, 10.43182
527.7344, 9.162476
528.2166, 31.22662
528.6987, 35.08069
529.1808, 21.94751
529.6629, 11.31329
530.1450, 18.03412
530.6271, 29.63733
531.1093, 27.60254
531.5914, 14.34210
532.0735, 5.262085
532.5556, 7.315613
533.0377, 14.93811
533.5198, 18.91504
534.0020, 17.68677
534.4841, 17.28186
534.9662, 16.24365
535.4483, 17.40796
535.9304, 25.06573
536.4125, 35.41455
536.8947, 40.80695
537.3768, 37.65045
537.8589, 31.51886
538.3410, 32.27032
538.8231, 40.54266
539.3052, 43.26086
539.7874, 36.63959
540.2695, 28.75098
540.7516, 23.66016
541.2337, 21.12335
541.7158, 21.07471
542.1979, 25.47247
542.6801, 29.36218
543.1622, 29.15173
543.6443, 26.63501
544.1264, 24.28046
544.6085, 22.75238
545.0906, 23.30316
545.5728, 27.53809
546.0549, 35.23621
546.5370, 40.82336
547.0191, 42.63806
547.5012, 44.38416
547.9833, 46.59314
548.4655, 49.07062
548.9476, 52.95752
549.4297, 57.59473
549.9117, 58.24847
550.3939, 48.21405
550.8760, 31.93402
551.3581, 21.27899
551.8402, 16.64764
552.3223, 12.39435
552.8044, 4.188721
553.2866, 3.082764
553.7687, 1.295959
554.2508, 19.70941
554.7329, 35.52594
555.2150, 47.00690
555.6971, 54.45557
556.1793, 56.71265
556.6614, 55.18341
557.1435, 52.80322
557.6256, 50.97345
558.1077, 48.85138
558.5898, 44.69446
559.0720, 37.97003
559.5541, 36.76245
560.0362, 48.01965
560.5183, 55.93591
561.0004, 46.81049
561.4825, 29.70801
561.9647, 23.64471
562.4468, 38.10675
562.9289, 54.58673
563.4110, 59.47784
563.8931, 56.74091
564.3752, 53.94995
564.8574, 52.58771
565.3395, 50.77582
565.8216, 46.58282
566.3037, 40.53412
566.7858, 37.25836
567.2679, 39.32782
567.7501, 40.90887
568.2322, 38.78845
568.7143, 37.98059
569.1964, 45.05939
569.6785, 58.40338
570.1606, 68.52338
570.6428, 68.11755
571.1249, 60.73199
571.6070, 52.11523
572.0891, 42.22723
572.5712, 36.35931
573.0533, 36.82764
573.5355, 41.00677
574.0176, 47.00616
574.4997, 55.26483
574.9818, 59.36993
575.4639, 51.40302
575.9460, 45.23535
576.4282, 53.11188
576.9103, 67.92554
577.3924, 78.85040
577.8745, 82.11438
578.3566, 79.16412
578.8387, 68.61670
579.3209, 50.50140
579.8030, 46.52759
580.2851, 66.01355
580.7672, 81.02411
581.2493, 72.86993
581.7314, 56.59625
582.2136, 50.66455
582.6957, 58.92047
583.1778, 62.71014
583.6599, 46.54419
584.1420, 26.36108
584.6241, 20.90894
585.1063, 28.67151
585.5884, 38.53796
586.0705, 43.90570
586.5526, 47.85101
587.0347, 59.11407
587.5168, 88.60089
587.9990, 97.58710
588.4811, 59.88928
588.9632, 27.75714
589.4453, 28.52734
589.9274, 47.73468
590.4095, 57.43036
590.8917, 46.23083
591.3738, 32.63098
591.8559, 35.40588
592.3380, 48.47406
592.8201, 55.57568
593.3022, 54.48511
593.7844, 51.69818
594.2665, 51.72583
594.7486, 53.85400
595.2307, 54.97076
595.7128, 53.58929
596.1949, 52.37860
596.6771, 50.65503
597.1592, 49.96552
597.6413, 53.68646
598.1234, 59.49042
598.6055, 60.38470
599.0876, 49.30487
599.5698, 36.04529
600.0519, 38.02820
600.5340, 53.82208
601.0161, 64.66821
601.4982, 66.65808
601.9803, 62.73126
602.4625, 52.86670
602.9446, 38.17938
603.4267, 29.53662
603.9088, 33.02570
604.3909, 34.67725
604.8730, 26.01086
605.3552, 16.89600
605.8373, 18.91260
606.3194, 31.74188
606.8015, 45.86066
607.2836, 54.72607
607.7657, 58.72437
608.2479, 57.60583
608.7300, 50.20715
609.2121, 46.19373
609.6942, 51.74762
610.1763, 56.53601
610.6584, 46.33710
611.1406, 24.05688
611.6227, 9.903687
612.1048, 13.28912
612.5869, 18.60303
613.0690, 17.69318
613.5511, 14.27240
614.0333, 14.25653
614.5154, 18.81885
614.9975, 24.08917
615.4796, 26.89856
615.9617, 27.55212
616.4438, 25.03455
616.9260, 17.10504
617.4081, 12.76294
617.8902, 17.87720
618.3723, 24.45148
618.8544, 25.63495
619.3365, 21.75372
619.8187, 15.99982
620.3008, 5.511230
620.7829, 3.174500
621.2650, 4.558655
621.7471, 1.086853
622.2292, 2.978088
622.7114, 6.345703
623.1935, 9.174255
623.6756, 11.81213
624.1577, 14.13269
624.6398, 13.97125
625.1219, 8.798523
625.6041, 6.236206
626.0862, 10.27710
626.5683, 16.34052
627.0504, 22.76691
627.5325, 28.80469
628.0146, 29.60590
628.4968, 15.90955
628.9789, 2.620911
629.4610, 6.012573
629.9431, 19.83325
630.4252, 29.87555
630.9073, 31.51495
631.3895, 25.37921
631.8716, 10.83801
632.3537, 11.14386
632.8358, 18.94818
633.3179, 2.318481
633.8000, 10.85284
634.2822, 9.643677
634.7643, 5.551453
635.2464, 9.670593
635.7285, 21.53314
636.2106, 29.48969
636.6927, 25.31177
637.1749, 17.32574
637.6570, 12.07074
638.1391, 9.515747
638.6212, 9.842712
639.1033, 13.04736
639.5854, 16.92853
640.0676, 18.90924
640.5497, 19.06940
641.0318, 21.20428
641.5139, 30.92078
641.9960, 34.86871
642.4781, 22.64740
642.9603, 9.101563
643.4424, 7.267151
643.9245, 16.24298
644.4066, 22.87811
644.8887, 18.88477
645.3708, 12.04968
645.8530, 8.973206
646.3351, 8.883789
646.8172, 9.807068
647.2993, 11.22223
647.7814, 14.13251
648.2635, 20.41473
648.7457, 29.42505
649.2278, 31.10718
649.7099, 21.03247
650.1920, 11.53925
650.6741, 4.484253
651.1563, 0.7828980
651.6384, 5.627502
652.1205, 9.440735
652.6026, 9.077454
653.0847, 0.3959350
653.5668, 9.890564
654.0490, 18.93793
654.5311, 24.95233
655.0132, 20.20941
655.4953, 4.458313
655.9774, 5.099487
656.4595, 9.335693
656.9417, 41.53314
657.4238, 50.13190
657.9059, 19.76233
658.3880, 0.5405270
658.8701, 10.58917
659.3522, 25.84778
659.8344, 33.11041
660.3165, 32.81989
660.7986, 28.50891
661.2807, 17.10547
661.7628, 7.819763
662.2449, 8.865601
662.7271, 15.08685
663.2092, 18.54572
663.6913, 18.20117
664.1734, 17.29346
664.6555, 18.19849
665.1376, 20.31134
665.6198, 22.23248
666.1019, 25.09375
666.5840, 23.27484
667.0661, 11.36517
667.5482, 0.3779300
668.0303, 2.520935
668.5125, 0.6169430
668.9946, 5.556335
669.4767, 13.91437
669.9588, 19.18884
670.4409, 16.63287
670.9230, 10.66241
671.4052, 3.494202
671.8873, 2.753052
672.3694, 1.872925
672.8515, 10.29095
673.3336, 26.03448
673.8157, 29.45703
674.2979, 19.20337
674.7800, 12.98718
675.2621, 13.76343
675.7442, 14.54608
676.2263, 9.944031
676.7084, 3.220276
677.1906, 1.362000
677.6727, 6.114685
678.1548, 10.55237
678.6369, 12.87237
679.1190, 14.37292
679.6011, 14.68542
680.0833, 15.24164
680.5654, 19.58789
681.0475, 28.97552
681.5296, 39.02509
682.0117, 46.17493
682.4938, 49.81158
682.9760, 43.34650
683.4581, 24.24658
683.9402, 11.41235
684.4223, 15.26410
684.9044, 26.56073
685.3865, 31.65820
685.8687, 29.74884
686.3508, 24.85638
686.8329, 13.43616
687.3150, 3.156189
687.7971, 6.195679
688.2792, 11.08112
688.7614, 3.944824
689.2435, 14.43323
689.7256, 29.69214
690.2077, 27.31519
690.6898, 16.11871
691.1719, 15.36908
691.6541, 22.61029
692.1362, 25.01788
692.6183, 18.23187
693.1004, 10.46692
693.5825, 10.52258
694.0646, 17.90302
694.5468, 21.82745
695.0289, 15.14294
695.5110, 15.27612
695.9931, 31.22614
696.4752, 48.31360
696.9573, 59.84326
697.4395, 63.44733
697.9216, 53.46088
698.4037, 18.56049
698.8858, 13.24530
699.3679, 12.35425
699.8500, 6.918213
700.3322, 17.60522
700.8143, 16.66510
701.2964, 14.87988
701.7785, 19.48566
702.2606, 27.23077
702.7427, 29.03064
703.2249, 22.46692
703.7070, 18.89575
704.1891, 16.96204
704.6712, 21.66534
705.1533, 43.60150
705.6354, 70.50513
706.1176, 79.98669
706.5997, 65.29974
707.0818, 52.46478
707.5639, 53.57025
708.0460, 57.33313
708.5281, 53.94287
709.0103, 45.84167
709.4924, 39.44116
709.9745, 37.18750
710.4566, 37.65875
710.9387, 41.54968
711.4208, 47.08685
711.9030, 42.80969
712.3851, 26.07605
712.8672, 15.33447
713.3493, 17.26276
713.8314, 27.12915
714.3135, 42.76520
714.7957, 64.40326
715.2778, 72.53412
715.7599, 55.77856
716.2420, 40.50439
716.7241, 31.85687
717.2062, 28.63599
717.6884, 33.61322
718.1705, 43.64209
718.6526, 46.87994
719.1347, 33.15662
719.6168, 16.83002
720.0989, 16.42218
720.5811, 27.22180
721.0632, 37.34589
721.5453, 44.65472
722.0274, 46.79962
722.5095, 40.85168
722.9916, 30.68677
723.4738, 28.10767
723.9559, 36.36346
724.4380, 42.99670
724.9201, 49.57422
725.4022, 51.79309
725.8843, 44.83728
726.3665, 34.39368
726.8486, 27.82410
727.3307, 25.93286
727.8128, 27.96844
728.2949, 37.01892
728.7770, 46.86615
729.2592, 53.84576
729.7413, 57.39832
730.2234, 57.15607
730.7055, 53.04932
731.1876, 44.48608
731.6697, 26.33795
732.1519, 4.379272
732.6340, 7.491333
733.1161, 37.82745
733.5982, 58.35834
734.0803, 55.59180
734.5624, 47.71747
735.0446, 54.83942
735.5267, 76.01318
736.0088, 85.21014
736.4909, 72.39282
736.9730, 62.12158
737.4551, 55.15985
737.9373, 53.27386
738.4194, 62.74249
738.9015, 77.93286
739.3836, 83.65314
739.8657, 71.08258
740.3478, 58.12024
740.8300, 61.66833
741.3121, 73.59924
741.7942, 81.79639
742.2763, 85.17041
742.7584, 84.56146
743.2405, 80.16785
743.7227, 75.00543
744.2048, 74.08679
744.6869, 77.67889
745.1690, 81.37878
745.6511, 86.06915
746.1332, 86.99475
746.6154, 79.63269
747.0975, 71.37128
747.5796, 72.34082
748.0617, 82.45520
748.5438, 88.07312
749.0259, 88.09473
749.5081, 82.94550
749.9902, 66.09167
750.4723, 48.63428
750.9544, 43.34259
751.4365, 49.39288
751.9186, 56.79181
752.4008, 60.41858
752.8829, 61.40247
753.3650, 60.36078
753.8471, 57.91241
754.3292, 56.95837
754.8113, 57.61682
755.2935, 53.83417
755.7756, 41.02039
756.2577, 24.88495
756.7398, 17.07745
757.2219, 20.83484
757.7040, 27.07446
758.1862, 40.00763
758.6683, 46.24835
759.1504, 34.44373
759.6325, 16.54364
760.1146, 5.548279
760.5967, 2.288025
761.0789, 0.4248050
761.5610, 9.385071
762.0431, 12.50677
762.5252, 2.638550
763.0073, 23.91736
763.4894, 36.16602
763.9716, 37.71411
764.4537, 35.15155
764.9358, 32.48822
765.4179, 28.83850
765.9000, 20.40808
766.3821, 9.361633
766.8643, 7.700378
767.3464, 17.29065
767.8285, 22.83905
768.3106, 13.45325
768.7927, 2.849609
769.2748, 6.294556
769.7570, 9.680603
770.2391, 15.53485
770.7212, 2.177490
771.2033, 8.406250
771.6854, 7.234802
772.1675, 0.4757690
772.6497, 10.99860
773.1318, 24.14294
773.6139, 32.63885
774.0960, 33.44720
774.5781, 30.48932
775.0602, 23.25391
775.5424, 14.95135
776.0245, 8.778992
776.5066, 5.510864
776.9887, 6.038757
777.4708, 12.42822
777.9529, 18.90265
778.4351, 14.61157
778.9172, 2.956055
779.3993, 2.967529
779.8814, 1.580444
780.3635, 1.970764
780.8456, 5.213562
781.3278, 7.263855
781.8099, 5.281555
782.2920, 3.181946
782.7741, 1.886719
783.2562, 18.15753
783.7383, 32.40558
784.2205, 26.90405
784.7026, 15.31598
785.1847, 13.36224
785.6668, 20.68951
786.1489, 21.79639
786.6310, 5.534180
787.1132, 6.985901
787.5953, 6.003601
788.0774, 1.624207
788.5595, 12.43408
789.0416, 23.35956
789.5237, 27.38544
790.0059, 19.14880
790.4880, 11.07373
790.9701, 21.80157
791.4522, 41.35846
791.9343, 45.73944
792.4164, 34.90948
792.8986, 21.67096
793.3807, 11.23901
793.8628, 7.755188
794.3449, 19.92932
794.8270, 47.41577
795.3091, 60.07312
795.7913, 52.48920
796.2734, 47.60626
796.7555, 54.36792
797.2376, 62.30225
797.7197, 60.20453
798.2018, 49.42175
798.6840, 43.09119
799.1661, 41.66479
799.6482, 44.05566
800.1303, 56.74719
800.6124, 66.89294
801.0945, 61.11719
801.5767, 47.83282
802.0588, 45.45312
802.5409, 60.20062
803.0230, 75.40051
803.5051, 78.70013
803.9872, 77.20819
804.4694, 77.24432
804.9515, 79.55872
805.4336, 86.66296
805.9157, 98.39136
806.3978, 107.5327
806.8799, 105.9716
807.3621, 98.90717
807.8442, 102.7785
808.3263, 117.4376
808.8084, 128.6813
809.2905, 133.5898
809.7726, 137.6240
810.2548, 144.1850
810.7369, 152.6282
811.2190, 161.4250
811.7011, 171.3123
812.1832, 179.5073
812.6653, 186.3323
813.1475, 191.0229
813.6296, 189.9604
814.1117, 188.8657
814.5938, 195.5228
815.0759, 209.8536
815.5580, 220.9586
816.0402, 221.7127
816.5223, 223.8148
817.0044, 235.2103
817.4865, 248.9529
817.9686, 259.1322
818.4507, 264.6454
818.9329, 264.7471
819.4150, 257.9319
819.8971, 249.6344
820.3792, 245.7315
820.8613, 244.6116
821.3434, 244.8101
821.8256, 246.1283
822.3077, 249.2554
822.7898, 254.4420
823.2719, 258.1436
823.7540, 256.0746
824.2361, 248.9219
824.7183, 240.4697
825.2004, 229.8983
825.6825, 223.8390
826.1646, 226.0822
826.6467, 227.9692
827.1288, 221.4906
827.6110, 210.0167
828.0931, 203.0309
828.5752, 204.5021
829.0573, 201.9539
829.5394, 193.0474
830.0215, 184.6571
830.5037, 179.0338
830.9858, 174.7328
831.4679, 170.0007
831.9500, 164.6454
832.4321, 159.0161
832.9142, 153.1502
833.3964, 147.6807
833.8785, 141.2261
834.3606, 135.0304
834.8427, 131.4014
835.3248, 129.1976
835.8069, 123.3027
836.2891, 110.3408
836.7712, 98.74817
837.2533, 99.52667
837.7354, 108.0024
838.2175, 115.6042
838.6996, 121.1326
839.1818, 121.8260
839.6639, 116.7080
840.1460, 107.6703
840.6281, 96.54315
841.1102, 83.91406
841.5923, 72.74072
842.0745, 62.93225
842.5566, 55.19855
843.0387, 49.64667
843.5208, 46.04889
844.0029, 44.53735
844.4850, 44.62433
844.9672, 44.55682
845.4493, 43.84338
845.9314, 46.11133
846.4135, 55.29114
846.8956, 61.96375
847.3777, 61.30945
847.8599, 58.28900
848.3420, 59.23120
848.8241, 63.58575
849.3062, 63.03986
849.7883, 53.94189
850.2704, 41.87750
850.7526, 20.81488
851.2347, 4.415344
851.7168, 9.860596
852.1989, 29.35468
852.6810, 43.85669
853.1631, 46.57928
853.6453, 43.11713
854.1274, 35.61377
854.6095, 26.20807
855.0916, 14.08246
855.5737, 2.447266
856.0558, 3.785034
856.5380, 19.83087
857.0201, 36.24469
857.5022, 42.02014
857.9843, 40.87701
858.4664, 41.65533
858.9485, 43.27063
859.4307, 33.56012
859.9128, 11.17743
860.3949, 3.593872
860.8770, 4.4739000E-02
861.3591, 11.67401
861.8412, 16.75262
862.3234, 15.24719
862.8055, 15.01147
863.2876, 17.20959
863.7697, 17.20361
864.2518, 11.60742
864.7339, 6.933044
865.2161, 8.827881
865.6982, 15.87512
866.1803, 22.82666
866.6624, 32.87158
867.1445, 36.33197
867.6266, 23.29639
868.1088, 14.75269
868.5909, 26.45532
869.0730, 43.02753
869.5551, 43.53168
870.0372, 27.65814
870.5193, 17.76208
871.0015, 29.44867
871.4836, 38.66589
871.9657, 28.91663
872.4478, 14.95679
872.9299, 12.21704
873.4120, 18.25531
873.8942, 22.95081
874.3763, 22.54584
874.8584, 20.63312
875.3405, 18.06921
875.8226, 17.30188
876.3047, 26.34198
876.7869, 39.12677
877.2690, 37.68774
877.7511, 20.29791
878.2332, 3.576111
878.7153, 0.2948610
879.1974, 3.916138
879.6796, 9.649719
880.1617, 16.04675
880.6438, 17.24738
881.1259, 12.92316
881.6080, 9.883667
882.0901, 11.31812
882.5723, 12.45111
883.0544, 6.327271
883.5365, 5.799316
884.0186, 10.44421
884.5007, 5.787781
884.9828, 1.858459
885.4650, 1.373596
885.9471, 0.8704830
886.4292, 2.565857
886.9113, 7.282532
887.3934, 8.642212
887.8755, 3.673096
888.3577, 6.285461
888.8398, 30.17621
889.3219, 42.61163
889.8040, 23.71558
890.2861, 0.5097660
890.7682, 7.961365
891.2504, 0.8051150
891.7325, 7.945984
892.2146, 21.07349
892.6967, 27.64832
893.1788, 19.70404
893.6609, 10.43683
894.1431, 2.534241
894.6252, 0.9509890
895.1073, 17.98529
895.5894, 53.28986
896.0715, 76.39825
896.5536, 65.77570
897.0358, 47.27710
897.5179, 34.35315
898.0000, 24.87140
898.4821, 15.92664
898.9642, 8.006470
899.4464, 3.368652
899.9285, 2.931824
900.4106, 5.835815
900.8927, 13.45526
901.3748, 22.47925
901.8569, 28.25146
902.3391, 31.37067
902.8212, 34.10748
903.3033, 36.58990
903.7854, 36.28003
904.2675, 31.23981
904.7496, 23.66016
905.2318, 15.66895
905.7139, 8.233582
906.1960, 6.926453
906.6781, 11.31311
907.1602, 12.03156
907.6423, 5.492126
908.1245, 1.483459
908.6066, 11.41187
909.0887, 30.67139
909.5708, 40.65192
910.0529, 41.11023
910.5350, 36.54382
911.0172, 26.71301
911.4993, 14.71173
911.9814, 4.9254999E-02
912.4635, 11.15338
912.9456, 7.028198
913.4277, 13.10547
913.9099, 27.17572
914.3920, 33.63708
914.8741, 38.20770
915.3562, 44.39319
915.8383, 44.76776
916.3204, 30.26495
916.8026, 7.610291
917.2847, 5.790955
917.7668, 7.986328
918.2489, 6.909424
918.7310, 1.758240
919.2131, 9.420715
919.6953, 13.03900
920.1774, 13.88873
920.6595, 10.99280
921.1416, 5.664368
921.6237, 3.265076
922.1058, 5.711548
922.5880, 8.511780
923.0701, 10.38495
923.5522, 12.85272
924.0343, 19.75732
924.5164, 25.92737
924.9985, 21.56537
925.4807, 7.797791
925.9628, 2.001526
926.4449, 19.34546
926.9270, 32.53638
927.4091, 21.23083
927.8912, 6.988098
928.3734, 12.32391
928.8555, 28.38153
929.3376, 34.18549
929.8197, 24.93964
930.3018, 16.24829
930.7839, 18.46082
931.2661, 24.47479
931.7482, 28.17987
932.2303, 32.00116
932.7124, 43.69092
933.1945, 58.72247
933.6766, 59.86609
934.1588, 39.83636
934.6409, 19.31732
935.1230, 18.88458
935.6051, 28.59930
936.0872, 37.43787
936.5693, 43.77191
937.0515, 42.13293
937.5336, 33.97412
938.0157, 29.68915
938.4978, 37.08850
938.9799, 45.42291
939.4620, 35.82959
939.9442, 17.13312
940.4263, 16.68433
940.9084, 30.23132
941.3905, 31.05682
941.8726, 13.50079
942.3547, 1.594238
942.8369, 1.950989
943.3190, 15.07196
943.8011, 21.44470
944.2832, 21.98499
944.7653, 25.16467
945.2474, 31.31049
945.7296, 36.54620
946.2117, 39.31030
946.6938, 45.69452
947.1759, 64.61060
947.6580, 87.25757
948.1401, 76.22614
948.6223, 29.80988
949.1044, 7.217163
949.5865, 15.47125
950.0686, 28.55811
950.5507, 36.71198
951.0328, 38.69556
951.5150, 31.79919
951.9971, 17.56659
952.4792, 7.523376
952.9613, 1.004639
953.4434, 4.006775
953.9255, 20.79846
954.4077, 35.77332
954.8898, 41.29462
955.3719, 39.47345
955.8540, 31.48785
956.3361, 17.09070
956.8182, 17.05042
957.3004, 39.26337
957.7825, 53.85901
958.2646, 52.55121
958.7467, 50.34595
959.2288, 58.69598
959.7109, 69.83105
960.1931, 67.47485
960.6752, 48.70514
961.1573, 36.47888
961.6394, 30.14581
962.1215, 31.95673
962.6036, 52.39258
963.0858, 68.63867
963.5679, 61.26300
964.0500, 39.65088
964.5321, 26.81726
965.0142, 24.86371
965.4963, 23.93542
965.9785, 27.53259
966.4606, 27.38129
966.9427, 15.57416
967.4248, 4.963745
967.9069, 7.003784
968.3890, 17.53284
968.8712, 24.28058
969.3533, 24.57556
969.8354, 27.65070
970.3175, 41.44952
970.7996, 48.32452
971.2817, 35.18103
971.7639, 19.78955
972.2460, 17.52350
972.7281, 25.26208
973.2102, 26.16315
973.6923, 12.03375
974.1744, 8.324341
974.6566, 37.35010
975.1387, 55.22534
975.6208, 31.64587
976.1029, 0.2450560
976.5850, 8.537231
977.0671, 4.253601
977.5493, 17.75488
978.0314, 32.07892
978.5135, 37.73059
978.9956, 23.51440
979.4777, 10.43982
979.9598, 8.118286
980.4420, 12.99695
980.9241, 23.00555
981.4062, 36.28882
981.8883, 47.13354
982.3704, 56.30957
982.8525, 58.13098
983.3347, 45.67175
983.8168, 31.14380
984.2989, 16.73749
984.7810, 7.405762
985.2631, 11.80060
985.7452, 27.57111
986.2274, 39.20801
986.7095, 42.31433
987.1916, 40.23566
987.6737, 27.82330
988.1558, 17.40973
988.6379, 19.93097
989.1201, 27.64960
989.6022, 29.31580
990.0843, 24.81201
990.5664, 22.74500
991.0485, 27.29736
991.5306, 32.00806
992.0128, 35.33765
992.4949, 36.70068
992.9770, 36.87762
993.4591, 34.14520
993.9412, 21.83514
994.4233, 2.598755
994.9055, 5.044434
995.3876, 12.12268
995.8697, 29.27411
996.3518, 36.87177
996.8339, 38.57111
997.3160, 34.16156
997.7982, 27.16107
998.2803, 23.42035
998.7624, 22.52087
999.2445, 16.33374
999.7266, 3.738281
1000.209, 18.81958
1000.691, 17.71838
1001.173, 9.521118
1001.655, 3.728699
1002.137, 16.76855
1002.619, 21.89026
1003.101, 19.27356
1003.584, 17.11707
1004.066, 18.84894
1004.548, 20.89917
1005.030, 20.97430
1005.512, 21.36310
1005.994, 24.67548
1006.476, 28.88770
1006.958, 30.14825
1007.440, 28.89185
1007.923, 30.58258
1008.405, 41.32043
1008.887, 46.62201
1009.369, 31.89099
1009.851, 17.80505
1010.333, 19.03796
1010.815, 30.12689
1011.297, 48.01666
1011.780, 68.68726
1012.262, 76.83960
1012.744, 61.20972
1013.226, 46.27344
1013.708, 43.42609
1014.190, 43.33350
1014.672, 40.52051
1015.154, 36.25928
1015.636, 31.15955
1016.119, 26.49670
1016.601, 27.24652
1017.083, 40.22125
1017.565, 45.92157
1018.047, 25.60333
1018.529, 8.891357
1019.011, 19.87634
1019.493, 39.99237
1019.976, 46.34125
1020.458, 39.56836
1020.940, 34.00592
1021.422, 33.37457
1021.904, 33.75903
1022.386, 31.93561
1022.868, 33.17621
1023.350, 46.00806
1023.832, 58.96033
1024.315, 58.49280
1024.797, 46.79834
1025.279, 35.51544
1025.761, 26.80334
1026.243, 19.38391
1026.725, 7.855347
1027.207, 3.818970
1027.689, 22.80469
1028.172, 42.81409
1028.654, 39.78613
1029.136, 12.44653
1029.618, 27.78052
1030.100, 50.49542
1030.582, 56.63849
1031.064, 3.429993
1031.546, 21.99640
1032.028, 13.13885
1032.511, 2.898560
1032.993, 40.36182
1033.475, 10.07343
1033.957, 26.37036
1034.439, 27.50824
1034.921, 45.27454
1035.403, 28.64069
1035.885, 22.65533
1036.368, 51.15747
1036.850, 60.56354
1037.332, 39.96191
1037.814, 58.80701
1038.296, 7.166870
1038.778, 17.38763
1039.260, 54.29877
1039.742, 35.43207
1040.224, 54.91876
1040.707, 59.79950
1041.189, 1.702576
1041.671, 52.24072
1042.153, 56.43506
1042.635, 9.607422
1043.117, 59.59595
1043.599, 19.41779
1044.081, 11.42407
1044.563, 27.65112
1045.046, 18.63049
1045.528, 49.41742
1046.010, 31.37463
1046.492, 37.33380
1046.974, 30.45245
1047.456, 12.50085
1047.938, 4.517517
1048.420, 7.949036
1048.902, 17.57806
1049.385, 37.23688
1049.867, 48.01501
1050.349, 38.66266
1050.831, 27.26416
1051.313, 34.93134
1051.795, 55.36182
1052.277, 60.13062
1052.759, 46.65210
1053.242, 38.83502
1053.724, 36.97723
1054.206, 34.96252
1054.688, 30.51575
1055.170, 26.51617
1055.652, 25.63080
1056.134, 26.57758
1056.616, 25.11237
1057.099, 21.66443
1057.581, 25.89136
1058.063, 37.11731
1058.545, 44.89758
1059.027, 46.90173
1059.509, 42.51624
1059.991, 29.77954
1060.473, 14.69794
1060.955, 6.583862
1061.438, 4.716125
1061.920, 7.669495
1062.402, 14.32526
1062.884, 19.30914
1063.366, 21.71191
1063.848, 22.48608
1064.330, 22.08582
1064.812, 22.28156
1065.294, 26.10181
1065.777, 31.10724
1066.259, 33.22461
1066.741, 32.52875
1067.223, 27.46228
1067.705, 19.67542
1068.187, 15.48468
1068.669, 16.88507
1069.151, 18.99823
1069.634, 17.38403
1070.116, 15.41504
1070.598, 16.75073
1071.080, 20.22833
1071.562, 27.90137
1072.044, 35.17560
1072.526, 27.56616
1073.008, 6.172241
1073.490, 1.951416
1073.973, 24.74268
1074.455, 50.83319
1074.937, 47.69397
1075.419, 37.37457
1075.901, 37.24084
1076.383, 43.44611
1076.865, 51.56067
1077.347, 59.13794
1077.829, 61.25317
1078.312, 55.61182
1078.794, 47.36011
1079.276, 31.43494
1079.758, 22.07013
1080.240, 36.83905
1080.722, 52.17181
1081.204, 37.80457
1081.686, 8.144287
1082.169, 5.219116
1082.651, 40.37457
1083.133, 58.91364
1083.615, 37.13318
1084.097, 21.77911
1084.579, 26.57947
1085.061, 35.60791
1085.543, 40.20245
1086.026, 43.29315
1086.508, 51.01868
1086.990, 62.48096
1087.472, 63.40222
1087.954, 42.68134
1088.436, 33.99078
1088.918, 45.62909
1089.400, 56.50183
1089.882, 59.05261
1090.365, 54.63367
1090.847, 42.84827
1091.329, 26.14624
1091.811, 17.85016
1092.293, 18.17169
1092.775, 17.82623
1093.257, 16.04919
1093.739, 20.05182
1094.221, 32.31573
1094.704, 44.69360
1095.186, 51.35626
1095.668, 55.28333
1096.150, 63.76715
1096.632, 74.10883
1097.114, 70.53186
1097.596, 55.12860
1098.078, 39.81464
1098.561, 26.60498
1099.043, 11.90015
1099.525, 5.404114
1100.007, 10.74854
1100.489, 19.26855
1100.971, 58.10687
1101.453, 59.96661
1101.935, 40.12805
1102.417, 23.84198
1102.900, 13.45142
1103.382, 4.763062
1103.864, 1.930176
1104.346, 4.281128
1104.828, 37.02539
1105.310, 62.41547
1105.792, 44.07117
1106.274, 15.40686
1106.756, 0.7462160
1107.239, 0.3778080
1107.721, 16.20111
1108.203, 42.83142
1108.685, 57.65118
1109.167, 53.94946
1109.649, 42.07837
1110.131, 8.337891
1110.613, 9.811768
1111.096, 19.65814
1111.578, 53.21985
1112.060, 57.38074
1112.542, 43.03345
1113.024, 30.06799
1113.506, 19.52759
1113.988, 14.32990
1114.470, 20.57111
1114.953, 20.77637
1115.435, 9.302734
1115.917, 0.2885130
1116.399, 3.057190
1116.881, 1.667664
1117.363, 0.8423460
1117.845, 5.595032
1118.327, 19.14069
1118.809, 45.11407
1119.292, 50.90881
1119.774, 33.59711
1120.256, 19.75708
1120.738, 15.25806
1121.220, 19.25818
1121.702, 32.17645
1122.184, 47.39880
1122.666, 56.45892
1123.148, 59.16437
1123.631, 50.28333
1124.113, 34.70001
1124.595, 35.78912
1125.077, 51.75122
1125.559, 60.07349
1126.041, 53.00427
1126.523, 41.69336
1127.005, 34.38403
1127.488, 27.90509
1127.970, 14.52893
1128.452, 3.079102
1128.934, 10.75665
1129.416, 26.04156
1129.898, 25.24310
1130.380, 10.20428
1130.862, 1.878662
1131.344, 7.746643
1131.827, 20.48083
1132.309, 46.35480
1132.791, 62.98193
1133.273, 50.79254
1133.755, 33.77960
1134.237, 34.53076
1134.719, 43.03931
1135.201, 35.97461
1135.683, 11.66931
1136.166, 2.937866
1136.648, 27.98578
1137.130, 41.07294
1137.612, 31.94763
1138.094, 26.59973
1138.576, 38.42059
1139.058, 48.47015
1139.540, 36.34979
1140.023, 13.31830
1140.505, 12.01636
1140.987, 33.85040
1141.469, 46.71649
1141.951, 50.18243
1142.433, 51.06079
1142.915, 50.64636
1143.397, 41.23273
1143.880, 18.33813
1144.362, 4.182434
1144.844, 11.24750
1145.326, 6.087097
1145.808, 9.664185
1146.290, 29.97858
1146.772, 37.65088
1147.254, 35.82379
1147.736, 39.28326
1148.219, 49.49890
1148.701, 52.66479
1149.183, 39.84601
1149.665, 27.41840
1150.147, 31.51447
1150.629, 37.59076
1151.111, 34.01294
1151.593, 25.79205
1152.075, 12.29578
1152.558, 1.216614
1153.040, 12.17108
1153.522, 48.22333
1154.004, 69.82318
1154.486, 58.93121
1154.968, 47.39056
1155.450, 35.45563
1155.932, 30.11176
1156.415, 40.45868
1156.897, 50.94568
1157.379, 44.63220
1157.861, 28.37347
1158.343, 24.97650
1158.825, 36.19592
1159.307, 40.35425
1159.789, 36.99249
1160.271, 27.49695
1160.754, 10.86230
1161.236, 2.732666
1161.718, 11.08081
1162.200, 27.87506
1162.682, 46.81378
1163.164, 61.36218
1163.646, 50.13599
1164.128, 24.78162
1164.610, 19.51868
1165.093, 28.92303
1165.575, 27.09363
1166.057, 12.27472
1166.539, 7.041382
1167.021, 23.69812
1167.503, 41.12354
1167.985, 44.34021
1168.467, 41.24304
1168.950, 34.28149
1169.432, 28.35565
1169.914, 31.52222
1170.396, 38.04095
1170.878, 35.25031
1171.360, 22.75067
1171.842, 17.07935
1172.324, 26.52271
1172.807, 32.74451
1173.289, 31.15137
1173.771, 32.70020
1174.253, 46.60736
1174.735, 53.18054
1175.217, 32.58893
1175.699, 3.030457
1176.181, 2.757996
1176.663, 28.55945
1177.146, 30.75452
1177.628, 9.625183
1178.110, 6.087341
1178.592, 23.34302
1179.074, 33.97205
1179.556, 28.64447
1180.038, 20.59308
1180.520, 19.92358
1181.002, 22.63013
1181.485, 26.83508
1181.967, 28.18024
1182.449, 12.97369
1182.931, 5.769897
1183.413, 2.925659
1183.895, 16.69342
1184.377, 31.89398
1184.859, 36.97015
1185.342, 39.65582
1185.824, 40.47931
1186.306, 43.48462
1186.788, 56.84058
1187.270, 64.49048
1187.752, 56.18518
1188.234, 39.22705
1188.716, 13.51288
1189.198, 11.89349
1189.681, 9.010193
1190.163, 26.96887
1190.645, 44.76416
1191.127, 42.61121
1191.609, 38.78503
1192.091, 34.98615
1192.573, 39.05951
1193.055, 55.40149
1193.537, 66.59131
1194.020, 54.90552
1194.502, 31.14954
1194.984, 10.85034
1195.466, 2.740967
1195.948, 3.208130
1196.430, 20.71136
1196.912, 31.67297
1197.394, 33.69305
1197.877, 29.05145
1198.359, 18.87000
1198.841, 11.70819
1199.323, 14.83075
1199.805, 18.77325
1200.287, 18.53943
1200.769, 18.01990
1201.251, 18.81842
1201.734, 21.42255
1202.216, 29.88434
1202.698, 40.09705
1203.180, 35.87012
1203.662, 12.17090
1204.144, 8.621643
1204.626, 34.48334
1205.108, 45.83221
1205.590, 33.40161
1206.073, 25.28546
1206.555, 33.81036
1207.037, 46.97064
1207.519, 53.82977
1208.001, 56.73584
1208.483, 62.44519
1208.965, 66.95618
1209.447, 53.81665
1209.929, 32.56384
1210.412, 28.23987
1210.894, 37.92395
1211.376, 38.36853
1211.858, 23.15997
1212.340, 13.54108
1212.822, 25.91901
1213.304, 35.97906
1213.786, 18.10193
1214.269, 1.131042
1214.751, 4.765076
1215.233, 15.72070
1215.715, 20.46954
1216.197, 21.56555
1216.679, 25.93677
1217.161, 34.22174
1217.643, 31.35315
1218.125, 12.85663
1218.608, 4.422852
1219.090, 9.375610
1219.572, 17.66992
1220.054, 26.17932
1220.536, 32.08508
1221.018, 33.10388
1221.500, 31.39313
1221.982, 29.96051
1222.464, 28.32892
1222.947, 23.87976
1223.429, 19.55988
1223.911, 22.76947
1224.393, 30.42108
1224.875, 33.75159
1225.357, 31.09210
1225.839, 26.57617
1226.321, 20.49359
1226.804, 16.13214
1227.286, 14.67322
1227.768, 14.97119
1228.250, 13.33545
1228.732, 17.52277
1229.214, 37.52924
1229.696, 60.90289
1230.178, 70.99304
1230.661, 68.11395
1231.143, 50.37842
1231.625, 17.03900
1232.107, 0.1833500
1232.589, 0.5863650
1233.071, 5.928894
1233.553, 16.11273
1234.035, 19.41534
1234.517, 9.583313
1235.000, 0.6759640
1235.482, 0.0000000E+00
##END=



