##NAMES=Germanite
##RRUFFID=R050439
##IDEAL CHEMISTRY=Cu^1+^_8_Cu^2+^_5_Fe^3+^_2_Ge^4+^_2_S^2-^_16_
##LOCALITY=Tsumeb mine, Tsumeb, Otavi District, Oshikoto, Namibia
##OWNER=RRUFF
##SOURCE=University of Arizona Mineral Museum
##DESCRIPTION=Black with purple hints, massive
##STATUS=The identification of this mineral has been confirmed by X-ray diffraction and chemical analysis
##URL=rruff.info/R050439
##MEASURED CHEMISTRY=(Cu_11.61_Fe^2+^_0.87_Zn_0.52_)_Σ=13_Fe_2.00_(Ge_1.71_As_0.29_)_Σ=2_S_16.00_ ; = dark-gray phase. (Cu_10.59_Zn_0.41_)_Σ=11_Fe_4.00_(Ge_1.46_As_0.54_)_Σ=2_S_16.00_ = lighter-gray phase. Lightest phase is PbS.
120.2996, 0.0000000E+00
120.7818, 1.7108999E-02
121.2639, 0.1122090
121.7460, 1.060722
122.2281, 1.925037
122.7102, 2.705906
123.1923, 3.211964
123.6745, 3.171352
124.1566, 2.571014
124.6387, 1.805546
125.1208, 1.460304
125.6029, 1.764328
126.0850, 1.960423
126.5672, 1.950726
127.0493, 1.844677
127.5314, 1.689175
128.0135, 1.536976
128.4956, 1.418541
128.9777, 1.585224
129.4599, 2.213856
129.9420, 2.659042
130.4241, 2.972301
130.9062, 3.142620
131.3883, 3.127384
131.8705, 2.876991
132.3526, 2.459248
132.8347, 2.246056
133.3168, 2.474834
133.7989, 2.634850
134.2810, 2.402592
134.7632, 1.856438
135.2453, 1.356815
135.7274, 1.203438
136.2095, 1.274132
136.6916, 1.177094
137.1737, 0.6101840
137.6559, 0.2262950
138.1380, 1.089298
138.6201, 2.452080
139.1022, 3.411476
139.5843, 3.993744
140.0664, 4.284988
140.5486, 4.737148
141.0307, 5.764786
141.5128, 7.019337
141.9949, 7.537910
142.4770, 6.977440
142.9591, 6.141109
143.4413, 5.191425
143.9234, 4.264774
144.4055, 3.564423
144.8876, 3.323124
145.3697, 3.558609
145.8518, 3.626572
146.3340, 3.137886
146.8161, 2.821899
147.2982, 3.056473
147.7803, 3.749203
148.2624, 4.441219
148.7445, 4.872772
149.2267, 5.079609
149.7088, 4.881767
150.1909, 3.882870
150.6730, 2.885967
151.1551, 2.408653
151.6372, 2.490112
152.1194, 2.746960
152.6015, 2.705395
153.0836, 2.269459
153.5657, 1.794712
154.0478, 1.260635
154.5299, 0.6752660
155.0121, 8.4576003E-02
155.4942, 1.062805
155.9763, 1.742184
156.4584, 1.331070
156.9405, 0.1039580
157.4227, 0.8200650
157.9048, 0.9413380
158.3869, 0.6556400
158.8690, 0.8686870
159.3511, 2.124283
159.8332, 3.611317
160.3154, 3.996319
160.7975, 3.351913
161.2796, 2.670288
161.7617, 2.588802
162.2438, 3.063034
162.7259, 3.596428
163.2081, 4.316860
163.6902, 4.834675
164.1723, 4.774635
164.6544, 4.117397
165.1365, 3.308662
165.6186, 2.830547
166.1008, 2.774906
166.5829, 2.739048
167.0650, 2.343620
167.5471, 2.025997
168.0292, 2.263626
168.5113, 3.138000
168.9935, 4.203602
169.4756, 4.684757
169.9577, 4.190575
170.4398, 3.842869
170.9219, 3.681004
171.4040, 3.690083
171.8862, 4.041107
172.3683, 4.762291
172.8504, 5.479683
173.3325, 5.284393
173.8146, 2.657299
174.2967, 0.9063570
174.7789, 0.4022220
175.2610, 0.7175870
175.7431, 1.519108
176.2252, 2.694798
176.7073, 4.003075
177.1894, 4.608707
177.6716, 3.887939
178.1537, 3.368114
178.6358, 3.430653
179.1179, 3.832684
179.6000, 4.071205
180.0821, 3.873646
180.5643, 3.386059
181.0464, 3.075035
181.5285, 3.034039
182.0106, 2.993397
182.4927, 2.738380
182.9749, 2.345383
183.4570, 2.175930
183.9391, 2.555511
184.4212, 3.136917
184.9033, 3.180943
185.3854, 2.413334
185.8676, 1.560963
186.3497, 1.247761
186.8318, 1.487362
187.3139, 1.772831
187.7960, 1.908474
188.2781, 1.956688
188.7603, 2.011189
189.2424, 2.139008
189.7245, 2.166740
190.2066, 1.797726
190.6887, 0.9003070
191.1708, 8.1211001E-02
191.6530, 0.6134150
192.1351, 1.064060
192.6172, 1.062695
193.0993, 0.4880450
193.5814, 0.3751870
194.0635, 0.9591450
194.5457, 1.169579
195.0278, 1.256012
195.5099, 1.100796
195.9920, 0.9480820
196.4741, 1.149403
196.9562, 1.886902
197.4384, 2.820000
197.9205, 2.897823
198.4026, 0.8565330
198.8847, 0.2956580
199.3668, 0.3816070
199.8489, 1.895489
200.3311, 3.183784
200.8132, 3.713276
201.2953, 3.609882
201.7774, 3.366714
202.2595, 2.687748
202.7416, 2.195126
203.2238, 2.083881
203.7059, 2.167568
204.1880, 2.170036
204.6701, 1.939037
205.1522, 1.544212
205.6344, 1.291267
206.1165, 1.102036
206.5986, 1.115150
207.0807, 1.572239
207.5628, 2.242928
208.0449, 2.676144
208.5271, 2.602402
209.0092, 2.163910
209.4913, 1.954865
209.9734, 2.245392
210.4555, 2.396793
210.9376, 2.079922
211.4198, 1.430096
211.9019, 0.7787400
212.3840, 0.2258000
212.8661, 0.1665310
213.3482, 0.1962740
213.8303, 0.3188630
214.3125, 0.9594380
214.7946, 1.677925
215.2767, 2.385445
215.7588, 2.670395
216.2409, 2.054111
216.7230, 1.136425
217.2052, 1.058075
217.6873, 2.209919
218.1694, 3.357010
218.6515, 3.444450
219.1336, 2.511158
219.6157, 1.606079
220.0979, 0.9670910
220.5800, 0.6795390
221.0621, 0.9393120
221.5442, 1.906013
222.0263, 2.858841
222.5084, 2.959290
222.9906, 2.111717
223.4727, 1.456898
223.9548, 1.533367
224.4369, 1.841652
224.9190, 2.018864
225.4011, 1.994923
225.8833, 1.951550
226.3654, 2.214581
226.8475, 2.926678
227.3296, 3.225895
227.8117, 2.426682
228.2938, 1.477093
228.7760, 0.9791180
229.2581, 1.049416
229.7402, 1.362949
230.2223, 1.470490
230.7044, 1.259529
231.1866, 1.207058
231.6687, 1.517212
232.1508, 1.867531
232.6329, 2.093239
233.1150, 2.172245
233.5971, 2.139675
234.0793, 2.038742
234.5614, 1.871689
235.0435, 1.603668
235.5256, 1.035549
236.0077, 0.5236050
236.4898, 0.2670670
236.9720, 0.3117370
237.4541, 0.6105420
237.9362, 1.195854
238.4183, 2.511780
238.9004, 2.954086
239.3825, 1.926361
239.8647, 0.6562690
240.3468, 0.1718750
240.8289, 0.4436840
241.3110, 0.3758050
241.7931, 0.1916310
242.2752, 0.1905750
242.7574, 0.4554140
243.2395, 0.5308720
243.7216, 0.5562900
244.2037, 0.5106770
244.6858, 0.4515300
245.1679, 0.6342700
245.6501, 1.448589
246.1322, 3.265537
246.6143, 4.044029
247.0964, 3.032349
247.5785, 1.670235
248.0606, 0.8391270
248.5428, 0.6317940
249.0249, 0.6924590
249.5070, 0.6946910
249.9891, 0.6483800
250.4712, 0.6529310
250.9533, 0.8574560
251.4355, 1.071552
251.9176, 1.053539
252.3997, 0.8167300
252.8818, 0.6212500
253.3639, 0.6874010
253.8460, 1.033188
254.3282, 1.389214
254.8103, 1.975224
255.2924, 2.405407
255.7745, 2.293121
256.2566, 1.671112
256.7387, 0.9651150
257.2209, 0.4960780
257.7030, 0.2996180
258.1851, 0.4323230
258.6672, 1.260963
259.1493, 2.115063
259.6314, 2.441654
260.1136, 2.296848
260.5957, 2.250294
261.0778, 2.745766
261.5599, 3.553780
262.0420, 3.959053
262.5241, 3.762909
263.0063, 3.389030
263.4884, 3.116398
263.9705, 2.930992
264.4526, 2.695503
264.9347, 2.282871
265.4168, 1.831226
265.8990, 1.583500
266.3811, 1.580372
266.8632, 1.694355
267.3453, 2.020882
267.8275, 2.491695
268.3096, 2.473232
268.7917, 1.332851
269.2738, 4.5403000E-02
269.7559, 0.4631230
270.2380, 0.2266350
270.7202, 1.138920
271.2023, 1.747902
271.6844, 2.111698
272.1665, 2.485214
272.6486, 3.060406
273.1307, 3.501446
273.6129, 3.486725
274.0950, 3.019245
274.5771, 2.432793
275.0592, 1.761116
275.5413, 1.084236
276.0234, 0.9475630
276.5056, 1.867626
276.9877, 2.766094
277.4698, 2.638340
277.9519, 1.686989
278.4340, 0.9435500
278.9161, 1.286373
279.3983, 2.423306
279.8804, 3.007648
280.3625, 2.706478
280.8446, 2.223797
281.3267, 1.903412
281.8088, 1.743992
282.2910, 1.755928
282.7731, 2.069603
283.2552, 2.554333
283.7373, 2.722389
284.2194, 2.334499
284.7015, 2.083447
285.1837, 2.374180
285.6658, 2.974880
286.1479, 3.606968
286.6300, 4.297089
287.1121, 4.789024
287.5942, 4.278072
288.0764, 2.097816
288.5585, 0.5050470
289.0406, 0.6988950
289.5227, 1.695004
290.0048, 2.484200
290.4869, 2.679070
290.9691, 2.666126
291.4512, 3.280716
291.9333, 4.939522
292.4154, 5.876827
292.8975, 4.874142
293.3796, 3.430294
293.8618, 2.786873
294.3439, 3.257313
294.8260, 3.963501
295.3081, 3.669827
295.7902, 2.120251
296.2723, 0.7905240
296.7545, 0.1586720
297.2366, 0.7525410
297.7187, 0.9426540
298.2008, 0.7478490
298.6829, 0.2616650
299.1650, 0.6039200
299.6472, 1.942860
300.1293, 2.833496
300.6114, 2.902092
301.0935, 2.745453
301.5756, 2.443203
302.0577, 2.104084
302.5399, 1.980061
303.0220, 2.439934
303.5041, 3.434486
303.9862, 3.811062
304.4683, 2.943188
304.9504, 2.153679
305.4326, 1.955643
305.9147, 2.173904
306.3968, 2.455696
306.8789, 2.589611
307.3610, 2.622242
307.8431, 2.763897
308.3253, 3.136139
308.8074, 3.429512
309.2895, 3.674030
309.7716, 3.746994
310.2537, 3.445415
310.7358, 2.620369
311.2180, 1.656261
311.7001, 1.500401
312.1822, 2.649349
312.6643, 3.508434
313.1464, 3.627422
313.6285, 3.458672
314.1107, 3.272270
314.5928, 3.157162
315.0749, 3.212055
315.5570, 3.694710
316.0392, 4.836006
316.5213, 5.551861
317.0034, 5.404858
317.4855, 5.059555
317.9676, 4.804302
318.4497, 4.692371
318.9319, 4.681019
319.4140, 4.707462
319.8961, 4.756516
320.3782, 4.995380
320.8603, 5.715603
321.3424, 6.355389
321.8246, 6.734169
322.3067, 6.862171
322.7888, 6.799404
323.2709, 6.580761
323.7530, 6.210155
324.2351, 5.695984
324.7173, 4.794071
325.1994, 4.100880
325.6815, 3.825218
326.1636, 3.835499
326.6457, 3.959980
327.1278, 4.130169
327.6100, 4.318352
328.0921, 4.549801
328.5742, 5.005501
329.0563, 5.055256
329.5384, 4.200253
330.0205, 3.122337
330.5027, 2.443462
330.9848, 2.337784
331.4669, 2.440701
331.9490, 2.162071
332.4311, 1.327251
332.9132, 0.8822780
333.3954, 1.290287
333.8775, 1.897350
334.3596, 2.445160
334.8417, 2.881214
335.3238, 3.191051
335.8059, 3.293221
336.2881, 3.183155
336.7702, 3.244480
337.2523, 3.942772
337.7344, 4.268875
338.2165, 3.318993
338.6986, 1.646378
339.1808, 0.5633320
339.6629, 1.127335
340.1450, 2.830833
340.6271, 3.727001
341.1092, 3.439518
341.5913, 3.043320
342.0735, 2.904133
342.5556, 2.939583
343.0377, 3.031982
343.5198, 3.067059
344.0019, 3.136616
344.4840, 3.473267
344.9662, 4.193604
345.4483, 4.686577
345.9304, 4.470135
346.4125, 4.107483
346.8946, 3.954586
347.3767, 4.083206
347.8589, 4.462040
348.3410, 5.189190
348.8231, 6.282738
349.3052, 6.972923
349.7873, 6.776772
350.2694, 6.580898
350.7516, 7.170753
351.2337, 8.406281
351.7158, 9.442116
352.1979, 9.519207
352.6800, 8.850883
353.1621, 8.229633
353.6443, 7.601387
354.1264, 7.176044
354.6085, 7.230427
355.0906, 7.514790
355.5727, 7.687607
356.0548, 7.679134
356.5370, 7.493740
357.0191, 7.049187
357.5012, 6.317879
357.9833, 5.641651
358.4654, 5.212479
358.9475, 4.848030
359.4297, 4.329121
359.9118, 3.604687
360.3939, 2.870354
360.8760, 2.176788
361.3581, 1.565872
361.8402, 1.271904
362.3224, 1.458168
362.8045, 1.815914
363.2866, 2.109161
363.7687, 2.331703
364.2508, 2.312912
364.7329, 1.837925
365.2151, 1.124092
365.6972, 0.4473840
366.1793, 0.2149540
366.6614, 0.5628050
367.1436, 0.1549950
367.6257, 0.7623100
368.1078, 1.410854
368.5899, 1.549503
369.0720, 1.549400
369.5541, 1.610806
370.0363, 1.701363
370.5184, 1.764263
371.0005, 1.769444
371.4826, 1.776855
371.9647, 1.937077
372.4468, 2.388943
372.9290, 2.635902
373.4111, 2.310276
373.8932, 1.680580
374.3753, 1.243263
374.8574, 1.134678
375.3395, 1.185764
375.8217, 1.170345
376.3038, 1.061405
376.7859, 1.146179
377.2680, 1.866264
377.7501, 2.508755
378.2322, 2.255569
378.7144, 1.172642
379.1965, 0.1836240
379.6786, 2.4387000E-02
380.1607, 0.4989240
380.6428, 1.024937
381.1249, 1.712303
381.6071, 2.227684
382.0892, 2.462788
382.5713, 2.442341
383.0534, 2.159595
383.5355, 1.590069
384.0176, 0.9059140
384.4998, 0.4740260
384.9819, 0.4287530
385.4640, 0.4569170
385.9461, 0.5974270
386.4282, 0.7597310
386.9103, 0.8090290
387.3925, 0.7512090
387.8746, 0.7784270
388.3567, 1.159805
388.8388, 2.031090
389.3209, 2.239540
389.8030, 1.064243
390.2852, 7.3059000E-02
390.7673, 3.6208998E-02
391.2494, 0.6301920
391.7315, 1.134781
392.2136, 1.121269
392.6957, 0.7306750
393.1779, 0.4915350
393.6600, 0.3033520
394.1421, 0.4497530
394.6242, 1.483505
395.1063, 2.540134
395.5884, 2.636337
396.0706, 1.617550
396.5527, 0.3696520
397.0348, 0.1817090
397.5169, 1.472412
397.9990, 2.180363
398.4811, 1.937199
398.9633, 1.434170
399.4454, 0.6575050
399.9275, 0.1754990
400.4096, 0.6031610
400.8917, 0.1732710
401.3738, 0.8420910
401.8560, 1.217453
402.3381, 0.5721630
402.8202, 4.0000000E-06
403.3023, 0.1133800
403.7844, 2.3441000E-02
404.2665, 5.1215999E-02
404.7487, 0.3113370
405.2308, 0.4487110
405.7129, 0.1654240
406.1950, 1.602215
406.6771, 2.548412
407.1592, 2.732258
407.6414, 2.347061
408.1235, 1.120178
408.6056, 0.6932110
409.0877, 1.810013
409.5698, 0.9684220
410.0519, 1.014900
410.5341, 2.219471
411.0162, 2.482468
411.4983, 2.400757
411.9804, 2.089230
412.4625, 1.721951
412.9446, 1.650879
413.4268, 2.182823
413.9089, 2.595787
414.3910, 2.070499
414.8731, 0.8362620
415.3553, 3.4729000E-02
415.8374, 0.1218950
416.3195, 0.6404380
416.8016, 0.9353940
417.2837, 0.9973640
417.7658, 1.110672
418.2480, 1.491962
418.7301, 1.888954
419.2122, 1.881310
419.6943, 1.454868
420.1764, 1.216640
420.6585, 1.755421
421.1407, 2.962132
421.6228, 3.558254
422.1049, 3.335247
422.5870, 2.810410
423.0691, 1.795574
423.5512, 0.6817820
424.0334, 0.3217960
424.5155, 1.087200
424.9976, 2.265358
425.4797, 2.412006
425.9618, 0.6611250
426.4439, 0.4211650
426.9261, 0.5447810
427.4082, 0.2586980
427.8903, 0.1339910
428.3724, 0.5740660
428.8545, 1.097572
429.3366, 1.758385
429.8188, 2.545834
430.3009, 3.138332
430.7830, 3.466423
431.2651, 3.686920
431.7472, 3.786339
432.2293, 3.718796
432.7115, 3.522781
433.1936, 3.200211
433.6757, 2.825218
434.1578, 2.503620
434.6399, 2.217175
435.1220, 2.050110
435.6042, 2.188053
436.0863, 2.297318
436.5684, 2.102856
437.0505, 1.713768
437.5326, 1.505096
438.0147, 1.805603
438.4969, 2.467152
438.9790, 3.024555
439.4611, 3.470005
439.9432, 3.706020
440.4253, 3.807293
440.9074, 3.670509
441.3896, 3.014164
441.8717, 1.666077
442.3538, 0.4472920
442.8359, 0.1717190
443.3180, 0.7090950
443.8001, 1.350746
444.2823, 2.084515
444.7644, 2.669930
445.2465, 2.780876
445.7286, 2.516918
446.2107, 2.272583
446.6928, 2.095592
447.1750, 2.026623
447.6571, 2.253666
448.1392, 2.718349
448.6213, 2.861305
449.1034, 2.249287
449.5855, 1.246101
450.0677, 0.9159660
450.5498, 1.536491
451.0319, 2.099236
451.5140, 2.349972
451.9961, 2.405899
452.4782, 2.434299
452.9604, 2.459602
453.4425, 2.317497
453.9246, 1.771950
454.4067, 0.7389870
454.8888, 0.2332270
455.3709, 0.5867690
455.8531, 1.006901
456.3352, 1.260796
456.8173, 1.374676
457.2994, 1.329391
457.7815, 1.093979
458.2636, 0.9276120
458.7458, 1.586952
459.2279, 3.851475
459.7100, 5.156994
460.1921, 5.036312
460.6742, 4.400204
461.1563, 3.418663
461.6385, 2.358078
462.1206, 1.805351
462.6027, 2.424885
463.0848, 3.879070
463.5669, 4.314137
464.0491, 3.141796
464.5312, 2.095715
465.0133, 1.884354
465.4954, 1.988422
465.9775, 1.800339
466.4597, 1.096058
466.9418, 0.4183730
467.4239, 0.5078510
467.9060, 1.279453
468.3881, 1.984928
468.8702, 2.600483
469.3524, 2.994316
469.8345, 2.845451
470.3166, 2.357346
470.7987, 2.135845
471.2808, 2.704628
471.7629, 3.311657
472.2451, 3.133411
472.7272, 2.331551
473.2093, 1.749584
473.6914, 1.812370
474.1735, 2.203918
474.6556, 2.248077
475.1378, 1.748348
475.6199, 1.610535
476.1020, 2.418346
476.5841, 3.338100
477.0662, 3.623505
477.5483, 3.247177
478.0305, 2.586124
478.5126, 1.884617
478.9947, 1.167164
479.4768, 0.6797490
479.9589, 0.3780170
480.4410, 0.3660890
480.9232, 1.021301
481.4053, 1.789051
481.8874, 2.018375
482.3695, 1.597397
482.8516, 0.9722710
483.3337, 0.6353870
483.8159, 0.5851630
484.2980, 0.8168030
484.7801, 1.879169
485.2622, 2.695644
485.7443, 2.798969
486.2264, 2.425041
486.7086, 1.969559
487.1907, 1.594284
487.6728, 1.225037
488.1549, 0.5799900
488.6370, 0.3934360
489.1191, 0.6884460
489.6013, 0.3146210
490.0834, 1.636658
490.5655, 2.565292
491.0476, 3.088963
491.5297, 3.101772
492.0118, 2.121166
492.4940, 0.8544270
492.9761, 0.1983110
493.4582, 0.1544690
493.9403, 0.4011800
494.4224, 0.9308660
494.9045, 1.506542
495.3867, 1.433563
495.8688, 0.3664630
496.3509, 0.3701970
496.8330, 0.3429300
497.3151, 9.0786003E-02
497.7972, 0.7085720
498.2794, 1.405743
498.7615, 1.871532
499.2436, 1.769684
499.7257, 1.154991
500.2078, 1.033596
500.6899, 2.157307
501.1721, 2.871883
501.6542, 2.572487
502.1363, 1.881504
502.6184, 1.373280
503.1005, 1.239834
503.5826, 1.495747
504.0648, 2.433163
504.5469, 4.238136
505.0290, 4.794022
505.5111, 2.980667
505.9932, 1.277981
506.4753, 0.6708870
506.9575, 0.8013190
507.4396, 1.147873
507.9217, 1.604965
508.4038, 1.934532
508.8859, 1.721409
509.3680, 1.003178
509.8502, 0.4492530
510.3323, 0.1484260
510.8144, 0.1425320
511.2965, 0.6772770
511.7786, 1.625572
512.2607, 2.271202
512.7429, 2.216259
513.2250, 1.965076
513.7071, 2.015064
514.1892, 2.257607
514.6713, 2.132317
515.1534, 1.308506
515.6356, 0.2215960
516.1177, 0.2720490
516.5998, 2.7705999E-02
517.0819, 0.5183370
517.5640, 1.584362
518.0461, 2.510323
518.5283, 2.762779
519.0104, 2.418053
519.4925, 1.828953
519.9746, 1.203987
520.4567, 0.5777050
520.9388, 5.7510000E-02
521.4210, 0.4847790
521.9031, 0.6582490
522.3852, 0.1074030
522.8673, 0.5420000
523.3494, 0.7938610
523.8315, 0.6656490
524.3137, 0.5646100
524.7958, 0.9120560
525.2779, 1.517906
525.7600, 1.635330
526.2421, 1.117920
526.7242, 0.6639480
527.2064, 0.6606900
527.6885, 0.8475340
528.1706, 0.8613430
528.6527, 0.6285130
529.1348, 0.5000340
529.6169, 0.6953470
530.0991, 1.096001
530.5812, 1.626640
531.0633, 2.262009
531.5454, 2.717678
532.0275, 2.786221
532.5096, 2.559116
532.9918, 2.438747
533.4739, 2.570141
533.9560, 2.606293
534.4381, 2.416210
534.9202, 2.127827
535.4023, 1.804115
535.8845, 1.498600
536.3666, 1.397789
536.8487, 1.791599
537.3308, 2.677891
537.8129, 2.787289
538.2951, 1.137161
538.7772, 2.7389999E-03
539.2593, 0.1484570
539.7415, 0.9011730
540.2236, 1.576584
540.7057, 1.989910
541.1878, 2.265148
541.6699, 2.574245
542.1520, 2.878578
542.6342, 2.872070
543.1163, 2.445274
543.5984, 1.919571
544.0805, 1.409599
544.5626, 0.9638290
545.0447, 0.6677930
545.5269, 0.4736290
546.0090, 0.5482440
546.4911, 1.247589
546.9732, 2.202801
547.4553, 2.672371
547.9374, 2.436848
548.4196, 2.016659
548.9017, 1.885025
549.3838, 2.045151
549.8659, 2.343838
550.3480, 3.138348
550.8301, 3.624603
551.3123, 3.238327
551.7944, 2.575871
552.2765, 2.510521
552.7586, 3.207169
553.2407, 3.911102
553.7228, 3.575737
554.2050, 2.082760
554.6871, 1.260479
555.1692, 1.430401
555.6513, 1.882721
556.1334, 2.691490
556.6155, 3.470814
557.0977, 3.627018
557.5798, 2.932350
558.0619, 2.154781
558.5440, 2.128807
559.0261, 2.687401
559.5082, 2.776646
559.9904, 1.950191
560.4725, 1.319485
560.9546, 1.979927
561.4367, 3.522736
561.9188, 3.893127
562.4009, 1.838238
562.8831, 0.1608890
563.3652, 0.2191200
563.8473, 1.141956
564.3294, 1.777069
564.8115, 1.866852
565.2936, 1.738094
565.7758, 1.698689
566.2579, 1.748787
566.7400, 1.844540
567.2221, 2.200779
567.7042, 2.333279
568.1863, 1.887794
568.6685, 1.332333
569.1506, 1.218155
569.6327, 1.627735
570.1148, 2.084164
570.5969, 2.069046
571.0790, 1.669308
571.5612, 1.421272
572.0433, 1.332619
572.5254, 1.401524
573.0075, 1.828762
573.4896, 2.323879
573.9717, 2.400753
574.4539, 1.944801
574.9360, 1.486923
575.4181, 1.199638
575.9002, 1.101101
576.3823, 1.412556
576.8644, 2.104752
577.3466, 2.563736
577.8287, 2.308922
578.3108, 1.499527
578.7929, 0.9183500
579.2750, 0.6156880
579.7571, 0.4424210
580.2393, 0.5287670
580.7214, 0.6913150
581.2035, 0.8046380
581.6856, 0.8653760
582.1677, 0.9354020
582.6498, 1.047321
583.1320, 1.216885
583.6141, 1.533688
584.0962, 2.076401
584.5783, 2.499031
585.0604, 2.651718
585.5425, 2.686401
586.0247, 2.891357
586.5068, 3.214432
586.9889, 2.999355
587.4710, 1.288639
587.9531, 0.6656610
588.4352, 1.334782
588.9174, 0.8484380
589.3995, 0.1053920
589.8816, 0.5517850
590.3637, 1.150398
590.8458, 1.755344
591.3279, 2.428810
591.8101, 2.906242
592.2922, 3.261581
592.7743, 3.355358
593.2564, 2.970463
593.7385, 2.293736
594.2206, 1.638115
594.7028, 1.147427
595.1849, 0.8118900
595.6670, 0.6292880
596.1491, 0.6072650
596.6312, 0.6883510
597.1133, 0.9744570
597.5955, 1.240555
598.0776, 1.266144
598.5597, 1.205967
599.0418, 1.410236
599.5239, 2.148933
600.0060, 2.764755
600.4882, 2.569950
600.9703, 1.872219
601.4524, 1.434525
601.9345, 1.408642
602.4166, 1.516399
602.8987, 1.528091
603.3809, 1.451897
603.8630, 1.409306
604.3451, 1.137707
604.8272, 1.228558
605.3093, 2.336563
605.7914, 3.519997
606.2736, 3.695431
606.7557, 2.852600
607.2378, 1.943356
607.7199, 1.779686
608.2020, 2.221188
608.6841, 2.627396
609.1663, 3.084198
609.6484, 3.255470
610.1305, 2.881424
610.6126, 2.319313
611.0947, 1.714622
611.5768, 1.138870
612.0590, 0.8464470
612.5411, 1.124859
613.0232, 1.614605
613.5053, 1.990978
613.9874, 2.229355
614.4695, 2.312233
614.9517, 2.249931
615.4338, 1.924381
615.9159, 1.003418
616.3980, 1.061382
616.8801, 1.748165
617.3622, 0.1791420
617.8444, 2.004383
618.3265, 2.509007
618.8086, 2.169918
619.2907, 1.803940
619.7728, 1.712265
620.2549, 1.685669
620.7371, 1.327892
621.2192, 0.6721990
621.7013, 0.6124990
622.1834, 1.459984
622.6655, 2.289967
623.1476, 2.465359
623.6298, 2.310612
624.1119, 2.410336
624.5940, 2.988289
625.0761, 3.273613
625.5582, 2.789574
626.0403, 1.969265
626.5225, 1.260406
627.0046, 0.7420730
627.4867, 0.4859280
627.9688, 0.5664290
628.4509, 0.8824390
628.9330, 1.196930
629.4152, 1.510567
629.8973, 1.819584
630.3794, 2.440407
630.8615, 2.769955
631.3436, 2.219395
631.8257, 1.106781
632.3079, 0.2018970
632.7900, 0.1694030
633.2721, 5.9703998E-02
633.7542, 0.7545470
634.2363, 2.145348
634.7184, 2.846920
635.2006, 2.476727
635.6827, 1.794197
636.1648, 1.421440
636.6469, 1.319923
637.1291, 1.135044
637.6112, 0.5000460
638.0933, 0.2257390
638.5754, 0.8887290
639.0576, 1.878071
639.5397, 2.512005
640.0218, 2.695080
640.5039, 2.719673
640.9860, 2.820614
641.4681, 2.969860
641.9503, 3.013058
642.4324, 2.871635
642.9145, 2.820808
643.3966, 3.073177
643.8787, 3.311901
644.3608, 3.401676
644.8430, 3.305122
645.3251, 2.901169
645.8072, 1.649380
646.2893, 0.4264070
646.7714, 0.3562160
647.2535, 1.159683
647.7357, 1.873215
648.2178, 2.215965
648.6999, 2.384357
649.1820, 2.621880
649.6641, 2.951618
650.1462, 2.875866
650.6284, 1.678394
651.1105, 0.9889530
651.5926, 1.633850
652.0747, 2.638218
652.5568, 2.954247
653.0389, 2.493340
653.5211, 2.017406
654.0032, 2.146389
654.4853, 2.648495
654.9674, 2.843330
655.4495, 2.707035
655.9316, 2.535336
656.4138, 2.454296
656.8959, 2.346493
657.3780, 1.931927
657.8601, 1.216404
658.3422, 0.8953480
658.8243, 1.460014
659.3065, 2.032711
659.7886, 2.051243
660.2707, 1.776516
660.7528, 1.650826
661.2349, 1.805416
661.7170, 2.107403
662.1992, 2.464699
662.6813, 2.861443
663.1634, 2.862206
663.6455, 2.162056
664.1276, 1.699398
664.6097, 1.942101
665.0919, 2.380844
665.5740, 2.664825
666.0561, 2.748383
666.5382, 2.429905
667.0203, 1.046459
667.5024, 0.3574140
667.9846, 0.6270450
668.4667, 6.2592000E-02
668.9488, 1.221241
669.4309, 2.724121
669.9130, 3.878662
670.3951, 3.611286
670.8773, 1.624939
671.3594, 0.6423190
671.8415, 1.673622
672.3236, 2.543301
672.8057, 2.712891
673.2878, 2.545120
673.7700, 2.298546
674.2521, 2.002743
674.7342, 1.949928
675.2163, 2.777569
675.6984, 3.929054
676.1805, 4.468288
676.6627, 4.411129
677.1448, 4.230831
677.6269, 4.131443
678.1090, 3.904240
678.5911, 3.141052
679.0732, 1.630249
679.5554, 0.8623200
680.0375, 1.738007
680.5196, 2.298897
681.0017, 1.257687
681.4838, 0.2511600
681.9659, 0.6192510
682.4481, 0.4178540
682.9302, 1.653759
683.4123, 1.997032
683.8944, 1.612690
684.3765, 1.040661
684.8586, 0.1887090
685.3408, 0.2555660
685.8229, 9.2472002E-02
686.3050, 0.7814370
686.7871, 1.203091
687.2692, 1.384663
687.7513, 1.808929
688.2335, 3.038807
688.7156, 4.055138
689.1977, 4.275249
689.6798, 3.932671
690.1619, 3.307762
690.6440, 2.506054
691.1262, 1.726791
691.6083, 1.134895
692.0904, 0.7159730
692.5725, 0.4548870
693.0546, 0.3840370
693.5367, 0.3822060
694.0189, 0.4674490
694.5010, 0.5670970
694.9831, 0.5720630
695.4652, 0.5074160
695.9473, 0.5742650
696.4294, 0.8946080
696.9116, 1.303551
697.3937, 1.869255
697.8758, 2.393383
698.3579, 2.395065
698.8400, 1.850933
699.3221, 1.287872
699.8043, 1.221703
700.2864, 1.613613
700.7685, 1.916885
701.2506, 1.984341
701.7327, 2.275681
702.2148, 3.363426
702.6970, 4.298141
703.1791, 4.255814
703.6612, 3.469475
704.1433, 2.962872
704.6254, 3.396519
705.1075, 3.855751
705.5897, 3.457146
706.0718, 2.564579
706.5539, 1.904987
707.0360, 1.620071
707.5181, 1.607533
708.0002, 1.828457
708.4824, 2.102104
708.9645, 2.022995
709.4466, 1.434021
709.9287, 0.8778380
710.4108, 0.1235010
710.8929, 0.3293840
711.3751, 7.6576002E-02
711.8572, 0.7004280
712.3393, 1.564293
712.8214, 2.442158
713.3035, 3.127274
713.7856, 3.396969
714.2678, 3.364716
714.7499, 3.287621
715.2320, 3.194340
715.7141, 2.917778
716.1962, 2.382442
716.6783, 1.636986
717.1605, 1.059395
717.6426, 0.7125320
718.1247, 0.5711750
718.6068, 0.8358760
719.0889, 1.085003
719.5710, 1.181957
720.0532, 1.117901
720.5353, 0.7678950
721.0174, 2.2373000E-02
721.4995, 0.3665540
721.9816, 0.7262840
722.4637, 2.424160
722.9459, 2.829605
723.4280, 1.917633
723.9101, 1.020901
724.3922, 0.7874600
724.8743, 0.9514580
725.3564, 0.9951320
725.8386, 0.8810620
726.3207, 0.8716580
726.8028, 0.7150230
727.2849, 0.8657530
727.7670, 1.974274
728.2491, 3.204632
728.7313, 3.440117
729.2134, 2.515572
729.6955, 1.447559
730.1776, 0.7936630
730.6597, 0.5182720
731.1418, 0.7581600
731.6240, 1.394646
732.1061, 1.712345
732.5882, 1.425468
733.0703, 1.033268
733.5524, 1.203297
734.0345, 1.980446
734.5167, 2.231262
734.9988, 1.404339
735.4809, 0.7591710
735.9631, 0.5534100
736.4452, 0.5498350
736.9273, 0.5210720
737.4094, 0.4893070
737.8915, 0.6770250
738.3737, 1.331779
738.8558, 2.074211
739.3379, 2.387726
739.8200, 2.421246
740.3021, 2.848766
740.7842, 3.753727
741.2664, 4.440796
741.7485, 4.328793
742.2306, 3.558670
742.7127, 2.813251
743.1948, 2.067226
743.6769, 1.382828
744.1591, 0.3109930
744.6412, 0.2828290
745.1233, 0.4224320
745.6054, 1.882610
746.0875, 2.999390
746.5696, 3.422859
747.0518, 3.463642
747.5339, 3.160492
748.0160, 2.709316
748.4981, 2.441895
748.9802, 2.370186
749.4623, 2.409157
749.9445, 2.543682
750.4266, 2.590500
750.9087, 2.136902
751.3908, 0.9661370
751.8729, 0.3325000
752.3550, 0.5527190
752.8372, 0.9015500
753.3193, 1.263184
753.8014, 1.560589
754.2835, 1.770515
754.7656, 1.880650
755.2477, 1.673801
755.7299, 0.5677990
756.2120, 0.4931790
756.6941, 0.4642830
757.1762, 0.3106770
757.6583, 1.014339
758.1404, 1.411747
758.6226, 1.646111
759.1047, 1.861099
759.5868, 2.041107
760.0689, 2.077065
760.5510, 1.935005
761.0331, 1.724785
761.5153, 1.199036
761.9974, 0.8899730
762.4795, 1.520863
762.9616, 2.690369
763.4437, 3.074631
763.9258, 2.038383
764.4080, 0.8351670
764.8901, 0.4452670
765.3722, 1.244919
765.8543, 0.4624480
766.3364, 1.506855
766.8185, 3.045341
767.3007, 3.270336
767.7828, 2.661930
768.2649, 1.919079
768.7470, 1.007454
769.2291, 0.3668100
769.7112, 4.1251998E-02
770.1934, 6.0474001E-02
770.6755, 0.6178970
771.1576, 1.585220
771.6397, 2.258934
772.1218, 2.709988
772.6039, 2.482731
773.0861, 0.4837070
773.5682, 1.111431
774.0503, 0.7936100
774.5324, 0.4802360
775.0145, 1.367508
775.4966, 1.574585
775.9788, 1.600540
776.4609, 1.885811
776.9430, 2.254440
777.4251, 2.218693
777.9072, 1.790588
778.3893, 1.477432
778.8715, 1.405693
779.3536, 1.395439
779.8357, 1.383919
780.3178, 1.338604
780.7999, 1.229622
781.2820, 0.7838550
781.7642, 0.6707880
782.2463, 1.279980
782.7284, 1.903828
783.2105, 2.002487
783.6926, 1.793865
784.1747, 1.813320
784.6569, 2.280376
785.1390, 2.699677
785.6211, 2.375854
786.1032, 1.793766
786.5853, 2.153316
787.0674, 3.333012
787.5496, 3.939724
788.0317, 3.332954
788.5138, 2.184769
788.9959, 1.422234
789.4780, 1.064117
789.9601, 0.8204650
790.4423, 0.6171530
790.9244, 0.7213970
791.4065, 1.461651
791.8886, 2.273090
792.3707, 2.740051
792.8528, 2.842720
793.3350, 2.659725
793.8171, 2.009090
794.2992, 1.354759
794.7813, 0.9353830
795.2634, 0.7102470
795.7455, 0.6839260
796.2277, 0.8084030
796.7098, 0.9067540
797.1919, 0.8648030
797.6740, 0.7890700
798.1561, 0.8690380
798.6382, 1.104740
799.1204, 1.578671
799.6025, 2.512360
800.0846, 3.023281
800.5667, 2.356815
801.0488, 1.231209
801.5309, 1.042664
802.0131, 1.945564
802.4952, 2.578514
802.9773, 2.899422
803.4594, 2.906296
803.9415, 2.228653
804.4236, 1.458622
804.9058, 1.527878
805.3879, 2.379303
805.8700, 2.820858
806.3521, 1.750641
806.8342, 0.2761150
807.3163, 0.2322040
807.7985, 1.282120
808.2806, 2.072906
808.7627, 2.357841
809.2448, 2.443321
809.7269, 2.523228
810.2090, 2.604053
810.6912, 2.719498
811.1733, 2.965176
811.6554, 3.016747
812.1375, 2.640148
812.6196, 2.337402
813.1017, 2.506588
813.5839, 2.756695
814.0660, 2.369785
814.5481, 1.258549
815.0302, 0.6252780
815.5123, 1.422726
815.9944, 2.398113
816.4766, 2.539494
816.9587, 2.136425
817.4408, 1.621849
817.9229, 1.171867
818.4050, 1.065472
818.8871, 1.613846
819.3693, 2.523552
819.8514, 3.054562
820.3335, 3.202072
820.8156, 2.948399
821.2977, 2.103401
821.7798, 1.449509
822.2620, 1.635654
822.7441, 2.305794
823.2262, 2.450912
823.7083, 1.811584
824.1904, 1.566425
824.6725, 2.140423
825.1547, 2.615257
825.6368, 2.474709
826.1189, 2.035782
826.6010, 1.669788
827.0831, 1.471970
827.5652, 1.486107
828.0474, 2.132172
828.5295, 2.715332
829.0116, 1.940186
829.4937, 0.4690130
829.9758, 0.2031560
830.4579, 1.465042
830.9401, 2.907150
831.4222, 3.446056
831.9043, 3.356228
832.3864, 3.160454
832.8685, 2.752895
833.3506, 2.476589
833.8328, 2.367428
834.3149, 2.380131
834.7971, 2.638329
835.2792, 2.933514
835.7613, 2.866764
836.2434, 2.366848
836.7255, 1.909279
837.2076, 1.615219
837.6898, 1.329285
838.1719, 0.9497450
838.6540, 0.5516780
839.1361, 0.1146390
839.6182, 0.2797130
840.1003, 0.2881050
840.5825, 0.4418110
841.0646, 1.434189
841.5467, 2.245735
842.0288, 2.772640
842.5109, 2.332638
842.9930, 0.9212910
843.4752, 0.2028120
843.9573, 1.302494
844.4394, 3.280697
844.9215, 4.092373
845.4036, 3.489674
845.8857, 3.012310
846.3679, 2.901062
846.8500, 2.472946
847.3321, 0.8475070
847.8142, 0.7602580
848.2963, 0.8985330
848.7784, 0.3719900
849.2606, 1.466522
849.7427, 2.075661
850.2248, 2.448734
850.7069, 2.798294
851.1890, 2.872585
851.6711, 2.060711
852.1533, 0.7252620
852.6354, 6.1623000E-02
853.1175, 0.7105410
853.5996, 1.765949
854.0817, 2.085232
854.5638, 1.973034
855.0460, 2.248356
855.5281, 2.900776
856.0102, 3.303459
856.4923, 3.194912
856.9744, 2.838341
857.4565, 2.535965
857.9387, 2.291790
858.4208, 2.289005
858.9029, 2.736744
859.3850, 2.901871
859.8671, 2.301224
860.3492, 1.754269
860.8314, 2.066616
861.3135, 2.958565
861.7956, 3.456501
862.2777, 3.269222
862.7598, 2.755516
863.2419, 1.561378
863.7241, 0.4735870
864.2062, 0.1056710
864.6883, 0.1535990
865.1704, 0.5765840
865.6525, 2.014610
866.1346, 3.006344
866.6168, 2.144886
867.0989, 0.7007790
867.5810, 0.8847310
868.0631, 2.219597
868.5452, 3.031303
869.0273, 3.005913
869.5095, 2.890507
869.9916, 3.242069
870.4737, 3.806335
870.9558, 3.916527
871.4379, 3.526199
871.9200, 2.882160
872.4022, 1.748764
872.8843, 0.9284290
873.3664, 0.8852920
873.8485, 1.209171
874.3306, 1.277580
874.8127, 1.079147
875.2949, 1.011181
875.7770, 1.051823
876.2591, 1.286930
876.7412, 2.102386
877.2233, 2.833347
877.7054, 2.760044
878.1876, 2.091873
878.6697, 1.565205
879.1518, 1.498371
879.6339, 1.503132
880.1160, 1.226528
880.5981, 0.8618240
881.0803, 0.7003100
881.5624, 0.6995770
882.0445, 0.6115300
882.5266, 0.3658290
883.0087, 0.2211000
883.4908, 0.4748840
883.9730, 1.047058
884.4551, 1.601070
884.9372, 2.172260
885.4193, 2.377323
885.9014, 2.048973
886.3835, 1.702370
886.8657, 1.734951
887.3478, 1.975525
887.8299, 1.934155
888.3120, 1.425629
888.7941, 1.132088
889.2762, 0.9881550
889.7584, 1.138714
890.2405, 2.086769
890.7226, 3.039021
891.2047, 2.926414
891.6868, 1.871044
892.1689, 1.387352
892.6511, 2.468121
893.1332, 3.549931
893.6153, 3.963757
894.0974, 3.893982
894.5795, 3.379105
895.0616, 2.574165
895.5438, 1.643482
896.0259, 0.6501390
896.5080, 0.2003480
896.9901, 1.614635
897.4722, 3.804752
897.9543, 3.925243
898.4365, 2.341015
898.9186, 1.366772
899.4007, 1.654613
899.8828, 2.123589
900.3649, 1.815765
900.8470, 1.001469
901.3292, 0.8058010
901.8113, 1.454723
902.2934, 1.736523
902.7755, 1.440651
903.2576, 1.030506
903.7397, 0.5907360
904.2219, 0.2852710
904.7040, 0.5165710
905.1861, 1.429714
905.6682, 1.715469
906.1503, 0.4814760
906.6324, 0.1126330
907.1146, 1.217857
907.5967, 2.645504
908.0788, 2.390953
908.5609, 0.9667740
909.0430, 0.1963080
909.5251, 0.8345180
910.0073, 1.398006
910.4894, 0.5871240
910.9715, 0.3420330
911.4536, 9.8576002E-02
911.9357, 1.354572
912.4178, 2.164043
912.9000, 2.221348
913.3821, 2.054050
913.8642, 2.082043
914.3463, 2.168690
914.8284, 1.991985
915.3105, 1.634617
915.7927, 1.490128
916.2748, 1.608921
916.7569, 1.908539
917.2390, 2.421001
917.7211, 2.657871
918.2032, 1.527462
918.6854, 1.077946
919.1675, 1.747055
919.6496, 0.2456130
920.1317, 1.962070
920.6138, 2.739513
921.0959, 2.924618
921.5781, 2.613647
922.0602, 1.907223
922.5423, 1.423454
923.0244, 1.284386
923.5065, 1.216099
923.9886, 1.257511
924.4708, 1.311718
924.9529, 1.448483
925.4350, 1.509354
925.9171, 1.178295
926.3992, 0.4825740
926.8813, 5.3920999E-02
927.3635, 0.2896120
927.8456, 0.6793100
928.3277, 1.173321
928.8098, 1.495411
929.2919, 1.113415
929.7740, 0.2977180
930.2562, 0.1414340
930.7383, 0.1272850
931.2204, 0.5970920
931.7025, 0.8209150
932.1846, 0.8946500
932.6667, 0.8498230
933.1489, 0.7588230
933.6310, 0.9910050
934.1132, 1.588921
934.5953, 1.980286
935.0774, 1.689411
935.5595, 1.103226
936.0416, 1.217419
936.5237, 2.040234
937.0059, 2.501930
937.4880, 2.507805
937.9701, 2.336758
938.4522, 2.052444
938.9343, 1.742039
939.4164, 1.527569
939.8986, 1.395531
940.3807, 1.065468
940.8628, 9.6638002E-02
941.3449, 0.1789130
941.8270, 1.073128
942.3091, 2.208500
942.7913, 2.193325
943.2734, 1.586082
943.7555, 1.272285
944.2376, 1.347790
944.7197, 1.368484
945.2018, 1.111893
945.6840, 0.9708820
946.1661, 1.266087
946.6482, 1.598095
947.1303, 1.529884
947.6124, 1.172836
948.0945, 0.9342800
948.5767, 0.9401700
949.0588, 1.130463
949.5409, 1.537434
950.0230, 2.050632
950.5051, 2.777088
950.9872, 3.451534
951.4694, 3.514568
951.9515, 2.936760
952.4336, 2.261829
952.9157, 1.857368
953.3978, 1.561237
953.8799, 1.021671
954.3621, 0.4292830
954.8442, 0.4117550
955.3263, 0.9222560
955.8084, 1.358173
956.2905, 1.480518
956.7726, 1.280643
957.2548, 0.6222920
957.7369, 0.2681730
958.2190, 0.2590750
958.7011, 0.7101750
959.1832, 1.293026
959.6653, 1.244469
960.1475, 1.009163
960.6296, 0.7525020
961.1117, 0.6475370
961.5938, 1.064449
962.0759, 2.085155
962.5580, 2.866180
963.0402, 3.538868
963.5223, 3.654179
964.0044, 2.651676
964.4865, 1.611122
964.9686, 1.390923
965.4507, 1.794319
965.9329, 2.252563
966.4150, 2.907135
966.8971, 3.232048
967.3792, 2.779663
967.8613, 2.495125
968.3434, 3.143688
968.8256, 3.790939
969.3077, 3.389278
969.7898, 2.098320
970.2719, 1.096390
970.7540, 0.7596470
971.2361, 0.6202050
971.7183, 0.2292100
972.2004, 0.2181210
972.6825, 1.602203
973.1646, 3.434273
973.6467, 4.028221
974.1288, 3.195637
974.6110, 2.352551
975.0931, 2.449188
975.5752, 2.658875
976.0573, 2.125076
976.5394, 1.193520
977.0215, 0.4689670
977.5037, 0.1176640
977.9858, 0.1809230
978.4679, 0.4969710
978.9500, 0.6552620
979.4321, 0.4404220
979.9142, 3.0860000E-03
980.3964, 0.4194830
980.8785, 0.8119390
981.3606, 1.212765
981.8427, 1.615879
982.3248, 1.911587
982.8069, 2.038734
983.2891, 2.105137
983.7712, 2.122448
984.2533, 2.141174
984.7354, 2.371220
985.2175, 2.835304
985.6996, 2.886093
986.1818, 2.332920
986.6639, 1.692123
987.1460, 1.320217
987.6281, 1.120136
988.1102, 0.8575970
988.5923, 0.5464820
989.0745, 0.2509270
989.5566, 0.1941150
990.0387, 7.7395998E-02
990.5208, 1.125374
991.0029, 2.380573
991.4850, 2.791641
991.9672, 2.514183
992.4493, 2.134937
992.9314, 1.600693
993.4135, 1.087963
993.8956, 0.3159410
994.3777, 5.1013999E-02
994.8599, 0.4925770
995.3420, 1.299973
995.8241, 1.889324
996.3062, 2.231205
996.7883, 2.220776
997.2704, 1.351563
997.7526, 1.021820
998.2347, 2.145874
998.7168, 3.027142
999.1989, 2.584789
999.6810, 1.588184
1000.163, 0.8873060
1000.645, 0.5562590
1001.127, 0.3209380
1001.609, 0.1541330
1002.092, 0.1391790
1002.574, 1.248066
1003.056, 2.672119
1003.538, 2.920265
1004.020, 2.520115
1004.502, 2.595432
1004.984, 3.268890
1005.466, 3.441589
1005.949, 2.063957
1006.431, 0.6612430
1006.913, 0.3577120
1007.395, 0.6414790
1007.877, 1.164566
1008.359, 1.702251
1008.841, 1.866112
1009.323, 1.565849
1009.805, 1.167450
1010.288, 0.8064190
1010.770, 0.6713680
1011.252, 1.249100
1011.734, 2.102509
1012.216, 2.447262
1012.698, 2.262280
1013.180, 1.723003
1013.662, 0.9387280
1014.145, 0.5140110
1014.627, 1.377167
1015.109, 2.747421
1015.591, 2.822166
1016.073, 2.058720
1016.555, 2.206318
1017.037, 3.282406
1017.519, 3.712776
1018.001, 2.686211
1018.484, 1.243019
1018.966, 0.6865770
1019.448, 0.8472440
1019.930, 1.345352
1020.412, 2.086723
1020.894, 2.071507
1021.376, 1.142628
1021.858, 0.3311420
1022.341, 0.2152020
1022.823, 0.6438290
1023.305, 1.566978
1023.787, 2.863411
1024.269, 3.167995
1024.751, 2.433453
1025.233, 1.737732
1025.715, 1.271347
1026.198, 1.011990
1026.680, 0.9499660
1027.162, 1.088253
1027.644, 1.547886
1028.126, 2.354195
1028.608, 2.155888
1029.090, 0.6117860
1029.572, 0.2603070
1030.054, 0.1013760
1030.536, 0.8584440
1031.019, 1.565685
1031.501, 2.109280
1031.983, 2.216919
1032.465, 1.821766
1032.947, 1.489861
1033.429, 1.181709
1033.911, 1.045368
1034.393, 1.168659
1034.876, 1.380825
1035.358, 1.621376
1035.840, 1.804058
1036.322, 1.702209
1036.804, 1.181179
1037.286, 1.121948
1037.768, 1.846771
1038.250, 2.487717
1038.733, 3.210403
1039.215, 3.415035
1039.697, 2.163521
1040.179, 0.2121430
1040.661, 0.5897030
1041.143, 7.3467001E-02
1041.625, 0.7033960
1042.107, 1.486408
1042.589, 1.979023
1043.072, 1.945301
1043.554, 1.738136
1044.036, 1.493855
1044.518, 1.280457
1045.000, 1.293636
1045.482, 1.645073
1045.964, 1.793324
1046.446, 1.492645
1046.928, 1.268036
1047.411, 1.200153
1047.893, 1.296101
1048.375, 1.690510
1048.857, 2.199497
1049.339, 2.422794
1049.821, 2.301235
1050.303, 2.011242
1050.785, 1.188793
1051.268, 0.7168460
1051.750, 1.115940
1052.232, 1.748409
1052.714, 2.299133
1053.196, 2.651970
1053.678, 2.598473
1054.160, 2.052105
1054.642, 1.492607
1055.125, 0.6870690
1055.607, 0.3354720
1056.089, 0.9192540
1056.571, 1.861629
1057.053, 3.007145
1057.535, 4.046188
1058.017, 4.369553
1058.499, 3.810955
1058.981, 3.190639
1059.464, 2.733116
1059.946, 2.320087
1060.428, 1.642181
1060.910, 1.101028
1061.392, 1.213287
1061.874, 1.742218
1062.356, 2.140991
1062.838, 2.296730
1063.320, 2.522755
1063.803, 3.236820
1064.285, 3.649025
1064.767, 3.068378
1065.249, 2.344196
1065.731, 2.245255
1066.213, 2.547905
1066.695, 2.808701
1067.177, 2.979435
1067.660, 2.698429
1068.142, 1.292892
1068.624, 0.2577130
1069.106, 0.6322670
1069.588, 1.351112
1070.070, 1.626415
1070.552, 1.542770
1071.034, 1.364906
1071.516, 1.159904
1071.999, 0.8666920
1072.481, 0.2163240
1072.963, 0.2061230
1073.445, 0.1208270
1073.927, 0.5675740
1074.409, 0.3526120
1074.891, 4.3976001E-02
1075.373, 0.2871630
1075.855, 1.409386
1076.338, 2.398201
1076.820, 3.153961
1077.302, 3.258354
1077.784, 1.838970
1078.266, 0.3574370
1078.748, 6.1836001E-02
1079.230, 0.4157450
1079.712, 0.5438120
1080.195, 0.3416440
1080.677, 0.1506350
1081.159, 8.4995002E-02
1081.641, 0.1096040
1082.123, 1.689125
1082.605, 3.018951
1083.087, 2.490665
1083.569, 1.225780
1084.052, 0.7744600
1084.534, 1.191730
1085.016, 1.608322
1085.498, 1.736141
1085.980, 1.820480
1086.462, 1.967323
1086.944, 2.108730
1087.426, 2.177940
1087.908, 2.237106
1088.391, 2.347446
1088.873, 2.473564
1089.355, 2.474094
1089.837, 2.280327
1090.319, 2.060745
1090.801, 1.773773
1091.283, 1.619362
1091.765, 1.941547
1092.248, 2.266735
1092.730, 1.894176
1093.212, 1.142536
1093.694, 1.089901
1094.176, 2.136185
1094.658, 2.617702
1095.140, 1.406891
1095.622, 0.1918530
1096.104, 0.5620770
1096.587, 0.7303890
1097.069, 0.1912840
1097.551, 1.620056
1098.033, 2.427490
1098.515, 2.374264
1098.997, 2.025196
1099.479, 0.9844820
1099.961, 0.3304600
1100.443, 0.6259380
1100.926, 1.229263
1101.408, 1.959160
1101.890, 2.554817
1102.372, 2.553543
1102.854, 1.945393
1103.336, 1.496483
1103.818, 1.421211
1104.300, 1.454090
1104.783, 1.520203
1105.265, 1.699699
1105.747, 2.359566
1106.229, 2.947174
1106.711, 2.625683
1107.193, 1.502190
1107.675, 0.6650350
1108.157, 0.2167850
1108.640, 0.1189000
1109.122, 0.6114620
1109.604, 1.149334
1110.086, 1.621372
1110.568, 1.960682
1111.050, 2.073540
1111.532, 1.994637
1112.014, 1.923405
1112.496, 1.912861
1112.979, 1.787521
1113.461, 1.271019
1113.943, 1.009907
1114.425, 1.384102
1114.907, 1.837727
1115.389, 2.141491
1115.871, 2.186810
1116.353, 1.605465
1116.835, 0.1812480
1117.318, 0.5870740
1117.800, 0.6060100
1118.282, 0.1073380
1118.764, 1.363079
1119.246, 2.611908
1119.728, 2.986950
1120.210, 2.745399
1120.692, 2.178669
1121.175, 1.296749
1121.657, 0.7017520
1122.139, 0.4029460
1122.621, 0.4146960
1123.103, 1.009548
1123.585, 1.175224
1124.067, 0.1464200
1124.549, 0.7949710
1125.031, 2.2846000E-02
1125.514, 1.950584
1125.996, 2.644756
1126.478, 1.802799
1126.960, 0.9489940
1127.442, 4.8096001E-02
1127.924, 0.1491010
1128.406, 1.168243
1128.888, 2.682575
1129.370, 3.539993
1129.853, 3.654816
1130.335, 2.464001
1130.817, 4.1106999E-02
1131.299, 0.3523520
1131.781, 1.649261
1132.263, 2.896339
1132.745, 2.749443
1133.227, 2.280846
1133.710, 2.092136
1134.192, 1.962856
1134.674, 1.502930
1135.156, 0.8824540
1135.638, 0.9253580
1136.120, 1.521072
1136.602, 1.710220
1137.084, 1.443165
1137.567, 1.573143
1138.049, 2.419327
1138.531, 3.092525
1139.013, 2.665092
1139.495, 1.714176
1139.977, 1.314926
1140.459, 1.295609
1140.941, 1.149891
1141.423, 0.9110640
1141.906, 0.8467940
1142.388, 1.011063
1142.870, 1.290436
1143.352, 1.644367
1143.834, 1.882133
1144.316, 1.717442
1144.798, 1.341202
1145.280, 0.9935650
1145.762, 0.6806220
1146.245, 0.3065380
1146.727, 4.4498000E-02
1147.209, 4.6523999E-02
1147.691, 0.4248390
1148.173, 1.027580
1148.655, 1.770515
1149.137, 2.239037
1149.619, 1.572414
1150.102, 0.8284570
1150.584, 1.563427
1151.066, 3.086742
1151.548, 3.911995
1152.030, 3.737946
1152.512, 2.993267
1152.994, 1.451481
1153.476, 0.2387470
1153.958, 2.9324001E-02
1154.441, 0.1280210
1154.923, 0.7542110
1155.405, 1.354328
1155.887, 1.204632
1156.369, 0.5609820
1156.851, 0.5952950
1157.333, 1.838799
1157.815, 2.534828
1158.297, 1.870441
1158.780, 1.192665
1159.262, 0.8227840
1159.744, 0.6917300
1160.226, 0.8922230
1160.708, 1.231632
1161.190, 1.370903
1161.672, 1.300266
1162.154, 1.109653
1162.637, 0.4849010
1163.119, 0.3584820
1163.601, 1.072990
1164.083, 1.831085
1164.565, 2.475033
1165.047, 2.755325
1165.529, 2.214962
1166.011, 1.188633
1166.494, 1.201588
1166.976, 2.707603
1167.458, 2.747845
1167.940, 0.8645320
1168.422, 0.1162030
1168.904, 0.6304860
1169.386, 1.581013
1169.868, 1.705296
1170.350, 1.541908
1170.833, 2.048016
1171.315, 3.045940
1171.797, 3.521683
1172.279, 3.488720
1172.761, 3.019329
1173.243, 2.160194
1173.725, 1.219479
1174.207, 0.3334470
1174.689, 4.9045999E-02
1175.172, 0.9619670
1175.654, 2.346291
1176.136, 3.007977
1176.618, 3.111866
1177.100, 2.957088
1177.582, 2.639214
1178.064, 2.324173
1178.546, 2.041409
1179.029, 1.906803
1179.511, 2.037563
1179.993, 2.073177
1180.475, 1.241070
1180.957, 0.6279530
1181.439, 1.939877
1181.921, 3.625973
1182.403, 3.398891
1182.885, 2.044754
1183.368, 1.435932
1183.850, 1.916256
1184.332, 2.193470
1184.814, 1.272976
1185.296, 0.9039460
1185.778, 2.569706
1186.260, 4.128147
1186.742, 4.105011
1187.225, 3.404785
1187.707, 2.858540
1188.189, 2.564205
1188.671, 2.662991
1189.153, 3.417946
1189.635, 3.547886
1190.117, 2.316151
1190.599, 1.384296
1191.082, 1.005383
1191.564, 0.9719430
1192.046, 1.243713
1192.528, 1.730171
1193.010, 2.385273
1193.492, 3.165836
1193.974, 3.599476
1194.456, 3.647011
1194.938, 3.071793
1195.421, 1.643093
1195.903, 0.9871560
1196.385, 1.709377
1196.867, 2.451866
1197.349, 2.170269
1197.831, 1.504368
1198.313, 1.680187
1198.795, 2.489445
1199.277, 2.884029
1199.760, 2.966457
1200.242, 3.465305
1200.724, 4.298885
1201.206, 4.266682
1201.688, 2.982048
1202.170, 1.536343
1202.652, 0.7208560
1203.134, 0.4691700
1203.617, 1.009106
1204.099, 1.815739
1204.581, 2.277828
1205.063, 2.356636
1205.545, 1.862717
1206.027, 1.000813
1206.509, 0.4758190
1206.991, 0.5546720
1207.474, 0.8181040
1207.956, 1.290630
1208.438, 1.570614
1208.920, 1.348343
1209.402, 0.9528660
1209.884, 0.3419380
1210.366, 9.5539004E-02
1210.848, 0.5130350
1211.330, 2.025845
1211.813, 2.542564
1212.295, 0.9784660
1212.777, 0.2411310
1213.259, 1.112175
1213.741, 1.635841
1214.223, 1.104809
1214.705, 0.4307140
1215.187, 0.1950070
1215.669, 0.2742540
1216.152, 0.4640390
1216.634, 0.7560010
1217.116, 1.103695
1217.598, 1.548412
1218.080, 1.376976
1218.562, 0.4729420
1219.044, 2.3991000E-02
1219.526, 0.4537930
1220.009, 1.246456
1220.491, 2.060879
1220.973, 2.606403
1221.455, 2.056431
1221.937, 0.9547350
1222.419, 0.8323710
1222.901, 1.310463
1223.383, 1.270470
1223.865, 0.7302090
1224.348, 0.3117560
1224.830, 0.2411230
1225.312, 0.3949050
1225.794, 0.7816470
1226.276, 1.188774
1226.758, 1.424393
1227.240, 1.641232
1227.722, 1.987995
1228.204, 2.382263
1228.687, 2.860683
1229.169, 3.265842
1229.651, 3.039932
1230.133, 1.899734
1230.615, 1.215675
1231.097, 1.583836
1231.579, 1.901913
1232.061, 1.844116
1232.544, 1.853878
1233.026, 2.358936
1233.508, 2.757038
1233.990, 2.299263
1234.472, 1.196751
1234.954, 0.2599600
1235.436, 0.5862390
1235.918, 0.7236900
1236.401, 0.1289180
1236.883, 1.139721
1237.365, 3.126572
1237.847, 4.253300
1238.329, 3.651951
1238.811, 2.378315
1239.293, 1.484169
1239.775, 1.045361
1240.257, 1.586231
1240.740, 2.532845
1241.222, 2.240551
1241.704, 1.234890
1242.186, 1.351780
1242.668, 2.623310
1243.150, 3.466454
1243.632, 3.183868
1244.114, 2.568241
1244.596, 1.831135
1245.079, 1.327423
1245.561, 1.244415
1246.043, 1.473949
1246.525, 2.353325
1247.007, 3.215893
1247.489, 2.887424
1247.971, 1.518654
1248.453, 0.7542760
1248.936, 1.055168
1249.418, 1.230835
1249.900, 1.337372
1250.382, 1.087372
1250.864, 6.6791996E-02
1251.346, 0.3894230
1251.828, 1.545769
1252.310, 3.716373
1252.792, 3.228306
1253.275, 0.9039800
1253.757, 0.2606010
1254.239, 1.142326
1254.721, 1.552490
1255.203, 1.477577
1255.685, 1.714672
1256.167, 2.383759
1256.649, 2.869450
1257.131, 2.599365
1257.614, 2.349354
1258.096, 2.165707
1258.578, 2.043961
1259.060, 1.950760
1259.542, 2.008347
1260.024, 2.562809
1260.506, 3.278111
1260.988, 3.500534
1261.471, 3.283260
1261.953, 3.321163
1262.435, 3.948956
1262.917, 4.103683
1263.399, 2.684738
1263.881, 1.966637
1264.363, 3.355446
1264.845, 4.384888
1265.328, 4.336140
1265.810, 3.676083
1266.292, 3.132290
1266.774, 2.682487
1267.256, 1.987320
1267.738, 0.9973370
1268.220, 0.3404810
1268.702, 7.3930002E-03
1269.184, 0.2285800
1269.667, 1.024063
1270.149, 1.603432
1270.631, 1.609829
1271.113, 1.717777
1271.595, 2.816406
1272.077, 3.781376
1272.559, 2.260384
1273.041, 3.8291998E-02
1273.523, 1.9084999E-02
1274.006, 1.189701
1274.488, 1.436867
1274.970, 0.7729990
1275.452, 0.2247580
1275.934, 1.2730000E-02
1276.416, 9.1151997E-02
1276.898, 0.8021160
1277.380, 0.8387370
1277.863, 0.0000000E+00
##END=



