##NAMES=Gladiusite
##RRUFFID=R070432
##IDEAL CHEMISTRY=Fe^3+^_2_Fe^2+^_4_PO_4_(OH)_11_&#183;H_2_O
##LOCALITY=Kovdor mine, Kovdor Massif, Kola Peninsula, Murmanskaja Oblast', Northern Region, Russia
##OWNER=RRUFF
##SOURCE=Michael Scott
##DESCRIPTION=Bundles of olive green fibers on dolomite matrix
##STATUS=The identification of this mineral is not yet confirmed.
##URL=rruff.info/R070432
176.4392, 0.0000000E+00
176.9214, 1.277924
177.4035, 6.982361
177.8856, 12.44693
178.3677, 16.00961
178.8498, 17.37469
179.3319, 15.60205
179.8141, 8.744019
180.2962, 2.319550
180.7783, 5.743439
181.2604, 17.07159
181.7425, 26.96307
182.2246, 26.45795
182.7068, 16.43356
183.1889, 11.71603
183.6710, 16.67889
184.1531, 25.20258
184.6352, 27.54633
185.1173, 23.93710
185.5995, 18.06494
186.0816, 11.29376
186.5637, 4.307861
187.0458, 0.4223940
187.5279, 1.891754
188.0100, 0.9610290
188.4922, 1.689789
188.9743, 4.246094
189.4564, 7.084259
189.9385, 10.80548
190.4206, 15.14865
190.9027, 18.70102
191.3849, 19.33649
191.8670, 18.10715
192.3491, 16.14276
192.8312, 13.20279
193.3133, 10.64337
193.7955, 10.60541
194.2776, 12.98962
194.7597, 14.79462
195.2418, 14.66092
195.7239, 12.83984
196.2060, 11.10623
196.6882, 9.301025
197.1703, 8.086517
197.6524, 9.642609
198.1345, 14.31485
198.6166, 16.95581
199.0987, 13.74258
199.5809, 4.667419
200.0630, 0.7350770
200.5451, 2.010712
201.0272, 0.3818970
201.5093, 2.581696
201.9914, 7.314850
202.4736, 11.09723
202.9557, 12.48535
203.4378, 11.34760
203.9199, 8.743378
204.4020, 3.251495
204.8841, 2.415894
205.3663, 0.4634090
205.8484, 14.93915
206.3305, 27.66553
206.8126, 28.50577
207.2947, 14.69040
207.7768, 7.455292
208.2590, 11.26801
208.7411, 22.00366
209.2232, 23.98080
209.7053, 13.76321
210.1874, 2.986084
210.6695, 8.7921001E-02
211.1517, 7.091858
211.6338, 13.54840
212.1159, 18.82495
212.5980, 22.56360
213.0801, 22.05334
213.5622, 15.65244
214.0444, 8.089905
214.5265, 3.246948
215.0086, 1.741821
215.4907, 0.8518980
215.9728, 0.1895450
216.4549, 0.2334900
216.9371, 0.3280330
217.4192, 0.2973940
217.9013, 0.3591310
218.3834, 2.588806
218.8655, 7.662781
219.3476, 10.71524
219.8298, 9.835602
220.3119, 4.972504
220.7940, 3.410645
221.2761, 7.202942
221.7582, 11.93954
222.2403, 12.23148
222.7225, 5.331879
223.2046, 0.2551570
223.6867, 0.8011780
224.1688, 2.390472
224.6509, 7.666901
225.1330, 17.84650
225.6152, 27.53833
226.0973, 28.63351
226.5794, 15.98651
227.0615, 5.294189
227.5436, 1.079956
228.0257, 4.277130
228.5079, 8.589478
228.9900, 15.77823
229.4721, 22.79614
229.9542, 24.62769
230.4363, 17.80240
230.9185, 12.16431
231.4006, 11.39450
231.8827, 17.43665
232.3648, 19.77066
232.8469, 15.48965
233.3290, 9.228058
233.8112, 10.12070
234.2933, 25.10886
234.7754, 35.60480
235.2575, 33.18399
235.7396, 10.59164
236.2217, 1.016663
236.7039, 2.675812
237.1860, 15.34036
237.6681, 24.43835
238.1502, 28.79636
238.6323, 31.66141
239.1144, 34.33994
239.5966, 37.50092
240.0787, 37.43835
240.5608, 31.23242
241.0429, 23.12256
241.5250, 23.56821
242.0071, 39.61694
242.4893, 53.55231
242.9714, 57.10886
243.4535, 44.21301
243.9356, 35.33896
244.4177, 31.54636
244.8998, 31.41281
245.3820, 32.09784
245.8641, 35.72467
246.3462, 37.73944
246.8283, 34.74060
247.3104, 21.04614
247.7925, 14.50037
248.2747, 18.68332
248.7568, 29.80310
249.2389, 36.99863
249.7210, 38.15262
250.2031, 38.22180
250.6852, 39.85956
251.1674, 45.01376
251.6495, 46.82291
252.1316, 43.65738
252.6137, 37.26129
253.0958, 26.73480
253.5779, 34.81195
254.0601, 39.47131
254.5422, 40.89587
255.0243, 29.39859
255.5064, 34.58746
255.9885, 33.08942
256.4706, 31.31787
256.9528, 38.85736
257.4349, 29.24182
257.9170, 36.56607
258.3991, 37.02344
258.8812, 40.69217
259.3633, 37.67404
259.8455, 36.73425
260.3276, 42.52655
260.8097, 44.59283
261.2918, 40.80258
261.7739, 44.71271
262.2560, 34.86505
262.7382, 36.93533
263.2203, 44.36411
263.7024, 40.91306
264.1845, 44.94830
264.6666, 46.13651
265.1487, 34.37491
265.6309, 40.99655
266.1130, 44.51816
266.5951, 52.00745
267.0772, 53.44415
267.5593, 44.95349
268.0414, 31.02536
268.5236, 28.86356
269.0057, 43.46185
269.4878, 57.76538
269.9699, 59.73114
270.4520, 45.35040
270.9341, 37.36951
271.4163, 39.47528
271.8984, 48.26776
272.3805, 53.43195
272.8626, 54.42761
273.3447, 53.51807
273.8268, 51.73785
274.3090, 48.93677
274.7911, 46.39944
275.2732, 44.50418
275.7553, 42.81061
276.2374, 40.23041
276.7195, 36.78970
277.2017, 32.25964
277.6838, 25.01291
278.1659, 14.43259
278.6480, 9.232147
279.1301, 11.27115
279.6122, 18.07416
280.0944, 25.19775
280.5765, 33.27939
281.0586, 37.75122
281.5407, 32.65115
282.0229, 18.04770
282.5050, 11.77161
282.9871, 17.22015
283.4692, 29.14694
283.9513, 37.08566
284.4334, 41.01718
284.9156, 41.18207
285.3977, 35.54346
285.8798, 24.74866
286.3619, 18.03415
286.8440, 17.24878
287.3261, 19.08328
287.8083, 15.92099
288.2904, 7.689819
288.7725, 2.271027
289.2546, 7.587585
289.7367, 21.09122
290.2188, 27.39523
290.7010, 23.65646
291.1831, 15.87436
291.6652, 14.82291
292.1473, 19.94235
292.6294, 23.51428
293.1115, 19.38275
293.5937, 9.933685
294.0758, 3.575592
294.5579, 1.441101
295.0400, 1.295410
295.5221, 9.5398001E-02
296.0042, 2.401093
296.4864, 3.599121
296.9685, 2.426178
297.4506, 0.6260680
297.9327, 4.620148
298.4148, 9.682434
298.8969, 14.95554
299.3791, 21.06192
299.8612, 26.95630
300.3433, 28.71368
300.8254, 20.06320
301.3075, 7.127319
301.7896, 0.9137270
302.2718, 2.788452
302.7539, 6.180847
303.2360, 3.382874
303.7181, 3.093231
304.2002, 7.194000
304.6823, 3.345947
305.1645, 3.244843
305.6466, 5.264679
306.1287, 1.925323
306.6108, 0.1529240
307.0929, 7.923584
307.5750, 20.81488
308.0572, 29.06342
308.5393, 23.45300
309.0214, 14.62787
309.5035, 12.11407
309.9856, 16.54865
310.4677, 21.36868
310.9499, 21.88751
311.4320, 20.18051
311.9141, 19.16656
312.3962, 21.25412
312.8783, 23.38864
313.3604, 23.66931
313.8426, 22.18774
314.3247, 19.85583
314.8068, 14.13983
315.2889, 8.672852
315.7710, 6.944214
316.2531, 14.78375
316.7353, 22.38269
317.2174, 24.83447
317.6995, 22.90057
318.1816, 20.43097
318.6637, 18.69849
319.1458, 17.78998
319.6280, 17.70709
320.1101, 19.11487
320.5922, 20.67285
321.0743, 22.28650
321.5564, 24.08539
322.0385, 25.95032
322.5207, 28.04401
323.0028, 29.59894
323.4849, 29.81091
323.9670, 25.72784
324.4491, 24.46967
324.9312, 29.48474
325.4134, 38.66144
325.8955, 44.99341
326.3776, 47.30310
326.8597, 47.92041
327.3418, 47.85754
327.8239, 48.03040
328.3061, 46.28308
328.7882, 40.23645
329.2703, 32.64825
329.7524, 28.78052
330.2345, 31.98883
330.7166, 35.49963
331.1988, 36.82190
331.6809, 35.40271
332.1630, 32.87189
332.6451, 27.70361
333.1272, 21.96423
333.6093, 19.77863
334.0915, 23.74255
334.5736, 27.72400
335.0557, 29.46051
335.5378, 28.66931
336.0199, 29.02362
336.5020, 31.83789
336.9842, 34.53693
337.4663, 33.20081
337.9484, 26.44427
338.4305, 19.22211
338.9126, 11.71185
339.3947, 3.924622
339.8769, 3.078247
340.3590, 11.80640
340.8411, 22.11121
341.3232, 23.46204
341.8053, 14.10101
342.2874, 9.698120
342.7696, 16.70630
343.2517, 32.06744
343.7338, 37.92651
344.2159, 32.96301
344.6980, 26.03870
345.1801, 26.19525
345.6623, 32.80719
346.1444, 36.41315
346.6265, 33.95239
347.1086, 28.22430
347.5907, 25.06793
348.0728, 24.52600
348.5550, 26.26117
349.0371, 32.97418
349.5192, 42.17511
350.0013, 44.87616
350.4834, 37.38593
350.9655, 27.03223
351.4477, 25.63635
351.9298, 31.49402
352.4119, 36.24933
352.8940, 33.26050
353.3762, 26.24597
353.8583, 21.93188
354.3404, 12.01288
354.8225, 23.98560
355.3046, 30.48254
355.7867, 31.67499
356.2689, 11.47461
356.7510, 18.89642
357.2331, 15.24719
357.7152, 11.14313
358.1973, 22.45007
358.6794, 5.356506
359.1616, 16.41699
359.6437, 16.19177
360.1258, 21.14856
360.6079, 14.97284
361.0900, 12.23419
361.5721, 20.35248
362.0543, 22.04242
362.5364, 14.27777
363.0185, 19.56012
363.5006, 15.58252
363.9827, 19.89734
364.4648, 15.49127
364.9470, 10.40234
365.4291, 5.565063
365.9112, 1.304077
366.3933, 0.6287840
366.8754, 2.569824
367.3575, 6.544067
367.8397, 8.778198
368.3218, 6.033813
368.8039, 5.287903
369.2860, 9.681946
369.7681, 16.65192
370.2502, 18.49091
370.7324, 9.081177
371.2145, 0.6539310
371.6966, 1.790405
372.1787, 4.781128
372.6608, 9.902832
373.1429, 14.31873
373.6251, 16.86536
374.1072, 14.55206
374.5893, 2.712280
375.0714, 4.373230
375.5535, 0.3211670
376.0356, 18.13458
376.5178, 26.12714
376.9999, 21.64313
377.4820, 11.74213
377.9641, 4.307312
378.4462, 0.3396000
378.9283, 5.199951
379.4105, 12.25122
379.8926, 19.97827
380.3747, 19.64478
380.8568, 9.955627
381.3389, 0.1928100
381.8210, 1.056030
382.3032, 10.66296
382.7853, 12.73193
383.2674, 2.330688
383.7495, 14.38464
384.2316, 28.57776
384.7137, 39.95978
385.1959, 43.51599
385.6780, 28.69904
386.1601, 4.620178
386.6422, 8.375000
387.1243, 6.474915
387.6064, 1.273132
388.0886, 7.240662
388.5707, 11.65362
389.0528, 14.92523
389.5349, 19.11029
390.0170, 21.20355
390.4991, 16.14758
390.9813, 3.089294
391.4634, 7.487610
391.9455, 6.628052
392.4276, 9.9609002E-02
392.9097, 5.623840
393.3918, 5.994263
393.8740, 5.851563
394.3561, 6.165161
394.8382, 7.268738
395.3203, 11.80957
395.8024, 26.93732
396.2845, 42.06750
396.7667, 49.85260
397.2488, 44.22217
397.7309, 36.89075
398.2130, 28.19366
398.6951, 18.99939
399.1772, 12.59180
399.6594, 8.542542
400.1415, 8.127441
400.6236, 12.31750
401.1057, 23.73004
401.5878, 33.56665
402.0699, 41.76746
402.5521, 48.42139
403.0342, 53.79706
403.5163, 58.69086
403.9984, 60.81610
404.4805, 59.01892
404.9626, 53.24609
405.4448, 47.05890
405.9269, 38.76355
406.4090, 33.16632
406.8911, 36.85205
407.3732, 51.80359
407.8553, 62.42883
408.3375, 64.41272
408.8196, 60.99402
409.3017, 63.09705
409.7838, 71.33472
410.2659, 78.21088
410.7480, 75.92017
411.2302, 66.85284
411.7123, 64.11029
412.1944, 70.71161
412.6765, 79.42975
413.1586, 79.69702
413.6407, 73.13165
414.1229, 66.88623
414.6050, 63.80212
415.0871, 63.46387
415.5692, 65.36133
416.0513, 69.49689
416.5334, 75.58942
417.0156, 86.10620
417.4977, 97.99384
417.9798, 106.5651
418.4619, 108.3528
418.9440, 107.9388
419.4261, 106.5886
419.9083, 104.8752
420.3904, 106.0306
420.8725, 117.7673
421.3546, 129.0734
421.8367, 131.0807
422.3188, 114.3718
422.8010, 101.9658
423.2831, 100.0261
423.7652, 106.1567
424.2473, 115.1453
424.7295, 135.0031
425.2116, 150.0457
425.6937, 153.4043
426.1758, 140.6245
426.6579, 133.3885
427.1400, 134.6528
427.6222, 139.4489
428.1043, 142.9358
428.5864, 145.0415
429.0685, 145.6945
429.5506, 143.7100
430.0327, 140.2331
430.5149, 141.4246
430.9970, 148.8910
431.4791, 157.2017
431.9612, 163.1167
432.4433, 166.6976
432.9254, 166.0134
433.4076, 159.6049
433.8897, 152.5371
434.3718, 157.9185
434.8539, 175.2582
435.3360, 187.3400
435.8181, 181.5477
436.3003, 163.9822
436.7824, 150.4430
437.2645, 141.1039
437.7466, 135.9200
438.2287, 137.9176
438.7108, 145.1194
439.1930, 152.0943
439.6751, 158.3177
440.1572, 160.3517
440.6393, 153.0938
441.1214, 139.1466
441.6035, 127.1243
442.0857, 120.2309
442.5678, 118.4152
443.0499, 122.8806
443.5320, 137.4487
444.0141, 149.2081
444.4962, 153.7902
444.9784, 152.1617
445.4605, 145.1769
445.9426, 124.5565
446.4247, 105.7290
446.9068, 93.26855
447.3889, 87.78046
447.8711, 86.94598
448.3532, 95.69342
448.8353, 105.7707
449.3174, 110.8643
449.7995, 110.4155
450.2816, 107.1192
450.7638, 99.33875
451.2459, 88.57465
451.7280, 81.39441
452.2101, 79.41699
452.6922, 77.20630
453.1743, 70.85229
453.6565, 59.54022
454.1386, 54.05884
454.6207, 56.45679
455.1028, 60.38177
455.5849, 54.73328
456.0670, 40.28217
456.5492, 30.23877
457.0313, 31.15240
457.5134, 38.80579
457.9955, 43.83118
458.4776, 46.30493
458.9597, 47.09070
459.4419, 47.40430
459.9240, 46.40778
460.4061, 41.55231
460.8882, 29.90546
461.3703, 20.13428
461.8524, 22.61499
462.3346, 32.94531
462.8167, 40.86584
463.2988, 42.73083
463.7809, 39.62866
464.2630, 28.83075
464.7451, 8.975098
465.2273, 3.643738
465.7094, 3.478882
466.1915, 17.14197
466.6736, 25.56976
467.1557, 18.11353
467.6378, 14.84521
468.1200, 23.00934
468.6021, 39.07086
469.0842, 46.58643
469.5663, 39.35083
470.0484, 30.79498
470.5305, 25.75269
471.0127, 23.57800
471.4948, 28.81445
471.9769, 46.44910
472.4590, 65.34558
472.9411, 68.60931
473.4232, 53.96405
473.9054, 38.18817
474.3875, 24.71637
474.8696, 13.99805
475.3517, 8.616943
475.8338, 8.679321
476.3159, 11.35205
476.7981, 15.61273
477.2802, 20.81659
477.7623, 25.08630
478.2444, 28.22748
478.7265, 30.14203
479.2086, 30.07147
479.6908, 28.61786
480.1729, 27.28302
480.6550, 26.39038
481.1371, 26.19519
481.6192, 27.57098
482.1013, 30.44519
482.5835, 32.23120
483.0656, 31.03857
483.5477, 28.71429
484.0298, 26.33478
484.5119, 22.40259
484.9940, 20.37390
485.4762, 21.35059
485.9583, 24.71985
486.4404, 28.91046
486.9225, 35.90802
487.4046, 41.61682
487.8867, 44.92120
488.3689, 45.61371
488.8510, 44.82617
489.3331, 41.10901
489.8152, 37.64410
490.2973, 37.50220
490.7794, 41.01465
491.2616, 46.99420
491.7437, 56.66235
492.2258, 67.57764
492.7079, 71.02374
493.1900, 66.48151
493.6722, 64.22815
494.1543, 74.61548
494.6364, 92.46906
495.1185, 97.97156
495.6006, 88.91779
496.0828, 78.21167
496.5649, 80.15558
497.0470, 89.73700
497.5291, 98.14343
498.0112, 102.8200
498.4933, 104.6541
498.9755, 102.5190
499.4576, 97.62061
499.9397, 94.66412
500.4218, 96.04382
500.9039, 99.93073
501.3860, 105.7312
501.8682, 113.6042
502.3503, 122.7360
502.8324, 136.0550
503.3145, 148.5619
503.7966, 154.7159
504.2787, 148.4447
504.7609, 144.0386
505.2430, 143.3528
505.7251, 146.1230
506.2072, 151.2996
506.6893, 160.3806
507.1714, 168.5207
507.6536, 173.6525
508.1357, 175.6414
508.6178, 175.4023
509.0999, 172.5157
509.5820, 168.3984
510.0641, 164.6154
510.5463, 161.1894
511.0284, 158.5804
511.5105, 156.8557
511.9926, 156.0541
512.4747, 157.5438
512.9568, 160.6581
513.4390, 162.0390
513.9211, 158.4933
514.4032, 152.3607
514.8853, 145.0300
515.3674, 134.9816
515.8495, 131.1889
516.3317, 147.4623
516.8138, 171.2586
517.2959, 185.0739
517.7780, 175.6151
518.2601, 162.4587
518.7422, 150.5561
519.2244, 140.0773
519.7065, 132.4119
520.1886, 124.4865
520.6707, 120.1295
521.1528, 123.0115
521.6349, 141.0637
522.1171, 146.8499
522.5992, 134.8335
523.0813, 116.0279
523.5634, 106.1240
524.0455, 107.5437
524.5276, 104.9284
525.0098, 91.36017
525.4919, 72.71204
525.9740, 71.99182
526.4561, 89.35681
526.9382, 105.4764
527.4203, 105.1666
527.9025, 93.91058
528.3846, 86.49426
528.8667, 83.64917
529.3488, 80.95953
529.8309, 70.95526
530.3130, 58.56036
530.7952, 51.68994
531.2773, 60.47266
531.7594, 69.06726
532.2415, 66.72601
532.7236, 56.11572
533.2057, 49.40552
533.6879, 54.03943
534.1700, 58.84656
534.6521, 58.40173
535.1342, 49.17548
535.6163, 42.80029
536.0984, 42.08167
536.5806, 42.30042
537.0627, 37.71918
537.5448, 24.28955
538.0269, 16.35510
538.5090, 18.64807
538.9911, 26.85718
539.4733, 25.28052
539.9554, 12.46820
540.4375, 0.4124760
540.9196, 5.985962
541.4017, 6.497681
541.8839, 3.456848
542.3660, 25.22736
542.8481, 46.19983
543.3302, 54.71997
543.8123, 54.13409
544.2944, 49.22479
544.7766, 38.02362
545.2587, 28.29596
545.7408, 28.83539
546.2229, 35.84607
546.7050, 39.95874
547.1871, 34.55615
547.6693, 27.70929
548.1514, 22.99512
548.6335, 20.76440
549.1156, 19.71057
549.5977, 22.13550
550.0798, 23.96857
550.5620, 22.11768
551.0441, 12.78229
551.5262, 7.550781
552.0083, 8.964722
552.4904, 13.22034
552.9725, 11.23682
553.4547, 0.8611450
553.9368, 4.009155
554.4189, 4.311035
554.9010, 21.46674
555.3831, 29.90857
555.8652, 29.52301
556.3474, 26.40289
556.8295, 25.48383
557.3116, 24.87061
557.7937, 19.43829
558.2758, 7.376282
558.7579, 4.765015
559.2401, 13.07019
559.7222, 17.38367
560.2043, 17.36371
560.6864, 9.391113
561.1685, 0.4013670
561.6506, 8.682251
562.1328, 16.92664
562.6149, 19.84668
563.0970, 8.644836
563.5791, 1.005310
564.0612, 1.832031
564.5433, 9.603882
565.0255, 16.63318
565.5076, 17.68933
565.9897, 16.11163
566.4718, 15.06714
566.9539, 14.64020
567.4360, 14.51471
567.9182, 15.21777
568.4003, 15.44946
568.8824, 11.12354
569.3645, 2.738892
569.8466, 4.049988
570.3287, 5.403931
570.8109, 3.501465
571.2930, 1.521484
571.7751, 0.4909670
572.2572, 2.397461
572.7393, 4.944519
573.2214, 6.948242
573.7036, 6.485046
574.1857, 0.5733030
574.6678, 1.778931
575.1499, 9.618591
575.6320, 24.78979
576.1141, 29.22974
576.5963, 5.292908
577.0784, 12.17786
577.5605, 15.43787
578.0426, 6.474304
578.5247, 2.906616
579.0068, 14.45197
579.4890, 22.68555
579.9711, 23.55560
580.4532, 16.51422
580.9353, 11.98108
581.4174, 0.6362920
581.8995, 11.73059
582.3817, 18.43701
582.8638, 19.78729
583.3459, 0.2562260
583.8280, 7.319702
584.3101, 3.823853
584.7922, 0.1280520
585.2744, 11.32819
585.7565, 5.616638
586.2386, 5.587036
586.7207, 5.549805
587.2028, 10.65460
587.6849, 4.619141
588.1671, 2.021973
588.6492, 10.56439
589.1313, 12.93555
589.6134, 5.609924
590.0955, 11.02997
590.5776, 6.327637
591.0598, 3.705688
591.5419, 7.534180
592.0240, 0.7512820
592.5061, 6.356689
592.9882, 0.7149660
593.4703, 2.533630
593.9525, 2.827026
594.4346, 2.488953
594.9167, 1.638306
595.3988, 1.942444
595.8809, 6.556335
596.3630, 12.11761
596.8452, 12.34692
597.3273, 7.093689
597.8094, 1.440796
598.2915, 1.698608
598.7736, 3.544434
599.2557, 5.262451
599.7379, 8.716858
600.2200, 8.091248
600.7021, 3.240234
601.1843, 18.53973
601.6664, 27.00372
602.1485, 24.87726
602.6306, 20.40979
603.1127, 13.07483
603.5948, 4.230408
604.0770, 1.693542
604.5591, 7.152222
605.0412, 13.41968
605.5233, 16.54413
606.0054, 16.93939
606.4875, 18.26471
606.9697, 20.67987
607.4518, 22.29803
607.9339, 21.09784
608.4160, 17.77924
608.8981, 13.11072
609.3802, 5.716553
609.8624, 1.011169
610.3445, 4.810852
610.8266, 13.70453
611.3087, 22.05988
611.7908, 32.57031
612.2729, 37.41632
612.7551, 27.50330
613.2372, 6.092102
613.7193, 2.687317
614.2014, 13.40533
614.6835, 27.85681
615.1656, 28.26678
615.6478, 12.30206
616.1299, 5.604797
616.6120, 10.43292
617.0941, 17.27246
617.5762, 16.84174
618.0583, 10.41968
618.5405, 6.884583
619.0226, 7.686279
619.5047, 10.94641
619.9868, 17.72809
620.4689, 25.47540
620.9510, 28.25598
621.4332, 16.60266
621.9153, 5.010376
622.3974, 5.044861
622.8795, 13.76410
623.3616, 19.80145
623.8438, 14.92407
624.3259, 10.42072
624.8080, 13.41614
625.2901, 26.49512
625.7722, 30.49158
626.2543, 19.33337
626.7365, 6.637695
627.2186, 3.275391
627.7007, 10.58240
628.1828, 16.14496
628.6649, 18.71173
629.1470, 20.76776
629.6292, 27.95959
630.1113, 38.58704
630.5934, 43.25745
631.0755, 33.72034
631.5576, 22.98566
632.0397, 32.00781
632.5219, 54.09753
633.0040, 68.66949
633.4861, 56.54584
633.9682, 40.26898
634.4503, 33.42627
634.9324, 36.12561
635.4146, 36.71985
635.8967, 29.33038
636.3788, 23.35254
636.8609, 23.72833
637.3430, 33.55334
637.8251, 41.07709
638.3073, 45.87744
638.7894, 48.90149
639.2715, 51.42029
639.7536, 53.85950
640.2357, 52.85773
640.7178, 46.09576
641.2000, 38.57495
641.6821, 40.84631
642.1642, 50.08832
642.6463, 56.79053
643.1284, 53.12573
643.6105, 47.47894
644.0927, 49.88318
644.5748, 58.48486
645.0569, 64.50525
645.5390, 62.33881
646.0211, 58.43622
646.5032, 56.42999
646.9854, 57.36255
647.4675, 56.62714
647.9496, 51.05237
648.4317, 46.83386
648.9138, 51.27252
649.3959, 66.41113
649.8781, 79.05865
650.3602, 88.37067
650.8423, 94.63538
651.3244, 99.48553
651.8065, 102.3671
652.2886, 100.1434
652.7708, 86.70514
653.2529, 74.11499
653.7350, 79.54590
654.2171, 97.65717
654.6992, 112.7886
655.1813, 118.0569
655.6635, 117.8522
656.1456, 112.8983
656.6277, 103.4033
657.1098, 94.30878
657.5919, 80.01318
658.0740, 72.29272
658.5562, 79.54620
659.0383, 106.5190
659.5204, 124.2527
660.0025, 131.8694
660.4846, 132.6650
660.9667, 128.0667
661.4489, 118.7411
661.9310, 110.8362
662.4131, 105.3315
662.8952, 101.8826
663.3773, 98.88629
663.8594, 97.71790
664.3416, 101.3625
664.8237, 118.0710
665.3058, 133.2822
665.7879, 137.9200
666.2700, 134.3515
666.7521, 130.6370
667.2343, 126.3417
667.7164, 124.7459
668.1985, 128.6967
668.6806, 138.1085
669.1627, 140.4069
669.6448, 132.4619
670.1270, 124.5278
670.6091, 124.1124
671.0912, 130.7640
671.5733, 135.1813
672.0554, 137.4280
672.5375, 137.8496
673.0197, 133.3434
673.5018, 127.3024
673.9839, 127.3936
674.4660, 138.0124
674.9481, 147.8434
675.4302, 149.2177
675.9124, 145.3380
676.3945, 140.9263
676.8766, 137.2068
677.3587, 133.0237
677.8408, 127.7882
678.3229, 121.8979
678.8051, 116.3256
679.2872, 110.5633
679.7693, 106.5548
680.2514, 105.9378
680.7335, 107.6120
681.2156, 104.3094
681.6978, 95.87427
682.1799, 90.74841
682.6620, 100.4364
683.1441, 115.2136
683.6262, 116.1194
684.1083, 101.9497
684.5905, 90.23883
685.0726, 95.87018
685.5547, 106.9908
686.0368, 113.4077
686.5189, 111.8919
687.0010, 108.7603
687.4832, 101.7100
687.9653, 95.36078
688.4474, 95.52155
688.9295, 106.4073
689.4116, 111.2994
689.8937, 107.2458
690.3759, 97.83038
690.8580, 86.81616
691.3401, 75.12823
691.8222, 69.83820
692.3043, 77.46509
692.7864, 88.90485
693.2686, 89.60211
693.7507, 82.52466
694.2328, 78.46130
694.7149, 89.52002
695.1970, 99.32947
695.6791, 96.37152
696.1613, 80.35242
696.6434, 67.95544
697.1255, 63.17560
697.6076, 60.74084
698.0897, 58.15704
698.5718, 54.97833
699.0540, 55.89404
699.5361, 62.41815
700.0182, 68.43927
700.5003, 68.08130
700.9824, 62.19995
701.4645, 53.12274
701.9467, 39.87976
702.4288, 30.75696
702.9109, 39.35236
703.3930, 55.85059
703.8751, 65.27942
704.3572, 57.49707
704.8394, 51.03625
705.3215, 55.88275
705.8036, 65.31042
706.2857, 66.71759
706.7678, 55.41870
707.2499, 45.51276
707.7321, 38.44550
708.2142, 34.72784
708.6963, 38.02783
709.1784, 49.24762
709.6605, 56.64056
710.1426, 52.09625
710.6248, 41.36273
711.1069, 39.08521
711.5890, 44.06708
712.0711, 48.24506
712.5532, 45.09644
713.0353, 39.80841
713.5175, 37.62274
713.9996, 39.16345
714.4817, 38.02277
714.9638, 27.60449
715.4459, 17.81152
715.9280, 14.10046
716.4102, 17.10913
716.8923, 25.52234
717.3744, 43.13043
717.8565, 59.14514
718.3386, 61.41516
718.8207, 51.15424
719.3029, 41.19928
719.7850, 32.91663
720.2671, 26.54419
720.7492, 22.85602
721.2313, 21.20923
721.7134, 20.61621
722.1956, 22.36755
722.6777, 22.74048
723.1598, 18.19403
723.6419, 11.34485
724.1240, 7.297668
724.6061, 6.778198
725.0883, 9.306335
725.5704, 17.20416
726.0525, 27.52740
726.5346, 29.17133
727.0167, 20.88745
727.4988, 13.83862
727.9810, 14.80286
728.4631, 19.26294
728.9452, 13.79486
729.4273, 0.2880250
729.9094, 9.120850
730.3915, 6.153992
730.8737, 3.522949
731.3558, 19.56982
731.8379, 41.80841
732.3200, 54.32788
732.8021, 44.13141
733.2842, 30.17218
733.7664, 22.16211
734.2485, 21.28320
734.7306, 20.04425
735.2127, 18.36658
735.6948, 16.50391
736.1769, 13.36621
736.6591, 9.679138
737.1412, 12.55957
737.6233, 23.83905
738.1054, 33.12439
738.5875, 27.65851
739.0696, 14.57611
739.5518, 3.640503
740.0339, 3.654419
740.5161, 6.475403
740.9982, 2.069336
741.4803, 6.081848
741.9624, 13.28735
742.4445, 20.59094
742.9266, 24.52222
743.4088, 23.56104
743.8909, 20.12708
744.3730, 19.49207
744.8551, 21.68054
745.3372, 22.01288
745.8193, 18.83722
746.3015, 13.41803
746.7836, 4.482422
747.2657, 5.443054
747.7478, 9.117004
748.2299, 3.963623
748.7120, 17.77142
749.1942, 22.99866
749.6763, 21.01666
750.1584, 20.06189
750.6405, 23.62854
751.1226, 25.03656
751.6047, 21.25543
752.0869, 13.00946
752.5690, 7.170593
753.0511, 3.483704
753.5332, 4.450378
754.0153, 17.19019
754.4974, 33.71075
754.9796, 32.94818
755.4617, 15.67273
755.9438, 2.160645
756.4259, 11.97180
756.9080, 26.78802
757.3901, 31.59937
757.8723, 22.89984
758.3544, 15.44434
758.8365, 11.36487
759.3186, 9.424622
759.8007, 9.764648
760.2828, 13.85718
760.7650, 13.22693
761.2471, 7.138550
761.7292, 1.267151
762.2113, 12.74426
762.6934, 24.09839
763.1755, 21.96637
763.6577, 1.436523
764.1398, 17.56500
764.6219, 16.64813
765.1040, 6.363525
765.5861, 1.041321
766.0682, 3.133484
766.5504, 1.312561
767.0325, 8.471680
767.5146, 19.70459
767.9967, 25.19916
768.4788, 23.44153
768.9609, 18.31897
769.4431, 8.110962
769.9252, 1.027954
770.4073, 5.108582
770.8894, 22.44031
771.3715, 33.39716
771.8536, 30.29956
772.3358, 9.763916
772.8179, 21.47998
773.3000, 27.53766
773.7821, 28.24084
774.2642, 7.552368
774.7463, 14.77191
775.2285, 10.63617
775.7106, 6.046997
776.1927, 16.86969
776.6748, 0.7072750
777.1569, 10.33362
777.6390, 10.85968
778.1212, 18.51410
778.6033, 21.53442
779.0854, 20.33344
779.5675, 17.39142
780.0496, 9.494202
780.5317, 4.021057
781.0139, 11.06995
781.4960, 27.42096
781.9781, 37.16797
782.4602, 28.97260
782.9423, 19.92175
783.4244, 15.87531
783.9066, 16.44098
784.3887, 16.97693
784.8708, 17.18665
785.3529, 18.53931
785.8350, 24.60809
786.3171, 32.26233
786.7993, 27.78271
787.2814, 12.32617
787.7635, 0.7745360
788.2456, 0.8590090
788.7277, 4.767334
789.2098, 11.49133
789.6920, 19.09491
790.1741, 22.90210
790.6562, 17.29761
791.1383, 10.81207
791.6204, 6.130920
792.1025, 2.986511
792.5847, 6.832520
793.0668, 19.31982
793.5489, 31.45209
794.0310, 34.39697
794.5131, 31.52991
794.9952, 33.80212
795.4774, 41.98730
795.9595, 45.70551
796.4416, 30.19861
796.9237, 11.88702
797.4058, 6.775452
797.8879, 21.89587
798.3701, 29.39545
798.8522, 21.94904
799.3343, 11.85803
799.8164, 6.819336
800.2985, 6.936096
800.7806, 12.88489
801.2628, 26.13098
801.7449, 38.47089
802.2270, 40.75317
802.7091, 36.31592
803.1912, 31.29895
803.6733, 26.60297
804.1555, 21.78259
804.6376, 13.49774
805.1197, 6.471191
805.6018, 5.620605
806.0839, 18.60748
806.5660, 25.74158
807.0482, 24.88025
807.5303, 20.82800
808.0124, 17.83356
808.4945, 15.89893
808.9766, 15.56427
809.4587, 17.42389
809.9409, 17.90027
810.4230, 9.621399
810.9051, 1.111267
811.3872, 2.980713
811.8693, 11.15503
812.3514, 21.94867
812.8336, 16.55695
813.3157, 6.148254
813.7978, 3.317078
814.2799, 11.81616
814.7620, 20.54462
815.2441, 30.15344
815.7263, 37.82275
816.2084, 38.57611
816.6905, 33.47998
817.1726, 28.70764
817.6547, 24.84766
818.1368, 24.00098
818.6190, 30.37598
819.1011, 40.55200
819.5832, 48.91846
820.0653, 56.05884
820.5474, 57.53027
821.0295, 50.77948
821.5117, 41.26709
821.9938, 31.16022
822.4759, 18.03168
822.9580, 14.71826
823.4401, 26.68518
823.9222, 40.42413
824.4044, 31.53033
824.8865, 9.009277
825.3686, 1.987549
825.8507, 9.028809
826.3328, 23.36987
826.8149, 30.88214
827.2971, 33.57166
827.7792, 33.31482
828.2613, 26.46851
828.7434, 23.23419
829.2255, 24.93237
829.7076, 29.27008
830.1898, 35.56616
830.6719, 43.72095
831.1540, 40.32263
831.6361, 19.11401
832.1182, 1.741333
832.6003, 6.801819
833.0825, 29.07935
833.5646, 37.92377
834.0467, 14.40790
834.5288, 4.554443
835.0109, 3.283936
835.4930, 8.660278
835.9752, 19.50867
836.4573, 29.72565
836.9394, 34.06531
837.4215, 31.15131
837.9036, 25.63110
838.3857, 23.30249
838.8679, 23.38300
839.3500, 22.59222
839.8321, 19.60522
840.3142, 17.35999
840.7963, 19.57385
841.2784, 23.39514
841.7606, 25.24585
842.2427, 22.06097
842.7248, 19.98303
843.2069, 18.88727
843.6890, 19.47797
844.1711, 23.48407
844.6533, 31.20691
845.1354, 37.37042
845.6175, 41.86182
846.0996, 41.71082
846.5817, 25.75598
847.0638, 4.473877
847.5460, 1.572144
848.0281, 19.57581
848.5102, 38.01550
848.9923, 40.08051
849.4744, 34.19501
849.9565, 29.15796
850.4387, 24.81921
850.9208, 22.65656
851.4029, 23.74036
851.8850, 24.82391
852.3671, 21.78595
852.8492, 14.74347
853.3314, 8.469849
853.8135, 3.692993
854.2956, 0.5963130
854.7777, 2.175781
855.2598, 2.449158
855.7419, 2.920959
856.2241, 20.15625
856.7062, 29.75043
857.1883, 27.94916
857.6704, 21.61554
858.1525, 14.65442
858.6346, 6.861694
859.1168, 8.785461
859.5989, 22.38489
860.0810, 34.46826
860.5631, 27.94476
861.0452, 13.75293
861.5273, 7.881287
862.0095, 14.44873
862.4916, 18.98718
862.9737, 11.23938
863.4558, 3.461060
863.9379, 5.123901
864.4200, 19.81598
864.9022, 25.02203
865.3843, 18.93109
865.8664, 10.32104
866.3485, 3.953552
866.8306, 1.133667
867.3127, 6.950867
867.7949, 21.61340
868.2770, 35.13574
868.7591, 44.16010
869.2412, 47.34229
869.7233, 42.20789
870.2054, 25.99481
870.6876, 15.08124
871.1697, 10.26935
871.6518, 9.164490
872.1339, 12.24664
872.6160, 18.47052
873.0981, 19.66168
873.5803, 16.13464
874.0624, 14.33929
874.5445, 24.20874
875.0266, 33.69305
875.5087, 27.82507
875.9908, 7.814880
876.4730, 2.292236
876.9551, 15.77081
877.4372, 30.22540
877.9193, 29.69342
878.4014, 16.74188
878.8835, 5.972961
879.3657, 2.712036
879.8478, 4.678894
880.3299, 8.469482
880.8120, 25.87598
881.2941, 30.61310
881.7763, 26.08630
882.2584, 24.30475
882.7405, 39.62628
883.2227, 47.65692
883.7048, 32.03247
884.1869, 3.984619
884.6690, 4.8035000E-02
885.1511, 26.55988
885.6332, 44.15912
886.1154, 37.84979
886.5975, 20.29877
887.0796, 9.288452
887.5617, 5.647705
888.0438, 11.87030
888.5259, 46.83997
889.0081, 71.48596
889.4902, 57.38013
889.9723, 23.64209
890.4544, 8.785706
890.9365, 22.29645
891.4186, 31.74628
891.9008, 33.45520
892.3829, 27.91760
892.8650, 11.01642
893.3471, 11.63647
893.8292, 20.62903
894.3113, 6.938232
894.7935, 9.311951
895.2756, 15.26312
895.7577, 15.10577
896.2398, 13.21252
896.7219, 5.834229
897.2040, 5.036133
897.6862, 12.81885
898.1683, 23.92017
898.6504, 36.01917
899.1325, 47.71130
899.6146, 45.74725
900.0967, 27.66589
900.5789, 9.887878
901.0610, 4.663452
901.5431, 6.879028
902.0252, 12.58246
902.5073, 22.08911
902.9894, 30.33746
903.4716, 37.04822
903.9537, 42.08221
904.4358, 46.46307
904.9179, 49.77374
905.4000, 42.90747
905.8821, 26.43890
906.3643, 12.46832
906.8464, 12.21356
907.3285, 17.30078
907.8106, 20.29584
908.2927, 20.57648
908.7748, 17.11200
909.2570, 4.7667999E-02
909.7391, 9.557617
910.2212, 1.350586
910.7033, 19.55768
911.1854, 25.14899
911.6675, 14.76007
912.1497, 8.830933
912.6318, 22.35162
913.1139, 39.04016
913.5960, 34.91498
914.0781, 17.35394
914.5602, 4.369812
915.0424, 7.736145
915.5245, 10.35889
916.0066, 6.366333
916.4887, 3.4363002E-02
916.9708, 0.2854000
917.4529, 6.316467
917.9351, 11.29132
918.4172, 12.68353
918.8993, 12.55463
919.3814, 12.37585
919.8635, 12.99536
920.3456, 15.73566
920.8278, 22.33661
921.3099, 28.24487
921.7920, 33.63422
922.2741, 36.95770
922.7562, 36.30054
923.2383, 30.78473
923.7205, 26.03546
924.2026, 22.03326
924.6847, 18.65912
925.1668, 14.49237
925.6489, 12.14490
926.1310, 17.75391
926.6132, 32.26654
927.0953, 42.81824
927.5774, 41.97809
928.0595, 37.53754
928.5416, 32.93164
929.0237, 28.42700
929.5059, 27.35443
929.9880, 30.52423
930.4701, 33.37402
930.9522, 32.48431
931.4343, 29.94531
931.9164, 29.81921
932.3986, 31.35986
932.8807, 31.69098
933.3628, 27.49219
933.8449, 24.09381
934.3270, 23.16089
934.8091, 25.53412
935.2913, 32.94385
935.7734, 47.03687
936.2555, 54.78381
936.7376, 50.35437
937.2197, 43.26758
937.7018, 52.95276
938.1840, 71.13940
938.6661, 78.41467
939.1482, 61.84827
939.6303, 46.98029
940.1124, 42.39868
940.5945, 43.06464
941.0767, 44.12360
941.5588, 45.36169
942.0409, 48.75537
942.5230, 54.79291
943.0051, 60.46161
943.4872, 61.71533
943.9694, 60.45142
944.4515, 60.74115
944.9336, 63.32397
945.4157, 61.22449
945.8978, 44.58777
946.3799, 29.43213
946.8621, 24.36719
947.3442, 29.01251
947.8263, 32.37604
948.3084, 34.40381
948.7905, 36.03455
949.2726, 39.01874
949.7548, 41.16760
950.2369, 36.90247
950.7190, 28.77826
951.2011, 24.26251
951.6832, 34.12769
952.1653, 40.77039
952.6475, 36.20032
953.1296, 25.94574
953.6117, 24.54565
954.0938, 32.46698
954.5759, 34.45142
955.0580, 24.53217
955.5402, 15.03339
956.0223, 26.44440
956.5044, 45.71130
956.9865, 52.19336
957.4686, 30.93665
957.9507, 19.07123
958.4329, 31.85535
958.9150, 45.66333
959.3971, 37.39960
959.8792, 6.267273
960.3613, 0.2689210
960.8434, 19.93512
961.3256, 40.01245
961.8077, 34.37463
962.2898, 20.86719
962.7719, 17.21417
963.2540, 24.22961
963.7361, 31.68127
964.2183, 40.80133
964.7004, 45.34937
965.1825, 41.78906
965.6646, 32.71667
966.1467, 27.02588
966.6288, 24.54041
967.1110, 23.53607
967.5931, 24.01050
968.0752, 24.66388
968.5573, 21.53174
969.0394, 17.08228
969.5215, 16.11603
970.0037, 23.14441
970.4858, 27.07751
970.9679, 26.95642
971.4500, 23.93945
971.9321, 17.62811
972.4142, 9.451660
972.8964, 5.655762
973.3785, 7.311707
973.8606, 10.17352
974.3427, 12.90356
974.8248, 14.43640
975.3069, 13.62927
975.7891, 10.18256
976.2712, 5.769226
976.7533, 1.289734
977.2354, 3.962646
977.7175, 4.069336
978.1996, 18.11621
978.6818, 28.68713
979.1639, 35.06421
979.6460, 34.38214
980.1281, 17.94543
980.6102, 2.104858
981.0923, 8.044739
981.5745, 12.28961
982.0566, 9.063782
982.5387, 3.310242
983.0208, 14.82819
983.5029, 24.43304
983.9850, 30.51013
984.4672, 30.65326
984.9493, 26.13715
985.4314, 17.07690
985.9135, 0.1128540
986.3956, 8.087524
986.8777, 6.730164
987.3599, 23.49316
987.8420, 30.35968
988.3241, 27.28900
988.8062, 24.92926
989.2883, 23.31262
989.7704, 19.31488
990.2526, 2.891907
990.7347, 10.95490
991.2168, 8.7523997E-02
991.6989, 28.62048
992.1810, 44.21948
992.6631, 29.43658
993.1453, 17.41302
993.6274, 15.49799
994.1095, 18.37952
994.5916, 14.36340
995.0737, 5.211060
995.5558, 9.7961001E-02
996.0380, 2.546387
996.5201, 5.773560
997.0022, 2.556763
997.4843, 1.070801
997.9664, 2.121460
998.4485, 15.44299
998.9307, 25.28094
999.4128, 31.56592
999.8949, 34.32874
1000.377, 30.58649
1000.859, 24.14191
1001.341, 25.71710
1001.823, 34.14264
1002.305, 40.12646
1002.788, 39.08862
1003.270, 34.63501
1003.752, 24.60303
1004.234, 13.09808
1004.716, 12.20282
1005.198, 23.00806
1005.680, 32.60913
1006.162, 37.89923
1006.645, 39.71600
1007.127, 36.60980
1007.609, 31.50323
1008.091, 28.38428
1008.573, 27.23529
1009.055, 31.24432
1009.537, 46.40753
1010.019, 58.82861
1010.501, 55.60175
1010.984, 38.89337
1011.466, 32.07166
1011.948, 34.86011
1012.430, 39.27844
1012.912, 37.45654
1013.394, 37.72809
1013.876, 51.92944
1014.358, 74.42163
1014.841, 78.21765
1015.323, 53.52277
1015.805, 35.95032
1016.287, 33.89679
1016.769, 41.04846
1017.251, 49.83545
1017.733, 59.19061
1018.215, 66.81378
1018.697, 71.87531
1019.180, 75.95624
1019.662, 79.48389
1020.144, 81.90015
1020.626, 82.72089
1021.108, 81.90344
1021.590, 79.82410
1022.072, 76.42163
1022.554, 73.21490
1023.037, 70.46613
1023.519, 69.02570
1024.001, 70.50049
1024.483, 74.28467
1024.965, 77.61542
1025.447, 82.51434
1025.929, 82.70282
1026.411, 75.47467
1026.893, 65.38922
1027.376, 60.96075
1027.858, 60.83075
1028.340, 58.69586
1028.822, 51.98248
1029.304, 47.85278
1029.786, 51.24323
1030.268, 59.02869
1030.750, 71.12628
1031.233, 88.57837
1031.715, 92.62231
1032.197, 81.32214
1032.679, 68.81128
1033.161, 62.76691
1033.643, 60.95551
1034.125, 60.93164
1034.607, 62.22931
1035.089, 63.51990
1035.572, 63.88263
1036.054, 65.56549
1036.536, 71.48383
1037.018, 76.92493
1037.500, 69.83374
1037.982, 52.74060
1038.464, 50.19824
1038.946, 67.20197
1039.428, 84.15820
1039.911, 89.91339
1040.393, 87.26440
1040.875, 72.62592
1041.357, 46.04095
1041.839, 38.35352
1042.321, 54.90686
1042.803, 69.40222
1043.285, 67.97510
1043.768, 60.47162
1044.250, 67.38501
1044.732, 81.99725
1045.214, 88.02924
1045.696, 69.16071
1046.178, 56.19537
1046.660, 57.24341
1047.142, 63.40045
1047.625, 66.75250
1048.107, 67.40253
1048.589, 66.64465
1049.071, 65.30969
1049.553, 63.02417
1050.035, 55.85889
1050.517, 51.51917
1050.999, 59.01117
1051.481, 76.35553
1051.964, 83.62384
1052.446, 78.02533
1052.928, 70.86658
1053.410, 64.68323
1053.892, 59.41034
1054.374, 54.27759
1054.856, 50.30817
1055.338, 50.22699
1055.820, 57.74677
1056.303, 61.92737
1056.785, 56.26508
1057.267, 49.78467
1057.749, 49.07965
1058.231, 53.58801
1058.713, 54.63757
1059.195, 52.06488
1059.677, 47.51752
1060.160, 37.48975
1060.642, 31.30359
1061.124, 39.53406
1061.606, 55.83508
1062.088, 63.30414
1062.570, 59.92401
1063.052, 52.41150
1063.534, 39.96576
1064.016, 29.20825
1064.499, 29.70776
1064.981, 36.36414
1065.463, 41.79633
1065.945, 45.14905
1066.427, 45.50195
1066.909, 40.22937
1067.391, 34.69086
1067.873, 30.46600
1068.355, 27.58704
1068.838, 27.76978
1069.320, 30.03748
1069.802, 28.52448
1070.284, 17.10480
1070.766, 8.125244
1071.248, 11.39044
1071.730, 20.00531
1072.212, 25.62689
1072.695, 27.46423
1073.177, 29.04602
1073.659, 30.64447
1074.141, 30.31281
1074.623, 25.58929
1075.105, 18.67511
1075.587, 10.55884
1076.069, 2.222778
1076.552, 1.830444
1077.034, 1.547424
1077.516, 6.047424
1077.998, 11.92023
1078.480, 16.57452
1078.962, 13.79590
1079.444, 6.231262
1079.926, 2.636230
1080.408, 5.246521
1080.891, 7.503723
1081.373, 2.250549
1081.855, 0.5689700
1082.337, 6.838135
1082.819, 22.87799
1083.301, 29.38794
1083.783, 26.24182
1084.265, 19.38196
1084.747, 8.270081
1085.230, 1.036011
1085.712, 3.742920
1086.194, 0.6534420
1086.676, 7.868103
1087.158, 28.77362
1087.640, 38.08209
1088.122, 33.24756
1088.604, 24.15997
1089.087, 17.92664
1089.569, 14.06061
1090.051, 11.83478
1090.533, 11.17914
1091.015, 11.92120
1091.497, 15.80261
1091.979, 19.00818
1092.461, 21.97302
1092.943, 22.50970
1093.426, 13.78949
1093.908, 1.758179
1094.390, 12.30322
1094.872, 15.62683
1095.354, 13.01471
1095.836, 0.7240600
1096.318, 15.04279
1096.800, 22.23041
1097.283, 22.72839
1097.765, 24.00439
1098.247, 26.23090
1098.729, 25.92810
1099.211, 20.09088
1099.693, 13.38812
1100.175, 9.522522
1100.657, 8.618286
1101.140, 11.21210
1101.622, 22.18048
1102.104, 25.68030
1102.586, 19.11096
1103.068, 12.63416
1103.550, 17.14838
1104.032, 26.48407
1104.514, 27.17749
1104.996, 20.65259
1105.479, 15.46228
1105.961, 18.59033
1106.443, 18.06799
1106.925, 8.987793
1107.407, 2.155640
1107.889, 5.216187
1108.371, 1.009644
1108.853, 8.097290
1109.335, 22.40643
1109.818, 33.69421
1110.300, 36.04895
1110.782, 34.48230
1111.264, 32.27594
1111.746, 29.14227
1112.228, 20.38989
1112.710, 5.044495
1113.192, 5.258118
1113.675, 5.563904
1114.157, 1.858154
1114.639, 3.671143
1115.121, 7.945496
1115.603, 5.992065
1116.085, 6.382507
1116.567, 10.00439
1117.049, 2.910095
1117.531, 5.082214
1118.014, 5.731445
1118.496, 4.511536
1118.978, 12.42871
1119.460, 25.89966
1119.942, 35.84723
1120.424, 37.90240
1120.906, 37.98297
1121.388, 36.80554
1121.870, 33.68732
1122.353, 24.64270
1122.835, 13.40436
1123.317, 13.51849
1123.799, 24.89709
1124.281, 34.93768
1124.763, 40.63092
1125.245, 38.86475
1125.727, 24.04218
1126.210, 5.500122
1126.692, 4.837952
1127.174, 19.26947
1127.656, 26.27240
1128.138, 20.29431
1128.620, 15.35858
1129.102, 23.94995
1129.584, 35.51788
1130.067, 41.78131
1130.549, 43.03015
1131.031, 45.31714
1131.513, 48.87396
1131.995, 49.90186
1132.477, 46.61755
1132.959, 40.67755
1133.441, 30.85730
1133.923, 20.71777
1134.406, 15.54486
1134.888, 17.84375
1135.370, 20.41901
1135.852, 23.65704
1136.334, 25.55878
1136.816, 22.65948
1137.298, 18.84546
1137.780, 22.02875
1138.262, 29.62299
1138.745, 34.13171
1139.227, 33.22443
1139.709, 27.59680
1140.191, 13.41913
1140.673, 2.969299
1141.155, 17.07117
1141.637, 44.06653
1142.119, 53.34796
1142.602, 44.28009
1143.084, 33.09735
1143.566, 20.87024
1144.048, 15.42059
1144.530, 19.70062
1145.012, 30.15796
1145.494, 43.64404
1145.976, 58.00452
1146.458, 62.56122
1146.941, 54.59412
1147.423, 43.72626
1147.905, 28.08405
1148.387, 18.97852
1148.869, 25.78760
1149.351, 44.06470
1149.833, 48.19067
1150.315, 39.15747
1150.797, 31.23138
1151.280, 29.26056
1151.762, 28.98694
1152.244, 27.75940
1152.726, 26.17822
1153.208, 24.72003
1153.690, 24.06531
1154.172, 23.82507
1154.654, 23.94714
1155.137, 23.75433
1155.619, 23.21387
1156.101, 21.84882
1156.583, 18.86780
1157.065, 15.05780
1157.547, 11.19385
1158.029, 4.081177
1158.511, 9.284546
1158.994, 30.41541
1159.476, 46.54645
1159.958, 29.80566
1160.440, 5.330872
1160.922, 10.72943
1161.404, 37.80426
1161.886, 49.85040
1162.368, 32.18738
1162.850, 19.98444
1163.333, 18.33698
1163.815, 20.51453
1164.297, 18.25024
1164.779, 14.50305
1165.261, 14.52551
1165.743, 18.61536
1166.225, 22.31836
1166.707, 24.85016
1167.189, 25.98761
1167.672, 26.22168
1168.154, 24.19403
1168.636, 13.45740
1169.118, 0.4965820
1169.600, 4.979065
1170.082, 3.119934
1170.564, 14.69971
1171.046, 30.98425
1171.529, 45.04565
1172.011, 57.48328
1172.493, 66.08252
1172.975, 61.95557
1173.457, 48.11835
1173.939, 33.25983
1174.421, 19.03442
1174.903, 12.14288
1175.385, 22.22443
1175.868, 33.10730
1176.350, 35.42633
1176.832, 30.43512
1177.314, 23.08612
1177.796, 14.48859
1178.278, 11.01324
1178.760, 18.80621
1179.242, 27.78302
1179.724, 36.30731
1180.207, 41.75232
1180.689, 40.76654
1181.171, 33.44427
1181.653, 28.09656
1182.135, 24.45209
1182.617, 18.40326
1183.099, 1.520264
1183.581, 11.93280
1184.064, 13.71912
1184.546, 7.733582
1185.028, 2.507263
1185.510, 17.39307
1185.992, 22.70306
1186.474, 17.31366
1186.956, 12.11804
1187.438, 16.48193
1187.921, 22.35626
1188.403, 24.52753
1188.885, 23.98120
1189.367, 23.36890
1189.849, 22.66388
1190.331, 22.58691
1190.813, 23.38159
1191.295, 23.47290
1191.777, 18.99969
1192.260, 15.39142
1192.742, 19.55011
1193.224, 29.22992
1193.706, 29.60822
1194.188, 19.39081
1194.670, 12.81342
1195.152, 13.34204
1195.634, 17.60468
1196.116, 26.41595
1196.599, 34.42316
1197.081, 35.33612
1197.563, 29.02533
1198.045, 24.33270
1198.527, 21.11743
1199.009, 19.65210
1199.491, 19.51996
1199.973, 21.91919
1200.456, 32.21490
1200.938, 43.45209
1201.420, 46.19635
1201.902, 38.53046
1202.384, 33.75500
1202.866, 32.21381
1203.348, 30.81494
1203.830, 27.24744
1204.313, 24.33307
1204.795, 27.46649
1205.277, 32.39899
1205.759, 32.28632
1206.241, 24.74402
1206.723, 18.49957
1207.205, 13.04175
1207.687, 12.08368
1208.169, 22.29877
1208.651, 34.28784
1209.134, 36.87079
1209.616, 33.63678
1210.098, 31.55829
1210.580, 32.39746
1211.062, 31.65149
1211.544, 29.39996
1212.026, 24.48010
1212.508, 10.65228
1212.991, 1.925903
1213.473, 1.815857
1213.955, 15.81781
1214.437, 22.17352
1214.919, 15.87561
1215.401, 15.30023
1215.883, 22.92163
1216.365, 29.80951
1216.848, 24.94958
1217.330, 17.50171
1217.812, 18.47168
1218.294, 26.02625
1218.776, 30.41449
1219.258, 29.61230
1219.740, 31.36975
1220.222, 37.37610
1220.704, 42.34790
1221.187, 38.30676
1221.669, 32.32159
1222.151, 33.48804
1222.633, 40.69421
1223.115, 41.92090
1223.597, 34.98267
1224.079, 29.86194
1224.561, 28.64728
1225.043, 28.46509
1225.526, 23.37543
1226.008, 19.63318
1226.490, 29.81567
1226.972, 52.21289
1227.454, 46.10431
1227.936, 2.694092
1228.418, 15.70270
1228.900, 13.16022
1229.383, 46.52051
1229.865, 26.54755
1230.347, 7.266846
1230.829, 9.176392
1231.311, 24.29541
1231.793, 43.65137
1232.275, 47.62372
1232.757, 47.98639
1233.240, 48.29413
1233.722, 46.59381
1234.204, 37.55627
1234.686, 27.53265
1235.168, 24.06085
1235.650, 27.56549
1236.132, 28.98969
1236.614, 28.22571
1237.096, 26.57690
1237.579, 24.22778
1238.061, 21.91510
1238.543, 19.31818
1239.025, 17.62231
1239.507, 18.97607
1239.989, 23.61566
1240.471, 25.16937
1240.953, 23.16693
1241.436, 20.51929
1241.918, 18.97803
1242.400, 20.09979
1242.882, 24.50861
1243.364, 32.19916
1243.846, 46.33936
1244.328, 67.87811
1244.810, 67.55902
1245.292, 46.02405
1245.775, 25.70868
1246.257, 17.36896
1246.739, 13.58484
1247.221, 9.034302
1247.703, 7.055847
1248.185, 11.76587
1248.667, 23.50854
1249.149, 30.42157
1249.631, 32.85767
1250.114, 34.09656
1250.596, 34.30969
1251.078, 35.92542
1251.560, 44.28894
1252.042, 51.48145
1252.524, 47.37805
1253.006, 33.02032
1253.488, 31.08319
1253.971, 39.97388
1254.453, 46.95233
1254.935, 40.08221
1255.417, 36.67529
1255.899, 48.11908
1256.381, 60.85382
1256.863, 61.29449
1257.345, 51.51007
1257.828, 43.30798
1258.310, 36.98242
1258.792, 32.54108
1259.274, 29.74121
1259.756, 29.58527
1260.238, 34.00842
1260.720, 38.18390
1261.202, 36.34131
1261.684, 30.58624
1262.167, 28.99500
1262.649, 30.80725
1263.131, 30.78058
1263.613, 24.76807
1264.095, 18.95233
1264.577, 11.99506
1265.059, 9.910278
1265.541, 25.85089
1266.023, 48.59192
1266.506, 50.59448
1266.988, 35.77393
1267.470, 28.88184
1267.952, 43.54132
1268.434, 53.94952
1268.916, 60.94745
1269.398, 61.60583
1269.880, 54.80042
1270.363, 44.88947
1270.845, 39.96759
1271.327, 39.69391
1271.809, 40.88379
1272.291, 44.06671
1272.773, 45.68597
1273.255, 45.35376
1273.737, 43.20435
1274.219, 36.51215
1274.702, 30.38696
1275.184, 33.04486
1275.666, 41.29834
1276.148, 40.08521
1276.630, 26.02393
1277.112, 22.16681
1277.594, 32.58215
1278.076, 41.47614
1278.558, 29.31116
1279.041, 15.38763
1279.523, 19.24219
1280.005, 32.74170
1280.487, 30.52747
1280.969, 12.09210
1281.451, 12.42181
1281.933, 36.55609
1282.415, 55.63733
1282.898, 44.09283
1283.380, 26.98914
1283.862, 15.83484
1284.344, 10.26471
1284.826, 11.37408
1285.308, 18.11816
1285.790, 23.67780
1286.272, 27.31287
1286.755, 29.18591
1287.237, 26.52509
1287.719, 25.81848
1288.201, 29.17938
1288.683, 35.44006
1289.165, 45.00385
1289.647, 55.24353
1290.129, 58.07349
1290.611, 52.92212
1291.094, 46.33289
1291.576, 37.38770
1292.058, 32.22192
1292.540, 32.51648
1293.022, 36.06030
1293.504, 44.81116
1293.986, 52.19305
1294.468, 43.96130
1294.950, 20.68884
1295.433, 6.192322
1295.915, 5.542114
1296.397, 4.516846
1296.879, 8.3191000E-02
1297.361, 3.547546
1297.843, 4.901489
1298.325, 0.4817500
1298.807, 19.71716
1299.290, 51.54340
1299.772, 63.23138
1300.254, 52.56592
1300.736, 41.08966
1301.218, 31.99634
1301.700, 25.46173
1302.182, 22.40442
1302.664, 16.55273
1303.146, 8.086182
1303.629, 9.555542
1304.111, 17.06122
1304.593, 29.33002
1305.075, 32.34406
1305.557, 25.49323
1306.039, 16.96399
1306.521, 8.758850
1307.003, 2.888977
1307.485, 0.0000000E+00
##END=



