##NAMES=Gladiusite
##RRUFFID=R070432
##IDEAL CHEMISTRY=Fe^3+^_2_Fe^2+^_4_PO_4_(OH)_11_&#183;H_2_O
##LOCALITY=Kovdor mine, Kovdor Massif, Kola Peninsula, Murmanskaja Oblast', Northern Region, Russia
##OWNER=RRUFF
##SOURCE=Michael Scott
##DESCRIPTION=Bundles of olive green fibers on dolomite matrix
##STATUS=The identification of this mineral is not yet confirmed.
##URL=rruff.info/R070432
178.8832, 0.0000000E+00
179.3653, 6.644775
179.8474, 9.738525
180.3295, 12.59241
180.8116, 30.32654
181.2937, 29.84485
181.7759, 17.28857
182.2580, 2.040771
182.7401, 3.515747
183.2222, 8.439941
183.7043, 30.89087
184.1864, 43.39648
184.6686, 40.09607
185.1507, 36.36914
185.6328, 36.30920
186.1149, 38.19958
186.5970, 40.11450
187.0791, 41.16553
187.5613, 41.71643
188.0434, 42.64453
188.5255, 43.28833
189.0076, 45.62048
189.4897, 53.23633
189.9718, 61.16443
190.4540, 63.57019
190.9361, 57.48718
191.4182, 46.65186
191.9003, 40.12744
192.3824, 39.91650
192.8645, 40.77734
193.3467, 43.52661
193.8288, 45.94141
194.3109, 44.88477
194.7930, 39.02368
195.2751, 31.79150
195.7572, 30.88452
196.2394, 39.68262
196.7215, 48.86743
197.2036, 59.75220
197.6857, 69.16553
198.1678, 73.41968
198.6499, 71.40576
199.1321, 66.38965
199.6142, 64.78882
200.0963, 69.81201
200.5784, 71.82178
201.0605, 66.21973
201.5426, 60.10449
202.0248, 60.75439
202.5069, 69.61719
202.9890, 79.92529
203.4711, 79.66016
203.9532, 61.37573
204.4353, 49.27808
204.9175, 50.38599
205.3996, 53.01172
205.8817, 46.67090
206.3638, 30.46631
206.8459, 14.21460
207.3280, 12.52368
207.8102, 32.60107
208.2923, 49.23682
208.7744, 66.28174
209.2565, 77.21631
209.7386, 74.46777
210.2207, 59.20142
210.7029, 41.43896
211.1850, 32.89331
211.6671, 35.85938
212.1492, 40.09546
212.6313, 51.04468
213.1134, 58.49902
213.5956, 54.34204
214.0777, 40.58130
214.5598, 26.65845
215.0419, 22.19092
215.5240, 29.17017
216.0061, 36.85547
216.4883, 45.74902
216.9704, 55.12036
217.4525, 64.93140
217.9346, 74.28174
218.4167, 80.31519
218.8988, 80.22290
219.3810, 73.86084
219.8631, 66.36108
220.3452, 52.50781
220.8273, 43.54614
221.3094, 41.99731
221.7915, 45.83545
222.2737, 54.11230
222.7558, 66.58472
223.2379, 82.41797
223.7200, 91.50195
224.2021, 89.44385
224.6842, 84.79150
225.1664, 76.41089
225.6485, 66.92822
226.1306, 59.60229
226.6127, 56.13354
227.0948, 56.14307
227.5770, 61.07642
228.0591, 80.53125
228.5412, 91.00513
229.0233, 82.64771
229.5054, 65.92578
229.9875, 52.59497
230.4697, 48.58667
230.9518, 49.86426
231.4339, 48.44971
231.9160, 39.02490
232.3981, 36.02930
232.8802, 49.69751
233.3624, 65.66235
233.8445, 69.03662
234.3266, 55.20410
234.8087, 34.77734
235.2908, 25.88599
235.7729, 34.17236
236.2551, 36.90381
236.7372, 22.10889
237.2193, 8.892578
237.7014, 14.38354
238.1835, 40.05713
238.6656, 68.08447
239.1478, 74.01611
239.6299, 48.55615
240.1120, 35.43115
240.5941, 53.16260
241.0762, 70.10205
241.5583, 67.32959
242.0405, 46.51904
242.5226, 24.42285
243.0047, 18.92017
243.4868, 32.00220
243.9689, 37.54224
244.4510, 26.63916
244.9332, 16.26978
245.4153, 12.83032
245.8974, 15.14233
246.3795, 18.94531
246.8616, 20.58569
247.3437, 20.79004
247.8259, 26.85620
248.3080, 47.70801
248.7901, 62.22803
249.2722, 62.31909
249.7543, 52.42773
250.2364, 38.75513
250.7186, 23.09180
251.2007, 7.391602
251.6828, 2.610352
252.1649, 5.470703
252.6470, 5.251709
253.1291, 0.6853030
253.6113, 4.843750
254.0934, 6.265869
254.5755, 0.5156250
255.0576, 5.205078
255.5397, 4.112549
256.0219, 34.94604
256.5040, 55.99341
256.9861, 49.24585
257.4682, 34.30225
257.9503, 23.68677
258.4324, 19.96509
258.9146, 21.13940
259.3967, 27.80396
259.8788, 40.44702
260.3609, 47.30859
260.8430, 44.18579
261.3251, 35.85571
261.8073, 22.84790
262.2894, 6.075928
262.7715, 6.112305
263.2536, 6.376953
263.7357, 3.669922
264.2178, 15.47998
264.7000, 31.26392
265.1821, 43.73828
265.6642, 45.01782
266.1463, 38.38208
266.6284, 34.71191
267.1105, 43.74609
267.5927, 58.38574
268.0748, 62.83032
268.5569, 54.64478
269.0390, 43.03296
269.5211, 30.54370
270.0032, 19.23755
270.4854, 13.65405
270.9675, 18.98145
271.4496, 27.21729
271.9317, 28.77246
272.4138, 23.44580
272.8959, 18.17480
273.3781, 15.58765
273.8602, 4.616211
274.3423, 19.73828
274.8244, 28.49707
275.3065, 31.23462
275.7886, 9.938965
276.2708, 19.66650
276.7529, 16.95459
277.2350, 13.72681
277.7171, 27.80591
278.1992, 9.979736
278.6813, 23.76953
279.1635, 24.92749
279.6456, 31.85718
280.1277, 26.26978
280.6098, 24.58838
281.0919, 14.56396
281.5740, 3.007568
282.0562, 1.499023
282.5383, 1.635498
283.0204, 4.441406
283.5025, 4.513428
283.9846, 5.342773
284.4667, 10.79321
284.9489, 20.05811
285.4310, 28.31689
285.9131, 31.91748
286.3952, 30.65503
286.8773, 27.06177
287.3594, 16.70215
287.8416, 8.493408
288.3237, 9.274658
288.8058, 16.20557
289.2879, 20.94531
289.7700, 18.45752
290.2521, 10.48071
290.7343, 4.838623
291.2164, 0.3593750
291.6985, 1.629150
292.1806, 0.9262700
292.6627, 6.774170
293.1448, 13.41309
293.6270, 9.451904
294.1091, 24.16797
294.5912, 32.93604
295.0733, 36.04150
295.5554, 16.71240
296.0375, 26.38062
296.5197, 24.73926
297.0018, 22.82104
297.4839, 36.54956
297.9660, 20.46021
298.4481, 33.92090
298.9302, 35.57764
299.4124, 42.62769
299.8945, 37.97852
300.3766, 36.93408
300.8587, 47.58057
301.3408, 51.74341
301.8229, 35.70483
302.3050, 33.84839
302.7871, 32.82935
303.2693, 38.02319
303.7514, 62.54980
304.2335, 74.25854
304.7156, 54.49121
305.1977, 25.68140
305.6798, 12.10376
306.1620, 21.27808
306.6441, 42.92578
307.1262, 62.09839
307.6083, 79.72485
308.0904, 92.45923
308.5725, 99.07886
309.0547, 100.7844
309.5368, 94.86230
310.0189, 82.09741
310.5010, 70.79443
310.9831, 68.49585
311.4652, 74.51587
311.9474, 82.28613
312.4295, 93.20459
312.9116, 102.7751
313.3937, 109.1958
313.8758, 113.2273
314.3579, 115.2959
314.8401, 114.7783
315.3222, 112.6958
315.8043, 109.5017
316.2864, 104.8201
316.7685, 102.3875
317.2506, 107.7744
317.7328, 115.4819
318.2149, 115.1882
318.6970, 100.0623
319.1791, 86.04858
319.6612, 86.19019
320.1433, 97.77417
320.6255, 110.5247
321.1076, 123.7151
321.5897, 134.2664
322.0718, 132.4365
322.5539, 116.3594
323.0360, 103.5308
323.5182, 97.80127
324.0003, 98.22046
324.4824, 105.3364
324.9645, 119.2070
325.4466, 134.8591
325.9287, 149.8918
326.4109, 164.4861
326.8930, 163.3877
327.3751, 127.6809
327.8572, 94.58936
328.3393, 89.03345
328.8214, 104.8223
329.3036, 119.0061
329.7857, 118.0630
330.2678, 105.3313
330.7499, 95.86182
331.2320, 90.19946
331.7141, 87.05298
332.1963, 89.99268
332.6784, 94.03564
333.1605, 92.71655
333.6426, 84.36108
334.1247, 74.69580
334.6068, 72.18359
335.0890, 80.30688
335.5711, 86.35596
336.0532, 95.42822
336.5353, 98.17847
337.0174, 83.60278
337.4995, 56.84473
337.9817, 34.05566
338.4638, 29.17554
338.9459, 39.86621
339.4280, 45.99927
339.9101, 47.53271
340.3922, 44.25146
340.8744, 29.32202
341.3565, 12.30200
341.8386, 6.926025
342.3207, 19.84570
342.8028, 39.20117
343.2849, 46.52197
343.7671, 39.96631
344.2492, 34.28882
344.7313, 35.73682
345.2134, 36.85547
345.6955, 30.62085
346.1776, 17.05200
346.6598, 3.971680
347.1419, 5.322510
347.6240, 10.55811
348.1061, 9.057861
348.5882, 1.951172
349.0703, 11.75366
349.5525, 7.066895
350.0346, 5.858154
350.5167, 8.555420
350.9988, 12.22192
351.4809, 36.14990
351.9630, 48.84668
352.4452, 50.84961
352.9273, 44.61548
353.4094, 27.80688
353.8915, 7.421631
354.3736, 2.600586
354.8557, 20.76880
355.3379, 35.27026
355.8200, 37.04541
356.3021, 33.36450
356.7842, 32.92505
357.2663, 37.40747
357.7484, 41.46338
358.2306, 39.10229
358.7127, 29.36401
359.1948, 17.86621
359.6769, 6.569336
360.1590, 21.62305
360.6411, 6.629639
361.1233, 25.25659
361.6054, 43.97168
362.0875, 30.59595
362.5696, 4.590088
363.0517, 23.93286
363.5338, 18.16504
364.0160, 10.50903
364.4981, 0.6154790
364.9802, 7.628662
365.4623, 10.31177
365.9444, 6.961670
366.4265, 1.653564
366.9087, 1.485596
367.3908, 2.408447
367.8729, 1.914063
368.3550, 1.166748
368.8371, 4.289795
369.3192, 7.507813
369.8014, 9.831299
370.2835, 8.587646
370.7656, 0.4643550
371.2477, 11.34204
371.7298, 11.92578
372.2119, 0.8540040
372.6941, 7.407715
373.1762, 6.427979
373.6583, 0.9580080
374.1404, 10.70117
374.6225, 23.96753
375.1046, 34.98950
375.5868, 40.23486
376.0689, 41.16089
376.5510, 41.21265
377.0331, 41.38525
377.5152, 37.99194
377.9973, 24.64478
378.4795, 8.6914003E-02
378.9616, 13.30811
379.4437, 4.627930
379.9258, 6.579590
380.4079, 9.181885
380.8900, 4.747559
381.3722, 0.8061520
381.8543, 4.392822
382.3364, 6.482666
382.8185, 8.672363
383.3006, 15.89966
383.7827, 16.17358
384.2649, 1.869385
384.7470, 19.65698
385.2291, 18.86768
385.7112, 1.365479
386.1933, 25.38257
386.6754, 36.96924
387.1576, 35.50391
387.6397, 32.20190
388.1218, 19.09937
388.6039, 13.92627
389.0860, 28.97827
389.5681, 53.87109
390.0503, 70.97656
390.5324, 71.02588
391.0145, 65.90088
391.4966, 78.11963
391.9787, 110.5112
392.4608, 132.1982
392.9430, 128.3652
393.4251, 116.2759
393.9072, 112.6011
394.3893, 117.5205
394.8714, 122.6006
395.3535, 121.6172
395.8357, 118.8259
396.3178, 121.9165
396.7999, 131.9343
397.2820, 144.2817
397.7641, 157.2173
398.2462, 169.8293
398.7284, 178.4634
399.2105, 182.5530
399.6926, 182.8054
400.1747, 171.6648
400.6568, 159.1804
401.1389, 166.7874
401.6211, 201.8320
402.1032, 243.3020
402.5853, 258.7056
403.0674, 233.0796
403.5495, 226.9590
404.0316, 255.8899
404.5138, 286.3091
404.9959, 301.6677
405.4780, 304.2844
405.9601, 302.6321
406.4422, 301.4363
406.9243, 302.2764
407.4065, 312.1323
407.8886, 337.6584
408.3707, 357.3579
408.8528, 363.3582
409.3349, 366.0291
409.8170, 373.3748
410.2992, 386.7754
410.7813, 403.3025
411.2634, 421.1169
411.7455, 439.7944
412.2276, 458.7732
412.7097, 479.5745
413.1919, 498.6890
413.6740, 511.8760
414.1561, 522.0181
414.6382, 534.2744
415.1203, 548.2437
415.6024, 566.3594
416.0846, 595.2273
416.5667, 630.3164
417.0488, 656.3489
417.5309, 666.1711
418.0130, 667.9502
418.4951, 675.0911
418.9773, 688.4106
419.4594, 703.7051
419.9415, 725.7449
420.4236, 744.9873
420.9057, 755.1206
421.3878, 758.0845
421.8700, 755.5396
422.3521, 747.2695
422.8342, 737.0696
423.3163, 742.6853
423.7984, 778.8879
424.2805, 808.0305
424.7627, 823.3621
425.2448, 832.8594
425.7269, 842.3691
426.2090, 853.1497
426.6911, 863.3176
427.1732, 869.5637
427.6554, 872.6006
428.1375, 881.1531
428.6196, 898.5549
429.1017, 914.2544
429.5838, 922.6821
430.0659, 927.4912
430.5481, 932.3145
431.0302, 937.5579
431.5123, 943.7405
431.9944, 953.5798
432.4765, 964.6357
432.9586, 967.7195
433.4408, 959.1287
433.9229, 948.1411
434.4050, 945.7280
434.8871, 952.8398
435.3692, 959.3931
435.8513, 971.7561
436.3335, 978.5095
436.8156, 967.2488
437.2977, 943.3367
437.7798, 920.1245
438.2619, 904.5854
438.7440, 894.7393
439.2262, 865.9141
439.7083, 869.9136
440.1904, 867.9961
440.6725, 860.4797
441.1546, 830.5269
441.6367, 829.5886
442.1189, 817.0151
442.6010, 803.4268
443.0831, 806.0857
443.5652, 793.6453
444.0473, 780.6436
444.5294, 768.1204
445.0116, 754.8367
445.4937, 738.2629
445.9758, 721.6667
446.4579, 709.2983
446.9400, 702.4495
447.4221, 694.0144
447.9043, 678.8909
448.3864, 659.2229
448.8685, 639.7598
449.3506, 621.1514
449.8327, 600.9321
450.3148, 575.6521
450.7970, 546.4050
451.2791, 523.8030
451.7612, 511.1936
452.2433, 500.7600
452.7254, 491.4346
453.2076, 482.2607
453.6897, 473.4202
454.1718, 464.5581
454.6539, 451.8645
455.1360, 428.9719
455.6181, 392.7332
456.1003, 364.3345
456.5824, 349.0845
457.0645, 336.9343
457.5466, 326.6943
458.0287, 317.2026
458.5108, 306.9827
458.9930, 295.3210
459.4751, 283.0938
459.9572, 270.9380
460.4393, 258.8684
460.9214, 248.4246
461.4035, 238.4661
461.8857, 232.3599
462.3678, 235.2351
462.8499, 245.2598
463.3320, 252.8682
463.8141, 259.2683
464.2962, 259.2231
464.7784, 244.4612
465.2605, 218.2615
465.7426, 192.0723
466.2247, 169.8406
466.7068, 154.0110
467.1889, 150.9204
467.6711, 174.2920
468.1532, 180.7871
468.6353, 150.6406
469.1174, 121.0632
469.5995, 119.5911
470.0816, 139.6509
470.5638, 156.9714
471.0459, 155.7095
471.5280, 142.9368
472.0101, 140.5408
472.4922, 154.3689
472.9743, 162.6409
473.4565, 150.5752
473.9386, 138.8296
474.4207, 145.0474
474.9028, 167.7019
475.3849, 185.1392
475.8670, 177.2463
476.3492, 159.3098
476.8313, 159.6248
477.3134, 178.9761
477.7955, 198.2495
478.2776, 208.6042
478.7597, 212.2798
479.2419, 213.4895
479.7240, 208.5227
480.2061, 210.3220
480.6882, 226.2341
481.1703, 246.6846
481.6524, 265.6047
482.1346, 280.9995
482.6167, 288.7419
483.0988, 284.0125
483.5809, 271.0505
484.0630, 273.6392
484.5451, 298.2573
485.0273, 328.8064
485.5094, 372.8301
485.9915, 414.2395
486.4736, 436.0808
486.9557, 438.7700
487.4378, 441.4817
487.9200, 459.6243
488.4021, 489.4580
488.8842, 522.7351
489.3663, 561.3481
489.8484, 587.1233
490.3305, 582.2566
490.8127, 562.9180
491.2948, 562.7129
491.7769, 585.5745
492.2590, 615.5051
492.7411, 655.5291
493.2232, 695.2637
493.7054, 721.8540
494.1875, 734.1553
494.6696, 737.9678
495.1517, 734.9407
495.6338, 728.6392
496.1159, 743.2637
496.5981, 801.6824
497.0802, 849.2444
497.5623, 878.7917
498.0444, 896.6643
498.5265, 904.1621
499.0086, 903.9390
499.4908, 904.8899
499.9729, 916.1873
500.4550, 935.0139
500.9371, 944.8081
501.4192, 941.1411
501.9013, 944.5254
502.3835, 969.9517
502.8656, 1003.780
503.3477, 1026.154
503.8298, 1037.262
504.3119, 1035.198
504.7940, 1004.294
505.2762, 967.7288
505.7583, 955.6299
506.2404, 967.4055
506.7225, 980.1060
507.2046, 978.4851
507.6867, 965.5830
508.1689, 954.1667
508.6510, 944.7007
509.1331, 935.1682
509.6152, 928.4263
510.0973, 919.3188
510.5794, 901.4092
511.0616, 877.1240
511.5437, 856.4341
512.0258, 849.4343
512.5079, 848.0500
512.9901, 827.8369
513.4722, 785.4893
513.9543, 747.9290
514.4364, 724.8381
514.9185, 709.8979
515.4006, 697.0210
515.8828, 687.3657
516.3649, 672.3040
516.8470, 645.9697
517.3291, 614.3708
517.8112, 579.1963
518.2933, 543.4226
518.7755, 516.0859
519.2576, 502.8252
519.7397, 496.7107
520.2218, 481.4089
520.7039, 452.9172
521.1860, 424.2893
521.6682, 390.9265
522.1503, 362.1895
522.6324, 344.5894
523.1145, 334.8840
523.5966, 326.9878
524.0787, 319.3901
524.5609, 308.2095
525.0430, 283.9407
525.5251, 246.7278
526.0072, 214.3577
526.4893, 190.2971
526.9714, 173.6284
527.4536, 166.3357
527.9357, 167.5657
528.4178, 168.6824
528.8999, 172.5232
529.3820, 170.9519
529.8641, 153.3621
530.3463, 127.8943
530.8284, 113.2559
531.3105, 115.4089
531.7926, 118.9504
532.2747, 99.57568
532.7568, 50.26172
533.2390, 23.73071
533.7211, 38.05420
534.2032, 54.28540
534.6853, 57.31470
535.1674, 55.18018
535.6495, 63.53442
536.1317, 89.13062
536.6138, 107.7544
537.0959, 88.23584
537.5780, 43.26953
538.0601, 14.44971
538.5422, 8.066162
539.0244, 10.29907
539.5065, 12.56299
539.9886, 14.49146
540.4707, 17.59912
540.9528, 27.89795
541.4349, 32.56396
541.9171, 25.04858
542.3992, 13.37720
542.8813, 3.524902
543.3634, 2.946045
543.8455, 5.227295
544.3276, 1.558594
544.8098, 5.745117
545.2919, 4.767822
545.7740, 9.808594
546.2561, 17.91992
546.7382, 7.378662
547.2203, 6.254639
547.7025, 10.63208
548.1846, 5.967285
548.6666, 1.133545
549.1487, 1.299805
549.6309, 2.307129
550.1130, 3.179688
550.5951, 12.67310
551.0772, 13.00732
551.5593, 2.541748
552.0414, 21.78735
552.5236, 24.29614
553.0057, 3.301270
553.4878, 11.75854
553.9699, 20.83423
554.4520, 25.06250
554.9341, 23.32349
555.4163, 17.53809
555.8984, 8.794434
556.3805, 2.744141
556.8626, 11.10449
557.3447, 3.161865
557.8268, 17.47607
558.3090, 17.43384
558.7911, 13.69141
559.2732, 42.10352
559.7553, 43.75049
560.2374, 25.45239
560.7195, 10.70752
561.2017, 4.319092
561.6838, 8.854248
562.1659, 12.04980
562.6480, 38.07959
563.1301, 46.79370
563.6122, 37.34473
564.0944, 22.10254
564.5765, 8.950195
565.0586, 1.175293
565.5407, 3.986572
566.0228, 4.173828
566.5049, 10.41309
566.9871, 13.44165
567.4692, 12.99048
567.9513, 5.830322
568.4334, 5.933350
568.9155, 13.14941
569.3976, 7.415283
569.8798, 0.4104000
570.3619, 2.966309
570.8440, 13.84009
571.3261, 18.69360
571.8082, 12.96069
572.2903, 4.732666
572.7725, 4.418945
573.2546, 13.55908
573.7367, 15.99390
574.2188, 4.069824
574.7009, 5.017334
575.1830, 4.919922
575.6652, 0.8469240
576.1473, 3.034180
576.6294, 5.126465
577.1115, 2.122314
577.5936, 16.02515
578.0757, 41.60791
578.5579, 44.90454
579.0400, 22.77783
579.5221, 2.570801
580.0042, 3.345947
580.4863, 3.0517999E-02
580.9684, 4.022705
581.4506, 9.563965
581.9327, 12.81787
582.4148, 11.36548
582.8969, 9.178223
583.3790, 10.42407
583.8611, 12.86060
584.3433, 10.30371
584.8254, 0.1198730
585.3075, 12.63574
585.7896, 18.00464
586.2717, 15.69604
586.7538, 11.91943
587.2360, 5.617676
587.7181, 6.2987998E-02
588.2002, 3.686035
588.6823, 5.274902
589.1644, 3.918213
589.6465, 0.4206540
590.1287, 7.917969
590.6108, 25.08398
591.0929, 42.00903
591.5750, 44.79004
592.0571, 33.56763
592.5392, 17.22998
593.0214, 1.066650
593.5035, 14.32812
593.9856, 28.16382
594.4677, 44.20288
594.9498, 49.58252
595.4319, 32.25879
595.9141, 13.85889
596.3962, 1.432861
596.8783, 3.343018
597.3604, 3.940918
597.8425, 32.38477
598.3246, 58.70239
598.8068, 55.08276
599.2889, 33.50781
599.7710, 27.63159
600.2531, 43.96606
600.7352, 60.75928
601.2173, 58.74463
601.6995, 40.76587
602.1816, 30.17334
602.6637, 32.84521
603.1458, 35.09961
603.6279, 32.46973
604.1100, 31.37866
604.5922, 37.46143
605.0743, 50.22388
605.5564, 66.50000
606.0385, 87.06323
606.5206, 106.8672
607.0027, 117.6101
607.4849, 120.1702
607.9670, 121.2805
608.4491, 122.3181
608.9312, 122.6267
609.4133, 121.5125
609.8954, 118.6250
610.3776, 115.8960
610.8597, 112.3479
611.3418, 109.8530
611.8239, 107.1541
612.3060, 106.8943
612.7881, 111.3250
613.2703, 121.1621
613.7524, 137.5503
614.2345, 154.4299
614.7166, 172.1436
615.1987, 183.4963
615.6808, 188.1023
616.1630, 168.6565
616.6451, 180.9746
617.1272, 180.8528
617.6093, 180.2139
618.0914, 196.8811
618.5735, 181.6431
619.0557, 197.8406
619.5378, 201.1755
620.0199, 198.6882
620.5020, 200.5679
620.9841, 208.2190
621.4662, 220.5945
621.9484, 226.7383
622.4305, 209.4514
622.9126, 181.0334
623.3947, 200.7078
623.8768, 281.6357
624.3589, 334.8394
624.8411, 321.3625
625.3232, 282.8511
625.8053, 264.5864
626.2874, 264.7529
626.7695, 275.6233
627.2516, 317.1753
627.7338, 348.1902
628.2159, 337.7095
628.6980, 306.0212
629.1801, 282.7012
629.6622, 275.7312
630.1443, 276.4424
630.6265, 275.1897
631.1086, 273.3357
631.5907, 285.0029
632.0728, 316.9724
632.5549, 339.6409
633.0370, 338.9675
633.5192, 328.9917
634.0013, 326.3530
634.4834, 330.6096
634.9655, 330.3169
635.4476, 313.1145
635.9297, 301.7161
636.4119, 314.3645
636.8940, 339.5127
637.3761, 359.7236
637.8582, 370.4978
638.3403, 375.6997
638.8224, 377.4968
639.3046, 376.8062
639.7867, 380.0444
640.2688, 389.3887
640.7509, 393.9624
641.2330, 386.2974
641.7151, 377.0371
642.1973, 379.7656
642.6794, 392.6636
643.1615, 397.0552
643.6436, 379.0979
644.1257, 363.7385
644.6078, 367.3606
645.0900, 381.3696
645.5721, 393.6953
646.0542, 400.9004
646.5363, 403.6294
647.0184, 401.5486
647.5005, 395.7935
647.9827, 393.3130
648.4648, 395.5608
648.9469, 391.4695
649.4290, 373.0476
649.9111, 355.7290
650.3932, 358.1196
650.8754, 376.6887
651.3575, 385.7166
651.8396, 370.9143
652.3217, 356.0662
652.8038, 350.9822
653.2859, 353.1611
653.7681, 360.9194
654.2502, 372.4504
654.7323, 383.2107
655.2144, 390.1523
655.6965, 394.2751
656.1786, 398.6877
656.6608, 404.8940
657.1429, 400.0715
657.6250, 371.6201
658.1071, 345.7600
658.5892, 351.8337
659.0714, 382.3376
659.5535, 404.1426
660.0356, 413.2461
660.5177, 414.5759
660.9998, 407.1316
661.4819, 394.3616
661.9641, 377.2271
662.4462, 357.9519
662.9283, 341.7712
663.4104, 332.0676
663.8925, 327.9861
664.3746, 328.7615
664.8568, 334.5579
665.3389, 340.2275
665.8210, 346.1511
666.3031, 348.8289
666.7852, 342.4597
667.2673, 330.6106
667.7495, 328.8770
668.2316, 347.7671
668.7137, 359.6299
669.1958, 354.5173
669.6779, 344.2498
670.1600, 340.8635
670.6422, 340.5078
671.1243, 327.9875
671.6064, 294.0579
672.0885, 257.3411
672.5706, 246.9014
673.0527, 258.8101
673.5349, 264.2944
674.0170, 259.5176
674.4991, 255.3711
674.9812, 259.8540
675.4633, 268.1523
675.9454, 267.2974
676.4276, 251.3501
676.9097, 239.1851
677.3918, 233.3577
677.8739, 229.3523
678.3560, 224.9729
678.8381, 220.7949
679.3203, 218.2878
679.8024, 217.9285
680.2845, 218.1875
680.7666, 216.7964
681.2487, 215.1770
681.7308, 219.2607
682.2130, 228.5901
682.6951, 229.6035
683.1772, 202.6880
683.6593, 214.2529
684.1414, 219.4688
684.6235, 218.6797
685.1057, 193.8682
685.5878, 200.0918
686.0699, 193.9805
686.5520, 187.4563
687.0341, 198.0811
687.5162, 176.8169
687.9984, 187.1836
688.4805, 184.9351
688.9626, 188.4746
689.4447, 179.8252
689.9268, 175.1931
690.4089, 182.6257
690.8911, 183.1323
691.3732, 172.7622
691.8553, 176.7244
692.3374, 155.1108
692.8195, 155.9541
693.3016, 166.5215
693.7838, 156.8179
694.2659, 161.0378
694.7480, 159.9617
695.2301, 134.8015
695.7122, 151.5471
696.1943, 142.7917
696.6765, 139.9646
697.1586, 130.6355
697.6407, 123.3101
698.1228, 126.3596
698.6049, 132.2598
699.0870, 129.3853
699.5692, 118.3025
700.0513, 109.0806
700.5334, 107.9844
701.0155, 110.4407
701.4976, 105.9280
701.9797, 93.89893
702.4619, 87.48047
702.9440, 91.33740
703.4261, 91.32568
703.9082, 73.65576
704.3903, 48.61670
704.8724, 41.74292
705.3546, 59.65601
705.8367, 75.23975
706.3188, 86.39575
706.8009, 92.72412
707.2830, 91.67603
707.7651, 86.43457
708.2473, 82.47559
708.7294, 81.31763
709.2115, 79.02856
709.6936, 70.94385
710.1757, 59.12109
710.6578, 47.33105
711.1400, 35.90869
711.6221, 29.77051
712.1042, 31.08545
712.5863, 36.68970
713.0684, 43.32861
713.5505, 51.17993
714.0327, 56.20483
714.5148, 57.75952
714.9969, 57.19873
715.4790, 52.13330
715.9611, 47.11328
716.4432, 45.51123
716.9254, 48.11621
717.4075, 54.10645
717.8896, 68.34839
718.3717, 79.78638
718.8538, 75.36865
719.3359, 63.19800
719.8181, 57.62646
720.3002, 59.85181
720.7823, 62.22388
721.2644, 60.21191
721.7465, 55.17358
722.2286, 48.49097
722.7108, 39.52148
723.1929, 36.66528
723.6750, 45.20386
724.1571, 50.49927
724.6392, 40.02539
725.1213, 22.51416
725.6035, 16.60938
726.0856, 26.48535
726.5677, 33.68481
727.0498, 34.82202
727.5319, 32.44580
728.0140, 24.21875
728.4962, 14.95239
728.9783, 13.07812
729.4604, 20.26831
729.9425, 28.50366
730.4246, 29.74048
730.9067, 27.19653
731.3889, 30.46558
731.8710, 38.26367
732.3531, 36.22412
732.8352, 18.61035
733.3173, 0.1280520
733.7994, 4.053345
734.2816, 5.105957
734.7637, 14.96082
735.2458, 28.09399
735.7279, 37.64368
736.2100, 42.29858
736.6921, 43.87573
737.1743, 44.50549
737.6564, 43.94238
738.1385, 39.90869
738.6206, 29.23352
739.1027, 20.62036
739.5848, 22.15771
740.0670, 26.33618
740.5491, 23.22302
741.0312, 14.52979
741.5133, 9.322388
741.9954, 12.02771
742.4775, 16.08081
742.9597, 9.720215
743.4418, 5.587769
743.9239, 8.880981
744.4060, 2.978882
744.8881, 13.20337
745.3702, 15.81433
745.8524, 12.70593
746.3345, 3.938477
746.8166, 12.40405
747.2987, 15.89307
747.7808, 7.049438
748.2629, 24.67126
748.7451, 29.30188
749.2272, 26.13184
749.7093, 15.96716
750.1914, 3.144653
750.6735, 2.057495
751.1556, 9.290405
751.6378, 22.09729
752.1199, 22.05798
752.6020, 13.78259
753.0841, 4.057373
753.5662, 5.413086
754.0483, 11.67834
754.5305, 12.79102
755.0126, 10.94446
755.4947, 11.44580
755.9768, 15.29480
756.4589, 10.95386
756.9410, 7.030273
757.4232, 19.54663
757.9053, 12.71106
758.3874, 0.2080080
758.8695, 5.981201
759.3516, 32.51392
759.8337, 48.55115
760.3159, 42.70129
760.7980, 36.53503
761.2801, 41.09534
761.7622, 47.50134
762.2443, 43.61987
762.7264, 30.69751
763.2086, 22.62048
763.6907, 28.96265
764.1728, 39.01709
764.6549, 44.71619
765.1370, 46.56238
765.6191, 43.50891
766.1013, 36.32947
766.5834, 33.00122
767.0655, 38.98987
767.5476, 49.39392
768.0297, 54.07385
768.5118, 52.44763
768.9940, 44.94604
769.4761, 26.20813
769.9582, 13.62305
770.4403, 17.91675
770.9224, 30.39526
771.4045, 40.58069
771.8867, 49.03589
772.3688, 48.70068
772.8509, 32.10938
773.3330, 14.48401
773.8151, 5.880127
774.2972, 19.22693
774.7794, 9.517090
775.2615, 18.58069
775.7436, 40.48169
776.2257, 41.52490
776.7078, 33.17798
777.1899, 26.98889
777.6721, 21.52478
778.1542, 10.62500
778.6363, 4.743164
779.1184, 11.50903
779.6005, 1.656128
780.0826, 16.08252
780.5648, 25.75403
781.0469, 26.66418
781.5290, 25.76587
782.0111, 21.99023
782.4932, 19.24622
782.9753, 19.30347
783.4575, 20.85034
783.9396, 22.54895
784.4217, 24.37048
784.9038, 25.63123
785.3859, 28.67957
785.8680, 28.10889
786.3502, 25.54871
786.8323, 40.63208
787.3144, 49.36194
787.7965, 52.03955
788.2786, 30.68311
788.7607, 40.35083
789.2429, 37.58057
789.7250, 34.29529
790.2071, 48.33899
790.6892, 30.51599
791.1713, 25.16760
791.6534, 31.31177
792.1356, 26.33472
792.6177, 17.72131
793.0998, 17.28247
793.5819, 23.26001
794.0640, 15.14917
794.5461, 10.68579
795.0283, 27.39673
795.5104, 25.32385
795.9925, 15.81934
796.4746, 9.088135
796.9567, 4.705444
797.4388, 9.7655997E-02
797.9210, 4.248657
798.4031, 9.922607
798.8852, 23.57227
799.3673, 32.07788
799.8494, 21.73291
800.3315, 2.600708
800.8137, 5.136719
801.2958, 4.606689
801.7779, 14.48938
802.2600, 15.37085
802.7421, 13.31946
803.2242, 12.67090
803.7064, 13.78821
804.1885, 19.12646
804.6706, 27.54614
805.1527, 29.48706
805.6348, 13.17151
806.1169, 9.128296
806.5991, 6.770386
807.0812, 16.65356
807.5633, 35.13391
808.0454, 44.41907
808.5275, 45.30969
809.0096, 36.90356
809.4918, 23.75464
809.9739, 17.85010
810.4560, 21.14392
810.9381, 24.68286
811.4202, 29.83215
811.9023, 32.55750
812.3845, 27.16516
812.8666, 21.64136
813.3487, 28.52380
813.8308, 47.51453
814.3129, 54.43750
814.7950, 33.64697
815.2772, 15.57080
815.7593, 12.33948
816.2414, 14.98987
816.7235, 15.58691
817.2056, 14.33325
817.6877, 14.98413
818.1699, 19.15710
818.6520, 25.38806
819.1341, 38.81067
819.6162, 49.93530
820.0983, 35.48462
820.5804, 4.371704
821.0626, 6.514893
821.5447, 15.15100
822.0268, 44.39893
822.5089, 53.75256
822.9910, 47.77942
823.4731, 47.36792
823.9553, 53.14050
824.4374, 48.65784
824.9195, 26.72510
825.4016, 9.721924
825.8837, 16.60193
826.3658, 39.71423
826.8480, 53.51465
827.3301, 56.30713
827.8122, 53.64600
828.2943, 40.51746
828.7764, 29.41663
829.2585, 24.31909
829.7407, 23.28149
830.2228, 23.73035
830.7049, 25.42017
831.1870, 25.79456
831.6691, 16.01135
832.1512, 13.41846
832.6334, 38.34180
833.1155, 67.62598
833.5976, 76.03918
834.0797, 66.88745
834.5618, 53.96851
835.0439, 44.15308
835.5261, 37.85791
836.0082, 34.02502
836.4903, 33.72681
836.9724, 43.91956
837.4545, 61.56567
837.9366, 70.23572
838.4188, 64.53271
838.9009, 56.20886
839.3830, 58.92993
839.8651, 67.81201
840.3472, 62.05225
840.8293, 41.21973
841.3115, 28.85706
841.7936, 30.16028
842.2757, 35.40613
842.7578, 39.03235
843.2399, 40.70947
843.7220, 38.99182
844.2042, 31.10815
844.6863, 29.33252
845.1684, 38.37048
845.6505, 46.80408
846.1326, 54.41968
846.6147, 57.94043
847.0969, 50.57837
847.5790, 33.72546
848.0611, 24.51355
848.5432, 31.01953
849.0253, 37.58655
849.5074, 39.81921
849.9896, 40.69385
850.4717, 42.39551
850.9538, 44.65503
851.4359, 47.15601
851.9180, 49.98706
852.4001, 47.93140
852.8823, 35.11389
853.3644, 20.16187
853.8465, 7.907837
854.3286, 0.9444580
854.8107, 6.897705
855.2928, 25.10608
855.7750, 42.91797
856.2571, 51.31885
856.7392, 53.17468
857.2213, 51.85779
857.7034, 48.16968
858.1855, 45.76807
858.6677, 44.96680
859.1498, 44.03455
859.6319, 41.20874
860.1140, 39.20154
860.5961, 43.70862
861.0782, 54.25671
861.5604, 57.76050
862.0425, 53.37732
862.5246, 44.26685
863.0067, 26.43494
863.4888, 12.97412
863.9709, 16.23938
864.4531, 31.57166
864.9352, 38.09875
865.4173, 27.75476
865.8994, 22.55762
866.3815, 19.36658
866.8636, 24.79236
867.3458, 57.34949
867.8279, 89.38562
868.3100, 80.79578
868.7921, 33.48926
869.2742, 6.292847
869.7563, 31.35645
870.2385, 56.84375
870.7206, 67.32629
871.2027, 66.28650
871.6848, 47.49463
872.1669, 21.69775
872.6490, 13.29163
873.1312, 30.96948
873.6133, 49.57776
874.0954, 49.88562
874.5775, 42.62793
875.0596, 38.56750
875.5417, 36.81409
876.0239, 33.34692
876.5060, 28.44543
876.9881, 29.16187
877.4702, 41.59485
877.9523, 56.36829
878.4344, 55.04407
878.9166, 42.48401
879.3987, 39.81067
879.8808, 47.00232
880.3629, 57.84253
880.8450, 70.44653
881.3271, 75.84753
881.8093, 60.88086
882.2914, 30.15430
882.7735, 13.63953
883.2556, 13.02502
883.7377, 14.44067
884.2198, 17.35730
884.7020, 15.31409
885.1841, 0.9226070
885.6662, 17.23132
886.1483, 19.35315
886.6304, 0.6868900
887.1125, 12.47253
887.5947, 19.76501
888.0768, 21.97302
888.5589, 13.07739
889.0410, 4.635498
889.5231, 11.69287
890.0052, 28.82056
890.4874, 30.16809
890.9695, 3.234009
891.4516, 21.65808
891.9337, 5.929810
892.4158, 12.75232
892.8979, 17.94690
893.3801, 16.03162
893.8622, 16.28064
894.3443, 19.99426
894.8264, 24.07153
895.3085, 29.94409
895.7906, 32.54028
896.2728, 23.28894
896.7549, 13.87939
897.2370, 18.79138
897.7191, 34.00916
898.2012, 48.38855
898.6833, 58.02161
899.1655, 58.88623
899.6476, 37.37305
900.1297, 13.67273
900.6118, 20.46509
901.0939, 42.14246
901.5760, 40.34460
902.0582, 13.22522
902.5403, 7.524536
903.0224, 1.753662
903.5045, 17.73169
903.9866, 38.53601
904.4688, 56.92554
904.9509, 56.73206
905.4330, 38.48950
905.9151, 52.58777
906.3972, 60.35779
906.8793, 62.13855
907.3615, 39.89404
907.8436, 48.67590
908.3257, 45.02393
908.8078, 40.86072
909.2899, 54.00867
909.7720, 25.32812
910.2542, 31.30457
910.7363, 50.06421
911.2184, 69.29578
911.7005, 70.34082
912.1826, 53.30310
912.6647, 38.52246
913.1469, 24.25537
913.6290, 17.43884
914.1111, 21.38159
914.5932, 29.55432
915.0753, 42.05847
915.5574, 52.97571
916.0396, 46.05676
916.5217, 10.91370
917.0038, 2.752563
917.4859, 23.26074
917.9680, 45.04871
918.4501, 50.38330
918.9323, 49.55737
919.4144, 49.37695
919.8965, 49.71851
920.3786, 49.42798
920.8607, 47.09656
921.3428, 47.02466
921.8250, 52.53284
922.3071, 57.48181
922.7892, 57.97217
923.2713, 57.00854
923.7534, 58.52295
924.2355, 62.39868
924.7177, 65.21204
925.1998, 66.59753
925.6819, 65.63257
926.1640, 55.12891
926.6461, 48.51855
927.1282, 65.19751
927.6104, 90.10046
928.0925, 91.93469
928.5746, 66.35938
929.0567, 48.35730
929.5388, 68.85217
930.0209, 90.81921
930.5031, 77.98926
930.9852, 56.42822
931.4673, 65.93909
931.9494, 95.91064
932.4315, 103.8948
932.9136, 75.01587
933.3958, 46.61768
933.8779, 55.63416
934.3600, 79.33789
934.8421, 92.53711
935.3242, 96.49255
935.8063, 91.78101
936.2885, 80.85413
936.7706, 70.51941
937.2527, 64.87634
937.7348, 65.96741
938.2169, 81.22485
938.6990, 102.0984
939.1812, 110.1941
939.6633, 105.9851
940.1454, 87.46069
940.6275, 57.23181
941.1096, 38.09595
941.5917, 48.82288
942.0739, 73.06897
942.5560, 83.03430
943.0381, 80.29956
943.5202, 68.22229
944.0023, 49.38257
944.4844, 44.45264
944.9666, 58.72766
945.4487, 74.33643
945.9308, 75.02478
946.4129, 65.80688
946.8950, 60.19312
947.3771, 58.22693
947.8593, 56.20825
948.3414, 53.58118
948.8235, 55.95557
949.3056, 66.39172
949.7877, 74.75818
950.2698, 64.93689
950.7520, 41.38586
951.2341, 31.14575
951.7162, 36.73840
952.1983, 38.18518
952.6804, 31.02246
953.1625, 30.45654
953.6447, 46.21313
954.1268, 66.60852
954.6089, 76.45935
955.0910, 75.97021
955.5731, 69.67444
956.0552, 53.46655
956.5374, 44.72327
957.0195, 48.80591
957.5016, 53.46594
957.9837, 50.73047
958.4658, 46.31470
958.9479, 50.87073
959.4301, 65.65662
959.9122, 71.43225
960.3943, 64.57007
960.8764, 55.27747
961.3585, 42.96265
961.8406, 30.41370
962.3228, 16.94434
962.8049, 5.737549
963.2870, 3.916016
963.7691, 13.65845
964.2512, 21.13672
964.7333, 25.63306
965.2155, 28.90833
965.6976, 33.19421
966.1797, 34.46313
966.6618, 26.12659
967.1439, 13.77026
967.6260, 10.94666
968.1082, 20.90381
968.5903, 28.53101
969.0724, 33.87695
969.5545, 35.80652
970.0366, 30.45825
970.5187, 24.83716
971.0009, 25.44299
971.4830, 29.84436
971.9651, 30.05627
972.4472, 21.57800
972.9293, 22.48438
973.4114, 54.73645
973.8936, 71.89417
974.3757, 37.91858
974.8578, 1.630127
975.3399, 2.143066
975.8220, 26.21497
976.3041, 46.75977
976.7863, 54.25732
977.2684, 52.00525
977.7505, 30.51270
978.2326, 11.80786
978.7147, 6.890381
979.1968, 8.369873
979.6790, 9.235840
980.1611, 9.566284
980.6432, 12.59729
981.1253, 20.61072
981.6074, 26.30566
982.0895, 27.18616
982.5717, 25.60608
983.0538, 20.44641
983.5359, 15.13928
984.0180, 12.83972
984.5001, 13.77368
984.9822, 18.30664
985.4644, 30.17004
985.9465, 35.16528
986.4286, 20.21545
986.9107, 4.280273
987.3928, 1.701294
987.8749, 2.030029
988.3571, 2.144775
988.8392, 2.052979
989.3213, 1.464966
989.8034, 10.28479
990.2855, 19.86108
990.7676, 32.97766
991.2498, 41.13452
991.7319, 38.12390
992.2140, 27.48950
992.6961, 8.243652
993.1782, 14.80518
993.6603, 25.01733
994.1425, 13.75183
994.6246, 1.856445
995.1067, 20.14209
995.5888, 33.84082
996.0709, 38.43311
996.5530, 35.16541
997.0352, 20.21924
997.5173, 1.571899
997.9994, 11.41919
998.4815, 0.7493900
998.9636, 15.87146
999.4457, 45.57312
999.9279, 64.15344
1000.410, 40.20715
1000.892, 4.308350
1001.374, 1.240967
1001.856, 21.00391
1002.338, 37.41028
1002.821, 35.68298
1003.303, 29.30493
1003.785, 15.95813
1004.267, 9.465332
1004.749, 29.55798
1005.231, 55.54077
1005.713, 57.44067
1006.195, 38.90759
1006.677, 28.89685
1007.160, 40.36243
1007.642, 49.92566
1008.124, 45.82043
1008.606, 37.57080
1009.088, 26.67407
1009.570, 18.37854
1010.052, 21.68225
1010.534, 33.35486
1011.017, 39.20471
1011.499, 33.91272
1011.981, 26.20764
1012.463, 16.16858
1012.945, 8.994507
1013.427, 7.244385
1013.909, 10.54932
1014.391, 22.22620
1014.873, 38.51392
1015.356, 47.60083
1015.838, 43.48022
1016.320, 39.22595
1016.802, 46.65161
1017.284, 49.66174
1017.766, 32.36694
1018.248, 11.85681
1018.730, 4.651978
1019.213, 10.14868
1019.695, 22.85657
1020.177, 44.26794
1020.659, 58.61414
1021.141, 60.30823
1021.623, 54.42786
1022.105, 33.97083
1022.587, 14.97607
1023.069, 14.55310
1023.552, 27.38879
1024.034, 38.70496
1024.516, 46.48816
1024.998, 48.94373
1025.480, 41.20105
1025.962, 32.42944
1026.444, 24.74402
1026.926, 19.57922
1027.409, 17.50098
1027.891, 18.90747
1028.373, 26.59167
1028.855, 42.58423
1029.337, 49.94714
1029.819, 38.21838
1030.301, 27.78601
1030.783, 23.84180
1031.266, 23.48181
1031.748, 26.29541
1032.230, 29.66052
1032.712, 32.62622
1033.194, 35.36853
1033.676, 36.96411
1034.158, 33.05017
1034.640, 34.01440
1035.122, 49.44312
1035.604, 61.63623
1036.087, 58.36462
1036.569, 47.11829
1037.051, 38.28638
1037.533, 32.04163
1038.015, 27.63330
1038.497, 24.47827
1038.979, 24.08130
1039.461, 27.67676
1039.944, 32.56152
1040.426, 37.53943
1040.908, 43.39758
1041.390, 55.07935
1041.872, 70.49524
1042.354, 64.84290
1042.836, 19.98425
1043.318, 5.162354
1043.800, 1.725464
1044.283, 8.054810
1044.765, 19.38806
1045.247, 29.08081
1045.729, 34.24658
1046.211, 35.77222
1046.693, 33.79846
1047.175, 22.38196
1047.657, 21.28003
1048.140, 36.70605
1048.622, 45.27393
1049.104, 38.46008
1049.586, 25.86804
1050.068, 13.11121
1050.550, 3.947266
1051.032, 10.27905
1051.514, 35.15137
1051.996, 47.15747
1052.479, 44.26599
1052.961, 39.99854
1053.443, 37.63428
1053.925, 33.43701
1054.407, 23.21875
1054.889, 15.21472
1055.371, 27.63843
1055.853, 57.26733
1056.335, 72.32825
1056.818, 71.75903
1057.300, 64.22424
1057.782, 51.27234
1058.264, 42.49231
1058.746, 43.09888
1059.228, 48.25415
1059.710, 53.64856
1060.192, 56.91895
1060.675, 55.58008
1061.157, 66.38257
1061.639, 70.82678
1062.121, 69.25708
1062.603, 43.65613
1063.085, 49.08313
1063.567, 42.07849
1064.049, 34.56128
1064.531, 44.35205
1065.014, 22.23169
1065.496, 9.218506
1065.978, 8.426025
1066.460, 5.916016
1066.942, 7.099731
1067.424, 12.96582
1067.906, 19.34387
1068.388, 23.57947
1068.870, 26.40405
1069.353, 27.78137
1069.835, 28.90637
1070.317, 34.55737
1070.799, 39.99304
1071.281, 33.65173
1071.763, 16.72888
1072.245, 0.7099610
1072.727, 10.36853
1073.210, 12.01343
1073.692, 6.515259
1074.174, 27.71765
1074.656, 37.17371
1075.138, 40.63623
1075.620, 46.13367
1076.102, 52.34790
1076.584, 51.91187
1077.067, 42.56934
1077.549, 37.28979
1078.031, 51.35083
1078.513, 57.94287
1078.995, 29.00330
1079.477, 3.657593
1079.959, 25.84485
1080.441, 65.95801
1080.923, 69.27368
1081.406, 31.77820
1081.888, 3.801392
1082.370, 3.786133
1082.852, 4.303467
1083.334, 5.863037
1083.816, 16.07397
1084.298, 21.02539
1084.780, 24.01941
1085.262, 31.00745
1085.745, 39.61499
1086.227, 37.07410
1086.709, 15.32703
1087.191, 4.666260
1087.673, 13.08582
1088.155, 15.57788
1088.637, 0.1734620
1089.119, 11.89612
1089.602, 0.1657710
1090.084, 23.05835
1090.566, 26.95581
1091.048, 10.73096
1091.530, 10.23975
1092.012, 29.50598
1092.494, 36.95081
1092.976, 25.45642
1093.458, 16.23450
1093.941, 20.57739
1094.423, 28.81079
1094.905, 28.02283
1095.387, 21.69458
1095.869, 23.75891
1096.351, 32.79187
1096.833, 38.76538
1097.315, 40.53772
1097.797, 35.05554
1098.280, 21.95410
1098.762, 10.77539
1099.244, 10.23193
1099.726, 13.42041
1100.208, 7.424072
1100.690, 5.4931998E-02
1101.172, 10.45166
1101.654, 31.01929
1102.137, 39.06897
1102.619, 31.74512
1103.101, 15.50415
1103.583, 7.551880
1104.065, 20.64575
1104.547, 1.668579
1105.029, 24.81543
1105.511, 41.79626
1105.994, 48.86084
1106.476, 40.75110
1106.958, 24.49805
1107.440, 12.00061
1107.922, 6.524902
1108.404, 12.79810
1108.886, 47.97217
1109.368, 72.34985
1109.850, 64.54529
1110.333, 48.83252
1110.815, 34.32153
1111.297, 24.21399
1111.779, 25.59241
1112.261, 34.91443
1112.743, 32.82227
1113.225, 8.970093
1113.707, 4.591431
1114.189, 1.490234
1114.672, 3.212891
1115.154, 5.693848
1115.636, 9.973999
1116.118, 20.96252
1116.600, 33.22864
1117.082, 35.92151
1117.564, 28.97827
1118.046, 25.42468
1118.529, 25.61169
1119.011, 28.01538
1119.493, 33.42407
1119.975, 33.75244
1120.457, 24.71069
1120.939, 15.48779
1121.421, 15.77759
1121.903, 22.34436
1122.385, 27.49988
1122.868, 31.51624
1123.350, 36.44312
1123.832, 40.77271
1124.314, 36.74878
1124.796, 24.76624
1125.278, 23.47278
1125.760, 44.29309
1126.242, 64.97046
1126.724, 54.10925
1127.207, 33.54114
1127.689, 37.32898
1128.171, 50.07458
1128.653, 43.71716
1129.135, 24.22156
1129.617, 14.76196
1130.099, 20.64551
1130.581, 28.39856
1131.064, 33.96594
1131.546, 38.19678
1132.028, 37.59863
1132.510, 37.59766
1132.992, 45.63269
1133.474, 53.72681
1133.956, 48.83325
1134.438, 34.94055
1134.921, 31.64404
1135.403, 46.94971
1135.885, 53.33948
1136.367, 37.16931
1136.849, 29.44043
1137.331, 43.13123
1137.813, 54.96790
1138.295, 50.87854
1138.777, 37.79651
1139.260, 23.57703
1139.742, 9.622681
1140.224, 12.21362
1140.706, 35.70166
1141.188, 44.23633
1141.670, 33.86194
1142.152, 20.60974
1142.634, 9.086670
1143.116, 5.714966
1143.599, 16.46558
1144.081, 33.38733
1144.563, 46.03271
1145.045, 52.45947
1145.527, 40.21863
1146.009, 17.84351
1146.491, 14.48706
1146.973, 28.41809
1147.456, 36.77100
1147.938, 30.52087
1148.420, 27.29224
1148.902, 44.86841
1149.384, 62.84290
1149.866, 60.23755
1150.348, 51.85803
1150.830, 54.68506
1151.313, 60.47559
1151.795, 51.51965
1152.277, 31.48218
1152.759, 25.26843
1153.241, 44.63123
1153.723, 54.90649
1154.205, 34.43250
1154.687, 23.03015
1155.169, 51.18140
1155.651, 70.89233
1156.134, 38.19385
1156.616, 7.726074
1157.098, 5.978882
1157.580, 37.49707
1158.062, 47.13049
1158.544, 9.222168
1159.026, 4.145020
1159.508, 43.15698
1159.991, 68.33191
1160.473, 61.17786
1160.955, 46.99597
1161.437, 43.16052
1161.919, 43.79871
1162.401, 41.10242
1162.883, 36.03857
1163.365, 35.75574
1163.848, 37.90662
1164.330, 33.59705
1164.812, 24.35754
1165.294, 17.44690
1165.776, 15.76123
1166.258, 17.61462
1166.740, 23.15198
1167.222, 28.17981
1167.704, 26.69885
1168.187, 25.83521
1168.669, 36.53967
1169.151, 48.31531
1169.633, 46.78784
1170.115, 34.60852
1170.597, 21.20007
1171.079, 6.691650
1171.561, 3.095459
1172.043, 27.30933
1172.526, 41.26062
1173.008, 31.19189
1173.490, 21.23560
1173.972, 23.63757
1174.454, 27.27991
1174.936, 18.42273
1175.418, 3.154419
1175.900, 4.830566
1176.383, 25.41052
1176.865, 33.59863
1177.347, 29.03735
1177.829, 29.72314
1178.311, 38.72522
1178.793, 40.39453
1179.275, 27.09924
1179.757, 9.857910
1180.240, 1.933838
1180.722, 6.226807
1181.204, 3.686768
1181.686, 21.30774
1182.168, 40.18738
1182.650, 55.63660
1183.132, 57.24670
1183.614, 47.09058
1184.096, 39.78064
1184.578, 41.23340
1185.061, 36.79443
1185.543, 50.88123
1186.025, 58.61084
1186.507, 60.32544
1186.989, 37.98706
1187.471, 46.69958
1187.953, 42.98755
1188.435, 38.74341
1188.918, 41.61938
1189.400, 41.23779
1189.882, 34.16162
1190.364, 32.85706
1190.846, 39.39563
1191.328, 42.30310
1191.810, 38.71399
1192.292, 33.53394
1192.775, 29.36780
1193.257, 26.17383
1193.739, 23.07153
1194.221, 22.15845
1194.703, 31.93335
1195.185, 46.81824
1195.667, 50.92712
1196.149, 48.09277
1196.631, 39.17639
1197.114, 27.11731
1197.596, 20.64062
1198.078, 24.28149
1198.560, 26.94421
1199.042, 15.04211
1199.524, 8.768188
1200.006, 29.95789
1200.488, 50.65894
1200.970, 44.31946
1201.453, 26.09253
1201.935, 19.52795
1202.417, 24.25488
1202.899, 25.93835
1203.381, 21.20361
1203.863, 25.94482
1204.345, 46.43762
1204.827, 54.94592
1205.310, 43.77783
1205.792, 29.79675
1206.274, 21.56506
1206.756, 17.41956
1207.238, 15.50720
1207.720, 14.80933
1208.202, 15.22302
1208.684, 16.03491
1209.167, 17.86084
1209.649, 20.47668
1210.131, 24.66260
1210.613, 29.04431
1211.095, 26.82141
1211.577, 15.09277
1212.059, 6.813477
1212.541, 16.48865
1213.023, 22.79468
1213.505, 6.726196
1213.988, 8.108154
1214.470, 3.147949
1214.952, 11.01624
1215.434, 23.62988
1215.916, 32.96985
1216.398, 34.70337
1216.880, 27.05542
1217.362, 22.33374
1217.845, 20.02881
1218.327, 24.78894
1218.809, 39.42029
1219.291, 44.44543
1219.773, 31.09241
1220.255, 15.18884
1220.737, 11.35352
1221.219, 12.73425
1221.702, 4.809692
1222.184, 5.311035
1222.666, 0.3632810
1223.148, 13.80139
1223.630, 14.08020
1224.112, 3.619629
1224.594, 13.56909
1225.076, 47.71216
1225.558, 68.36328
1226.041, 51.18811
1226.523, 35.41235
1227.005, 36.71741
1227.487, 38.75232
1227.969, 31.42407
1228.451, 20.10303
1228.933, 24.99573
1229.415, 34.28992
1229.897, 34.93347
1230.380, 27.56506
1230.862, 19.34229
1231.344, 10.46118
1231.826, 7.850220
1232.308, 11.14941
1232.790, 9.433838
1233.272, 0.9755860
1233.754, 0.0000000E+00
##END=



