##NAMES=Gladiusite
##RRUFFID=R070432
##IDEAL CHEMISTRY=Fe^3+^_2_Fe^2+^_4_PO_4_(OH)_11_&#183;H_2_O
##LOCALITY=Kovdor mine, Kovdor Massif, Kola Peninsula, Murmanskaja Oblast', Northern Region, Russia
##OWNER=RRUFF
##SOURCE=Michael Scott
##DESCRIPTION=Bundles of olive green fibers on dolomite matrix
##STATUS=The identification of this mineral is not yet confirmed.
##URL=rruff.info/R070432
174.0287, 0.0000000E+00
174.5108, 11.03131
174.9929, 18.20020
175.4750, 24.66443
175.9571, 10.35580
176.4392, 0.6327210
176.9214, 2.553864
177.4035, 15.67038
177.8856, 27.56580
178.3677, 31.45151
178.8498, 32.89368
179.3319, 31.67459
179.8141, 30.95627
180.2962, 31.43307
180.7783, 36.91043
181.2604, 45.63196
181.7425, 49.23303
182.2246, 34.56931
182.7068, 10.30380
183.1889, 1.597473
183.6710, 6.932251
184.1531, 23.79559
184.6352, 29.52625
185.1173, 24.65533
185.5995, 17.23499
186.0816, 12.09592
186.5637, 9.239410
187.0458, 9.700989
187.5279, 15.98389
188.0100, 24.27792
188.4922, 24.18552
188.9743, 14.98288
189.4564, 5.299988
189.9385, 4.016174
190.4206, 10.17206
190.9027, 16.43814
191.3849, 21.12732
191.8670, 24.24509
192.3491, 25.16318
192.8312, 23.41562
193.3133, 21.86188
193.7955, 25.65152
194.2776, 34.60770
194.7597, 39.83978
195.2418, 35.55548
195.7239, 23.47049
196.2060, 19.04028
196.6882, 20.83722
197.1703, 25.79861
197.6524, 29.29916
198.1345, 25.33817
198.6166, 21.81256
199.0987, 20.71863
199.5809, 22.55072
200.0630, 26.40918
200.5451, 34.67334
201.0272, 42.96411
201.5093, 39.82281
201.9914, 23.26566
202.4736, 8.029114
202.9557, 1.991364
203.4378, 5.853271
203.9199, 10.75412
204.4020, 16.47070
204.8841, 22.80130
205.3663, 30.64261
205.8484, 41.75095
206.3305, 48.38889
206.8126, 42.96536
207.2947, 22.18762
207.7768, 10.58676
208.2590, 13.08493
208.7411, 25.25439
209.2232, 30.76599
209.7053, 26.96613
210.1874, 22.89847
210.6695, 26.61703
211.1517, 41.77460
211.6338, 49.04919
212.1159, 43.99823
212.5980, 28.94315
213.0801, 17.22293
213.5622, 9.144135
214.0444, 4.013000
214.5265, 1.867462
215.0086, 3.637054
215.4907, 5.455658
215.9728, 7.775238
216.4549, 9.346771
216.9371, 7.643646
217.4192, 0.1671750
217.9013, 6.898560
218.3834, 3.499786
218.8655, 16.77289
219.3476, 28.32797
219.8298, 22.16187
220.3119, 1.928802
220.7940, 13.63348
221.2761, 8.327759
221.7582, 4.077240
222.2403, 13.86578
222.7225, 21.94620
223.2046, 24.57660
223.6867, 18.24988
224.1688, 1.343414
224.6509, 5.375092
225.1330, 3.665833
225.6152, 17.60818
226.0973, 21.44519
226.5794, 9.290619
227.0615, 1.026001
227.5436, 4.747253
228.0257, 1.221039
228.5079, 5.512085
228.9900, 18.52283
229.4721, 32.49942
229.9542, 39.37030
230.4363, 35.95221
230.9185, 31.23492
231.4006, 27.95111
231.8827, 26.93033
232.3648, 24.38428
232.8469, 18.67197
233.3290, 12.36539
233.8112, 10.51459
234.2933, 16.65494
234.7754, 21.18488
235.2575, 19.57324
235.7396, 7.811493
236.2217, 2.895050
236.7039, 8.361481
237.1860, 19.03171
237.6681, 24.13721
238.1502, 19.70584
238.6323, 15.99500
239.1144, 17.59525
239.5966, 28.41992
240.0787, 33.74179
240.5608, 31.57523
241.0429, 24.44101
241.5250, 18.25848
242.0071, 11.41721
242.4893, 7.571136
242.9714, 8.862701
243.4535, 18.57156
243.9356, 25.79465
244.4177, 29.91360
244.8998, 31.69629
245.3820, 33.56021
245.8641, 37.92615
246.3462, 38.77850
246.8283, 31.43097
247.3104, 6.949249
247.7925, 3.532623
248.2747, 7.275848
248.7568, 30.81833
249.2389, 42.11429
249.7210, 34.32571
250.2031, 24.64420
250.6852, 21.63522
251.1674, 29.05191
251.6495, 34.31647
252.1316, 37.07379
252.6137, 37.43442
253.0958, 34.95688
253.5779, 26.64789
254.0601, 20.13446
254.5422, 20.83084
255.0243, 34.44266
255.5064, 40.05945
255.9885, 34.08664
256.4706, 19.98669
256.9528, 8.108398
257.4349, 4.251190
257.9170, 9.903748
258.3991, 2.609894
258.8812, 25.59967
259.3633, 44.12448
259.8455, 49.21359
260.3276, 43.99634
260.8097, 38.48843
261.2918, 30.97733
261.7739, 26.33643
262.2560, 28.31491
262.7382, 40.17065
263.2203, 49.00290
263.7024, 54.17850
264.1845, 55.85583
264.6666, 54.35693
265.1487, 48.80304
265.6309, 41.90417
266.1130, 33.83362
266.5951, 21.98215
267.0772, 19.16177
267.5593, 29.82449
268.0414, 48.88974
268.5236, 58.34402
269.0057, 55.77982
269.4878, 49.62485
269.9699, 43.92999
270.4520, 38.10742
270.9341, 36.21054
271.4163, 40.44882
271.8984, 47.91220
272.3805, 48.11966
272.8626, 37.99814
273.3447, 29.71497
273.8268, 32.62827
274.3090, 48.98807
274.7911, 60.90826
275.2732, 66.53571
275.7553, 66.40884
276.2374, 62.31055
276.7195, 53.08801
277.2017, 43.79977
277.6838, 35.86475
278.1659, 28.65182
278.6480, 30.82812
279.1301, 48.68091
279.6122, 73.24832
280.0944, 80.46866
280.5765, 67.50351
281.0586, 52.88702
281.5407, 48.61084
282.0229, 54.76611
282.5050, 59.00934
282.9871, 60.04941
283.4692, 59.74100
283.9513, 64.60675
284.4334, 75.44745
284.9156, 82.06238
285.3977, 74.65723
285.8798, 54.92590
286.3619, 42.07413
286.8440, 38.69672
287.3261, 41.23666
287.8083, 43.55762
288.2904, 45.65247
288.7725, 48.32443
289.2546, 53.47266
289.7367, 60.15741
290.2188, 62.67133
290.7010, 59.68051
291.1831, 54.32520
291.6652, 52.37943
292.1473, 53.51303
292.6294, 53.31213
293.1115, 46.46695
293.5937, 35.84863
294.0758, 32.91138
294.5579, 40.43375
295.0400, 50.01663
295.5221, 48.31250
296.0042, 37.14398
296.4864, 27.41043
296.9685, 25.11319
297.4506, 28.40952
297.9327, 33.66223
298.4148, 41.07419
298.8969, 48.54059
299.3791, 55.06940
299.8612, 59.91309
300.3433, 60.12082
300.8254, 50.64276
301.3075, 37.28845
301.7896, 29.19147
302.2718, 26.80698
302.7539, 27.25665
303.2360, 26.98080
303.7181, 26.63260
304.2002, 27.81870
304.6823, 33.32120
305.1645, 39.85333
305.6466, 43.27539
306.1287, 43.47729
306.6108, 42.10248
307.0929, 39.57892
307.5750, 36.56610
308.0572, 34.17908
308.5393, 31.10400
309.0214, 30.01648
309.5035, 35.71606
309.9856, 48.55554
310.4677, 58.05365
310.9499, 52.77661
311.4320, 40.93286
311.9141, 33.87164
312.3962, 43.24933
312.8783, 53.11438
313.3604, 49.81421
313.8426, 33.93500
314.3247, 23.08020
314.8068, 32.42889
315.2889, 49.36194
315.7710, 60.54181
316.2531, 57.80231
316.7353, 52.78351
317.2174, 50.95380
317.6995, 51.98456
318.1816, 51.90350
318.6637, 46.99536
319.1458, 41.42865
319.6280, 38.55042
320.1101, 41.78363
320.5922, 45.19385
321.0743, 47.10175
321.5564, 47.72406
322.0385, 48.30182
322.5207, 49.84003
323.0028, 51.30933
323.4849, 51.70764
323.9670, 47.93347
324.4491, 46.03448
324.9312, 47.92096
325.4134, 52.88770
325.8955, 57.53168
326.3776, 63.84045
326.8597, 67.95087
327.3418, 67.98633
327.8239, 60.98871
328.3061, 53.89307
328.7882, 43.28577
329.2703, 32.52325
329.7524, 30.53131
330.2345, 48.50726
330.7166, 64.30249
331.1988, 69.84546
331.6809, 61.79816
332.1630, 50.32184
332.6451, 28.35052
333.1272, 5.485840
333.6093, 1.647400
334.0915, 30.26898
334.5736, 55.77777
335.0557, 65.54224
335.5378, 54.99841
336.0199, 50.41650
336.5020, 55.10754
336.9842, 62.52539
337.4663, 63.01837
337.9484, 44.84467
338.4305, 55.67316
338.9126, 61.35791
339.3947, 62.17755
339.8769, 43.54449
340.3590, 50.03558
340.8411, 46.46063
341.3232, 42.47388
341.8053, 52.50757
342.2874, 36.82739
342.7696, 47.28754
343.2517, 47.37701
343.7338, 51.65448
344.2159, 45.80328
344.6980, 43.08197
345.1801, 50.49518
345.6623, 52.29865
346.1444, 37.24152
346.6265, 34.76459
347.1086, 33.28333
347.5907, 33.25732
348.0728, 34.67950
348.5550, 36.37732
349.0371, 39.67682
349.5192, 42.85242
350.0013, 38.68109
350.4834, 22.75305
350.9655, 5.334045
351.4477, 2.119507
351.9298, 11.17578
352.4119, 23.31818
352.8940, 38.51257
353.3762, 51.74713
353.8583, 52.67352
354.3404, 37.65594
354.8225, 19.51276
355.3046, 9.403320
355.7867, 5.610535
356.2689, 4.010132
356.7510, 5.951660
357.2331, 7.172119
357.7152, 1.167175
358.1973, 13.68353
358.6794, 23.87360
359.1616, 16.57501
359.6437, 0.1699830
360.1258, 13.61774
360.6079, 19.07819
361.0900, 21.70038
361.5721, 24.62195
362.0543, 27.90277
362.5364, 28.91449
363.0185, 25.19769
363.5006, 19.34912
363.9827, 13.75061
364.4648, 6.290161
364.9470, 1.875000
365.4291, 3.135071
365.9112, 9.321777
366.3933, 15.10352
366.8754, 20.24402
367.3575, 24.19379
367.8397, 26.59589
368.3218, 27.34741
368.8039, 26.68927
369.2860, 24.44208
369.7681, 20.77020
370.2502, 15.98267
370.7324, 6.423584
371.2145, 0.5905760
371.6966, 1.763428
372.1787, 5.561218
372.6608, 11.78656
373.1429, 17.12476
373.6251, 21.23608
374.1072, 23.19073
374.5893, 21.15649
375.0714, 20.71777
375.5535, 24.32269
376.0356, 32.35931
376.5178, 38.60907
376.9999, 43.71149
377.4820, 45.82574
377.9641, 41.76562
378.4462, 30.56006
378.9283, 19.35577
379.4105, 9.325134
379.8926, 0.8047490
380.3747, 4.751648
380.8568, 7.408020
381.3389, 7.033875
381.8210, 2.611938
382.3032, 5.413086
382.7853, 14.09399
383.2674, 23.59705
383.7495, 32.39990
384.2316, 37.23938
384.7137, 38.35413
385.1959, 37.29083
385.6780, 33.61737
386.1601, 28.65826
386.6422, 25.82764
387.1243, 26.16937
387.6064, 26.21564
388.0886, 20.97583
388.5707, 12.33362
389.0528, 5.296631
389.5349, 3.434937
390.0170, 4.511841
390.4991, 3.087219
390.9813, 2.802734
391.4634, 2.392944
391.9455, 22.26422
392.4276, 54.62000
392.9097, 73.64819
393.3918, 61.68604
393.8740, 43.83856
394.3561, 28.46301
394.8382, 16.18915
395.3203, 10.17383
395.8024, 18.02167
396.2845, 28.90540
396.7667, 35.64636
397.2488, 32.71082
397.7309, 28.56708
398.2130, 24.82062
398.6951, 21.01874
399.1772, 16.27307
399.6594, 1.901855
400.1415, 7.433838
400.6236, 4.836060
401.1057, 16.92902
401.5878, 33.80988
402.0699, 43.53790
402.5521, 49.48712
403.0342, 57.44727
403.5163, 73.00140
403.9984, 80.32092
404.4805, 72.82220
404.9626, 50.25439
405.4448, 32.50354
405.9269, 18.01117
406.4090, 9.971375
406.8911, 13.95581
407.3732, 32.43597
407.8553, 46.37048
408.3375, 51.90112
408.8196, 50.83472
409.3017, 47.19604
409.7838, 40.64594
410.2659, 35.33258
410.7480, 35.93024
411.2302, 40.88379
411.7123, 41.62604
412.1944, 36.13306
412.6765, 29.34155
413.1586, 29.63342
413.6407, 35.16595
414.1229, 37.85590
414.6050, 28.16840
415.0871, 15.18610
415.5692, 14.80023
416.0513, 27.36859
416.5334, 39.77625
417.0156, 43.91272
417.4977, 42.46033
417.9798, 37.91028
418.4619, 24.69366
418.9440, 14.19281
419.4261, 15.18152
419.9083, 26.03815
420.3904, 37.22662
420.8725, 48.72253
421.3546, 56.33502
421.8367, 56.33087
422.3188, 43.28088
422.8010, 30.94324
423.2831, 21.29437
423.7652, 14.73468
424.2473, 11.75061
424.7295, 15.49585
425.2116, 19.94995
425.6937, 23.55328
426.1758, 26.48578
426.6579, 27.69427
427.1400, 27.30225
427.6222, 25.09918
428.1043, 20.00769
428.5864, 7.630127
429.0685, 1.422180
429.5506, 5.814148
430.0327, 19.22003
430.5149, 28.62250
430.9970, 33.05615
431.4791, 35.64154
431.9612, 38.12427
432.4433, 40.47241
432.9254, 43.62927
433.4076, 48.39752
433.8897, 52.78693
434.3718, 53.22070
434.8539, 49.73438
435.3360, 43.56073
435.8181, 33.15723
436.3003, 20.67633
436.7824, 11.24103
437.2645, 4.861816
437.7466, 3.176880
438.2287, 7.027893
438.7108, 16.66724
439.1930, 33.68866
439.6751, 70.88318
440.1572, 103.6828
440.6393, 100.9563
441.1214, 69.23462
441.6035, 40.76575
442.0857, 37.45953
442.5678, 43.58606
443.0499, 45.51727
443.5320, 38.32922
444.0141, 32.80957
444.4962, 37.27972
444.9784, 45.57660
445.4605, 47.37811
445.9426, 34.88733
446.4247, 20.29413
446.9068, 4.895447
447.3889, 12.43433
447.8711, 19.43939
448.3532, 7.152466
448.8353, 10.03400
449.3174, 22.44843
449.7995, 30.24933
450.2816, 32.99872
450.7638, 27.91199
451.2459, 17.80566
451.7280, 15.25116
452.2101, 24.75494
452.6922, 31.08356
453.1743, 22.68591
453.6565, 3.134583
454.1386, 12.94556
454.6207, 1.909973
455.1028, 15.28754
455.5849, 16.03198
456.0670, 1.406372
456.5492, 9.836121
457.0313, 9.441895
457.5134, 2.054260
457.9955, 1.419128
458.4776, 1.789307
458.9597, 1.819336
459.4419, 2.030518
459.9240, 2.909790
460.4061, 6.123291
460.8882, 13.79736
461.3703, 19.54565
461.8524, 13.17035
462.3346, 0.3358150
462.8167, 5.658447
463.2988, 10.77551
463.7809, 29.04694
464.2630, 34.86072
464.7451, 25.95618
465.2273, 18.39606
465.7094, 19.51740
466.1915, 23.62225
466.6736, 25.60504
467.1557, 23.09570
467.6378, 20.02515
468.1200, 15.98840
468.6021, 11.54437
469.0842, 9.234680
469.5663, 8.135559
470.0484, 10.26318
470.5305, 17.61902
471.0127, 33.37976
471.4948, 43.61230
471.9769, 47.83197
472.4590, 47.26538
472.9411, 42.92743
473.4232, 34.41449
473.9054, 24.53827
474.3875, 12.39832
474.8696, 0.1166380
475.3517, 4.153320
475.8338, 0.5766600
476.3159, 7.616577
476.7981, 12.53741
477.2802, 15.80017
477.7623, 18.70251
478.2444, 21.32233
478.7265, 23.97839
479.2086, 29.36859
479.6908, 35.27692
480.1729, 36.04382
480.6550, 21.51282
481.1371, 5.736328
481.6192, 1.599304
482.1013, 9.119751
482.5835, 18.25531
483.0656, 26.25867
483.5477, 32.36438
484.0298, 35.72595
484.5119, 32.80646
484.9940, 31.63062
485.4762, 35.57104
485.9583, 42.56842
486.4404, 47.32147
486.9225, 48.14825
487.4046, 47.77985
487.8867, 46.38776
488.3689, 43.49591
488.8510, 42.62097
489.3331, 44.85522
489.8152, 47.78070
490.2973, 49.23132
490.7794, 49.19440
491.2616, 47.25122
491.7437, 42.11572
492.2258, 35.97675
492.7079, 34.85486
493.1900, 38.84064
493.6722, 46.18848
494.1543, 60.39636
494.6364, 77.51306
495.1185, 82.14240
495.6006, 72.52625
496.0828, 59.01520
496.5649, 49.98541
497.0470, 44.90106
497.5291, 42.99469
498.0112, 45.53650
498.4933, 49.51917
498.9755, 52.74268
499.4576, 55.34406
499.9397, 57.67859
500.4218, 58.80243
500.9039, 60.53271
501.3860, 62.62219
501.8682, 62.42517
502.3503, 71.43250
502.8324, 110.1740
503.3145, 152.8624
503.7966, 168.3740
504.2787, 128.6746
504.7609, 93.94415
505.2430, 70.66815
505.7251, 58.55908
506.2072, 54.78534
506.6893, 61.58740
507.1714, 71.65234
507.6536, 83.01263
508.1357, 96.61542
508.6178, 102.7535
509.0999, 99.73529
509.5820, 92.43317
510.0641, 86.09088
510.5463, 80.85913
511.0284, 78.99438
511.5105, 82.42218
511.9926, 87.98596
512.4747, 91.94183
512.9568, 93.88684
513.4390, 94.63281
513.9211, 93.96570
514.4032, 92.26672
514.8853, 90.48114
515.3674, 88.15460
515.8495, 89.65948
516.3317, 102.9641
516.8138, 120.3514
517.2959, 131.1525
517.7780, 126.2932
518.2601, 120.0134
518.7422, 116.3132
519.2244, 115.1862
519.7065, 115.6049
520.1886, 111.9385
520.6707, 114.4451
521.1528, 132.0160
521.6349, 181.7211
522.1171, 199.1288
522.5992, 169.7872
523.0813, 122.5181
523.5634, 96.00317
524.0455, 93.77081
524.5276, 93.76855
525.0098, 88.23639
525.4919, 80.77850
525.9740, 83.93890
526.4561, 98.41278
526.9382, 111.2639
527.4203, 110.3761
527.9025, 102.7839
528.3846, 107.4539
528.8667, 129.1742
529.3488, 147.8801
529.8309, 141.7447
530.3130, 121.5594
530.7952, 104.7032
531.2773, 99.47345
531.7594, 98.08209
532.2415, 98.32532
532.7236, 99.50616
533.2057, 98.53961
533.6879, 92.84174
534.1700, 86.38831
534.6521, 80.34229
535.1342, 72.25513
535.6163, 72.50629
536.0984, 90.08539
536.5806, 109.9994
537.0627, 114.9950
537.5448, 96.67432
538.0269, 83.98853
538.5090, 82.57349
538.9911, 89.31647
539.4733, 95.23236
539.9554, 100.6090
540.4375, 103.3858
540.9196, 100.7644
541.4017, 94.20337
541.8839, 90.47601
542.3660, 89.59662
542.8481, 91.10669
543.3302, 98.90717
543.8123, 108.3113
544.2944, 109.3550
544.7766, 95.05627
545.2587, 78.45471
545.7408, 66.53058
546.2229, 61.70691
546.7050, 65.07397
547.1871, 88.33051
547.6693, 107.9945
548.1514, 112.5025
548.6335, 99.89276
549.1156, 85.16187
549.5977, 61.76422
550.0798, 43.02991
550.5620, 38.81427
551.0441, 58.51593
551.5262, 73.90179
552.0083, 81.72858
552.4904, 87.01630
552.9725, 100.7790
553.4547, 127.0806
553.9368, 139.3418
554.4189, 121.9031
554.9010, 84.03223
555.3831, 62.97522
555.8652, 60.14337
556.3474, 62.41595
556.8295, 58.71265
557.3116, 52.26355
557.7937, 48.55579
558.2758, 49.12421
558.7579, 48.73438
559.2401, 41.41699
559.7222, 30.55060
560.2043, 21.40076
560.6864, 11.03180
561.1685, 7.542664
561.6506, 22.83710
562.1328, 51.52783
562.6149, 64.44055
563.0970, 35.04950
563.5791, 7.549194
564.0612, 2.242065
564.5433, 28.14374
565.0255, 40.74170
565.5076, 32.02942
565.9897, 19.37457
566.4718, 23.93604
566.9539, 50.49377
567.4360, 62.35516
567.9182, 49.44452
568.4003, 23.94696
568.8824, 10.52521
569.3645, 8.709473
569.8466, 11.33264
570.3287, 17.55151
570.8109, 24.77570
571.2930, 28.79950
571.7751, 29.61359
572.2572, 27.83264
572.7393, 19.73114
573.2214, 11.28986
573.7036, 9.125427
574.1857, 17.02728
574.6678, 25.61176
575.1499, 35.08270
575.6320, 42.16437
576.1141, 42.13239
576.5963, 21.95795
577.0784, 8.647217
577.5605, 10.49854
578.0426, 24.47113
578.5247, 31.09369
579.0068, 28.27551
579.4890, 22.26501
579.9711, 15.01019
580.4532, 6.310791
580.9353, 1.593140
581.4174, 1.683838
581.8995, 7.517731
582.3817, 4.385254
582.8638, 11.14178
583.3459, 13.02808
583.8280, 4.540710
584.3101, 3.008667
584.7922, 0.4898680
585.2744, 2.442627
585.7565, 8.638550
586.2386, 6.108429
586.7207, 4.745605
587.2028, 5.377869
587.6849, 10.68768
588.1671, 5.867126
588.6492, 4.174805
589.1313, 12.61505
589.6134, 15.44397
590.0955, 9.455261
590.5776, 15.05939
591.0598, 5.0110001E-02
591.5419, 3.015625
592.0240, 13.92297
592.5061, 7.643616
592.9882, 10.31995
593.4703, 11.97980
593.9525, 12.95502
594.4346, 13.01685
594.9167, 12.39368
595.3988, 14.29388
595.8809, 24.97406
596.3630, 37.70718
596.8452, 40.59778
597.3273, 33.28439
597.8094, 23.48157
598.2915, 13.35458
598.7736, 4.790771
599.2557, 0.1679380
599.7379, 0.3055110
600.2200, 1.662659
600.7021, 2.540833
601.1843, 3.540253
601.6664, 5.866455
602.1485, 16.15015
602.6306, 18.13739
603.1127, 3.867889
603.5948, 21.45389
604.0770, 29.19644
604.5591, 14.42719
605.0412, 1.854706
605.5233, 6.572571
606.0054, 1.673279
606.4875, 6.072632
606.9697, 20.76813
607.4518, 34.43677
607.9339, 35.67493
608.4160, 27.93414
608.8981, 16.76736
609.3802, 0.2139890
609.8624, 11.42841
610.3445, 5.874084
610.8266, 8.924042
611.3087, 19.73834
611.7908, 22.89822
612.2729, 20.25342
612.7551, 5.878876
613.2372, 16.92307
613.7193, 24.29349
614.2014, 2.856384
614.6835, 18.28751
615.1656, 26.87589
615.6478, 21.37720
616.1299, 17.80066
616.6120, 16.54376
617.0941, 16.23535
617.5762, 16.35617
618.0583, 16.63113
618.5405, 13.90973
619.0226, 6.549286
619.5047, 0.3194890
619.9868, 0.9790650
620.4689, 7.836670
620.9510, 13.91470
621.4332, 14.92242
621.9153, 15.63831
622.3974, 21.24118
622.8795, 29.82748
623.3616, 33.62085
623.8438, 24.59723
624.3259, 14.92810
624.8080, 10.18365
625.2901, 11.03754
625.7722, 13.41669
626.2543, 18.04434
626.7365, 23.29834
627.2186, 28.07648
627.7007, 32.37738
628.1828, 36.32404
628.6649, 40.05225
629.1470, 43.03049
629.6292, 45.52136
630.1113, 46.94229
630.5934, 43.44888
631.0755, 28.63800
631.5576, 14.52750
632.0397, 20.22858
632.5219, 39.89551
633.0040, 55.20764
633.4861, 54.51913
633.9682, 48.58194
634.4503, 42.29962
634.9324, 35.99948
635.4146, 31.08957
635.8967, 28.89966
636.3788, 27.40564
636.8609, 24.70520
637.3430, 17.28229
637.8251, 19.89386
638.3073, 37.54953
638.7894, 57.55917
639.2715, 63.48471
639.7536, 54.64850
640.2357, 44.95432
640.7178, 35.41635
641.2000, 27.52954
641.6821, 23.67633
642.1642, 23.84180
642.6463, 25.24451
643.1284, 25.43292
643.6105, 27.46353
644.0927, 35.69775
644.5748, 49.33856
645.0569, 57.72769
645.5390, 51.32492
646.0211, 43.15784
646.5032, 40.89212
646.9854, 48.08636
647.4675, 49.48538
647.9496, 40.79138
648.4317, 31.18103
648.9138, 27.73264
649.3959, 31.23911
649.8781, 38.46729
650.3602, 50.93365
650.8423, 62.90579
651.3244, 64.96173
651.8065, 58.51645
652.2886, 50.62878
652.7708, 41.58832
653.2529, 34.75098
653.7350, 35.62927
654.2171, 42.11249
654.6992, 47.99496
655.1813, 48.38855
655.6635, 49.11383
656.1456, 56.17670
656.6277, 69.70258
657.1098, 73.36862
657.5919, 52.50885
658.0740, 33.94656
658.5562, 32.41180
659.0383, 53.98212
659.5204, 64.65399
660.0025, 61.49149
660.4846, 54.52911
660.9667, 55.73901
661.4489, 62.38440
661.9310, 63.19714
662.4131, 56.38101
662.8952, 47.87717
663.3773, 42.81946
663.8594, 40.75079
664.3416, 40.98871
664.8237, 44.65240
665.3058, 49.11301
665.7879, 54.34082
666.2700, 59.45276
666.7521, 61.45596
667.2343, 56.15259
667.7164, 50.28342
668.1985, 47.80377
668.6806, 48.84412
669.1627, 46.95895
669.6448, 39.92920
670.1270, 35.02451
670.6091, 39.36426
671.0912, 51.02576
671.5733, 53.87427
672.0554, 48.35663
672.5375, 41.48926
673.0197, 40.11047
673.5018, 43.03107
673.9839, 48.42633
674.4660, 56.70544
674.9481, 65.09119
675.4302, 73.25812
675.9124, 80.03021
676.3945, 83.83167
676.8766, 85.41803
677.3587, 82.42267
677.8408, 72.04626
678.3229, 57.04010
678.8051, 45.19635
679.2872, 36.96405
679.7693, 31.17188
680.2514, 27.14359
680.7335, 25.51080
681.2156, 27.67490
681.6978, 33.72070
682.1799, 39.35904
682.6620, 42.46973
683.1441, 42.96786
683.6262, 38.69504
684.1083, 29.48981
684.5905, 23.79922
685.0726, 32.68469
685.5547, 44.32166
686.0368, 47.76651
686.5189, 36.25183
687.0010, 27.29794
687.4832, 23.49490
687.9653, 23.44690
688.4474, 26.54013
688.9295, 34.50281
689.4116, 40.43613
689.8937, 43.32956
690.3759, 45.32867
690.8580, 47.76096
691.3401, 51.04526
691.8222, 53.46591
692.3043, 54.61768
692.7864, 54.17969
693.2686, 50.72571
693.7507, 45.04700
694.2328, 40.12115
694.7149, 34.90393
695.1970, 32.93619
695.6791, 38.00912
696.1613, 50.11285
696.6434, 59.71527
697.1255, 66.62375
697.6076, 69.62332
698.0897, 67.42487
698.5718, 59.21628
699.0540, 51.11050
699.5361, 42.55222
700.0182, 35.82071
700.5003, 34.22076
700.9824, 36.62219
701.4645, 36.50717
701.9467, 32.16928
702.4288, 30.23254
702.9109, 43.40552
703.3930, 61.46158
703.8751, 68.47726
704.3572, 50.28311
704.8394, 34.70868
705.3215, 33.59875
705.8036, 41.27448
706.2857, 47.60046
706.7678, 56.13687
707.2499, 57.82352
707.7321, 47.02197
708.2142, 29.49170
708.6963, 27.66690
709.1784, 43.54507
709.6605, 55.27487
710.1426, 48.94733
710.6248, 33.32474
711.1069, 30.16241
711.5890, 38.07404
712.0711, 47.71048
712.5532, 55.91614
713.0353, 61.25067
713.5175, 62.20193
713.9996, 58.11896
714.4817, 52.09271
714.9638, 38.04044
715.4459, 27.96158
715.9280, 30.07245
716.4102, 51.10410
716.8923, 61.58810
717.3744, 58.73059
717.8565, 50.72449
718.3386, 45.58835
718.8207, 42.96887
719.3029, 36.67215
719.7850, 24.50513
720.2671, 14.11267
720.7492, 17.40454
721.2313, 28.30807
721.7134, 35.76761
722.1956, 34.12323
722.6777, 31.55289
723.1598, 32.78149
723.6419, 35.50946
724.1240, 35.31519
724.6061, 27.85593
725.0883, 22.69504
725.5704, 23.01663
726.0525, 26.28940
726.5346, 21.72324
727.0167, 7.434875
727.4988, 0.5831600
727.9810, 14.53455
728.4631, 37.79309
728.9452, 40.24387
729.4273, 24.84833
729.9094, 10.46664
730.3915, 10.71094
730.8737, 15.37970
731.3558, 15.03949
731.8379, 9.154541
732.3200, 8.553375
732.8021, 26.13889
733.2842, 41.18619
733.7664, 42.18445
734.2485, 25.56058
734.7306, 13.33844
735.2127, 6.408386
735.6948, 1.688416
736.1769, 4.976379
736.6591, 12.48773
737.1412, 11.05484
737.6233, 1.415619
738.1054, 14.05551
738.5875, 13.83472
739.0696, 7.794098
739.5518, 6.477814
740.0339, 15.46362
740.5161, 23.15579
740.9982, 23.73337
741.4803, 21.00558
741.9624, 20.28470
742.4445, 23.19272
742.9266, 25.63730
743.4088, 27.44461
743.8909, 28.30331
744.3730, 26.79016
744.8551, 22.89346
745.3372, 21.47845
745.8193, 26.85663
746.3015, 31.52246
746.7836, 18.24170
747.2657, 5.996765
747.7478, 20.58673
748.2299, 5.802673
748.7120, 12.38486
749.1942, 18.77686
749.6763, 15.68018
750.1584, 17.18420
750.6405, 33.29660
751.1226, 43.18942
751.6047, 37.87439
752.0869, 19.34280
752.5690, 8.895966
753.0511, 7.167267
753.5332, 8.601227
754.0153, 11.75623
754.4974, 15.14520
754.9796, 13.14532
755.4617, 6.213196
755.9438, 3.495972
756.4259, 18.31857
756.9080, 34.57739
757.3901, 39.09213
757.8723, 28.57162
758.3544, 18.83173
758.8365, 10.51468
759.3186, 5.391602
759.8007, 5.791229
760.2828, 14.26755
760.7650, 16.10284
761.2471, 10.04648
761.7292, 1.546509
762.2113, 6.056152
762.6934, 11.57855
763.1755, 9.607300
763.6577, 2.059479
764.1398, 13.93674
764.6219, 19.82458
765.1040, 21.11603
765.5861, 19.26648
766.0682, 11.81760
766.5504, 5.766083
767.0325, 1.150543
767.5146, 0.4209290
767.9967, 4.373779
768.4788, 17.18463
768.9609, 22.52646
769.4431, 16.87119
769.9252, 7.250946
770.4073, 4.844208
770.8894, 1.264343
771.3715, 10.94080
771.8536, 17.99881
772.3358, 20.18643
772.8179, 2.918091
773.3000, 10.78204
773.7821, 8.591187
774.2642, 5.964447
774.7463, 17.34894
775.2285, 2.904633
775.7106, 14.07013
776.1927, 15.02185
776.6748, 20.63632
777.1569, 16.11981
777.6390, 14.73102
778.1212, 23.47791
778.6033, 26.61285
779.0854, 20.92590
779.5675, 26.83105
780.0496, 9.527771
780.5317, 4.063568
781.0139, 7.646820
781.4960, 18.23062
781.9781, 25.58170
782.4602, 24.81009
782.9423, 22.15063
783.4244, 19.58716
783.9066, 16.70215
784.3887, 12.55893
784.8708, 6.388794
785.3529, 3.089294
785.8350, 7.861877
786.3171, 17.42731
786.7993, 19.15500
787.2814, 13.70770
787.7635, 9.103516
788.2456, 10.91336
788.7277, 15.68088
789.2098, 22.11880
789.6920, 30.20514
790.1741, 33.57745
790.6562, 26.52121
791.1383, 18.21649
791.6204, 12.01462
792.1025, 7.826477
792.5847, 7.955200
793.0668, 13.03961
793.5489, 19.64670
794.0310, 25.25211
794.5131, 29.71307
794.9952, 35.17477
795.4774, 42.32437
795.9595, 45.06702
796.4416, 34.43576
796.9237, 21.59723
797.4058, 15.31851
797.8879, 18.65646
798.3701, 20.85959
798.8522, 20.60669
799.3343, 18.99741
799.8164, 15.40765
800.2985, 8.657318
800.7806, 11.59750
801.2628, 26.83536
801.7449, 40.33081
802.2270, 33.07288
802.7091, 14.84894
803.1912, 6.262848
803.6733, 12.17767
804.1555, 7.389893
804.6376, 19.68466
805.1197, 26.52142
805.6018, 27.54779
806.0839, 10.04388
806.5660, 17.98715
807.0482, 15.86163
807.5303, 13.32166
808.0124, 24.79678
808.4945, 10.44247
808.9766, 21.69244
809.4587, 22.71960
809.9409, 28.42365
810.4230, 23.99625
810.9051, 22.69638
811.3872, 31.52814
811.8693, 30.60513
812.3514, 32.27020
812.8336, 19.18735
813.3157, 2.421661
813.7978, 5.501221
814.2799, 0.7973020
814.7620, 4.863159
815.2441, 11.32748
815.7263, 17.98755
816.2084, 24.76556
816.6905, 31.29648
817.1726, 34.80334
817.6547, 34.20480
818.1368, 32.54361
818.6190, 33.50226
819.1011, 34.90634
819.5832, 33.59778
820.0653, 25.23849
820.5474, 18.80594
821.0295, 19.04147
821.5117, 21.61826
821.9938, 19.84311
822.4759, 11.41058
822.9580, 10.39221
823.4401, 21.38492
823.9222, 32.54129
824.4044, 21.24973
824.8865, 3.589691
825.3686, 17.62485
825.8507, 11.81561
826.3328, 0.2298890
826.8149, 15.87579
827.2971, 29.93777
827.7792, 35.53680
828.2613, 21.51611
828.7434, 12.75226
829.2255, 12.77011
829.7076, 16.05984
830.1898, 14.49121
830.6719, 8.038025
831.1540, 5.639862
831.6361, 9.878632
832.1182, 15.19861
832.6003, 13.89655
833.0825, 9.247528
833.5646, 7.152374
834.0467, 11.33588
834.5288, 14.61157
835.0109, 12.83600
835.4930, 9.531281
835.9752, 9.438477
836.4573, 13.54880
836.9394, 18.45093
837.4215, 24.61237
837.9036, 29.79272
838.3857, 31.10956
838.8679, 28.79675
839.3500, 22.38391
839.8321, 10.66736
840.3142, 0.1017760
840.7963, 3.441376
841.2784, 0.6076350
841.7606, 8.078003
842.2427, 36.89435
842.7248, 49.54596
843.2069, 32.83228
843.6890, 9.826874
844.1711, 12.04303
844.6533, 41.34680
845.1354, 56.83469
845.6175, 51.42352
846.0996, 37.43756
846.5817, 23.58316
847.0638, 12.93402
847.5460, 12.57285
848.0281, 29.48257
848.5102, 42.94437
848.9923, 40.86725
849.4744, 33.16492
849.9565, 30.64279
850.4387, 36.71759
850.9208, 39.59344
851.4029, 38.08655
851.8850, 34.94763
852.3671, 35.28317
852.8492, 36.97479
853.3314, 29.54901
853.8135, 9.053802
854.2956, 7.545898
854.7777, 4.450531
855.2598, 7.868225
855.7419, 19.50903
856.2241, 31.54904
856.7062, 35.26764
857.1883, 25.61221
857.6704, 13.55411
858.1525, 6.759491
858.6346, 4.872833
859.1168, 13.06247
859.5989, 33.62561
860.0810, 50.09412
860.5631, 39.19855
861.0452, 17.14279
861.5273, 7.362885
862.0095, 15.51410
862.4916, 4.877289
862.9737, 27.46417
863.4558, 40.03217
863.9379, 43.59799
864.4200, 11.25888
864.9022, 25.29742
865.3843, 20.74860
865.8664, 15.43668
866.3485, 35.98853
866.8306, 8.868683
867.3127, 29.01974
867.7949, 30.29987
868.2770, 40.21533
868.7591, 31.42853
869.2412, 28.41721
869.7233, 44.11224
870.2054, 49.44781
870.6876, 38.50488
871.1697, 48.85818
871.6518, 20.51236
872.1339, 26.01663
872.6160, 46.21277
873.0981, 29.61087
873.5803, 15.03818
874.0624, 4.292572
874.5445, 12.18265
875.0266, 27.38583
875.5087, 43.79440
875.9908, 60.22946
876.4730, 66.64471
876.9551, 50.67633
877.4372, 35.38083
877.9193, 27.73392
878.4014, 26.95728
878.8835, 28.34253
879.3657, 31.91681
879.8478, 35.88913
880.3299, 40.06244
880.8120, 43.52850
881.2941, 45.24179
881.7763, 45.17929
882.2584, 43.35303
882.7405, 38.08368
883.2227, 31.48993
883.7048, 23.07892
884.1869, 15.94330
884.6690, 20.00574
885.1511, 38.75360
885.6332, 49.18542
886.1154, 41.52155
886.5975, 25.64294
887.0796, 15.68060
887.5617, 12.04944
888.0438, 16.04248
888.5259, 40.55969
889.0081, 58.65326
889.4902, 52.36877
889.9723, 33.01898
890.4544, 22.45721
890.9365, 24.37885
891.4186, 27.26996
891.9008, 30.70679
892.3829, 32.59741
892.8650, 25.56036
893.3471, 14.22290
893.8292, 14.62189
894.3113, 33.87219
894.7935, 52.68671
895.2756, 60.26727
895.7577, 57.74719
896.2398, 45.29193
896.7219, 5.385803
897.2040, 11.81161
897.6862, 1.627380
898.1683, 24.71490
898.6504, 36.82098
899.1325, 39.60992
899.6146, 40.39551
900.0967, 39.38312
900.5789, 39.64429
901.0610, 48.07477
901.5431, 56.31390
902.0252, 54.93463
902.5073, 40.03796
902.9894, 29.10297
903.4716, 24.19922
903.9537, 23.24908
904.4358, 27.15143
904.9179, 35.34637
905.4000, 35.03595
905.8821, 26.15070
906.3643, 17.60846
906.8464, 16.86829
907.3285, 18.90503
907.8106, 18.15057
908.2927, 14.70636
908.7748, 12.09326
909.2570, 12.57617
909.7391, 12.63678
910.2212, 10.99524
910.7033, 8.050415
911.1854, 4.389954
911.6675, 0.1231080
912.1497, 0.4951170
912.6318, 15.97266
913.1139, 32.92633
913.5960, 30.96027
914.0781, 16.09631
914.5602, 2.857971
915.0424, 4.985168
915.5245, 8.415955
916.0066, 6.098206
916.4887, 0.5599980
916.9708, 3.707642
917.4529, 6.457886
917.9351, 11.30255
918.4172, 20.67761
918.8993, 27.48773
919.3814, 15.87354
919.8635, 2.989990
920.3456, 9.130066
920.8278, 10.84961
921.3099, 26.63019
921.7920, 25.68030
922.2741, 19.04822
922.7562, 16.31592
923.2383, 18.75659
923.7205, 17.41760
924.2026, 11.33832
924.6847, 5.432129
925.1668, 4.308533
925.6489, 6.550598
926.1310, 11.28693
926.6132, 18.53656
927.0953, 22.40643
927.5774, 16.68909
928.0595, 10.42096
928.5416, 8.403442
929.0237, 10.63025
929.5059, 13.86053
929.9880, 18.58044
930.4701, 20.99103
930.9522, 15.85590
931.4343, 8.551086
931.9164, 9.665344
932.3986, 17.16852
932.8807, 23.19983
933.3628, 21.95288
933.8449, 21.13977
934.3270, 26.06964
934.8091, 33.84497
935.2913, 36.99677
935.7734, 34.75385
936.2555, 33.16089
936.7376, 34.01947
937.2197, 35.61285
937.7018, 37.42456
938.1840, 37.71027
938.6661, 32.36517
939.1482, 14.43115
939.6303, 0.9229740
940.1124, 0.7041020
940.5945, 3.423889
941.0767, 7.175476
941.5588, 10.02069
942.0409, 16.48962
942.5230, 27.59613
943.0051, 37.77460
943.4872, 41.97607
943.9694, 41.49390
944.4515, 36.43927
944.9336, 26.47437
945.4157, 21.04901
945.8978, 33.20941
946.3799, 41.84204
946.8621, 33.44000
947.3442, 9.005127
947.8263, 7.4584998E-02
948.3084, 7.460266
948.7905, 15.91821
949.2726, 17.28931
949.7548, 13.61053
950.2369, 3.441040
950.7190, 9.812988
951.2011, 15.01550
951.6832, 3.248230
952.1653, 16.48370
952.6475, 14.63513
953.1296, 4.562012
953.6117, 1.134277
954.0938, 4.586914
954.5759, 6.732544
955.0580, 3.683044
955.5402, 3.163147
956.0223, 15.36298
956.5044, 32.66937
956.9865, 43.88751
957.4686, 44.67810
957.9507, 41.97455
958.4329, 35.60840
958.9150, 27.65320
959.3971, 17.11035
959.8792, 3.700928
960.3613, 6.479370
960.8434, 26.66986
961.3256, 44.99536
961.8077, 40.97272
962.2898, 31.07776
962.7719, 33.41815
963.2540, 48.41711
963.7361, 58.69830
964.2183, 61.14349
964.7004, 57.82141
965.1825, 47.08179
965.6646, 31.99194
966.1467, 23.37500
966.6288, 20.99652
967.1110, 22.64636
967.5931, 29.67468
968.0752, 37.39532
968.5573, 42.77240
969.0394, 45.96527
969.5215, 47.14246
970.0037, 44.95245
970.4858, 43.35529
970.9679, 42.66724
971.4500, 42.53442
971.9321, 43.35114
972.4142, 44.44885
972.8964, 41.76654
973.3785, 34.46783
973.8606, 29.32275
974.3427, 34.84473
974.8248, 41.40790
975.3069, 41.28290
975.7891, 33.39783
976.2712, 22.89795
976.7533, 6.550354
977.2354, 2.128357
977.7175, 8.187805
978.1996, 29.19757
978.6818, 42.91339
979.1639, 49.41809
979.6460, 51.13184
980.1281, 46.78149
980.6102, 40.56061
981.0923, 31.36133
981.5745, 22.33038
982.0566, 20.68713
982.5387, 28.54004
983.0208, 32.61145
983.5029, 30.26074
983.9850, 24.46838
984.4672, 15.82629
984.9493, 7.432678
985.4314, 4.537720
985.9135, 9.017517
986.3956, 15.89447
986.8777, 26.94458
987.3599, 37.02576
987.8420, 43.98181
988.3241, 47.82227
988.8062, 45.23718
989.2883, 36.18622
989.7704, 24.53613
990.2526, 3.848389
990.7347, 11.30713
991.2168, 2.086609
991.6989, 36.20490
992.1810, 56.22186
992.6631, 41.88635
993.1453, 32.67291
993.6274, 39.23364
994.1095, 51.18707
994.5916, 44.07111
995.0737, 22.38043
995.5558, 9.337952
996.0380, 13.22009
996.5201, 19.62488
997.0022, 18.01373
997.4843, 13.87091
997.9664, 13.16962
998.4485, 16.97357
998.9307, 22.48767
999.4128, 30.96033
999.8949, 37.42865
1000.377, 35.90985
1000.859, 30.19092
1001.341, 29.88831
1001.823, 35.05042
1002.305, 40.55518
1002.788, 42.56598
1003.270, 41.96936
1003.752, 37.85193
1004.234, 31.92236
1004.716, 28.82501
1005.198, 28.90729
1005.680, 28.15417
1006.162, 25.43677
1006.645, 22.43854
1007.127, 18.48798
1007.609, 14.80292
1008.091, 12.87653
1008.573, 11.31055
1009.055, 14.87775
1009.537, 29.06464
1010.019, 43.13824
1010.501, 51.20245
1010.984, 53.18115
1011.466, 44.85590
1011.948, 27.02136
1012.430, 12.92822
1012.912, 11.92767
1013.394, 17.27991
1013.876, 26.81671
1014.358, 39.12823
1014.841, 48.86279
1015.323, 56.01453
1015.805, 60.58563
1016.287, 62.68573
1016.769, 61.99835
1017.251, 55.08502
1017.733, 45.51514
1018.215, 41.07269
1018.697, 44.36176
1019.180, 51.03339
1019.662, 66.26892
1020.144, 78.31451
1020.626, 77.63165
1021.108, 63.23981
1021.590, 53.04803
1022.072, 47.14124
1022.554, 43.40454
1023.037, 39.66736
1023.519, 37.91498
1024.001, 43.27582
1024.483, 52.95831
1024.965, 56.30908
1025.447, 46.93610
1025.929, 37.11115
1026.411, 26.58191
1026.893, 19.34442
1027.376, 27.16028
1027.858, 44.96173
1028.340, 51.42059
1028.822, 40.10620
1029.304, 29.17017
1029.786, 30.03406
1030.268, 36.06189
1030.750, 44.21210
1031.233, 55.33783
1031.715, 51.66376
1032.197, 30.25769
1032.679, 13.52991
1033.161, 21.26086
1033.643, 37.18512
1034.125, 34.49225
1034.607, 19.25739
1035.089, 8.830627
1035.572, 12.77643
1036.054, 17.65790
1036.536, 22.73596
1037.018, 25.93512
1037.500, 21.21704
1037.982, 10.48090
1038.464, 10.81116
1038.946, 25.45526
1039.428, 38.24707
1039.911, 33.49182
1040.393, 24.45984
1040.875, 21.42609
1041.357, 25.13440
1041.839, 30.14868
1042.321, 37.35333
1042.803, 42.10223
1043.285, 41.29895
1043.768, 37.98914
1044.250, 39.02924
1044.732, 41.70923
1045.214, 39.88763
1045.696, 23.04437
1046.178, 13.74536
1046.660, 20.76801
1047.142, 31.99640
1047.625, 36.80383
1048.107, 35.31073
1048.589, 25.96466
1049.071, 9.621643
1049.553, 2.096497
1050.035, 2.266113
1050.517, 12.69531
1050.999, 24.57971
1051.481, 36.43658
1051.964, 41.59650
1052.446, 39.43945
1052.928, 31.69873
1053.410, 16.75171
1053.892, 0.6867680
1054.374, 6.174194
1054.856, 6.481812
1055.338, 4.849609
1055.820, 1.847229
1056.303, 1.351074
1056.785, 4.280334
1057.267, 7.560669
1057.749, 13.86755
1058.231, 22.23975
1058.713, 13.10626
1059.195, 11.60291
1059.677, 26.78918
1060.160, 7.868042
1060.642, 17.09705
1061.124, 31.88464
1061.606, 37.50629
1062.088, 38.48297
1062.570, 35.14050
1063.052, 25.27924
1063.534, 5.773743
1064.016, 10.67755
1064.499, 4.060425
1064.981, 13.56360
1065.463, 21.90802
1065.945, 17.71832
1066.427, 15.36804
1066.909, 22.12543
1067.391, 27.47485
1067.873, 27.55389
1068.355, 23.37451
1068.838, 16.83167
1069.320, 8.901489
1069.802, 4.445435
1070.284, 6.482300
1070.766, 10.60437
1071.248, 15.52454
1071.730, 20.28125
1072.212, 23.18146
1072.695, 22.20819
1073.177, 29.08386
1073.659, 45.36548
1074.141, 59.14514
1074.623, 60.75641
1075.105, 54.77521
1075.587, 44.17432
1076.069, 30.44702
1076.552, 20.11664
1077.034, 14.98608
1077.516, 12.68109
1077.998, 13.54919
1078.480, 15.95386
1078.962, 17.80328
1079.444, 18.88391
1079.926, 17.83636
1080.408, 13.92438
1080.891, 11.61188
1081.373, 11.07202
1081.855, 15.35809
1082.337, 28.46741
1082.819, 48.81250
1083.301, 59.36725
1083.783, 60.15729
1084.265, 52.67365
1084.747, 29.10089
1085.230, 9.355225
1085.712, 17.85181
1086.194, 40.35315
1086.676, 54.07251
1087.158, 53.81519
1087.640, 50.84589
1088.122, 44.85590
1088.604, 37.74579
1089.087, 30.28979
1089.569, 23.26691
1090.051, 17.42499
1090.533, 13.11670
1091.015, 12.40686
1091.497, 22.13501
1091.979, 25.89923
1092.461, 17.00281
1092.943, 3.316467
1093.426, 0.1138310
1093.908, 5.130005
1094.390, 11.61292
1094.872, 18.13513
1095.354, 23.85834
1095.836, 29.61261
1096.318, 33.05377
1096.800, 31.11298
1097.283, 24.46802
1097.765, 24.07422
1098.247, 30.34735
1098.729, 35.38336
1099.211, 34.30054
1099.693, 32.54199
1100.175, 38.96564
1100.657, 47.55249
1101.140, 48.49121
1101.622, 36.05115
1102.104, 23.10736
1102.586, 7.828735
1103.068, 1.284363
1103.550, 6.238220
1104.032, 21.27069
1104.514, 29.12451
1104.996, 31.48718
1105.479, 33.02356
1105.961, 36.02563
1106.443, 34.59198
1106.925, 24.49420
1107.407, 12.67535
1107.889, 12.17004
1108.371, 20.57971
1108.853, 26.47998
1109.335, 28.32697
1109.818, 27.44019
1110.300, 20.85736
1110.782, 15.47974
1111.264, 16.52972
1111.746, 23.21448
1112.228, 28.35907
1112.710, 31.79340
1113.192, 31.40436
1113.675, 26.01190
1114.157, 19.35223
1114.639, 13.90417
1115.121, 9.928101
1115.603, 7.341003
1116.085, 5.001587
1116.567, 10.21442
1117.049, 25.16785
1117.531, 35.45483
1118.014, 29.80914
1118.496, 17.86768
1118.978, 17.04022
1119.460, 23.76526
1119.942, 28.90179
1120.424, 27.25592
1120.906, 27.53650
1121.388, 32.34155
1121.870, 35.63159
1122.353, 28.98810
1122.835, 17.55701
1123.317, 19.93597
1123.799, 36.08838
1124.281, 49.25580
1124.763, 53.06213
1125.245, 48.69720
1125.727, 31.83942
1126.210, 11.15692
1126.692, 9.137512
1127.174, 23.31671
1127.656, 29.42926
1128.138, 20.69702
1128.620, 14.63733
1129.102, 30.51746
1129.584, 48.55054
1130.067, 51.10883
1130.549, 39.65326
1131.031, 36.69513
1131.513, 42.88074
1131.995, 47.77307
1132.477, 47.07355
1132.959, 43.50189
1133.441, 37.81342
1133.923, 31.89764
1134.406, 28.84589
1134.888, 30.79047
1135.370, 29.72150
1135.852, 25.06573
1136.334, 19.84277
1136.816, 13.52338
1137.298, 9.427673
1137.780, 16.83960
1138.262, 31.08795
1138.745, 38.70605
1139.227, 30.27045
1139.709, 22.27985
1140.191, 14.48193
1140.673, 10.48895
1141.155, 17.85468
1141.637, 31.39636
1142.119, 37.79291
1142.602, 36.67542
1143.084, 34.01654
1143.566, 29.97418
1144.048, 27.68384
1144.530, 27.54254
1145.012, 29.92328
1145.494, 38.59564
1145.976, 51.05322
1146.458, 55.38580
1146.941, 49.09833
1147.423, 37.95551
1147.905, 13.00677
1148.387, 2.959106
1148.869, 7.798889
1149.351, 37.86932
1149.833, 44.66791
1150.315, 29.78912
1150.797, 15.70221
1151.280, 8.372314
1151.762, 7.226990
1152.244, 17.34039
1152.726, 29.49585
1153.208, 33.19458
1153.690, 26.78735
1154.172, 31.53021
1154.654, 48.21234
1155.137, 59.25049
1155.619, 50.63965
1156.101, 36.30353
1156.583, 27.97662
1157.065, 23.84039
1157.547, 20.39447
1158.029, 14.97693
1158.511, 19.69000
1158.994, 38.03339
1159.476, 49.38501
1159.958, 25.35950
1160.440, 7.714905
1160.922, 12.20001
1161.404, 4.976379
1161.886, 10.24054
1162.368, 14.01038
1162.850, 20.71204
1163.333, 0.9255980
1163.815, 27.09058
1164.297, 26.33661
1164.779, 12.75140
1165.261, 11.09760
1165.743, 22.67700
1166.225, 31.22040
1166.707, 33.00220
1167.189, 30.67181
1167.672, 23.97253
1168.154, 14.71503
1168.636, 3.514587
1169.118, 6.985291
1169.600, 10.64441
1170.082, 5.885498
1170.564, 2.587280
1171.046, 19.73566
1171.529, 31.87689
1172.011, 36.10376
1172.493, 34.16711
1172.975, 28.74091
1173.457, 21.15546
1173.939, 15.78278
1174.421, 12.65350
1174.903, 15.61414
1175.385, 35.78735
1175.868, 53.08130
1176.350, 54.42163
1176.832, 42.26776
1177.314, 29.35541
1177.796, 16.37433
1178.278, 7.425110
1178.760, 0.2260740
1179.242, 2.894226
1179.724, 38.89545
1180.207, 73.61615
1180.689, 70.74768
1181.171, 31.02899
1181.653, 12.83350
1182.135, 15.21033
1182.617, 19.29193
1183.099, 12.02252
1183.581, 4.914001
1184.064, 5.212952
1184.546, 8.829102
1185.028, 8.921814
1185.510, 5.239502
1185.992, 8.430420
1186.474, 19.38373
1186.956, 27.64777
1187.438, 21.12640
1187.921, 13.76562
1188.403, 17.09418
1188.885, 26.36804
1189.367, 28.64331
1189.849, 23.39575
1190.331, 20.18341
1190.813, 20.72925
1191.295, 20.60547
1191.777, 11.63788
1192.260, 4.161438
1192.742, 9.416992
1193.224, 24.62372
1193.706, 31.67151
1194.188, 29.76831
1194.670, 27.35986
1195.152, 25.93420
1195.634, 26.71625
1196.116, 34.74969
1196.599, 42.84296
1197.081, 41.86987
1197.563, 31.74182
1198.045, 30.34729
1198.527, 38.84106
1199.009, 44.78986
1199.491, 42.51276
1199.973, 38.95428
1200.456, 44.31219
1200.938, 50.97992
1201.420, 48.81866
1201.902, 35.98303
1202.384, 23.77740
1202.866, 11.44922
1203.348, 5.735229
1203.830, 11.59656
1204.313, 23.20551
1204.795, 41.71564
1205.277, 58.41443
1205.759, 58.10626
1206.241, 31.71771
1206.723, 19.64935
1207.205, 23.06238
1207.687, 30.05255
1208.169, 36.07410
1208.651, 39.12280
1209.134, 34.33630
1209.616, 25.60083
1210.098, 20.85681
1210.580, 21.70239
1211.062, 23.72272
1211.544, 27.11395
1212.026, 30.09772
1212.508, 30.70758
1212.991, 30.62543
1213.473, 31.85437
1213.955, 33.86859
1214.437, 34.64661
1214.919, 32.05182
1215.401, 36.22388
1215.883, 49.61896
1216.365, 60.13794
1216.848, 53.13116
1217.330, 40.71045
1217.812, 38.09113
1218.294, 41.58459
1218.776, 34.96576
1219.258, 12.49127
1219.740, 3.178101
1220.222, 11.26807
1220.704, 24.87274
1221.187, 37.64429
1221.669, 46.39874
1222.151, 45.99463
1222.633, 38.27905
1223.115, 38.53369
1223.597, 50.77301
1224.079, 55.13019
1224.561, 46.69293
1225.043, 35.36993
1225.526, 28.90540
1226.008, 27.44604
1226.490, 37.56274
1226.972, 56.52106
1227.454, 45.84161
1227.936, 3.883911
1228.418, 27.07654
1228.900, 1.769653
1229.383, 31.54236
1229.865, 20.33704
1230.347, 1.644287
1230.829, 6.723083
1231.311, 48.22357
1231.793, 66.74261
1232.275, 59.81958
1232.757, 48.86591
1233.240, 38.94098
1233.722, 32.15155
1234.204, 33.10187
1234.686, 36.86548
1235.168, 38.15320
1235.650, 36.60791
1236.132, 35.37817
1236.614, 34.36047
1237.096, 33.04889
1237.579, 30.96808
1238.061, 28.61768
1238.543, 24.73120
1239.025, 21.82373
1239.507, 23.66498
1239.989, 30.49689
1240.471, 33.78839
1240.953, 33.05933
1241.436, 34.04150
1241.918, 41.47565
1242.400, 47.63928
1242.882, 44.90375
1243.364, 38.19592
1243.846, 32.17212
1244.328, 26.74908
1244.810, 26.87274
1245.292, 32.37354
1245.775, 36.77679
1246.257, 37.82037
1246.739, 35.50421
1247.221, 24.30762
1247.703, 13.99146
1248.185, 15.13770
1248.667, 28.12494
1249.149, 37.93140
1249.631, 44.49664
1250.114, 47.12140
1250.596, 42.09393
1251.078, 37.12482
1251.560, 37.99615
1252.042, 39.20905
1252.524, 33.25098
1253.006, 20.99805
1253.488, 21.35291
1253.971, 32.93445
1254.453, 44.69781
1254.935, 54.45544
1255.417, 58.56616
1255.899, 52.62921
1256.381, 43.45972
1256.863, 35.31512
1257.345, 29.02411
1257.828, 32.48315
1258.310, 43.86096
1258.792, 51.79639
1259.274, 45.82898
1259.756, 42.80408
1260.238, 50.00684
1260.720, 56.68250
1261.202, 48.73505
1261.684, 31.61810
1262.167, 23.29346
1262.649, 23.06122
1263.131, 24.36938
1263.613, 27.15363
1264.095, 26.31116
1264.577, 18.24890
1265.059, 12.33179
1265.541, 23.72949
1266.023, 42.52454
1266.506, 44.09985
1266.988, 29.86902
1267.470, 26.77966
1267.952, 46.71472
1268.434, 60.88324
1268.916, 66.36487
1269.398, 65.52435
1269.880, 59.18323
1270.363, 49.06702
1270.845, 34.03247
1271.327, 16.65466
1271.809, 10.23541
1272.291, 18.15375
1272.773, 29.74115
1273.255, 44.91803
1273.737, 57.30170
1274.219, 59.22937
1274.702, 55.77576
1275.184, 50.62006
1275.666, 44.59314
1276.148, 38.97943
1276.630, 32.89246
1277.112, 34.50159
1277.594, 45.89972
1278.076, 54.35822
1278.558, 43.72388
1279.041, 30.32727
1279.523, 29.11304
1280.005, 35.15405
1280.487, 32.85248
1280.969, 21.93250
1281.451, 21.63245
1281.933, 34.70020
1282.415, 46.34955
1282.898, 48.19049
1283.380, 43.02252
1283.862, 26.13013
1284.344, 7.414978
1284.826, 9.329895
1285.308, 28.18652
1285.790, 38.98944
1286.272, 39.10834
1286.755, 34.42267
1287.237, 20.97400
1287.719, 12.76141
1288.201, 15.22339
1288.683, 23.55841
1289.165, 31.16809
1289.647, 37.65857
1290.129, 41.72736
1290.611, 43.28064
1291.094, 43.33002
1291.576, 41.77716
1292.058, 39.05524
1292.540, 34.65277
1293.022, 30.49292
1293.504, 31.86066
1293.986, 33.96136
1294.468, 26.46655
1294.950, 9.782104
1295.433, 1.461975
1295.915, 6.537354
1296.397, 8.623718
1296.879, 3.895813
1297.361, 1.092407
1297.843, 2.863525
1298.325, 1.930481
1298.807, 23.88153
1299.290, 58.32672
1299.772, 69.36182
1300.254, 53.08191
1300.736, 43.36987
1301.218, 43.28265
1301.700, 38.38586
1302.182, 20.38782
1302.664, 1.905151
1303.146, 0.3096310
1303.629, 9.926941
1304.111, 7.825073
1304.593, 0.0000000E+00
##END=



