##NAMES=Glaucodot
##RRUFFID=R070294
##IDEAL CHEMISTRY=Co^3+^Fe^3+^(AsS)^3-^_2_
##LOCALITY=Hakansboda, Lindesberg, Västmanland, Sweden
##OWNER=RRUFF
##SOURCE=Michael Scott
##DESCRIPTION=Grey metallic associated with chalcopyrite. Crystal structure solved using this sample, reported in Yang and Downs (2008).
##STATUS=The identification of this mineral is confirmed by single-crystal X-ray diffraction and chemical analysis.
##URL=rruff.info/R070294
##MEASURED CHEMISTRY=(Co_0.52_Fe_0.47_Ni_0.01_)_Σ=1_As_1.00_S_1.00_
144.8407, 0.0000000E+00
145.3228, 0.2153930
145.8049, 1.5381000E-02
146.2870, 3.139740
146.7691, 12.57681
147.2512, 19.16177
147.7334, 19.82547
148.2155, 12.40851
148.6976, 8.425903
149.1797, 9.995514
149.6618, 14.31573
150.1439, 17.65643
150.6261, 16.97757
151.1082, 17.93250
151.5903, 23.01208
152.0724, 36.71902
152.5545, 44.41104
153.0366, 38.50977
153.5188, 26.05652
154.0009, 20.90915
154.4830, 34.36655
154.9651, 48.54446
155.4472, 55.39581
155.9293, 48.66690
156.4115, 42.26230
156.8936, 39.90286
157.3757, 40.24240
157.8578, 38.60974
158.3399, 29.40616
158.8221, 20.24570
159.3042, 16.02905
159.7863, 23.41040
160.2684, 30.53836
160.7505, 32.18564
161.2326, 29.24829
161.7148, 28.51199
162.1969, 36.42444
162.6790, 46.50739
163.1611, 52.41882
163.6432, 49.31131
164.1253, 43.79208
164.6075, 38.27014
165.0896, 32.78629
165.5717, 29.32672
166.0538, 31.18488
166.5359, 35.39429
167.0180, 37.72433
167.5002, 32.64191
167.9823, 27.36319
168.4644, 28.24548
168.9465, 36.50800
169.4286, 45.68121
169.9107, 52.96530
170.3929, 57.72705
170.8750, 58.82385
171.3571, 52.17105
171.8392, 43.03680
172.3213, 37.21622
172.8034, 35.98196
173.2856, 36.43628
173.7677, 35.86581
174.2498, 34.70218
174.7319, 34.50452
175.2140, 36.66132
175.6961, 40.26859
176.1783, 44.44928
176.6604, 50.04739
177.1425, 54.27347
177.6246, 52.62415
178.1067, 46.44882
178.5888, 39.33972
179.0710, 34.70572
179.5531, 32.07980
180.0352, 29.53864
180.5173, 26.19272
180.9994, 23.19229
181.4815, 22.38797
181.9637, 23.75409
182.4458, 26.75519
182.9279, 32.49280
183.4100, 40.01520
183.8921, 46.28577
184.3742, 47.80127
184.8564, 47.11346
185.3385, 46.62534
185.8206, 45.15204
186.3027, 43.53003
186.7848, 40.64960
187.2669, 36.97086
187.7491, 36.23001
188.2312, 40.40308
188.7133, 48.55978
189.1954, 55.65347
189.6775, 59.40518
190.1596, 61.13318
190.6418, 60.04660
191.1239, 56.21704
191.6060, 52.57837
192.0881, 50.87097
192.5702, 50.72830
193.0524, 48.40173
193.5345, 43.21075
194.0166, 37.61502
194.4987, 35.44864
194.9808, 36.83624
195.4629, 39.79205
195.9451, 45.07849
196.4272, 52.63971
196.9093, 54.40042
197.3914, 48.69965
197.8735, 39.41135
198.3556, 33.78461
198.8378, 32.24146
199.3199, 31.73734
199.8020, 30.87567
200.2841, 29.65115
200.7662, 28.03601
201.2483, 25.59546
201.7305, 24.01440
202.2126, 24.72458
202.6947, 27.91345
203.1768, 30.87711
203.6589, 31.32605
204.1410, 28.88593
204.6232, 26.16736
205.1053, 22.81305
205.5874, 19.57471
206.0695, 20.01028
206.5516, 26.05927
207.0337, 30.68286
207.5159, 27.68939
207.9980, 14.83582
208.4801, 5.470154
208.9622, 2.170868
209.4443, 3.586090
209.9264, 2.801270
210.4086, 1.294189
210.8907, 5.368408
211.3728, 6.686249
211.8549, 4.561707
212.3370, 2.056030
212.8191, 0.3755800
213.3013, 2.789673
213.7834, 6.244232
214.2655, 11.80472
214.7476, 16.70270
215.2297, 18.32120
215.7118, 15.75098
216.1940, 12.32184
216.6761, 7.944489
217.1582, 2.746613
217.6403, 0.3394170
218.1224, 1.720947
218.6045, 4.583801
219.0867, 6.953278
219.5688, 9.065582
220.0509, 10.07773
220.5330, 9.830902
221.0151, 8.327515
221.4972, 5.142548
221.9794, 1.535309
222.4615, 7.905518
222.9436, 9.248230
223.4257, 1.963806
223.9078, 2.747589
224.3899, 0.6620790
224.8721, 9.286133
225.3542, 11.75833
225.8363, 2.793274
226.3184, 9.867126
226.8005, 17.07227
227.2827, 16.50186
227.7648, 14.77264
228.2469, 13.61060
228.7290, 13.30667
229.2111, 10.97470
229.6932, 4.350281
230.1754, 2.444489
230.6575, 3.067535
231.1396, 8.240845
231.6217, 15.32736
232.1038, 11.50284
232.5859, 7.075928
233.0681, 15.26959
233.5502, 8.242798
234.0323, 5.670197
234.5144, 14.72031
234.9965, 17.48203
235.4786, 17.53934
235.9608, 14.80310
236.4429, 7.676422
236.9250, 5.759796
237.4071, 12.47989
237.8892, 22.29980
238.3713, 26.02536
238.8535, 19.80231
239.3356, 13.94498
239.8177, 12.09232
240.2998, 15.75699
240.7819, 17.54434
241.2640, 16.72739
241.7462, 14.48306
242.2283, 12.59479
242.7104, 10.15872
243.1925, 9.624237
243.6746, 12.84195
244.1567, 22.55313
244.6389, 26.01450
245.1210, 19.24973
245.6031, 8.606628
246.0852, 6.243835
246.5673, 18.26782
247.0494, 28.10568
247.5316, 28.71115
248.0137, 15.60532
248.4958, 8.723572
248.9779, 10.69748
249.4600, 17.46600
249.9421, 21.30881
250.4243, 20.47360
250.9064, 19.93616
251.3885, 22.29019
251.8706, 29.91809
252.3527, 31.75430
252.8348, 24.06854
253.3170, 12.90775
253.7991, 10.79459
254.2812, 23.01926
254.7633, 34.18756
255.2454, 38.15103
255.7275, 32.76688
256.2097, 28.18442
256.6918, 25.61349
257.1739, 23.06860
257.6560, 15.16757
258.1381, 3.763336
258.6202, 16.27170
259.1024, 13.75424
259.5845, 8.780579
260.0666, 25.60922
260.5487, 36.19067
261.0308, 41.42532
261.5129, 42.83054
261.9951, 39.37616
262.4772, 34.49603
262.9593, 29.02087
263.4414, 22.31622
263.9235, 17.72098
264.4056, 14.96976
264.8878, 14.54349
265.3699, 18.31125
265.8520, 28.56131
266.3341, 36.52567
266.8162, 37.44009
267.2983, 29.40384
267.7805, 27.09747
268.2626, 32.69537
268.7447, 41.44019
269.2268, 44.79654
269.7089, 41.19406
270.1910, 38.51935
270.6732, 40.70251
271.1553, 48.49493
271.6374, 52.13757
272.1195, 49.75827
272.6016, 45.98199
273.0837, 50.26865
273.5659, 65.07043
274.0480, 75.46411
274.5301, 73.41531
275.0122, 58.29926
275.4943, 49.16260
275.9764, 46.95990
276.4586, 48.95157
276.9407, 51.94513
277.4228, 56.13226
277.9049, 59.42114
278.3870, 61.61728
278.8691, 62.61166
279.3513, 58.19717
279.8334, 46.11353
280.3155, 34.02008
280.7976, 35.30579
281.2798, 51.01389
281.7619, 63.95001
282.2440, 66.54449
282.7261, 59.80603
283.2082, 54.73685
283.6903, 52.27374
284.1725, 50.09848
284.6546, 43.77136
285.1367, 33.65231
285.6188, 27.94803
286.1009, 31.58221
286.5830, 42.18494
287.0652, 50.10287
287.5473, 55.27258
288.0294, 57.62900
288.5115, 55.56256
288.9936, 49.89319
289.4757, 46.14087
289.9579, 46.91980
290.4400, 50.47345
290.9221, 53.75824
291.4042, 57.67972
291.8863, 59.46698
292.3684, 52.27261
292.8506, 38.95398
293.3327, 32.05167
293.8148, 38.78036
294.2969, 52.41605
294.7790, 59.89615
295.2611, 61.22699
295.7433, 60.81793
296.2254, 63.65170
296.7075, 67.94928
297.1896, 68.36066
297.6717, 60.90283
298.1538, 50.91336
298.6360, 45.96722
299.1181, 45.87500
299.6002, 48.93796
300.0823, 58.42831
300.5644, 69.65445
301.0465, 73.07611
301.5287, 62.12567
302.0108, 47.49380
302.4929, 41.10892
302.9750, 41.98819
303.4571, 44.86453
303.9392, 46.81729
304.4214, 48.41885
304.9035, 50.84879
305.3856, 55.74042
305.8677, 59.25021
306.3498, 55.50089
306.8319, 46.74863
307.3141, 40.89465
307.7962, 46.82950
308.2783, 56.02429
308.7604, 59.63339
309.2425, 53.70740
309.7246, 46.60846
310.2068, 43.59219
310.6889, 43.55292
311.1710, 43.56241
311.6531, 39.55432
312.1352, 36.66776
312.6173, 40.29089
313.0995, 54.67020
313.5816, 65.51694
314.0637, 61.51233
314.5458, 49.64825
315.0279, 43.06393
315.5100, 53.05457
315.9922, 64.79022
316.4743, 69.74667
316.9564, 66.41199
317.4385, 62.69086
317.9206, 59.59781
318.4027, 57.20969
318.8849, 55.63419
319.3670, 56.93176
319.8491, 57.32129
320.3312, 55.32285
320.8133, 50.23859
321.2954, 45.03091
321.7776, 36.77243
322.2597, 29.63873
322.7418, 28.33075
323.2239, 39.71066
323.7060, 51.12689
324.1881, 60.69040
324.6703, 68.49966
325.1524, 72.07932
325.6345, 68.24020
326.1166, 61.65390
326.5987, 56.06241
327.0808, 51.59845
327.5630, 48.04877
328.0451, 44.38354
328.5272, 40.88205
329.0093, 42.51556
329.4914, 53.81500
329.9735, 65.53333
330.4557, 71.52209
330.9378, 68.74945
331.4199, 66.38464
331.9020, 65.09018
332.3841, 64.31155
332.8662, 63.19745
333.3484, 62.37094
333.8305, 61.51434
334.3126, 60.82809
334.7947, 61.31757
335.2768, 58.31998
335.7589, 49.16910
336.2411, 37.75848
336.7232, 34.64420
337.2053, 42.41183
337.6874, 51.02121
338.1695, 56.24564
338.6516, 57.74136
339.1338, 56.83463
339.6159, 53.03467
340.0980, 48.40759
340.5801, 47.37659
341.0622, 50.49310
341.5443, 51.83136
342.0265, 46.60110
342.5086, 36.15973
342.9907, 34.35550
343.4728, 42.82190
343.9549, 53.59793
344.4370, 56.00284
344.9192, 50.90732
345.4013, 46.70566
345.8834, 47.41336
346.3655, 50.86368
346.8476, 50.51834
347.3297, 46.23001
347.8119, 42.45868
348.2940, 46.42111
348.7761, 54.70117
349.2582, 56.42212
349.7403, 44.57037
350.2225, 28.83270
350.7046, 23.11255
351.1867, 26.53009
351.6688, 32.77454
352.1509, 39.37335
352.6331, 45.35721
353.1152, 49.46188
353.5973, 51.88025
354.0794, 51.45682
354.5615, 44.39432
355.0436, 33.04593
355.5258, 24.57385
356.0079, 26.21677
356.4900, 30.63214
356.9721, 30.96579
357.4542, 24.69144
357.9363, 18.77493
358.4185, 17.54333
358.9006, 19.38583
359.3827, 21.51520
359.8648, 23.37970
360.3469, 24.82739
360.8290, 25.99017
361.3112, 27.00427
361.7933, 26.76450
362.2754, 22.08777
362.7575, 17.03046
363.2396, 15.99631
363.7217, 27.41483
364.2039, 35.54092
364.6860, 33.77652
365.1681, 21.95444
365.6502, 14.82098
366.1323, 19.32626
366.6144, 25.64496
367.0966, 27.09436
367.5787, 17.61694
368.0608, 10.43225
368.5429, 7.180023
369.0250, 7.117584
369.5071, 6.335724
369.9893, 2.649323
370.4714, 0.7677000
370.9535, 3.698761
371.4356, 15.63522
371.9177, 22.66287
372.3998, 23.45358
372.8820, 19.85120
373.3641, 15.23566
373.8462, 7.046021
374.3283, 2.622101
374.8104, 8.344574
375.2925, 26.07840
375.7747, 32.32120
376.2568, 24.36990
376.7389, 10.46481
377.2210, 0.8074040
377.7031, 4.574829
378.1852, 7.243927
378.6674, 7.494904
379.1495, 5.469727
379.6316, 0.9353330
380.1137, 6.362183
380.5958, 13.49100
381.0779, 18.36249
381.5601, 20.99017
382.0422, 20.64828
382.5243, 16.09686
383.0064, 9.733154
383.4885, 5.337433
383.9706, 2.712769
384.4528, 0.7357480
384.9349, 0.8650510
385.4170, 2.461517
385.8991, 5.226166
386.3812, 10.31833
386.8633, 14.07056
387.3455, 11.11511
387.8276, 4.114502
388.3097, 0.8777470
388.7918, 3.023560
389.2739, 7.748322
389.7560, 5.381683
390.2382, 5.402557
390.7203, 14.52536
391.2024, 13.65460
391.6845, 9.102203
392.1666, 8.133881
392.6487, 19.46524
393.1309, 28.91586
393.6130, 29.92145
394.0951, 23.06308
394.5772, 15.87515
395.0593, 6.888916
395.5414, 0.3085330
396.0236, 1.120880
396.5057, 10.28748
396.9878, 18.18979
397.4699, 19.07663
397.9520, 15.07852
398.4341, 12.92383
398.9163, 14.33548
399.3984, 15.80804
399.8805, 16.01401
400.3626, 14.37668
400.8447, 13.08337
401.3268, 11.55603
401.8090, 10.79211
402.2911, 12.64148
402.7732, 18.52484
403.2553, 23.21158
403.7374, 24.73810
404.2195, 23.46375
404.7017, 24.88791
405.1838, 30.07712
405.6659, 35.18442
406.1480, 36.68259
406.6301, 34.57468
407.1122, 30.14481
407.5944, 21.21045
408.0765, 11.56097
408.5586, 13.37314
409.0407, 26.46658
409.5228, 39.22049
410.0049, 42.57120
410.4871, 39.51276
410.9692, 39.21567
411.4513, 43.47461
411.9334, 46.94547
412.4155, 42.27136
412.8976, 31.59802
413.3798, 21.38788
413.8619, 12.24069
414.3440, 6.210785
414.8261, 6.970093
415.3082, 14.53262
415.7903, 21.85767
416.2725, 23.39197
416.7546, 22.53226
417.2367, 23.24966
417.7188, 30.11035
418.2009, 35.10431
418.6830, 31.35291
419.1652, 21.80493
419.6473, 17.43695
420.1294, 30.36005
420.6115, 43.18347
421.0937, 45.63614
421.5758, 30.08102
422.0579, 17.51263
422.5400, 10.29272
423.0221, 7.714203
423.5042, 8.598419
423.9864, 17.69278
424.4685, 24.80975
424.9506, 26.91040
425.4327, 23.43219
425.9148, 22.08548
426.3969, 23.91476
426.8791, 26.68198
427.3612, 28.41196
427.8433, 28.70361
428.3254, 29.59085
428.8075, 32.88910
429.2896, 36.38477
429.7718, 30.33798
430.2539, 12.42581
430.7360, 2.826782
431.2181, 4.540405
431.7002, 6.177490
432.1823, 13.08411
432.6645, 15.07703
433.1466, 14.32687
433.6287, 11.90362
434.1108, 8.607544
434.5929, 8.715942
435.0750, 18.38217
435.5572, 30.32541
436.0393, 30.58429
436.5214, 19.79352
437.0035, 8.389496
437.4856, 4.677765
437.9677, 5.445374
438.4499, 6.059692
438.9320, 4.303802
439.4141, 3.984161
439.8962, 9.535919
440.3783, 18.78918
440.8604, 26.30948
441.3426, 30.97137
441.8247, 32.12259
442.3068, 27.41434
442.7889, 14.35242
443.2710, 6.235901
443.7531, 10.59744
444.2353, 20.07468
444.7174, 26.40659
445.1995, 28.29315
445.6816, 28.39249
446.1637, 24.98831
446.6458, 18.25107
447.1280, 15.81061
447.6101, 21.39835
448.0922, 28.47736
448.5743, 32.76593
449.0564, 33.39914
449.5385, 33.59549
450.0207, 33.63992
450.5028, 33.11212
450.9849, 30.83801
451.4670, 26.41599
451.9491, 22.32275
452.4312, 19.07913
452.9134, 16.81503
453.3955, 19.32990
453.8776, 27.99292
454.3597, 36.65942
454.8418, 37.00992
455.3239, 31.10611
455.8061, 28.01181
456.2882, 31.51199
456.7703, 35.96997
457.2524, 31.16818
457.7345, 19.52399
458.2166, 10.75586
458.6988, 15.12225
459.1809, 23.21921
459.6630, 24.01291
460.1451, 15.46912
460.6272, 6.461060
461.1093, 3.8787998E-02
461.5915, 2.910980
462.0736, 0.5711980
462.5557, 18.15704
463.0378, 31.73926
463.5199, 27.91666
464.0020, 9.407532
464.4842, 3.381836
464.9663, 3.820618
465.4484, 0.3670350
465.9305, 5.622650
466.4126, 13.04279
466.8947, 19.75516
467.3769, 27.16211
467.8590, 33.24197
468.3411, 34.10950
468.8232, 26.39883
469.3053, 20.19452
469.7874, 18.53320
470.2696, 21.14005
470.7517, 23.04984
471.2338, 24.31570
471.7159, 24.71375
472.1980, 23.38953
472.6801, 20.50635
473.1623, 18.69211
473.6444, 17.93207
474.1265, 18.85114
474.6086, 24.11960
475.0907, 32.90103
475.5728, 39.78555
476.0550, 42.80997
476.5371, 41.79321
477.0192, 34.17795
477.5013, 19.74203
477.9834, 7.343933
478.4655, 5.233582
478.9477, 8.823761
479.4298, 12.22128
479.9119, 14.21426
480.3940, 14.91852
480.8761, 12.79718
481.3582, 9.275330
481.8404, 8.397491
482.3225, 14.03674
482.8046, 20.36349
483.2867, 24.47647
483.7688, 25.11932
484.2509, 27.06180
484.7331, 34.91638
485.2152, 42.03955
485.6973, 41.75323
486.1794, 27.42673
486.6615, 17.12796
487.1436, 14.49841
487.6258, 17.82916
488.1079, 18.59232
488.5900, 14.99054
489.0721, 12.43149
489.5542, 16.11072
490.0363, 25.75131
490.5185, 27.79474
491.0006, 20.07303
491.4827, 10.70850
491.9648, 12.20209
492.4470, 22.42215
492.9291, 29.39267
493.4112, 27.27863
493.8933, 20.90927
494.3754, 16.40646
494.8575, 13.78006
495.3397, 13.75531
495.8218, 20.19351
496.3039, 27.96146
496.7860, 31.25311
497.2681, 28.73743
497.7502, 24.16806
498.2324, 15.71844
498.7145, 7.329071
499.1966, 4.269379
499.6787, 17.41895
500.1608, 26.79248
500.6429, 22.99258
501.1251, 7.005005
501.6072, 2.393738
502.0893, 0.3668520
502.5714, 5.983673
503.0535, 10.26151
503.5356, 12.45767
504.0178, 15.16833
504.4999, 18.99124
504.9820, 22.75742
505.4641, 24.35083
505.9462, 23.20145
506.4283, 23.02661
506.9105, 26.02524
507.3926, 30.54999
507.8747, 29.55096
508.3568, 22.81085
508.8389, 14.23053
509.3210, 3.459320
509.8032, 7.003815
510.2853, 9.072845
510.7674, 0.2650150
511.2495, 10.60754
511.7316, 15.60791
512.2137, 15.94287
512.6959, 14.04129
513.1780, 7.162231
513.6601, 1.527283
514.1422, 1.852997
514.6243, 7.502197
515.1064, 13.84732
515.5886, 21.97809
516.0707, 28.22495
516.5528, 29.97168
517.0349, 24.62592
517.5170, 19.56036
517.9991, 15.21271
518.4813, 11.61127
518.9634, 8.909943
519.4455, 7.870483
519.9276, 6.524200
520.4097, 4.155762
520.8918, 0.9034120
521.3740, 1.865326
521.8561, 4.661621
522.3382, 5.659210
522.8203, 2.067719
523.3024, 6.032196
523.7845, 13.15335
524.2667, 19.44852
524.7488, 22.85510
525.2309, 18.40698
525.7130, 8.557434
526.1951, 1.917175
526.6772, 2.029266
527.1594, 6.192169
527.6415, 14.47104
528.1236, 25.15338
528.6057, 30.83112
529.0878, 20.79156
529.5699, 8.307709
530.0521, 4.306946
530.5342, 12.16431
531.0163, 19.30630
531.4984, 22.04688
531.9805, 21.90613
532.4626, 20.50912
532.9448, 15.74130
533.4269, 12.49457
533.9090, 11.24429
534.3911, 11.90244
534.8732, 14.68399
535.3553, 21.89355
535.8375, 26.84250
536.3196, 24.60126
536.8017, 14.44229
537.2838, 14.85992
537.7659, 28.86856
538.2480, 43.48657
538.7302, 43.19351
539.2123, 29.99973
539.6944, 17.41498
540.1765, 7.559326
540.6586, 1.079529
541.1407, 0.2845760
541.6229, 3.893250
542.1050, 7.261902
542.5871, 6.806458
543.0692, 5.997498
543.5513, 7.708252
544.0334, 12.24033
544.5156, 15.95932
544.9977, 18.00360
545.4798, 18.02322
545.9619, 15.81320
546.4440, 7.292969
546.9261, 1.206726
547.4083, 0.1471250
547.8904, 1.547455
548.3725, 2.663391
548.8546, 1.377319
549.3367, 3.020996
549.8188, 10.59659
550.3010, 23.43729
550.7831, 29.17853
551.2652, 26.40472
551.7473, 22.41528
552.2294, 23.14090
552.7115, 27.92307
553.1937, 30.10544
553.6758, 29.02469
554.1579, 25.90762
554.6400, 20.85349
555.1221, 14.83066
555.6042, 10.79272
556.0864, 11.33118
556.5685, 12.68179
557.0506, 9.611053
557.5327, 3.824188
558.0148, 1.720947
558.4969, 11.01605
558.9791, 21.33157
559.4612, 25.24884
559.9433, 20.68326
560.4254, 18.30090
560.9075, 24.34082
561.3896, 30.88153
561.8718, 30.68631
562.3539, 16.47803
562.8360, 8.170837
563.3181, 9.543884
563.8002, 16.64673
564.2823, 20.18478
564.7645, 19.31775
565.2466, 17.16785
565.7287, 13.43140
566.2108, 9.264679
566.6929, 12.67719
567.1750, 24.04211
567.6572, 33.36649
568.1393, 29.44077
568.6214, 18.84238
569.1035, 13.26169
569.5856, 15.48761
570.0677, 18.79562
570.5499, 16.61429
571.0320, 12.03696
571.5141, 9.928345
571.9962, 16.30591
572.4783, 21.32812
572.9604, 18.53247
573.4426, 9.981354
573.9247, 6.443085
574.4068, 15.48203
574.8889, 24.55597
575.3710, 28.56107
575.8531, 26.22729
576.3353, 25.61337
576.8174, 28.26834
577.2995, 30.35526
577.7816, 27.04050
578.2637, 17.53937
578.7458, 11.59225
579.2280, 11.42529
579.7101, 13.64539
580.1922, 12.19348
580.6743, 8.022522
581.1564, 4.765381
581.6385, 4.003571
582.1207, 5.103302
582.6028, 8.083374
583.0849, 12.62784
583.5670, 16.47690
584.0491, 19.37198
584.5313, 20.34009
585.0134, 17.72696
585.4955, 9.357452
585.9776, 3.790924
586.4597, 6.605377
586.9418, 11.93784
587.4240, 12.90234
587.9061, 3.817657
588.3882, 0.9221500
588.8703, 1.950378
589.3524, 9.679962
589.8345, 14.31104
590.3167, 15.50314
590.7988, 14.79654
591.2809, 11.60599
591.7630, 6.797058
592.2451, 7.033142
592.7272, 12.56851
593.2094, 17.53928
593.6915, 16.10092
594.1736, 10.82336
594.6557, 6.646027
595.1378, 4.378479
595.6199, 3.125305
596.1021, 2.428925
596.5842, 2.525848
597.0663, 3.693512
597.5485, 7.451324
598.0306, 10.70712
598.5127, 13.36215
598.9948, 14.92746
599.4769, 13.21472
599.9590, 2.044556
600.4412, 4.978424
600.9233, 1.182861
601.4054, 14.66415
601.8875, 20.18594
602.3696, 11.36957
602.8517, 1.983124
603.3339, 5.484711
603.8160, 9.665649
604.2981, 18.21960
604.7802, 20.53094
605.2623, 2.112091
605.7444, 7.465515
606.2266, 4.134033
606.7087, 0.2731930
607.1908, 14.38470
607.6729, 4.621429
608.1550, 9.202911
608.6371, 9.921082
609.1193, 16.63770
609.6014, 10.36542
610.0835, 8.105225
610.5656, 18.83820
611.0477, 22.37674
611.5298, 14.60965
612.0120, 21.70816
612.4941, 2.246857
612.9762, 6.092316
613.4583, 19.99362
613.9404, 12.88007
614.4225, 20.21640
614.9047, 22.04968
615.3868, 1.127289
615.8689, 19.19061
616.3510, 20.69827
616.8331, 2.892090
617.3152, 21.72052
617.7974, 6.578033
618.2795, 3.561157
618.7616, 9.669861
619.2437, 6.265686
619.7258, 17.85971
620.2079, 15.00513
620.6901, 10.85977
621.1722, 12.34808
621.6543, 2.127594
622.1364, 13.01236
622.6185, 7.921753
623.1006, 12.88739
623.5828, 20.13257
624.0649, 9.924591
624.5470, 18.19403
625.0291, 2.190216
625.5112, 1.402039
625.9933, 2.415344
626.4755, 18.75378
626.9576, 12.89749
627.4397, 10.75085
627.9218, 5.007904
628.4039, 2.913483
628.8860, 12.84479
629.3682, 25.97803
629.8503, 29.36139
630.3324, 24.05350
630.8145, 18.24231
631.2966, 16.35339
631.7787, 15.71048
632.2609, 14.17719
632.7430, 10.92905
633.2251, 8.976715
633.7072, 8.729614
634.1893, 10.17468
634.6714, 13.83972
635.1536, 22.98547
635.6357, 26.76599
636.1178, 22.75104
636.5999, 14.73312
637.0820, 9.490173
637.5641, 7.132111
638.0463, 5.474976
638.5284, 3.137543
639.0105, 1.627380
639.4926, 5.204529
639.9747, 12.99884
640.4568, 19.84509
640.9390, 24.08218
641.4211, 25.04388
641.9032, 19.79700
642.3853, 8.195831
642.8674, 0.8138430
643.3495, 5.933044
643.8317, 14.05267
644.3138, 18.62674
644.7959, 16.96783
645.2780, 15.43155
645.7601, 14.38696
646.2422, 13.12924
646.7244, 10.61768
647.2065, 6.461426
647.6886, 2.930237
648.1707, 0.1860960
648.6528, 1.358307
649.1349, 7.3302999E-02
649.6171, 3.605957
650.0992, 6.635376
650.5813, 8.307281
651.0634, 8.111786
651.5455, 3.565857
652.0276, 4.249939
652.5098, 9.309753
652.9919, 7.218109
653.4740, 2.302277
653.9561, 3.652222
654.4382, 11.05789
654.9203, 15.76324
655.4025, 16.56100
655.8846, 15.09973
656.3667, 11.74808
656.8488, 4.485687
657.3309, 2.022339
657.8130, 6.210815
658.2952, 0.1053160
658.7773, 15.28424
659.2594, 23.92184
659.7415, 26.31549
660.2236, 3.763489
660.7057, 13.42377
661.1879, 9.876617
661.6700, 6.561523
662.1521, 21.23029
662.6342, 2.306976
663.1163, 16.10638
663.5984, 16.90970
664.0806, 23.71155
664.5627, 17.52399
665.0448, 15.34882
665.5269, 25.89749
666.0090, 29.52100
666.4911, 21.83890
666.9733, 29.02374
667.4554, 9.651672
667.9375, 13.58838
668.4196, 27.58102
668.9017, 20.55878
669.3839, 27.98657
669.8660, 29.91104
670.3481, 6.825378
670.8302, 27.23508
671.3123, 28.83453
671.7944, 11.11996
672.2766, 30.03955
672.7587, 14.98779
673.2408, 12.00082
673.7229, 18.20029
674.2050, 14.88696
674.6871, 26.57178
675.1693, 23.80798
675.6514, 19.75323
676.1335, 21.33212
676.6156, 6.947083
677.0977, 22.17883
677.5798, 17.17981
678.0620, 22.23724
678.5441, 29.57397
679.0262, 19.45773
679.5083, 27.69836
679.9904, 7.405609
680.4725, 19.26285
680.9547, 20.25592
681.4368, 21.20575
681.9189, 22.09558
682.4010, 21.29541
682.8831, 14.18420
683.3652, 6.669464
683.8474, 4.606934
684.3295, 15.92685
684.8116, 22.44852
685.2937, 17.45874
685.7758, 8.091797
686.2579, 3.865143
686.7401, 7.281128
687.2222, 8.557861
687.7043, 4.444885
688.1864, 1.364929
688.6685, 1.670410
689.1506, 0.4715270
689.6328, 15.45163
690.1149, 23.83325
690.5970, 25.97086
691.0791, 3.163391
691.5612, 12.56818
692.0433, 9.063873
692.5255, 5.030304
693.0076, 18.96896
693.4897, 0.2098690
693.9718, 13.44360
694.4539, 13.99109
694.9360, 20.53690
695.4182, 14.09387
695.9003, 11.66263
696.3824, 22.22464
696.8645, 25.59216
697.3466, 17.65402
697.8287, 24.58130
698.3109, 4.948883
698.7930, 8.626038
699.2751, 22.36020
699.7572, 15.07944
700.2393, 22.24850
700.7214, 23.91431
701.2036, 10.61096
701.6857, 10.42456
702.1678, 7.636139
702.6499, 7.230133
703.1320, 14.10150
703.6141, 24.66446
704.0963, 29.79327
704.5784, 26.55304
705.0605, 21.71036
705.5426, 15.49197
706.0247, 8.827667
706.5068, 6.558685
706.9890, 9.310455
707.4711, 12.42987
707.9532, 12.20261
708.4353, 10.85907
708.9174, 16.16794
709.3995, 27.35464
709.8817, 35.39694
710.3638, 33.06247
710.8459, 26.59070
711.3280, 20.17392
711.8101, 13.71445
712.2922, 10.32837
712.7744, 12.39368
713.2565, 16.80862
713.7386, 21.83707
714.2207, 29.24051
714.7028, 32.12039
715.1849, 28.60037
715.6671, 23.86383
716.1492, 25.58844
716.6313, 32.82709
717.1134, 33.19717
717.5955, 23.27686
718.0776, 10.19174
718.5598, 0.7372740
719.0419, 7.942261
719.5240, 8.121887
720.0061, 7.014374
720.4882, 20.72131
720.9703, 24.91339
721.4525, 22.16864
721.9346, 18.29398
722.4167, 8.659576
722.8988, 5.459259
723.3809, 14.99481
723.8630, 32.26346
724.3452, 35.79474
724.8273, 23.75290
725.3094, 11.15411
725.7915, 4.871765
726.2736, 3.587555
726.7557, 3.554718
727.2379, 4.664490
727.7200, 6.059357
728.2021, 6.763397
728.6842, 7.807678
729.1663, 11.06647
729.6484, 16.79465
730.1306, 19.56131
730.6127, 14.99594
731.0948, 9.338409
731.5769, 6.016937
732.0590, 5.554413
732.5411, 5.182953
733.0233, 4.921570
733.5054, 4.708496
733.9875, 4.015289
734.4696, 3.105316
734.9517, 4.044678
735.4338, 7.173370
735.9160, 11.47305
736.3981, 17.69418
736.8802, 23.84830
737.3623, 26.93237
737.8444, 25.28781
738.3266, 22.13293
738.8087, 17.91824
739.2908, 13.15781
739.7729, 8.617523
740.2551, 2.033752
740.7372, 0.6906740
741.2193, 2.489868
741.7014, 9.095215
742.1835, 14.67047
742.6656, 19.19653
743.1478, 21.04578
743.6299, 18.30353
744.1120, 14.38718
744.5941, 16.03848
745.0762, 21.27631
745.5583, 23.99573
746.0405, 15.74240
746.5226, 9.175842
747.0047, 14.60455
747.4868, 29.37567
747.9689, 37.23560
748.4510, 29.15741
748.9332, 23.21149
749.4153, 26.93887
749.8974, 38.99423
750.3795, 42.56265
750.8616, 36.68091
751.3438, 29.78503
751.8259, 27.21765
752.3080, 27.59146
752.7901, 27.99033
753.2722, 28.31125
753.7543, 28.14185
754.2365, 28.16727
754.7186, 26.92743
755.2007, 22.06830
755.6828, 12.05923
756.1649, 6.909088
756.6470, 9.605743
757.1292, 14.39200
757.6113, 18.58887
758.0934, 22.67206
758.5755, 23.33600
759.0576, 19.60977
759.5397, 15.73080
760.0219, 17.99454
760.5040, 23.82135
760.9861, 23.93790
761.4682, 15.83380
761.9503, 7.940643
762.4324, 7.277740
762.9146, 10.42654
763.3967, 13.48242
763.8788, 16.58279
764.3609, 17.78214
764.8430, 16.10980
765.3251, 12.71695
765.8073, 7.887421
766.2894, 6.8755999E-02
766.7715, 2.096710
767.2536, 4.713196
767.7357, 14.87314
768.2178, 20.04965
768.7000, 20.70682
769.1821, 18.09515
769.6642, 9.294098
770.1463, 2.794800
770.6284, 9.108521
771.1105, 22.58365
771.5927, 32.29236
772.0748, 34.23264
772.5569, 32.60229
773.0390, 25.25864
773.5211, 15.68430
774.0032, 14.17813
774.4854, 24.08817
774.9675, 28.90329
775.4496, 21.06558
775.9317, 7.274017
776.4138, 5.943726
776.8959, 14.44888
777.3781, 21.17386
777.8602, 16.02405
778.3423, 9.872253
778.8244, 14.94482
779.3065, 28.09598
779.7886, 35.66159
780.2708, 30.87741
780.7529, 22.22955
781.2350, 10.19638
781.7171, 4.145081
782.1992, 10.21698
782.6813, 6.876099
783.1635, 0.4722900
783.6456, 12.02463
784.1277, 25.02155
784.6098, 30.13837
785.0919, 27.82025
785.5740, 22.91101
786.0562, 15.07083
786.5383, 8.462799
787.0204, 6.897827
787.5025, 10.57336
787.9846, 16.00925
788.4667, 25.38538
788.9489, 33.45032
789.4310, 38.59686
789.9131, 40.88663
790.3952, 37.21796
790.8773, 26.31171
791.3594, 15.54965
791.8416, 11.37491
792.3237, 11.72089
792.8058, 9.288391
793.2879, 3.968170
793.7700, 1.668671
794.2521, 10.73709
794.7343, 21.68307
795.2164, 26.64737
795.6985, 23.87231
796.1806, 18.57047
796.6627, 7.255432
797.1448, 1.551453
797.6270, 1.744141
798.1091, 7.843567
798.5912, 14.41483
799.0733, 17.94452
799.5554, 19.25928
800.0375, 16.77213
800.5197, 13.32053
801.0018, 16.54440
801.4839, 28.77393
801.9660, 36.09772
802.4481, 22.83917
802.9302, 5.609222
803.4124, 0.9988710
803.8945, 13.69077
804.3766, 19.68216
804.8587, 12.47626
805.3408, 2.501923
805.8229, 0.7432560
806.3051, 2.702667
806.7872, 7.248779
807.2693, 12.62411
807.7514, 17.94400
808.2335, 24.53131
808.7156, 29.76266
809.1978, 28.40482
809.6799, 16.61865
810.1620, 7.558289
810.6441, 9.238220
811.1262, 14.81882
811.6083, 17.81580
812.0905, 18.59048
812.5726, 14.29486
813.0547, 1.353149
813.5368, 9.795410
814.0189, 2.950073
814.5010, 18.18182
814.9832, 31.62607
815.4653, 33.22607
815.9474, 29.55219
816.4295, 22.80237
816.9116, 16.00449
817.3937, 13.45169
817.8759, 20.15533
818.3580, 23.32547
818.8401, 16.03491
819.3222, 6.922638
819.8043, 4.699219
820.2864, 11.47034
820.7686, 15.01636
821.2507, 13.47559
821.7328, 10.82495
822.2149, 12.75510
822.6970, 17.59885
823.1791, 20.95248
823.6613, 21.23312
824.1434, 21.73444
824.6255, 27.65515
825.1076, 33.88263
825.5897, 34.06979
826.0718, 14.97800
826.5540, 8.259155
827.0361, 20.15451
827.5182, 37.22070
828.0003, 43.34009
828.4824, 38.37900
828.9645, 33.29764
829.4467, 30.07736
829.9288, 27.71033
830.4109, 24.62012
830.8930, 21.76343
831.3751, 20.93036
831.8572, 24.07410
832.3394, 25.85724
832.8215, 21.71420
833.3036, 16.79099
833.7857, 17.26932
834.2678, 26.53201
834.7499, 30.95633
835.2321, 28.72549
835.7142, 23.77982
836.1963, 20.00061
836.6784, 17.55942
837.1605, 17.75494
837.6426, 21.45746
838.1248, 24.92859
838.6069, 25.23734
839.0890, 23.73795
839.5711, 21.58981
840.0532, 19.14908
840.5353, 16.02090
841.0175, 9.522430
841.4996, 5.092621
841.9817, 10.65942
842.4638, 26.84399
842.9459, 37.95670
843.4280, 42.67935
843.9102, 41.99603
844.3923, 33.83658
844.8744, 22.55875
845.3565, 14.89212
845.8386, 11.89462
846.3207, 13.37766
846.8029, 26.09247
847.2850, 38.82608
847.7671, 41.50037
848.2492, 29.88376
848.7313, 18.54193
849.2134, 6.100189
849.6956, 2.326782
850.1777, 0.8494570
850.6598, 12.41638
851.1419, 21.60046
851.6240, 27.18423
852.1061, 29.86057
852.5883, 30.62805
853.0704, 28.49103
853.5525, 21.28574
854.0346, 5.062805
854.5167, 4.269043
854.9988, 4.306183
855.4810, 0.2354430
855.9631, 8.422607
856.4452, 20.25439
856.9273, 22.48340
857.4094, 14.19965
857.8915, 4.609802
858.3737, 2.145203
858.8558, 3.048889
859.3379, 2.239380
859.8200, 1.087036
860.3021, 2.678802
860.7842, 7.5897001E-02
861.2664, 4.090912
861.7485, 7.790802
862.2306, 10.88220
862.7127, 16.45587
863.1948, 25.81110
863.6769, 31.96701
864.1591, 27.03717
864.6412, 16.17767
865.1233, 12.21344
865.6054, 15.12192
866.0875, 19.20532
866.5696, 21.50735
867.0518, 23.53931
867.5339, 27.43842
868.0160, 33.46143
868.4981, 33.46686
868.9802, 24.38681
869.4623, 15.69638
869.9445, 11.57672
870.4266, 11.66989
870.9087, 15.06924
871.3908, 20.49347
871.8729, 24.61127
872.3550, 23.20001
872.8372, 19.94321
873.3193, 17.70081
873.8014, 16.47421
874.2835, 15.75250
874.7656, 14.16367
875.2477, 14.90121
875.7299, 20.64618
876.2120, 28.93329
876.6941, 28.45566
877.1762, 19.34009
877.6583, 13.05035
878.1404, 16.19040
878.6226, 23.32489
879.1047, 29.88950
879.5869, 34.58920
880.0690, 34.27567
880.5511, 20.35779
881.0332, 10.09311
881.5153, 10.07413
881.9974, 15.80237
882.4796, 18.74368
882.9617, 18.73193
883.4438, 16.64252
883.9259, 12.23447
884.4080, 6.796509
884.8901, 0.6289980
885.3723, 4.831879
885.8544, 5.919678
886.3365, 1.608154
886.8186, 8.884949
887.3007, 12.66605
887.7828, 13.51956
888.2650, 11.57785
888.7471, 3.293060
889.2292, 3.021912
889.7113, 14.58652
890.1934, 28.45236
890.6755, 31.10611
891.1577, 25.86121
891.6398, 23.21442
892.1219, 25.41006
892.6040, 28.90576
893.0861, 34.33981
893.5682, 38.07358
894.0504, 35.67230
894.5325, 21.23642
895.0146, 15.11002
895.4967, 20.97867
895.9788, 28.34531
896.4609, 26.76715
896.9431, 18.26089
897.4252, 16.63660
897.9073, 22.70197
898.3894, 27.97180
898.8715, 26.13937
899.3536, 20.70523
899.8358, 12.20715
900.3179, 8.1179999E-03
900.8000, 2.580719
901.2821, 13.41190
901.7642, 27.38168
902.2463, 28.75174
902.7285, 19.57477
903.2106, 16.07245
903.6927, 18.04834
904.1748, 19.81168
904.6569, 17.46704
905.1390, 13.52145
905.6212, 9.180664
906.1033, 5.178223
906.5854, 4.127014
907.0675, 9.555786
907.5496, 14.69202
908.0317, 18.77930
908.5139, 21.50735
908.9960, 22.46152
909.4781, 21.62863
909.9602, 18.50305
910.4423, 10.80432
910.9244, 4.182129
911.4066, 8.125671
911.8887, 17.63232
912.3708, 23.24414
912.8529, 18.65231
913.3350, 15.25659
913.8171, 14.35791
914.2993, 15.34680
914.7814, 18.13541
915.2635, 23.22516
915.7456, 25.51733
916.2277, 23.91483
916.7098, 20.84189
917.1920, 18.71106
917.6741, 17.00320
918.1562, 14.75220
918.6383, 11.39285
919.1204, 10.03979
919.6025, 14.55389
920.0847, 19.02765
920.5668, 19.14096
921.0489, 14.55072
921.5310, 11.22989
922.0131, 9.542389
922.4952, 8.903717
922.9774, 9.240753
923.4595, 10.03717
923.9416, 10.27545
924.4237, 9.991821
924.9058, 10.54642
925.3879, 15.14209
925.8701, 17.86026
926.3522, 15.64655
926.8343, 9.219055
927.3164, 3.705200
927.7985, 1.244202
928.2806, 2.162628
928.7628, 5.090698
929.2449, 14.87906
929.7270, 17.94904
930.2091, 16.24393
930.6912, 15.12292
931.1733, 19.40274
931.6555, 21.46057
932.1376, 17.36310
932.6197, 10.34171
933.1018, 5.467957
933.5839, 2.830444
934.0660, 0.9508060
934.5482, 0.8369140
935.0303, 0.2579960
935.5124, 12.64383
935.9945, 29.32101
936.4766, 36.88574
936.9587, 29.89432
937.4409, 20.58432
937.9230, 6.452484
938.4051, 3.510162
938.8872, 0.7956850
939.3693, 17.98804
939.8514, 29.80200
940.3336, 34.17316
940.8157, 33.90744
941.2978, 27.56918
941.7799, 19.92020
942.2620, 18.70804
942.7441, 24.02850
943.2263, 28.83005
943.7084, 31.59079
944.1905, 32.83041
944.6726, 31.16458
945.1547, 27.52005
945.6368, 29.14148
946.1190, 36.54999
946.6011, 40.37091
947.0832, 34.11166
947.5653, 24.55084
948.0474, 19.85547
948.5295, 19.01059
949.0117, 19.65494
949.4938, 23.36255
949.9759, 25.27731
950.4580, 22.65289
950.9401, 19.21561
951.4222, 22.21561
951.9044, 31.87088
952.3865, 34.94028
952.8686, 28.24612
953.3507, 19.76059
953.8328, 18.13126
954.3149, 19.64746
954.7971, 20.08585
955.2792, 18.50320
955.7613, 16.26767
956.2434, 13.09399
956.7255, 9.942230
957.2076, 6.736938
957.6898, 3.578857
958.1719, 5.033508
958.6540, 10.89786
959.1361, 16.71063
959.6182, 19.48749
960.1003, 20.23853
960.5825, 18.58270
961.0646, 15.29050
961.5467, 14.74500
962.0288, 22.34451
962.5109, 25.16904
962.9930, 17.56000
963.4752, 5.529968
963.9573, 5.928467
964.4394, 16.64481
964.9215, 24.61386
965.4036, 24.84937
965.8857, 22.36142
966.3679, 20.17566
966.8500, 18.13562
967.3321, 16.01208
967.8142, 13.74667
968.2963, 11.54449
968.7784, 9.639648
969.2606, 7.359497
969.7427, 3.578278
970.2248, 1.139954
970.7069, 5.558960
971.1890, 9.539185
971.6711, 10.23627
972.1533, 3.708282
972.6354, 5.046722
973.1175, 13.73010
973.5996, 22.05179
974.0817, 26.93628
974.5638, 28.33948
975.0460, 26.00131
975.5281, 16.95953
976.0102, 6.734192
976.4923, 11.26172
976.9744, 24.80457
977.4565, 30.51044
977.9387, 8.684998
978.4208, 7.760193
978.9029, 1.385773
979.3850, 14.38815
979.8671, 21.53754
980.3492, 18.46030
980.8314, 15.48975
981.3135, 13.50183
981.7956, 12.82996
982.2777, 14.57755
982.7598, 17.51562
983.2419, 20.45279
983.7241, 23.51123
984.2062, 23.92068
984.6883, 17.30975
985.1704, 11.47202
985.6525, 10.07101
986.1346, 12.68713
986.6168, 13.92068
987.0989, 13.68521
987.5810, 15.07272
988.0631, 22.95587
988.5452, 30.69113
989.0273, 30.49539
989.5095, 25.18320
989.9916, 22.09064
990.4737, 28.06039
990.9558, 26.69687
991.4379, 12.01361
991.9200, 4.914276
992.4022, 5.725311
992.8843, 6.730286
993.3664, 21.25449
993.8485, 36.87109
994.3306, 46.26740
994.8127, 38.09583
995.2949, 25.70697
995.7770, 21.99539
996.2591, 29.28726
996.7412, 29.68829
997.2233, 21.30411
997.7054, 12.54562
998.1876, 6.960083
998.6697, 5.303406
999.1518, 13.56244
999.6339, 28.20221
1000.116, 35.27173
1000.598, 17.12244
1001.080, 3.689545
1001.562, 10.31381
1002.044, 25.74060
1002.527, 28.82382
1003.009, 18.43848
1003.491, 12.27109
1003.973, 14.28174
1004.455, 18.43051
1004.937, 19.26379
1005.419, 17.68750
1005.901, 14.23431
1006.384, 8.058716
1006.866, 4.176056
1007.348, 3.458069
1007.830, 4.556488
1008.312, 7.519348
1008.794, 11.74750
1009.276, 14.00754
1009.758, 14.28864
1010.240, 12.66672
1010.723, 3.394348
1011.205, 2.053528
1011.687, 7.736908
1012.169, 26.63934
1012.651, 38.05573
1013.133, 40.73703
1013.615, 38.18042
1014.097, 29.69070
1014.580, 19.33981
1015.062, 10.16104
1015.544, 4.024017
1016.026, 6.967590
1016.508, 22.57852
1016.990, 32.23560
1017.472, 20.17163
1017.954, 7.787964
1018.436, 9.032623
1018.919, 22.91736
1019.401, 26.71512
1019.883, 20.40128
1020.365, 13.13245
1020.847, 7.733337
1021.329, 5.936066
1021.811, 13.71967
1022.293, 26.17828
1022.776, 31.18851
1023.258, 19.20609
1023.740, 12.51859
1024.222, 14.98770
1024.704, 20.48288
1025.186, 17.61493
1025.668, 10.19632
1026.150, 14.58844
1026.632, 34.38678
1027.115, 47.50894
1027.597, 32.11224
1028.079, 12.79700
1028.561, 5.865631
1029.043, 10.67969
1029.525, 16.61783
1030.007, 24.77023
1030.489, 29.42368
1030.972, 26.06628
1031.454, 19.38733
1031.936, 12.74811
1032.418, 8.215027
1032.900, 10.23956
1033.382, 34.83365
1033.864, 44.15829
1034.346, 27.52347
1034.828, 4.396240
1035.311, 2.496490
1035.793, 4.369781
1036.275, 8.813110
1036.757, 10.51453
1037.239, 11.65463
1037.721, 12.50439
1038.203, 14.48410
1038.685, 19.99527
1039.167, 28.28976
1039.650, 32.44354
1040.132, 32.13132
1040.614, 28.43735
1041.096, 20.15836
1041.578, 11.47134
1042.060, 9.544952
1042.542, 12.23300
1043.024, 15.58575
1043.507, 20.25217
1043.989, 21.32431
1044.471, 14.73917
1044.953, 8.051666
1045.435, 7.502289
1045.917, 12.60486
1046.399, 17.47726
1046.881, 21.96210
1047.364, 25.60403
1047.846, 29.38663
1048.328, 31.02826
1048.810, 27.99762
1049.292, 21.21878
1049.774, 14.72620
1050.256, 8.458618
1050.738, 4.377472
1051.220, 2.367554
1051.703, 2.480835
1052.185, 5.571198
1052.667, 10.59265
1053.149, 16.67505
1053.631, 24.83160
1054.113, 28.17554
1054.595, 19.77963
1055.077, 11.96960
1055.559, 11.25650
1056.042, 16.64212
1056.524, 23.08429
1057.006, 29.97800
1057.488, 32.36722
1057.970, 23.58469
1058.452, 13.53467
1058.934, 7.718872
1059.416, 5.095917
1059.899, 2.904572
1060.381, 0.8508910
1060.863, 3.905090
1061.345, 19.95862
1061.827, 36.26083
1062.309, 42.27438
1062.791, 40.92773
1063.273, 34.55280
1063.755, 23.62680
1064.238, 16.11801
1064.720, 17.35046
1065.202, 18.04395
1065.684, 14.65744
1066.166, 9.542908
1066.648, 10.91385
1067.130, 16.99899
1067.612, 19.08014
1068.094, 11.89120
1068.577, 6.102600
1069.059, 9.657623
1069.541, 16.75189
1070.023, 21.55765
1070.505, 23.76294
1070.987, 25.16425
1071.469, 25.87045
1071.951, 24.94382
1072.434, 19.81418
1072.916, 14.09378
1073.398, 12.22772
1073.880, 13.46497
1074.362, 15.38620
1074.844, 17.37234
1075.326, 17.96234
1075.808, 16.68463
1076.291, 15.20590
1076.773, 16.40509
1077.255, 19.26120
1077.737, 21.29059
1078.219, 22.20514
1078.701, 20.66299
1079.183, 14.10922
1079.665, 6.601929
1080.147, 1.450470
1080.630, 8.827148
1081.112, 6.672211
1081.594, 4.626617
1082.076, 13.94986
1082.558, 16.32681
1083.040, 16.78384
1083.522, 22.37955
1084.004, 27.64307
1084.486, 24.07220
1084.969, 4.866089
1085.451, 5.814545
1085.933, 6.838379
1086.415, 3.302094
1086.897, 3.432587
1087.379, 10.89453
1087.861, 15.26001
1088.343, 16.50037
1088.826, 14.94879
1089.308, 4.652710
1089.790, 0.1282960
1090.272, 5.675903
1090.754, 15.85907
1091.236, 22.96054
1091.718, 27.17203
1092.200, 30.09549
1092.682, 31.87277
1093.165, 33.01794
1093.647, 35.74643
1094.129, 36.42130
1094.611, 30.45746
1095.093, 19.77283
1095.575, 20.94168
1096.057, 34.73215
1096.539, 40.20312
1097.022, 25.11728
1097.504, 7.445923
1097.986, 8.264374
1098.468, 16.95163
1098.950, 18.32251
1099.432, 5.027771
1099.914, 2.076843
1100.396, 2.542419
1100.879, 2.265106
1101.361, 16.71027
1101.843, 32.70279
1102.325, 30.71017
1102.807, 15.33459
1103.289, 4.326202
1103.771, 8.220947
1104.253, 11.87473
1104.735, 12.73511
1105.218, 12.02835
1105.700, 9.749756
1106.182, 7.102448
1106.664, 11.97452
1107.146, 25.43182
1107.628, 35.51401
1108.110, 31.05026
1108.592, 24.89771
1109.074, 25.95541
1109.557, 31.33057
1110.039, 26.35895
1110.521, 10.77402
1111.003, 4.364441
1111.485, 15.62134
1111.967, 29.60056
1112.449, 33.40009
1112.931, 31.33047
1113.414, 27.36536
1113.896, 21.37790
1114.378, 17.07715
1114.860, 14.29166
1115.342, 14.02057
1115.824, 17.99231
1116.306, 24.05515
1116.788, 29.79453
1117.271, 33.91769
1117.753, 33.57999
1118.235, 23.83142
1118.717, 14.82224
1119.199, 5.475952
1119.681, 7.9375997E-02
1120.163, 6.138458
1120.645, 19.07968
1121.127, 25.11435
1121.609, 24.19745
1122.092, 22.13742
1122.574, 20.67618
1123.056, 20.76895
1123.538, 22.91946
1124.020, 25.68646
1124.502, 24.24191
1124.984, 19.19000
1125.466, 15.68848
1125.949, 14.79428
1126.431, 14.78070
1126.913, 14.67953
1127.395, 14.88525
1127.877, 16.10187
1128.359, 18.01111
1128.841, 17.81662
1129.323, 15.38498
1129.806, 13.40366
1130.288, 13.62857
1130.770, 13.03888
1131.252, 3.457062
1131.734, 6.343903
1132.216, 2.703369
1132.698, 22.82285
1133.180, 34.46741
1133.662, 29.53000
1134.145, 21.74048
1134.627, 18.62082
1135.109, 18.82434
1135.591, 22.10999
1136.073, 26.92108
1136.555, 29.22723
1137.037, 28.05334
1137.519, 22.99997
1138.001, 11.71817
1138.484, 1.027161
1138.966, 0.8075560
1139.448, 7.369263
1139.930, 11.28503
1140.412, 12.23361
1140.894, 12.25089
1141.376, 8.916840
1141.858, 9.485840
1142.341, 18.14429
1142.823, 29.05591
1143.305, 30.57632
1143.787, 24.71387
1144.269, 19.21564
1144.751, 15.07593
1145.233, 13.16626
1145.715, 15.63333
1146.198, 19.07791
1146.680, 22.98294
1147.162, 26.16788
1147.644, 19.57321
1148.126, 4.473236
1148.608, 0.5524290
1149.090, 14.95047
1149.572, 29.63446
1150.054, 22.91910
1150.536, 10.91925
1151.019, 11.10522
1151.501, 24.73349
1151.983, 26.28970
1152.465, 15.64648
1152.947, 8.469025
1153.429, 17.86185
1153.911, 29.25565
1154.393, 25.76785
1154.876, 15.53964
1155.358, 13.51688
1155.840, 24.61740
1156.322, 32.24777
1156.804, 36.51102
1157.286, 35.08832
1157.768, 16.46948
1158.250, 2.235046
1158.733, 7.029114
1159.215, 35.98441
1159.697, 51.61591
1160.179, 43.76138
1160.661, 33.35532
1161.143, 20.93463
1161.625, 11.71631
1162.107, 14.46640
1162.589, 23.15372
1163.072, 28.93433
1163.554, 30.91910
1164.036, 27.35513
1164.518, 10.74741
1165.000, 0.7500000
1165.482, 3.205414
1165.964, 12.70422
1166.446, 23.17871
1166.928, 32.18552
1167.411, 32.91833
1167.893, 22.76437
1168.375, 14.46265
1168.857, 12.97565
1169.339, 13.29041
1169.821, 14.64786
1170.303, 15.72516
1170.785, 11.25128
1171.268, 3.056824
1171.750, 3.790771
1172.232, 10.50189
1172.714, 8.100708
1173.196, 20.53427
1173.678, 46.17889
1174.160, 48.33044
1174.642, 31.47446
1175.125, 24.14511
1175.607, 25.10181
1176.089, 28.03427
1176.571, 33.60223
1177.053, 35.64349
1177.535, 28.48886
1178.017, 18.67142
1178.499, 12.21298
1178.981, 9.012543
1179.464, 2.761688
1179.946, 6.122559
1180.428, 9.729858
1180.910, 3.118835
1181.392, 15.77362
1181.874, 18.22870
1182.356, 15.46094
1182.838, 15.65863
1183.320, 19.04974
1183.803, 17.09711
1184.285, 8.919983
1184.767, 2.888031
1185.249, 4.226013
1185.731, 10.80630
1186.213, 27.22119
1186.695, 46.80014
1187.177, 50.01398
1187.660, 35.64609
1188.142, 22.68503
1188.624, 13.90128
1189.106, 10.01086
1189.588, 14.64044
1190.070, 21.87897
1190.552, 26.39175
1191.034, 28.12726
1191.516, 30.89639
1191.999, 34.93744
1192.481, 38.25845
1192.963, 40.92084
1193.445, 40.86853
1193.927, 30.22629
1194.409, 19.77698
1194.891, 24.51239
1195.373, 45.64676
1195.855, 48.02292
1196.338, 28.85345
1196.820, 15.71979
1197.302, 22.74017
1197.784, 33.29935
1198.266, 26.66113
1198.748, 14.17013
1199.230, 11.41425
1199.712, 22.35559
1200.195, 25.75931
1200.677, 20.27386
1201.159, 16.98541
1201.641, 24.99487
1202.123, 34.19196
1202.605, 29.01996
1203.087, 18.48288
1203.569, 18.89664
1204.052, 40.66638
1204.534, 43.99274
1205.016, 25.58508
1205.498, 8.555145
1205.980, 13.56863
1206.462, 24.67294
1206.944, 23.97360
1207.426, 15.11969
1207.908, 5.995392
1208.391, 6.630829
1208.873, 6.040558
1209.355, 10.99634
1209.837, 27.66364
1210.319, 28.51889
1210.801, 22.05927
1211.283, 14.88416
1211.765, 8.559875
1212.247, 8.091309
1212.730, 16.17023
1213.212, 21.96072
1213.694, 24.44226
1214.176, 23.97281
1214.658, 18.27087
1215.140, 11.73831
1215.622, 9.424377
1216.104, 10.89520
1216.587, 13.43170
1217.069, 16.14517
1217.551, 22.21042
1218.033, 33.82578
1218.515, 41.59091
1218.997, 28.96191
1219.479, 10.82321
1219.961, 4.424500
1220.443, 10.69397
1220.926, 16.98874
1221.408, 22.63797
1221.890, 27.24948
1222.372, 30.67456
1222.854, 32.99298
1223.336, 34.65320
1223.818, 35.46783
1224.300, 34.92133
1224.782, 32.91135
1225.265, 27.89194
1225.747, 18.86578
1226.229, 11.66571
1226.711, 8.220490
1227.193, 6.921387
1227.675, 5.215179
1228.157, 5.146423
1228.639, 9.354736
1229.122, 18.30008
1229.604, 27.17874
1230.086, 37.03033
1230.568, 39.69666
1231.050, 29.62784
1231.532, 16.53793
1232.014, 10.38956
1232.496, 9.050934
1232.979, 10.65979
1233.461, 15.53815
1233.943, 16.40182
1234.425, 12.65918
1234.907, 10.55087
1235.389, 12.39246
1235.871, 18.19504
1236.353, 33.27301
1236.835, 49.43051
1237.318, 54.56070
1237.800, 46.57022
1238.282, 39.50772
1238.764, 34.26410
1239.246, 31.72739
1239.728, 35.75079
1240.210, 39.27795
1240.692, 35.05173
1241.175, 27.44803
1241.657, 22.43610
1242.139, 20.04153
1242.621, 21.35425
1243.103, 26.42999
1243.585, 29.37866
1244.067, 22.18573
1244.549, 16.40817
1245.031, 23.80527
1245.514, 35.18185
1245.996, 36.63428
1246.478, 26.81912
1246.960, 26.01877
1247.442, 33.96640
1247.924, 37.95569
1248.406, 23.87512
1248.888, 10.08734
1249.370, 7.730743
1249.853, 11.25034
1250.335, 12.65277
1250.817, 12.15167
1251.299, 20.56204
1251.781, 37.39337
1252.263, 48.73306
1252.745, 39.99487
1253.227, 30.17477
1253.710, 29.36780
1254.192, 30.65643
1254.674, 23.59561
1255.156, 10.52390
1255.638, 10.02539
1256.120, 22.03473
1256.602, 32.24054
1257.084, 28.03006
1257.567, 27.40485
1258.049, 39.81442
1258.531, 53.77161
1259.013, 49.41733
1259.495, 33.19891
1259.977, 32.81155
1260.459, 48.17075
1260.941, 54.12939
1261.423, 25.76093
1261.906, 4.860107
1262.388, 0.8095400
1262.870, 7.783508
1263.352, 23.05371
1263.834, 41.08295
1264.316, 46.98795
1264.798, 40.48395
1265.280, 36.73660
1265.762, 46.80185
1266.245, 48.10745
1266.727, 33.90182
1267.209, 15.94678
1267.691, 8.761627
1268.173, 9.651001
1268.655, 16.24643
1269.137, 27.75171
1269.619, 35.59769
1270.102, 38.02777
1270.584, 39.81882
1271.066, 42.32523
1271.548, 43.15677
1272.030, 38.38788
1272.512, 30.84201
1272.994, 22.14673
1273.476, 13.23438
1273.958, 10.79688
1274.441, 16.23117
1274.923, 21.86700
1275.405, 26.33945
1275.887, 29.09171
1276.369, 31.19019
1276.851, 30.04398
1277.333, 18.81531
1277.815, 0.8499150
1278.297, 1.518127
1278.780, 12.67233
1279.262, 22.28711
1279.744, 22.07898
1280.226, 17.56973
1280.708, 6.517670
1281.190, 1.728455
1281.672, 1.663879
1282.154, 12.91238
1282.637, 19.24597
1283.119, 21.10153
1283.601, 21.26035
1284.083, 20.44699
1284.565, 17.29660
1285.047, 6.535461
1285.529, 1.684387
1286.011, 2.296143
1286.494, 2.786682
1286.976, 11.17557
1287.458, 20.19577
1287.940, 19.66550
1288.422, 7.629761
1288.904, 1.937805
1289.386, 12.16418
1289.868, 27.31525
1290.350, 42.58255
1290.833, 54.92902
1291.315, 55.10248
1291.797, 46.12665
1292.279, 32.98557
1292.761, 9.304108
1293.243, 0.1648860
1293.725, 18.82623
1294.207, 30.64767
1294.689, 24.01648
1295.172, 8.748230
1295.654, 3.451477
1296.136, 2.439514
1296.618, 0.0000000E+00
##END=



