##NAMES=Glaucodot
##RRUFFID=R070294
##IDEAL CHEMISTRY=Co^3+^Fe^3+^(AsS)^3-^_2_
##LOCALITY=Hakansboda, Lindesberg, Västmanland, Sweden
##OWNER=RRUFF
##SOURCE=Michael Scott
##DESCRIPTION=Grey metallic associated with chalcopyrite. Crystal structure solved using this sample, reported in Yang and Downs (2008).
##STATUS=The identification of this mineral is confirmed by single-crystal X-ray diffraction and chemical analysis.
##URL=rruff.info/R070294
##MEASURED CHEMISTRY=(Co_0.52_Fe_0.47_Ni_0.01_)_Σ=1_As_1.00_S_1.00_
148.9822, 0.0000000E+00
149.4643, 0.6874690
149.9464, 1.192596
150.4285, 5.727905
150.9106, 22.12888
151.3928, 46.57181
151.8749, 69.18243
152.3570, 89.07324
152.8391, 106.4683
153.3212, 121.0898
153.8033, 132.7051
154.2855, 143.3473
154.7676, 153.7108
155.2497, 164.2410
155.7318, 176.8561
156.2139, 194.0880
156.6960, 212.3908
157.1782, 228.4912
157.6603, 242.4183
158.1424, 252.7198
158.6245, 258.5612
159.1066, 259.8183
159.5887, 254.6754
160.0709, 239.3784
160.5530, 218.5998
161.0351, 197.3235
161.5172, 174.3162
161.9993, 156.2413
162.4814, 153.0526
162.9636, 158.1765
163.4457, 159.7716
163.9278, 152.8033
164.4099, 140.2945
164.8920, 125.7634
165.3741, 107.3651
165.8563, 92.45453
166.3384, 86.76306
166.8205, 87.20306
167.3026, 89.21521
167.7847, 91.19623
168.2668, 93.50998
168.7490, 97.28784
169.2311, 103.3045
169.7132, 109.1674
170.1953, 113.3286
170.6774, 116.5610
171.1595, 120.0434
171.6417, 124.8742
172.1238, 130.0531
172.6059, 132.5384
173.0880, 130.3801
173.5701, 129.5516
174.0522, 134.8870
174.5344, 142.6590
175.0165, 147.5523
175.4986, 147.2339
175.9807, 142.2615
176.4628, 133.2119
176.9449, 116.5824
177.4271, 102.3377
177.9092, 96.57001
178.3913, 94.60577
178.8734, 90.46585
179.3555, 83.65414
179.8376, 68.48331
180.3197, 59.00665
180.8019, 60.88870
181.2840, 62.28314
181.7661, 59.51324
182.2482, 54.90207
182.7303, 51.68414
183.2124, 54.84052
183.6946, 62.05219
184.1767, 65.16409
184.6588, 60.27896
185.1409, 58.84103
185.6230, 63.39227
186.1051, 72.50574
186.5873, 82.38458
187.0694, 89.51477
187.5515, 95.25452
188.0336, 99.14685
188.5157, 103.3188
188.9978, 103.2354
189.4800, 96.26968
189.9621, 87.36481
190.4442, 78.89493
190.9263, 72.55588
191.4084, 68.87985
191.8905, 65.40833
192.3727, 59.52002
192.8548, 56.38257
193.3369, 58.23792
193.8190, 62.76770
194.3011, 68.08130
194.7832, 73.43744
195.2654, 77.58090
195.7475, 76.70602
196.2296, 65.54584
196.7117, 59.69833
197.1938, 65.83749
197.6759, 74.92096
198.1581, 77.97873
198.6402, 73.16776
199.1223, 64.46964
199.6044, 59.46216
200.0865, 61.79642
200.5686, 60.49924
201.0508, 50.65073
201.5329, 39.70276
202.0150, 34.90582
202.4971, 37.79120
202.9792, 42.86661
203.4613, 41.02222
203.9435, 21.21304
204.4256, 13.30063
204.9077, 28.88306
205.3898, 47.91403
205.8719, 57.43362
206.3540, 54.48898
206.8362, 44.23474
207.3183, 33.68277
207.8004, 23.47775
208.2825, 11.74390
208.7646, 9.221558
209.2467, 25.84631
209.7289, 27.12329
210.2110, 13.54239
210.6931, 3.920837
211.1752, 12.36792
211.6573, 9.095581
212.1395, 6.392853
212.6216, 5.771240
213.1037, 4.427338
213.5858, 0.4114070
214.0679, 7.823029
214.5500, 13.98145
215.0322, 14.77524
215.5143, 9.315521
215.9964, 4.279724
216.4785, 1.856628
216.9606, 6.198120
217.4427, 6.295380
217.9249, 3.353821
218.4070, 0.9185790
218.8891, 2.445618
219.3712, 8.145172
219.8533, 10.09763
220.3354, 2.382141
220.8176, 3.459930
221.2997, 2.019196
221.7818, 3.714844
222.2639, 6.916016
222.7460, 1.929901
223.2281, 9.921600
223.7103, 13.81500
224.1924, 0.5766910
224.6745, 11.14294
225.1566, 19.11880
225.6387, 22.86499
226.1208, 21.27335
226.6030, 13.08936
227.0851, 0.4947510
227.5672, 7.262421
228.0493, 7.016846
228.5314, 5.775574
229.0135, 3.705658
229.4957, 1.733826
229.9778, 1.388977
230.4599, 3.460022
230.9420, 6.185333
231.4241, 4.598846
231.9062, 6.503937
232.3884, 12.76282
232.8705, 9.530365
233.3526, 2.986694
233.8347, 1.814301
234.3168, 3.152039
234.7989, 2.303833
235.2811, 1.544312
235.7632, 1.630981
236.2453, 0.1971440
236.7274, 7.032776
237.2095, 13.60651
237.6916, 15.66254
238.1738, 12.74417
238.6559, 8.564514
239.1380, 8.159576
239.6201, 13.09473
240.1022, 15.92935
240.5843, 14.06879
241.0665, 11.98807
241.5486, 12.30499
242.0307, 14.77151
242.5128, 17.02725
242.9949, 16.67383
243.4770, 13.49146
243.9592, 10.29327
244.4413, 6.142059
244.9234, 2.901886
245.4055, 0.3594360
245.8876, 0.8047490
246.3697, 1.170502
246.8519, 9.162201
247.3340, 22.00171
247.8161, 28.41266
248.2982, 23.51633
248.7803, 18.38275
249.2624, 17.14258
249.7446, 18.20984
250.2267, 18.91306
250.7088, 17.75885
251.1909, 15.38303
251.6730, 13.32523
252.1551, 10.77127
252.6373, 10.33685
253.1194, 15.80786
253.6015, 22.39545
254.0836, 24.18860
254.5657, 18.33365
255.0478, 9.736237
255.5300, 7.119659
256.0121, 12.79724
256.4942, 15.68665
256.9763, 6.503357
257.4584, 3.137756
257.9406, 3.159668
258.4227, 8.828552
258.9048, 22.98166
259.3869, 28.83542
259.8690, 26.04471
260.3511, 22.90784
260.8333, 20.75870
261.3154, 18.83514
261.7975, 15.82974
262.2796, 11.93487
262.7617, 9.795563
263.2438, 12.59717
263.7260, 19.31897
264.2081, 23.69647
264.6902, 23.68607
265.1723, 23.41699
265.6544, 26.84088
266.1365, 32.73859
266.6187, 36.55399
267.1008, 34.22253
267.5829, 29.05109
268.0650, 26.99374
268.5471, 28.42047
269.0292, 30.75537
269.5114, 34.41620
269.9935, 37.97256
270.4756, 38.44098
270.9577, 32.62006
271.4398, 25.37894
271.9219, 21.99106
272.4041, 22.53720
272.8862, 23.95990
273.3683, 25.42969
273.8504, 26.90225
274.3325, 28.17038
274.8146, 28.48569
275.2968, 29.36801
275.7789, 33.48709
276.2610, 39.53024
276.7431, 41.42700
277.2252, 35.35748
277.7073, 26.44339
278.1895, 23.50580
278.6716, 27.13464
279.1537, 31.14688
279.6358, 33.64410
280.1179, 34.85168
280.6000, 35.40497
281.0822, 34.74939
281.5643, 33.20224
282.0464, 31.04980
282.5285, 27.33502
283.0106, 25.91284
283.4927, 29.70679
283.9749, 34.42160
284.4570, 36.14313
284.9391, 34.48938
285.4212, 30.90143
285.9033, 26.65570
286.3854, 22.02771
286.8676, 21.17905
287.3497, 28.36893
287.8318, 34.67218
288.3139, 35.00220
288.7960, 30.72168
289.2781, 25.87558
289.7603, 22.69614
290.2424, 20.89346
290.7245, 21.44717
291.2066, 30.31604
291.6887, 33.72482
292.1708, 24.77808
292.6530, 11.32321
293.1351, 2.759827
293.6172, 2.341217
294.0993, 7.480225
294.5814, 13.86493
295.0635, 23.66376
295.5457, 29.69888
296.0278, 29.73749
296.5099, 27.86984
296.9920, 26.33350
297.4741, 25.76849
297.9562, 26.36264
298.4384, 28.66525
298.9205, 33.27118
299.4026, 35.39017
299.8847, 32.59143
300.3668, 29.83008
300.8489, 29.02502
301.3311, 29.56396
301.8131, 29.58270
302.2953, 27.44101
302.7774, 24.08469
303.2595, 25.17957
303.7416, 37.85251
304.2237, 44.50674
304.7058, 36.70551
305.1880, 23.80942
305.6701, 16.17957
306.1522, 17.74805
306.6343, 24.12915
307.1164, 28.73660
307.5985, 31.60431
308.0807, 32.52902
308.5628, 30.17505
309.0449, 26.66724
309.5270, 21.82974
310.0091, 16.14691
310.4912, 13.05936
310.9734, 18.38855
311.4555, 30.87140
311.9376, 35.52469
312.4197, 25.00235
312.9018, 15.62527
313.3839, 20.41589
313.8661, 34.57114
314.3482, 45.03674
314.8303, 43.72180
315.3124, 35.90887
315.7945, 31.41327
316.2766, 31.90350
316.7588, 32.32489
317.2409, 29.39673
317.7230, 24.95609
318.2051, 22.05252
318.6872, 21.38373
319.1693, 21.70245
319.6515, 21.51965
320.1336, 21.32849
320.6157, 24.25195
321.0978, 33.14679
321.5799, 42.91235
322.0620, 44.30460
322.5442, 36.16257
323.0263, 29.29120
323.5084, 27.44733
323.9905, 28.24503
324.4726, 29.16565
324.9547, 29.79144
325.4369, 29.43234
325.9190, 26.43423
326.4011, 20.59372
326.8832, 17.61807
327.3653, 19.81320
327.8474, 22.66211
328.3296, 23.62415
328.8117, 23.30225
329.2938, 23.37863
329.7759, 24.79465
330.2580, 27.06946
330.7401, 26.88940
331.2223, 21.44211
331.7044, 16.96530
332.1865, 13.46561
332.6686, 11.73648
333.1507, 13.77698
333.6328, 19.81845
334.1150, 26.27670
334.5971, 27.42807
335.0792, 20.75229
335.5613, 16.44098
336.0434, 16.11194
336.5255, 16.65176
337.0077, 16.46881
337.4898, 15.64456
337.9719, 15.13504
338.4540, 15.87177
338.9361, 17.77481
339.4182, 18.74716
339.9004, 17.18564
340.3825, 17.11292
340.8646, 20.63290
341.3467, 25.71988
341.8288, 30.86142
342.3109, 36.07687
342.7931, 38.56470
343.2752, 31.50476
343.7573, 12.66156
344.2394, 0.3862610
344.7215, 4.258759
345.2036, 12.32642
345.6858, 14.81097
346.1679, 11.34604
346.6500, 7.768250
347.1321, 8.816559
347.6142, 12.54498
348.0963, 12.71548
348.5785, 7.302673
349.0606, 2.794220
349.5427, 6.652771
350.0248, 15.84753
350.5069, 21.19705
350.9890, 17.11896
351.4712, 11.84112
351.9533, 13.16464
352.4354, 19.75510
352.9175, 24.29654
353.3996, 22.76611
353.8817, 17.75854
354.3639, 16.32916
354.8460, 20.27910
355.3281, 23.19809
355.8102, 22.99426
356.2923, 21.57321
356.7744, 20.69385
357.2566, 20.58022
357.7387, 20.52748
358.2208, 19.66595
358.7029, 17.73741
359.1850, 16.59229
359.6671, 15.13248
360.1493, 15.38144
360.6314, 20.95253
361.1135, 28.87138
361.5956, 32.20474
362.0777, 26.41467
362.5598, 14.75146
363.0420, 9.348923
363.5241, 15.62143
364.0062, 19.61554
364.4883, 18.02670
364.9704, 14.78214
365.4525, 13.17296
365.9347, 13.88051
366.4168, 15.29117
366.8989, 15.71207
367.3810, 15.10124
367.8631, 14.16089
368.3452, 12.59860
368.8274, 11.09776
369.3095, 10.33008
369.7916, 10.05165
370.2737, 9.618835
370.7558, 9.500397
371.2379, 8.876007
371.7201, 4.429062
372.2022, 4.679993
372.6843, 8.687943
373.1664, 0.2603150
373.6485, 14.58673
374.1306, 22.67578
374.6128, 23.13777
375.0949, 21.19426
375.5770, 17.43129
376.0591, 13.43204
376.5412, 13.48085
377.0233, 18.94202
377.5055, 24.51315
377.9876, 24.26506
378.4697, 17.40810
378.9518, 12.93993
379.4339, 12.60750
379.9160, 13.21872
380.3982, 13.80270
380.8803, 13.84302
381.3624, 11.82353
381.8445, 6.598557
382.3266, 9.1170996E-02
382.8087, 3.002426
383.2909, 0.8368070
383.7730, 4.921066
384.2551, 12.01411
384.7372, 17.41174
385.2193, 15.27663
385.7014, 5.901413
386.1836, 3.454926
386.6657, 4.312149
387.1478, 3.990295
387.6299, 7.941711
388.1120, 1.485443
388.5941, 2.289459
389.0763, 3.257004
389.5584, 13.63144
390.0405, 22.35706
390.5226, 26.77585
391.0047, 26.54651
391.4868, 18.94560
391.9690, 2.611908
392.4511, 7.276535
392.9332, 3.141357
393.4153, 6.068405
393.8974, 12.93991
394.3795, 17.29446
394.8617, 18.07767
395.3438, 11.75571
395.8259, 2.570435
396.3080, 2.081528
396.7901, 1.380005
397.2722, 0.5124210
397.7544, 0.3605350
398.2365, 0.9495090
398.7186, 0.8848270
399.2007, 8.911880
399.6828, 16.57224
400.1649, 22.77420
400.6471, 26.60413
401.1292, 25.32275
401.6113, 17.97897
402.0934, 9.202988
402.5755, 6.049698
403.0576, 10.91858
403.5398, 14.34393
404.0219, 15.27638
404.5040, 15.96722
404.9861, 18.96941
405.4682, 22.74937
405.9503, 22.88814
406.4325, 15.92024
406.9146, 4.737503
407.3967, 0.4327390
407.8788, 7.621216
408.3609, 12.17981
408.8430, 8.593445
409.3252, 3.379318
409.8073, 1.613708
410.2894, 4.050858
410.7715, 8.035233
411.2536, 13.02904
411.7357, 18.14125
412.2179, 17.64583
412.7000, 8.928650
413.1821, 0.5029300
413.6642, 3.465240
414.1463, 3.516739
414.6284, 0.4856570
415.1106, 7.308014
415.5927, 15.90744
416.0748, 24.50629
416.5569, 31.82394
417.0390, 32.51955
417.5211, 23.62460
418.0033, 11.65286
418.4854, 6.410797
418.9675, 10.12996
419.4496, 13.58226
419.9317, 17.76634
420.4138, 20.52971
420.8960, 19.48637
421.3781, 15.57645
421.8602, 11.78419
422.3423, 9.955246
422.8244, 9.891525
423.3065, 10.79051
423.7887, 13.58157
424.2708, 15.90521
424.7529, 19.62978
425.2350, 21.45831
425.7171, 16.98726
426.1992, 6.503418
426.6814, 3.632843
427.1635, 6.842270
427.6456, 3.737869
428.1277, 1.448303
428.6098, 0.7516170
429.0919, 0.6351010
429.5741, 5.098038
430.0562, 10.41966
430.5383, 13.69475
431.0204, 15.00777
431.5025, 14.39696
431.9846, 9.464294
432.4668, 2.428177
432.9489, 2.959900
433.4310, 15.54404
433.9131, 29.47931
434.3952, 30.62941
434.8773, 17.31389
435.3595, 9.614319
435.8416, 13.00723
436.3237, 18.32838
436.8058, 20.07607
437.2879, 19.10056
437.7701, 18.73860
438.2522, 20.80042
438.7343, 23.81180
439.2164, 23.76750
439.6985, 17.12770
440.1806, 13.74745
440.6628, 17.22543
441.1449, 20.89241
441.6270, 18.91273
442.1091, 12.35143
442.5912, 6.851288
443.0733, 6.816315
443.5555, 11.10590
444.0376, 15.83244
444.5197, 22.30371
445.0018, 26.48518
445.4839, 25.81120
445.9660, 21.95847
446.4482, 14.91483
446.9303, 4.238022
447.4124, 3.493958
447.8945, 2.655518
448.3766, 3.702744
448.8587, 9.792435
449.3409, 14.95448
449.8230, 18.79228
450.3051, 20.65797
450.7872, 21.18800
451.2693, 20.35721
451.7514, 15.01888
452.2336, 11.63107
452.7157, 12.74382
453.1978, 16.94753
453.6799, 23.87529
454.1620, 32.82286
454.6441, 39.55347
455.1263, 37.56805
455.6084, 24.61807
456.0905, 15.05392
456.5726, 10.74165
457.0547, 8.486618
457.5368, 7.789093
458.0190, 8.424957
458.5011, 10.78029
458.9832, 15.47592
459.4653, 19.72073
459.9474, 17.92128
460.4295, 9.930756
460.9117, 6.787674
461.3938, 13.88362
461.8759, 21.85825
462.3580, 20.27681
462.8401, 11.33818
463.3222, 6.919571
463.8044, 15.59503
464.2865, 25.91832
464.7686, 26.60393
465.2507, 19.67010
465.7328, 13.83189
466.2149, 12.88237
466.6971, 14.70874
467.1792, 15.25937
467.6613, 13.37599
468.1434, 12.74416
468.6255, 16.82594
469.1076, 19.16275
469.5898, 12.31839
470.0719, 2.1561000E-02
470.5540, 6.714203
471.0361, 9.2010004E-03
471.5182, 14.69814
472.0003, 22.56311
472.4825, 21.95645
472.9646, 19.41180
473.4467, 13.72824
473.9288, 8.198792
474.4109, 4.629333
474.8930, 3.225494
475.3752, 3.865158
475.8573, 8.605865
476.3394, 14.48083
476.8215, 15.95160
477.3036, 12.84874
477.7857, 9.345322
478.2679, 7.165817
478.7500, 6.199554
479.2321, 6.345627
479.7142, 8.004745
480.1963, 9.550583
480.6784, 10.00084
481.1606, 10.67625
481.6427, 13.21405
482.1248, 17.38307
482.6069, 21.57257
483.0890, 24.80457
483.5711, 26.83783
484.0533, 26.11642
484.5354, 19.59830
485.0175, 14.67595
485.4996, 13.79468
485.9817, 14.31223
486.4638, 14.31088
486.9460, 13.53873
487.4281, 12.38846
487.9102, 11.00703
488.3923, 9.481613
488.8744, 8.266418
489.3565, 7.500427
489.8387, 6.137100
490.3208, 2.651367
490.8029, 1.196167
491.2850, 1.898697
491.7671, 1.251755
492.2492, 5.262497
492.7314, 10.88615
493.2135, 15.83821
493.6956, 16.66423
494.1777, 13.55437
494.6598, 10.35905
495.1419, 10.10936
495.6241, 12.23245
496.1062, 12.90585
496.5883, 7.872452
497.0704, 7.151627
497.5525, 15.87570
498.0346, 26.24399
498.5168, 32.12260
498.9989, 32.72548
499.4810, 30.78972
499.9631, 27.40410
500.4452, 22.98914
500.9273, 19.97626
501.4095, 18.54126
501.8916, 19.10883
502.3737, 23.14507
502.8558, 28.00992
503.3379, 28.63162
503.8200, 24.10950
504.3022, 18.76555
504.7843, 12.39645
505.2664, 6.826920
505.7485, 5.353287
506.2306, 7.968964
506.7127, 11.92523
507.1949, 15.67848
507.6770, 19.12526
508.1591, 21.89476
508.6412, 26.57622
509.1233, 26.46634
509.6054, 15.25377
510.0876, 3.946869
510.5697, 2.380844
511.0518, 9.368607
511.5339, 15.25732
512.0161, 11.84535
512.4982, 3.173264
512.9803, 0.6783140
513.4624, 5.291260
513.9445, 10.78215
514.4266, 16.47726
514.9088, 20.67744
515.3909, 20.82146
515.8730, 16.58592
516.3551, 12.78539
516.8372, 11.11511
517.3193, 10.33167
517.8015, 9.048172
518.2836, 7.508163
518.7657, 7.098816
519.2478, 8.685501
519.7299, 11.33272
520.2120, 12.81842
520.6942, 12.60455
521.1763, 12.21417
521.6584, 10.60585
522.1405, 9.813400
522.6226, 11.02435
523.1047, 13.97176
523.5869, 18.42868
524.0690, 25.61046
524.5511, 31.31377
525.0332, 25.88400
525.5153, 9.427826
525.9974, 0.4690400
526.4796, 2.614792
526.9617, 9.823074
527.4438, 11.38434
527.9259, 8.090256
528.4080, 6.753448
528.8901, 11.41855
529.3723, 16.56989
529.8544, 19.60913
530.3365, 20.81749
530.8186, 20.71458
531.3007, 19.50851
531.7828, 17.54082
532.2650, 14.83118
532.7471, 10.69366
533.2292, 10.17191
533.7113, 18.57954
534.1934, 24.50414
534.6755, 21.75630
535.1577, 15.56874
535.6398, 13.56084
536.1219, 18.23830
536.6040, 24.03040
537.0861, 26.64597
537.5682, 26.24023
538.0504, 22.25343
538.5325, 14.06851
539.0146, 6.635925
539.4967, 3.382904
539.9788, 3.833878
540.4609, 5.481873
540.9431, 9.913742
541.4252, 13.27084
541.9073, 13.65565
542.3894, 13.30391
542.8715, 15.03896
543.3536, 18.72058
543.8358, 21.73328
544.3179, 21.86139
544.8000, 19.77571
545.2821, 18.59286
545.7642, 19.10738
546.2463, 18.38094
546.7285, 13.51259
547.2106, 8.859009
547.6927, 8.363571
548.1748, 11.78738
548.6569, 14.86617
549.1390, 15.82205
549.6211, 15.58981
550.1032, 14.64394
550.5853, 13.15706
551.0674, 11.99921
551.5496, 11.63025
552.0317, 11.03322
552.5138, 8.235764
552.9959, 1.580429
553.4780, 1.591461
553.9601, 0.7232060
554.4423, 3.829987
554.9244, 7.422195
555.4065, 10.07613
555.8886, 9.254959
556.3707, 3.930923
556.8528, 2.311386
557.3350, 4.820969
557.8171, 4.111710
558.2992, 5.300308
558.7813, 10.54008
559.2634, 12.04605
559.7455, 1.156281
560.2277, 17.01192
560.7098, 25.63911
561.1919, 18.29243
561.6740, 12.51447
562.1561, 17.14249
562.6382, 23.99486
563.1204, 22.86414
563.6025, 14.13956
564.0846, 6.607086
564.5667, 6.922348
565.0488, 12.89360
565.5309, 15.72079
566.0131, 13.97681
566.4952, 12.69391
566.9773, 13.06354
567.4594, 13.89555
567.9415, 14.78827
568.4236, 15.56505
568.9058, 15.67140
569.3879, 13.79858
569.8700, 12.08987
570.3521, 14.12419
570.8342, 18.31548
571.3163, 18.42491
571.7985, 12.15492
572.2806, 5.017853
572.7627, 3.952896
573.2448, 9.817444
573.7269, 13.63110
574.2090, 11.74300
574.6912, 12.31459
575.1733, 22.47000
575.6554, 33.47623
576.1375, 33.16185
576.6196, 19.89104
577.1017, 7.023636
577.5839, 9.873749
578.0660, 22.78311
578.5481, 24.71265
579.0302, 13.78496
579.5123, 6.445343
579.9944, 12.65504
580.4766, 25.24835
580.9587, 28.77133
581.4408, 20.10780
581.9229, 13.93437
582.4050, 15.02322
582.8871, 17.32582
583.3693, 17.28149
583.8514, 15.15146
584.3335, 11.63791
584.8156, 6.972855
585.2977, 3.566910
585.7798, 6.205353
586.2620, 15.57069
586.7441, 23.32416
587.2262, 30.67903
587.7083, 33.78119
588.1904, 25.48409
588.6725, 12.82790
589.1547, 8.331345
589.6368, 16.92393
590.1189, 24.49078
590.6010, 22.36176
591.0831, 16.37132
591.5652, 13.89597
592.0474, 15.32852
592.5295, 17.28436
593.0116, 17.47754
593.4937, 16.75790
593.9758, 18.36696
594.4579, 25.49814
594.9401, 27.33594
595.4222, 17.01878
595.9043, 6.702057
596.3864, 2.485062
596.8685, 2.874130
597.3506, 3.912109
597.8328, 4.455780
598.3149, 4.504715
598.7970, 2.530426
599.2791, 0.1898350
599.7612, 2.998550
600.2433, 12.05177
600.7255, 20.81300
601.2076, 23.92326
601.6897, 21.80112
602.1718, 17.77991
602.6539, 6.542191
603.1360, 0.8602140
603.6182, 6.445114
604.1003, 14.07700
604.5824, 17.06961
605.0645, 15.49261
605.5466, 12.78868
606.0287, 9.906433
606.5109, 8.357971
606.9930, 11.93707
607.4751, 19.75468
607.9572, 24.40726
608.4393, 23.68230
608.9214, 20.86772
609.4036, 18.92140
609.8857, 17.85063
610.3678, 17.48029
610.8499, 18.18001
611.3320, 18.92416
611.8141, 20.72964
612.2963, 21.95245
612.7784, 19.58920
613.2605, 14.35704
613.7426, 11.67224
614.2247, 17.62912
614.7068, 27.20963
615.1890, 25.96912
615.6711, 13.35503
616.1532, 8.183807
616.6353, 19.12560
617.1174, 33.12653
617.5995, 34.63176
618.0817, 22.72006
618.5638, 16.54553
619.0459, 23.01572
619.5280, 28.19920
620.0101, 25.43881
620.4922, 19.00388
620.9744, 12.91443
621.4565, 8.791321
621.9386, 8.971634
622.4207, 17.41074
622.9028, 31.04967
623.3849, 37.77362
623.8671, 37.01277
624.3492, 32.11537
624.8313, 21.26360
625.3134, 9.881134
625.7955, 4.700043
626.2776, 5.316788
626.7598, 7.624191
627.2419, 14.49773
627.7240, 19.23457
628.2061, 15.37259
628.6882, 8.446609
629.1703, 8.064774
629.6525, 15.56079
630.1346, 22.33112
630.6167, 18.65419
631.0988, 7.208481
631.5809, 3.806046
632.0630, 10.68605
632.5452, 16.82797
633.0273, 18.60753
633.5094, 18.55603
633.9915, 20.17917
634.4736, 23.29633
634.9557, 23.43117
635.4379, 17.39342
635.9200, 10.57571
636.4021, 5.960754
636.8842, 2.566330
637.3663, 2.702454
637.8484, 9.853256
638.3306, 13.15326
638.8127, 5.145370
639.2948, 11.39688
639.7769, 18.29781
640.2590, 12.55907
640.7411, 7.905563
641.2233, 8.822601
641.7054, 11.86484
642.1875, 14.24695
642.6696, 15.87810
643.1517, 15.16963
643.6339, 8.671478
644.1160, 3.106979
644.5981, 3.727829
645.0802, 7.054123
645.5623, 6.891052
646.0444, 2.442047
646.5266, 0.9476170
647.0087, 2.372360
647.4908, 10.49658
647.9729, 14.01477
648.4550, 11.65752
648.9371, 9.724701
649.4193, 10.34723
649.9014, 11.35005
650.3835, 9.777817
650.8656, 6.244736
651.3477, 5.298523
651.8298, 12.41965
652.3120, 17.17230
652.7941, 9.904678
653.2762, 0.8499600
653.7583, 0.9637760
654.2404, 10.73950
654.7225, 22.19022
655.2047, 23.38840
655.6868, 17.23079
656.1689, 12.83475
656.6510, 10.24863
657.1331, 9.012421
657.6152, 9.134033
658.0974, 10.71294
658.5795, 15.51047
659.0616, 22.34123
659.5437, 25.54393
660.0258, 20.17874
660.5079, 16.64688
660.9901, 21.70370
661.4722, 28.29190
661.9543, 28.11246
662.4364, 21.41312
662.9185, 13.90623
663.4006, 9.037994
663.8828, 6.681488
664.3649, 6.455154
664.8470, 8.342468
665.3291, 13.88463
665.8112, 25.84224
666.2933, 35.47783
666.7755, 35.24866
667.2576, 27.19763
667.7397, 21.10234
668.2218, 17.02251
668.7039, 14.16977
669.1860, 14.26707
669.6682, 15.38744
670.1503, 16.83830
670.6324, 17.93301
671.1145, 16.89713
671.5966, 12.49347
672.0787, 8.275558
672.5609, 11.13039
673.0430, 19.53075
673.5251, 21.42903
674.0072, 14.53699
674.4893, 8.005768
674.9714, 7.451981
675.4536, 10.77866
675.9357, 12.64708
676.4178, 12.66193
676.8999, 12.05351
677.3820, 10.51453
677.8641, 8.697769
678.3463, 6.260849
678.8284, 4.017365
679.3105, 3.211700
679.7926, 4.240295
680.2747, 6.453186
680.7568, 10.47215
681.2390, 14.91405
681.7211, 16.03607
682.2032, 13.83647
682.6853, 11.00050
683.1674, 8.408371
683.6495, 6.631897
684.1317, 6.691040
684.6138, 9.000748
685.0959, 10.95279
685.5780, 11.57167
686.0601, 13.03833
686.5422, 18.13916
687.0244, 22.96837
687.5065, 22.09262
687.9886, 15.51712
688.4707, 10.74628
688.9528, 14.98387
689.4349, 20.93723
689.9171, 18.42661
690.3992, 10.70564
690.8813, 8.061722
691.3634, 13.21248
691.8455, 20.43796
692.3276, 24.09009
692.8098, 24.54648
693.2919, 25.21613
693.7740, 27.19771
694.2561, 26.88525
694.7382, 20.07863
695.2203, 13.78949
695.7025, 14.57234
696.1846, 20.31659
696.6667, 22.50142
697.1488, 15.36345
697.6309, 8.697632
698.1130, 9.520889
698.5952, 12.94681
699.0773, 11.85808
699.5594, 6.728027
700.0415, 3.692444
700.5236, 6.672516
701.0057, 13.16559
701.4879, 18.35413
701.9700, 22.23094
702.4521, 25.29492
702.9342, 27.81537
703.4163, 28.93408
703.8984, 28.00049
704.3806, 25.27631
704.8627, 21.38544
705.3448, 15.11873
705.8269, 10.93924
706.3090, 11.29790
706.7911, 12.04486
707.2733, 10.68697
707.7554, 7.995163
708.2375, 5.726440
708.7196, 4.354706
709.2017, 2.473694
709.6838, 4.032440
710.1660, 11.39767
710.6481, 7.435287
711.1302, 7.096390
711.6123, 17.09312
712.0944, 16.76021
712.5765, 12.52695
713.0587, 12.43887
713.5408, 16.74060
714.0229, 20.02335
714.5050, 23.87891
714.9871, 24.37274
715.4692, 16.29752
715.9514, 8.291946
716.4335, 8.201401
716.9156, 15.02675
717.3977, 21.89680
717.8798, 28.00516
718.3619, 30.40910
718.8441, 22.90324
719.3262, 11.60791
719.8083, 7.650742
720.2904, 11.78111
720.7725, 17.64215
721.2546, 21.27466
721.7368, 22.54488
722.2189, 19.90158
722.7010, 12.05861
723.1831, 10.24284
723.6652, 20.19835
724.1473, 26.35739
724.6295, 15.07141
725.1116, 3.933044
725.5937, 10.22362
726.0758, 8.7188996E-02
726.5579, 9.872330
727.0400, 18.18349
727.5222, 22.98112
728.0043, 20.56448
728.4864, 14.77603
728.9685, 12.17381
729.4506, 14.24477
729.9327, 16.14705
730.4149, 12.17552
730.8970, 5.470703
731.3791, 3.288345
731.8612, 5.292801
732.3433, 8.920502
732.8254, 13.84419
733.3076, 17.41362
733.7897, 16.45552
734.2718, 11.44508
734.7539, 8.744812
735.2360, 10.76128
735.7181, 11.03050
736.2003, 6.377975
736.6824, 2.090637
737.1645, 1.096542
737.6466, 3.126419
738.1287, 7.472336
738.6108, 15.97316
739.0930, 22.48769
739.5751, 21.65570
740.0572, 18.02971
740.5393, 16.91975
741.0214, 17.68613
741.5035, 16.02254
741.9857, 9.899094
742.4678, 3.239655
742.9499, 1.392532
743.4320, 4.097412
743.9141, 8.655777
744.3962, 16.01707
744.8784, 18.97093
745.3605, 12.25653
745.8426, 3.766113
746.3247, 5.346054
746.8068, 18.75223
747.2889, 25.64827
747.7711, 22.02071
748.2532, 17.55568
748.7353, 12.71733
749.2174, 9.335693
749.6995, 9.299606
750.1816, 12.26816
750.6638, 16.56845
751.1459, 22.79466
751.6280, 27.42134
752.1101, 25.21576
752.5922, 19.79781
753.0743, 18.80833
753.5565, 22.39662
754.0386, 24.90393
754.5207, 22.98880
755.0028, 18.29547
755.4849, 12.76019
755.9670, 5.641479
756.4492, 6.136292
756.9313, 18.74524
757.4134, 27.83955
757.8955, 24.52882
758.3776, 15.61589
758.8597, 11.66345
759.3419, 13.20201
759.8240, 13.26859
760.3061, 9.286591
760.7882, 6.165848
761.2703, 6.436539
761.7524, 8.042892
762.2346, 8.303009
762.7167, 7.409866
763.1988, 8.080276
763.6809, 12.29631
764.1630, 17.94157
764.6451, 24.67630
765.1273, 30.57396
765.6094, 29.55722
766.0915, 21.48042
766.5736, 13.16035
767.0557, 8.658783
767.5378, 6.434296
768.0200, 3.242752
768.5021, 0.9227600
768.9842, 1.141861
769.4663, 12.11626
769.9484, 22.39252
770.4305, 28.44844
770.9127, 31.08800
771.3948, 31.25496
771.8769, 28.87888
772.3590, 25.48027
772.8411, 19.34921
773.3232, 14.48871
773.8054, 13.63518
774.2875, 14.00871
774.7696, 12.08321
775.2517, 8.379471
775.7338, 7.306381
776.2159, 12.59103
776.6981, 18.69006
777.1802, 18.78804
777.6623, 15.10063
778.1444, 12.20828
778.6265, 10.34412
779.1086, 11.63165
779.5908, 17.77705
780.0729, 25.50169
780.5550, 28.15514
781.0371, 24.97578
781.5192, 24.98776
782.0013, 30.71663
782.4835, 32.51952
782.9656, 22.73366
783.4477, 10.44469
783.9298, 10.56892
784.4119, 22.87164
784.8940, 28.12053
785.3762, 18.83882
785.8583, 11.04918
786.3404, 10.98230
786.8225, 12.63588
787.3046, 8.645615
787.7867, 1.420181
788.2689, 0.9714970
788.7510, 13.72073
789.2331, 26.93117
789.7152, 29.20430
790.1973, 25.36929
790.6794, 22.66614
791.1616, 21.38361
791.6437, 18.55251
792.1258, 12.86656
792.6079, 8.943176
793.0900, 14.57890
793.5721, 28.32327
794.0543, 36.23846
794.5364, 38.45572
795.0185, 32.63490
795.5006, 13.75130
795.9827, 4.009460
796.4648, 5.324371
796.9470, 8.046814
797.4291, 16.38693
797.9112, 18.27608
798.3933, 16.92815
798.8754, 8.809174
799.3575, 1.114227
799.8397, 1.747116
800.3218, 1.292984
800.8039, 0.7788850
801.2860, 1.001083
801.7681, 0.7266850
802.2502, 0.3190160
802.7324, 2.441238
803.2145, 7.071991
803.6966, 12.62646
804.1787, 16.10840
804.6608, 16.85953
805.1429, 16.29449
805.6251, 14.75279
806.1072, 13.84401
806.5893, 19.40446
807.0714, 29.89352
807.5535, 31.99091
808.0356, 22.92053
808.5178, 14.07657
808.9999, 13.21033
809.4820, 17.21854
809.9641, 18.20685
810.4462, 15.03430
810.9283, 13.07916
811.4105, 13.18465
811.8926, 13.11440
812.3747, 11.47134
812.8568, 9.583145
813.3389, 9.361252
813.8210, 10.80092
814.3032, 11.00267
814.7853, 7.525482
815.2674, 5.320572
815.7495, 6.918106
816.2316, 9.857773
816.7137, 13.13530
817.1959, 15.74362
817.6780, 14.79918
818.1601, 8.456207
818.6422, 2.372787
819.1243, 1.970230
819.6064, 4.527023
820.0886, 6.282974
820.5707, 7.085297
821.0528, 7.572769
821.5349, 7.970474
822.0170, 7.942581
822.4991, 7.160309
822.9813, 5.622726
823.4634, 2.739975
823.9455, 1.675491
824.4276, 3.842087
824.9097, 2.811844
825.3918, 0.1035920
825.8740, 4.612228
826.3561, 9.690689
826.8382, 12.02910
827.3203, 10.55145
827.8024, 8.646439
828.2845, 4.400696
828.7667, 2.127213
829.2488, 6.078156
829.7309, 11.19414
830.2130, 10.28587
830.6951, 3.026230
831.1772, 1.127182
831.6594, 1.544464
832.1415, 5.970856
832.6236, 11.29024
833.1057, 16.32518
833.5878, 21.84047
834.0699, 26.04636
834.5521, 22.72409
835.0342, 7.404160
835.5163, 6.388153
835.9984, 2.848312
836.4805, 8.576019
836.9626, 12.03767
837.4448, 8.816788
837.9269, 7.418213
838.4090, 10.64375
838.8911, 14.71371
839.3732, 15.62468
839.8553, 14.20871
840.3375, 13.18784
840.8196, 12.54404
841.3017, 14.10837
841.7838, 19.12315
842.2659, 21.36226
842.7480, 15.32457
843.2302, 5.287628
843.7123, 2.480560
844.1944, 10.11836
844.6765, 14.12393
845.1586, 11.61002
845.6407, 9.770340
846.1229, 13.15729
846.6050, 16.82184
847.0871, 14.65031
847.5692, 7.264374
848.0513, 3.178284
848.5334, 6.214386
849.0156, 9.048691
849.4977, 9.839035
849.9798, 9.570755
850.4619, 7.907806
850.9440, 6.073242
851.4261, 6.796005
851.9083, 11.09311
852.3904, 15.11034
852.8725, 17.65634
853.3546, 17.77118
853.8367, 9.830383
854.3188, 0.7893370
854.8010, 0.4976350
855.2831, 11.23271
855.7652, 22.05833
856.2473, 22.98669
856.7294, 17.70685
857.2115, 10.01237
857.6937, 1.511551
858.1758, 1.429443
858.6579, 10.46147
859.1400, 17.39240
859.6221, 16.79694
860.1042, 12.33202
860.5864, 9.097595
861.0685, 7.137161
861.5506, 8.054245
862.0327, 12.82312
862.5148, 14.28018
862.9969, 9.574402
863.4791, 4.406799
863.9612, 3.280701
864.4433, 5.223587
864.9254, 6.728455
865.4075, 7.310089
865.8896, 8.481567
866.3718, 11.90688
866.8539, 13.92197
867.3360, 11.59917
867.8181, 8.374023
868.3002, 7.957016
868.7823, 10.28244
869.2645, 13.01579
869.7466, 16.24937
870.2287, 18.82799
870.7108, 20.69650
871.1929, 21.38295
871.6750, 20.02771
872.1572, 17.22841
872.6393, 14.33623
873.1214, 11.81209
873.6035, 9.057190
874.0856, 3.550766
874.5677, 0.7709350
875.0499, 2.590561
875.5320, 9.918076
876.0141, 12.73311
876.4962, 10.10608
876.9783, 7.913422
877.4604, 10.30424
877.9426, 14.45311
878.4247, 15.32428
878.9068, 14.05870
879.3889, 15.55276
879.8710, 19.80843
880.3531, 22.91571
880.8353, 23.32060
881.3174, 21.25740
881.7995, 16.11624
882.2816, 8.898407
882.7637, 7.376129
883.2458, 12.93877
883.7280, 13.91281
884.2101, 6.688507
884.6922, 0.3677220
885.1743, 0.7039490
885.6564, 5.993484
886.1385, 13.31821
886.6207, 24.45708
887.1028, 29.22104
887.5849, 22.98422
888.0670, 17.79895
888.5491, 16.67197
889.0313, 17.87659
889.5134, 21.12598
889.9955, 25.71634
890.4776, 28.91104
890.9597, 31.37126
891.4418, 30.88181
891.9240, 25.11137
892.4061, 18.52266
892.8882, 11.31625
893.3703, 5.441208
893.8524, 5.962921
894.3345, 12.75095
894.8167, 17.38364
895.2988, 14.44066
895.7809, 11.10605
896.2630, 11.64400
896.7451, 13.37701
897.2272, 13.59387
897.7094, 12.50777
898.1915, 11.60173
898.6736, 2.249954
899.1557, 13.92883
899.6378, 20.49991
900.1199, 22.23784
900.6021, 4.667023
901.0842, 12.02905
901.5663, 9.400375
902.0484, 6.361862
902.5305, 17.23418
903.0126, 2.472336
903.4948, 13.12376
903.9769, 13.63051
904.4590, 18.77992
904.9411, 13.87547
905.4232, 12.07619
905.9053, 20.33365
906.3875, 23.02235
906.8696, 16.95999
907.3517, 22.40370
907.8338, 7.289154
908.3159, 10.21443
908.7980, 15.10228
909.2802, 13.92371
909.7623, 7.171494
910.2444, 0.8477780
910.7265, 2.754822
911.2086, 2.823761
911.6907, 2.074585
912.1729, 11.79626
912.6550, 20.43938
913.1371, 30.35553
913.6192, 30.89011
914.1013, 14.66161
914.5834, 0.6945800
915.0656, 2.458862
915.5477, 3.872681
916.0298, 5.144531
916.5119, 1.321014
916.9940, 1.861603
917.4761, 12.87244
917.9583, 20.92047
918.4404, 9.189316
918.9225, 4.158997
919.4046, 2.851425
919.8867, 9.010788
920.3688, 15.45844
920.8510, 12.57011
921.3331, 10.38031
921.8152, 9.956696
922.2973, 10.95525
922.7794, 16.04431
923.2615, 20.80162
923.7437, 19.08754
924.2258, 11.40462
924.7079, 4.763794
925.1900, 1.231796
925.6721, 1.761322
926.1542, 11.45543
926.6364, 24.99712
927.1185, 27.19914
927.6006, 22.28970
928.0827, 18.78229
928.5648, 18.43826
929.0469, 17.08876
929.5291, 10.70291
930.0112, 4.449814
930.4933, 0.5908810
930.9754, 0.1578370
931.4575, 7.041962
931.9396, 18.26741
932.4218, 25.46823
932.9039, 25.92542
933.3860, 24.29381
933.8681, 24.18768
934.3502, 24.71198
934.8323, 25.63266
935.3145, 25.91983
935.7966, 22.06874
936.2787, 14.60771
936.7608, 9.449661
937.2429, 9.860657
937.7250, 12.54675
938.2072, 13.23441
938.6893, 13.35478
939.1714, 18.30168
939.6535, 25.86917
940.1356, 24.93475
940.6177, 14.09276
941.0999, 5.834106
941.5820, 9.369522
942.0641, 18.32224
942.5462, 21.53806
943.0283, 19.94917
943.5104, 17.68857
943.9926, 15.04053
944.4747, 13.31761
944.9568, 12.92735
945.4389, 13.62090
945.9210, 15.43672
946.4031, 17.55519
946.8853, 17.22063
947.3674, 14.45166
947.8495, 13.23592
948.3316, 13.88338
948.8137, 15.44215
949.2958, 17.55902
949.7780, 20.67511
950.2601, 26.10310
950.7422, 32.37393
951.2243, 30.39316
951.7064, 18.25507
952.1885, 10.33978
952.6707, 8.494125
953.1528, 9.549194
953.6349, 13.20779
954.1170, 16.44341
954.5991, 14.27206
955.0812, 7.202148
955.5634, 7.283340
956.0455, 19.12889
956.5276, 23.13376
957.0097, 12.41975
957.4918, 3.110153
957.9739, 4.628174
958.4561, 11.92545
958.9382, 17.86758
959.4203, 21.98001
959.9024, 21.33325
960.3845, 11.21532
960.8666, 5.989426
961.3488, 11.34854
961.8309, 17.05240
962.3130, 15.43321
962.7951, 10.73003
963.2772, 12.18858
963.7593, 22.07481
964.2415, 25.96506
964.7236, 19.76154
965.2057, 13.51578
965.6878, 8.498322
966.1699, 4.311356
966.6520, 0.1726680
967.1342, 3.845551
967.6163, 3.666245
968.0984, 1.787384
968.5805, 5.386887
969.0626, 2.983719
969.5447, 4.518494
970.0269, 18.52057
970.5090, 31.39238
970.9911, 30.88913
971.4732, 21.28368
971.9553, 14.67384
972.4374, 13.27402
972.9196, 10.48541
973.4017, 0.7387240
973.8838, 4.125320
974.3659, 4.143250
974.8480, 15.57489
975.3301, 22.52802
975.8123, 25.00420
976.2944, 24.89244
976.7765, 21.37802
977.2586, 18.16104
977.7407, 17.34370
978.2228, 15.17786
978.7050, 6.707092
979.1871, 1.220108
979.6692, 1.2344000E-02
980.1513, 7.933533
980.6334, 11.95198
981.1155, 7.906860
981.5977, 5.857925
982.0798, 9.822922
982.5619, 15.29477
983.0440, 21.76932
983.5261, 27.15149
984.0082, 29.32790
984.4904, 28.35382
984.9725, 25.69769
985.4546, 21.24347
985.9367, 16.61960
986.4188, 10.59229
986.9009, 6.583908
987.3831, 8.870270
987.8652, 12.71809
988.3473, 10.49284
988.8294, 4.119217
989.3115, 5.293015
989.7936, 22.43314
990.2758, 32.61842
990.7579, 19.50409
991.2400, 3.962860
991.7221, 0.9834440
992.2042, 0.3240360
992.6863, 1.495422
993.1685, 4.165649
993.6506, 1.830460
994.1327, 11.07936
994.6148, 19.07816
995.0969, 9.590210
995.5790, 1.033356
996.0612, 1.587280
996.5433, 3.288101
997.0254, 8.273743
997.5075, 12.23997
997.9896, 14.54967
998.4717, 14.13144
998.9539, 14.64580
999.4360, 18.77814
999.9181, 23.38023
1000.400, 28.13251
1000.882, 30.80923
1001.364, 26.67851
1001.847, 17.57242
1002.329, 12.57440
1002.811, 16.23935
1003.293, 19.78169
1003.775, 18.75522
1004.257, 16.54874
1004.739, 14.74733
1005.221, 13.62613
1005.703, 13.92041
1006.186, 15.11659
1006.668, 14.97116
1007.150, 11.91872
1007.632, 10.26720
1008.114, 14.27405
1008.596, 17.79131
1009.078, 15.04117
1009.560, 10.71211
1010.043, 10.92027
1010.525, 15.21880
1011.007, 19.22604
1011.489, 21.69897
1011.971, 23.49260
1012.453, 24.76523
1012.935, 25.73065
1013.417, 26.97897
1013.899, 27.65189
1014.382, 27.79402
1014.864, 26.51878
1015.346, 19.61763
1015.828, 2.870346
1016.310, 6.235580
1016.792, 6.000046
1017.274, 19.35484
1017.756, 23.99292
1018.239, 23.36179
1018.721, 19.39333
1019.203, 13.83847
1019.685, 10.27470
1020.167, 9.842209
1020.649, 9.785019
1021.131, 8.448730
1021.613, 8.227707
1022.095, 11.79491
1022.578, 15.64511
1023.060, 16.09140
1023.542, 14.21237
1024.024, 13.17535
1024.506, 13.49843
1024.988, 14.52466
1025.470, 18.63879
1025.952, 20.95601
1026.435, 17.71011
1026.917, 13.09851
1027.399, 9.364304
1027.881, 7.230179
1028.363, 8.439896
1028.845, 13.89392
1029.327, 16.71667
1029.809, 12.59865
1030.292, 9.956741
1030.774, 14.14389
1031.256, 17.40997
1031.738, 11.05850
1032.220, 1.682510
1032.702, 1.728882
1033.184, 13.19391
1033.666, 17.87677
1034.148, 4.402924
1034.630, 1.954330
1035.113, 9.474152
1035.595, 22.05348
1036.077, 27.20253
1036.559, 27.52664
1037.041, 26.18024
1037.523, 23.28453
1038.005, 21.68529
1038.487, 23.54457
1038.970, 23.21492
1039.452, 19.13379
1039.934, 14.54280
1040.416, 8.872253
1040.898, 5.516830
1041.380, 10.40991
1041.862, 22.31413
1042.344, 27.19617
1042.826, 20.65463
1043.309, 16.89346
1043.791, 18.81432
1044.273, 18.71880
1044.755, 11.52942
1045.237, 4.462341
1045.719, 5.877914
1046.201, 13.38928
1046.683, 15.62015
1047.166, 10.54938
1047.648, 7.842270
1048.130, 6.023560
1048.612, 7.354797
1049.094, 13.50081
1049.576, 19.93062
1050.058, 22.88124
1050.540, 23.31917
1051.022, 24.10219
1051.505, 25.78812
1051.987, 25.52596
1052.469, 23.13838
1052.951, 18.80421
1053.433, 11.92906
1053.915, 6.628555
1054.397, 4.838791
1054.879, 6.291687
1055.361, 11.26889
1055.844, 19.05408
1056.326, 19.77112
1056.808, 13.47144
1057.290, 12.58264
1057.772, 19.29483
1058.254, 24.48628
1058.736, 23.25940
1059.218, 19.70480
1059.701, 19.52878
1060.183, 21.10039
1060.665, 17.21667
1061.147, 9.649933
1061.629, 9.811707
1062.111, 17.73466
1062.593, 22.74797
1063.075, 20.75833
1063.557, 16.14339
1064.040, 12.57089
1064.522, 10.13599
1065.004, 8.579712
1065.486, 8.481415
1065.968, 13.80547
1066.450, 21.91096
1066.932, 21.83507
1067.414, 12.00470
1067.896, 3.798767
1068.379, 5.448196
1068.861, 10.10155
1069.343, 8.744080
1069.825, 6.559006
1070.307, 14.69246
1070.789, 26.09906
1071.271, 24.01288
1071.753, 9.320541
1072.236, 1.790085
1072.718, 1.783752
1073.200, 0.7526250
1073.682, 0.4062650
1074.164, 2.029419
1074.646, 1.652771
1075.128, 1.211075
1075.610, 10.53133
1076.093, 22.52939
1076.575, 26.97520
1077.057, 20.97008
1077.539, 14.67735
1078.021, 11.77025
1078.503, 10.51166
1078.985, 10.66095
1079.467, 11.61885
1079.949, 14.60606
1080.432, 17.27660
1080.914, 14.16678
1081.396, 5.295883
1081.878, 2.250351
1082.360, 14.88690
1082.842, 22.22797
1083.324, 15.74791
1083.806, 9.537704
1084.288, 10.55409
1084.771, 14.17284
1085.253, 14.48695
1085.735, 12.77125
1086.217, 15.92534
1086.699, 28.53316
1087.181, 33.27809
1087.663, 24.64597
1088.145, 19.51831
1088.628, 23.85783
1089.110, 30.26346
1089.592, 35.11789
1090.074, 36.00856
1090.556, 25.44893
1091.038, 2.480957
1091.520, 1.091736
1092.002, 19.55127
1092.484, 27.14240
1092.967, 13.72592
1093.449, 1.492615
1093.931, 1.626816
1094.413, 8.933014
1094.895, 18.66719
1095.377, 27.86214
1095.859, 22.27797
1096.341, 4.602142
1096.823, 3.793320
1097.306, 1.844376
1097.788, 1.898468
1098.270, 4.661789
1098.752, 9.832657
1099.234, 21.28998
1099.716, 31.43477
1100.198, 25.44307
1100.680, 11.44380
1101.163, 5.495209
1101.645, 6.157761
1102.127, 8.803711
1102.609, 11.76686
1103.091, 13.61078
1103.573, 13.72682
1104.055, 11.10527
1104.537, 1.191452
1105.020, 10.05444
1105.502, 2.152069
1105.984, 20.50827
1106.466, 26.56448
1106.948, 23.44235
1107.430, 22.01253
1107.912, 24.57701
1108.394, 26.05983
1108.876, 24.64798
1109.359, 21.40079
1109.841, 15.43874
1110.323, 9.203125
1110.805, 1.114609
1111.287, 4.237061
1111.769, 0.7953950
1112.251, 14.10077
1112.733, 23.54073
1113.215, 27.39597
1113.698, 28.87712
1114.180, 26.67639
1114.662, 24.43106
1115.144, 23.46405
1115.626, 21.76633
1116.108, 16.89778
1116.590, 11.51463
1117.072, 10.69493
1117.555, 14.46254
1118.037, 19.91663
1118.519, 28.69960
1119.001, 28.23300
1119.483, 15.10275
1119.965, 5.890610
1120.447, 7.927872
1120.929, 14.04588
1121.411, 17.21275
1121.894, 18.23134
1122.376, 19.26610
1122.858, 20.50644
1123.340, 23.58994
1123.822, 27.94104
1124.304, 30.42029
1124.786, 30.42374
1125.268, 28.71036
1125.750, 25.45955
1126.233, 24.85344
1126.715, 36.62221
1127.197, 49.52925
1127.679, 44.71826
1128.161, 32.24678
1128.643, 29.14211
1129.125, 33.13588
1129.607, 32.13391
1130.090, 23.66164
1130.572, 18.75967
1131.054, 26.81856
1131.536, 32.89467
1132.018, 25.63130
1132.500, 17.76375
1132.982, 19.13258
1133.464, 23.99950
1133.947, 24.83401
1134.429, 22.38603
1134.911, 22.65172
1135.393, 27.83142
1135.875, 30.63663
1136.357, 28.61383
1136.839, 27.04063
1137.321, 28.74026
1137.803, 28.17413
1138.286, 21.46111
1138.768, 11.24849
1139.250, 0.3001100
1139.732, 11.88771
1140.214, 9.291840
1140.696, 10.45984
1141.178, 21.22284
1141.660, 20.82222
1142.142, 16.31335
1142.625, 9.631958
1143.107, 4.719772
1143.589, 4.760895
1144.071, 7.790451
1144.553, 11.75310
1145.035, 2.449280
1145.517, 17.85695
1145.999, 26.45450
1146.482, 28.60751
1146.964, 5.015930
1147.446, 14.66820
1147.928, 10.99779
1148.410, 6.780884
1148.892, 21.11014
1149.374, 1.197159
1149.856, 15.23947
1150.339, 15.74815
1150.821, 22.44760
1151.303, 15.73643
1151.785, 13.16576
1152.267, 24.00909
1152.749, 27.42735
1153.231, 19.17772
1153.713, 14.00647
1154.195, 16.27625
1154.677, 17.89432
1155.160, 18.72813
1155.642, 19.28036
1156.124, 21.29277
1156.606, 21.74232
1157.088, 13.77890
1157.570, 0.9433900
1158.052, 1.200165
1158.534, 18.02419
1159.017, 27.67145
1159.499, 24.61087
1159.981, 26.20912
1160.463, 38.74699
1160.945, 45.31282
1161.427, 32.18793
1161.909, 11.72006
1162.391, 3.891861
1162.874, 5.482880
1163.356, 10.49498
1163.838, 16.95537
1164.320, 19.92038
1164.802, 19.80748
1165.284, 20.37576
1165.766, 22.91472
1166.248, 27.13837
1166.730, 34.53369
1167.213, 39.20589
1167.695, 31.93306
1168.177, 24.27339
1168.659, 28.90900
1169.141, 37.42070
1169.623, 40.08847
1170.105, 37.36308
1170.587, 34.02744
1171.069, 30.86378
1171.552, 27.92162
1172.034, 23.75793
1172.516, 22.11392
1172.998, 25.62791
1173.480, 28.74615
1173.962, 29.28648
1174.444, 28.18910
1174.926, 26.18393
1175.409, 23.53024
1175.891, 20.82719
1176.373, 18.03076
1176.855, 19.06657
1177.337, 24.15572
1177.819, 20.85857
1178.301, 7.210068
1178.783, 0.1826930
1179.266, 6.786865
1179.748, 15.60867
1180.230, 11.94385
1180.712, 4.277008
1181.194, 7.000290
1181.676, 14.90224
1182.158, 19.63762
1182.640, 22.03172
1183.122, 26.94701
1183.604, 33.03510
1184.087, 30.59874
1184.569, 14.34070
1185.051, 3.299423
1185.533, 11.23051
1186.015, 19.29955
1186.497, 17.87276
1186.979, 13.83873
1187.461, 18.02536
1187.944, 24.08003
1188.426, 23.98956
1188.908, 19.39195
1189.390, 21.44917
1189.872, 35.72171
1190.354, 35.10741
1190.836, 14.37785
1191.318, 2.548828
1191.801, 6.701660
1192.283, 15.97253
1192.765, 24.78371
1193.247, 30.08830
1193.729, 26.73193
1194.211, 19.17192
1194.693, 18.22302
1195.175, 21.93741
1195.657, 27.36337
1196.140, 32.15938
1196.622, 28.12018
1197.104, 16.41002
1197.586, 11.44894
1198.068, 20.29680
1198.550, 28.56639
1199.032, 25.35954
1199.514, 21.34851
1199.996, 25.26242
1200.479, 28.07281
1200.961, 18.52394
1201.443, 5.775024
1201.925, 4.645782
1202.407, 14.17822
1202.889, 20.63548
1203.371, 22.53487
1203.853, 26.36826
1204.336, 34.07260
1204.818, 37.32872
1205.300, 34.18451
1205.782, 26.72966
1206.264, 14.87579
1206.746, 5.803070
1207.228, 8.197464
1207.710, 17.22061
1208.193, 21.06319
1208.675, 21.25044
1209.157, 22.04829
1209.639, 23.14159
1210.121, 23.38795
1210.603, 22.47644
1211.085, 20.23077
1211.567, 16.55257
1212.049, 13.45671
1212.531, 13.19246
1213.014, 12.38342
1213.496, 7.054749
1213.978, 2.749710
1214.460, 5.063095
1214.942, 9.399902
1215.424, 10.40042
1215.906, 8.229599
1216.388, 3.391617
1216.871, 6.145462
1217.353, 4.581604
1217.835, 11.32370
1218.317, 24.71046
1218.799, 33.45242
1219.281, 36.41350
1219.763, 32.84756
1220.245, 26.65520
1220.728, 20.89317
1221.210, 17.43301
1221.692, 22.63342
1222.174, 30.65501
1222.656, 27.47948
1223.138, 18.56737
1223.620, 15.16228
1224.102, 16.79486
1224.584, 19.29823
1225.067, 20.50897
1225.549, 15.63721
1226.031, 21.22772
1226.513, 22.15050
1226.995, 9.558121
1227.477, 0.5844730
1227.959, 0.3484800
1228.441, 4.636337
1228.923, 6.982224
1229.406, 8.299591
1229.888, 10.98489
1230.370, 14.34753
1230.852, 15.27319
1231.334, 20.71544
1231.816, 21.31873
1232.298, 16.68440
1232.780, 9.081284
1233.263, 0.0000000E+00
##END=



