##NAMES=Glaucodot
##RRUFFID=R070644
##IDEAL CHEMISTRY=Co^3+^Fe^3+^(AsS)^3-^_2_
##LOCALITY=Hakansboda, Lindesberg, Västmanland, Sweden
##OWNER=RRUFF
##SOURCE=Michael Scott
##DESCRIPTION=Pair of grey metallic crystals with chalcopyrite embedded in epoxy.
##STATUS=The identification of this mineral is confirmed by single-crystal X-ray diffraction and chemical analysis.
##URL=rruff.info/R070644
##MEASURED CHEMISTRY=(Co_0.53_Fe_0.45_Ni_0.02_)_Σ=1_As_1.00_(S_0.90_As_0.10_)_Σ=1_ ; the included dark prisms are actinolite
146.2870, 0.0000000E+00
146.7691, 2.745758
147.2512, 6.143860
147.7334, 8.013443
148.2155, 7.480957
148.6976, 7.140991
149.1797, 6.871613
149.6618, 6.606659
150.1439, 6.293793
150.6261, 2.455597
151.1082, 1.580719
151.5903, 6.502106
152.0724, 22.16901
152.5545, 32.47519
153.0366, 31.32202
153.5188, 24.13528
154.0009, 21.59726
154.4830, 34.11591
154.9651, 44.95282
155.4472, 46.22995
155.9293, 28.67093
156.4115, 13.76324
156.8936, 5.299316
157.3757, 2.646027
157.8578, 3.375946
158.3399, 9.426941
158.8221, 17.12155
159.3042, 24.13080
159.7863, 30.66064
160.2684, 35.67215
160.7505, 37.90851
161.2326, 37.78177
161.7148, 38.29929
162.1969, 42.60251
162.6790, 47.46207
163.1611, 49.69730
163.6432, 48.57260
164.1253, 44.36786
164.6075, 35.22897
165.0896, 21.01794
165.5717, 9.154572
166.0538, 5.176300
166.5359, 5.911957
167.0180, 6.787720
167.5002, 5.702667
167.9823, 4.172760
168.4644, 2.633362
168.9465, 0.7777400
169.4286, 1.268860
169.9107, 8.405212
170.3929, 19.40927
170.8750, 28.62128
171.3571, 34.16449
171.8392, 35.91064
172.3213, 32.32684
172.8034, 21.65695
173.2856, 10.95911
173.7677, 7.117401
174.2498, 8.885193
174.7319, 12.03333
175.2140, 14.76868
175.6961, 16.95709
176.1783, 18.07043
176.6604, 17.28363
177.1425, 16.70456
177.6246, 19.73422
178.1067, 25.91663
178.5888, 31.92569
179.0710, 36.27780
179.5531, 38.43906
180.0352, 35.76495
180.5173, 25.02753
180.9994, 11.86032
181.4815, 6.196869
181.9637, 7.814697
182.4458, 11.30844
182.9279, 12.32590
183.4100, 11.42975
183.8921, 10.52927
184.3742, 8.671692
184.8564, 8.298004
185.3385, 15.34052
185.8206, 31.06467
186.3027, 45.99860
186.7848, 48.33282
187.2669, 39.78860
187.7491, 33.78400
188.2312, 38.13113
188.7133, 48.78403
189.1954, 49.11911
189.6775, 37.45206
190.1596, 22.96112
190.6418, 16.24203
191.1239, 17.23212
191.6060, 21.19482
192.0881, 29.31653
192.5702, 40.42374
193.0524, 41.82599
193.5345, 31.12057
194.0166, 17.12802
194.4987, 14.63330
194.9808, 24.37570
195.4629, 34.49255
195.9451, 39.44421
196.4272, 39.39978
196.9093, 38.40118
197.3914, 36.42093
197.8735, 33.77390
198.3556, 30.53912
198.8378, 26.43475
199.3199, 23.92593
199.8020, 24.70190
200.2841, 29.13284
200.7662, 30.53555
201.2483, 27.63718
201.7305, 22.30048
202.2126, 20.63666
202.6947, 23.54358
203.1768, 24.27383
203.6589, 23.67368
204.1410, 22.21298
204.6232, 20.04459
205.1053, 16.55933
205.5874, 12.60742
206.0695, 11.45801
206.5516, 14.31369
207.0337, 17.50668
207.5159, 18.74475
207.9980, 18.27094
208.4801, 15.83258
208.9622, 10.42377
209.4443, 3.041077
209.9264, 1.372406
210.4086, 2.351563
210.8907, 1.289398
211.3728, 1.202759
211.8549, 5.856689
212.3370, 9.470917
212.8191, 11.38974
213.3013, 11.79730
213.7834, 12.14130
214.2655, 11.86777
214.7476, 12.43015
215.2297, 16.10349
215.7118, 25.72513
216.1940, 30.33389
216.6761, 26.12543
217.1582, 13.67371
217.6403, 6.248444
218.1224, 4.951263
218.6045, 7.303101
219.0867, 11.54230
219.5688, 18.91037
220.0509, 25.33450
220.5330, 30.92114
221.0151, 35.86630
221.4972, 33.26724
221.9794, 18.19644
222.4615, 1.058807
222.9436, 6.470856
223.4257, 0.6068730
223.9078, 6.937073
224.3899, 8.077271
224.8721, 3.300110
225.3542, 3.492523
225.8363, 11.47437
226.3184, 21.74869
226.8005, 27.92987
227.2827, 28.75406
227.7648, 27.75681
228.2469, 25.61664
228.7290, 22.28732
229.2111, 18.03275
229.6932, 11.58667
230.1754, 5.291718
230.6575, 2.495911
231.1396, 5.448242
231.6217, 7.926392
232.1038, 7.728058
232.5859, 3.873474
233.0681, 2.842590
233.5502, 6.270966
234.0323, 11.34177
234.5144, 13.90540
234.9965, 12.60614
235.4786, 11.06387
235.9608, 10.58591
236.4429, 11.76306
236.9250, 11.10043
237.4071, 7.144287
237.8892, 2.257568
238.3713, 0.3118290
238.8535, 2.692413
239.3356, 5.720459
239.8177, 8.478333
240.2998, 11.21567
240.7819, 12.56720
241.2640, 11.53064
241.7462, 9.709747
242.2283, 9.874023
242.7104, 12.62109
243.1925, 16.43820
243.6746, 21.90570
244.1567, 31.53119
244.6389, 33.31476
245.1210, 21.96503
245.6031, 5.932770
246.0852, 1.235474
246.5673, 15.15627
247.0494, 27.97221
247.5316, 31.83125
248.0137, 22.73648
248.4958, 18.63597
248.9779, 22.67162
249.4600, 29.95888
249.9421, 31.02518
250.4243, 22.94009
250.9064, 13.88208
251.3885, 6.301254
251.8706, 0.4220580
252.3527, 3.503586
252.8348, 2.313293
253.3170, 2.100510
253.7991, 8.661469
254.2812, 20.10057
254.7633, 28.32147
255.2454, 29.63324
255.7275, 22.00189
256.2097, 15.01520
256.6918, 9.290710
257.1739, 3.867935
257.6560, 4.241913
258.1381, 18.84370
258.6202, 28.23807
259.1024, 26.63120
259.5845, 10.60345
260.0666, 2.242706
260.5487, 11.58586
261.0308, 17.95511
261.5129, 23.05597
261.9951, 27.96849
262.4772, 28.85854
262.9593, 22.33011
263.4414, 5.222855
263.9235, 4.100601
264.4056, 3.776871
264.8878, 2.518478
265.3699, 9.180237
265.8520, 17.26685
266.3341, 22.82124
266.8162, 23.20128
267.2983, 17.03323
267.7805, 15.05356
268.2626, 19.28944
268.7447, 25.59038
269.2268, 25.55478
269.7089, 16.78497
270.1910, 10.06943
270.6732, 10.51099
271.1553, 19.08318
271.6374, 25.22006
272.1195, 28.35275
272.6016, 29.89143
273.0837, 31.98050
273.5659, 34.76450
274.0480, 37.43607
274.5301, 40.45438
275.0122, 43.93021
275.4943, 42.93494
275.9764, 35.88152
276.4586, 27.34277
276.9407, 24.13216
277.4228, 26.63129
277.9049, 31.42773
278.3870, 39.29987
278.8691, 49.84006
279.3513, 51.90697
279.8334, 43.03009
280.3155, 32.03445
280.7976, 31.93585
281.2798, 43.89200
281.7619, 54.92929
282.2440, 60.09886
282.7261, 60.07042
283.2082, 59.54655
283.6903, 58.32768
284.1725, 57.35080
284.6546, 58.26305
285.1367, 60.96367
285.6188, 62.95197
286.1009, 62.98492
286.5830, 61.55392
287.0652, 60.80426
287.5473, 60.82103
288.0294, 61.05898
288.5115, 60.71611
288.9936, 59.91646
289.4757, 59.81480
289.9579, 62.12421
290.4400, 65.08739
290.9221, 63.00723
291.4042, 55.55492
291.8863, 47.16423
292.3684, 41.20399
292.8506, 37.80424
293.3327, 37.57565
293.8148, 42.56264
294.2969, 49.76257
294.7790, 53.49490
295.2611, 53.75760
295.7433, 52.13899
296.2254, 49.13660
296.7075, 45.26505
297.1896, 41.66748
297.6717, 37.47707
298.1538, 34.67154
298.6360, 37.67676
299.1181, 46.04102
299.6002, 54.12100
300.0823, 60.00986
300.5644, 62.33792
301.0465, 57.69862
301.5287, 40.84265
302.0108, 22.15524
302.4929, 13.50195
302.9750, 13.81444
303.4571, 17.45929
303.9392, 23.18355
304.4214, 29.17587
304.9035, 33.04384
305.3856, 33.96101
305.8677, 32.88144
306.3498, 29.02286
306.8319, 23.38194
307.3141, 19.40541
307.7962, 20.88576
308.2783, 24.25441
308.7604, 26.00658
309.2425, 25.06784
309.7246, 23.08382
310.2068, 20.70038
310.6889, 18.22568
311.1710, 16.00316
311.6531, 10.65718
312.1352, 7.432083
312.6173, 11.96227
313.0995, 28.79663
313.5816, 42.49628
314.0637, 42.61046
314.5458, 34.78876
315.0279, 29.69589
315.5100, 33.54231
315.9922, 38.55760
316.4743, 41.19524
316.9564, 41.30261
317.4385, 42.09805
317.9206, 44.30017
318.4027, 46.66847
318.8849, 48.34030
319.3670, 48.27875
319.8491, 48.19075
320.3312, 48.81641
320.8133, 50.37192
321.2954, 51.65538
321.7776, 50.13834
322.2597, 49.02722
322.7418, 51.66669
323.2239, 64.42188
323.7060, 74.54234
324.1881, 78.19373
324.6703, 74.73260
325.1524, 71.65289
325.6345, 69.34845
326.1166, 67.71063
326.5987, 66.62219
327.0808, 65.66959
327.5630, 65.77678
328.0451, 68.04187
328.5272, 72.26071
329.0093, 73.79504
329.4914, 70.08998
329.9735, 65.99379
330.4557, 65.10651
330.9378, 72.16483
331.4199, 74.02728
331.9020, 66.83972
332.3841, 52.90771
332.8662, 45.39372
333.3484, 47.58185
333.8305, 52.36060
334.3126, 56.82135
334.7947, 62.57697
335.2768, 62.05460
335.7589, 51.25992
336.2411, 35.98318
336.7232, 31.88094
337.2053, 42.71536
337.6874, 54.07144
338.1695, 59.59889
338.6516, 58.78296
339.1338, 55.37256
339.6159, 47.80157
340.0980, 40.28230
340.5801, 42.98958
341.0622, 57.56732
341.5443, 66.72650
342.0265, 59.64186
342.5086, 38.82312
342.9907, 27.28355
343.4728, 26.07750
343.9549, 30.43236
344.4370, 37.31123
344.9192, 46.05365
345.4013, 50.22673
345.8834, 45.15268
346.3655, 34.50407
346.8476, 27.32208
347.3297, 23.61288
347.8119, 23.44353
348.2940, 30.48894
348.7761, 41.68825
349.2582, 47.31483
349.7403, 42.06361
350.2225, 32.80769
350.7046, 29.91811
351.1867, 32.60042
351.6688, 34.95213
352.1509, 29.78546
352.6331, 22.31622
353.1152, 21.61316
353.5973, 33.80081
354.0794, 45.45575
354.5615, 40.60434
355.0436, 24.50304
355.5258, 13.14847
356.0079, 22.17793
356.4900, 36.00374
356.9721, 39.79248
357.4542, 28.20532
357.9363, 16.97368
358.4185, 16.39626
358.9006, 21.98735
359.3827, 25.98628
359.8648, 24.10176
360.3469, 20.84752
360.8290, 17.75824
361.3112, 14.62338
361.7933, 14.29866
362.2754, 19.75266
362.7575, 27.68604
363.2396, 34.53983
363.7217, 41.67960
364.2039, 45.41344
364.6860, 43.02388
365.1681, 34.45053
365.6502, 28.35561
366.1323, 27.88290
366.6144, 28.65475
367.0966, 27.75330
367.5787, 22.98846
368.0608, 19.14566
368.5429, 16.38148
369.0250, 14.72237
369.5071, 14.38711
369.9893, 15.85538
370.4714, 18.07805
370.9535, 20.71812
371.4356, 24.36998
371.9177, 27.06996
372.3998, 28.88266
372.8820, 29.68571
373.3641, 28.90045
373.8462, 25.43472
374.3283, 22.96646
374.8104, 24.64891
375.2925, 31.38489
375.7747, 31.44218
376.2568, 22.79878
376.7389, 11.53970
377.2210, 5.772888
377.7031, 5.701187
378.1852, 7.492386
378.6674, 10.51534
379.1495, 14.52502
379.6316, 19.14084
380.1137, 23.70285
380.5958, 26.71132
381.0779, 27.19228
381.5601, 25.80577
382.0422, 23.05540
382.5243, 17.16855
383.0064, 11.28355
383.4885, 11.83571
383.9706, 17.83760
384.4528, 22.00531
384.9349, 17.11250
385.4170, 7.807953
385.8991, 1.847748
386.3812, 9.9776998E-02
386.8633, 0.1663060
387.3455, 1.069290
387.8276, 2.154678
388.3097, 1.888306
388.7918, 3.671707
389.2739, 8.501038
389.7560, 6.665436
390.2382, 1.580841
390.7203, 8.990997
391.2024, 11.93166
391.6845, 12.54553
392.1666, 13.27330
392.6487, 17.40674
393.1309, 19.43929
393.6130, 15.06927
394.0951, 5.076141
394.5772, 1.300354
395.0593, 1.644440
395.5414, 6.814743
396.0236, 9.763138
396.5057, 8.732635
396.9878, 6.797775
397.4699, 2.919937
397.9520, 1.841034
398.4341, 4.156082
398.9163, 3.335403
399.3984, 0.7462620
399.8805, 3.885620
400.3626, 12.81288
400.8447, 16.61707
401.3268, 11.69662
401.8090, 4.311157
402.2911, 4.087418
402.7732, 14.51744
403.2553, 23.03174
403.7374, 26.32016
404.2195, 24.56174
404.7017, 20.06035
405.1838, 11.44196
405.6659, 3.758087
406.1480, 2.482468
406.6301, 7.704086
407.1122, 12.30362
407.5944, 15.14973
408.0765, 16.54561
408.5586, 16.84595
409.0407, 16.02805
409.5228, 14.92397
410.0049, 13.39983
410.4871, 12.00792
410.9692, 12.75003
411.4513, 16.29878
411.9334, 20.09215
412.4155, 20.92162
412.8976, 19.58667
413.3798, 18.40063
413.8619, 18.83896
414.3440, 19.69884
414.8261, 19.93959
415.3082, 19.52151
415.7903, 18.20876
416.2725, 13.51013
416.7546, 8.697144
417.2367, 7.541641
417.7188, 15.69429
418.2009, 22.84544
418.6830, 23.07288
419.1652, 18.06870
419.6473, 14.04010
420.1294, 14.53035
420.6115, 15.43707
421.0937, 14.32326
421.5758, 9.538956
422.0579, 5.671494
422.5400, 2.562363
423.0221, 0.9539030
423.5042, 1.821960
423.9864, 8.275070
424.4685, 13.70914
424.9506, 16.28856
425.4327, 15.67938
425.9148, 16.13734
426.3969, 17.97795
426.8791, 20.52451
427.3612, 23.48718
427.8433, 27.51572
428.3254, 30.06697
428.8075, 31.27373
429.2896, 30.54802
429.7718, 24.42606
430.2539, 11.53661
430.7360, 0.3671260
431.2181, 2.921600
431.7002, 1.086258
432.1823, 3.965866
432.6645, 5.257141
433.1466, 5.571045
433.6287, 4.753632
434.1108, 3.291168
434.5929, 3.813980
435.0750, 11.03380
435.5572, 19.34180
436.0393, 16.37192
436.5214, 2.686920
437.0035, 9.803146
437.4856, 9.600555
437.9677, 2.973816
438.4499, 0.9183040
438.9320, 2.953262
439.4141, 5.479324
439.8962, 3.104279
440.3783, 18.38715
440.8604, 29.23486
441.3426, 29.02315
441.8247, 24.17809
442.3068, 16.50421
442.7889, 4.494080
443.2710, 2.355293
443.7531, 2.067307
444.2353, 11.58318
444.7174, 19.44897
445.1995, 29.50346
445.6816, 32.47710
446.1637, 21.24644
446.6458, 2.093925
447.1280, 13.75172
447.6101, 6.342163
448.0922, 5.799789
448.5743, 14.51740
449.0564, 19.21172
449.5385, 22.07735
450.0207, 22.56616
450.5028, 21.81108
450.9849, 22.35410
451.4670, 24.76363
451.9491, 25.47501
452.4312, 21.71851
452.9134, 14.57360
453.3955, 12.66628
453.8776, 16.59453
454.3597, 21.62158
454.8418, 21.89775
455.3239, 18.96606
455.8061, 19.88332
456.2882, 28.93123
456.7703, 38.66878
457.2524, 36.11627
457.7345, 23.99255
458.2166, 13.40302
458.6988, 12.09219
459.1809, 15.35150
459.6630, 18.97421
460.1451, 22.83709
460.6272, 24.91853
461.1093, 21.30255
461.5915, 15.96118
462.0736, 13.91882
462.5557, 22.52477
463.0378, 29.13142
463.5199, 27.64281
464.0020, 19.11018
464.4842, 11.83336
464.9663, 6.106293
465.4484, 3.045952
465.9305, 3.444000
466.4126, 9.455940
466.8947, 15.26730
467.3769, 22.16881
467.8590, 28.29685
468.3411, 30.08337
468.8232, 24.44213
469.3053, 20.72406
469.7874, 22.47453
470.2696, 29.19649
470.7517, 31.13903
471.2338, 26.98384
471.7159, 22.10755
472.1980, 22.32234
472.6801, 27.43288
473.1623, 28.36134
473.6444, 22.64365
474.1265, 14.56435
474.6086, 11.02944
475.0907, 11.69622
475.5728, 14.38899
476.0550, 20.79008
476.5371, 27.49919
477.0192, 27.70877
477.5013, 21.12207
477.9834, 14.46824
478.4655, 14.41125
478.9477, 16.94024
479.4298, 16.55038
479.9119, 7.612122
480.3940, 0.3503490
480.8761, 1.414230
481.3582, 8.640518
481.8404, 15.66809
482.3225, 22.79501
482.8046, 27.13515
483.2867, 25.89933
483.7688, 15.56976
484.2509, 11.11314
484.7331, 21.87366
485.2152, 34.88184
485.6973, 37.51089
486.1794, 20.45155
486.6615, 9.133278
487.1436, 9.008812
487.6258, 17.37797
488.1079, 20.87250
488.5900, 17.30544
489.0721, 14.17569
489.5542, 17.98659
490.0363, 28.70290
490.5185, 31.23192
491.0006, 23.32869
491.4827, 13.29801
491.9648, 13.40472
492.4470, 21.75778
492.9291, 27.85935
493.4112, 27.12330
493.8933, 22.83029
494.3754, 18.08501
494.8575, 12.74153
495.3397, 10.85960
495.8218, 20.12922
496.3039, 31.75591
496.7860, 35.19394
497.2681, 27.59922
497.7502, 18.56509
498.2324, 10.48422
498.7145, 3.903114
499.1966, 0.4554210
499.6787, 1.434494
500.1608, 1.026306
500.6429, 4.8679998E-03
501.1251, 1.467041
501.6072, 4.834656
502.0893, 13.94020
502.5714, 21.32186
503.0535, 23.01647
503.5356, 15.29328
504.0178, 10.83842
504.4999, 10.07581
504.9820, 11.21693
505.4641, 13.73724
505.9462, 18.02161
506.4283, 21.73073
506.9105, 24.90343
507.3926, 26.88873
507.8747, 24.10243
508.3568, 16.28425
508.8389, 8.215637
509.3210, 1.407860
509.8032, 2.999435
510.2853, 0.3915940
510.7674, 11.41504
511.2495, 23.32018
511.7316, 25.15811
512.2137, 20.24544
512.6959, 15.34831
513.1780, 12.66547
513.6601, 11.43939
514.1422, 11.09836
514.6243, 11.71883
515.1064, 13.85622
515.5886, 20.69585
516.0707, 27.05251
516.5528, 29.38666
517.0349, 24.81824
517.5170, 21.40688
517.9991, 21.83277
518.4813, 23.09011
518.9634, 21.17080
519.4455, 13.57504
519.9276, 7.080872
520.4097, 3.065666
520.8918, 1.331543
521.3740, 7.0868999E-02
521.8561, 1.535561
522.3382, 1.368408
522.8203, 2.623344
523.3024, 10.06580
523.7845, 15.14661
524.2667, 17.46913
524.7488, 17.92686
525.2309, 17.67210
525.7130, 16.54662
526.1951, 13.81435
526.6772, 6.934784
527.1594, 0.4756160
527.6415, 1.739540
528.1236, 8.901489
528.6057, 13.96417
529.0878, 9.455093
529.5699, 2.969757
530.0521, 0.4648590
530.5342, 3.483200
531.0163, 6.817307
531.4984, 8.735664
531.9805, 10.18002
532.4626, 12.15472
532.9448, 17.07397
533.4269, 19.72779
533.9090, 18.16463
534.3911, 13.76164
534.8732, 12.36228
535.3553, 16.37743
535.8375, 18.76709
536.3196, 14.89872
536.8017, 4.110016
537.2838, 1.210770
537.7659, 7.964211
538.2480, 16.55918
538.7302, 18.77760
539.2123, 15.38264
539.6944, 10.93314
540.1765, 5.635727
540.6586, 1.134483
541.1407, 1.8448001E-02
541.6229, 1.696777
542.1050, 3.998138
542.5871, 5.313576
543.0692, 7.026024
543.5513, 11.53118
544.0334, 18.85188
544.5156, 23.63425
544.9977, 22.34753
545.4798, 18.10211
545.9619, 13.07557
546.4440, 4.461853
546.9261, 0.1221160
547.4083, 3.911087
547.8904, 11.94594
548.3725, 15.31237
548.8546, 9.707382
549.3367, 6.668816
549.8188, 10.19621
550.3010, 19.84400
550.7831, 25.51084
551.2652, 25.87828
551.7473, 25.53536
552.2294, 29.80479
552.7115, 37.91429
553.1937, 37.30092
553.6758, 25.41090
554.1579, 11.26816
554.6400, 6.007385
555.1221, 7.785583
555.6042, 10.61002
556.0864, 11.86169
556.5685, 13.31925
557.0506, 18.28206
557.5327, 25.43337
558.0148, 29.01084
558.4969, 20.30107
558.9791, 11.47203
559.4612, 10.99995
559.9433, 21.68026
560.4254, 30.47412
560.9075, 36.58495
561.3896, 38.81252
561.8718, 35.95699
562.3539, 22.20146
562.8360, 13.52604
563.3181, 13.30875
563.8002, 17.88716
564.2823, 17.69937
564.7645, 11.25551
565.2466, 6.817497
565.7287, 8.549080
566.2108, 15.30394
566.6929, 20.34599
567.1750, 23.96428
567.6572, 25.63942
568.1393, 23.91747
568.6214, 20.27193
569.1035, 18.05008
569.5856, 18.13348
570.0677, 18.11922
570.5499, 15.27809
571.0320, 11.16272
571.5141, 8.211288
571.9962, 8.193703
572.4783, 8.633835
572.9604, 7.779915
573.4426, 6.237717
573.9247, 7.178665
574.4068, 13.67175
574.8889, 20.42027
575.3710, 25.25805
575.8531, 27.60873
576.3353, 31.43747
576.8174, 39.30634
577.2995, 44.79686
577.7816, 39.18021
578.2637, 20.80956
578.7458, 10.21668
579.2280, 12.33807
579.7101, 19.84632
580.1922, 19.01027
580.6743, 11.38705
581.1564, 5.548065
581.6385, 7.192467
582.1207, 11.94228
582.6028, 14.32103
583.0849, 14.52283
583.5670, 14.24747
584.0491, 14.91866
584.5313, 15.23769
585.0134, 13.54668
585.4955, 8.161690
585.9776, 5.548851
586.4597, 10.54504
586.9418, 17.84088
587.4240, 21.29246
587.9061, 17.92691
588.3882, 15.01307
588.8703, 12.55397
589.3524, 11.24629
589.8345, 14.22176
590.3167, 23.19849
590.7988, 29.81577
591.2809, 29.49328
591.7630, 23.64382
592.2451, 19.29860
592.7272, 16.49863
593.2094, 14.20177
593.6915, 11.23019
594.1736, 8.211922
594.6557, 6.217865
595.1378, 5.387527
595.6199, 5.972221
596.1021, 9.540543
596.5842, 14.15988
597.0663, 17.78862
597.5485, 19.09784
598.0306, 19.96246
598.5127, 22.06780
598.9948, 24.50531
599.4769, 23.16093
599.9590, 11.29827
600.4412, 3.572205
600.9233, 6.674652
601.4054, 21.73709
601.8875, 29.20280
602.3696, 26.88327
602.8517, 22.18826
603.3339, 21.79364
603.8160, 25.25772
604.2981, 26.93049
604.7802, 26.15557
605.2623, 23.52399
605.7444, 19.29787
606.2266, 13.75663
606.7087, 7.774254
607.1908, 0.1933590
607.6729, 6.678810
608.1550, 8.872704
608.6371, 7.331795
609.1193, 3.940796
609.6014, 3.731079
610.0835, 10.34859
610.5656, 13.13596
611.0477, 11.57528
611.5298, 8.671028
612.0120, 2.483200
612.4941, 2.922058
612.9762, 4.227982
613.4583, 0.4502260
613.9404, 1.935623
614.4225, 1.425201
614.9047, 5.784912
615.3868, 5.301826
615.8689, 0.2948840
616.3510, 5.135506
616.8331, 10.40556
617.3152, 14.67564
617.7974, 16.09920
618.2795, 15.23636
618.7616, 14.35511
619.2437, 14.58417
619.7258, 15.35581
620.2079, 16.72826
620.6901, 18.65966
621.1722, 19.38434
621.6543, 18.61766
622.1364, 16.20465
622.6185, 11.35960
623.1006, 8.9492999E-02
623.5828, 4.398132
624.0649, 2.240005
624.5470, 12.52614
625.0291, 17.45566
625.5112, 15.92484
625.9933, 15.16508
626.4755, 17.07958
626.9576, 19.64697
627.4397, 16.45769
627.9218, 8.713684
628.4039, 5.586861
628.8860, 16.71520
629.3682, 32.40529
629.8503, 39.93377
630.3324, 39.81630
630.8145, 36.03043
631.2966, 27.48502
631.7787, 18.51088
632.2609, 11.70271
632.7430, 6.973015
633.2251, 6.130600
633.7072, 13.80965
634.1893, 22.93390
634.6714, 27.81319
635.1536, 27.64069
635.6357, 24.71848
636.1178, 16.79979
636.5999, 7.858292
637.0820, 5.493713
637.5641, 9.987076
638.0463, 15.32874
638.5284, 18.34649
639.0105, 19.60645
639.4926, 24.93288
639.9747, 33.51927
640.4568, 39.74970
640.9390, 39.79211
641.4211, 36.25946
641.9032, 29.70482
642.3853, 20.22272
642.8674, 14.73964
643.3495, 20.43831
643.8317, 28.16747
644.3138, 31.49502
644.7959, 26.67542
645.2780, 23.26492
645.7601, 22.40100
646.2422, 21.96017
646.7244, 18.69733
647.2065, 11.51302
647.6886, 7.628288
648.1707, 9.148499
648.6528, 13.44813
649.1349, 16.13549
649.6171, 17.13038
650.0992, 16.00952
650.5813, 9.921280
651.0634, 3.256783
651.5455, 2.670509
652.0276, 6.977280
652.5098, 9.834099
652.9919, 3.695755
653.4740, 1.719391
653.9561, 1.333641
654.4382, 15.79410
654.9203, 25.10081
655.4025, 22.89695
655.8846, 18.47575
656.3667, 18.28100
656.8488, 24.65370
657.3309, 28.24965
657.8130, 28.62495
658.2952, 26.43831
658.7773, 21.17105
659.2594, 13.23054
659.7415, 8.115685
660.2236, 7.668495
660.7057, 10.01546
661.1879, 13.70547
661.6700, 18.11956
662.1521, 21.48021
662.6342, 22.01723
663.1163, 22.01100
663.5984, 22.87656
664.0806, 24.53375
664.5627, 26.01425
665.0448, 27.50659
665.5269, 27.89881
666.0090, 27.53010
666.4911, 26.94935
666.9733, 22.42133
667.4554, 10.43047
667.9375, 1.417877
668.4196, 8.540642
668.9017, 30.94742
669.3839, 38.71018
669.8660, 26.58503
670.3481, 11.56236
670.8302, 17.84000
671.3123, 36.52129
671.7944, 46.73749
672.2766, 37.20583
672.7587, 24.89080
673.2408, 21.20508
673.7229, 23.33697
674.2050, 24.89681
674.6871, 24.42016
675.1693, 22.73999
675.6514, 17.59042
676.1335, 10.68716
676.6156, 12.25080
677.0977, 26.69233
677.5798, 39.57259
678.0620, 44.38533
678.5441, 41.79049
679.0262, 36.63156
679.5083, 28.63303
679.9904, 21.89922
680.4725, 20.05233
680.9547, 21.52441
681.4368, 24.53598
681.9189, 29.91734
682.4010, 32.83475
682.8831, 26.81908
683.3652, 18.42433
683.8474, 14.59957
684.3295, 22.16476
684.8116, 25.95183
685.2937, 20.36297
685.7758, 11.34206
686.2579, 6.266235
686.7401, 5.298584
687.2222, 8.325020
687.7043, 16.99110
688.1864, 28.06579
688.6685, 34.26034
689.1506, 35.65466
689.6328, 33.43817
690.1149, 25.46777
690.5970, 15.91675
691.0791, 11.94051
691.5612, 12.43185
692.0433, 11.87029
692.5255, 2.433311
693.0076, 5.166382
693.4897, 0.4986190
693.9718, 18.97601
694.4539, 27.00463
694.9360, 7.115425
695.4182, 13.05313
695.9003, 17.96790
696.3824, 2.941315
696.8645, 7.949852
697.3466, 14.30732
697.8287, 17.57690
698.3109, 18.78423
698.7930, 18.11433
699.2751, 15.92877
699.7572, 11.58730
700.2393, 8.412659
700.7214, 11.32032
701.2036, 17.48821
701.6857, 22.22133
702.1678, 23.64427
702.6499, 23.58809
703.1320, 21.60816
703.6141, 18.66576
704.0963, 17.34738
704.5784, 20.76874
705.0605, 20.99883
705.5426, 14.30727
706.0247, 3.263374
706.5068, 0.6530530
706.9890, 7.516869
707.4711, 13.89112
707.9532, 11.93431
708.4353, 6.292938
708.9174, 12.08788
709.3995, 28.05606
709.8817, 39.60227
710.3638, 31.05471
710.8459, 17.73226
711.3280, 14.22387
711.8101, 23.82903
712.2922, 30.73021
712.7744, 27.82116
713.2565, 22.64266
713.7386, 20.33780
714.2207, 22.17310
714.7028, 23.67455
715.1849, 24.85717
715.6671, 25.70334
716.1492, 26.87823
716.6313, 28.13141
717.1134, 26.12894
717.5955, 19.49173
718.0776, 12.12627
718.5598, 7.486679
719.0419, 5.842529
719.5240, 7.843643
720.0061, 17.16463
720.4882, 25.98016
720.9703, 30.37674
721.4525, 31.72110
721.9346, 33.17629
722.4167, 36.97397
722.8988, 38.53601
723.3809, 36.61198
723.8630, 31.85862
724.3452, 26.42803
724.8273, 20.39623
725.3094, 15.42422
725.7915, 12.50196
726.2736, 11.68855
726.7557, 13.12924
727.2379, 16.57295
727.7200, 20.03990
728.2021, 23.56949
728.6842, 25.63988
729.1663, 24.36743
729.6484, 19.50505
730.1306, 14.97311
730.6127, 10.67187
731.0948, 8.098221
731.5769, 8.420036
732.0590, 12.84775
732.5411, 15.00297
733.0233, 14.41199
733.5054, 12.61160
733.9875, 10.87492
734.4696, 9.158836
734.9517, 6.832146
735.4338, 3.542053
735.9160, 1.267052
736.3981, 2.907234
736.8802, 6.580620
737.3623, 9.599487
737.8444, 11.46504
738.3266, 12.16248
738.8087, 10.31062
739.2908, 7.760010
739.7729, 7.391090
740.2551, 11.60176
740.7372, 13.59402
741.2193, 11.54543
741.7014, 7.751823
742.1835, 7.198494
742.6656, 9.923325
743.1478, 13.08104
743.6299, 15.52681
744.1120, 18.22345
744.5941, 25.07123
745.0762, 33.78759
745.5583, 37.49150
746.0405, 24.78078
746.5226, 13.51323
747.0047, 17.66985
747.4868, 33.75968
747.9689, 40.30108
748.4510, 25.07564
748.9332, 12.53461
749.4153, 11.28983
749.8974, 20.21339
750.3795, 25.75418
750.8616, 27.29218
751.3438, 28.21457
751.8259, 31.73849
752.3080, 35.32848
752.7901, 30.86010
753.2722, 17.92780
753.7543, 7.014824
754.2365, 8.678535
754.7186, 13.75048
755.2007, 15.28945
755.6828, 11.97887
756.1649, 9.871773
756.6470, 7.102905
757.1292, 6.474724
757.6113, 10.08194
758.0934, 19.61253
758.5755, 25.56540
759.0576, 27.48070
759.5397, 27.56347
760.0219, 28.49262
760.5040, 29.41254
760.9861, 27.11037
761.4682, 20.65959
761.9503, 15.21281
762.4324, 14.86188
762.9146, 16.39081
763.3967, 16.87894
763.8788, 15.25214
764.3609, 13.97073
764.8430, 14.42499
765.3251, 14.59785
765.8073, 10.75732
766.2894, 0.2578810
766.7715, 2.800117
767.2536, 5.957237
767.7357, 18.42329
768.2178, 19.80632
768.7000, 12.56406
769.1821, 7.187073
769.6642, 7.020279
770.1463, 9.922470
770.6284, 17.67253
771.1105, 26.68926
771.5927, 30.04977
772.0748, 19.61375
772.5569, 10.14699
773.0390, 3.728691
773.5211, 0.9143680
774.0032, 5.034615
774.4854, 19.21893
774.9675, 28.12941
775.4496, 25.10504
775.9317, 15.69421
776.4138, 14.09513
776.8959, 19.10500
777.3781, 24.11320
777.8602, 25.54167
778.3423, 25.59315
778.8244, 26.24888
779.3065, 27.20144
779.7886, 27.05382
780.2708, 27.04893
780.7529, 23.85088
781.2350, 14.16682
781.7171, 0.6443330
782.1992, 7.131935
782.6813, 3.717766
783.1635, 1.953712
783.6456, 6.804939
784.1277, 10.79624
784.6098, 13.63691
785.0919, 15.42455
785.5740, 17.24139
786.0562, 21.61718
786.5383, 25.01564
787.0204, 23.06703
787.5025, 15.60468
787.9846, 10.89137
788.4667, 13.22858
788.9489, 16.57394
789.4310, 18.84139
789.9131, 20.04948
790.3952, 19.08776
790.8773, 15.48407
791.3594, 11.95008
791.8416, 11.12749
792.3237, 11.87783
792.8058, 10.68836
793.2879, 7.425507
793.7700, 5.034348
794.2521, 5.427284
794.7343, 7.636826
795.2164, 11.42166
795.6985, 17.50289
796.1806, 21.62352
796.6627, 21.83898
797.1448, 22.43713
797.6270, 25.79278
798.1091, 33.16151
798.5912, 34.34146
799.0733, 28.25301
799.5554, 21.48357
800.0375, 21.20416
800.5197, 24.62645
801.0018, 26.78905
801.4839, 27.07344
801.9660, 25.48105
802.4481, 19.76257
802.9302, 13.55907
803.4124, 10.01953
803.8945, 10.76360
804.3766, 11.80282
804.8587, 13.87507
805.3408, 15.27232
805.8229, 12.79388
806.3051, 6.503044
806.7872, 7.605217
807.2693, 18.06000
807.7514, 29.82829
808.2335, 36.49509
808.7156, 38.49964
809.1978, 35.44460
809.6799, 25.18710
810.1620, 16.87267
810.6441, 16.08755
811.1262, 18.05187
811.6083, 18.24303
812.0905, 16.83234
812.5726, 11.62704
813.0547, 0.9344330
813.5368, 10.42193
814.0189, 1.855476
814.5010, 30.59261
814.9832, 42.68232
815.4653, 30.38002
815.9474, 12.57631
816.4295, 3.902084
816.9116, 1.123001
817.3937, 0.6893160
817.8759, 4.312668
818.3580, 5.170967
818.8401, 2.084846
819.3222, 10.09359
819.8043, 11.23170
820.2864, 3.413162
820.7686, 0.9796300
821.2507, 0.3317790
821.7328, 1.751350
822.2149, 7.035782
822.6970, 21.21284
823.1791, 28.15651
823.6613, 23.53369
824.1434, 16.10197
824.6255, 8.131714
825.1076, 2.247070
825.5897, 0.9395140
826.0718, 9.099457
826.5540, 15.65484
827.0361, 20.63790
827.5182, 24.05753
828.0003, 26.59076
828.4824, 28.22010
828.9645, 28.88867
829.4467, 28.30835
829.9288, 27.90545
830.4109, 29.93694
830.8930, 33.01407
831.3751, 35.10883
831.8572, 35.90237
832.3394, 35.18942
832.8215, 32.59840
833.3036, 28.54970
833.7857, 23.04762
834.2678, 14.00724
834.7499, 10.29159
835.2321, 13.70596
835.7142, 19.65105
836.1963, 21.87234
836.6784, 21.67287
837.1605, 25.13742
837.6426, 35.03886
838.1248, 41.12876
838.6069, 29.86717
839.0890, 13.08168
839.5711, 4.145103
840.0532, 10.83939
840.5353, 15.86715
841.0175, 16.34737
841.4996, 16.37371
841.9817, 21.54987
842.4638, 32.28902
842.9459, 38.30685
843.4280, 38.58782
843.9102, 34.63669
844.3923, 24.36951
844.8744, 12.44921
845.3565, 6.720581
845.8386, 9.561226
846.3207, 15.28595
846.8029, 26.03973
847.2850, 35.78160
847.7671, 39.08025
848.2492, 33.37047
848.7313, 27.57898
849.2134, 20.93127
849.6956, 16.29662
850.1777, 17.76337
850.6598, 23.68810
851.1419, 28.92091
851.6240, 33.03992
852.1061, 34.56828
852.5883, 32.62576
853.0704, 27.47192
853.5525, 17.72948
854.0346, 1.156273
854.5167, 9.791061
854.9988, 2.612885
855.4810, 8.794998
855.9631, 17.84918
856.4452, 24.60947
856.9273, 23.63836
857.4094, 14.26645
857.8915, 4.778938
858.3737, 3.348152
858.8558, 5.732956
859.3379, 6.651375
859.8200, 5.373108
860.3021, 4.255348
860.7842, 2.188919
861.2664, 2.441231
861.7485, 7.761497
862.2306, 19.16149
862.7127, 25.16290
863.1948, 24.87405
863.6769, 23.32402
864.1591, 25.24352
864.6412, 28.30205
865.1233, 25.41861
865.6054, 16.96751
866.0875, 10.84106
866.5696, 13.95237
867.0518, 18.97816
867.5339, 21.99391
868.0160, 22.61749
868.4981, 21.50624
868.9802, 17.33161
869.4623, 14.23059
869.9445, 14.26867
870.4266, 16.98167
870.9087, 21.02636
871.3908, 25.72514
871.8729, 29.48864
872.3550, 30.38025
872.8372, 28.52404
873.3193, 22.24167
873.8014, 12.61720
874.2835, 5.732529
874.7656, 2.971222
875.2477, 3.455673
875.7299, 8.918701
876.2120, 17.11615
876.6941, 18.06148
877.1762, 11.54582
877.6583, 7.042244
878.1404, 9.971771
878.6226, 15.66942
879.1047, 17.80923
879.5869, 17.36234
880.0690, 17.23674
880.5511, 19.81236
881.0332, 20.75568
881.5153, 17.28793
881.9974, 11.86563
882.4796, 10.04836
882.9617, 12.92790
883.4438, 12.31648
883.9259, 4.516479
884.4080, 3.825783
884.8901, 0.5863420
885.3723, 12.62440
885.8544, 20.12941
886.3365, 16.24714
886.8186, 11.30790
887.3007, 9.201103
887.7828, 8.996155
888.2650, 9.384933
888.7471, 10.08216
889.2292, 12.16735
889.7113, 16.82509
890.1934, 20.39568
890.6755, 15.52559
891.1577, 5.614960
891.6398, 1.804176
892.1219, 7.070442
892.6040, 14.01895
893.0861, 20.57062
893.5682, 24.53793
894.0504, 22.77519
894.5325, 9.448715
895.0146, 5.207100
895.4967, 13.94882
895.9788, 24.56151
896.4609, 27.11877
896.9431, 22.98969
897.4252, 20.61901
897.9073, 20.46721
898.3894, 20.12913
898.8715, 18.11844
899.3536, 14.87950
899.8358, 9.010353
900.3179, 0.1844250
900.8000, 1.919304
901.2821, 10.65070
901.7642, 21.90468
902.2463, 23.92233
902.7285, 18.18085
903.2106, 16.80547
903.6927, 19.59656
904.1748, 21.15743
904.6569, 16.75771
905.1390, 10.58353
905.6212, 5.381157
906.1033, 1.816666
906.5854, 1.996574
907.0675, 12.54826
907.5496, 19.32133
908.0317, 15.88551
908.5139, 7.610870
908.9960, 14.80743
909.4781, 37.53889
909.9602, 50.05396
910.4423, 38.76044
910.9244, 20.27381
911.4066, 12.90609
911.8887, 13.12711
912.3708, 14.21955
912.8529, 16.29308
913.3350, 18.31461
913.8171, 19.68574
914.2993, 20.86611
914.7814, 23.25918
915.2635, 27.25711
915.7456, 26.30894
916.2277, 18.45555
916.7098, 9.985023
917.1920, 8.514503
917.6741, 11.07288
918.1562, 13.76582
918.6383, 16.74814
919.1204, 18.03835
919.6025, 14.83942
920.0847, 10.83959
920.5668, 7.537025
921.0489, 4.515404
921.5310, 6.856918
922.0131, 15.50539
922.4952, 21.64980
922.9774, 14.04567
923.4595, 1.433823
923.9416, 2.164848
924.4237, 3.625153
924.9058, 9.054482
925.3879, 10.61340
925.8701, 10.72628
926.3522, 10.26291
926.8343, 9.418556
927.3164, 7.934341
927.7985, 5.534752
928.2806, 5.072205
928.7628, 9.371445
929.2449, 14.92509
929.7270, 15.13258
930.2091, 11.98691
930.6912, 11.08255
931.1733, 18.57123
931.6555, 24.09616
932.1376, 23.97605
932.6197, 20.21169
933.1018, 15.56274
933.5839, 10.08842
934.0660, 5.111153
934.5482, 0.1818770
935.0303, 2.965652
935.5124, 5.247437
935.9945, 17.95099
936.4766, 22.10797
936.9587, 10.52582
937.4409, 2.146805
937.9230, 6.958099
938.4051, 14.32802
938.8872, 15.50267
939.3693, 8.646248
939.8514, 7.509361
940.3336, 12.97539
940.8157, 17.86412
941.2978, 14.24561
941.7799, 7.280006
942.2620, 3.571777
942.7441, 4.012650
943.2263, 7.715561
943.7084, 22.70634
944.1905, 31.63204
944.6726, 23.90052
945.1547, 3.712410
945.6368, 0.1288300
946.1190, 13.47070
946.6011, 24.16559
947.0832, 20.14262
947.5653, 11.32442
948.0474, 11.45047
948.5295, 17.21347
949.0117, 20.92074
949.4938, 17.68356
949.9759, 14.88116
950.4580, 13.14960
950.9401, 13.11350
951.4222, 16.85939
951.9044, 24.51984
952.3865, 28.65887
952.8686, 27.63736
953.3507, 25.08463
953.8328, 25.86506
954.3149, 26.94378
954.7971, 23.76517
955.2792, 13.78395
955.7613, 6.232300
956.2434, 1.957123
956.7255, 1.074608
957.2076, 4.444359
957.6898, 11.95887
958.1719, 19.91814
958.6540, 28.25751
959.1361, 33.57495
959.6182, 32.14236
960.1003, 27.51657
960.5825, 20.76147
961.0646, 13.02006
961.5467, 10.28113
962.0288, 18.01051
962.5109, 24.04117
962.9930, 24.88612
963.4752, 22.75948
963.9573, 23.41033
964.4394, 26.27330
964.9215, 28.03794
965.4036, 28.06201
965.8857, 25.69540
966.3679, 17.44394
966.8500, 7.755226
967.3321, 2.546555
967.8142, 5.783646
968.2963, 7.895279
968.7784, 8.667786
969.2606, 8.634369
969.7427, 7.703323
970.2248, 6.389526
970.7069, 7.232811
971.1890, 10.37819
971.6711, 12.26910
972.1533, 7.620491
972.6354, 3.371674
973.1175, 4.782616
973.5996, 11.90769
974.0817, 19.93317
974.5638, 31.37704
975.0460, 33.96389
975.5281, 17.14542
976.0102, 6.696770
976.4923, 8.974571
976.9744, 4.148438
977.4565, 14.57475
977.9387, 12.21637
978.4208, 8.384903
978.9029, 6.802452
979.3850, 6.079407
979.8671, 3.648079
980.3492, 1.479218
980.8314, 1.184593
981.3135, 6.750229
981.7956, 14.05554
982.2777, 7.822922
982.7598, 2.730766
983.2419, 2.299980
983.7241, 13.14710
984.2062, 24.11983
984.6883, 22.28979
985.1704, 16.94671
985.6525, 11.00415
986.1346, 4.767960
986.6168, 1.156204
987.0989, 0.1894760
987.5810, 2.493324
988.0631, 13.14911
988.5452, 23.29795
989.0273, 23.88064
989.5095, 17.29822
989.9916, 9.528130
990.4737, 1.251495
990.9558, 8.532051
991.4379, 11.60958
991.9200, 10.71599
992.4022, 4.740532
992.8843, 5.001335
993.3664, 14.72170
993.8485, 23.79502
994.3306, 29.51180
994.8127, 26.42911
995.2949, 21.56640
995.7770, 22.19762
996.2591, 30.18641
996.7412, 31.23686
997.2233, 23.39485
997.7054, 15.71003
998.1876, 13.94037
998.6697, 16.08228
999.1518, 18.69486
999.6339, 21.41264
1000.116, 22.83220
1000.598, 20.36028
1001.080, 18.78928
1001.562, 20.74127
1002.044, 24.17500
1002.527, 25.39986
1003.009, 24.25941
1003.491, 23.05132
1003.973, 22.43855
1004.455, 21.43901
1004.937, 17.68151
1005.419, 13.60187
1005.901, 13.10336
1006.384, 18.56071
1006.866, 19.84242
1007.348, 11.74791
1007.830, 5.620682
1008.312, 9.482643
1008.794, 21.02569
1009.276, 27.24202
1009.758, 28.30606
1010.240, 26.04698
1010.723, 16.39023
1011.205, 8.819260
1011.687, 10.63902
1012.169, 19.15857
1012.651, 27.18984
1013.133, 36.49574
1013.615, 38.90225
1014.097, 31.59607
1014.580, 21.26926
1015.062, 15.64193
1015.544, 14.22706
1016.026, 17.74734
1016.508, 27.76105
1016.990, 33.96503
1017.472, 29.54383
1017.954, 22.40279
1018.436, 16.60118
1018.919, 12.17093
1019.401, 9.075424
1019.883, 7.317291
1020.365, 5.948708
1020.847, 2.606880
1021.329, 0.9037320
1021.811, 7.440147
1022.293, 18.24023
1022.776, 23.46598
1023.258, 15.84665
1023.740, 12.07025
1024.222, 15.25896
1024.704, 19.95858
1025.186, 16.41811
1025.668, 7.864754
1026.150, 6.781975
1026.632, 15.50778
1027.115, 23.04406
1027.597, 19.88564
1028.079, 15.70499
1028.561, 18.60237
1029.043, 28.11345
1029.525, 29.91039
1030.007, 22.98051
1030.489, 16.47427
1030.972, 14.72208
1031.454, 15.68113
1031.936, 15.64061
1032.418, 15.93287
1032.900, 19.14018
1033.382, 32.77388
1033.864, 39.02220
1034.346, 33.96452
1034.828, 25.72392
1035.311, 22.11897
1035.793, 22.32883
1036.275, 20.02125
1036.757, 14.64160
1037.239, 12.57719
1037.721, 21.97742
1038.203, 33.05809
1038.685, 39.81067
1039.167, 42.13335
1039.650, 41.38937
1040.132, 36.91385
1040.614, 32.09505
1041.096, 28.53741
1041.578, 25.46503
1042.060, 20.20323
1042.542, 14.52040
1043.024, 11.72577
1043.507, 13.57010
1043.989, 17.13847
1044.471, 24.43280
1044.953, 30.33322
1045.435, 29.54616
1045.917, 22.83022
1046.399, 21.41846
1046.881, 25.27573
1047.364, 29.03909
1047.846, 30.52374
1048.328, 29.25459
1048.810, 23.09059
1049.292, 13.58078
1049.774, 6.392059
1050.256, 1.873581
1050.738, 0.2860570
1051.220, 1.989441
1051.703, 4.711853
1052.185, 3.065720
1052.667, 0.8593140
1053.149, 6.706467
1053.631, 25.74995
1054.113, 36.01729
1054.595, 24.18916
1055.077, 10.72298
1055.559, 5.979752
1056.042, 8.628983
1056.524, 9.217056
1057.006, 8.071167
1057.488, 7.870453
1057.970, 11.61169
1058.452, 15.16795
1058.934, 15.97507
1059.416, 14.79572
1059.899, 12.92331
1060.381, 9.600037
1060.863, 8.668900
1061.345, 10.77319
1061.827, 13.88562
1062.309, 16.64069
1062.791, 18.72279
1063.273, 19.35356
1063.755, 18.52263
1064.238, 17.82753
1064.720, 18.48965
1065.202, 18.20877
1065.684, 15.79671
1066.166, 12.35802
1066.648, 11.42238
1067.130, 12.42136
1067.612, 12.40375
1068.094, 9.486389
1068.577, 7.638031
1069.059, 9.099701
1069.541, 12.97548
1070.023, 19.72559
1070.505, 31.61270
1070.987, 30.68643
1071.469, 15.55908
1071.951, 1.144958
1072.434, 1.098816
1072.916, 2.095627
1073.398, 3.701096
1073.880, 3.917160
1074.362, 3.918121
1074.844, 2.512253
1075.326, 3.515396
1075.808, 8.088425
1076.291, 14.04506
1076.773, 19.28998
1077.255, 23.36099
1077.737, 24.29669
1078.219, 21.68138
1078.701, 18.79776
1079.183, 19.13042
1079.665, 17.52495
1080.147, 9.386459
1080.630, 2.980049
1081.112, 4.230247
1081.594, 5.444656
1082.076, 13.97284
1082.558, 16.57944
1083.040, 16.16763
1083.522, 15.01115
1084.004, 13.34445
1084.486, 11.18012
1084.969, 6.871178
1085.451, 7.463867
1085.933, 14.48676
1086.415, 20.63547
1086.897, 19.77039
1087.379, 14.56983
1087.861, 7.387657
1088.343, 0.3819960
1088.826, 3.465675
1089.308, 6.108589
1089.790, 12.31636
1090.272, 10.99261
1090.754, 6.956146
1091.236, 7.829102
1091.718, 11.20222
1092.200, 13.16232
1092.682, 12.94583
1093.165, 12.10835
1093.647, 11.87402
1094.129, 11.02794
1094.611, 7.551773
1095.093, 2.390907
1095.575, 4.002335
1096.057, 12.79597
1096.539, 17.62841
1097.022, 11.93654
1097.504, 5.349358
1097.986, 10.32747
1098.468, 19.50603
1098.950, 22.30234
1099.432, 13.75273
1099.914, 7.453224
1100.396, 3.032784
1100.879, 2.371780
1101.361, 9.647171
1101.843, 20.37032
1102.325, 27.66071
1102.807, 30.97329
1103.289, 28.61013
1103.771, 10.53862
1104.253, 2.5063001E-02
1104.735, 3.497116
1105.218, 12.21844
1105.700, 12.68909
1106.182, 7.186226
1106.664, 7.353699
1107.146, 14.52233
1107.628, 21.52339
1108.110, 26.30833
1108.592, 27.26493
1109.074, 20.99986
1109.557, 10.30679
1110.039, 6.397102
1110.521, 9.305702
1111.003, 14.62077
1111.485, 21.77463
1111.967, 28.54686
1112.449, 33.18899
1112.931, 35.95909
1113.414, 37.00095
1113.896, 36.19996
1114.378, 34.51014
1114.860, 32.43272
1115.342, 29.34833
1115.824, 21.26453
1116.306, 13.04221
1116.788, 12.09352
1117.271, 15.77592
1117.753, 18.18774
1118.235, 15.67452
1118.717, 14.68789
1119.199, 16.35455
1119.681, 18.24577
1120.163, 17.55927
1120.645, 15.24814
1121.127, 14.57772
1121.609, 15.10172
1122.092, 14.86689
1122.574, 9.540489
1123.056, 7.718567
1123.538, 14.37854
1124.020, 24.23804
1124.502, 25.24070
1124.984, 18.61744
1125.466, 15.26050
1125.949, 17.54562
1126.431, 19.84968
1126.913, 16.08066
1127.395, 12.80145
1127.877, 16.49321
1128.359, 25.77441
1128.841, 28.25812
1129.323, 23.54936
1129.806, 19.10680
1130.288, 17.88777
1130.770, 17.49213
1131.252, 12.92361
1131.734, 8.913040
1132.216, 13.24339
1132.698, 31.92983
1133.180, 38.33224
1133.662, 29.82704
1134.145, 19.90455
1134.627, 17.04317
1135.109, 18.07654
1135.591, 18.28397
1136.073, 18.32497
1136.555, 19.86446
1137.037, 30.53044
1137.519, 30.43028
1138.001, 14.51934
1138.484, 4.078217
1138.966, 12.16734
1139.448, 11.90979
1139.930, 6.544121
1140.412, 2.883232
1140.894, 9.253677
1141.376, 5.990646
1141.858, 4.096107
1142.341, 6.859360
1142.823, 12.08730
1143.305, 16.44383
1143.787, 19.82127
1144.269, 22.04391
1144.751, 23.17273
1145.233, 22.11624
1145.715, 13.82153
1146.198, 7.950760
1146.680, 12.36700
1147.162, 23.28876
1147.644, 17.36296
1148.126, 3.520157
1148.608, 12.26618
1149.090, 4.407784
1149.572, 22.52997
1150.054, 24.22849
1150.536, 18.49916
1151.019, 12.78851
1151.501, 7.033997
1151.983, 8.104286
1152.465, 16.34071
1152.947, 23.28116
1153.429, 24.16724
1153.911, 21.93575
1154.393, 14.94629
1154.876, 8.140350
1155.358, 11.78333
1155.840, 32.82634
1156.322, 43.49945
1156.804, 42.44167
1157.286, 35.73259
1157.768, 22.43228
1158.250, 10.50779
1158.733, 13.72937
1159.215, 27.39368
1159.697, 32.59931
1160.179, 19.84141
1160.661, 14.13519
1161.143, 20.12725
1161.625, 28.71748
1162.107, 30.42587
1162.589, 27.10535
1163.072, 19.62894
1163.554, 8.710274
1164.036, 3.258987
1164.518, 10.29472
1165.000, 14.41171
1165.482, 9.863640
1165.964, 4.045288
1166.446, 15.01488
1166.928, 34.05748
1167.411, 40.28413
1167.893, 27.95529
1168.375, 16.78007
1168.857, 13.68967
1169.339, 12.22700
1169.821, 9.937325
1170.303, 7.690407
1170.785, 10.44361
1171.268, 15.73941
1171.750, 13.93507
1172.232, 4.319702
1172.714, 13.36356
1173.196, 9.263847
1173.678, 32.58923
1174.160, 36.60069
1174.642, 24.72147
1175.125, 17.77794
1175.607, 15.41304
1176.089, 16.13058
1176.571, 24.82404
1177.053, 28.96156
1177.535, 17.79170
1178.017, 3.368492
1178.499, 2.979012
1178.981, 1.400841
1179.464, 1.409195
1179.946, 2.896965
1180.428, 2.085335
1180.910, 5.845116
1181.392, 14.03183
1181.874, 19.45228
1182.356, 22.53746
1182.838, 24.24484
1183.320, 24.63648
1183.803, 20.28029
1184.285, 10.66894
1184.767, 4.752838
1185.249, 11.68629
1185.731, 22.22079
1186.213, 33.21756
1186.695, 42.16735
1187.177, 41.83962
1187.660, 31.57103
1188.142, 20.91802
1188.624, 10.79821
1189.106, 6.187180
1189.588, 18.93115
1190.070, 32.90167
1190.552, 32.43187
1191.034, 19.67140
1191.516, 13.71848
1191.999, 14.86375
1192.481, 20.69621
1192.963, 32.17337
1193.445, 42.29958
1193.927, 42.16464
1194.409, 38.41534
1194.891, 38.44185
1195.373, 42.86349
1195.855, 41.71847
1196.338, 33.63710
1196.820, 29.09831
1197.302, 35.08148
1197.784, 42.37665
1198.266, 39.55386
1198.748, 32.04358
1199.230, 26.88801
1199.712, 24.84161
1200.195, 25.98431
1200.677, 30.92731
1201.159, 34.71061
1201.641, 33.93906
1202.123, 31.57976
1202.605, 30.07372
1203.087, 29.65555
1203.569, 31.15192
1204.052, 36.95349
1204.534, 36.24760
1205.016, 27.51064
1205.498, 21.15340
1205.980, 28.74228
1206.462, 38.31296
1206.944, 37.19888
1207.426, 28.22272
1207.908, 19.20424
1208.391, 8.151741
1208.873, 6.336403
1209.355, 15.90662
1209.837, 25.60031
1210.319, 24.98734
1210.801, 19.91988
1211.283, 15.59963
1211.765, 12.49500
1212.247, 11.84277
1212.730, 14.84939
1213.212, 16.47432
1213.694, 16.29405
1214.176, 14.17342
1214.658, 7.759956
1215.140, 0.8950350
1215.622, 2.281677
1216.104, 1.753967
1216.587, 1.094498
1217.069, 6.886505
1217.551, 12.26124
1218.033, 16.91353
1218.515, 19.99500
1218.997, 20.81296
1219.479, 19.36729
1219.961, 13.59583
1220.443, 4.270660
1220.926, 2.201324
1221.408, 9.935051
1221.890, 15.53066
1222.372, 15.67038
1222.854, 14.90508
1223.336, 19.80666
1223.818, 26.21383
1224.300, 29.00913
1224.782, 27.37106
1225.265, 26.92593
1225.747, 28.64665
1226.229, 25.75593
1226.711, 13.23127
1227.193, 3.406929
1227.675, 18.35026
1228.157, 40.37059
1228.639, 46.56268
1229.122, 32.64778
1229.604, 26.54401
1230.086, 29.39885
1230.568, 28.60520
1231.050, 18.89280
1231.532, 10.07578
1232.014, 15.36476
1232.496, 25.75680
1232.979, 29.33623
1233.461, 24.15460
1233.943, 22.72871
1234.425, 25.32460
1234.907, 29.17986
1235.389, 33.49684
1235.871, 37.70056
1236.353, 42.98293
1236.835, 46.99243
1237.318, 44.42349
1237.800, 33.31317
1238.282, 32.02282
1238.764, 41.26581
1239.246, 49.42617
1239.728, 49.08113
1240.210, 46.27854
1240.692, 46.98125
1241.175, 47.66394
1241.657, 42.90361
1242.139, 31.09069
1242.621, 24.64999
1243.103, 23.71786
1243.585, 24.73820
1244.067, 27.65727
1244.549, 29.40298
1245.031, 25.40807
1245.514, 20.42242
1245.996, 21.96756
1246.478, 31.11494
1246.960, 33.91576
1247.442, 30.37976
1247.924, 24.34283
1248.406, 13.67305
1248.888, 6.396126
1249.370, 10.84293
1249.853, 19.03708
1250.335, 19.27415
1250.817, 12.05815
1251.299, 13.12322
1251.781, 22.62237
1252.263, 30.57428
1252.745, 30.37112
1253.227, 27.78072
1253.710, 24.98851
1254.192, 21.73219
1254.674, 16.44160
1255.156, 10.05376
1255.638, 11.24866
1256.120, 19.70651
1256.602, 25.66094
1257.084, 18.26141
1257.567, 14.95084
1258.049, 24.33690
1258.531, 36.41539
1259.013, 33.73044
1259.495, 21.98535
1259.977, 26.73381
1260.459, 47.54881
1260.941, 57.40163
1261.423, 28.93504
1261.906, 8.516907
1262.388, 7.383171
1262.870, 16.91743
1263.352, 28.63992
1263.834, 40.22008
1264.316, 45.27264
1264.798, 43.29691
1265.280, 38.64398
1265.762, 28.07730
1266.245, 22.69659
1266.727, 25.68524
1267.209, 31.87424
1267.691, 35.62120
1268.173, 37.11632
1268.655, 36.00890
1269.137, 32.44148
1269.619, 29.62260
1270.102, 27.06870
1270.584, 27.88379
1271.066, 33.94832
1271.548, 39.35545
1272.030, 35.14806
1272.512, 27.12155
1272.994, 20.75637
1273.476, 17.09708
1273.958, 19.10606
1274.441, 28.41936
1274.923, 35.06898
1275.405, 36.53105
1275.887, 36.15341
1276.369, 39.16270
1276.851, 40.66606
1277.333, 33.19983
1277.815, 19.04108
1278.297, 13.53912
1278.780, 17.10753
1279.262, 22.34651
1279.744, 28.39952
1280.226, 30.56989
1280.708, 19.06877
1281.190, 8.162735
1281.672, 10.10672
1282.154, 20.82550
1282.637, 26.32673
1283.119, 26.95021
1283.601, 25.88994
1284.083, 23.61395
1284.565, 21.45218
1285.047, 20.48489
1285.529, 19.47816
1286.011, 17.30048
1286.494, 14.95773
1286.976, 18.43207
1287.458, 24.55835
1287.940, 19.06580
1288.422, 3.427910
1288.904, 16.17429
1289.386, 2.874962
1289.868, 14.22237
1290.350, 29.48358
1290.833, 42.35544
1291.315, 53.66858
1291.797, 60.99605
1292.279, 56.84244
1292.761, 37.66719
1293.243, 27.88383
1293.725, 33.38983
1294.207, 39.28851
1294.689, 41.25914
1295.172, 39.94945
1295.654, 32.31067
1296.136, 23.66783
1296.618, 23.03848
1297.100, 32.72351
1297.582, 37.86398
1298.064, 38.42091
1298.546, 33.25728
1299.029, 19.15371
1299.511, 8.890793
1299.993, 12.46165
1300.475, 27.71590
1300.957, 32.19510
1301.439, 24.72990
1301.921, 16.30275
1302.403, 7.211502
1302.885, 8.733124
1303.368, 27.33394
1303.850, 41.96825
1304.332, 33.74553
1304.814, 21.24435
1305.296, 13.93599
1305.778, 14.47966
1306.260, 15.81969
1306.742, 15.99762
1307.224, 12.55968
1307.707, 3.681259
1308.189, 0.5556340
1308.671, 9.347610
1309.153, 17.77605
1309.635, 11.16483
1310.117, 3.029434
1310.599, 0.0000000E+00
##END=



