##NAMES=Grandviewite
##RRUFFID=R070667
##IDEAL CHEMISTRY=Cu^2+^_3_Al_9_(S^6+^O_4_)_2_(OH)_29_
##LOCALITY=Grand View mine, Coconino County, Arizona, USA
##OWNER=RRUFF
##SOURCE=George Stevens, Malcom Alter
##DESCRIPTION=Light blue sprays of fibrous crystals associated with blue cyanotrichite.
##STATUS=The identification of this mineral is not yet confirmed.
##URL=rruff.info/R070667
163.6682, 0.0000000E+00
164.1503, 38.74341
164.6324, 71.78955
165.1145, 87.35168
165.5966, 87.95789
166.0788, 78.09265
166.5609, 57.05640
167.0430, 28.14795
167.5251, 12.19299
168.0072, 11.40869
168.4893, 30.64929
168.9715, 52.34973
169.4536, 86.03870
169.9357, 109.8278
170.4178, 126.5117
170.8999, 132.8212
171.3820, 122.0814
171.8642, 74.68994
172.3463, 22.01477
172.8284, 4.726440
173.3105, 3.003540
173.7926, 5.530396
174.2747, 3.498413
174.7569, 2.403687
175.2390, 1.074829
175.7211, 27.64661
176.2032, 64.57715
176.6853, 85.73645
177.1674, 93.48560
177.6496, 95.63281
178.1317, 95.07715
178.6138, 97.93201
179.0959, 98.92346
179.5780, 92.60779
180.0602, 80.58740
180.5423, 75.29297
181.0244, 77.97168
181.5065, 84.46680
181.9886, 96.78223
182.4707, 111.3746
182.9529, 120.9879
183.4350, 116.8168
183.9171, 96.95740
184.3992, 81.22705
184.8813, 67.14587
185.3634, 60.22803
185.8456, 67.45496
186.3277, 87.13660
186.8098, 108.7202
187.2919, 120.8209
187.7740, 122.6648
188.2561, 115.2300
188.7383, 93.68213
189.2204, 67.78650
189.7025, 37.77759
190.1846, 5.916992
190.6667, 19.01538
191.1488, 21.50220
191.6310, 15.59985
192.1131, 47.78894
192.5952, 74.13708
193.0773, 95.78699
193.5594, 115.1860
194.0415, 132.9062
194.5237, 146.1281
195.0058, 150.9294
195.4879, 130.2668
195.9700, 106.6257
196.4521, 68.44885
196.9342, 30.93616
197.4164, 16.62866
197.8985, 36.20081
198.3806, 76.72034
198.8627, 93.64539
199.3448, 56.29077
199.8270, 28.33960
200.3091, 25.89941
200.7912, 41.51294
201.2733, 64.35046
201.7554, 91.62256
202.2375, 119.2686
202.7197, 125.6017
203.2018, 95.88672
203.6839, 65.13220
204.1660, 54.26465
204.6481, 59.05505
205.1302, 65.58643
205.6124, 66.85425
206.0945, 62.78333
206.5766, 62.24438
207.0587, 68.09399
207.5408, 75.17871
208.0229, 87.40491
208.5051, 103.7006
208.9872, 110.7717
209.4693, 95.66028
209.9514, 64.21912
210.4335, 44.86975
210.9156, 43.95532
211.3978, 52.01172
211.8799, 65.62744
212.3620, 85.04871
212.8441, 96.07800
213.3262, 78.72705
213.8083, 44.95325
214.2905, 27.88135
214.7726, 49.14673
215.2547, 83.12451
215.7368, 94.49927
216.2189, 77.90759
216.7010, 60.13599
217.1832, 67.74731
217.6653, 88.53577
218.1474, 99.40991
218.6295, 81.37573
219.1116, 50.89270
219.5937, 41.77295
220.0759, 62.97656
220.5580, 85.81372
221.0401, 91.22668
221.5222, 85.15527
222.0043, 77.05896
222.4864, 69.59900
222.9686, 63.48914
223.4507, 63.01770
223.9328, 75.84656
224.4149, 80.61304
224.8970, 54.96875
225.3791, 12.12170
225.8613, 16.85010
226.3434, 2.003906
226.8255, 47.13794
227.3076, 72.99158
227.7897, 57.99048
228.2718, 41.05615
228.7540, 45.81152
229.2361, 65.16724
229.7182, 79.79419
230.2003, 69.52344
230.6824, 36.10010
231.1645, 22.66650
231.6467, 53.93945
232.1288, 79.85742
232.6109, 73.45203
233.0930, 42.67456
233.5751, 11.52600
234.0572, 2.868042
234.5394, 0.3468020
235.0215, 13.44116
235.5036, 62.73047
235.9857, 101.1791
236.4678, 103.0842
236.9500, 75.43530
237.4321, 46.70239
237.9142, 46.76025
238.3963, 80.83362
238.8784, 94.02368
239.3605, 59.51514
239.8427, 25.72827
240.3248, 12.50476
240.8069, 17.55054
241.2890, 25.67114
241.7711, 18.59888
242.2532, 10.36682
242.7354, 13.36877
243.2175, 48.20996
243.6996, 102.4620
244.1817, 112.8943
244.6638, 84.14124
245.1459, 47.49841
245.6281, 36.62622
246.1102, 60.29993
246.5923, 66.57361
247.0744, 28.56616
247.5565, 2.627930
248.0386, 7.388672
248.5208, 48.34534
249.0029, 87.27979
249.4850, 84.93469
249.9671, 21.64001
250.4492, 5.991821
250.9313, 38.23328
251.4135, 82.53223
251.8956, 87.66479
252.3777, 55.86304
252.8598, 18.11121
253.3419, 8.681396
253.8240, 37.08069
254.3062, 54.76794
254.7883, 50.28711
255.2704, 47.03589
255.7525, 62.68896
256.2346, 93.36780
256.7167, 119.7061
257.1989, 120.3579
257.6810, 87.06470
258.1631, 61.56274
258.6452, 43.32666
259.1273, 31.40759
259.6094, 25.09229
260.0916, 24.44702
260.5737, 31.00037
261.0558, 47.95325
261.5379, 79.87354
262.0200, 98.43591
262.5021, 99.48340
262.9843, 94.26746
263.4664, 86.17603
263.9485, 76.64771
264.4306, 67.37354
264.9127, 59.59021
265.3948, 52.55884
265.8770, 52.09619
266.3591, 59.22803
266.8412, 69.92358
267.3233, 85.60022
267.8054, 103.9565
268.2875, 118.4824
268.7697, 123.0425
269.2518, 116.7260
269.7339, 104.5331
270.2160, 68.16724
270.6981, 42.95398
271.1802, 57.71765
271.6624, 104.3687
272.1445, 146.7729
272.6266, 151.3020
273.1087, 111.5038
273.5908, 86.46729
274.0729, 86.70593
274.5551, 88.36957
275.0372, 78.69995
275.5193, 59.68134
276.0014, 41.37378
276.4835, 32.29401
276.9656, 33.13495
277.4478, 34.34668
277.9299, 37.54517
278.4120, 39.50677
278.8941, 39.10822
279.3762, 36.30908
279.8583, 30.72723
280.3405, 21.25720
280.8226, 7.807922
281.3047, 3.454773
281.7868, 13.93280
282.2689, 25.82172
282.7510, 34.36243
283.2332, 40.07452
283.7153, 44.30542
284.1974, 50.87366
284.6795, 59.46564
285.1616, 70.40344
285.6437, 84.58716
286.1259, 99.60950
286.6080, 122.0704
287.0901, 145.0355
287.5722, 152.6915
288.0543, 133.4976
288.5364, 91.62109
289.0186, 62.11151
289.5007, 48.15350
289.9828, 42.06824
290.4649, 42.52002
290.9470, 49.77838
291.4291, 69.71466
291.9113, 107.9292
292.3934, 155.1498
292.8755, 160.9827
293.3576, 64.23358
293.8397, 3.083496
294.3218, 0.5272830
294.8040, 41.48444
295.2861, 71.36163
295.7682, 66.72321
296.2503, 38.42554
296.7325, 20.55322
297.2146, 22.18896
297.6967, 24.58368
298.1788, 27.37030
298.6609, 30.07965
299.1430, 32.51941
299.6252, 34.52631
300.1073, 34.38916
300.5894, 31.04492
301.0715, 20.11584
301.5536, 13.73328
302.0357, 12.34473
302.5179, 15.39874
303.0000, 26.47479
303.4821, 45.72003
303.9642, 63.39685
304.4463, 59.43457
304.9284, 3.245056
305.4106, 24.95935
305.8927, 3.270569
306.3748, 31.20813
306.8569, 49.03711
307.3390, 43.81586
307.8211, 29.34808
308.3033, 25.10535
308.7854, 39.49097
309.2675, 48.35913
309.7496, 53.91956
310.2317, 53.35291
310.7138, 41.14496
311.1960, 18.86884
311.6781, 4.324951
312.1602, 18.98181
312.6423, 24.37817
313.1244, 23.12146
313.6065, 9.095703
314.0887, 5.293030
314.5708, 12.33582
315.0529, 13.52197
315.5350, 17.26520
316.0171, 34.04950
316.4992, 66.89874
316.9814, 77.37671
317.4635, 36.42090
317.9456, 1.267456
318.4277, 4.942261
318.9098, 10.41791
319.3919, 26.40045
319.8741, 26.38812
320.3562, 12.15833
320.8383, 11.74335
321.3204, 51.74231
321.8025, 76.66675
322.2846, 54.75031
322.7668, 12.70575
323.2489, 3.463501
323.7310, 37.90161
324.2131, 117.2005
324.6952, 153.0870
325.1773, 115.0011
325.6595, 76.01276
326.1416, 49.38715
326.6237, 31.74628
327.1058, 19.03510
327.5879, 9.672363
328.0700, 3.804504
328.5522, 0.9392090
329.0343, 1.449402
329.5164, 5.683716
329.9985, 34.82635
330.4806, 67.10010
330.9627, 85.62952
331.4449, 85.39331
331.9270, 76.58594
332.4091, 75.76422
332.8912, 87.81042
333.3733, 87.06329
333.8554, 44.05804
334.3376, 3.535645
334.8197, 0.1864620
335.3018, 36.39642
335.7839, 76.28662
336.2660, 80.97241
336.7481, 49.24573
337.2303, 22.63879
337.7124, 4.407410
338.1945, 5.316040
338.6766, 3.009888
339.1587, 9.135498
339.6408, 19.66003
340.1230, 17.03088
340.6051, 4.496948
341.0872, 6.9824003E-02
341.5693, 7.429626
342.0514, 18.98022
342.5335, 31.52380
343.0157, 44.24860
343.4978, 54.85461
343.9799, 61.09070
344.4620, 64.73242
344.9441, 70.85907
345.4262, 81.42505
345.9084, 87.92822
346.3905, 78.51666
346.8726, 62.06396
347.3547, 53.50446
347.8368, 64.53668
348.3189, 77.92651
348.8011, 69.85156
349.2832, 39.72675
349.7653, 16.02307
350.2474, 16.24579
350.7295, 30.78461
351.2116, 40.38123
351.6938, 44.16138
352.1759, 42.24872
352.6580, 28.45209
353.1401, 6.445679
353.6222, 6.031006
354.1043, 0.8061520
354.5865, 15.02734
355.0686, 29.98352
355.5507, 45.25049
356.0328, 56.27405
356.5149, 57.80988
356.9970, 54.76630
357.4792, 58.20587
357.9613, 72.55542
358.4434, 84.93909
358.9255, 73.48712
359.4076, 30.56061
359.8897, 6.819336
360.3719, 22.55292
360.8540, 51.14172
361.3361, 57.32269
361.8182, 72.62122
362.3003, 81.21112
362.7824, 83.30536
363.2646, 58.43817
363.7467, 67.70581
364.2288, 64.28119
364.7109, 60.29358
365.1930, 74.52783
365.6751, 55.08221
366.1573, 68.99402
366.6394, 69.61731
367.1215, 76.33618
367.6036, 69.85181
368.0857, 67.50690
368.5678, 80.50073
369.0500, 85.71582
369.5321, 77.29462
370.0142, 83.06201
370.4963, 61.49811
370.9784, 63.70264
371.4605, 77.00952
371.9427, 69.55127
372.4248, 76.80688
372.9069, 78.47516
373.3890, 54.73877
373.8711, 75.26459
374.3532, 76.67145
374.8354, 58.44751
375.3175, 77.45490
375.7996, 61.81097
376.2817, 58.20709
376.7638, 64.20538
377.2459, 60.60126
377.7281, 72.23987
378.2102, 69.13483
378.6923, 64.71558
379.1744, 66.09174
379.6566, 51.34534
380.1387, 66.85754
380.6208, 61.48035
381.1029, 66.10669
381.5850, 73.32971
382.0671, 41.03198
382.5493, 51.68921
383.0314, 49.22546
383.5135, 46.22168
383.9956, 61.48413
384.4777, 43.08655
384.9598, 58.02716
385.4420, 59.79309
385.9241, 68.03912
386.4062, 62.53503
386.8883, 62.70331
387.3704, 74.44269
387.8525, 78.95349
388.3347, 71.97235
388.8168, 80.91980
389.2989, 62.05164
389.7810, 66.86938
390.2631, 82.10742
390.7452, 75.78503
391.2274, 85.79779
391.7095, 88.56647
392.1916, 65.82947
392.6737, 87.28119
393.1558, 89.71631
393.6379, 96.61041
394.1201, 94.30566
394.6022, 72.78607
395.0843, 61.37036
395.5664, 75.11523
396.0485, 91.87201
396.5306, 89.71405
397.0128, 70.90863
397.4949, 58.11462
397.9770, 55.41156
398.4591, 73.09979
398.9412, 83.85266
399.4233, 86.14557
399.9055, 58.56256
400.3876, 69.66968
400.8697, 65.25024
401.3518, 60.19611
401.8339, 76.72913
402.3160, 53.50409
402.7982, 69.66388
403.2803, 70.10083
403.7624, 77.73291
404.2445, 69.78198
404.7266, 66.64319
405.2087, 80.67871
405.6909, 84.49292
406.1730, 74.74518
406.6551, 82.82855
407.1372, 59.04980
407.6193, 63.21478
408.1014, 79.44214
408.5836, 72.24469
409.0657, 81.37372
409.5478, 83.63678
410.0299, 69.10620
410.5120, 81.06952
410.9941, 96.93311
411.4763, 103.7334
411.9584, 99.74286
412.4405, 93.16321
412.9226, 84.08777
413.4047, 74.86145
413.8868, 67.90515
414.3690, 63.92883
414.8511, 62.29730
415.3332, 62.58557
415.8153, 64.82861
416.2974, 67.74359
416.7795, 69.98047
417.2617, 74.07062
417.7438, 85.19232
418.2259, 102.7585
418.7080, 113.2538
419.1901, 107.4309
419.6722, 89.76459
420.1544, 66.52209
420.6365, 36.00897
421.1186, 11.11938
421.6007, 2.247620
422.0828, 8.106750
422.5649, 22.34119
423.0471, 60.78424
423.5292, 93.46857
424.0113, 96.42078
424.4934, 74.06384
424.9755, 42.40155
425.4576, 3.352966
425.9398, 31.79242
426.4219, 25.26483
426.9040, 58.69250
427.3861, 122.0624
427.8682, 140.2779
428.3503, 133.1412
428.8325, 119.8802
429.3146, 106.1732
429.7967, 91.76227
430.2788, 75.48859
430.7609, 53.75696
431.2430, 43.91241
431.7252, 56.31677
432.2073, 68.46490
432.6894, 67.40680
433.1715, 56.67657
433.6536, 47.51080
434.1357, 47.73865
434.6179, 55.96069
435.1000, 66.50574
435.5821, 91.71655
436.0642, 98.57556
436.5463, 53.59180
437.0284, 1.886536
437.5106, 0.8474120
437.9927, 64.47455
438.4748, 142.4656
438.9569, 153.6439
439.4390, 92.59613
439.9211, 50.31641
440.4033, 55.32605
440.8854, 69.57446
441.3675, 63.41882
441.8496, 39.02716
442.3317, 16.07214
442.8138, 0.3883670
443.2960, 6.126221
443.7781, 3.418152
444.2602, 23.85095
444.7423, 45.11072
445.2244, 83.89233
445.7065, 94.11505
446.1887, 9.753357
446.6708, 33.69397
447.1529, 18.09955
447.6350, 8.7158002E-02
448.1171, 64.26904
448.5992, 23.01593
449.0814, 39.84644
449.5635, 42.76569
450.0456, 73.11816
450.5277, 44.06427
451.0098, 33.35822
451.4919, 82.07574
451.9741, 97.88916
452.4562, 61.99249
452.9383, 94.08411
453.4204, 4.704224
453.9025, 21.92328
454.3846, 85.13367
454.8668, 52.22955
455.3489, 85.41248
455.8310, 93.42578
456.3131, 12.94812
456.7952, 79.60126
457.2773, 86.13104
457.7595, 4.326721
458.2416, 90.06836
458.7237, 20.44019
459.2058, 6.268311
459.6879, 33.83063
460.1700, 17.88477
460.6522, 70.53271
461.1343, 57.09814
461.6164, 37.75787
462.0985, 44.18274
462.5807, 22.40527
463.0628, 46.44562
463.5449, 22.76923
464.0270, 45.08478
464.5091, 77.82776
464.9912, 30.74695
465.4734, 68.17279
465.9555, 25.45258
466.4376, 9.439331
466.9197, 5.241333
467.4018, 69.03973
467.8839, 23.97601
468.3661, 11.03809
468.8482, 47.01233
469.3303, 41.92883
469.8124, 63.24207
470.2945, 6.411072
470.7766, 22.98944
471.2588, 39.00708
471.7409, 55.89191
472.2230, 78.78601
472.7051, 103.0436
473.1872, 114.8495
473.6693, 100.0330
474.1515, 62.66589
474.6336, 51.71039
475.1157, 102.1743
475.5978, 137.2188
476.0799, 138.8038
476.5620, 121.1454
477.0442, 95.50146
477.5263, 65.91595
478.0084, 42.42108
478.4905, 43.80780
478.9726, 73.76343
479.4547, 90.03760
479.9369, 77.50281
480.4190, 61.26666
480.9011, 55.38110
481.3832, 59.20703
481.8653, 69.01965
482.3474, 86.50580
482.8296, 107.4677
483.3117, 129.5082
483.7938, 150.9030
484.2759, 157.8810
484.7580, 136.6406
485.2401, 98.59222
485.7223, 77.27777
486.2044, 79.46399
486.6865, 83.54822
487.1686, 83.76727
487.6507, 80.98712
488.1328, 71.53278
488.6150, 55.62134
489.0971, 49.55969
489.5792, 75.67908
490.0613, 143.1774
490.5434, 175.6665
491.0255, 143.2435
491.5077, 113.2375
491.9898, 116.4994
492.4719, 138.9223
492.9540, 153.2870
493.4361, 145.6097
493.9182, 126.0746
494.4004, 118.7183
494.8825, 131.5765
495.3646, 133.1053
495.8467, 102.9503
496.3288, 72.77301
496.8109, 63.02856
497.2931, 73.21625
497.7752, 88.28101
498.2573, 100.2709
498.7394, 108.7910
499.2215, 111.0192
499.7036, 105.6955
500.1858, 99.67169
500.6679, 95.21240
501.1500, 92.85138
501.6321, 94.65283
502.1142, 97.93781
502.5963, 107.4785
503.0785, 131.2304
503.5606, 158.3138
504.0427, 166.6259
504.5248, 151.8800
505.0069, 124.4050
505.4890, 91.10376
505.9712, 48.13721
506.4533, 26.85107
506.9354, 41.92847
507.4175, 66.09338
507.8996, 96.10199
508.3817, 125.4741
508.8639, 143.9898
509.3460, 146.1281
509.8281, 135.3959
510.3102, 116.6744
510.7923, 80.01575
511.2744, 63.46454
511.7566, 94.58759
512.2387, 128.2444
512.7208, 132.9996
513.2029, 110.0663
513.6851, 85.90369
514.1672, 80.52417
514.6493, 89.63416
515.1314, 89.33752
515.6135, 80.10437
516.0956, 71.81720
516.5778, 68.84436
517.0599, 70.90637
517.5420, 76.45752
518.0241, 85.70526
518.5062, 97.85956
518.9883, 118.9293
519.4705, 140.7778
519.9526, 149.6528
520.4347, 141.0295
520.9168, 124.7498
521.3989, 103.0057
521.8810, 72.32062
522.3632, 69.61523
522.8453, 126.1572
523.3274, 173.0148
523.8095, 178.6188
524.2916, 161.7850
524.7737, 148.3032
525.2559, 149.9871
525.7380, 156.1396
526.2201, 153.1053
526.7022, 137.5170
527.1843, 128.5406
527.6664, 135.6813
528.1486, 143.0371
528.6307, 142.2917
529.1128, 133.9026
529.5949, 120.9775
530.0770, 98.29486
530.5591, 75.82861
531.0413, 69.15259
531.5234, 77.82660
532.0055, 91.64972
532.4876, 109.4958
532.9697, 126.6732
533.4518, 131.9426
533.9340, 121.9031
534.4161, 112.8967
534.8982, 104.8596
535.3803, 101.2594
535.8624, 111.0355
536.3445, 131.0447
536.8267, 142.7165
537.3088, 129.7518
537.7909, 96.30859
538.2730, 78.20264
538.7551, 94.56885
539.2372, 99.69141
539.7194, 75.34113
540.2015, 44.09515
540.6836, 27.34045
541.1657, 29.36426
541.6478, 39.07880
542.1299, 50.63531
542.6121, 62.37012
543.0942, 58.83624
543.5763, 31.12555
544.0584, 7.863220
544.5405, 11.49615
545.0226, 31.97345
545.5048, 50.50293
545.9869, 66.24371
546.4690, 77.06073
546.9511, 82.73724
547.4332, 82.52991
547.9153, 72.22900
548.3975, 50.42633
548.8796, 27.23901
549.3617, 14.11029
549.8438, 12.09674
550.3259, 14.59259
550.8080, 25.99371
551.2902, 36.43555
551.7723, 40.55017
552.2544, 41.70502
552.7365, 48.10083
553.2186, 63.66956
553.7007, 77.60291
554.1829, 64.21246
554.6650, 15.60767
555.1471, 7.517578
555.6292, 20.37549
556.1113, 53.84601
556.5934, 64.14960
557.0756, 55.66650
557.5577, 43.54456
558.0398, 27.25793
558.5219, 14.78455
559.0040, 16.12317
559.4861, 29.23334
559.9683, 46.75220
560.4504, 69.03723
560.9325, 85.06360
561.4146, 72.59808
561.8967, 9.550476
562.3788, 18.63690
562.8610, 21.55310
563.3431, 67.64221
563.8252, 78.01068
564.3073, 62.42352
564.7894, 54.08759
565.2715, 73.22284
565.7537, 105.7573
566.2358, 117.2710
566.7179, 103.7700
567.2000, 80.88123
567.6821, 31.42969
568.1642, 10.75183
568.6464, 20.76025
569.1285, 2.116394
569.6106, 20.04468
570.0927, 42.21387
570.5748, 55.46130
571.0569, 33.68201
571.5391, 19.43463
572.0212, 43.64954
572.5033, 3.457886
572.9854, 67.30939
573.4675, 99.85809
573.9496, 81.32013
574.4318, 63.22778
574.9139, 40.52979
575.3960, 25.35626
575.8781, 35.39496
576.3602, 63.62268
576.8423, 87.41327
577.3245, 92.01300
577.8066, 80.16205
578.2887, 58.17133
578.7708, 14.61737
579.2529, 11.09839
579.7350, 2.257813
580.2172, 19.89752
580.6993, 50.36084
581.1814, 85.19019
581.6635, 106.7743
582.1456, 96.42010
582.6277, 71.04132
583.1099, 56.99664
583.5920, 54.04596
584.0741, 48.41821
584.5562, 28.93042
585.0383, 9.651611
585.5204, 26.06573
586.0026, 105.7530
586.4847, 152.4612
586.9668, 129.6484
587.4489, 93.89636
587.9310, 89.75720
588.4131, 110.7440
588.8953, 124.2289
589.3774, 108.1657
589.8595, 73.29346
590.3416, 51.89325
590.8237, 48.27008
591.3058, 45.43488
591.7880, 34.55042
592.2701, 28.20581
592.7522, 41.97870
593.2343, 72.03564
593.7164, 89.98260
594.1985, 66.35748
594.6807, 33.29919
595.1628, 38.68433
595.6449, 76.95361
596.1270, 104.3998
596.6091, 101.6668
597.0912, 79.63635
597.5734, 56.80780
598.0555, 24.30994
598.5376, 13.53271
599.0197, 46.07922
599.5018, 80.50549
599.9839, 93.15833
600.4661, 87.39685
600.9482, 74.65692
601.4303, 60.00562
601.9124, 47.61786
602.3945, 50.01270
602.8766, 71.79712
603.3588, 77.71100
603.8409, 43.81256
604.3230, 13.51367
604.8051, 29.97412
605.2872, 81.73730
605.7693, 115.8818
606.2515, 108.1866
606.7336, 84.14966
607.2157, 56.20868
607.6978, 28.31122
608.1799, 12.72412
608.6620, 15.02783
609.1442, 24.56360
609.6263, 22.80750
610.1084, 7.954773
610.5905, 1.976074
611.0726, 12.16943
611.5547, 12.33893
612.0369, 7.250122
612.5190, 37.50928
613.0011, 66.56378
613.4832, 91.26868
613.9653, 106.4379
614.4474, 101.3273
614.9296, 78.60809
615.4117, 61.57874
615.8938, 54.27972
616.3759, 49.73895
616.8580, 41.20428
617.3401, 31.11078
617.8223, 29.34131
618.3044, 46.99487
618.7865, 60.26953
619.2686, 56.95068
619.7507, 45.69586
620.2328, 33.79761
620.7150, 26.17981
621.1971, 27.60126
621.6792, 46.34076
622.1613, 80.52625
622.6434, 98.32471
623.1255, 91.37201
623.6077, 81.53461
624.0898, 72.82410
624.5719, 65.14447
625.0540, 58.94586
625.5361, 54.24701
626.0182, 48.08282
626.5004, 37.13910
626.9825, 25.79028
627.4646, 17.39313
627.9467, 12.09003
628.4288, 9.478943
628.9109, 8.821716
629.3931, 10.52283
629.8752, 18.34192
630.3573, 54.93628
630.8394, 67.18402
631.3215, 26.82910
631.8036, 13.50769
632.2858, 13.31299
632.7679, 16.18634
633.2500, 36.36542
633.7321, 22.69275
634.2142, 4.499268
634.6964, 4.338623
635.1785, 24.66364
635.6606, 52.17456
636.1427, 74.05408
636.6248, 89.69073
637.1069, 101.4266
637.5891, 110.1490
638.0712, 109.1846
638.5533, 85.44708
639.0354, 64.18542
639.5175, 61.18097
639.9996, 69.38763
640.4818, 77.48102
640.9639, 81.99719
641.4460, 84.32587
641.9281, 86.80316
642.4102, 89.70618
642.8923, 85.11475
643.3745, 69.57025
643.8566, 51.36060
644.3387, 23.75244
644.8208, 0.1722410
645.3029, 4.110901
645.7850, 15.55731
646.2672, 42.83472
646.7493, 80.83386
647.2314, 114.5168
647.7135, 109.9538
648.1956, 68.39471
648.6777, 32.77216
649.1599, 29.23590
649.6420, 46.15619
650.1241, 51.78204
650.6062, 31.48663
651.0883, 19.43561
651.5704, 24.15674
652.0526, 32.02515
652.5347, 36.07013
653.0168, 35.88300
653.4989, 36.27960
653.9810, 40.54340
654.4631, 44.03674
654.9453, 37.01727
655.4274, 20.72900
655.9095, 10.26154
656.3916, 7.844360
656.8737, 14.33893
657.3558, 35.14984
657.8380, 69.07104
658.3201, 89.41937
658.8022, 82.95605
659.2843, 78.55988
659.7664, 94.73193
660.2485, 113.7853
660.7307, 111.8098
661.2128, 85.97937
661.6949, 54.25818
662.1770, 32.08221
662.6591, 18.73541
663.1412, 9.618469
663.6234, 4.482483
664.1055, 4.687439
664.5876, 18.34265
665.0697, 31.80798
665.5518, 23.46436
666.0339, 9.278137
666.5161, 24.36212
666.9982, 8.321350
667.4803, 49.11841
667.9625, 68.40576
668.4446, 67.96497
668.9267, 53.65698
669.4088, 28.65320
669.8909, 4.942688
670.3730, 2.514221
670.8552, 27.84515
671.3373, 41.28442
671.8194, 34.28491
672.3015, 27.02460
672.7836, 22.45868
673.2657, 21.69214
673.7479, 34.97693
674.2300, 69.99274
674.7121, 94.18073
675.1942, 74.28546
675.6763, 35.69739
676.1584, 21.37732
676.6406, 34.01740
677.1227, 47.07623
677.6048, 44.58600
678.0869, 31.65881
678.5690, 24.53436
679.0511, 22.13000
679.5333, 27.66064
680.0154, 55.73370
680.4975, 77.65125
680.9796, 68.07111
681.4617, 38.95129
681.9438, 28.53741
682.4260, 60.74237
682.9081, 101.2753
683.3902, 114.6540
683.8723, 106.0416
684.3544, 89.83392
684.8365, 68.11237
685.3187, 49.06458
685.8008, 39.69708
686.2829, 39.51611
686.7650, 43.33990
687.2471, 55.61993
687.7292, 66.16534
688.2114, 75.31537
688.6935, 81.77161
689.1756, 81.81726
689.6577, 76.04700
690.1398, 70.30872
690.6219, 70.34082
691.1041, 70.59821
691.5862, 61.98126
692.0683, 44.81494
692.5504, 24.31244
693.0325, 1.429138
693.5146, 18.15875
693.9968, 4.515259
694.4789, 44.02496
694.9610, 66.84296
695.4431, 43.40039
695.9252, 21.30969
696.4073, 7.826416
696.8895, 6.260498
697.3716, 28.88239
697.8537, 72.68628
698.3358, 105.7300
698.8179, 87.95148
699.3000, 41.95685
699.7822, 38.87195
700.2643, 81.20288
700.7464, 110.7695
701.2285, 104.3772
701.7106, 78.64099
702.1927, 55.11517
702.6749, 32.90033
703.1570, 18.00323
703.6391, 16.29077
704.1212, 16.31708
704.6033, 11.53949
705.0854, 6.203613
705.5676, 9.980286
706.0497, 24.33545
706.5318, 34.71222
707.0139, 17.53485
707.4960, 17.52350
707.9781, 23.32916
708.4603, 5.264709
708.9424, 26.46313
709.4245, 15.39655
709.9066, 6.104614
710.3887, 3.653870
710.8708, 55.23785
711.3530, 94.77808
711.8351, 118.0842
712.3172, 129.5441
712.7993, 127.1337
713.2814, 115.8502
713.7635, 99.73242
714.2457, 80.59949
714.7278, 69.01172
715.2099, 87.42822
715.6920, 126.7336
716.1741, 130.8585
716.6563, 91.69440
717.1384, 55.53497
717.6205, 46.61334
718.1026, 53.80756
718.5847, 53.41443
719.0668, 38.98114
719.5490, 37.62659
720.0311, 68.55066
720.5132, 96.43372
720.9953, 98.12537
721.4774, 82.85901
721.9595, 67.05579
722.4417, 57.01062
722.9238, 54.56238
723.4059, 65.20880
723.8880, 85.47766
724.3701, 103.1236
724.8522, 121.8210
725.3344, 127.6043
725.8165, 110.2033
726.2986, 79.16632
726.7807, 55.04578
727.2628, 37.34204
727.7449, 27.15454
728.2271, 35.97180
728.7092, 41.02765
729.1913, 18.89972
729.6734, 13.32812
730.1555, 22.02661
730.6376, 5.530334
731.1198, 44.29565
731.6019, 73.40759
732.0840, 91.17230
732.5661, 83.45398
733.0482, 46.39246
733.5303, 24.70581
734.0125, 6.292175
734.4946, 62.27600
734.9767, 100.6639
735.4588, 110.4926
735.9409, 6.229980
736.4230, 49.29004
736.9052, 33.30780
737.3873, 14.90332
737.8694, 78.69458
738.3515, 8.980042
738.8336, 53.49921
739.3157, 56.03607
739.7979, 86.00562
740.2800, 56.56812
740.7621, 45.47845
741.2442, 93.81152
741.7263, 109.2405
742.2084, 72.95905
742.6906, 104.6656
743.1727, 14.89789
743.6548, 31.72186
744.1369, 94.53656
744.6190, 61.23700
745.1011, 94.02234
745.5833, 101.6401
746.0654, 5.130249
746.5475, 87.02252
747.0296, 93.14307
747.5117, 10.93298
747.9938, 96.27289
748.4760, 10.87842
748.9581, 10.43750
749.4402, 33.53589
749.9223, 53.87842
750.4044, 60.02966
750.8865, 56.85236
751.3687, 51.07397
751.8508, 43.80353
752.3329, 41.46899
752.8150, 50.88062
753.2971, 55.80273
753.7792, 43.99432
754.2614, 29.30249
754.7435, 30.14209
755.2256, 49.51208
755.7077, 65.44684
756.1898, 68.61646
756.6719, 62.42297
757.1541, 43.00433
757.6362, 17.18060
758.1183, 3.186584
758.6004, 7.865112
759.0825, 22.06024
759.5646, 35.28479
760.0468, 48.05505
760.5289, 66.77539
761.0110, 97.32599
761.4931, 119.8225
761.9752, 130.6117
762.4573, 127.7796
762.9395, 102.1727
763.4216, 53.79791
763.9037, 24.22308
764.3858, 41.72778
764.8679, 62.17572
765.3500, 51.16473
765.8322, 25.74451
766.3143, 21.17596
766.7964, 40.77515
767.2785, 60.04517
767.7606, 53.49567
768.2427, 32.05542
768.7249, 31.45203
769.2070, 53.86218
769.6891, 70.40118
770.1712, 74.05286
770.6533, 68.02509
771.1354, 50.02307
771.6176, 20.69574
772.0997, 12.52716
772.5818, 52.23785
773.0639, 77.30444
773.5460, 54.38843
774.0281, 24.72382
774.5103, 32.50787
774.9924, 71.96448
775.4745, 100.5807
775.9566, 89.03290
776.4387, 62.84662
776.9208, 57.92889
777.4030, 68.12091
777.8851, 66.97961
778.3672, 49.10004
778.8493, 35.73712
779.3314, 45.44788
779.8135, 71.00061
780.2957, 57.00494
780.7778, 83.60895
781.2599, 98.13855
781.7420, 101.2483
782.2241, 59.50659
782.7062, 76.35730
783.1884, 69.14642
783.6705, 60.96704
784.1526, 85.66431
784.6347, 50.23883
785.1168, 74.41217
785.5989, 74.60706
786.0811, 85.77362
786.5632, 73.24548
787.0453, 67.98608
787.5274, 85.50122
788.0095, 89.32397
788.4916, 73.92889
788.9738, 86.21472
789.4559, 49.48053
789.9380, 55.38263
790.4201, 79.67963
790.9022, 65.52930
791.3843, 77.81348
791.8665, 79.47412
792.3486, 35.93256
792.8307, 71.96179
793.3128, 73.57947
793.7949, 39.80865
794.2770, 73.10864
794.7592, 29.24719
795.2413, 31.83691
795.7234, 59.45575
796.2055, 83.94897
796.6876, 76.81903
797.1697, 51.97894
797.6519, 45.15161
798.1340, 54.34210
798.6161, 54.23309
799.0982, 34.48096
799.5803, 19.04651
800.0624, 39.11963
800.5446, 93.91669
801.0267, 118.5959
801.5088, 88.20361
801.9909, 65.75690
802.4730, 66.40399
802.9551, 73.18115
803.4373, 73.76648
803.9194, 68.13513
804.4015, 61.27295
804.8836, 49.89551
805.3657, 43.23035
805.8478, 53.65747
806.3300, 69.35132
806.8121, 74.63232
807.2942, 67.83020
807.7763, 52.26697
808.2584, 28.69336
808.7405, 4.419800
809.2227, 4.046875
809.7048, 3.657227
810.1869, 13.75525
810.6690, 27.38391
811.1511, 36.76794
811.6332, 34.91479
812.1154, 26.59155
812.5975, 22.34595
813.0796, 22.60925
813.5617, 25.56409
814.0438, 40.16895
814.5259, 47.78320
815.0081, 31.60034
815.4902, 5.872070
815.9723, 8.829651
816.4544, 7.225342
816.9365, 2.577271
817.4186, 19.33545
817.9008, 37.76147
818.3829, 52.22607
818.8650, 61.59546
819.3471, 61.12463
819.8292, 49.57471
820.3113, 33.38806
820.7935, 17.84058
821.2756, 3.637573
821.7577, 10.46973
822.2398, 30.44122
822.7219, 32.69818
823.2040, 0.9119870
823.6862, 38.27209
824.1683, 63.37891
824.6504, 76.63574
825.1325, 87.21997
825.6146, 97.06958
826.0967, 103.3052
826.5789, 102.4204
827.0610, 100.5424
827.5431, 105.7450
828.0252, 114.7302
828.5073, 116.6361
828.9894, 105.8127
829.4716, 89.63721
829.9537, 71.28357
830.4358, 55.19128
830.9180, 59.09961
831.4001, 83.19348
831.8822, 100.4861
832.3643, 98.36340
832.8464, 83.40820
833.3286, 65.22583
833.8107, 41.38599
834.2928, 30.07202
834.7749, 39.48755
835.2570, 48.22180
835.7391, 47.10681
836.2213, 43.31653
836.7034, 44.78784
837.1855, 51.58191
837.6676, 54.66760
838.1497, 53.85413
838.6318, 46.59717
839.1140, 18.96704
839.5961, 8.572266
840.0782, 3.212891
840.5603, 31.55908
841.0424, 58.30103
841.5245, 49.35657
842.0067, 3.639282
842.4888, 35.42761
842.9709, 57.39209
843.4530, 63.17236
843.9351, 4.300293
844.4172, 28.91028
844.8994, 20.06213
845.3815, 9.845093
845.8636, 46.21228
846.3457, 3.252563
846.8278, 32.37061
847.3099, 34.02344
847.7921, 51.22229
848.2742, 34.75671
848.7563, 28.68701
849.2384, 56.29114
849.7205, 65.24963
850.2026, 44.90698
850.6848, 63.47302
851.1669, 12.81921
851.6490, 22.56824
852.1311, 58.37708
852.6132, 39.72095
853.0953, 58.51367
853.5775, 63.04224
854.0596, 2.753784
854.5417, 55.18958
855.0238, 58.87402
855.5059, 12.50146
855.9880, 61.07080
856.4702, 21.59705
856.9523, 13.54822
857.4344, 29.14844
857.9165, 20.09241
858.3986, 49.90649
858.8807, 42.33289
859.3629, 31.76721
859.8450, 35.38611
860.3271, 2.370117
860.8092, 36.62646
861.2913, 23.19092
861.7734, 35.81860
862.2556, 54.35315
862.7377, 27.65393
863.2198, 41.65845
863.7019, 61.60229
864.1840, 80.75024
864.6661, 93.31445
865.1483, 89.18164
865.6304, 69.44897
866.1125, 51.81152
866.5946, 52.36194
867.0767, 55.58716
867.5588, 33.26868
868.0410, 0.4847410
868.5231, 2.963867
869.0052, 30.51379
869.4873, 66.49744
869.9694, 82.13245
870.4515, 83.71924
870.9337, 84.25464
871.4158, 82.96826
871.8979, 71.70374
872.3800, 41.29224
872.8621, 25.20361
873.3442, 51.40332
873.8264, 92.88794
874.3085, 98.99890
874.7906, 55.51636
875.2727, 30.06897
875.7548, 41.48218
876.2369, 47.85034
876.7191, 25.98792
877.2012, 1.046265
877.6833, 6.903931
878.1654, 8.730347
878.6475, 23.60388
879.1296, 27.65271
879.6118, 27.06299
880.0939, 22.39478
880.5760, 19.10120
881.0581, 32.83459
881.5402, 55.26941
882.0223, 60.43567
882.5045, 30.86047
882.9866, 5.842041
883.4687, 2.0142000E-02
883.9508, 39.33997
884.4329, 59.42188
884.9150, 56.43140
885.3972, 47.00537
885.8793, 36.83740
886.3614, 29.42493
886.8435, 31.62097
887.3256, 44.99573
887.8077, 43.97729
888.2899, 11.42773
888.7720, 4.154419
889.2541, 23.52014
889.7362, 59.37158
890.2183, 78.27258
890.7004, 81.32446
891.1826, 74.95837
891.6647, 47.47888
892.1468, 29.54639
892.6289, 37.96997
893.1110, 51.76440
893.5931, 54.73511
894.0753, 49.65454
894.5574, 46.07312
895.0395, 47.39673
895.5216, 48.26025
896.0037, 44.26685
896.4858, 37.22461
896.9680, 25.31641
897.4501, 11.94153
897.9322, 13.39319
898.4143, 33.02417
898.8964, 53.41443
899.3785, 57.30872
899.8607, 49.27747
900.3428, 47.48242
900.8249, 51.67273
901.3070, 55.90417
901.7891, 59.15125
902.2712, 62.61731
902.7534, 68.52673
903.2355, 73.63623
903.7176, 67.32031
904.1997, 38.10498
904.6818, 25.80774
905.1639, 47.48694
905.6461, 63.93152
906.1282, 59.49939
906.6103, 44.00476
907.0924, 24.52344
907.5745, 1.741821
908.0566, 7.633545
908.5388, 12.97913
909.0209, 32.58167
909.5030, 35.16626
909.9851, 31.36230
910.4672, 31.44897
910.9493, 36.29602
911.4315, 42.95593
911.9136, 50.38745
912.3957, 57.62219
912.8778, 63.18274
913.3599, 67.81458
913.8420, 76.84424
914.3242, 86.79749
914.8063, 80.85339
915.2884, 52.61682
915.7705, 19.30005
916.2526, 1.393188
916.7347, 8.866455
917.2169, 4.719238
917.6990, 40.30249
918.1811, 67.12097
918.6632, 78.62183
919.1453, 79.79053
919.6274, 73.68921
920.1096, 62.04065
920.5917, 52.50903
921.0738, 46.23755
921.5559, 38.86609
922.0380, 26.39050
922.5201, 18.00085
923.0023, 22.38806
923.4844, 31.58850
923.9665, 32.34058
924.4486, 22.11829
924.9307, 19.55188
925.4128, 40.73584
925.8950, 53.17395
926.3771, 38.47546
926.8592, 14.09143
927.3413, 9.293457
927.8234, 26.54980
928.3055, 26.95715
928.7877, 0.1417240
929.2698, 31.65454
929.7519, 62.76123
930.2340, 82.76501
930.7161, 69.91284
931.1982, 34.97620
931.6804, 9.331177
932.1625, 5.012085
932.6446, 12.92993
933.1267, 31.75464
933.6088, 52.61682
934.0909, 49.02332
934.5731, 25.42627
935.0552, 4.739746
935.5373, 7.523682
936.0194, 4.973267
936.5015, 20.00879
936.9836, 53.75488
937.4658, 48.49402
937.9479, 3.828491
938.4300, 22.79980
938.9121, 7.731445
939.3942, 37.51379
939.8763, 42.68091
940.3585, 33.46826
940.8406, 24.68921
941.3227, 17.03467
941.8048, 11.67163
942.2869, 9.523926
942.7690, 8.075806
943.2512, 0.3254390
943.7333, 1.233765
944.2154, 21.64062
944.6975, 59.02246
945.1796, 75.40271
945.6617, 54.33179
946.1439, 35.61047
946.6260, 30.00659
947.1081, 29.32581
947.5902, 28.17517
948.0723, 27.43298
948.5544, 30.37354
949.0366, 37.23071
949.5187, 41.58081
950.0008, 36.32861
950.4829, 30.40320
950.9650, 28.11365
951.4471, 32.22961
951.9293, 52.44653
952.4114, 84.64185
952.8935, 107.7992
953.3756, 109.4111
953.8577, 106.1888
954.3398, 128.6345
954.8220, 160.3228
955.3041, 144.3347
955.7862, 89.85181
956.2683, 75.89685
956.7504, 129.0234
957.2325, 189.9801
957.7147, 195.4264
958.1968, 160.2096
958.6789, 142.2516
959.1610, 141.8512
959.6431, 154.7430
960.1252, 182.7227
960.6074, 213.4891
961.0895, 241.6884
961.5716, 264.6293
962.0537, 275.2131
962.5358, 269.5376
963.0179, 273.5228
963.5001, 292.7109
963.9822, 310.7981
964.4643, 325.7749
964.9464, 335.0702
965.4285, 331.0074
965.9106, 316.1583
966.3928, 316.3151
966.8749, 348.3076
967.3570, 369.0292
967.8391, 371.8113
968.3212, 366.2545
968.8033, 353.8672
969.2855, 338.0360
969.7676, 321.4709
970.2497, 304.2749
970.7318, 294.8054
971.2139, 299.3909
971.6960, 307.9221
972.1782, 324.9573
972.6603, 336.3546
973.1424, 319.0782
973.6245, 281.9508
974.1066, 260.6318
974.5887, 275.4031
975.0709, 282.2161
975.5530, 224.5393
976.0351, 157.5938
976.5172, 156.0959
976.9993, 195.5095
977.4814, 216.6138
977.9636, 203.8909
978.4457, 175.3502
978.9278, 134.0869
979.4099, 97.35046
979.8920, 100.3267
980.3741, 127.9727
980.8563, 135.5665
981.3384, 121.2672
981.8205, 113.3846
982.3026, 126.0978
982.7847, 144.9489
983.2668, 152.4285
983.7490, 148.7048
984.2311, 128.4768
984.7132, 90.84949
985.1953, 66.00305
985.6774, 61.41528
986.1595, 60.82812
986.6417, 51.59741
987.1238, 37.44592
987.6059, 33.91919
988.0880, 42.75232
988.5701, 51.63416
989.0522, 63.45105
989.5344, 61.57056
990.0165, 29.39795
990.4986, 0.6761470
990.9807, 15.60657
991.4628, 75.54114
991.9449, 110.8982
992.4271, 115.6501
992.9092, 107.7482
993.3913, 77.75232
993.8734, 49.89307
994.3555, 37.04395
994.8376, 36.19482
995.3198, 41.35645
995.8019, 55.38904
996.2841, 63.28760
996.7662, 64.75171
997.2483, 63.31238
997.7304, 55.19592
998.2125, 48.80981
998.6946, 57.10327
999.1768, 73.17517
999.6589, 71.54761
1000.141, 36.47241
1000.623, 12.02283
1001.105, 17.06836
1001.587, 28.43872
1002.069, 36.55859
1002.552, 40.50110
1003.034, 38.32214
1003.516, 31.10437
1003.998, 26.98523
1004.480, 33.20105
1004.962, 38.29321
1005.444, 38.17139
1005.926, 33.48474
1006.409, 20.15540
1006.891, 3.733521
1007.373, 3.666138
1007.855, 0.8544920
1008.337, 11.19336
1008.819, 37.93628
1009.301, 62.91504
1009.783, 63.89978
1010.265, 50.89954
1010.748, 39.12634
1011.230, 30.61792
1011.712, 20.03149
1012.194, 3.911011
1012.676, 5.528687
1013.158, 11.38501
1013.640, 40.72717
1014.122, 60.64551
1014.604, 70.35254
1015.087, 65.79431
1015.569, 48.72400
1016.051, 38.25134
1016.533, 50.66150
1017.015, 69.80945
1017.497, 62.86304
1017.979, 71.62024
1018.461, 74.26746
1018.944, 61.19421
1019.426, 65.51245
1019.908, 38.19263
1020.390, 8.508423
1020.872, 8.529663
1021.354, 28.50354
1021.836, 37.53381
1022.318, 36.44214
1022.800, 35.94690
1023.283, 37.53711
1023.765, 39.93872
1024.247, 42.99780
1024.729, 43.25330
1025.211, 32.29358
1025.693, 46.07922
1026.175, 20.99609
1026.657, 61.75269
1027.140, 86.57764
1027.622, 84.59607
1028.104, 71.54980
1028.586, 55.26306
1029.068, 39.99951
1029.550, 35.74329
1030.032, 43.66357
1030.514, 53.77417
1030.996, 69.70813
1031.479, 73.22339
1031.961, 53.42542
1032.443, 33.43445
1032.925, 34.76575
1033.407, 52.26746
1033.889, 65.27844
1034.371, 73.37439
1034.853, 61.66406
1035.335, 14.70569
1035.818, 15.28186
1036.300, 2.172241
1036.782, 27.21326
1037.264, 48.39685
1037.746, 60.72913
1038.228, 57.25977
1038.710, 16.54944
1039.192, 2.968872
1039.675, 49.71606
1040.157, 82.33972
1040.639, 50.48157
1041.121, 1.998047
1041.603, 11.91309
1042.085, 23.34204
1042.567, 42.32690
1043.049, 26.95227
1043.531, 21.89624
1044.014, 47.28613
1044.496, 67.15674
1044.978, 52.16565
1045.460, 22.73254
1045.942, 14.68579
1046.424, 32.09570
1046.906, 50.31018
1047.388, 79.77222
1047.870, 92.87671
1048.353, 66.96436
1048.835, 38.37305
1049.317, 33.31519
1049.799, 45.14160
1050.281, 59.66785
1050.763, 80.40417
1051.245, 81.20435
1051.727, 30.17273
1052.210, 6.122559
1052.692, 4.077271
1053.174, 31.46936
1053.656, 58.22339
1054.138, 79.33838
1054.620, 85.31458
1055.102, 69.52734
1055.584, 54.55920
1056.067, 40.33240
1056.549, 34.54199
1057.031, 49.07568
1057.513, 67.92139
1057.995, 74.84619
1058.477, 70.24329
1058.959, 62.27454
1059.441, 50.58008
1059.923, 41.31580
1060.406, 41.84106
1060.888, 39.39197
1061.370, 15.95935
1061.852, 8.041870
1062.334, 0.4185790
1062.816, 37.21167
1063.298, 57.35596
1063.780, 41.93567
1064.262, 19.03931
1064.745, 23.06714
1065.227, 46.13635
1065.709, 5.402344
1066.191, 61.41858
1066.673, 100.5464
1067.155, 105.8560
1067.637, 103.7963
1068.119, 101.8800
1068.602, 97.57300
1069.084, 85.25244
1069.566, 74.50171
1070.048, 77.40979
1070.530, 84.75720
1071.012, 76.94897
1071.494, 52.55835
1071.976, 41.79858
1072.458, 71.56055
1072.941, 98.69824
1073.423, 103.3037
1073.905, 96.81018
1074.387, 83.09216
1074.869, 67.96387
1075.351, 58.70728
1075.833, 57.02954
1076.315, 62.42249
1076.797, 86.16309
1077.280, 102.3285
1077.762, 96.62146
1078.244, 78.67822
1078.726, 44.36255
1079.208, 9.127075
1079.690, 5.658325
1080.172, 41.24817
1080.655, 70.82178
1081.137, 70.28870
1081.619, 63.94153
1082.101, 65.98499
1082.583, 66.88501
1083.065, 53.12170
1083.547, 31.96704
1084.029, 20.13599
1084.511, 21.64062
1084.994, 28.92139
1085.476, 50.04565
1085.958, 62.08447
1086.440, 39.00806
1086.922, 12.90698
1087.404, 20.51648
1087.886, 49.16650
1088.368, 63.88696
1088.850, 55.52026
1089.333, 43.87903
1089.815, 40.44336
1090.297, 31.53918
1090.779, 8.259521
1091.261, 41.29053
1091.743, 17.54370
1092.225, 39.39258
1092.707, 64.25476
1093.190, 37.98718
1093.672, 18.99414
1094.154, 37.06995
1094.636, 60.84412
1095.118, 86.74292
1095.600, 104.0203
1096.082, 87.77563
1096.564, 57.15381
1097.047, 57.90442
1097.529, 105.7316
1098.011, 136.8740
1098.493, 122.5914
1098.975, 98.54773
1099.457, 67.60107
1099.939, 44.95410
1100.421, 48.90845
1100.903, 68.07043
1101.385, 70.74890
1101.868, 46.26270
1102.350, 38.00940
1102.832, 81.50623
1103.314, 110.7656
1103.796, 85.11658
1104.278, 50.83313
1104.760, 50.13599
1105.242, 70.50452
1105.725, 76.50232
1106.207, 60.59863
1106.689, 47.00061
1107.171, 36.12781
1107.653, 33.11267
1108.135, 48.81702
1108.617, 64.22070
1109.099, 61.64783
1109.582, 48.66150
1110.064, 43.11975
1110.546, 48.69324
1111.028, 55.86743
1111.510, 67.53809
1111.992, 75.60938
1112.474, 75.69812
1112.956, 74.12329
1113.438, 77.71716
1113.921, 70.33057
1114.403, 76.05981
1114.885, 56.97253
1115.367, 42.37537
1115.849, 34.48987
1116.331, 28.48364
1116.813, 25.25500
1117.295, 21.69702
1117.777, 14.97668
1118.260, 7.165405
1118.742, 2.110596
1119.224, 0.1063230
1119.706, 1.440674
1120.188, 4.937378
1120.670, 3.692871
1121.152, 36.02466
1121.634, 63.84204
1122.117, 67.79431
1122.599, 59.20911
1123.081, 62.87329
1123.563, 83.86316
1124.045, 85.64307
1124.527, 60.29590
1125.009, 37.81592
1125.491, 20.17505
1125.974, 13.59375
1126.456, 26.03650
1126.938, 45.51611
1127.420, 54.67664
1127.902, 53.99426
1128.384, 48.46570
1128.866, 35.50317
1129.348, 37.57251
1129.830, 60.38501
1130.313, 80.79456
1130.795, 87.08105
1131.277, 88.87781
1131.759, 99.89954
1132.241, 116.0782
1132.723, 112.7262
1133.205, 90.11731
1133.687, 87.24524
1134.169, 108.4033
1134.652, 107.9747
1135.134, 65.41211
1135.616, 22.33765
1136.098, 26.01135
1136.580, 10.74011
1137.062, 58.48254
1137.544, 37.99622
1138.026, 54.30957
1138.509, 104.5969
1138.991, 130.8757
1139.473, 114.4025
1139.955, 83.23352
1140.437, 58.56580
1140.919, 41.75366
1141.401, 34.72864
1141.883, 37.35791
1142.365, 57.55212
1142.848, 86.83679
1143.330, 88.96069
1143.812, 60.89783
1144.294, 55.07336
1144.776, 116.7524
1145.258, 176.4504
1145.740, 130.4158
1146.222, 47.81958
1146.704, 31.78577
1147.187, 60.52014
1147.669, 84.48083
1148.151, 92.32812
1148.633, 87.11780
1149.115, 67.98181
1149.597, 47.16650
1150.079, 23.79431
1150.561, 7.851807
1151.044, 22.71606
1151.526, 43.17249
1152.008, 23.55664
1152.490, 23.55847
1152.972, 39.03442
1153.454, 0.8247070
1153.936, 37.41028
1154.418, 37.71277
1154.901, 34.29907
1155.383, 46.87427
1155.865, 62.29102
1156.347, 65.66699
1156.829, 61.73694
1157.311, 64.38953
1157.793, 76.76904
1158.275, 86.26636
1158.757, 94.45886
1159.240, 93.41016
1159.722, 69.95837
1160.204, 49.51025
1160.686, 47.46448
1161.168, 56.14038
1161.650, 58.97632
1162.132, 55.16602
1162.614, 57.35791
1163.096, 73.70984
1163.579, 80.07178
1164.061, 63.69873
1164.543, 56.52478
1165.025, 81.27795
1165.507, 110.2332
1165.989, 108.4294
1166.471, 80.97302
1166.953, 62.73865
1167.436, 54.95264
1167.918, 50.18213
1168.400, 47.85303
1168.882, 50.71216
1169.364, 61.18396
1169.846, 70.92603
1170.328, 73.33887
1170.810, 67.17993
1171.292, 42.14587
1171.775, 0.9859620
1172.257, 6.059448
1172.739, 19.97534
1173.221, 38.13892
1173.703, 38.97961
1174.185, 42.71741
1174.667, 63.59717
1175.149, 83.76160
1175.631, 68.57214
1176.114, 75.45251
1176.596, 70.65747
1177.078, 55.70959
1177.560, 58.15259
1178.042, 42.37744
1178.524, 39.66736
1179.006, 62.44214
1179.488, 78.24670
1179.971, 44.50769
1180.453, 57.70886
1180.935, 11.03003
1181.417, 34.30957
1181.899, 25.41064
1182.381, 3.213745
1182.863, 12.14026
1183.345, 6.296143
1183.828, 24.32739
1184.310, 20.68579
1184.792, 26.12476
1185.274, 74.41846
1185.756, 117.9055
1186.238, 120.8264
1186.720, 98.96179
1187.202, 62.21387
1187.684, 20.54675
1188.167, 17.57434
1188.649, 93.72400
1189.131, 134.4431
1189.613, 98.10999
1190.095, 59.52539
1190.577, 38.40063
1191.059, 28.86877
1191.541, 30.30859
1192.023, 38.44812
1192.506, 41.62549
1192.988, 37.77954
1193.470, 43.44238
1193.952, 63.98938
1194.434, 76.71008
1194.916, 76.29468
1195.398, 71.67419
1195.880, 66.61401
1196.363, 63.86877
1196.845, 69.61279
1197.327, 80.04993
1197.809, 71.97546
1198.291, 46.53357
1198.773, 21.81812
1199.255, 0.5214840
1199.737, 2.604248
1200.219, 17.20056
1200.702, 39.29236
1201.184, 45.15222
1201.666, 44.94409
1202.148, 61.86780
1202.630, 82.12292
1203.112, 68.54382
1203.594, 34.65588
1204.076, 18.69019
1204.558, 25.71338
1205.041, 40.13977
1205.523, 56.91650
1206.005, 62.42834
1206.487, 32.24023
1206.969, 3.779907
1207.451, 16.86108
1207.933, 41.87317
1208.415, 40.45874
1208.898, 22.42859
1209.380, 20.61096
1209.862, 42.49854
1210.344, 55.66687
1210.826, 42.68445
1211.308, 37.56628
1211.790, 60.75293
1212.272, 74.33337
1212.755, 39.51562
1213.237, 4.271729
1213.719, 2.557617
1214.201, 36.81677
1214.683, 56.66113
1215.165, 49.33936
1215.647, 45.02051
1216.129, 48.32288
1216.611, 37.27551
1217.094, 3.462646
1217.576, 25.26709
1218.058, 16.12000
1218.540, 0.8609620
1219.022, 13.19519
1219.504, 34.96057
1219.986, 34.85925
1220.468, 76.47607
1220.950, 95.00940
1221.433, 83.15222
1221.915, 68.63147
1222.397, 63.90735
1222.879, 68.21887
1223.361, 85.28210
1223.843, 103.5018
1224.325, 109.1505
1224.807, 102.5361
1225.290, 72.49280
1225.772, 34.69360
1226.254, 26.75183
1226.736, 49.84619
1227.218, 65.07422
1227.700, 49.80603
1228.182, 43.28333
1228.664, 82.88501
1229.146, 116.8600
1229.629, 113.6268
1230.111, 91.17078
1230.593, 56.75610
1231.075, 21.40344
1231.557, 12.78906
1232.039, 39.64636
1232.521, 48.00720
1233.003, 19.86072
1233.485, 3.613281
1233.968, 10.48743
1234.450, 19.06897
1234.932, 20.22119
1235.414, 18.11658
1235.896, 16.50208
1236.378, 16.50244
1236.860, 23.76099
1237.342, 37.96326
1237.825, 48.07520
1238.307, 53.18579
1238.789, 59.05811
1239.271, 66.80139
1239.753, 69.14978
1240.235, 61.07874
1240.717, 53.17786
1241.199, 67.15283
1241.682, 84.20801
1242.164, 62.51501
1242.646, 24.94604
1243.128, 13.33655
1243.610, 24.44275
1244.092, 40.46924
1244.574, 54.65991
1245.056, 55.94055
1245.538, 26.27234
1246.021, 6.259277
1246.503, 28.90857
1246.985, 52.05835
1247.467, 39.62463
1247.949, 20.91736
1248.431, 36.35071
1248.913, 75.00757
1249.395, 88.46838
1249.878, 67.89429
1250.360, 52.52991
1250.842, 43.98755
1251.324, 37.08081
1251.806, 31.28113
1252.288, 24.98071
1252.770, 15.38367
1253.252, 13.54175
1253.734, 38.10583
1254.217, 20.29126
1254.699, 62.44873
1255.181, 13.50928
1255.663, 0.8939210
1256.145, 17.97266
1256.627, 35.59705
1257.109, 43.15503
1257.591, 47.39575
1258.073, 52.12781
1258.556, 55.98120
1259.038, 59.20422
1259.520, 59.12219
1260.002, 47.91260
1260.484, 35.30762
1260.966, 39.29297
1261.448, 50.35864
1261.930, 41.74365
1262.413, 10.68799
1262.895, 7.525879
1263.377, 8.323486
1263.859, 19.54309
1264.341, 6.993896
1264.823, 3.979492
1265.305, 35.24695
1265.787, 67.45166
1266.270, 71.78369
1266.752, 58.97290
1267.234, 54.45276
1267.716, 58.60022
1268.198, 59.85779
1268.680, 58.33337
1269.162, 51.09473
1269.644, 37.57996
1270.126, 24.96863
1270.609, 16.10583
1271.091, 20.41772
1271.573, 50.94849
1272.055, 86.66125
1272.537, 88.55554
1273.019, 75.04761
1273.501, 85.92566
1273.983, 103.9335
1274.465, 82.54785
1274.948, 29.20776
1275.430, 7.343262
1275.912, 10.99329
1276.394, 2.059204
1276.876, 45.36194
1277.358, 72.64648
1277.840, 57.23560
1278.322, 37.32666
1278.805, 40.33911
1279.287, 52.14685
1279.769, 54.23535
1280.251, 48.60376
1280.733, 43.13843
1281.215, 33.62634
1281.697, 47.38953
1282.179, 90.80847
1282.661, 117.1837
1283.144, 116.0260
1283.626, 95.58472
1284.108, 89.61560
1284.590, 80.90491
1285.072, 53.96680
1285.554, 23.30457
1286.036, 19.90784
1286.518, 33.87097
1287.000, 50.19788
1287.483, 64.80481
1287.965, 72.95715
1288.447, 72.03137
1288.929, 56.64612
1289.411, 19.10156
1289.893, 0.2423100
1290.375, 10.67700
1290.857, 0.0000000E+00
##END=



