##NAMES=Graphite
##RRUFFID=R120025
##IDEAL CHEMISTRY=C
##LOCALITY=Saint-Sauveur Graphite occurrence, Saint-Sauveur, Les Pays-d'en-Haut RCM, Laurentides, Qu√©bec, Canada
##OWNER=RRUFF
##SOURCE=Donald Doell
##DESCRIPTION=Semi-metallic, dark gray flakes
##STATUS=The identification of this mineral is not yet confirmed.
##URL=rruff.info/R120025
177.1069, 0.0000000E+00
177.5890, 0.1061080
178.0711, 0.3710520
178.5532, 0.6146970
179.0353, 0.8069320
179.5175, 0.8687320
179.9996, 0.6102650
180.4817, 0.2089810
180.9638, 2.3376999E-02
181.4459, 0.1263110
181.9280, 0.3661870
182.4102, 0.6034090
182.8923, 0.8232300
183.3744, 0.9650650
183.8565, 0.9626260
184.3386, 0.8473000
184.8207, 0.6854880
185.3029, 0.4491400
185.7850, 0.2429420
186.2671, 0.2961260
186.7492, 0.5962820
187.2313, 0.8815910
187.7134, 0.9208650
188.1956, 0.7723450
188.6777, 0.7175840
189.1598, 0.8253290
189.6419, 1.021526
190.1240, 1.170355
190.6061, 1.274347
191.0883, 1.309937
191.5704, 1.177294
192.0525, 0.9071070
192.5346, 0.8395920
193.0167, 1.129783
193.4988, 1.642265
193.9810, 1.821728
194.4631, 1.703038
194.9452, 1.535578
195.4273, 1.508402
195.9094, 1.616451
196.3915, 1.658348
196.8737, 1.587586
197.3558, 1.430102
197.8379, 1.259101
198.3200, 1.087771
198.8021, 0.9164660
199.2842, 0.7639590
199.7664, 0.6336270
200.2485, 0.5758480
200.7306, 0.6375530
201.2127, 0.7810420
201.6948, 0.7614720
202.1769, 0.5297450
202.6591, 0.2913250
203.1412, 0.2762600
203.6233, 0.5201940
204.1054, 0.7129800
204.5875, 0.7642250
205.0696, 0.6938930
205.5518, 0.5770460
206.0339, 0.3873130
206.5160, 0.2092690
206.9981, 0.1604060
207.4802, 0.2852250
207.9623, 0.3243350
208.4445, 0.1649510
208.9266, 0.1782810
209.4087, 0.3013640
209.8908, 0.1416230
210.3729, 0.1165950
210.8550, 0.2819640
211.3372, 0.3420670
211.8193, 0.3479050
212.3014, 0.2859940
212.7835, 0.1504160
213.2656, 0.1277690
213.7477, 0.2594310
214.2299, 0.4501060
214.7120, 0.6039670
215.1941, 0.7474720
215.6762, 0.7846120
216.1583, 0.6598580
216.6404, 0.3613960
217.1226, 0.1578330
217.6047, 7.6734997E-02
218.0868, 5.6345001E-02
218.5689, 1.6618000E-02
219.0510, 6.7809999E-02
219.5331, 0.1107440
220.0153, 7.6953001E-02
220.4974, 4.4615999E-02
220.9795, 0.1170300
221.4616, 0.1164150
221.9437, 9.2817999E-02
222.4258, 0.1173800
222.9080, 0.2315840
223.3901, 0.3038330
223.8722, 0.2811940
224.3543, 0.1455090
224.8364, 7.7592999E-02
225.3185, 0.1129650
225.8007, 0.1832100
226.2828, 0.1959540
226.7649, 0.1091420
227.2470, 4.8307002E-02
227.7291, 5.9124999E-02
228.2112, 0.1564570
228.6934, 0.2096060
229.1755, 0.2091440
229.6576, 0.1732440
230.1397, 0.1136030
230.6218, 2.2839000E-02
231.1039, 8.3355002E-02
231.5861, 6.8709999E-03
232.0682, 0.2911040
232.5503, 0.4207520
233.0324, 0.3125660
233.5145, 0.1213550
233.9966, 4.9426999E-02
234.4788, 0.1818910
234.9609, 0.2776590
235.4430, 0.2672820
235.9251, 0.1284250
236.4072, 4.0282998E-02
236.8893, 2.2593999E-02
237.3715, 3.8697999E-02
237.8536, 4.2006001E-02
238.3357, 1.6849000E-02
238.8178, 5.3690001E-03
239.2999, 1.3739000E-02
239.7820, 3.9113998E-02
240.2642, 0.1090660
240.7463, 0.2567640
241.2284, 0.4208990
241.7105, 0.5279180
242.1926, 0.5670930
242.6747, 0.5685080
243.1569, 0.5328420
243.6390, 0.4499240
244.1211, 0.3709100
244.6032, 0.2902490
245.0853, 0.2175790
245.5674, 0.1664660
246.0496, 0.1508700
246.5317, 0.1282110
247.0138, 6.4277999E-02
247.4959, 5.5652000E-02
247.9780, 3.0012000E-02
248.4601, 0.2405900
248.9423, 0.5587050
249.4244, 0.7012330
249.9065, 0.5943020
250.3886, 0.4572750
250.8707, 0.3241110
251.3528, 0.1943320
251.8350, 9.5562004E-02
252.3171, 9.0410002E-03
252.7992, 2.5657000E-02
253.2813, 4.7968999E-02
253.7634, 0.2937860
254.2455, 0.5089080
254.7277, 0.6589160
255.2098, 0.7439000
255.6919, 0.7638820
256.1740, 0.6839620
256.6561, 0.5747500
257.1382, 0.4970950
257.6204, 0.4463930
258.1025, 0.4391010
258.5846, 0.4960510
259.0667, 0.6125370
259.5488, 0.6800330
260.0309, 0.6754660
260.5131, 0.6485150
260.9952, 0.6475730
261.4773, 0.6971010
261.9594, 0.7093250
262.4415, 0.6412080
262.9236, 0.5090100
263.4058, 0.4225590
263.8879, 0.3813880
264.3700, 0.3934050
264.8521, 0.4658600
265.3342, 0.6181580
265.8163, 0.7365120
266.2985, 0.7994820
266.7806, 0.8095270
267.2627, 0.8060930
267.7448, 0.8063250
268.2269, 0.7969070
268.7090, 0.7516360
269.1912, 0.6501240
269.6733, 0.6018270
270.1554, 0.6189230
270.6375, 0.6951760
271.1196, 0.8122850
271.6017, 0.9949890
272.0839, 1.149737
272.5660, 1.184546
273.0481, 1.069959
273.5302, 1.044126
274.0123, 1.172603
274.4944, 1.376643
274.9766, 1.406773
275.4587, 1.224683
275.9408, 1.019369
276.4229, 0.9115680
276.9050, 0.9059900
277.3871, 0.8950740
277.8693, 0.8714190
278.3514, 0.8464740
278.8335, 0.8407470
279.3156, 0.8560050
279.7977, 0.8788190
280.2798, 0.9185810
280.7620, 0.9754970
281.2441, 0.9604920
281.7262, 0.8472470
282.2083, 0.7004690
282.6904, 0.6473380
283.1725, 0.6945020
283.6547, 0.7352330
284.1368, 0.7129860
284.6189, 0.6332810
285.1010, 0.5502470
285.5831, 0.4580540
286.0652, 0.3822680
286.5474, 0.3851570
287.0295, 0.4644170
287.5116, 0.5068330
287.9937, 0.4211910
288.4758, 0.2397650
288.9579, 0.1655860
289.4401, 0.2124850
289.9222, 0.3165240
290.4043, 0.4417870
290.8864, 0.5807590
291.3685, 0.6500830
291.8506, 0.5614530
292.3328, 0.3813140
292.8149, 0.3054620
293.2970, 0.3415950
293.7791, 0.4104790
294.2612, 0.4288610
294.7433, 0.4128870
295.2255, 0.4225970
295.7076, 0.5212470
296.1897, 0.6333180
296.6718, 0.5638450
297.1539, 0.3185600
297.6360, 9.4639003E-02
298.1182, 0.1266110
298.6003, 0.3210820
299.0824, 0.4085010
299.5645, 0.2475320
300.0466, 1.4359000E-02
300.5287, 2.5562000E-02
301.0109, 0.1075010
301.4930, 0.2670500
301.9751, 0.3750400
302.4572, 0.4329580
302.9393, 0.4340560
303.4214, 0.3577820
303.9036, 0.2618580
304.3857, 0.2020220
304.8678, 0.1752200
305.3499, 0.1608550
305.8320, 0.1642170
306.3141, 0.1738860
306.7963, 0.1640440
307.2784, 0.1165290
307.7605, 9.1819003E-02
308.2426, 0.1716730
308.7247, 0.3159310
309.2068, 0.4279070
309.6890, 0.4290220
310.1711, 0.3929530
310.6532, 0.3954950
311.1353, 0.4626120
311.6174, 0.4902780
312.0995, 0.3356710
312.5817, 0.1090050
313.0638, 1.4348000E-02
313.5459, 0.1526340
314.0280, 0.3576430
314.5101, 0.4467260
314.9922, 0.4051540
315.4744, 0.3245760
315.9565, 0.1953740
316.4386, 6.8135999E-02
316.9207, 1.8330000E-03
317.4028, 9.7721003E-02
317.8849, 0.1810120
318.3671, 0.1500380
318.8492, 1.1369000E-02
319.3313, 6.9485001E-02
319.8134, 5.0586000E-02
320.2955, 0.2052770
320.7776, 0.2610850
321.2598, 6.1276000E-02
321.7419, 0.1036090
322.2240, 0.1576510
322.7061, 0.1161420
323.1882, 6.0826000E-02
323.6703, 1.1206000E-02
324.1525, 8.0375001E-02
324.6346, 0.1363800
325.1167, 0.1986190
325.5988, 0.2206550
326.0809, 0.1560510
326.5630, 4.4450000E-02
327.0452, 5.7120002E-03
327.5273, 9.1894999E-02
328.0094, 0.1842120
328.4915, 0.2109810
328.9736, 0.1168790
329.4557, 7.2616003E-02
329.9379, 0.1147330
330.4200, 0.1960150
330.9021, 0.2389910
331.3842, 0.2074330
331.8663, 0.1862960
332.3484, 0.2055920
332.8306, 0.2758760
333.3127, 0.3162490
333.7948, 0.3232750
334.2769, 0.3032550
334.7590, 0.2562400
335.2411, 0.1558960
335.7233, 8.7968998E-02
336.2054, 8.2010999E-02
336.6875, 0.1372520
337.1696, 0.1735690
337.6517, 0.1854140
338.1339, 0.1797050
338.6160, 0.1605450
339.0981, 0.1230200
339.5802, 9.5238999E-02
340.0623, 7.6422997E-02
340.5444, 7.2807997E-02
341.0266, 0.1157120
341.5087, 0.2159520
341.9908, 0.3106430
342.4729, 0.3616560
342.9550, 0.3689480
343.4371, 0.3589630
343.9193, 0.3284710
344.4014, 0.2914900
344.8835, 0.2666170
345.3656, 0.2539600
345.8477, 0.2690380
346.3298, 0.3720870
346.8120, 0.5218340
347.2941, 0.4995080
347.7762, 0.2734760
348.2583, 1.9298000E-02
348.7404, 2.9359000E-02
349.2225, 8.3512999E-02
349.7047, 0.1695530
350.1868, 0.1135110
350.6689, 4.9790000E-03
351.1510, 1.8525001E-02
351.6331, 0.1521070
352.1152, 0.2980210
352.5974, 0.3763960
353.0795, 0.4025440
353.5616, 0.4061980
354.0437, 0.4041470
354.5258, 0.3720820
355.0079, 0.2440890
355.4901, 4.7770001E-02
355.9722, 9.6155003E-02
356.4543, 9.6248999E-02
356.9364, 1.4256000E-02
357.4185, 0.1024840
357.9006, 0.2727760
358.3828, 0.3978860
358.8649, 0.4026580
359.3470, 0.3202760
359.8291, 0.2263890
360.3112, 0.1103760
360.7933, 2.6136000E-02
361.2755, 2.3824001E-02
361.7576, 0.1222590
362.2397, 0.1952370
362.7218, 0.1649400
363.2039, 9.4501004E-02
363.6860, 5.4361001E-02
364.1682, 8.1680998E-02
364.6503, 0.1236700
365.1324, 0.1691430
365.6145, 0.2174220
366.0966, 0.2597140
366.5787, 0.3034720
367.0609, 0.3352810
367.5430, 0.3465580
368.0251, 0.2967880
368.5072, 0.2737360
368.9893, 0.3015980
369.4714, 0.3632580
369.9536, 0.4001480
370.4357, 0.3561660
370.9178, 0.3511090
371.3999, 0.4523300
371.8820, 0.7659810
372.3641, 0.8834820
372.8463, 0.6810370
373.3284, 0.3630440
373.8105, 0.2634430
374.2926, 0.4907210
374.7747, 0.6906110
375.2568, 0.7681770
375.7390, 0.7209170
376.2211, 0.6222360
376.7032, 0.4357440
377.1853, 0.2642660
377.6674, 0.2457360
378.1495, 0.3962760
378.6317, 0.4935230
379.1138, 0.4853770
379.5959, 0.3941380
380.0780, 0.3100020
380.5601, 0.2387780
381.0422, 0.1888290
381.5244, 0.1753980
382.0065, 0.1889440
382.4886, 0.1938520
382.9707, 0.1867670
383.4528, 0.1701100
383.9349, 0.1407490
384.4171, 0.1014950
384.8992, 6.7321002E-02
385.3813, 2.1488000E-02
385.8634, 3.3809999E-03
386.3455, 8.4870003E-02
386.8276, 0.2940060
387.3098, 0.4837350
387.7919, 0.5130860
388.2740, 0.4425790
388.7561, 0.3811180
389.2382, 0.3791970
389.7203, 0.3899330
390.2025, 0.3508330
390.6846, 0.2705830
391.1667, 0.2301790
391.6488, 0.3624060
392.1309, 0.5046520
392.6130, 0.5011450
393.0952, 0.2451290
393.5773, 1.2836000E-02
394.0594, 8.6048000E-02
394.5415, 7.9226002E-02
395.0236, 1.8239001E-02
395.5057, 0.1748720
395.9879, 0.3379820
396.4700, 0.3949640
396.9521, 0.3257150
397.4342, 0.2489360
397.9163, 0.1497090
398.3984, 6.6809997E-02
398.8806, 3.5978001E-02
399.3627, 7.8948997E-02
399.8448, 0.1524050
400.3269, 0.2819750
400.8090, 0.4530090
401.2911, 0.5499670
401.7733, 0.5422050
402.2554, 0.4979740
402.7375, 0.4343050
403.2196, 0.2850150
403.7017, 0.3067620
404.1838, 0.6088390
404.6660, 1.000650
405.1481, 1.076077
405.6302, 0.7424290
406.1123, 0.4348380
406.5944, 0.3192660
407.0765, 0.3936300
407.5587, 0.4501950
408.0408, 0.4870210
408.5229, 0.5077000
409.0050, 0.5180940
409.4871, 0.5208330
409.9692, 0.5266200
410.4514, 0.5394630
410.9335, 0.5554000
411.4156, 0.5813640
411.8977, 0.6133330
412.3798, 0.6065500
412.8619, 0.4793640
413.3441, 0.3006740
413.8262, 0.2193800
414.3083, 0.2838410
414.7904, 0.3637850
415.2725, 0.2907850
415.7546, 0.1322360
416.2368, 2.5698001E-02
416.7189, 7.6457001E-02
417.2010, 0.1738450
417.6831, 0.2327800
418.1652, 0.2527120
418.6473, 0.2709740
419.1295, 0.3149240
419.6116, 0.3680700
420.0937, 0.4141150
420.5758, 0.4735470
421.0579, 0.4899350
421.5400, 0.4035150
422.0222, 0.2605110
422.5043, 0.1695180
422.9864, 0.1793820
423.4685, 0.2249280
423.9506, 0.2959990
424.4327, 0.4166590
424.9149, 0.4754940
425.3970, 0.4350620
425.8791, 0.3506950
426.3612, 0.2753700
426.8433, 0.2175310
427.3254, 0.1523260
427.8076, 4.7013000E-02
428.2897, 7.9162002E-02
428.7718, 5.7259001E-02
429.2539, 0.1967350
429.7360, 0.4276700
430.2181, 0.4492930
430.7003, 0.2161630
431.1824, 8.2800999E-02
431.6645, 8.3848000E-02
432.1466, 0.1552740
432.6287, 0.1948280
433.1108, 0.2017110
433.5930, 0.2048050
434.0751, 0.2166000
434.5572, 0.2328670
435.0393, 0.2353450
435.5214, 0.2236680
436.0035, 0.2160760
436.4857, 0.2288950
436.9678, 0.2585120
437.4499, 0.3024880
437.9320, 0.3747150
438.4141, 0.4318370
438.8962, 0.4006510
439.3784, 0.3104600
439.8605, 0.2474300
440.3426, 0.2957700
440.8247, 0.3667740
441.3068, 0.3784220
441.7889, 0.3186520
442.2711, 0.2637000
442.7532, 0.2625160
443.2353, 0.2809680
443.7174, 0.2840910
444.1995, 0.2463230
444.6816, 0.2133100
445.1638, 0.2146950
445.6459, 0.2369120
446.1280, 0.2177520
446.6101, 7.0504002E-02
447.0922, 5.5707000E-02
447.5743, 9.1234997E-02
448.0565, 2.0049999E-03
448.5386, 9.3050003E-02
449.0207, 0.2014310
449.5028, 0.2947930
449.9849, 0.3231450
450.4670, 0.2520400
450.9492, 0.1954190
451.4313, 0.1855430
451.9134, 0.2079920
452.3955, 0.1767540
452.8776, 7.1921997E-02
453.3597, 1.4480000E-03
453.8419, 5.8729999E-02
454.3240, 0.2469410
454.8061, 0.3511660
455.2882, 0.3371670
455.7703, 0.2757860
456.2524, 0.2761800
456.7346, 0.3294660
457.2167, 0.3770540
457.6988, 0.4055620
458.1809, 0.4073550
458.6630, 0.3460300
459.1451, 0.2271860
459.6273, 0.1319950
460.1094, 0.1519340
460.5915, 0.2227940
461.0736, 0.2609050
461.5557, 0.2396840
462.0378, 0.2016400
462.5200, 0.1615520
463.0021, 0.1296180
463.4842, 0.1128780
463.9663, 0.1540020
464.4484, 0.1948090
464.9305, 0.1917720
465.4127, 0.1382230
465.8948, 0.1319530
466.3769, 0.2478700
466.8590, 0.3852100
467.3411, 0.4710380
467.8232, 0.4809390
468.3054, 0.4678540
468.7875, 0.4324840
469.2696, 0.3746880
469.7517, 0.3004800
470.2338, 0.2032460
470.7159, 0.1095560
471.1981, 1.6762000E-02
471.6802, 7.7812999E-02
472.1623, 9.3443997E-02
472.6444, 1.6439000E-02
473.1265, 0.1017690
473.6086, 0.2353890
474.0908, 0.3824590
474.5729, 0.4478240
475.0550, 0.3972240
475.5371, 0.2874200
476.0192, 0.2532340
476.5013, 0.2865320
476.9835, 0.3046430
477.4656, 0.2310190
477.9477, 0.1234160
478.4298, 7.3611997E-02
478.9119, 8.6081997E-02
479.3940, 0.1367950
479.8762, 0.2530730
480.3583, 0.3816070
480.8404, 0.4480250
481.3225, 0.3767780
481.8046, 0.3136420
482.2867, 0.3548510
482.7689, 0.4637130
483.2510, 0.5457690
483.7331, 0.5706330
484.2152, 0.5617490
484.6973, 0.5230360
485.1794, 0.4483380
485.6616, 0.3768740
486.1437, 0.3093600
486.6258, 0.2470150
487.1079, 0.1853820
487.5900, 9.1518000E-02
488.0721, 4.6620000E-02
488.5543, 7.8817002E-02
489.0364, 0.1573160
489.5185, 0.1871220
490.0006, 0.1469200
490.4827, 0.1270580
490.9648, 0.1924420
491.4470, 0.3350830
491.9291, 0.3524140
492.4112, 0.2170650
492.8933, 8.8400997E-02
493.3754, 0.1845050
493.8575, 0.4441590
494.3397, 0.5868670
494.8218, 0.5234430
495.3039, 0.3686860
495.7860, 0.2451580
496.2681, 0.1561160
496.7502, 0.1132530
497.2324, 0.1516410
497.7145, 0.2205660
498.1966, 0.2775960
498.6787, 0.3200770
499.1608, 0.3508460
499.6429, 0.3764850
500.1251, 0.3885330
500.6072, 0.3791520
501.0893, 0.3269000
501.5714, 0.2800110
502.0535, 0.2540890
502.5356, 0.2405190
503.0178, 0.2192130
503.4999, 0.1566890
503.9820, 0.1214130
504.4641, 0.1418790
504.9462, 0.2181400
505.4283, 0.2573000
505.9105, 0.2487350
506.3926, 0.2336750
506.8747, 0.2470540
507.3568, 0.2921230
507.8389, 0.3494810
508.3210, 0.4329290
508.8032, 0.4995900
509.2853, 0.4394830
509.7674, 0.2625950
510.2495, 0.1370700
510.7316, 0.1647990
511.2137, 0.2743030
511.6959, 0.3041220
512.1780, 0.2600940
512.6601, 0.2226390
513.1422, 0.2797680
513.6243, 0.3668130
514.1064, 0.3931190
514.5886, 0.3270900
515.0707, 0.2580120
515.5528, 0.2572410
516.0349, 0.2844560
516.5170, 0.2812880
516.9991, 0.1535170
517.4813, 6.9310002E-02
517.9634, 0.1416040
518.4455, 0.3404220
518.9276, 0.4152480
519.4097, 0.1727650
519.8918, 5.5581000E-02
520.3740, 0.1248330
520.8561, 3.0221000E-02
521.3382, 0.1340670
521.8203, 0.1699540
522.3024, 0.1647260
522.7845, 0.1359620
523.2667, 7.5388998E-02
523.7488, 4.1421000E-02
524.2309, 5.8060002E-02
524.7130, 9.8383002E-02
525.1951, 7.5011998E-02
525.6772, 9.2930002E-03
526.1594, 7.1486004E-02
526.6415, 5.4595001E-02
527.1236, 1.5892001E-02
527.6057, 9.7746000E-02
528.0878, 0.1899030
528.5699, 0.2529400
529.0521, 0.2138710
529.5342, 0.1319140
530.0163, 0.1028910
530.4984, 0.2046310
530.9805, 0.2769860
531.4626, 0.1808890
531.9448, 8.3400001E-04
532.4269, 0.1079800
532.9090, 5.1731002E-02
533.3911, 3.2320999E-02
533.8732, 9.8773003E-02
534.3553, 0.1442920
534.8375, 0.2061320
535.3196, 0.3168610
535.8017, 0.4117250
536.2838, 0.4538910
536.7659, 0.4309520
537.2480, 0.3823760
537.7302, 0.2830040
538.2123, 0.1924960
538.6944, 0.2293830
539.1765, 0.4071910
539.6586, 0.5185170
540.1407, 0.4850670
540.6229, 0.3689580
541.1050, 0.3061220
541.5871, 0.2943820
542.0692, 0.3113650
542.5513, 0.3684550
543.0334, 0.4363040
543.5156, 0.4690380
543.9977, 0.4632830
544.4798, 0.4377890
544.9619, 0.3895530
545.4440, 0.3351740
545.9261, 0.2937090
546.4083, 0.2842110
546.8904, 0.2689190
547.3725, 0.2233490
547.8546, 0.1638700
548.3367, 0.1244970
548.8188, 0.1190240
549.3010, 0.1251450
549.7831, 0.1357770
550.2652, 0.1521020
550.7473, 0.1949260
551.2294, 0.2980970
551.7115, 0.3701990
552.1937, 0.3294430
552.6758, 0.1554490
553.1579, 7.7777997E-02
553.6400, 0.1286410
554.1221, 0.2138480
554.6042, 0.1815910
555.0864, 5.6789000E-02
555.5685, 4.1120001E-03
556.0506, 0.1153150
556.5327, 0.2680540
557.0148, 0.2709050
557.4969, 0.1585070
557.9791, 6.0947001E-02
558.4612, 4.8542999E-02
558.9433, 8.4964000E-02
559.4254, 0.1676230
559.9075, 0.2975620
560.3896, 0.3726320
560.8718, 0.2937610
561.3539, 0.1786340
561.8360, 0.1148520
562.3181, 0.1546160
562.8002, 0.1863720
563.2823, 0.1971490
563.7645, 0.1992620
564.2466, 0.2116480
564.7287, 0.2382460
565.2108, 0.2664000
565.6929, 0.2948120
566.1750, 0.3222930
566.6572, 0.3496100
567.1393, 0.3794410
567.6214, 0.3882090
568.1035, 0.3399130
568.5856, 0.2564210
569.0677, 0.2301380
569.5499, 0.2674950
570.0320, 0.3115860
570.5141, 0.3136990
570.9962, 0.2928940
571.4783, 0.2754140
571.9604, 0.2758830
572.4426, 0.2763130
572.9247, 0.2604180
573.4068, 0.2336190
573.8889, 0.2052170
574.3710, 0.1733640
574.8531, 0.1456050
575.3353, 0.1176720
575.8174, 9.1995999E-02
576.2995, 9.6726999E-02
576.7816, 0.1819150
577.2637, 0.2384380
577.7458, 0.1926500
578.2280, 2.3250000E-03
578.7101, 3.8114000E-02
579.1922, 0.1160590
579.6743, 0.2989150
580.1564, 0.3183100
580.6385, 0.1841550
581.1207, 7.1534000E-02
581.6028, 7.5900001E-03
582.0849, 1.3057000E-02
582.5670, 1.0926000E-02
583.0491, 7.2509997E-02
583.5313, 0.1508650
584.0134, 0.2976020
584.4955, 0.4116080
584.9776, 0.3514150
585.4597, 0.1485980
585.9418, 3.1119999E-03
586.4240, 3.2931000E-02
586.9061, 0.1124170
587.3882, 0.1548880
587.8703, 0.1463270
588.3524, 0.1194130
588.8345, 3.1753998E-02
589.3167, 4.2378999E-02
589.7988, 3.8671002E-02
590.2809, 8.6020999E-02
590.7630, 0.1784870
591.2451, 0.2158140
591.7272, 0.2236560
592.2094, 0.2549590
592.6915, 0.3107500
593.1736, 0.3718230
593.6557, 0.4441520
594.1378, 0.5091560
594.6199, 0.5156260
595.1021, 0.4681510
595.5842, 0.4045300
596.0663, 0.3475580
596.5484, 0.2889030
597.0305, 0.2031890
597.5126, 8.6372003E-02
597.9948, 9.3080001E-03
598.4769, 5.8683999E-02
598.9590, 0.1383890
599.4411, 0.1658500
599.9232, 7.1203999E-02
600.4053, 1.2936000E-02
600.8875, 4.0626999E-02
601.3696, 0.1087240
601.8517, 0.1531070
602.3338, 0.1508720
602.8159, 0.1709550
603.2980, 0.2343220
603.7802, 0.3264890
604.2623, 0.4124580
604.7444, 0.4981370
605.2265, 0.5215210
605.7086, 0.4094590
606.1907, 0.2086300
606.6729, 7.5869001E-02
607.1550, 1.0895000E-02
607.6371, 1.3360000E-02
608.1192, 6.9559999E-03
608.6013, 2.3541000E-02
609.0834, 7.8424998E-02
609.5656, 0.1647260
610.0477, 0.2329050
610.5298, 0.2521470
611.0119, 0.2420180
611.4940, 0.2246460
611.9761, 0.1825030
612.4583, 0.1604670
612.9404, 0.1782430
613.4225, 0.2181920
613.9046, 0.2428990
614.3867, 0.2459980
614.8688, 0.2458860
615.3510, 0.2510960
615.8331, 0.2577860
616.3152, 0.2291250
616.7973, 0.1589390
617.2794, 0.1161840
617.7615, 0.1897980
618.2437, 0.3246560
618.7258, 0.3487560
619.2079, 0.2494700
619.6900, 0.1448610
620.1721, 0.1485820
620.6542, 0.2003870
621.1364, 0.2231560
621.6185, 0.1877350
622.1006, 0.1478240
622.5827, 0.1103080
623.0648, 8.7421998E-02
623.5469, 9.6261002E-02
624.0291, 0.2048580
624.5112, 0.2651690
624.9933, 0.2270420
625.4754, 0.1278120
625.9575, 0.1103660
626.4396, 0.2226320
626.9218, 0.2720360
627.4039, 0.1400160
627.8860, 0.1246130
628.3681, 0.2056630
628.8502, 9.8012999E-02
629.3323, 5.3741001E-02
629.8145, 0.1590800
630.2966, 0.2277560
630.7787, 0.2789260
631.2608, 0.3141420
631.7429, 0.3345400
632.2250, 0.3373160
632.7072, 0.3272950
633.1893, 0.3097780
633.6714, 0.2840140
634.1535, 0.2529180
634.6356, 0.2060000
635.1177, 0.1583760
635.5999, 0.1326840
636.0820, 0.1268860
636.5641, 0.1460440
637.0462, 0.2186500
637.5283, 0.3136730
638.0104, 0.3259170
638.4926, 0.2426900
638.9747, 0.1732990
639.4568, 0.1719900
639.9389, 0.2212220
640.4210, 0.2615100
640.9031, 0.2928120
641.3853, 0.3265120
641.8674, 0.4039350
642.3495, 0.4729030
642.8316, 0.4560570
643.3137, 0.3237400
643.7958, 0.2038380
644.2780, 0.1495240
644.7601, 0.1418370
645.2422, 0.1653530
645.7243, 0.2253440
646.2064, 0.3074500
646.6885, 0.4483910
647.1707, 0.5842210
647.6528, 0.6232020
648.1349, 0.5277510
648.6170, 0.4737970
649.0991, 0.5159200
649.5812, 0.5954460
650.0634, 0.5555300
650.5455, 0.4048370
651.0276, 0.2740770
651.5097, 0.2263750
651.9918, 0.2320090
652.4739, 0.2704100
652.9561, 0.3298000
653.4382, 0.3505150
653.9203, 0.2633460
654.4024, 0.1549860
654.8845, 6.9776997E-02
655.3666, 1.4439000E-02
655.8488, 5.1890002E-03
656.3309, 5.5110000E-02
656.8130, 0.1195160
657.2951, 0.1390840
657.7772, 8.7435998E-02
658.2593, 6.2401000E-02
658.7415, 7.0876002E-02
659.2236, 9.5885001E-02
659.7057, 0.1089130
660.1878, 0.1108470
660.6699, 0.1678450
661.1520, 0.3131710
661.6342, 0.4604010
662.1163, 0.4768610
662.5984, 0.3955750
663.0805, 0.3027400
663.5626, 0.2168530
664.0447, 0.1484500
664.5269, 0.1153280
665.0090, 0.1067310
665.4911, 8.9780003E-02
665.9732, 2.5738999E-02
666.4553, 1.5923001E-02
666.9374, 5.4139998E-03
667.4196, 5.3885002E-02
667.9017, 0.1221430
668.3838, 0.2026050
668.8659, 0.2878720
669.3480, 0.3964810
669.8301, 0.5268020
670.3123, 0.5293750
670.7944, 0.3892010
671.2765, 0.2345130
671.7586, 0.1693280
672.2407, 0.1741840
672.7228, 0.2208600
673.2050, 0.3151560
673.6871, 0.3889940
674.1692, 0.3865360
674.6513, 0.3376830
675.1334, 0.2729280
675.6155, 0.1421790
676.0977, 8.2684003E-02
676.5798, 0.2024000
677.0619, 0.3867900
677.5440, 0.4607420
678.0261, 0.3653850
678.5082, 0.2817250
678.9904, 0.2377720
679.4725, 0.2262400
679.9546, 0.2353510
680.4367, 0.2652650
680.9188, 0.2877300
681.4009, 0.2937460
681.8831, 0.2826680
682.3652, 0.2390410
682.8473, 0.1711750
683.3294, 0.1225260
683.8115, 0.1271630
684.2936, 0.1533850
684.7758, 0.1821780
685.2579, 0.2118020
685.7400, 0.2299760
686.2221, 0.2419020
686.7042, 0.2550560
687.1863, 0.2678740
687.6685, 0.2730700
688.1506, 0.2755310
688.6327, 0.2836390
689.1148, 0.2720300
689.5969, 0.1975310
690.0790, 6.6674002E-02
690.5612, 7.9629999E-03
691.0433, 1.1851000E-02
691.5254, 2.4707001E-02
692.0075, 0.1011580
692.4896, 0.1866050
692.9717, 0.2188920
693.4539, 0.1584290
693.9360, 8.6471997E-02
694.4181, 4.4027001E-02
694.9002, 2.1926999E-02
695.3823, 5.8860001E-03
695.8644, 4.6252999E-02
696.3466, 4.0809002E-02
696.8287, 6.3027002E-02
697.3108, 0.2249140
697.7929, 0.3515620
698.2750, 0.4596050
698.7571, 0.4599560
699.2393, 0.2713270
699.7214, 1.5307000E-02
700.2035, 0.1013360
700.6856, 6.2730000E-03
701.1677, 0.1062890
701.6498, 0.1367740
702.1320, 0.1359880
702.6141, 0.1621470
703.0962, 0.2137320
703.5783, 0.2612530
704.0604, 0.3074410
704.5425, 0.3327620
705.0247, 0.3160290
705.5068, 0.2430780
705.9889, 0.2023720
706.4710, 0.2120140
706.9531, 0.2309580
707.4352, 0.2288780
707.9174, 0.2018920
708.3995, 0.2083010
708.8816, 0.2586880
709.3637, 0.2962260
709.8458, 0.2450300
710.3279, 0.1362040
710.8101, 3.8061999E-02
711.2922, 4.3460999E-02
711.7743, 8.2393996E-02
712.2564, 2.9130001E-02
712.7385, 6.5360002E-02
713.2206, 0.1390120
713.7028, 0.1316740
714.1849, 0.1631200
714.6670, 0.3254800
715.1491, 0.5074610
715.6312, 0.5402080
716.1133, 0.3410740
716.5955, 0.2293570
717.0776, 0.2844890
717.5597, 0.4264360
718.0418, 0.4917700
718.5239, 0.4852180
719.0060, 0.4432570
719.4882, 0.3378890
719.9703, 0.2505690
720.4524, 0.3338860
720.9345, 0.5253920
721.4166, 0.6427970
721.8987, 0.5407260
722.3809, 0.4007790
722.8630, 0.3003630
723.3451, 0.2392700
723.8272, 0.1874210
724.3093, 0.1446250
724.7914, 0.1064640
725.2736, 5.9094999E-02
725.7557, 7.4959998E-03
726.2378, 5.4078002E-02
726.7199, 0.2151830
727.2020, 0.3392780
727.6841, 0.2889170
728.1663, 0.1390220
728.6484, 4.3706998E-02
729.1305, 8.8310000E-03
729.6126, 2.5099000E-02
730.0947, 0.1556270
730.5768, 0.2878150
731.0590, 0.3160110
731.5411, 0.2022300
732.0232, 0.1172330
732.5053, 0.1127700
732.9874, 0.1289970
733.4695, 0.1310960
733.9517, 0.1055580
734.4338, 0.1240170
734.9159, 0.2041980
735.3980, 0.2783450
735.8801, 0.2501670
736.3622, 0.1486660
736.8444, 0.1010060
737.3265, 0.1347410
737.8086, 0.1888540
738.2907, 0.2037510
738.7728, 0.2019160
739.2549, 0.2109680
739.7371, 0.2517610
740.2192, 0.2831170
740.7013, 0.2849860
741.1834, 0.2738910
741.6655, 0.2717430
742.1476, 0.2799930
742.6298, 0.2966030
743.1119, 0.3297960
743.5940, 0.3599720
744.0761, 0.3305280
744.5582, 0.2512780
745.0403, 0.2283280
745.5225, 0.3204500
746.0046, 0.4358740
746.4867, 0.4616630
746.9688, 0.4244170
747.4509, 0.3809290
747.9330, 0.3662280
748.4152, 0.3370960
748.8973, 0.2501660
749.3794, 0.1377280
749.8615, 9.1453001E-02
750.3436, 0.1601620
750.8257, 0.2045210
751.3079, 0.1783110
751.7900, 0.1067110
752.2721, 8.5983999E-02
752.7542, 0.1159330
753.2363, 0.1433110
753.7184, 0.1365770
754.2006, 0.1151550
754.6827, 9.6721001E-02
755.1648, 7.8953996E-02
755.6469, 8.0054998E-02
756.1290, 0.1295280
756.6111, 0.1808440
757.0933, 0.2089090
757.5754, 0.2121610
758.0575, 0.2093780
758.5396, 0.2271840
759.0217, 0.2226820
759.5038, 0.1648290
759.9860, 6.3491002E-02
760.4681, 4.2043000E-02
760.9502, 0.1074180
761.4323, 0.1720750
761.9144, 0.1626440
762.3965, 0.1186590
762.8787, 0.1147540
763.3608, 0.1504100
763.8429, 0.1922670
764.3250, 0.2200500
764.8071, 0.2422040
765.2892, 0.2715870
765.7714, 0.3146000
766.2535, 0.3178530
766.7356, 0.2534880
767.2177, 0.1835280
767.6998, 0.1375500
768.1819, 0.1155920
768.6641, 0.1189290
769.1462, 0.1477530
769.6283, 0.1805370
770.1104, 0.2172850
770.5925, 0.2456360
771.0746, 0.2340860
771.5568, 0.1781740
772.0389, 0.1324210
772.5210, 0.1277620
773.0031, 0.1490460
773.4852, 0.1951990
773.9673, 0.2936040
774.4495, 0.3208980
774.9316, 0.2304090
775.4137, 0.1210070
775.8958, 5.8791000E-02
776.3779, 4.4059999E-02
776.8600, 9.5357999E-02
777.3422, 0.2217410
777.8243, 0.3367910
778.3064, 0.3252540
778.7885, 0.2456370
779.2706, 0.2135570
779.7527, 0.2552250
780.2349, 0.2961090
780.7170, 0.3010980
781.1991, 0.2797540
781.6812, 0.2368070
782.1633, 0.1424720
782.6454, 8.8399000E-02
783.1276, 8.3995000E-02
783.6097, 0.1087440
784.0918, 0.1500750
784.5739, 0.2083820
785.0560, 0.2521580
785.5381, 0.2778520
786.0203, 0.2895850
786.5024, 0.2647690
786.9845, 0.2389260
787.4666, 0.2895410
787.9487, 0.4815580
788.4308, 0.5886750
788.9130, 0.4028780
789.3951, 0.1292060
789.8772, 2.1029999E-02
790.3593, 3.6285002E-02
790.8414, 9.7525999E-02
791.3235, 0.1665970
791.8057, 0.2315200
792.2878, 0.2874570
792.7699, 0.3324760
793.2520, 0.3089810
793.7341, 0.1968680
794.2162, 6.9697000E-02
794.6984, 4.6509998E-03
795.1805, 3.8378999E-02
795.6626, 5.3314999E-02
796.1447, 6.6919997E-02
796.6268, 3.5645001E-02
797.1089, 0.1215980
797.5911, 0.2977690
798.0732, 0.3696280
798.5553, 0.2760330
799.0374, 0.2223860
799.5195, 0.2260280
800.0016, 0.2589590
800.4838, 0.3032630
800.9659, 0.3505590
801.4480, 0.3412260
801.9301, 0.2491130
802.4122, 0.1649380
802.8943, 0.2085320
803.3765, 0.3033090
803.8586, 0.3465610
804.3407, 0.2931630
804.8228, 0.2275230
805.3049, 0.1521300
805.7870, 8.0895998E-02
806.2692, 1.9371999E-02
806.7513, 4.8253998E-02
807.2334, 3.0410999E-02
807.7155, 0.1014020
808.1976, 0.2615290
808.6797, 0.3548010
809.1619, 0.3857190
809.6440, 0.3581930
810.1261, 0.2603510
810.6082, 0.1538220
811.0903, 6.2895000E-02
811.5724, 1.0350000E-03
812.0546, 2.2732999E-02
812.5367, 4.4654999E-02
813.0188, 8.1129000E-02
813.5009, 6.4335003E-02
813.9830, 3.2111000E-02
814.4651, 1.9990001E-02
814.9473, 2.7378000E-02
815.4294, 7.5108998E-02
815.9115, 0.1753310
816.3936, 0.2695350
816.8757, 0.2814820
817.3578, 0.2425680
817.8400, 0.1971280
818.3221, 0.1379030
818.8042, 0.1326520
819.2863, 0.3224740
819.7684, 0.5193950
820.2505, 0.5241640
820.7327, 0.1789720
821.2148, 7.3830001E-03
821.6969, 6.4650001E-03
822.1790, 0.1047100
822.6611, 0.1942630
823.1432, 0.2676610
823.6254, 0.2511740
824.1075, 0.1262080
824.5896, 9.3139997E-03
825.0717, 2.8278001E-02
825.5538, 0.1028650
826.0359, 0.1574620
826.5181, 0.1759690
827.0002, 0.1804660
827.4823, 0.1612950
827.9644, 0.1416030
828.4465, 0.1417160
828.9286, 0.1658090
829.4108, 0.1681080
829.8929, 0.1431840
830.3750, 0.1274030
830.8571, 0.1654310
831.3392, 0.2337210
831.8214, 0.2947330
832.3035, 0.3454350
832.7856, 0.3462420
833.2677, 0.1962330
833.7498, 4.0196002E-02
834.2319, 7.8159999E-03
834.7141, 9.1756999E-02
835.1962, 0.2064940
835.6783, 0.3826430
836.1604, 0.4953710
836.6425, 0.4190350
837.1246, 0.1721960
837.6068, 4.9040001E-02
838.0889, 5.1722001E-02
838.5710, 8.6571001E-02
839.0531, 9.4337001E-02
839.5352, 8.8316001E-02
840.0173, 7.9254001E-02
840.4995, 6.8292998E-02
840.9816, 6.4115003E-02
841.4637, 7.6347999E-02
841.9458, 8.9902997E-02
842.4279, 0.1051160
842.9100, 0.1184760
843.3922, 9.6192002E-02
843.8743, 3.0934000E-02
844.3564, 2.0718001E-02
844.8385, 1.7042000E-02
845.3206, 2.2329001E-02
845.8027, 5.4843999E-02
846.2849, 8.1450000E-02
846.7670, 0.1066940
847.2491, 0.1520400
847.7312, 0.1778920
848.2133, 0.1428970
848.6954, 5.7091001E-02
849.1776, 3.4444001E-02
849.6597, 0.1104200
850.1418, 0.1832880
850.6239, 0.2201070
851.1060, 0.2285750
851.5881, 0.2220530
852.0703, 0.2044810
852.5524, 0.2088840
853.0345, 0.2687700
853.5166, 0.3404040
853.9987, 0.3964280
854.4808, 0.4349070
854.9630, 0.4444120
855.4451, 0.3954500
855.9272, 0.3410130
856.4093, 0.2837880
856.8914, 0.2319640
857.3735, 0.2101040
857.8557, 0.2223620
858.3378, 0.2118020
858.8199, 0.1585930
859.3020, 8.4519997E-02
859.7841, 5.9499999E-04
860.2662, 7.9101004E-02
860.7484, 0.1110600
861.2305, 5.4726999E-02
861.7126, 8.0410000E-03
862.1947, 3.4453999E-02
862.6768, 5.5806998E-02
863.1589, 0.1188570
863.6411, 0.2511380
864.1232, 0.3518210
864.6053, 0.4045710
865.0874, 0.4225080
865.5695, 0.3906530
866.0516, 0.3290070
866.5338, 0.2979920
867.0159, 0.2990940
867.4980, 0.3809390
867.9801, 0.7482870
868.4622, 1.115741
868.9443, 1.184982
869.4265, 0.7158120
869.9086, 0.4182680
870.3907, 0.3581020
870.8728, 0.3789840
871.3549, 0.3721680
871.8370, 0.3378260
872.3192, 0.2662450
872.8013, 0.1551790
873.2834, 7.1388997E-02
873.7655, 9.2707999E-02
874.2476, 0.1529130
874.7297, 0.1868720
875.2119, 0.1880020
875.6940, 0.1886340
876.1761, 0.2144830
876.6582, 0.2205500
877.1403, 0.1759210
877.6224, 8.7577999E-02
878.1046, 6.4432003E-02
878.5867, 0.1101080
879.0688, 0.1418190
879.5509, 8.2630999E-02
880.0330, 3.5600000E-04
880.5151, 1.1349000E-02
880.9973, 8.9211002E-02
881.4794, 0.1314320
881.9615, 1.4123000E-02
882.4436, 5.8809001E-02
882.9257, 4.2614002E-02
883.4078, 0.2404870
883.8900, 0.3123870
884.3721, 0.2378850
884.8542, 0.1391510
885.3363, 3.5937998E-02
885.8184, 4.8027001E-02
886.3005, 6.2006000E-02
886.7827, 2.3166001E-02
887.2648, 2.4741000E-02
887.7469, 6.3363999E-02
888.2290, 0.1110330
888.7111, 0.2224890
889.1932, 0.3280290
889.6754, 0.3156940
890.1575, 0.1028500
890.6396, 4.0699998E-03
891.1217, 3.9427001E-02
891.6038, 0.1458360
892.0859, 0.2390880
892.5681, 0.3083000
893.0502, 0.2811570
893.5323, 0.1292990
894.0144, 1.2165000E-02
894.4965, 8.7177999E-02
894.9786, 0.2151830
895.4608, 0.2750610
895.9429, 0.2301460
896.4250, 0.2008330
896.9071, 0.1864680
897.3892, 0.1893070
897.8713, 0.2383000
898.3535, 0.3133060
898.8356, 0.2604090
899.3177, 8.9273997E-02
899.7998, 4.4667002E-02
900.2819, 3.1044999E-02
900.7640, 5.4396000E-02
901.2462, 0.2044430
901.7283, 0.3976560
902.2104, 0.4600990
902.6925, 0.2868790
903.1746, 0.1422710
903.6567, 9.9898003E-02
904.1389, 0.1384930
904.6210, 0.2228340
905.1031, 0.3413280
905.5852, 0.3897790
906.0673, 0.2802920
906.5494, 0.1461930
907.0316, 0.1009900
907.5137, 0.1186440
907.9958, 0.1521700
908.4779, 0.2081870
908.9600, 0.2558790
909.4421, 0.2966370
909.9243, 0.3236300
910.4064, 0.3279670
910.8885, 0.3099050
911.3706, 0.2667810
911.8527, 0.1917690
912.3348, 0.1336670
912.8170, 0.1739570
913.2991, 0.2389130
913.7812, 0.2364860
914.2633, 0.1297110
914.7454, 4.8046999E-02
915.2275, 2.7270000E-03
915.7097, 7.6609999E-03
916.1918, 5.5730999E-02
916.6739, 0.1860370
917.1560, 0.2998190
917.6381, 0.3953940
918.1202, 0.4443750
918.6024, 0.4174280
919.0845, 0.3536320
919.5666, 0.2786610
920.0487, 0.1939050
920.5308, 0.1141430
921.0129, 1.6153000E-02
921.4951, 6.0476001E-02
921.9772, 5.6035999E-02
922.4593, 0.2635060
922.9414, 0.3419900
923.4235, 0.2931580
923.9056, 0.2376490
924.3878, 0.2060430
924.8699, 0.2012870
925.3520, 0.2445400
925.8341, 0.3112400
926.3162, 0.3630910
926.7983, 0.3846290
927.2805, 0.3984880
927.7626, 0.4257710
928.2447, 0.4298600
928.7268, 0.3393990
929.2089, 0.1531050
929.6910, 0.1267520
930.1732, 0.2921410
930.6553, 0.4594360
931.1374, 0.4244820
931.6195, 0.3151490
932.1016, 0.2754620
932.5837, 0.3247560
933.0659, 0.3780520
933.5480, 0.4486420
934.0301, 0.4796450
934.5122, 0.4379400
934.9943, 0.3347800
935.4764, 0.2402650
935.9586, 0.1540390
936.4407, 0.1001620
936.9228, 0.1155010
937.4049, 0.1436980
937.8870, 0.1044030
938.3691, 3.3923000E-02
938.8513, 1.5843000E-02
939.3334, 0.1208460
939.8155, 0.2177660
940.2976, 0.2817430
940.7797, 0.3360100
941.2618, 0.4218690
941.7440, 0.5308480
942.2261, 0.5259240
942.7082, 0.3647640
943.1903, 0.1956500
943.6724, 0.1589850
944.1545, 0.1888110
944.6367, 0.2284150
945.1188, 0.2795570
945.6009, 0.2788130
946.0830, 0.1886950
946.5651, 0.1001680
947.0472, 6.3666999E-02
947.5294, 7.5167999E-02
948.0115, 0.1248500
948.4936, 0.2082590
948.9757, 0.2750520
949.4578, 0.2771380
949.9399, 0.2638640
950.4221, 0.2939540
950.9042, 0.3449660
951.3863, 0.3173430
951.8684, 0.1067660
952.3505, 8.3039999E-03
952.8326, 0.1138230
953.3148, 0.3049170
953.7969, 0.3390750
954.2790, 0.2569680
954.7611, 0.2563590
955.2432, 0.4159100
955.7253, 0.5286240
956.2075, 0.3764560
956.6896, 0.1530280
957.1717, 5.9361000E-02
957.6538, 0.1601610
958.1359, 0.2293580
958.6180, 0.2585350
959.1002, 0.2779820
959.5823, 0.3241030
960.0644, 0.3775530
960.5465, 0.3586540
961.0286, 0.2778290
961.5107, 0.2313020
961.9929, 0.3021910
962.4750, 0.3667240
962.9571, 0.3294640
963.4392, 0.2305530
963.9213, 0.2385300
964.4034, 0.4031760
964.8856, 0.4614090
965.3677, 0.3130360
965.8498, 0.1048130
966.3319, 7.8133002E-02
966.8140, 0.1667460
967.2961, 0.2398430
967.7783, 0.2654610
968.2604, 0.2652200
968.7425, 0.1876110
969.2246, 0.1348170
969.7067, 0.2091850
970.1888, 0.4446540
970.6710, 0.5361490
971.1531, 0.4652020
971.6352, 0.3766140
972.1173, 0.4073030
972.5994, 0.4805150
973.0815, 0.4733080
973.5637, 0.3927390
974.0458, 0.3308650
974.5279, 0.3447650
975.0100, 0.3585180
975.4921, 0.3480730
975.9742, 0.3281580
976.4564, 0.3401310
976.9385, 0.3820240
977.4206, 0.4162660
977.9027, 0.4350580
978.3848, 0.4364940
978.8669, 0.3817400
979.3491, 0.3246150
979.8312, 0.3475690
980.3133, 0.5295090
980.7954, 0.6039920
981.2775, 0.5095090
981.7596, 0.4017830
982.2418, 0.4188640
982.7239, 0.5234630
983.2060, 0.4817100
983.6881, 0.3128560
984.1702, 0.1964300
984.6523, 0.3148540
985.1345, 0.4491510
985.6166, 0.4644060
986.0987, 0.3844260
986.5808, 0.3135670
987.0629, 0.2419180
987.5450, 0.2363470
988.0272, 0.3242480
988.5093, 0.4268230
988.9914, 0.3883910
989.4735, 0.2743010
989.9556, 0.2238130
990.4377, 0.2815960
990.9199, 0.3411060
991.4020, 0.3814810
991.8841, 0.3863150
992.3662, 0.3295150
992.8483, 0.2080730
993.3304, 0.1791860
993.8126, 0.2492900
994.2947, 0.3002680
994.7768, 0.2102510
995.2589, 9.5108002E-02
995.7410, 0.1223290
996.2231, 0.2410960
996.7053, 0.3033960
997.1874, 0.1750260
997.6695, 0.1165170
998.1516, 0.2009750
998.6337, 0.3255000
999.1158, 0.2985340
999.5980, 0.1524390
1000.080, 0.1463870
1000.562, 0.3372260
1001.044, 0.4941810
1001.526, 0.3966650
1002.009, 0.2223820
1002.491, 0.1185510
1002.973, 0.1045950
1003.455, 7.4600004E-02
1003.937, 9.5530003E-03
1004.419, 7.8130001E-03
1004.901, 8.9006998E-02
1005.383, 0.2329540
1005.865, 0.2704930
1006.348, 0.2321740
1006.830, 0.2064010
1007.312, 0.2723580
1007.794, 0.3056900
1008.276, 0.2226380
1008.758, 0.1167550
1009.240, 9.5536001E-02
1009.722, 0.1707170
1010.205, 0.2160280
1010.687, 0.2248570
1011.169, 0.1941510
1011.651, 6.0557000E-02
1012.133, 7.2438002E-02
1012.615, 6.9284998E-02
1013.097, 6.9957003E-02
1013.579, 0.1600520
1014.061, 0.1476960
1014.544, 0.1223550
1015.026, 0.1052990
1015.508, 9.4903000E-02
1015.990, 8.5391998E-02
1016.472, 7.8304999E-02
1016.954, 8.4926002E-02
1017.436, 0.1245150
1017.918, 0.1380900
1018.401, 2.3910000E-03
1018.883, 0.1207290
1019.365, 3.6474001E-02
1019.847, 0.3444630
1020.329, 0.4732560
1020.811, 0.3089150
1021.293, 0.1164400
1021.775, 0.1088260
1022.257, 0.1807830
1022.740, 0.1477920
1023.222, 4.1501999E-02
1023.704, 7.7030002E-03
1024.186, 0.1025930
1024.668, 0.2057830
1025.150, 0.2751850
1025.632, 0.3116710
1026.114, 0.3180370
1026.596, 0.2934530
1027.079, 0.2146210
1027.561, 6.8291001E-02
1028.043, 5.1945999E-02
1028.525, 3.5374001E-02
1029.007, 1.5321000E-02
1029.489, 7.7899999E-04
1029.971, 9.7228996E-02
1030.453, 0.1265210
1030.936, 7.5299002E-02
1031.418, 1.3960000E-03
1031.900, 9.2254996E-02
1032.382, 0.1816890
1032.864, 0.2361470
1033.346, 0.2639870
1033.828, 0.2848220
1034.310, 0.3313990
1034.792, 0.3305870
1035.275, 0.2157680
1035.757, 9.0034001E-02
1036.239, 3.9832000E-02
1036.721, 6.5463997E-02
1037.203, 0.1284470
1037.685, 0.2265020
1038.167, 0.3455310
1038.649, 0.5596750
1039.132, 0.7179500
1039.614, 0.6346160
1040.096, 0.3688040
1040.578, 0.2539890
1041.060, 0.3895660
1041.542, 0.4440870
1042.024, 0.3337300
1042.506, 0.1640760
1042.989, 9.0520002E-02
1043.471, 7.7338003E-02
1043.953, 3.9388999E-02
1044.435, 5.2212000E-02
1044.917, 9.3323000E-02
1045.399, 5.1079998E-03
1045.881, 0.1162930
1046.363, 0.1831600
1046.845, 0.2073170
1047.328, 0.1908960
1047.810, 0.1362230
1048.292, 8.5945003E-02
1048.774, 4.3883000E-02
1049.256, 3.2393001E-02
1049.738, 0.1003690
1050.220, 0.2004030
1050.702, 0.2524470
1051.184, 0.2158450
1051.667, 0.2205580
1052.149, 0.2813670
1052.631, 0.3435980
1053.113, 0.3569670
1053.595, 0.3395130
1054.077, 0.3240740
1054.559, 0.3116650
1055.041, 0.2972210
1055.523, 0.2568030
1056.006, 0.2446390
1056.488, 0.2962310
1056.970, 0.3655990
1057.452, 0.3548770
1057.934, 0.2754930
1058.416, 0.2420330
1058.898, 0.2852100
1059.380, 0.3182640
1059.863, 0.2342590
1060.345, 0.1373030
1060.827, 0.1359430
1061.309, 0.2389860
1061.791, 0.2490990
1062.273, 0.1423690
1062.755, 5.2232001E-02
1063.237, 2.9950000E-02
1063.719, 6.5279000E-02
1064.202, 0.2062750
1064.684, 0.3792830
1065.166, 0.4381560
1065.648, 0.2288320
1066.130, 0.1003930
1066.612, 0.1246830
1067.094, 0.1805810
1067.576, 0.1454020
1068.059, 4.8944000E-02
1068.541, 0.1030300
1069.023, 0.2871120
1069.505, 0.4125250
1069.987, 0.2769770
1070.469, 0.1441240
1070.951, 0.1793230
1071.433, 0.3019690
1071.916, 0.3632310
1072.398, 0.3514590
1072.880, 0.3874290
1073.362, 0.4950010
1073.844, 0.5985050
1074.326, 0.6418770
1074.808, 0.6262700
1075.290, 0.5211900
1075.772, 0.3256070
1076.255, 0.2119440
1076.737, 0.1986300
1077.219, 0.2405040
1077.701, 0.3337060
1078.183, 0.4405150
1078.665, 0.4950730
1079.147, 0.5069500
1079.629, 0.4952130
1080.111, 0.4557080
1080.594, 0.4272470
1081.076, 0.4078700
1081.558, 0.3962630
1082.040, 0.3996150
1082.522, 0.4177560
1083.004, 0.4698640
1083.486, 0.5503120
1083.968, 0.6017100
1084.450, 0.5900300
1084.933, 0.5424100
1085.415, 0.4201160
1085.897, 0.2942840
1086.379, 0.3001750
1086.861, 0.5067980
1087.343, 0.5552690
1087.825, 0.4034140
1088.307, 0.2332910
1088.790, 0.2185820
1089.272, 0.2717990
1089.754, 0.2662990
1090.236, 0.2170680
1090.718, 0.2414760
1091.200, 0.4531510
1091.682, 0.5613740
1092.164, 0.4840730
1092.646, 0.3438760
1093.129, 0.3400530
1093.611, 0.4202110
1094.093, 0.4533480
1094.575, 0.4170940
1095.057, 0.3725410
1095.539, 0.3288380
1096.021, 0.3043740
1096.503, 0.3114540
1096.986, 0.3415120
1097.468, 0.3750980
1097.950, 0.4072640
1098.432, 0.3854310
1098.914, 0.2618990
1099.396, 0.1674170
1099.878, 0.2273390
1100.360, 0.3330720
1100.843, 0.3755450
1101.325, 0.3447140
1101.807, 0.3427330
1102.289, 0.3727560
1102.771, 0.3675230
1103.253, 0.2532420
1103.735, 0.1161530
1104.217, 6.5560997E-02
1104.699, 6.8797998E-02
1105.182, 6.1988000E-02
1105.664, 1.7833000E-02
1106.146, 7.0509999E-03
1106.628, 0.1156960
1107.110, 0.2833760
1107.592, 0.4797190
1108.074, 0.6616150
1108.556, 0.7559770
1109.038, 0.7590520
1109.521, 0.6734080
1110.003, 0.3636710
1110.485, 0.1461880
1110.967, 8.9667000E-02
1111.449, 0.1446190
1111.931, 0.3090260
1112.413, 0.5295670
1112.895, 0.5059440
1113.377, 0.1973430
1113.860, 4.0739998E-02
1114.342, 6.5006003E-02
1114.824, 0.2481980
1115.306, 0.3993230
1115.788, 0.5124420
1116.270, 0.5361870
1116.752, 0.4813150
1117.234, 0.4037610
1117.717, 0.3077040
1118.199, 0.2297180
1118.681, 0.1804880
1119.163, 0.1802330
1119.645, 0.2867490
1120.127, 0.5079340
1120.609, 0.5652290
1121.091, 0.4318240
1121.573, 0.3029370
1122.056, 0.2651280
1122.538, 0.2663260
1123.020, 0.2389140
1123.502, 0.2036080
1123.984, 0.1955000
1124.466, 0.2476900
1124.948, 0.2587290
1125.430, 0.2036110
1125.913, 0.1698620
1126.395, 0.2611050
1126.877, 0.3931290
1127.359, 0.3369880
1127.841, 0.1601470
1128.323, 5.0592002E-02
1128.805, 0.1516640
1129.287, 0.2211090
1129.770, 0.2225500
1130.252, 0.1909090
1130.734, 0.1528440
1131.216, 0.1107700
1131.698, 6.4127997E-02
1132.180, 1.7240001E-02
1132.662, 1.0840000E-03
1133.144, 4.4868998E-02
1133.626, 0.1105500
1134.109, 0.2229360
1134.591, 0.3197660
1135.073, 0.2606580
1135.555, 6.7906000E-02
1136.037, 5.0182998E-02
1136.519, 0.2478560
1137.001, 0.3867910
1137.483, 0.1509660
1137.965, 9.3419001E-02
1138.448, 6.7979999E-02
1138.930, 0.1350380
1139.412, 0.2241310
1139.894, 0.1929220
1140.376, 0.1966600
1140.858, 0.2735070
1141.340, 0.3504160
1141.822, 0.3745350
1142.304, 0.3563510
1142.787, 0.2855320
1143.269, 0.1651090
1143.751, 0.1045610
1144.233, 0.1153670
1144.715, 0.1249510
1145.197, 0.1074550
1145.679, 8.2133003E-02
1146.161, 4.8471000E-02
1146.644, 3.3500999E-02
1147.126, 9.1845997E-02
1147.608, 0.2763470
1148.090, 0.3309780
1148.572, 0.1991170
1149.054, 0.1079750
1149.536, 0.2012980
1150.018, 0.3642420
1150.500, 0.4128950
1150.983, 0.3761480
1151.465, 0.3056470
1151.947, 0.1601310
1152.429, 0.1110900
1152.911, 0.2112560
1153.393, 0.3156390
1153.875, 0.3049840
1154.357, 0.2305440
1154.840, 0.2594490
1155.322, 0.3486920
1155.804, 0.3603990
1156.286, 0.1187990
1156.768, 2.7813001E-02
1157.250, 9.7920001E-03
1157.732, 7.7524997E-02
1158.214, 0.1832360
1158.697, 0.2841700
1159.179, 0.2290930
1159.661, 5.1118001E-02
1160.143, 3.9655000E-02
1160.625, 0.1782810
1161.107, 0.3503930
1161.589, 0.3540510
1162.071, 0.2781020
1162.553, 0.2144030
1163.036, 0.1669680
1163.518, 0.1817460
1164.000, 0.2574000
1164.482, 0.2988110
1164.964, 0.1710050
1165.446, 8.2292996E-02
1165.928, 0.1693010
1166.410, 0.3380830
1166.892, 0.4220660
1167.375, 0.4256210
1167.857, 0.4002610
1168.339, 0.3525090
1168.821, 0.2843610
1169.303, 0.1613060
1169.785, 5.2790001E-02
1170.267, 6.0500000E-03
1170.749, 8.0639999E-03
1171.231, 4.8563998E-02
1171.714, 0.1249380
1172.196, 9.2491999E-02
1172.678, 0.1080660
1173.160, 0.2462460
1173.642, 3.5604998E-02
1174.124, 0.2452100
1174.606, 0.3729010
1175.088, 0.3618340
1175.571, 0.2867140
1176.053, 0.1404320
1176.535, 6.9370002E-02
1177.017, 0.1296250
1177.499, 0.2240660
1177.981, 0.2919170
1178.463, 0.3251470
1178.945, 0.2964400
1179.427, 0.2069560
1179.910, 0.1806180
1180.392, 0.2243020
1180.874, 0.2606930
1181.356, 0.2608350
1181.838, 0.2425320
1182.320, 0.2012210
1182.802, 0.1654940
1183.284, 0.1827300
1183.767, 0.2699810
1184.249, 0.2854430
1184.731, 0.2169920
1185.213, 0.1562120
1185.695, 0.1412530
1186.177, 0.1632060
1186.659, 0.2351420
1187.141, 0.3267480
1187.624, 0.3954290
1188.106, 0.4367250
1188.588, 0.4531990
1189.070, 0.4450890
1189.552, 0.4088020
1190.034, 0.3130420
1190.516, 0.2198430
1190.998, 0.2320050
1191.480, 0.2915230
1191.963, 0.2948800
1192.445, 0.1710450
1192.927, 0.1534180
1193.409, 0.2717480
1193.891, 0.3592090
1194.373, 0.2542410
1194.855, 8.8275999E-02
1195.337, 3.8449001E-02
1195.819, 5.4970998E-02
1196.302, 4.9495999E-02
1196.784, 1.6775001E-02
1197.266, 4.7846999E-02
1197.748, 4.2236000E-02
1198.230, 3.1800001E-04
1198.712, 0.1258820
1199.194, 0.2559660
1199.676, 0.2506890
1200.158, 0.1622540
1200.641, 0.1422370
1201.123, 0.2827340
1201.605, 0.3201230
1202.087, 0.2202770
1202.569, 9.7345002E-02
1203.051, 3.1918000E-02
1203.533, 2.1147000E-02
1204.015, 8.8319004E-02
1204.498, 0.2085440
1204.980, 0.3009500
1205.462, 0.3759080
1205.944, 0.3549720
1206.426, 0.2017090
1206.908, 6.2693998E-02
1207.390, 0.1289320
1207.872, 0.2636060
1208.354, 0.2742460
1208.837, 0.1861170
1209.319, 0.1543320
1209.801, 0.2227070
1210.283, 0.2755590
1210.765, 0.2966390
1211.247, 0.3116240
1211.729, 0.3610010
1212.211, 0.4117670
1212.694, 0.4217980
1213.176, 0.3923510
1213.658, 0.3368160
1214.140, 0.2219070
1214.622, 0.2001970
1215.104, 0.3209090
1215.586, 0.4459400
1216.068, 0.4092430
1216.551, 0.3001480
1217.033, 0.2067320
1217.515, 0.1397880
1217.997, 0.1219840
1218.479, 0.1743300
1218.961, 0.2288780
1219.443, 0.2783520
1219.925, 0.3136680
1220.407, 0.3301380
1220.890, 0.3237590
1221.372, 0.2735870
1221.854, 0.1870270
1222.336, 0.1356560
1222.818, 0.1252590
1223.300, 0.1397700
1223.782, 0.1802090
1224.264, 0.2293000
1224.746, 0.2948590
1225.229, 0.3417890
1225.711, 0.3163120
1226.193, 0.2265330
1226.675, 0.1599300
1227.157, 0.1086740
1227.639, 0.1437070
1228.121, 0.2998620
1228.603, 0.4485680
1229.085, 0.4376960
1229.568, 0.3649180
1230.050, 0.3229890
1230.532, 0.3045990
1231.014, 0.2228590
1231.496, 8.2794003E-02
1231.978, 6.4787999E-02
1232.460, 0.2356420
1232.942, 0.3961890
1233.425, 0.3147910
1233.907, 0.1698550
1234.389, 0.1098150
1234.871, 0.1333010
1235.353, 0.1935780
1235.835, 0.2923570
1236.317, 0.3866910
1236.799, 0.4729750
1237.281, 0.5131950
1237.764, 0.4524040
1238.246, 0.3518460
1238.728, 0.2348890
1239.210, 0.1202780
1239.692, 0.1093650
1240.174, 0.1969850
1240.656, 0.2285290
1241.138, 0.1547200
1241.621, 9.4818003E-02
1242.103, 0.1889560
1242.585, 0.2764190
1243.067, 0.2261490
1243.549, 8.7732002E-02
1244.031, 5.7564002E-02
1244.513, 0.1213980
1244.995, 0.1669130
1245.478, 0.1596810
1245.960, 0.1630690
1246.442, 0.2799990
1246.924, 0.3413910
1247.406, 0.2195140
1247.888, 4.3000001E-03
1248.370, 8.1900001E-04
1248.852, 0.1584010
1249.334, 0.2694040
1249.817, 0.2767670
1250.299, 0.2586980
1250.781, 0.2289210
1251.263, 0.2081080
1251.745, 0.2094790
1252.227, 0.2235440
1252.709, 0.2079320
1253.191, 0.1867290
1253.673, 0.2521010
1254.156, 0.4415090
1254.638, 0.5479670
1255.120, 0.4672920
1255.602, 0.3474320
1256.084, 0.2113910
1256.566, 9.8783001E-02
1257.048, 0.1290690
1257.530, 0.2310340
1258.012, 0.2397060
1258.495, 0.1114680
1258.977, 6.8074003E-02
1259.459, 0.1831760
1259.941, 0.2815240
1260.423, 0.2985770
1260.905, 0.2912910
1261.387, 0.3999330
1261.869, 0.5182030
1262.352, 0.4507280
1262.834, 0.1543670
1263.316, 2.1670000E-03
1263.798, 4.4769000E-02
1264.280, 0.1147120
1264.762, 0.1759240
1265.244, 0.2042420
1265.726, 0.1111770
1266.208, 7.4860002E-03
1266.691, 3.9133001E-02
1267.173, 0.2150130
1267.655, 0.3401000
1268.137, 0.4168760
1268.619, 0.4018130
1269.101, 0.2581510
1269.583, 0.1359290
1270.065, 0.2170350
1270.548, 0.3510050
1271.030, 0.4095440
1271.512, 0.4010990
1271.994, 0.3579900
1272.476, 0.2818800
1272.958, 0.1994890
1273.440, 0.1093420
1273.922, 7.3207997E-02
1274.405, 0.2084300
1274.887, 0.3320710
1275.369, 0.3104740
1275.851, 0.2132300
1276.333, 0.2404090
1276.815, 0.3557650
1277.297, 0.3521390
1277.779, 0.1821600
1278.261, 4.0704001E-02
1278.744, 4.0373001E-02
1279.226, 8.2344003E-02
1279.708, 0.1501760
1280.190, 0.2109980
1280.672, 0.1880970
1281.154, 0.1101810
1281.636, 3.1434000E-02
1282.118, 4.0839002E-02
1282.600, 5.5452999E-02
1283.083, 4.5363002E-02
1283.565, 0.1276130
1284.047, 0.1530030
1284.529, 0.1496230
1285.011, 0.1820640
1285.493, 0.2121460
1285.975, 0.1529230
1286.457, 1.0963000E-02
1286.939, 2.1340000E-03
1287.422, 0.2072120
1287.904, 0.2962510
1288.386, 0.1848850
1288.868, 4.7143999E-02
1289.350, 5.2630998E-02
1289.832, 0.1368170
1290.314, 0.2753550
1290.796, 0.4347910
1291.279, 0.4922000
1291.761, 0.4335780
1292.243, 0.3357690
1292.725, 0.2276290
1293.207, 0.1623040
1293.689, 0.1285580
1294.171, 0.1070490
1294.653, 6.5908998E-02
1295.135, 4.6739999E-02
1295.618, 3.4487002E-02
1296.100, 3.3160999E-02
1296.582, 6.6880003E-02
1297.064, 0.1282030
1297.546, 0.1733730
1298.028, 0.1620950
1298.510, 0.1329610
1298.992, 9.3806997E-02
1299.475, 5.6618001E-02
1299.957, 2.4257001E-02
1300.439, 1.5360001E-03
1300.921, 4.3641001E-02
1301.403, 6.5311000E-02
1301.885, 0.0000000E+00
##END=



