##NAMES=Graphite
##RRUFFID=R120025
##IDEAL CHEMISTRY=C
##LOCALITY=Saint-Sauveur Graphite occurrence, Saint-Sauveur, Les Pays-d'en-Haut RCM, Laurentides, Qu√©bec, Canada
##OWNER=RRUFF
##SOURCE=Donald Doell
##DESCRIPTION=Semi-metallic, dark gray flakes
##STATUS=The identification of this mineral is not yet confirmed.
##URL=rruff.info/R120025
116.2696, 0.0000000E+00
116.7517, 0.1486800
117.2339, 0.3454840
117.7160, 0.3907910
118.1981, 0.1970480
118.6802, 4.3051001E-02
119.1623, 9.6530002E-03
119.6444, 3.3031002E-02
120.1266, 0.1774600
120.6087, 0.4934020
121.0908, 0.8561690
121.5729, 1.030405
122.0550, 0.9532970
122.5371, 0.7967190
123.0193, 0.7147090
123.5014, 0.7164890
123.9835, 0.7016120
124.4656, 0.5504900
124.9477, 0.3871120
125.4298, 0.3313660
125.9120, 0.4724350
126.3941, 0.7187480
126.8762, 0.8519290
127.3583, 0.7761810
127.8404, 0.6880530
128.3225, 0.6776750
128.8047, 0.7478140
129.2868, 0.8085070
129.7689, 0.8338990
130.2510, 0.8402080
130.7331, 0.8346230
131.2152, 0.7596850
131.6974, 0.6783400
132.1795, 0.5853680
132.6616, 0.4966000
133.1437, 0.4506640
133.6258, 0.5163110
134.1079, 0.7358130
134.5901, 0.8464500
135.0722, 0.8631050
135.5543, 0.8319010
136.0364, 0.7367820
136.5185, 0.5803870
137.0006, 0.4190950
137.4828, 0.3599710
137.9649, 0.4696110
138.4470, 0.5873890
138.9291, 0.8815780
139.4112, 1.172221
139.8933, 1.175541
140.3755, 0.7478210
140.8576, 0.2428470
141.3397, 6.1948001E-02
141.8218, 0.1192910
142.3039, 0.2317830
142.7860, 0.2762450
143.2681, 0.2274300
143.7503, 0.1674520
144.2324, 0.1051500
144.7145, 7.2415002E-02
145.1966, 9.5167004E-02
145.6787, 0.1928200
146.1608, 0.2953770
146.6430, 0.3486980
147.1251, 0.3407760
147.6072, 0.3250020
148.0893, 0.2944560
148.5714, 0.2970240
149.0535, 0.4089890
149.5357, 0.6173940
150.0178, 0.8059830
150.4999, 0.7728410
150.9820, 0.3398530
151.4641, 8.9561999E-02
151.9462, 0.2344880
152.4284, 0.4903870
152.9105, 0.6347040
153.3926, 0.5841730
153.8747, 0.4076660
154.3568, 0.2649030
154.8389, 0.1622170
155.3211, 8.8889003E-02
155.8032, 4.7455002E-02
156.2853, 3.3278000E-02
156.7674, 5.5204000E-02
157.2495, 0.1211800
157.7316, 0.2099690
158.2138, 0.2141860
158.6959, 1.5457000E-02
159.1780, 0.1311950
159.6601, 0.1394710
160.1422, 4.5039002E-02
160.6243, 7.7414997E-02
161.1065, 0.2060340
161.5886, 0.3227070
162.0707, 0.3493850
162.5528, 0.1914900
163.0349, 4.3136001E-02
163.5170, 3.9289001E-02
163.9991, 0.1607320
164.4813, 0.2414950
164.9634, 0.1112400
165.4455, 0.1174920
165.9276, 0.1756830
166.4097, 0.1179830
166.8918, 0.4776910
167.3740, 0.5279150
167.8561, 0.1991280
168.3382, 0.1081090
168.8203, 0.1247840
169.3024, 8.1979996E-03
169.7845, 0.1331090
170.2667, 0.1995590
170.7488, 0.2147280
171.2309, 0.1754440
171.7130, 3.4759998E-02
172.1951, 7.1295001E-02
172.6772, 7.3472001E-02
173.1594, 1.7840000E-02
173.6415, 2.9224999E-02
174.1236, 5.4497000E-02
174.6057, 3.9381001E-02
175.0878, 3.5425000E-02
175.5699, 6.1517000E-02
176.0521, 7.7353001E-02
176.5342, 4.4833001E-02
177.0163, 4.4109998E-03
177.4984, 9.7519998E-03
177.9805, 8.1405997E-02
178.4626, 0.2704250
178.9448, 0.3961790
179.4269, 0.4548160
179.9090, 0.4555290
180.3911, 0.3538600
180.8732, 0.1873680
181.3553, 4.1482002E-02
181.8375, 9.3139997E-03
182.3196, 4.5437001E-02
182.8017, 0.1017590
183.2838, 0.2050840
183.7659, 0.2712180
184.2480, 0.2184590
184.7301, 6.8735003E-02
185.2123, 5.8967002E-02
185.6944, 4.3862000E-02
186.1765, 0.1412420
186.6586, 0.2531480
187.1407, 0.2431790
187.6228, 0.1977000
188.1050, 0.1751790
188.5871, 0.1826310
189.0692, 0.2016480
189.5513, 0.2213330
190.0334, 0.2404580
190.5155, 0.2374540
190.9977, 0.1767050
191.4798, 0.1089320
191.9619, 9.9752001E-02
192.4440, 0.1643740
192.9261, 0.2434660
193.4082, 0.2784250
193.8904, 0.2810050
194.3725, 0.2810550
194.8546, 0.2837530
195.3367, 0.2912270
195.8188, 0.3072840
196.3009, 0.3321400
196.7831, 0.3670660
197.2652, 0.4352340
197.7473, 0.5171150
198.2294, 0.5563910
198.7115, 0.4901790
199.1936, 0.3472870
199.6758, 0.2567190
200.1579, 0.2305320
200.6400, 0.2493740
201.1221, 0.3256040
201.6042, 0.4351230
202.0863, 0.5182310
202.5685, 0.5087880
203.0506, 0.4178310
203.5327, 0.4096560
204.0148, 0.5609130
204.4969, 0.7204530
204.9790, 0.8594140
205.4612, 0.9624370
205.9433, 1.003136
206.4254, 0.9398190
206.9075, 0.7637230
207.3896, 0.6603160
207.8717, 0.7660360
208.3539, 0.8216970
208.8360, 0.6702590
209.3181, 0.3801980
209.8002, 0.1531130
210.2823, 0.1827260
210.7644, 0.5105750
211.2466, 0.7110240
211.7287, 0.7093660
212.2108, 0.6634540
212.6929, 0.6027320
213.1750, 0.5464570
213.6571, 0.5220800
214.1393, 0.5596840
214.6214, 0.6719780
215.1035, 0.7728250
215.5856, 0.9102040
216.0677, 0.9974990
216.5498, 0.9449380
217.0320, 0.7749640
217.5141, 0.6231740
217.9962, 0.6253290
218.4783, 0.8088890
218.9604, 0.8802360
219.4425, 0.7235940
219.9247, 0.5592200
220.4068, 0.5468470
220.8889, 0.6771560
221.3710, 0.8026800
221.8531, 0.7781210
222.3352, 0.5916960
222.8174, 0.5287740
223.2995, 0.6938820
223.7816, 0.8953180
224.2637, 1.007303
224.7458, 1.011202
225.2279, 0.9691560
225.7100, 0.9171010
226.1922, 0.8480160
226.6743, 0.7873700
227.1564, 0.7241380
227.6385, 0.6878960
228.1206, 0.7384630
228.6027, 0.8814670
229.0849, 0.9908920
229.5670, 0.9196280
230.0491, 0.7388790
230.5312, 0.6637430
231.0133, 0.8199730
231.4954, 1.050036
231.9776, 1.183443
232.4597, 1.213464
232.9418, 1.187649
233.4239, 1.088251
233.9060, 0.9596540
234.3881, 0.8720590
234.8703, 0.8600340
235.3524, 0.8824290
235.8345, 0.8749930
236.3166, 0.8223300
236.7987, 0.7964310
237.2808, 0.8845840
237.7630, 1.005025
238.2451, 1.056722
238.7272, 0.9784410
239.2093, 0.8601930
239.6914, 0.8636020
240.1735, 1.040592
240.6557, 1.190088
241.1378, 1.204268
241.6199, 1.167408
242.1020, 1.161710
242.5841, 1.224477
243.0662, 1.303566
243.5484, 1.305999
244.0305, 1.204484
244.5126, 1.117046
244.9947, 1.061635
245.4768, 1.039968
245.9589, 1.074971
246.4410, 1.178602
246.9232, 1.288672
247.4053, 1.283492
247.8874, 1.095217
248.3695, 0.9530010
248.8516, 0.9428110
249.3337, 0.9612210
249.8159, 0.9172000
250.2980, 0.7856490
250.7801, 0.6334180
251.2622, 0.5816000
251.7443, 0.7091110
252.2264, 0.7590710
252.7086, 0.6144580
253.1907, 0.4568870
253.6728, 0.4359460
254.1549, 0.5810940
254.6370, 0.7864050
255.1191, 0.8872940
255.6013, 0.8253050
256.0834, 0.7795280
256.5655, 0.7567770
257.0476, 0.7449700
257.5297, 0.7431250
258.0118, 0.7480240
258.4940, 0.7484870
258.9761, 0.7247090
259.4582, 0.6526920
259.9403, 0.6191650
260.4224, 0.6449400
260.9045, 0.6833040
261.3867, 0.7244700
261.8688, 0.7586810
262.3509, 0.7582880
262.8330, 0.6744070
263.3151, 0.4634480
263.7972, 0.3422940
264.2794, 0.3388190
264.7615, 0.3810810
265.2436, 0.4591010
265.7257, 0.5559550
266.2078, 0.6306300
266.6899, 0.6410020
267.1721, 0.5709340
267.6542, 0.5125900
268.1363, 0.5040240
268.6184, 0.4782960
269.1005, 0.3715590
269.5826, 0.2063750
270.0648, 6.8094999E-02
270.5469, 2.9044000E-02
271.0290, 9.3185998E-02
271.5111, 0.1594550
271.9932, 0.2255640
272.4753, 0.2964620
272.9575, 0.3981630
273.4396, 0.5097310
273.9217, 0.5733470
274.4038, 0.5441240
274.8859, 0.4300150
275.3680, 0.3346530
275.8501, 0.2212540
276.3322, 0.1608270
276.8144, 0.2259430
277.2965, 0.3616960
277.7786, 0.4420620
278.2607, 0.3906730
278.7428, 0.2458400
279.2249, 0.1710040
279.7071, 0.2013550
280.1892, 0.2417850
280.6713, 0.2896870
281.1534, 0.3312130
281.6355, 0.3287630
282.1176, 0.2576270
282.5998, 0.1571650
283.0819, 0.1377360
283.5640, 0.2521750
284.0461, 0.3341240
284.5282, 0.3229420
285.0103, 0.2659780
285.4925, 0.2411700
285.9746, 0.2787360
286.4567, 0.3275150
286.9388, 0.2849340
287.4209, 0.1072790
287.9030, 4.9319998E-03
288.3852, 2.1702999E-02
288.8673, 0.1143030
289.3494, 0.1860620
289.8315, 0.2174030
290.3136, 0.2356900
290.7957, 0.2862050
291.2779, 0.3807780
291.7600, 0.4034000
292.2421, 0.2743340
292.7242, 0.1062740
293.2063, 3.9380002E-03
293.6884, 1.9254001E-02
294.1706, 5.1730000E-03
294.6527, 6.1067998E-02
295.1348, 0.1484850
295.6169, 0.2165230
296.0990, 0.2434930
296.5811, 0.2643770
297.0633, 0.3317080
297.5454, 0.4379750
298.0275, 0.4906420
298.5096, 0.4084110
298.9917, 0.2100180
299.4738, 5.3172000E-02
299.9560, 9.4255999E-02
300.4381, 0.1723930
300.9202, 9.3560003E-02
301.4023, 0.1057550
301.8844, 0.2521240
302.3665, 0.2361580
302.8487, 0.1185420
303.3308, 8.8054001E-02
303.8129, 0.1859450
304.2950, 0.2926560
304.7771, 0.3757120
305.2592, 0.4291720
305.7414, 0.4315680
306.2235, 0.3663090
306.7056, 0.2608460
307.1877, 0.1535180
307.6698, 2.0299001E-02
308.1519, 3.9684001E-02
308.6341, 7.2965004E-02
309.1162, 0.2662960
309.5983, 0.3724570
310.0804, 0.3382520
310.5625, 0.2532910
311.0446, 0.2406570
311.5268, 0.3035070
312.0089, 0.3439900
312.4910, 0.2988330
312.9731, 0.2408850
313.4552, 0.2870300
313.9373, 0.4589630
314.4195, 0.6071770
314.9016, 0.5649510
315.3837, 0.3462660
315.8658, 0.2037650
316.3479, 0.2036820
316.8300, 0.2548380
317.3121, 0.3068050
317.7943, 0.3523460
318.2764, 0.3439260
318.7585, 0.2129930
319.2406, 6.4289998E-03
319.7227, 6.4475000E-02
320.2048, 0.1270910
320.6870, 0.3236530
321.1691, 0.3827620
321.6512, 0.3282230
322.1333, 0.2411350
322.6154, 0.1497590
323.0975, 5.9962999E-02
323.5797, 1.7480999E-02
324.0618, 0.1045730
324.5439, 0.1399610
325.0260, 6.3101999E-02
325.5081, 7.8832999E-02
325.9902, 0.1878200
326.4724, 0.2265170
326.9545, 0.2262990
327.4366, 0.2434860
327.9187, 0.2869010
328.4008, 0.3011380
328.8829, 0.2526570
329.3651, 0.1805530
329.8472, 0.1277490
330.3293, 0.1017560
330.8114, 9.2864998E-02
331.2935, 9.3979001E-02
331.7756, 0.1059920
332.2578, 0.1163270
332.7399, 0.1249230
333.2220, 0.1312500
333.7041, 0.1364940
334.1862, 0.1401470
334.6683, 0.1379750
335.1505, 0.1255220
335.6326, 0.1039210
336.1147, 8.6457998E-02
336.5968, 6.3084997E-02
337.0789, 5.3238999E-02
337.5610, 7.6512001E-02
338.0432, 0.1192890
338.5253, 0.1491200
339.0074, 0.1503240
339.4895, 0.1302670
339.9716, 0.1047790
340.4537, 5.0235000E-02
340.9359, 3.9188001E-02
341.4180, 0.1063060
341.9001, 0.2090380
342.3822, 0.3082370
342.8643, 0.3926900
343.3464, 0.4396590
343.8286, 0.4106040
344.3107, 0.2649900
344.7928, 0.1662310
345.2749, 0.1248490
345.7570, 0.1239920
346.2391, 0.1755480
346.7213, 0.2681910
347.2034, 0.3448900
347.6855, 0.3494830
348.1676, 0.2769790
348.6497, 0.2282340
349.1318, 0.2056210
349.6140, 0.1994430
350.0961, 0.2264680
350.5782, 0.2668720
351.0603, 0.2734680
351.5424, 0.2139780
352.0245, 0.1106120
352.5067, 5.6361001E-02
352.9888, 6.3754998E-02
353.4709, 0.1041870
353.9530, 0.2251150
354.4351, 0.3576350
354.9172, 0.4136570
355.3994, 0.3635330
355.8815, 0.2588370
356.3636, 0.1854690
356.8457, 0.1386750
357.3278, 0.1243160
357.8099, 0.1728540
358.2920, 0.2230540
358.7741, 0.2443370
359.2563, 0.2306950
359.7384, 0.1919000
360.2205, 0.1338290
360.7026, 4.9708001E-02
361.1847, 9.4029997E-03
361.6668, 5.0492000E-02
362.1490, 9.4411001E-02
362.6311, 0.1051210
363.1132, 9.9853002E-02
363.5953, 0.1197740
364.0774, 0.1933230
364.5595, 0.3013560
365.0417, 0.3614550
365.5238, 0.3474040
366.0059, 0.3053470
366.4880, 0.2020570
366.9701, 9.7842000E-02
367.4522, 6.0146999E-02
367.9344, 0.1079970
368.4165, 0.1922260
368.8986, 0.2341330
369.3807, 0.2110360
369.8628, 0.2074790
370.3449, 0.2327310
370.8271, 0.2774160
371.3092, 0.3561850
371.7913, 0.4566900
372.2734, 0.5146560
372.7555, 0.4544620
373.2376, 0.2815160
373.7198, 0.1715400
374.2019, 0.1566130
374.6840, 0.1712230
375.1661, 0.2037520
375.6482, 0.2470970
376.1303, 0.2945580
376.6125, 0.3463000
377.0946, 0.3918170
377.5767, 0.4056460
378.0588, 0.3835490
378.5409, 0.3579580
379.0230, 0.3345300
379.5052, 0.3130730
379.9873, 0.2998920
380.4694, 0.2954630
380.9515, 0.2776020
381.4336, 0.2122930
381.9157, 9.7652003E-02
382.3979, 1.7960001E-03
382.8800, 7.5879999E-02
383.3621, 0.1061390
383.8442, 5.0657000E-02
384.3263, 6.7000002E-02
384.8084, 0.1641210
385.2906, 0.1787350
385.7727, 0.1444230
386.2548, 0.1357510
386.7369, 0.1553830
387.2190, 0.1918270
387.7011, 0.2755340
388.1833, 0.3619990
388.6654, 0.3771620
389.1475, 0.2767770
389.6296, 0.1579180
390.1117, 9.5950998E-02
390.5938, 8.8593997E-02
391.0760, 0.1287890
391.5581, 0.2476340
392.0402, 0.3712170
392.5223, 0.3909590
393.0044, 0.3021710
393.4865, 0.2053410
393.9687, 9.8665997E-02
394.4508, 2.1358000E-02
394.9329, 7.2748996E-02
395.4150, 0.2811060
395.8971, 0.4729910
396.3792, 0.4862960
396.8614, 0.3298070
397.3435, 0.1850410
397.8256, 3.5053998E-02
398.3077, 8.1205003E-02
398.7898, 0.1301540
399.2719, 0.1213510
399.7540, 9.0510003E-02
400.2361, 5.5151999E-02
400.7183, 1.0894000E-02
401.2004, 5.9811998E-02
401.6825, 0.1963700
402.1646, 0.2874310
402.6467, 0.2905500
403.1288, 0.2484340
403.6110, 0.1985450
404.0931, 0.1527130
404.5752, 0.1245370
405.0573, 0.1323280
405.5394, 0.1847030
406.0215, 0.2328010
406.5037, 0.2757630
406.9858, 0.3156560
407.4679, 0.3730840
407.9500, 0.4294470
408.4321, 0.4333160
408.9142, 0.3462380
409.3964, 0.1963060
409.8785, 0.1108300
410.3606, 0.1006660
410.8427, 0.1514320
411.3248, 0.3783250
411.8069, 0.6019280
412.2891, 0.6033010
412.7712, 0.3469870
413.2533, 3.7934002E-02
413.7354, 2.2882000E-02
414.2175, 0.2622380
414.6996, 0.4017150
415.1818, 0.2324150
415.6639, 6.5314002E-02
416.1460, 1.6996000E-02
416.6281, 6.8870999E-02
417.1102, 0.1585420
417.5923, 0.2599000
418.0745, 0.3570100
418.5566, 0.3875630
419.0387, 0.3125100
419.5208, 0.2577970
420.0029, 0.3078570
420.4850, 0.3699330
420.9672, 0.3407480
421.4493, 0.1899260
421.9314, 3.0823000E-02
422.4135, 2.0505000E-02
422.8956, 3.1888001E-02
423.3777, 0.1048840
423.8599, 0.2115990
424.3420, 0.3006580
424.8241, 0.3349750
425.3062, 0.3219120
425.7883, 0.2857370
426.2704, 0.2269160
426.7526, 0.1547690
427.2347, 6.2116001E-02
427.7168, 5.6513000E-02
428.1989, 0.1015160
428.6810, 3.2662999E-02
429.1631, 0.2497460
429.6453, 0.3299310
430.1274, 0.2172680
430.6095, 9.3057998E-02
431.0916, 3.3815999E-02
431.5737, 2.8259000E-02
432.0558, 6.6243000E-02
432.5380, 0.1506630
433.0201, 0.2400750
433.5022, 0.2863240
433.9843, 0.2833660
434.4664, 0.2713910
434.9485, 0.2457400
435.4307, 0.2164450
435.9128, 0.1774610
436.3949, 0.1383240
436.8770, 0.1340820
437.3591, 0.1917130
437.8412, 0.2863700
438.3234, 0.3216820
438.8055, 0.2025300
439.2876, 0.1457960
439.7697, 0.2299650
440.2518, 0.3452170
440.7339, 0.3772500
441.2160, 0.3111620
441.6982, 0.2217790
442.1803, 0.1920880
442.6624, 0.2296660
443.1445, 0.2397600
443.6266, 0.1632380
444.1087, 0.1203030
444.5909, 0.1873090
445.0730, 0.3057430
445.5551, 0.3778120
446.0372, 0.3510460
446.5193, 0.2606980
447.0014, 0.1774900
447.4836, 9.3705997E-02
447.9657, 4.0275000E-02
448.4478, 4.2286001E-02
448.9299, 6.3143998E-02
449.4120, 7.5575002E-02
449.8941, 8.0634996E-02
450.3763, 0.1062580
450.8584, 0.2025330
451.3405, 0.3428520
451.8226, 0.4027840
452.3047, 0.3548920
452.7868, 0.2881200
453.2690, 0.2452780
453.7511, 0.2177110
454.2332, 0.1961820
454.7153, 0.1810970
455.1974, 0.1673410
455.6795, 0.1277690
456.1617, 7.3385000E-02
456.6438, 9.9196002E-02
457.1259, 0.2719410
457.6080, 0.4593480
458.0901, 0.4463470
458.5722, 0.2339150
459.0544, 0.1087490
459.5365, 0.2091710
460.0186, 0.3518120
460.5007, 0.3628220
460.9828, 0.2550070
461.4649, 0.1571020
461.9471, 0.1503730
462.4292, 0.2111940
462.9113, 0.2446080
463.3934, 0.2019930
463.8755, 0.1843100
464.3576, 0.2340170
464.8398, 0.2989610
465.3219, 0.3098250
465.8040, 0.2614560
466.2861, 0.2248020
466.7682, 0.2870510
467.2503, 0.4662590
467.7325, 0.5742150
468.2146, 0.5262480
468.6967, 0.4968380
469.1788, 0.5750570
469.6609, 0.6893900
470.1430, 0.7244870
470.6252, 0.6276260
471.1073, 0.4628800
471.5894, 0.3400870
472.0715, 0.2747340
472.5536, 0.2102310
473.0357, 9.9377997E-02
473.5179, 2.4483001E-02
474.0000, 7.1872003E-02
474.4821, 0.2114100
474.9642, 0.3170030
475.4463, 0.2960120
475.9284, 0.2004550
476.4106, 0.1282240
476.8927, 8.1350997E-02
477.3748, 4.5384001E-02
477.8569, 2.6040000E-03
478.3390, 3.1985998E-02
478.8211, 1.6163001E-02
479.3033, 0.1740080
479.7854, 0.2991330
480.2675, 0.2938340
480.7496, 0.2166280
481.2317, 0.1571480
481.7138, 0.1306900
482.1959, 0.1293950
482.6780, 0.1528260
483.1602, 0.2003520
483.6423, 0.2323570
484.1244, 0.2342820
484.6065, 0.2373670
485.0886, 0.2659960
485.5707, 0.2973880
486.0529, 0.2949580
486.5350, 0.2547690
487.0171, 0.2000270
487.4992, 0.1842480
487.9813, 0.2408670
488.4634, 0.2426140
488.9456, 0.1134010
489.4277, 1.0831000E-02
489.9098, 4.8315998E-02
490.3919, 0.1740390
490.8740, 0.2539730
491.3561, 0.1983130
491.8383, 6.9940001E-02
492.3204, 5.5588000E-02
492.8025, 0.2141740
493.2846, 0.3241270
493.7667, 0.3035670
494.2488, 0.2434990
494.7310, 0.1923640
495.2131, 0.1569430
495.6952, 0.1338700
496.1773, 0.1260180
496.6594, 0.1286060
497.1415, 0.1206700
497.6237, 9.3145996E-02
498.1058, 9.9411003E-02
498.5879, 0.2100270
499.0700, 0.3577090
499.5521, 0.4055240
500.0342, 0.3018980
500.5164, 0.2082440
500.9985, 0.2100240
501.4806, 0.2740190
501.9627, 0.3584850
502.4448, 0.4556510
502.9269, 0.5180900
503.4091, 0.4902160
503.8912, 0.3675240
504.3733, 0.2887610
504.8554, 0.2800100
505.3375, 0.2806920
505.8196, 0.2677590
506.3018, 0.2508000
506.7839, 0.2563510
507.2660, 0.2916410
507.7481, 0.3183050
508.2302, 0.2659770
508.7123, 9.2376001E-02
509.1945, 7.4300002E-03
509.6766, 3.1900001E-03
510.1587, 5.1918998E-02
510.6408, 0.1366780
511.1229, 0.2366020
511.6050, 0.3224220
512.0872, 0.3829440
512.5693, 0.4130100
513.0514, 0.3957210
513.5335, 0.3242420
514.0156, 0.2600300
514.4977, 0.2145660
514.9799, 0.1838420
515.4620, 0.1656350
515.9441, 0.1538650
516.4262, 0.1552580
516.9083, 0.2042760
517.3904, 0.2668500
517.8726, 0.3109790
518.3547, 0.3337480
518.8368, 0.2997280
519.3189, 0.1690340
519.8010, 1.3760000E-03
520.2831, 7.3789999E-02
520.7653, 2.8301001E-02
521.2474, 3.0606000E-02
521.7295, 9.1596000E-02
522.2116, 0.1552540
522.6937, 0.2493450
523.1758, 0.3601160
523.6580, 0.4181830
524.1401, 0.3652120
524.6222, 0.2272900
525.1043, 0.1461610
525.5864, 0.1747010
526.0685, 0.1878170
526.5507, 0.1362430
527.0328, 9.1838002E-02
527.5149, 0.1326400
527.9970, 0.2542890
528.4791, 0.3733840
528.9612, 0.4252070
529.4434, 0.4122370
529.9255, 0.3362960
530.4076, 0.1611870
530.8897, 7.6730000E-03
531.3718, 8.6710997E-02
531.8539, 0.1251390
532.3361, 8.9300998E-02
532.8182, 3.5369001E-02
533.3003, 0.1524240
533.7824, 0.1752780
534.2645, 0.1502170
534.7466, 0.1953390
535.2288, 0.3325290
535.7109, 0.4432990
536.1930, 0.4183430
536.6751, 0.2894330
537.1572, 0.2420230
537.6393, 0.3693460
538.1215, 0.4568360
538.6036, 0.4124880
539.0857, 0.3078530
539.5678, 0.2226690
540.0499, 0.1801910
540.5320, 0.1955040
541.0142, 0.3029230
541.4963, 0.5026590
541.9784, 0.5774250
542.4604, 0.3955840
542.9426, 0.2410530
543.4247, 0.1517390
543.9068, 0.1282460
544.3889, 0.2037450
544.8710, 0.3783370
545.3531, 0.5301170
545.8353, 0.4939590
546.3174, 0.2889360
546.7995, 0.1444340
547.2816, 8.0225997E-02
547.7637, 6.0996000E-02
548.2458, 8.1633002E-02
548.7280, 0.1295470
549.2101, 0.1953650
549.6922, 0.3034900
550.1743, 0.3736360
550.6564, 0.3086310
551.1385, 0.1776850
551.6207, 0.1457330
552.1028, 0.2496850
552.5849, 0.3541480
553.0670, 0.3192990
553.5491, 0.1441610
554.0313, 6.4264998E-02
554.5134, 0.1577070
554.9955, 0.2379310
555.4776, 0.2371700
555.9597, 0.2025290
556.4418, 0.1977100
556.9240, 0.2370140
557.4061, 0.2819930
557.8882, 0.2821070
558.3703, 0.2344180
558.8524, 0.2269770
559.3345, 0.3023430
559.8167, 0.3585360
560.2988, 0.3417390
560.7809, 0.2940220
561.2630, 0.2679690
561.7451, 0.2785840
562.2272, 0.2907370
562.7094, 0.2616670
563.1915, 0.2085850
563.6736, 0.1920480
564.1557, 0.2228880
564.6378, 0.2725690
565.1199, 0.3367940
565.6021, 0.4021120
566.0842, 0.4159220
566.5663, 0.3149160
567.0484, 0.2525110
567.5305, 0.3567410
568.0126, 0.4932420
568.4948, 0.4549350
568.9769, 0.2257270
569.4590, 1.2830000E-02
569.9411, 2.4106000E-02
570.4232, 0.2492820
570.9053, 0.3575950
571.3875, 0.2725550
571.8696, 0.1666930
572.3517, 4.1370001E-03
572.8338, 0.1280340
573.3159, 0.1268550
573.7980, 1.0859000E-02
574.2802, 0.1686610
574.7623, 0.2580230
575.2444, 0.2848120
575.7265, 0.2541690
576.2086, 0.1421850
576.6907, 7.7643000E-02
577.1729, 0.1785730
577.6550, 0.3298330
578.1371, 0.3248550
578.6192, 0.1229700
579.1013, 3.2272000E-02
579.5834, 3.8790000E-03
580.0656, 9.1237999E-02
580.5477, 9.9697001E-02
581.0298, 2.7317001E-02
581.5119, 9.2240004E-03
581.9940, 0.1448810
582.4761, 0.3710690
582.9583, 0.4704420
583.4404, 0.3243280
583.9225, 0.2276660
584.4046, 0.2068560
584.8867, 0.2157230
585.3688, 0.2382030
585.8510, 0.2636140
586.3331, 0.2733930
586.8152, 0.2516540
587.2973, 0.2150520
587.7794, 0.2029160
588.2615, 0.2183630
588.7437, 0.2374940
589.2258, 0.2526530
589.7079, 0.2644040
590.1900, 0.2716030
590.6721, 0.2794600
591.1542, 0.2981100
591.6364, 0.3567570
592.1185, 0.4072500
592.6006, 0.3996250
593.0827, 0.3489960
593.5648, 0.3043270
594.0469, 0.2845540
594.5291, 0.2626730
595.0112, 0.1925770
595.4933, 4.6406999E-02
595.9754, 1.8797999E-02
596.4575, 8.0843002E-02
596.9396, 0.1559960
597.4218, 0.1034330
597.9039, 1.9690001E-03
598.3860, 4.5727000E-02
598.8681, 1.0136000E-02
599.3502, 0.1036140
599.8323, 0.1604180
600.3145, 0.1822960
600.7966, 0.2121730
601.2787, 0.2503540
601.7608, 0.2997840
602.2429, 0.4037020
602.7250, 0.5068640
603.2072, 0.5092130
603.6893, 0.3673280
604.1714, 0.2190270
604.6535, 0.1195130
605.1356, 6.2183000E-02
605.6177, 4.8776999E-02
606.0999, 8.1318997E-02
606.5820, 0.1217550
607.0641, 0.1462840
607.5462, 0.1701770
608.0283, 0.2362730
608.5104, 0.4383080
608.9926, 0.5451420
609.4747, 0.4674050
609.9568, 0.3606140
610.4389, 0.3453000
610.9210, 0.4056340
611.4031, 0.4421000
611.8853, 0.3792250
612.3674, 0.2750140
612.8495, 0.2670990
613.3316, 0.3671650
613.8137, 0.4204960
614.2958, 0.3608940
614.7780, 0.2801380
615.2601, 0.2988650
615.7422, 0.3932070
616.2243, 0.4064870
616.7064, 0.1901500
617.1885, 1.2309999E-03
617.6707, 4.3042999E-02
618.1528, 0.2223060
618.6349, 0.3223680
619.1170, 0.2808800
619.5991, 0.1974960
620.0812, 0.1887790
620.5634, 0.2595470
621.0455, 0.3335910
621.5276, 0.4573080
622.0097, 0.5243920
622.4918, 0.4687600
622.9739, 0.3715580
623.4561, 0.3294250
623.9382, 0.3554750
624.4203, 0.3603600
624.9023, 0.2375980
625.3845, 4.3207001E-02
625.8666, 7.9135999E-02
626.3487, 0.1261760
626.8308, 9.7525001E-02
627.3129, 3.3537999E-02
627.7950, 0.2149500
628.2772, 0.3541220
628.7593, 0.4546700
629.2414, 0.5104220
629.7235, 0.4791860
630.2056, 0.4389050
630.6877, 0.4569030
631.1699, 0.5104460
631.6520, 0.5227710
632.1341, 0.4468660
632.6162, 0.3276670
633.0983, 0.2368580
633.5804, 0.1736220
634.0626, 0.1423400
634.5447, 0.1543070
635.0268, 0.1856270
635.5089, 0.2334350
635.9910, 0.2898540
636.4731, 0.3342960
636.9553, 0.3537990
637.4374, 0.3941030
637.9195, 0.5501760
638.4016, 0.7247530
638.8837, 0.6998910
639.3658, 0.4609090
639.8480, 0.2152290
640.3301, 0.1032200
640.8122, 0.1014200
641.2943, 0.1321340
641.7764, 0.2495910
642.2585, 0.3185810
642.7407, 0.2875010
643.2228, 0.2537850
643.7049, 0.2954190
644.1870, 0.3864020
644.6691, 0.4457240
645.1512, 0.4264320
645.6334, 0.3765920
646.1155, 0.3851030
646.5976, 0.4511930
647.0797, 0.4705630
647.5618, 0.4143720
648.0439, 0.3372820
648.5261, 0.2700040
649.0082, 0.2148830
649.4903, 0.1826190
649.9724, 0.1917320
650.4545, 0.1964270
650.9366, 0.1492120
651.4188, 0.1040660
651.9009, 0.1463910
652.3830, 0.2703940
652.8651, 0.3870890
653.3472, 0.4317770
653.8293, 0.4130270
654.3115, 0.3641480
654.7936, 0.2515010
655.2757, 0.1840080
655.7578, 0.2197750
656.2399, 0.2646900
656.7220, 0.2626610
657.2042, 0.2300850
657.6863, 0.2356580
658.1684, 0.3371710
658.6505, 0.4355140
659.1326, 0.4241630
659.6147, 0.3350690
660.0969, 0.2495310
660.5790, 0.1844310
661.0611, 0.1502370
661.5432, 0.1694440
662.0253, 0.2307850
662.5074, 0.2122460
662.9896, 2.7031999E-02
663.4717, 0.1592990
663.9538, 9.5899001E-02
664.4359, 3.8320001E-02
664.9180, 0.1658680
665.4001, 0.2711840
665.8823, 0.3575910
666.3644, 0.4321940
666.8465, 0.4921630
667.3286, 0.4857500
667.8107, 0.4034250
668.2928, 0.3544680
668.7750, 0.3663090
669.2571, 0.4040070
669.7392, 0.4469990
670.2213, 0.4912300
670.7034, 0.5035750
671.1855, 0.4708120
671.6677, 0.4217280
672.1498, 0.3290390
672.6319, 0.2463140
673.1140, 0.2428780
673.5961, 0.3170520
674.0782, 0.4102370
674.5604, 0.4827860
675.0425, 0.5307150
675.5246, 0.5443150
676.0067, 0.5135250
676.4888, 0.4883660
676.9709, 0.4933500
677.4531, 0.4893770
677.9352, 0.4292080
678.4173, 0.3324430
678.8994, 0.2716110
679.3815, 0.2956990
679.8636, 0.3179420
680.3458, 0.2664290
680.8279, 0.1880880
681.3100, 0.1589300
681.7921, 0.1900580
682.2742, 0.2459970
682.7563, 0.3024010
683.2385, 0.3535680
683.7206, 0.3626970
684.2027, 0.3018150
684.6848, 0.2753020
685.1669, 0.3764400
685.6490, 0.4481270
686.1312, 0.3626780
686.6133, 0.1719350
687.0954, 3.8424000E-02
687.5775, 3.9239001E-02
688.0596, 8.8257998E-02
688.5417, 0.1108770
689.0239, 0.1231210
689.5060, 0.1813850
689.9881, 0.2935990
690.4702, 0.3648850
690.9523, 0.3121090
691.4344, 0.1635720
691.9166, 6.0637999E-02
692.3987, 1.3656000E-02
692.8808, 1.0390000E-03
693.3629, 1.6712001E-02
693.8450, 3.0903000E-02
694.3271, 0.2795760
694.8093, 0.6154550
695.2914, 0.7195450
695.7735, 0.3886020
696.2556, 2.1559000E-02
696.7377, 9.1550998E-02
697.2198, 9.2104003E-02
697.7020, 0.2228950
698.1841, 0.2521880
698.6662, 0.2683670
699.1483, 0.3413560
699.6304, 0.4440460
700.1125, 0.4711320
700.5947, 0.3500900
701.0768, 0.2630420
701.5589, 0.2179950
702.0410, 0.2021840
702.5231, 0.2249520
703.0052, 0.2681170
703.4874, 0.2821390
703.9695, 0.2381400
704.4516, 0.2283120
704.9337, 0.4512140
705.4158, 0.8276930
705.8979, 0.9307970
706.3801, 0.6883620
706.8622, 0.3944080
707.3442, 0.1868120
707.8264, 6.5491997E-02
708.3085, 4.0904999E-02
708.7906, 0.1561320
709.2727, 0.2524130
709.7548, 0.3382680
710.2369, 0.3844160
710.7191, 0.3353580
711.2012, 0.2444740
711.6833, 0.2124200
712.1654, 0.2743710
712.6475, 0.3580800
713.1296, 0.3730880
713.6118, 0.3342290
714.0939, 0.3267450
714.5760, 0.3571080
715.0581, 0.3937730
715.5402, 0.4266360
716.0223, 0.4534370
716.5045, 0.4698210
716.9866, 0.4730880
717.4687, 0.4831100
717.9508, 0.5341410
718.4329, 0.5574230
718.9150, 0.4917670
719.3972, 0.3879540
719.8793, 0.3221300
720.3614, 0.3121800
720.8435, 0.3124540
721.3256, 0.2704960
721.8077, 0.2121720
722.2899, 0.2137250
722.7720, 0.2837750
723.2541, 0.2667030
723.7362, 5.3041998E-02
724.2183, 0.1771970
724.7004, 0.1884880
725.1826, 1.4364000E-02
725.6647, 0.1637620
726.1468, 0.2060520
726.6289, 0.2407650
727.1110, 0.3317860
727.5931, 0.4178940
728.0753, 0.4079300
728.5574, 0.3085030
729.0395, 0.2204960
729.5216, 0.2269890
730.0037, 0.2761550
730.4858, 0.2227610
730.9680, 6.0334001E-02
731.4501, 2.8289999E-03
731.9322, 0.1030990
732.4143, 0.2482690
732.8964, 0.3351990
733.3785, 0.3674680
733.8607, 0.4012360
734.3428, 0.4719080
734.8249, 0.4894180
735.3070, 0.3844060
735.7891, 0.2601730
736.2712, 0.1918810
736.7534, 0.1808850
737.2355, 0.2093720
737.7176, 0.2721600
738.1997, 0.3369360
738.6818, 0.3523060
739.1639, 0.3230120
739.6461, 0.2887660
740.1282, 0.2463930
740.6103, 0.2296480
741.0924, 0.2666480
741.5745, 0.3348470
742.0566, 0.3825640
742.5388, 0.3996790
743.0209, 0.4329040
743.5030, 0.5618820
743.9851, 0.6290690
744.4672, 0.4841570
744.9493, 0.2480090
745.4315, 0.1166700
745.9136, 0.1409760
746.3957, 0.2033090
746.8778, 0.1786330
747.3599, 0.1056010
747.8420, 0.1222180
748.3242, 0.2316850
748.8063, 0.2986760
749.2884, 0.2743700
749.7705, 0.1976080
750.2526, 9.3741000E-02
750.7347, 4.2033002E-02
751.2169, 9.0184003E-02
751.6990, 3.2797001E-02
752.1811, 0.1316430
752.6632, 0.1515350
753.1453, 0.1382850
753.6274, 0.1264740
754.1096, 0.1208900
754.5917, 0.1186140
755.0738, 0.1341660
755.5559, 0.1486270
756.0380, 0.1333000
756.5201, 9.9389002E-02
757.0023, 9.6244000E-02
757.4844, 0.1322190
757.9665, 0.1965510
758.4486, 0.2911370
758.9307, 0.3994720
759.4128, 0.4658270
759.8950, 0.4650930
760.3771, 0.4671780
760.8592, 0.5320780
761.3413, 0.5368830
761.8234, 0.3278400
762.3055, 5.4341000E-02
762.7877, 1.6914001E-02
763.2698, 0.1959860
763.7519, 0.4074160
764.2340, 0.3534390
764.7161, 0.1914990
765.1982, 0.1917900
765.6804, 0.3316580
766.1625, 0.4275090
766.6446, 0.4086320
767.1267, 0.3216140
767.6088, 0.2119450
768.0909, 7.3668003E-02
768.5731, 6.2514998E-02
769.0552, 0.3302750
769.5373, 0.4757720
770.0194, 0.2759060
770.5015, 4.1161999E-02
770.9836, 3.0711001E-02
771.4658, 0.2056550
771.9479, 0.3024990
772.4300, 0.1384170
772.9121, 1.0159000E-02
773.3942, 0.1084940
773.8763, 0.3413710
774.3585, 0.4449440
774.8406, 0.3955090
775.3227, 0.3330610
775.8048, 0.3522770
776.2869, 0.4109750
776.7690, 0.4004200
777.2512, 0.3032240
777.7333, 0.2511740
778.2154, 0.2699660
778.6975, 0.3022470
779.1796, 0.3028460
779.6617, 0.3043850
780.1439, 0.3803870
780.6260, 0.5653260
781.1081, 0.6652770
781.5902, 0.5529830
782.0723, 0.4109040
782.5544, 0.3926940
783.0366, 0.4461440
783.5187, 0.4354200
784.0008, 0.3333570
784.4829, 0.2176900
784.9650, 0.1524710
785.4471, 0.1329590
785.9293, 0.1607220
786.4114, 0.2367480
786.8935, 0.2862620
787.3756, 0.2901130
787.8577, 0.2654780
788.3398, 0.2171040
788.8220, 0.1494550
789.3040, 8.7448999E-02
789.7861, 1.3489000E-02
790.2682, 4.4730999E-02
790.7504, 2.7039001E-02
791.2325, 0.1476860
791.7146, 0.3467250
792.1967, 0.5541940
792.6788, 0.6231120
793.1609, 0.4876120
793.6431, 0.3192450
794.1252, 0.2698130
794.6073, 0.2893500
795.0894, 0.2956830
795.5715, 0.2824400
796.0536, 0.2449840
796.5358, 0.1834460
797.0179, 0.1139350
797.5000, 5.8559000E-02
797.9821, 2.0489000E-02
798.4642, 3.4192000E-02
798.9464, 0.1564850
799.4285, 0.2277890
799.9106, 0.1565530
800.3927, 6.0812999E-02
800.8748, 2.3119001E-02
801.3569, 3.8821001E-02
801.8391, 7.0744000E-02
802.3212, 0.1303970
802.8033, 0.1733140
803.2854, 0.1590320
803.7675, 0.1259080
804.2496, 0.1204820
804.7318, 0.1414390
805.2139, 0.1628350
805.6960, 0.1707090
806.1781, 0.1707030
806.6602, 0.1632380
807.1423, 0.1509900
807.6245, 0.1859350
808.1066, 0.2872250
808.5887, 0.3422840
809.0708, 0.2848360
809.5529, 0.1856740
810.0350, 0.1276660
810.5172, 0.1139160
810.9993, 0.1286930
811.4814, 0.2321110
811.9635, 0.2893230
812.4456, 0.1701990
812.9277, 5.1918000E-02
813.4099, 0.1720100
813.8920, 0.4723650
814.3741, 0.6291680
814.8562, 0.4209250
815.3383, 0.1361680
815.8204, 9.2545003E-02
816.3026, 0.1962200
816.7847, 0.2364610
817.2668, 0.1941680
817.7489, 0.1606360
818.2310, 0.1886380
818.7131, 0.2518310
819.1953, 0.3094830
819.6774, 0.3724190
820.1595, 0.3463020
820.6416, 0.1375790
821.1237, 1.8002000E-02
821.6058, 0.1961080
822.0880, 0.4370290
822.5701, 0.4575640
823.0522, 0.2636760
823.5343, 0.1217500
824.0164, 0.1104050
824.4985, 0.1303160
824.9807, 0.1419500
825.4628, 0.1596700
825.9449, 0.2373450
826.4270, 0.3465960
826.9091, 0.3419360
827.3912, 0.1227370
827.8734, 0.1161060
828.3555, 5.7043999E-02
828.8376, 0.2251590
829.3197, 0.4419100
829.8018, 0.5672860
830.2839, 0.5538660
830.7661, 0.3488220
831.2482, 7.4917004E-02
831.7303, 6.6880003E-02
832.2124, 5.6968998E-02
832.6945, 5.3512000E-02
833.1766, 7.2972998E-02
833.6588, 7.4732997E-02
834.1409, 4.2484999E-02
834.6230, 3.9240001E-03
835.1051, 5.0533999E-02
835.5872, 9.5380999E-02
836.0693, 0.1494780
836.5515, 0.2401260
837.0336, 0.3017750
837.5157, 0.2766190
837.9978, 0.2180980
838.4799, 0.1781240
838.9620, 0.1641630
839.4442, 0.1752360
839.9263, 0.2110080
840.4084, 0.2589490
840.8905, 0.3161680
841.3726, 0.3735740
841.8547, 0.3622870
842.3369, 0.2757680
842.8190, 0.2208490
843.3011, 0.2496980
843.7832, 0.2825830
844.2653, 0.2106610
844.7474, 3.8791001E-02
845.2296, 1.7069001E-02
845.7117, 0.1081320
846.1938, 0.2273940
846.6759, 0.3552420
847.1580, 0.4472730
847.6401, 0.4683040
848.1223, 0.4317530
848.6044, 0.3658820
849.0865, 0.2574780
849.5686, 0.1918280
850.0507, 0.2480690
850.5328, 0.3429670
851.0150, 0.4222100
851.4971, 0.4642670
851.9792, 0.4195650
852.4613, 0.2815430
852.9434, 0.1225170
853.4255, 1.8780000E-03
853.9077, 7.3316999E-02
854.3898, 6.0146000E-02
854.8719, 4.1354001E-02
855.3540, 0.1134410
855.8361, 0.1275030
856.3182, 0.1276950
856.8004, 0.1349660
857.2825, 0.1621260
857.7646, 0.2601010
858.2467, 0.5269960
858.7288, 0.6493590
859.2109, 0.5170200
859.6931, 0.3729280
860.1752, 0.2736750
860.6573, 0.2251100
861.1394, 0.2643240
861.6215, 0.3846230
862.1036, 0.4315940
862.5858, 0.2218380
863.0679, 4.9203999E-02
863.5500, 0.1931590
864.0321, 0.4576460
864.5142, 0.5667560
864.9963, 0.5035320
865.4785, 0.3914550
865.9606, 0.2976800
866.4427, 0.2281280
866.9248, 0.2113250
867.4069, 0.2315540
867.8890, 0.1910500
868.3712, 8.1773996E-02
868.8533, 1.8210000E-03
869.3354, 1.9704999E-02
869.8175, 1.5530000E-03
870.2996, 2.9260000E-02
870.7817, 6.3493997E-02
871.2639, 0.1013810
871.7459, 0.1505120
872.2280, 0.1899170
872.7101, 0.2232030
873.1923, 0.2385960
873.6744, 0.2076540
874.1565, 0.1557560
874.6386, 0.1454430
875.1207, 0.1958990
875.6028, 0.2603750
876.0850, 0.3640670
876.5671, 0.4359100
877.0492, 0.3960040
877.5313, 0.2969650
878.0134, 0.2171790
878.4955, 0.1817410
878.9777, 0.1997130
879.4598, 0.3134250
879.9419, 0.4431260
880.4240, 0.4366880
880.9061, 0.3330240
881.3882, 0.2838740
881.8704, 0.3014400
882.3525, 0.2860640
882.8346, 0.1658300
883.3167, 7.8450004E-03
883.7988, 4.3628000E-02
884.2809, 2.4814000E-02
884.7631, 0.1035720
885.2452, 0.2088180
885.7273, 0.2754160
886.2094, 0.2804750
886.6915, 0.2652600
887.1736, 0.2778130
887.6558, 0.3142830
888.1379, 0.3151800
888.6200, 0.2052030
889.1021, 0.1634150
889.5842, 0.2951050
890.0663, 0.4307160
890.5485, 0.4558890
891.0306, 0.3894070
891.5127, 0.2604750
891.9948, 7.2125003E-02
892.4769, 2.6294000E-02
892.9590, 0.1361780
893.4412, 0.3668180
893.9233, 0.4683620
894.4054, 0.4752030
894.8875, 0.4655820
895.3696, 0.4583690
895.8517, 0.4304240
896.3339, 0.3548100
896.8160, 0.2822970
897.2981, 0.3601780
897.7802, 0.5617490
898.2623, 0.5918070
898.7444, 0.4085230
899.2266, 0.2433120
899.7087, 0.2224170
900.1908, 0.2730470
900.6729, 0.2893560
901.1550, 0.2921670
901.6371, 0.2271460
902.1193, 2.2450001E-03
902.6014, 0.1192990
903.0835, 2.7551999E-02
903.5656, 0.1238030
904.0477, 0.2508080
904.5298, 0.3500050
905.0120, 0.4118150
905.4941, 0.4313270
905.9762, 0.4237490
906.4583, 0.3792300
906.9404, 0.3228360
907.4225, 0.2490240
907.9047, 0.1838310
908.3868, 0.1549210
908.8689, 0.1694820
909.3510, 0.2337680
909.8331, 0.3940040
910.3152, 0.5373850
910.7974, 0.5139200
911.2795, 0.4055990
911.7616, 0.3697570
912.2437, 0.4108000
912.7258, 0.4290330
913.2079, 0.3710810
913.6901, 0.2862390
914.1722, 0.2315610
914.6543, 0.2080060
915.1364, 0.2220390
915.6185, 0.2744310
916.1006, 0.3535710
916.5828, 0.4664780
917.0649, 0.5648230
917.5470, 0.6146610
918.0291, 0.6140650
918.5112, 0.5487850
918.9933, 0.3667910
919.4755, 0.2528890
919.9576, 0.2475580
920.4397, 0.2528800
920.9218, 0.1940620
921.4039, 0.1507260
921.8860, 0.2476680
922.3682, 0.4759320
922.8503, 0.6046800
923.3324, 0.5231540
923.8145, 0.4454110
924.2966, 0.3977480
924.7787, 0.4058520
925.2609, 0.5616050
925.7430, 0.7697240
926.2251, 0.8249440
926.7072, 0.6629970
927.1893, 0.4724240
927.6714, 0.3692830
928.1536, 0.3095840
928.6357, 0.2379390
929.1178, 0.1795280
929.5999, 0.1965200
930.0820, 0.2875960
930.5641, 0.3911240
931.0463, 0.4713320
931.5284, 0.5235130
932.0105, 0.5211060
932.4926, 0.4828510
932.9747, 0.4969590
933.4568, 0.5640960
933.9390, 0.6105900
934.4211, 0.6077830
934.9032, 0.5883100
935.3853, 0.5891500
935.8674, 0.6035180
936.3495, 0.5997300
936.8317, 0.5919340
937.3138, 0.4872880
937.7959, 0.2083300
938.2780, 2.1265000E-02
938.7601, 8.0044001E-02
939.2422, 1.4015000E-02
939.7244, 0.1090890
940.2065, 0.3053500
940.6886, 0.4625730
941.1707, 0.6047920
941.6528, 0.6739090
942.1349, 0.6590350
942.6171, 0.5770980
943.0992, 0.3529640
943.5813, 8.5142002E-02
944.0634, 4.8018001E-02
944.5455, 0.3793400
945.0276, 0.6152360
945.5098, 0.5006180
945.9919, 0.3344540
946.4740, 0.3285750
946.9561, 0.3859740
947.4382, 0.3443350
947.9203, 0.2041530
948.4025, 0.1106360
948.8846, 0.1632700
949.3667, 0.2320640
949.8488, 0.1555350
950.3309, 3.4940001E-02
950.8130, 5.1692002E-02
951.2952, 0.1745060
951.7773, 0.2559690
952.2594, 0.2495960
952.7415, 0.2444650
953.2236, 0.3420730
953.7057, 0.4817600
954.1878, 0.4864690
954.6699, 0.3855310
955.1520, 0.4264200
955.6342, 0.6424990
956.1163, 0.6664830
956.5984, 0.2667080
957.0805, 0.2370830
957.5626, 0.3022690
958.0447, 6.0316000E-02
958.5269, 0.2298040
959.0090, 0.1539380
959.4911, 0.1076330
959.9732, 0.1434930
960.4553, 0.2416980
960.9374, 0.4301770
961.4196, 0.6419960
961.9017, 0.7053850
962.3838, 0.5473210
962.8659, 0.4749510
963.3480, 0.5983350
963.8301, 0.6625290
964.3123, 0.4957120
964.7944, 0.3268360
965.2765, 0.4109890
965.7586, 0.6792070
966.2407, 0.7944580
966.7228, 0.6363280
967.2050, 0.4852850
967.6871, 0.3911670
968.1692, 0.3302000
968.6513, 0.2894250
969.1334, 0.2735920
969.6155, 0.2943460
970.0977, 0.3502080
970.5798, 0.4267220
971.0619, 0.5736810
971.5440, 0.6481380
972.0261, 0.4588980
972.5082, 0.2306280
972.9904, 0.2576250
973.4725, 0.4368870
973.9546, 0.4675310
974.4367, 0.2746310
974.9188, 9.9799998E-02
975.4009, 0.1596940
975.8831, 0.3271420
976.3652, 0.4094950
976.8473, 0.4342080
977.3294, 0.4539920
977.8115, 0.4721680
978.2936, 0.4683600
978.7758, 0.4328750
979.2579, 0.3704670
979.7400, 0.2699880
980.2221, 0.1531510
980.7042, 8.2704000E-02
981.1863, 6.2226001E-02
981.6685, 0.1578000
982.1506, 0.3814970
982.6327, 0.5309130
983.1148, 0.4637240
983.5969, 0.2915770
984.0790, 0.2337080
984.5612, 0.2913580
985.0433, 0.2729870
985.5254, 0.1513440
986.0075, 0.1310880
986.4896, 0.2976320
986.9717, 0.4752330
987.4539, 0.5163580
987.9360, 0.4637460
988.4181, 0.4543670
988.9002, 0.5101080
989.3823, 0.5263550
989.8644, 0.4560380
990.3466, 0.4422180
990.8287, 0.5991960
991.3108, 0.7527050
991.7929, 0.7013270
992.2750, 0.4896210
992.7571, 0.3860810
993.2393, 0.4812840
993.7214, 0.5216210
994.2035, 0.4490240
994.6856, 0.3863750
995.1677, 0.3776090
995.6498, 0.4046560
996.1320, 0.4752130
996.6141, 0.5700240
997.0962, 0.5870030
997.5783, 0.4242400
998.0604, 0.3081670
998.5425, 0.3355920
999.0247, 0.3855190
999.5068, 0.4085320
999.9889, 0.3905730
1000.471, 0.3118860
1000.953, 0.1870420
1001.435, 0.1318600
1001.917, 0.2481090
1002.399, 0.3630070
1002.882, 0.3843680
1003.364, 0.3599660
1003.846, 0.3116050
1004.328, 0.2605390
1004.810, 0.2374650
1005.292, 0.2486910
1005.774, 0.2733480
1006.256, 0.3039460
1006.739, 0.3350970
1007.221, 0.3737200
1007.703, 0.4022900
1008.185, 0.3796720
1008.667, 0.3248800
1009.149, 0.3049030
1009.631, 0.3397130
1010.113, 0.3654910
1010.595, 0.2911170
1011.078, 0.2138270
1011.560, 0.3391480
1012.042, 0.5596180
1012.524, 0.6071850
1013.006, 0.4818640
1013.488, 0.3374770
1013.970, 0.2433190
1014.452, 0.2177580
1014.935, 0.2991000
1015.417, 0.4342160
1015.899, 0.5032680
1016.381, 0.4867900
1016.863, 0.3359300
1017.345, 6.3483998E-02
1017.827, 0.1221310
1018.309, 0.1103610
1018.791, 2.2503000E-02
1019.274, 3.7062999E-02
1019.756, 0.1167990
1020.238, 5.4465000E-02
1020.720, 0.1426550
1021.202, 0.2779870
1021.684, 0.3155630
1022.166, 0.3308220
1022.648, 0.3686350
1023.130, 0.4001390
1023.613, 0.3689860
1024.095, 0.2819330
1024.577, 0.2635240
1025.059, 0.3249940
1025.541, 0.3607760
1026.023, 0.3498510
1026.505, 0.3156560
1026.987, 0.2659050
1027.469, 0.2166800
1027.952, 0.1994370
1028.434, 0.2154030
1028.916, 0.2268380
1029.398, 0.2215740
1029.880, 0.2592700
1030.362, 0.3688660
1030.844, 0.4904160
1031.326, 0.6253800
1031.809, 0.6986520
1032.291, 0.5209680
1032.773, 3.3744000E-02
1033.255, 0.1981400
1033.737, 5.7158999E-02
1034.219, 8.5207999E-02
1034.701, 0.1734250
1035.183, 0.2260280
1035.666, 0.2357710
1036.148, 0.2302680
1036.630, 0.2806610
1037.112, 0.4158160
1037.594, 0.4276040
1038.076, 0.1767210
1038.558, 2.6769999E-02
1039.040, 0.1054110
1039.522, 0.2314590
1040.005, 0.2973410
1040.487, 0.3268880
1040.969, 0.3792590
1041.451, 0.4739930
1041.933, 0.4895370
1042.415, 0.3252960
1042.897, 0.2198820
1043.379, 0.2432980
1043.861, 0.3125010
1044.344, 0.4192950
1044.826, 0.5184760
1045.308, 0.5064630
1045.790, 0.3500530
1046.272, 0.2767130
1046.754, 0.4281380
1047.236, 0.5028320
1047.718, 0.3229140
1048.201, 0.1487910
1048.683, 0.1914810
1049.165, 0.3444270
1049.647, 0.4162050
1050.129, 0.3834850
1050.611, 0.3332350
1051.093, 0.2340550
1051.575, 0.1850690
1052.057, 0.2650810
1052.540, 0.3579190
1053.022, 0.3950150
1053.504, 0.3795590
1053.986, 0.2964440
1054.468, 0.1425720
1054.950, 6.8986997E-02
1055.432, 0.2346220
1055.914, 0.3254260
1056.396, 0.1127850
1056.879, 9.6175998E-02
1057.361, 1.4827000E-02
1057.843, 0.2116410
1058.325, 0.2892130
1058.807, 0.1767210
1059.289, 0.1334100
1059.771, 0.3743510
1060.253, 0.5223050
1060.736, 0.3027940
1061.218, 6.5406002E-02
1061.700, 0.1039030
1062.182, 0.2988660
1062.664, 0.4565280
1063.146, 0.5367690
1063.628, 0.5120310
1064.110, 0.2635870
1064.593, 6.2749997E-02
1065.075, 3.0609000E-02
1065.557, 7.8662001E-02
1066.039, 0.1852200
1066.521, 0.3028820
1067.003, 0.3615570
1067.485, 0.3624510
1067.967, 0.3678180
1068.449, 0.4291510
1068.932, 0.4683720
1069.414, 0.4245580
1069.896, 0.3717570
1070.378, 0.3770960
1070.860, 0.4027940
1071.342, 0.3789060
1071.824, 0.3086720
1072.306, 0.2711300
1072.788, 0.3059380
1073.271, 0.3529040
1073.753, 0.4104980
1074.235, 0.4422940
1074.717, 0.4121190
1075.199, 0.3462390
1075.681, 0.2332990
1076.163, 0.1152450
1076.645, 0.1332610
1077.127, 0.3966980
1077.610, 0.5650970
1078.092, 0.3702420
1078.574, 0.1689450
1079.056, 0.2536330
1079.538, 0.4278830
1080.020, 0.4126910
1080.502, 0.2504080
1080.984, 0.2024630
1081.467, 0.3780610
1081.949, 0.5298220
1082.431, 0.5185120
1082.913, 0.4667470
1083.395, 0.4469140
1083.877, 0.4316960
1084.359, 0.3860520
1084.841, 0.3167520
1085.323, 0.2461460
1085.806, 0.1781320
1086.288, 0.1304170
1086.770, 6.1156999E-02
1087.252, 7.5415000E-02
1087.734, 0.3637670
1088.216, 0.6476860
1088.698, 0.5951590
1089.180, 0.3363320
1089.662, 0.2332330
1090.145, 0.3593390
1090.627, 0.4345630
1091.109, 0.2801360
1091.591, 0.1436440
1092.073, 0.1427630
1092.555, 0.1633740
1093.037, 8.9339003E-02
1093.519, 1.1611000E-02
1094.002, 2.5837000E-02
1094.484, 6.3519999E-02
1094.966, 0.2237320
1095.448, 0.5670700
1095.930, 0.7966210
1096.412, 0.7992630
1096.894, 0.6750160
1097.376, 0.3348240
1097.859, 5.3600001E-04
1098.341, 2.1871001E-02
1098.823, 0.3613340
1099.305, 0.5698060
1099.787, 0.5049510
1100.269, 0.3855210
1100.751, 0.1905520
1101.233, 4.5366000E-02
1101.715, 1.0991000E-02
1102.198, 3.0120000E-02
1102.680, 0.2515310
1103.162, 0.5788880
1103.644, 0.7504410
1104.126, 0.7114630
1104.608, 0.5722280
1105.090, 0.2021660
1105.572, 6.9729000E-02
1106.054, 0.1337600
1106.537, 5.3959999E-02
1107.019, 0.2198470
1107.501, 0.5730950
1107.983, 0.7383380
1108.465, 0.6734130
1108.947, 0.5547680
1109.429, 0.3261670
1109.911, 0.1466330
1110.394, 7.3219999E-03
1110.876, 3.0548001E-02
1111.358, 0.1721640
1111.840, 0.4523720
1112.322, 0.5165720
1112.804, 0.3472200
1113.286, 0.2679160
1113.768, 0.3721240
1114.250, 0.4106070
1114.733, 0.3045060
1115.215, 0.2122690
1115.697, 0.2062290
1116.179, 0.2249180
1116.661, 0.1915640
1117.143, 0.1181920
1117.625, 9.7263001E-02
1118.107, 0.1681610
1118.589, 0.1947970
1119.072, 0.1425850
1119.554, 0.1132030
1120.036, 0.1393230
1120.518, 0.2016160
1121.000, 0.3103860
1121.482, 0.4232280
1121.964, 0.3987730
1122.446, 0.1958520
1122.929, 0.1216900
1123.411, 0.2381510
1123.893, 0.2549390
1124.375, 5.7643000E-02
1124.857, 7.9857998E-02
1125.339, 4.4946000E-02
1125.821, 0.2694240
1126.303, 0.3017690
1126.786, 0.1542480
1127.268, 9.8052002E-02
1127.750, 0.1445200
1128.232, 0.1854210
1128.714, 0.2061520
1129.196, 0.2213270
1129.678, 0.2342660
1130.160, 0.2635250
1130.642, 0.3357160
1131.125, 0.4330110
1131.607, 0.5027620
1132.089, 0.5430950
1132.571, 0.5006820
1133.053, 0.3742530
1133.535, 0.2543060
1134.017, 0.1683770
1134.499, 0.1142390
1134.981, 8.7797001E-02
1135.464, 0.1033160
1135.946, 0.2143680
1136.428, 0.3862110
1136.910, 0.5102770
1137.392, 0.5720460
1137.874, 0.4731610
1138.356, 0.2239620
1138.838, 1.0190000E-02
1139.321, 7.3988996E-02
1139.803, 4.0580999E-02
1140.285, 0.1715160
1140.767, 0.4215630
1141.249, 0.4232770
1141.731, 0.2743510
1142.213, 0.1602550
1142.695, 0.1068500
1143.177, 0.1312160
1143.660, 0.2237260
1144.142, 0.2721550
1144.624, 0.1878950
1145.106, 6.1283000E-02
1145.588, 6.6693000E-02
1146.070, 0.1290960
1146.552, 3.2997999E-02
1147.034, 0.2834700
1147.516, 0.3482180
1147.999, 0.2274090
1148.481, 0.1423640
1148.963, 0.1902030
1149.445, 0.2610570
1149.927, 0.3144980
1150.409, 0.3304060
1150.891, 0.2784820
1151.373, 0.2043430
1151.856, 0.1086750
1152.338, 4.8149999E-02
1152.820, 0.1825440
1153.302, 0.5430620
1153.784, 0.7274920
1154.266, 0.4530490
1154.748, 0.1924420
1155.230, 7.2654001E-02
1155.713, 4.5373999E-02
1156.195, 0.1245480
1156.677, 0.2495600
1157.159, 0.3800380
1157.641, 0.4960980
1158.123, 0.4907840
1158.605, 0.2247880
1159.087, 0.1156770
1159.569, 0.3804270
1160.052, 0.5400570
1160.534, 0.3686090
1161.016, 0.1614360
1161.498, 0.1565600
1161.980, 0.2561350
1162.462, 0.2261760
1162.944, 3.7730999E-02
1163.426, 4.8717000E-02
1163.908, 0.3864130
1164.391, 0.5434430
1164.873, 0.3804170
1165.355, 0.2392580
1165.837, 0.3027770
1166.319, 0.4034330
1166.801, 0.3315800
1167.283, 0.1427470
1167.765, 7.1792997E-02
1168.247, 0.1228150
1168.730, 0.1628450
1169.212, 0.1899770
1169.694, 0.1944200
1170.176, 0.1727940
1170.658, 0.1566700
1171.140, 0.1730780
1171.622, 0.1881130
1172.104, 0.1230810
1172.587, 2.1179000E-02
1173.069, 4.1949000E-02
1173.551, 0.1544740
1174.033, 0.2505760
1174.515, 0.3148730
1174.997, 0.3600210
1175.479, 0.3909020
1175.961, 0.3985000
1176.443, 0.3621930
1176.926, 0.3298700
1177.408, 0.3399280
1177.890, 0.4058790
1178.372, 0.6615020
1178.854, 0.9405160
1179.336, 0.8572850
1179.818, 0.4464430
1180.300, 0.1112070
1180.782, 1.5538000E-02
1181.265, 2.8929001E-02
1181.747, 0.1770000
1182.229, 0.2825280
1182.711, 0.1637730
1183.193, 6.2770001E-03
1183.675, 1.7967001E-02
1184.157, 4.3063998E-02
1184.639, 6.0354002E-02
1185.122, 2.1795999E-02
1185.604, 6.2385000E-02
1186.086, 0.3339510
1186.568, 0.4906860
1187.050, 0.3699130
1187.532, 0.2544700
1188.014, 0.3121510
1188.496, 0.3905150
1188.979, 0.3036000
1189.461, 0.1113070
1189.943, 7.2105996E-02
1190.425, 0.2275810
1190.907, 0.2862880
1191.389, 0.1920060
1191.871, 0.1668560
1192.353, 0.2740900
1192.835, 0.3640320
1193.318, 0.3586120
1193.800, 0.3157950
1194.282, 0.3019870
1194.764, 0.3149990
1195.246, 0.3571230
1195.728, 0.4261180
1196.210, 0.4409110
1196.692, 0.4033660
1197.174, 0.4574370
1197.657, 0.6378470
1198.139, 0.7633820
1198.621, 0.7182570
1199.103, 0.6010290
1199.585, 0.5030300
1200.067, 0.4164560
1200.549, 0.3586190
1201.031, 0.3046860
1201.514, 0.1346530
1201.996, 7.7515997E-02
1202.478, 5.2756000E-02
1202.960, 0.2463050
1203.442, 0.5073930
1203.924, 0.5555940
1204.406, 0.5128360
1204.888, 0.4086390
1205.370, 0.2892820
1205.853, 0.1758510
1206.335, 8.3948001E-02
1206.817, 3.6490001E-03
1207.299, 3.6550000E-02
1207.781, 5.5861000E-02
1208.263, 0.3098940
1208.745, 0.4932680
1209.227, 0.5104310
1209.709, 0.5112440
1210.192, 0.5454360
1210.674, 0.5476190
1211.156, 0.4107430
1211.638, 0.2923390
1212.120, 0.4046700
1212.602, 0.6570360
1213.084, 0.6905780
1213.566, 0.4498880
1214.049, 0.2637100
1214.531, 0.1289580
1215.013, 6.5860003E-02
1215.495, 8.7967999E-02
1215.977, 0.1381210
1216.459, 0.1889650
1216.941, 0.2360730
1217.423, 0.2679250
1217.906, 0.3021920
1218.388, 0.4379010
1218.870, 0.6285930
1219.352, 0.5817850
1219.834, 0.3466160
1220.316, 0.2781600
1220.798, 0.4262550
1221.280, 0.5322150
1221.762, 0.4551200
1222.245, 0.3339930
1222.727, 0.2849670
1223.209, 0.2909510
1223.691, 0.3827660
1224.173, 0.4792710
1224.655, 0.4563660
1225.137, 0.3592620
1225.619, 0.2935320
1226.101, 0.2724700
1226.584, 0.2208050
1227.066, 6.9623001E-02
1227.548, 3.3070002E-02
1228.030, 0.3413470
1228.512, 0.5743450
1228.994, 0.4350520
1229.476, 0.2731200
1229.958, 0.4498620
1230.441, 0.7475590
1230.923, 0.7221970
1231.405, 0.3894530
1231.887, 0.3237540
1232.369, 0.6906110
1232.851, 0.7939770
1233.333, 0.5214860
1233.815, 0.2793680
1234.297, 0.1769310
1234.780, 0.2104920
1235.262, 0.4026810
1235.744, 0.6079080
1236.226, 0.5353140
1236.708, 0.2821310
1237.190, 0.2813390
1237.672, 0.4753150
1238.154, 0.6397410
1238.636, 0.7300990
1239.119, 0.6278200
1239.601, 0.3398460
1240.083, 0.1713370
1240.565, 0.3439600
1241.047, 0.5491300
1241.529, 0.4442120
1242.011, 0.2761780
1242.493, 0.2759800
1242.975, 0.3658600
1243.458, 0.4842630
1243.940, 0.6021280
1244.422, 0.5953420
1244.904, 0.4528830
1245.386, 0.2732190
1245.868, 5.8630001E-02
1246.350, 0.1676960
1246.832, 0.1772190
1247.315, 0.5106450
1247.797, 0.7684590
1248.279, 0.8417970
1248.761, 0.5351800
1249.243, 0.1127120
1249.725, 8.3466001E-02
1250.207, 0.4171620
1250.689, 0.5144250
1251.172, 0.3438140
1251.654, 0.2680950
1252.136, 0.3170080
1252.618, 0.3996550
1253.100, 0.4884120
1253.582, 0.5619060
1254.064, 0.6081880
1254.546, 0.6000230
1255.028, 0.4771780
1255.510, 0.2901120
1255.993, 7.0216998E-02
1256.475, 0.1044000
1256.957, 6.2394999E-02
1257.439, 0.1262730
1257.921, 0.2859410
1258.403, 0.3704750
1258.885, 0.3906760
1259.367, 0.3264680
1259.850, 0.2893360
1260.332, 0.3584150
1260.814, 0.4298200
1261.296, 0.4469160
1261.778, 0.4556160
1262.260, 0.4861710
1262.742, 0.5367050
1263.224, 0.6224910
1263.707, 0.7273580
1264.189, 0.7000090
1264.671, 0.4695870
1265.153, 0.3340610
1265.635, 0.3238620
1266.117, 0.3234370
1266.599, 0.2411930
1267.081, 0.1780450
1267.563, 0.2099680
1268.046, 0.2734530
1268.528, 0.3021570
1269.010, 0.3154840
1269.492, 0.3608630
1269.974, 0.4269620
1270.456, 0.4406120
1270.938, 0.4602650
1271.420, 0.5017730
1271.902, 0.5383190
1272.385, 0.6252850
1272.867, 0.7858880
1273.349, 0.8765580
1273.831, 0.7834390
1274.313, 0.6394890
1274.795, 0.4532700
1275.277, 0.3068650
1275.759, 0.2837050
1276.242, 0.2966590
1276.724, 0.2238580
1277.206, 9.6335001E-02
1277.688, 4.7451001E-02
1278.170, 8.3352998E-02
1278.652, 0.1125660
1279.134, 0.1271490
1279.616, 0.1755990
1280.099, 0.2810690
1280.581, 0.3144350
1281.063, 0.2026220
1281.545, 7.0623003E-02
1282.027, 1.8230000E-03
1282.509, 1.0250000E-03
1282.991, 0.1661350
1283.473, 0.1952790
1283.955, 0.0000000E+00
##END=



