##NAMES=Griphite
##RRUFFID=R050618
##IDEAL CHEMISTRY=Ca(Mn^2+^,Na,Li)_6_Fe^2+^Al_2_(PO_4_)_6_(F,OH)_2_
##LOCALITY=Pennington County, South Dakota, USA
##OWNER=RRUFF
##SOURCE=University of Arizona Mineral Museum
##DESCRIPTION=Dark brown massive
##STATUS=The identification of this mineral has been confirmed by X-ray diffraction and chemical analysis
##URL=rruff.info/R050618
##MEASURED CHEMISTRY=Ca_1.00_(Mn^2+^_3.76_Na_1.87_Ca_0.24_Li_0.13_)_Σ=6_(Fe^2+^_0.74_Mn^2+^_0.25_Mg_0.01_)_Σ=1_(Al_1.82_Fe^3+^_0.18_)_Σ=2_(P_1.00_O_4_)_6_F_2.00_ ; Li not measured but estimated by difference and charge balance.
239.9102, 0.0000000E+00
240.3923, 33.84375
240.8744, 31.50000
241.3565, 47.48438
241.8386, 92.81250
242.3207, 163.6250
242.8029, 253.0000
243.2850, 366.9688
243.7671, 504.1875
244.2492, 590.4219
244.7313, 606.7344
245.2134, 587.5938
245.6956, 526.8906
246.1777, 443.4844
246.6598, 380.5781
247.1419, 322.1875
247.6240, 232.5156
248.1061, 161.2031
248.5883, 176.5469
249.0704, 206.7031
249.5525, 277.9688
250.0346, 340.9688
250.5167, 342.0156
250.9988, 265.0156
251.4810, 150.0000
251.9631, 64.42188
252.4452, 16.75000
252.9273, 20.07812
253.4094, 55.95312
253.8915, 77.75000
254.3737, 85.04688
254.8558, 73.92188
255.3379, 28.12500
255.8200, 93.68750
256.3021, 323.9062
256.7842, 478.6094
257.2664, 463.1562
257.7485, 443.5312
258.2306, 499.6406
258.7127, 622.2188
259.1948, 746.7031
259.6769, 818.7500
260.1591, 839.5625
260.6412, 862.4375
261.1233, 890.0781
261.6054, 917.2812
262.0875, 944.7188
262.5696, 970.3125
263.0518, 988.9688
263.5339, 992.7500
264.0160, 989.8750
264.4981, 1015.859
264.9802, 1100.797
265.4623, 1155.359
265.9445, 1122.562
266.4266, 1052.703
266.9087, 1008.469
267.3908, 1018.984
267.8729, 1053.500
268.3550, 1064.875
268.8372, 1051.406
269.3193, 1021.000
269.8014, 958.4219
270.2835, 888.7812
270.7656, 823.5469
271.2477, 762.0781
271.7299, 730.0156
272.2120, 779.1250
272.6941, 908.6406
273.1762, 982.1875
273.6583, 931.6094
274.1404, 849.7500
274.6226, 822.4688
275.1047, 850.6406
275.5868, 880.6094
276.0689, 881.5312
276.5510, 857.8594
277.0331, 816.1562
277.5153, 738.9219
277.9974, 680.8125
278.4795, 690.4688
278.9616, 756.1094
279.4437, 847.3594
279.9258, 991.5938
280.4080, 1140.547
280.8901, 1199.672
281.3722, 1151.797
281.8543, 1122.234
282.3364, 1242.469
282.8185, 1444.578
283.3007, 1536.031
283.7828, 1372.750
284.2649, 1198.391
284.7470, 1231.516
285.2291, 1443.891
285.7112, 1639.562
286.1934, 1722.125
286.6755, 1725.969
287.1576, 1747.219
287.6397, 1810.594
288.1218, 1845.062
288.6039, 1795.531
289.0861, 1698.984
289.5682, 1630.656
290.0503, 1615.531
290.5324, 1632.203
291.0145, 1653.953
291.4966, 1693.547
291.9788, 1695.031
292.4609, 1643.703
292.9430, 1555.000
293.4251, 1426.797
293.9072, 1263.703
294.3893, 1110.109
294.8715, 1013.609
295.3536, 983.3281
295.8357, 952.9531
296.3178, 883.5000
296.7999, 848.8281
297.2820, 925.6094
297.7642, 1072.109
298.2463, 1182.516
298.7284, 1174.766
299.2105, 1067.609
299.6926, 1022.188
300.1747, 1090.781
300.6569, 1157.469
301.1390, 1210.875
301.6211, 1247.672
302.1032, 1249.938
302.5853, 1210.453
303.0674, 1168.625
303.5496, 1220.688
304.0317, 1489.016
304.5138, 1641.016
304.9959, 1617.031
305.4780, 1523.297
305.9601, 1397.391
306.4423, 1266.609
306.9244, 1192.328
307.4065, 1265.859
307.8886, 1523.078
308.3707, 1722.312
308.8528, 1838.344
309.3350, 1914.391
309.8171, 1958.109
310.2992, 1971.438
310.7813, 1951.766
311.2634, 1890.203
311.7455, 1798.156
312.2277, 1729.969
312.7098, 1715.078
313.1919, 1676.094
313.6740, 1569.094
314.1561, 1431.859
314.6382, 1306.703
315.1204, 1206.109
315.6025, 1131.094
316.0846, 1090.031
316.5667, 1087.656
317.0488, 1084.141
317.5309, 1066.422
318.0131, 1045.641
318.4952, 1039.828
318.9773, 1050.484
319.4594, 1038.688
319.9415, 932.4531
320.4236, 773.5000
320.9058, 740.3906
321.3879, 911.9531
321.8700, 1094.672
322.3521, 1088.062
322.8342, 942.6875
323.3163, 838.7969
323.7985, 847.9531
324.2806, 911.3594
324.7627, 974.7031
325.2448, 1035.906
325.7269, 1076.156
326.2090, 1078.172
326.6912, 1051.328
327.1733, 1032.641
327.6554, 1000.922
328.1375, 1003.438
328.6196, 1074.203
329.1017, 1194.109
329.5839, 1328.391
330.0660, 1469.328
330.5481, 1606.703
331.0302, 1715.094
331.5123, 1808.016
331.9944, 1836.375
332.4766, 1748.469
332.9587, 1625.438
333.4408, 1528.250
333.9229, 1466.906
334.4050, 1429.391
334.8871, 1407.047
335.3693, 1401.219
335.8514, 1393.984
336.3335, 1420.672
336.8156, 1409.234
337.2977, 1313.844
337.7798, 1165.609
338.2620, 1014.906
338.7441, 888.6094
339.2262, 786.3438
339.7083, 707.1250
340.1904, 651.5781
340.6725, 622.3438
341.1547, 658.8906
341.6368, 693.5781
342.1189, 656.5000
342.6010, 539.8906
343.0831, 412.1094
343.5652, 355.6719
344.0474, 378.6875
344.5295, 398.0938
345.0116, 389.7500
345.4937, 401.8125
345.9758, 478.0938
346.4579, 594.2344
346.9401, 685.1094
347.4222, 707.9531
347.9043, 685.0469
348.3864, 655.9062
348.8685, 608.3594
349.3506, 600.8750
349.8328, 698.9531
350.3149, 838.5469
350.7970, 938.8906
351.2791, 978.7031
351.7612, 1007.438
352.2433, 1075.000
352.7255, 1168.406
353.2076, 1235.750
353.6897, 1267.500
354.1718, 1264.734
354.6539, 1211.703
355.1360, 1109.734
355.6182, 1044.109
356.1003, 1073.672
356.5824, 1124.406
357.0645, 1115.297
357.5466, 1043.953
358.0287, 965.0938
358.5109, 917.6094
358.9930, 898.7500
359.4751, 877.2969
359.9572, 850.0156
360.4393, 824.4844
360.9214, 820.7969
361.4036, 815.7812
361.8857, 767.3594
362.3678, 659.2969
362.8499, 523.4688
363.3320, 416.4531
363.8141, 337.9062
364.2963, 293.7969
364.7784, 322.1719
365.2605, 349.2031
365.7426, 324.5156
366.2247, 252.5000
366.7068, 166.4375
367.1890, 81.45312
367.6711, 3.750000
368.1532, 28.14062
368.6353, 260.0625
369.1174, 446.0000
369.5995, 494.6562
370.0817, 469.8594
370.5638, 436.1875
371.0459, 409.3281
371.5280, 426.1719
372.0101, 586.0469
372.4922, 908.2031
372.9744, 1097.531
373.4565, 1019.312
373.9386, 851.1406
374.4207, 715.2344
374.9028, 617.6875
375.3849, 590.0000
375.8671, 710.9062
376.3492, 893.7344
376.8313, 969.0312
377.3134, 915.7031
377.7955, 860.4219
378.2776, 907.0781
378.7598, 1017.609
379.2419, 1041.906
379.7240, 898.4688
380.2061, 760.9844
380.6882, 736.1406
381.1703, 776.4531
381.6525, 785.4531
382.1346, 730.5000
382.6167, 630.2969
383.0988, 505.3594
383.5809, 321.1562
384.0630, 207.8281
384.5452, 212.2656
385.0273, 247.5312
385.5094, 283.7656
385.9915, 302.8594
386.4736, 266.8125
386.9557, 137.0156
387.4379, 65.79688
387.9200, 189.6406
388.4021, 173.3750
388.8842, 155.1875
389.3663, 168.1875
389.8484, 184.0625
390.3306, 178.0000
390.8127, 141.9375
391.2948, 74.71875
391.7769, 48.62500
392.2590, 237.8750
392.7411, 348.1406
393.2233, 299.3750
393.7054, 246.8438
394.1875, 286.7656
394.6696, 395.8281
395.1517, 505.0625
395.6339, 591.2500
396.1160, 657.9531
396.5981, 704.5781
397.0802, 732.2031
397.5623, 742.1875
398.0444, 726.5312
398.5266, 698.7031
399.0087, 683.1094
399.4908, 681.5625
399.9729, 686.3750
400.4550, 705.5469
400.9371, 725.3438
401.4193, 740.0625
401.9014, 750.0312
402.3835, 707.4688
402.8656, 530.1875
403.3477, 198.9219
403.8298, 91.40625
404.3120, 436.7188
404.7941, 727.8125
405.2762, 726.8594
405.7583, 542.7188
406.2404, 367.6250
406.7225, 285.3906
407.2047, 255.2969
407.6868, 188.1250
408.1689, 30.90625
408.6510, 38.53125
409.1331, 89.20312
409.6152, 210.3281
410.0974, 178.2031
410.5795, 24.73438
411.0616, 97.48438
411.5437, 61.17188
412.0258, 85.78125
412.5079, 167.7188
412.9901, 164.4219
413.4722, 152.2812
413.9543, 136.6406
414.4364, 142.2656
414.9185, 214.6562
415.4006, 379.4219
415.8828, 526.6250
416.3649, 551.3438
416.8470, 499.9062
417.3291, 507.5938
417.8112, 609.9375
418.2933, 723.6250
418.7755, 772.0312
419.2576, 753.1562
419.7397, 721.4062
420.2218, 642.5156
420.7039, 586.0469
421.1860, 607.0000
421.6682, 679.0781
422.1503, 747.0781
422.6324, 787.8281
423.1145, 798.8594
423.5966, 772.5469
424.0787, 681.8750
424.5609, 606.4375
425.0430, 549.3750
425.5251, 510.9688
426.0072, 497.4531
426.4893, 497.0625
426.9714, 484.5781
427.4536, 441.5781
427.9357, 377.1094
428.4178, 304.1406
428.8999, 200.3281
429.3820, 139.0938
429.8641, 160.0000
430.3463, 222.7344
430.8284, 316.6719
431.3105, 443.3281
431.7926, 516.3125
432.2747, 420.5000
432.7568, 216.0156
433.2390, 103.8438
433.7211, 124.6875
434.2032, 167.2500
434.6853, 126.5156
435.1674, 29.82812
435.6495, 14.37500
436.1317, 187.2188
436.6138, 341.1875
437.0959, 343.4688
437.5780, 256.7656
438.0601, 202.2656
438.5422, 221.7812
439.0244, 288.0156
439.5065, 366.0312
439.9886, 478.0781
440.4707, 528.7188
440.9528, 479.9844
441.4349, 416.4375
441.9171, 375.5938
442.3992, 352.7656
442.8813, 324.6406
443.3634, 275.1250
443.8455, 224.9062
444.3276, 235.2812
444.8098, 332.0938
445.2919, 406.4844
445.7740, 424.2656
446.2561, 426.0000
446.7382, 433.2656
447.2203, 445.5469
447.7025, 450.9219
448.1846, 461.6406
448.6667, 459.2344
449.1488, 385.9219
449.6309, 234.2188
450.1130, 109.6094
450.5952, 78.68750
451.0773, 109.5781
451.5594, 113.2656
452.0415, 80.15625
452.5236, 42.10938
453.0057, 31.71875
453.4879, 85.46875
453.9700, 21.68750
454.4521, 159.7969
454.9342, 334.1719
455.4163, 382.8438
455.8984, 307.2031
456.3806, 257.3438
456.8627, 282.9844
457.3448, 278.2188
457.8269, 204.2344
458.3090, 100.2344
458.7911, 5.453125
459.2733, 101.0625
459.7554, 154.4688
460.2375, 94.01562
460.7196, 79.17188
461.2017, 150.7188
461.6838, 40.50000
462.1660, 63.87500
462.6481, 28.37500
463.1302, 90.87500
463.6123, 183.0781
464.0944, 218.5781
464.5765, 223.1562
465.0587, 198.3438
465.5408, 159.6094
466.0229, 160.2031
466.5050, 215.7188
466.9871, 291.5938
467.4692, 349.4375
467.9514, 389.8125
468.4335, 416.6406
468.9156, 398.0625
469.3977, 399.0156
469.8798, 469.8438
470.3619, 579.2344
470.8441, 671.6250
471.3262, 721.1250
471.8083, 735.7969
472.2904, 732.7969
472.7725, 719.6250
473.2546, 657.5312
473.7368, 473.6875
474.2189, 305.4844
474.7010, 214.1406
475.1831, 191.8750
475.6652, 208.0938
476.1473, 268.8125
476.6295, 334.7344
477.1116, 343.2188
477.5937, 295.0938
478.0758, 235.3906
478.5579, 171.1719
479.0400, 112.3281
479.5222, 70.51562
480.0043, 43.98438
480.4864, 40.00000
480.9685, 103.6562
481.4506, 155.7812
481.9327, 108.5625
482.4149, 12.59375
482.8970, 113.4375
483.3791, 144.2969
483.8612, 113.8125
484.3433, 39.35938
484.8254, 147.0000
485.3076, 249.7500
485.7897, 201.9688
486.2718, 133.8438
486.7539, 120.0781
487.2360, 158.9688
487.7181, 212.9062
488.2003, 252.8125
488.6824, 296.9219
489.1645, 411.8438
489.6466, 617.4062
490.1287, 737.6250
490.6108, 649.3906
491.0930, 504.4375
491.5751, 516.8750
492.0572, 699.0469
492.5393, 813.2500
493.0214, 702.6094
493.5035, 535.1719
493.9857, 495.6562
494.4678, 572.0781
494.9499, 644.6719
495.4320, 648.3125
495.9141, 598.0312
496.3962, 533.8750
496.8784, 425.2656
497.3605, 351.3281
497.8426, 339.5312
498.3247, 336.9688
498.8068, 302.3438
499.2889, 243.3906
499.7711, 200.5469
500.2532, 210.0781
500.7353, 242.3438
501.2174, 200.0469
501.6995, 55.60938
502.1816, 25.71875
502.6638, 39.43750
503.1459, 156.9375
503.6280, 246.5938
504.1101, 306.3906
504.5922, 309.8750
505.0743, 184.3125
505.5565, 39.87500
506.0386, 1.500000
506.5207, 58.25000
507.0028, 133.0156
507.4849, 191.1094
507.9670, 233.1406
508.4492, 257.7188
508.9313, 237.0312
509.4134, 252.4844
509.8955, 349.3750
510.3776, 439.9844
510.8597, 456.1719
511.3419, 419.4844
511.8240, 402.5781
512.3061, 446.2500
512.7882, 521.8750
513.2703, 579.6250
513.7524, 622.5156
514.2346, 620.7344
514.7167, 530.4844
515.1988, 434.6875
515.6809, 418.9219
516.1630, 470.0781
516.6451, 498.6406
517.1273, 455.1875
517.6094, 393.5938
518.0915, 371.4688
518.5736, 376.3125
519.0557, 346.5781
519.5378, 256.9062
520.0200, 148.2344
520.5021, 97.45312
520.9842, 125.3438
521.4663, 144.0625
521.9484, 178.1094
522.4305, 178.9844
522.9127, 87.87500
523.3948, 41.39062
523.8769, 113.1875
524.3590, 85.85938
524.8411, 15.54688
525.3232, 28.81250
525.8054, 47.40625
526.2875, 41.79688
526.7696, 1.593750
527.2517, 42.78125
527.7338, 71.01562
528.2159, 84.78125
528.6981, 86.70312
529.1802, 85.17188
529.6623, 61.67188
530.1444, 10.35938
530.6265, 105.6094
531.1086, 188.6719
531.5908, 249.6875
532.0729, 279.5000
532.5550, 260.6562
533.0371, 191.6250
533.5192, 177.6406
534.0013, 291.5781
534.4835, 369.1250
534.9656, 352.1094
535.4477, 299.3438
535.9298, 265.5781
536.4119, 262.5469
536.8940, 281.2812
537.3762, 328.2188
537.8583, 389.2500
538.3404, 422.3906
538.8225, 426.4844
539.3046, 410.8281
539.7867, 377.2656
540.2689, 326.4062
540.7510, 261.4062
541.2331, 163.3906
541.7152, 113.1875
542.1973, 161.6406
542.6794, 242.5312
543.1616, 308.7656
543.6437, 350.3281
544.1258, 357.9219
544.6079, 323.2344
545.0900, 259.5625
545.5721, 196.0469
546.0543, 116.4688
546.5364, 86.82812
547.0185, 180.1875
547.5006, 269.8750
547.9827, 278.2188
548.4648, 219.0469
548.9470, 149.0469
549.4291, 73.84375
549.9112, 16.60938
550.3933, 1.250000
550.8754, 18.70312
551.3575, 81.95312
551.8397, 195.9219
552.3218, 315.7188
552.8039, 388.8438
553.2860, 410.7812
553.7681, 422.4688
554.2502, 421.5000
554.7324, 414.7812
555.2145, 382.2031
555.6966, 355.2344
556.1787, 379.0938
556.6608, 462.5625
557.1429, 562.5000
557.6251, 623.1875
558.1072, 655.1719
558.5893, 745.8594
559.0714, 923.2969
559.5535, 1067.266
560.0356, 1127.328
560.5178, 1114.031
560.9999, 1033.781
561.4820, 858.1719
561.9641, 703.4688
562.4462, 594.7656
562.9283, 531.3906
563.4105, 528.8750
563.8926, 572.8594
564.3747, 615.3281
564.8568, 626.1250
565.3389, 611.5938
565.8210, 582.0781
566.3032, 507.7656
566.7853, 499.6875
567.2674, 625.3281
567.7495, 765.9219
568.2316, 907.2969
568.7137, 1017.531
569.1959, 1021.000
569.6780, 847.1875
570.1601, 633.1406
570.6422, 493.9688
571.1243, 420.8594
571.6064, 396.5625
572.0886, 419.6875
572.5707, 457.6562
573.0528, 480.9531
573.5349, 489.9531
574.0170, 503.6719
574.4991, 515.7344
574.9813, 540.1406
575.4634, 594.4062
575.9455, 652.1250
576.4276, 687.8750
576.9097, 699.6406
577.3918, 703.5469
577.8740, 716.0938
578.3561, 727.5312
578.8382, 694.7812
579.3203, 608.4219
579.8024, 582.9062
580.2845, 682.1719
580.7667, 829.1562
581.2488, 915.7344
581.7309, 942.7500
582.2130, 973.3438
582.6951, 1043.859
583.1772, 1094.469
583.6594, 1087.203
584.1415, 1034.328
584.6236, 942.0000
585.1057, 816.7656
585.5878, 709.5625
586.0699, 701.3281
586.5521, 799.0000
587.0342, 855.3906
587.5163, 863.4531
587.9984, 849.2188
588.4805, 790.0000
588.9626, 722.8281
589.4448, 717.5938
589.9269, 796.7656
590.4090, 835.7656
590.8911, 734.9844
591.3732, 587.4688
591.8553, 498.0625
592.3375, 468.3125
592.8196, 469.4844
593.3017, 490.6406
593.7838, 513.8281
594.2659, 488.8594
594.7480, 359.7031
595.2302, 325.2812
595.7123, 517.6875
596.1944, 674.0312
596.6765, 655.4844
597.1586, 536.8906
597.6407, 456.9844
598.1229, 465.8594
598.6050, 500.5938
599.0871, 515.6406
599.5692, 513.7656
600.0513, 494.7031
600.5334, 458.3438
601.0156, 436.5312
601.4977, 448.7969
601.9798, 494.9375
602.4619, 575.6719
602.9440, 813.0000
603.4261, 910.6562
603.9083, 726.7031
604.3904, 509.5156
604.8725, 415.1719
605.3546, 425.6719
605.8367, 455.7031
606.3188, 465.3906
606.8010, 469.7188
607.2831, 482.6719
607.7652, 499.2188
608.2473, 520.1406
608.7294, 553.4375
609.2115, 559.6719
609.6937, 483.4688
610.1758, 343.4219
610.6579, 299.5000
611.1400, 450.5625
611.6221, 565.2188
612.1042, 568.9375
612.5864, 531.1719
613.0685, 519.4844
613.5506, 527.5156
614.0327, 490.6875
614.5148, 351.0469
614.9969, 182.2500
615.4791, 154.4375
615.9612, 269.2344
616.4433, 350.7344
616.9254, 367.7656
617.4075, 340.8906
617.8896, 261.4844
618.3718, 142.0000
618.8539, 88.04688
619.3360, 162.2031
619.8181, 231.0156
620.3002, 216.1094
620.7823, 193.2344
621.2645, 273.5000
621.7466, 449.3125
622.2287, 600.6641
622.7108, 631.9297
623.1929, 575.2344
623.6750, 521.1328
624.1572, 467.2734
624.6393, 433.7344
625.1214, 438.3125
625.6035, 447.9062
626.0856, 406.9453
626.5677, 333.0781
627.0499, 332.1562
627.5320, 480.8438
628.0141, 636.2188
628.4962, 753.6641
628.9783, 826.6953
629.4604, 842.8828
629.9426, 803.5000
630.4247, 718.0469
630.9068, 577.0859
631.3889, 414.8516
631.8710, 382.9297
632.3531, 520.0000
632.8353, 629.5078
633.3174, 666.4531
633.7995, 657.5547
634.2816, 609.7734
634.7637, 533.2266
635.2458, 479.2656
635.7280, 486.3203
636.2101, 486.1172
636.6922, 412.1094
637.1743, 324.1250
637.6564, 330.1641
638.1385, 433.7188
638.6207, 518.4062
639.1028, 476.5391
639.5849, 343.6484
640.0670, 280.5000
640.5491, 315.3125
641.0313, 307.9453
641.5134, 178.5078
641.9955, 51.70312
642.4776, 39.03906
642.9597, 122.2109
643.4418, 213.5469
643.9240, 370.2266
644.4061, 446.7812
644.8882, 272.6094
645.3703, 18.86719
645.8524, 50.43750
646.3345, 84.85938
646.8167, 231.8828
647.2988, 232.3047
647.7809, 128.5547
648.2630, 70.63281
648.7451, 69.02344
649.2272, 72.02344
649.7094, 65.14062
650.1915, 66.49219
650.6736, 104.2422
651.1557, 164.7188
651.6378, 193.7109
652.1199, 144.3281
652.6021, 110.3438
653.0842, 147.5938
653.5663, 214.7422
654.0484, 256.6094
654.5305, 271.5000
655.0126, 303.2031
655.4948, 390.7188
655.9769, 496.0547
656.4590, 501.1094
656.9411, 385.7734
657.4232, 307.7578
657.9053, 313.1641
658.3875, 327.7812
658.8696, 300.8203
659.3517, 238.5625
659.8338, 152.9297
660.3159, 12.39844
660.7980, 109.0156
661.2802, 24.58594
661.7623, 108.1641
662.2444, 165.6094
662.7265, 143.7891
663.2086, 85.49219
663.6907, 9.734375
664.1729, 57.89844
664.6550, 63.75781
665.1371, 6.539063
665.6192, 61.60156
666.1013, 150.1719
666.5834, 212.2500
667.0656, 216.6562
667.5477, 171.2734
668.0298, 95.91406
668.5119, 59.13281
668.9940, 135.2656
669.4761, 22.81250
669.9583, 109.8906
670.4404, 144.8594
670.9225, 96.83594
671.4046, 14.71875
671.8867, 82.39844
672.3688, 157.6484
672.8510, 153.8672
673.3331, 81.55469
673.8152, 6.570313
674.2973, 68.91406
674.7794, 138.3906
675.2615, 203.0703
675.7437, 255.0391
676.2258, 275.0625
676.7079, 246.9609
677.1900, 233.6016
677.6721, 244.6562
678.1542, 261.9062
678.6364, 282.8750
679.1185, 302.6641
679.6006, 309.5625
680.0827, 302.2578
680.5648, 306.5781
681.0469, 364.4062
681.5291, 445.7344
682.0112, 472.6797
682.4933, 447.5234
682.9754, 440.0703
683.4575, 488.5312
683.9396, 518.3906
684.4218, 411.7734
684.9039, 141.3594
685.3860, 23.03906
685.8681, 5.648438
686.3502, 22.63281
686.8323, 18.53125
687.3145, 17.53125
687.7966, 78.82812
688.2787, 191.1250
688.7608, 249.6328
689.2429, 148.9531
689.7250, 11.27344
690.2072, 20.78906
690.6893, 19.68750
691.1714, 39.46875
691.6535, 17.25000
692.1356, 11.15625
692.6177, 17.17188
693.0999, 1.125000
693.5820, 60.91406
694.0641, 196.0000
694.5462, 295.9922
695.0283, 322.4922
695.5104, 331.0000
695.9926, 344.3203
696.4747, 367.0234
696.9568, 415.0469
697.4389, 526.3672
697.9210, 597.6016
698.4031, 531.6250
698.8853, 421.2578
699.3674, 371.5938
699.8495, 388.5938
700.3316, 440.8984
700.8137, 513.1172
701.2958, 596.2422
701.7780, 684.8984
702.2601, 781.6484
702.7422, 798.8984
703.2243, 689.0234
703.7064, 612.3125
704.1885, 705.8281
704.6707, 865.6719
705.1528, 873.7188
705.6349, 681.7656
706.1170, 537.9531
706.5991, 498.3125
707.0812, 491.0625
707.5634, 495.0859
708.0455, 496.9844
708.5276, 481.0156
709.0097, 443.1406
709.4918, 396.6875
709.9739, 339.1250
710.4561, 286.1484
710.9382, 296.7812
711.4203, 364.3125
711.9024, 374.8359
712.3845, 278.2578
712.8666, 175.4844
713.3488, 188.3047
713.8309, 316.6250
714.3130, 394.6484
714.7951, 343.2500
715.2772, 352.3516
715.7593, 548.7031
716.2415, 728.4922
716.7236, 686.1641
717.2057, 479.2734
717.6878, 358.4766
718.1699, 461.5703
718.6520, 598.2031
719.1342, 633.8672
719.6163, 612.0703
720.0984, 607.5859
720.5805, 630.4922
721.0626, 650.7578
721.5447, 635.4141
722.0269, 602.5234
722.5090, 593.6094
722.9911, 619.0312
723.4732, 619.1797
723.9553, 572.9453
724.4374, 536.8047
724.9196, 555.2344
725.4017, 595.8672
725.8838, 599.0156
726.3659, 559.1172
726.8480, 512.2891
727.3301, 459.1406
727.8123, 415.0859
728.2944, 376.4844
728.7765, 361.2578
729.2586, 403.7812
729.7407, 497.6953
730.2228, 565.8594
730.7050, 543.1250
731.1871, 458.8125
731.6692, 342.8359
732.1513, 200.9688
732.6334, 119.6562
733.1155, 125.5391
733.5977, 166.6953
734.0798, 191.6484
734.5619, 205.6953
735.0440, 263.2734
735.5261, 442.8594
736.0082, 532.1328
736.4904, 429.0156
736.9725, 313.9922
737.4546, 295.8906
737.9367, 347.6328
738.4188, 388.0781
738.9009, 390.0000
739.3831, 395.5234
739.8652, 447.5234
740.3473, 502.1172
740.8294, 495.7109
741.3115, 445.5625
741.7936, 419.8203
742.2758, 449.3906
742.7579, 493.2422
743.2400, 492.8047
743.7221, 453.1250
744.2042, 399.3828
744.6863, 324.5781
745.1685, 273.0000
745.6506, 259.0547
746.1327, 278.3750
746.6148, 333.0625
747.0969, 428.0312
747.5790, 505.8203
748.0612, 562.7656
748.5433, 601.5859
749.0254, 652.2656
749.5075, 670.7812
749.9896, 579.9609
750.4717, 415.3281
750.9539, 320.3750
751.4360, 397.9141
751.9181, 491.6328
752.4002, 426.9062
752.8823, 288.5078
753.3644, 244.2109
753.8466, 300.2188
754.3287, 361.4844
754.8108, 376.1250
755.2929, 356.4922
755.7750, 317.7422
756.2571, 255.7656
756.7393, 223.3281
757.2214, 240.4922
757.7035, 234.3047
758.1856, 138.1953
758.6677, 27.67969
759.1498, 33.79688
759.6320, 167.7734
760.1141, 250.0156
760.5962, 224.5547
761.0783, 195.4219
761.5604, 212.4062
762.0425, 236.3203
762.5247, 217.6172
763.0068, 160.2969
763.4889, 109.9375
763.9710, 89.25781
764.4531, 91.48438
764.9352, 117.4531
765.4174, 158.8672
765.8995, 198.7734
766.3816, 233.4922
766.8637, 258.7812
767.3458, 272.0547
767.8279, 274.8828
768.3101, 260.4453
768.7922, 216.2031
769.2743, 240.5391
769.7564, 379.8984
770.2385, 491.1250
770.7206, 510.0703
771.2028, 469.6328
771.6849, 412.2578
772.1670, 337.9766
772.6491, 259.7188
773.1312, 135.5547
773.6133, 61.13281
774.0955, 111.9766
774.5776, 205.5703
775.0597, 253.7031
775.5418, 253.4297
776.0239, 267.0078
776.5060, 358.2109
776.9882, 418.3281
777.4703, 253.6094
777.9524, 16.63281
778.4345, 97.33594
778.9166, 26.77344
779.3987, 171.9531
779.8809, 238.3906
780.3630, 252.9844
780.8451, 262.3281
781.3272, 266.3828
781.8093, 242.4375
782.2914, 186.6641
782.7736, 112.7422
783.2557, 4.757813
783.7378, 98.36719
784.2199, 156.0781
784.7020, 169.0703
785.1841, 114.4219
785.6663, 104.1250
786.1484, 267.4219
786.6305, 276.0000
787.1126, 238.0156
787.5947, 253.5234
788.0768, 308.6953
788.5590, 322.7266
789.0411, 248.9766
789.5232, 166.6250
790.0053, 142.6250
790.4874, 152.8047
790.9695, 157.7422
791.4517, 160.5781
791.9338, 192.3203
792.4159, 258.8125
792.8980, 308.4922
793.3801, 237.7500
793.8622, 69.83594
794.3444, 70.43750
794.8265, 275.4609
795.3086, 419.1094
795.7907, 407.5391
796.2728, 343.0938
796.7549, 320.3438
797.2371, 336.3672
797.7192, 359.4141
798.2013, 444.5625
798.6834, 456.5000
799.1655, 317.3984
799.6476, 174.1484
800.1298, 103.3750
800.6119, 93.13281
801.0940, 116.9844
801.5761, 175.4297
802.0582, 227.9141
802.5403, 267.2422
803.0225, 279.5078
803.5046, 243.9219
803.9867, 175.3750
804.4688, 80.64062
804.9509, 27.52344
805.4330, 81.17188
805.9152, 6.593750
806.3973, 154.3438
806.8794, 151.4844
807.3615, 25.14844
807.8436, 7.187500
808.3257, 145.5547
808.8079, 283.5938
809.2900, 314.3359
809.7721, 270.8594
810.2542, 237.4609
810.7363, 210.9922
811.2184, 205.5391
811.7006, 232.2969
812.1827, 262.0000
812.6648, 298.0625
813.1469, 321.1641
813.6290, 302.6328
814.1111, 241.8438
814.5933, 187.4766
815.0754, 101.9844
815.5575, 80.56250
816.0396, 225.1328
816.5217, 395.3516
817.0038, 459.2031
817.4860, 429.1328
817.9681, 386.7891
818.4502, 360.3594
818.9323, 356.6172
819.4144, 409.9609
819.8965, 480.3984
820.3787, 508.9766
820.8608, 494.6016
821.3429, 445.4141
821.8250, 365.1406
822.3071, 279.8906
822.7892, 213.2266
823.2714, 167.8672
823.7535, 164.2266
824.2356, 204.7891
824.7177, 226.8984
825.1998, 211.2344
825.6819, 198.1250
826.1641, 224.7578
826.6462, 274.1250
827.1283, 290.5312
827.6104, 243.8203
828.0925, 232.0703
828.5746, 297.2266
829.0568, 347.1484
829.5389, 344.4219
830.0210, 307.4688
830.5031, 254.4219
830.9852, 186.7578
831.4673, 121.1875
831.9495, 39.25000
832.4316, 10.29688
832.9137, 10.64844
833.3958, 35.52344
833.8779, 159.1797
834.3600, 328.1172
834.8422, 440.3828
835.3243, 440.3984
835.8064, 402.0156
836.2885, 415.8984
836.7706, 440.9609
837.2527, 325.7891
837.7349, 120.0625
838.2170, 64.82812
838.6991, 241.4922
839.1812, 461.3125
839.6633, 513.5625
840.1454, 438.6094
840.6276, 387.2969
841.1097, 358.5781
841.5918, 398.8750
842.0739, 543.4688
842.5560, 654.8516
843.0381, 630.4219
843.5203, 514.2266
844.0024, 404.1484
844.4845, 283.9297
844.9666, 225.6797
845.4487, 271.7188
845.9308, 302.5234
846.4130, 273.7891
846.8951, 218.7969
847.3772, 169.8906
847.8593, 127.5156
848.3414, 82.17188
848.8235, 13.57812
849.3057, 54.10156
849.7878, 39.77344
850.2699, 160.9062
850.7520, 234.1406
851.2341, 258.6250
851.7162, 246.7891
852.1984, 198.4453
852.6805, 162.0859
853.1626, 178.4688
853.6447, 212.6484
854.1268, 221.8828
854.6089, 219.6016
855.0911, 249.0859
855.5732, 312.0703
856.0553, 349.5078
856.5374, 304.7188
857.0195, 228.3672
857.5016, 224.1797
857.9838, 273.9453
858.4659, 285.3125
858.9480, 248.8281
859.4301, 233.1875
859.9122, 279.1797
860.3943, 332.4375
860.8765, 296.4297
861.3586, 163.3906
861.8407, 122.8281
862.3228, 215.0156
862.8049, 256.0469
863.2870, 171.9141
863.7692, 85.97656
864.2513, 92.81250
864.7334, 174.9922
865.2155, 259.9688
865.6976, 383.1250
866.1797, 461.0547
866.6619, 447.3906
867.1440, 412.7266
867.6261, 379.3281
868.1082, 361.0781
868.5903, 388.9297
869.0724, 463.7109
869.5546, 503.9219
870.0367, 481.5234
870.5188, 428.9219
871.0009, 343.6875
871.4830, 249.4375
871.9651, 133.8750
872.4473, 32.81250
872.9294, 53.07031
873.4115, 253.7578
873.8936, 413.1641
874.3757, 312.8438
874.8578, 122.4531
875.3400, 11.78906
875.8221, 21.07812
876.3042, 17.21875
876.7863, 112.8047
877.2684, 206.3516
877.7505, 252.4141
878.2327, 274.2422
878.7148, 321.3984
879.1969, 379.1250
879.6790, 382.4141
880.1611, 328.6484
880.6432, 267.7031
881.1254, 222.8984
881.6075, 182.5000
882.0896, 128.1562
882.5717, 63.03125
883.0538, 18.32031
883.5359, 7.898438
884.0181, 12.32031
884.5002, 103.0078
884.9823, 178.7891
885.4644, 167.0859
885.9465, 105.9453
886.4286, 100.2109
886.9108, 159.5859
887.3929, 245.1875
887.8750, 403.6484
888.3571, 514.8125
888.8392, 535.2344
889.3214, 494.5938
889.8035, 402.3984
890.2856, 266.4688
890.7677, 161.2344
891.2498, 97.17188
891.7319, 61.43750
892.2141, 84.03906
892.6962, 100.2812
893.1783, 60.14844
893.6604, 7.156250
894.1425, 56.61719
894.6246, 80.67969
895.1068, 83.62500
895.5889, 66.13281
896.0710, 29.81250
896.5531, 37.67188
897.0352, 116.6484
897.5173, 207.1484
897.9995, 287.3828
898.4816, 293.9922
898.9637, 193.1250
899.4458, 94.91406
899.9279, 120.1875
900.4100, 179.2422
900.8922, 149.0703
901.3743, 59.92969
901.8564, 26.88281
902.3385, 87.55469
902.8206, 76.03125
903.3027, 60.64062
903.7849, 219.1797
904.2670, 208.0312
904.7491, 81.78906
905.2312, 8.875000
905.7133, 2.085938
906.1954, 55.25781
906.6776, 164.1875
907.1597, 279.0234
907.6418, 357.9922
908.1239, 394.5469
908.6060, 359.3672
909.0881, 250.3203
909.5703, 184.8828
910.0524, 183.2812
910.5345, 211.7812
911.0166, 262.1875
911.4987, 302.1875
911.9808, 261.5625
912.4630, 130.4766
912.9451, 84.75000
913.4272, 150.9297
913.9093, 229.1172
914.3914, 327.3516
914.8735, 372.6094
915.3557, 272.6172
915.8378, 89.07812
916.3199, 30.24219
916.8020, 187.6016
917.2841, 231.8281
917.7662, 40.41406
918.2484, 98.84375
918.7305, 80.47656
919.2126, 12.32031
919.6947, 144.2031
920.1768, 295.7109
920.6589, 344.1953
921.1411, 184.5234
921.6232, 72.47656
922.1053, 107.8203
922.5874, 133.0391
923.0695, 3.382813
923.5516, 157.0938
924.0338, 153.2109
924.5159, 28.35938
924.9980, 187.6094
925.4801, 296.1953
925.9622, 323.6641
926.4443, 182.5078
926.9265, 19.44531
927.4086, 37.57031
927.8907, 11.64062
928.3728, 30.23438
928.8549, 69.23438
929.3370, 106.5156
929.8192, 147.8672
930.3013, 181.2734
930.7834, 175.8906
931.2655, 172.4609
931.7476, 247.3516
932.2297, 377.5859
932.7119, 463.9453
933.1940, 461.6797
933.6761, 417.1250
934.1582, 366.8750
934.6403, 310.8359
935.1224, 241.8047
935.6046, 169.1406
936.0867, 113.9375
936.5688, 80.60938
937.0509, 64.17969
937.5330, 63.12500
938.0151, 68.51562
938.4973, 61.80469
938.9794, 54.78125
939.4615, 93.86719
939.9436, 162.6797
940.4257, 166.8750
940.9078, 85.32812
941.3900, 22.42969
941.8721, 75.69531
942.3542, 190.7344
942.8363, 257.5938
943.3184, 279.9922
943.8005, 263.2969
944.2827, 213.5391
944.7648, 222.8203
945.2469, 329.6484
945.7290, 458.9688
946.2111, 533.6562
946.6932, 552.9219
947.1754, 495.9609
947.6575, 361.8906
948.1396, 253.2188
948.6217, 179.7109
949.1038, 159.8281
949.5859, 211.0625
950.0681, 284.1641
950.5502, 305.5391
951.0323, 281.4062
951.5144, 290.4375
951.9965, 334.6797
952.4786, 396.7266
952.9608, 487.0938
953.4429, 549.3672
953.9250, 538.5547
954.4071, 504.6875
954.8892, 543.2969
955.3713, 663.1641
955.8535, 700.9531
956.3356, 616.7734
956.8177, 566.2422
957.2998, 595.6953
957.7819, 631.1250
958.2640, 609.8828
958.7462, 568.9141
959.2283, 600.3438
959.7104, 724.3438
960.1925, 810.2734
960.6746, 860.1016
961.1567, 885.1328
961.6389, 861.3281
962.1210, 832.5859
962.6031, 828.1094
963.0852, 846.4297
963.5673, 886.5938
964.0494, 966.5000
964.5316, 1021.672
965.0137, 1039.680
965.4958, 1049.953
965.9779, 1047.000
966.4600, 1049.367
966.9421, 1079.836
967.4243, 1128.914
967.9064, 1157.891
968.3885, 1145.977
968.8706, 1158.773
969.3527, 1232.227
969.8348, 1289.719
970.3170, 1281.359
970.7991, 1263.102
971.2812, 1290.125
971.7633, 1356.773
972.2454, 1428.625
972.7275, 1524.805
973.2097, 1578.055
973.6918, 1554.547
974.1739, 1515.023
974.6560, 1441.688
975.1381, 1398.781
975.6202, 1490.562
976.1024, 1685.688
976.5845, 1803.703
977.0666, 1746.469
977.5487, 1735.109
978.0308, 1877.055
978.5129, 2009.867
978.9951, 2018.672
979.4772, 1985.586
979.9593, 2028.781
980.4414, 2143.773
980.9235, 2218.633
981.4056, 2208.859
981.8878, 2169.672
982.3699, 2034.648
982.8520, 1969.891
983.3341, 2174.758
983.8162, 2461.328
984.2983, 2550.977
984.7805, 2436.844
985.2626, 2354.430
985.7447, 2418.516
986.2268, 2463.484
986.7089, 2418.609
987.1910, 2343.852
987.6732, 2280.477
988.1553, 2216.445
988.6374, 2117.102
989.1195, 1985.555
989.6016, 1887.406
990.0837, 1872.750
990.5659, 1852.312
991.0480, 1758.164
991.5301, 1675.125
992.0122, 1681.609
992.4943, 1735.586
992.9764, 1781.039
993.4586, 1803.422
993.9407, 1783.211
994.4228, 1677.477
994.9049, 1577.211
995.3870, 1540.539
995.8691, 1509.391
996.3513, 1426.023
996.8334, 1321.938
997.3155, 1247.023
997.7976, 1210.000
998.2797, 1198.211
998.7618, 1213.227
999.2440, 1241.109
999.7261, 1310.281
1000.208, 1356.859
1000.690, 1303.516
1001.172, 1201.992
1001.655, 1133.234
1002.137, 1111.375
1002.619, 1117.617
1003.101, 1172.766
1003.583, 1209.039
1004.065, 1201.617
1004.547, 1154.984
1005.029, 1028.305
1005.511, 886.4297
1005.994, 860.1953
1006.476, 947.0703
1006.958, 954.2656
1007.440, 732.5938
1007.922, 536.0312
1008.404, 490.8594
1008.886, 509.2891
1009.368, 548.4844
1009.851, 595.2109
1010.333, 630.2734
1010.815, 655.5000
1011.297, 690.8047
1011.779, 771.2109
1012.261, 813.7109
1012.743, 743.3750
1013.225, 662.6406
1013.707, 664.1172
1014.190, 694.5234
1014.672, 661.9844
1015.154, 566.0469
1015.636, 492.8984
1016.118, 479.5547
1016.600, 478.3125
1017.082, 491.5859
1017.564, 494.4375
1018.047, 452.8203
1018.529, 393.0547
1019.011, 354.9375
1019.493, 343.2109
1019.975, 331.5469
1020.457, 317.8438
1020.939, 288.7891
1021.421, 229.1094
1021.903, 165.3750
1022.386, 85.39062
1022.868, 27.96875
1023.350, 56.76562
1023.832, 155.6328
1024.314, 229.0547
1024.796, 259.8828
1025.278, 252.3438
1025.760, 159.7969
1026.242, 85.90625
1026.725, 89.23438
1027.207, 131.9531
1027.689, 196.2188
1028.171, 264.1484
1028.653, 276.4766
1029.135, 196.9141
1029.617, 138.4062
1030.099, 143.1250
1030.582, 143.9453
1031.064, 113.8438
1031.546, 91.52344
1032.028, 112.8516
1032.510, 159.1328
1032.992, 221.7969
1033.474, 345.5703
1033.956, 367.3984
1034.438, 141.4062
1034.921, 15.72656
1035.403, 18.79688
1035.885, 121.2578
1036.367, 232.4219
1036.849, 332.0391
1037.331, 361.4766
1037.813, 287.2500
1038.295, 271.7188
1038.778, 431.1172
1039.260, 478.4922
1039.742, 256.7656
1040.224, 32.80469
1040.706, 18.35938
1041.188, 40.25781
1041.670, 95.27344
1042.152, 148.8516
1042.635, 147.1641
1043.117, 49.58594
1043.599, 20.91406
1044.081, 59.14062
1044.563, 45.49219
1045.045, 56.61719
1045.527, 189.1094
1046.009, 268.3047
1046.491, 294.2734
1046.974, 278.5234
1047.456, 196.8672
1047.938, 150.5859
1048.420, 162.2969
1048.902, 179.4219
1049.384, 184.6016
1049.866, 166.3438
1050.348, 99.56250
1050.830, 9.3750000E-02
1051.313, 32.20312
1051.795, 4.453125
1052.277, 120.4844
1052.759, 348.5469
1053.241, 462.5469
1053.723, 358.0234
1054.205, 206.4609
1054.687, 176.3203
1055.169, 223.6953
1055.652, 207.8984
1056.134, 131.6484
1056.616, 67.76562
1057.098, 10.55469
1057.580, 12.40625
1058.062, 89.11719
1058.544, 182.8359
1059.026, 253.7578
1059.509, 295.3516
1059.991, 284.5000
1060.473, 231.8281
1060.955, 192.8281
1061.437, 166.3203
1061.919, 124.0000
1062.401, 64.25781
1062.883, 39.56250
1063.365, 79.47656
1063.848, 173.7109
1064.330, 368.8281
1064.812, 576.0312
1065.294, 556.2109
1065.776, 376.6328
1066.258, 190.0938
1066.740, 36.54688
1067.222, 29.28906
1067.705, 11.55469
1068.187, 78.18750
1068.669, 88.49219
1069.151, 93.26562
1069.633, 191.6016
1070.115, 310.0859
1070.597, 308.4609
1071.079, 225.6562
1071.562, 193.3359
1072.044, 242.8359
1072.526, 304.4219
1073.008, 359.5703
1073.490, 363.3984
1073.972, 246.4922
1074.454, 90.45312
1074.936, 68.78906
1075.418, 186.5156
1075.901, 175.1875
1076.383, 52.71094
1076.865, 37.50000
1077.347, 26.80469
1077.829, 32.32812
1078.311, 144.9922
1078.793, 244.1562
1079.275, 237.1953
1079.757, 197.7031
1080.240, 207.7891
1080.722, 253.8516
1081.204, 272.5156
1081.686, 242.7969
1082.168, 243.6875
1082.650, 371.2812
1083.132, 417.5234
1083.614, 222.2188
1084.096, 31.53906
1084.579, 30.77344
1085.061, 136.8281
1085.543, 215.1484
1086.025, 267.4922
1086.507, 233.9688
1086.989, 19.59375
1087.471, 84.42188
1087.953, 26.43750
1088.436, 96.14844
1088.918, 35.44531
1089.400, 177.6250
1089.882, 88.95312
1090.364, 169.9531
1090.846, 267.2344
1091.328, 162.1094
1091.810, 125.1953
1092.292, 178.1328
1092.775, 232.8203
1093.257, 270.4609
1093.739, 264.4375
1094.221, 181.5078
1094.703, 77.93750
1095.185, 94.05469
1095.667, 209.2422
1096.149, 205.0859
1096.632, 95.70312
1097.114, 32.07031
1097.596, 38.28906
1098.078, 38.77344
1098.560, 3.523438
1099.042, 1.125000
1099.524, 143.1172
1100.006, 352.0859
1100.489, 451.3438
1100.971, 467.1406
1101.453, 443.3047
1101.935, 396.4297
1102.417, 356.7656
1102.899, 335.5078
1103.381, 334.5781
1103.863, 367.1016
1104.345, 392.2500
1104.828, 375.5625
1105.310, 328.1328
1105.792, 228.5469
1106.274, 124.3516
1106.756, 85.91406
1107.238, 115.8672
1107.720, 185.6406
1108.202, 297.5625
1108.684, 381.5703
1109.167, 420.5781
1109.649, 407.7500
1110.131, 270.5859
1110.613, 140.1406
1111.095, 162.2422
1111.577, 264.0078
1112.059, 283.8828
1112.541, 202.1641
1113.023, 121.5625
1113.506, 3.304688
1113.988, 35.86719
1114.470, 79.28906
1114.952, 185.9531
1115.434, 214.0859
1115.916, 207.5859
1116.398, 203.3750
1116.880, 209.0312
1117.363, 263.5234
1117.845, 408.8203
1118.327, 401.2578
1118.809, 189.6328
1119.291, 72.83594
1119.773, 139.5234
1120.255, 241.1094
1120.737, 277.9453
1121.219, 291.6016
1121.702, 369.0234
1122.184, 481.0703
1122.666, 445.8984
1123.148, 294.4688
1123.630, 233.9141
1124.112, 280.4141
1124.594, 343.3125
1125.076, 389.6562
1125.559, 431.7188
1126.041, 502.1094
1126.523, 545.1797
1127.005, 438.5391
1127.487, 279.2500
1127.969, 207.6562
1128.451, 216.0078
1128.933, 308.3984
1129.416, 446.1484
1129.898, 482.7031
1130.380, 339.2109
1130.862, 202.3750
1131.344, 180.0156
1131.826, 202.9219
1132.308, 244.4844
1132.790, 288.4609
1133.272, 348.8828
1133.755, 400.6406
1134.237, 367.9297
1134.719, 236.6719
1135.201, 173.5234
1135.683, 273.8594
1136.165, 335.5391
1136.647, 291.4922
1137.129, 264.6875
1137.611, 339.6719
1138.094, 399.1797
1138.576, 304.8281
1139.058, 122.0469
1139.540, 76.56250
1140.022, 199.6641
1140.504, 207.7812
1140.986, 66.35938
1141.468, 42.85938
1141.950, 204.9922
1142.433, 333.2812
1142.915, 302.5000
1143.397, 226.8359
1143.879, 256.4141
1144.361, 342.6328
1144.843, 335.5703
1145.325, 261.6875
1145.807, 262.5312
1146.290, 314.8828
1146.772, 291.2578
1147.254, 170.3594
1147.736, 84.66406
1148.218, 106.1328
1148.700, 192.9688
1149.182, 395.0391
1149.664, 562.3047
1150.146, 506.5547
1150.629, 343.9062
1151.111, 171.2812
1151.593, 44.60156
1152.075, 70.60156
1152.557, 270.9375
1153.039, 414.4062
1153.521, 394.4375
1154.003, 354.4141
1154.486, 360.4219
1154.968, 318.7109
1155.450, 77.21875
1155.932, 147.7812
1156.414, 86.03906
1156.896, 169.0547
1157.378, 281.3438
1157.860, 215.5625
1158.343, 173.0391
1158.825, 161.5859
1159.307, 137.9219
1159.789, 87.42969
1160.271, 60.64062
1160.753, 85.61719
1161.235, 137.7578
1161.717, 192.1719
1162.199, 241.6484
1162.682, 262.2109
1163.164, 258.7344
1163.646, 249.7344
1164.128, 235.5703
1164.610, 206.2031
1165.092, 165.1406
1165.574, 148.9375
1166.056, 181.2734
1166.538, 208.2969
1167.021, 155.0078
1167.503, 102.0000
1167.985, 160.7109
1168.467, 234.3906
1168.949, 187.5000
1169.431, 75.01562
1169.913, 8.593750
1170.395, 9.679688
1170.877, 81.00781
1171.360, 312.4375
1171.842, 444.6797
1172.324, 400.3047
1172.806, 304.4219
1173.288, 148.2422
1173.770, 18.20312
1174.252, 30.77344
1174.734, 2.539063
1175.217, 142.7344
1175.699, 390.0391
1176.181, 493.7188
1176.663, 435.1641
1177.145, 414.3984
1177.627, 458.3203
1178.109, 444.0391
1178.591, 324.5859
1179.073, 219.3828
1179.556, 230.9844
1180.038, 305.4922
1180.520, 431.4688
1181.002, 527.6797
1181.484, 342.6250
1181.966, 24.35938
1182.448, 91.44531
1182.930, 12.98438
1183.413, 68.41406
1183.895, 93.39062
1184.377, 139.7734
1184.859, 310.0234
1185.341, 415.7422
1185.823, 300.4922
1186.305, 165.7109
1186.787, 134.4766
1187.270, 159.1328
1187.752, 188.5469
1188.234, 223.5703
1188.716, 277.0781
1189.198, 356.6562
1189.680, 411.4844
1190.162, 452.9688
1190.644, 429.5625
1191.126, 305.8359
1191.609, 231.7891
1192.091, 282.1172
1192.573, 369.1328
1193.055, 407.9531
1193.537, 406.7031
1194.019, 361.8750
1194.501, 289.1641
1194.983, 232.2188
1195.465, 197.9531
1195.948, 204.4141
1196.430, 250.3359
1196.912, 317.0938
1197.394, 394.7578
1197.876, 467.9219
1198.358, 554.9531
1198.840, 595.2266
1199.322, 529.2734
1199.804, 414.6797
1200.287, 197.0312
1200.769, 40.73438
1201.251, 135.6719
1201.733, 390.0859
1202.215, 428.6641
1202.697, 139.9219
1203.179, 18.71094
1203.661, 142.0469
1204.144, 268.4609
1204.626, 391.6484
1205.108, 443.6719
1205.590, 378.5781
1206.072, 295.4297
1206.554, 295.8672
1207.036, 342.3594
1207.518, 366.8438
1208.000, 373.5547
1208.483, 354.7031
1208.965, 318.6328
1209.447, 307.9453
1209.929, 331.3984
1210.411, 329.3828
1210.893, 287.8828
1211.375, 284.7734
1211.857, 415.8047
1212.340, 505.5469
1212.822, 367.4766
1213.304, 198.2578
1213.786, 184.0469
1214.268, 239.9062
1214.750, 276.4531
1215.232, 298.3359
1215.714, 364.1953
1216.197, 493.3125
1216.679, 480.9531
1217.161, 225.5547
1217.643, 101.7812
1218.125, 168.9844
1218.607, 252.4766
1219.089, 291.7344
1219.571, 343.2266
1220.053, 456.4219
1220.536, 584.0312
1221.018, 667.9609
1221.500, 690.6484
1221.982, 540.1719
1222.464, 306.6094
1222.946, 244.0469
1223.428, 318.4141
1223.910, 362.7500
1224.392, 339.7500
1224.875, 276.0000
1225.357, 151.4375
1225.839, 114.9297
1226.321, 353.4141
1226.803, 554.8906
1227.285, 528.9297
1227.767, 444.1250
1228.249, 429.9609
1228.731, 443.6875
1229.214, 404.1484
1229.696, 325.5469
1230.178, 320.6094
1230.660, 414.6953
1231.142, 429.4766
1231.624, 357.7109
1232.106, 273.4922
1232.588, 193.0391
1233.071, 168.2812
1233.553, 226.8672
1234.035, 299.2344
1234.517, 324.4062
1234.999, 303.0547
1235.481, 211.5938
1235.963, 99.28125
1236.445, 5.281250
1236.927, 42.64062
1237.410, 16.53125
1237.892, 154.0078
1238.374, 273.1484
1238.856, 353.5156
1239.338, 405.8203
1239.820, 440.2891
1240.302, 403.3359
1240.784, 200.0234
1241.267, 100.5703
1241.749, 44.80469
1242.231, 12.35156
1242.713, 34.46094
1243.195, 28.56250
1243.677, 0.0000000E+00
##END=



