##NAMES=Grossular
##RRUFFID=R060382
##IDEAL CHEMISTRY=Ca_3_Al_2_(SiO_4_)_3_
##LOCALITY=Lalatema, near Mount Kilimanjaro, Tanzania
##OWNER=RRUFF
##SOURCE=Herb Obodda
##DESCRIPTION=Pale tan colored fragment
##STATUS=The identification of this mineral has been confirmed by X-ray diffraction and chemical analysis
##URL=rruff.info/R060382
##MEASURED CHEMISTRY=(Ca_2.95_Mg_0.03_Mn_0.02_)_Σ=3_Al_2.00_((Si_0.99_Ti_0.01_)_Σ=1_O_4_)_3_; trace amounts of Fe
137.6089, 0.0000000E+00
138.0910, 15.03973
138.5731, 23.19611
139.0553, 21.61914
139.5374, 22.84937
140.0195, 29.40234
140.5016, 37.66272
140.9837, 39.75140
141.4658, 36.94757
141.9480, 31.17786
142.4301, 21.70752
142.9122, 13.64557
143.3943, 7.387146
143.8764, 3.274597
144.3585, 1.246399
144.8407, 0.4257200
145.3228, 3.351440
145.8049, 4.727234
146.2870, 1.797607
146.7691, 8.175415
147.2512, 18.69653
147.7334, 28.71826
148.2155, 38.50903
148.6976, 47.23157
149.1797, 52.89325
149.6618, 58.09558
150.1439, 66.14319
150.6261, 78.74060
151.1082, 92.48859
151.5903, 106.8015
152.0724, 122.7194
152.5545, 136.6816
153.0366, 146.8479
153.5188, 154.8374
154.0009, 163.7729
154.4830, 180.0389
154.9651, 193.0713
155.4472, 198.1216
155.9293, 190.0283
156.4115, 180.6466
156.8936, 171.9481
157.3757, 163.6825
157.8578, 154.9352
158.3399, 143.8580
158.8221, 133.1395
159.3042, 124.4717
159.7863, 118.2468
160.2684, 114.1180
160.7505, 113.2822
161.2326, 115.2606
161.7148, 116.0424
162.1969, 111.9407
162.6790, 106.6183
163.1611, 103.5879
163.6432, 105.8066
164.1253, 109.1887
164.6075, 111.6815
165.0896, 113.2162
165.5717, 114.7299
166.0538, 117.6937
166.5359, 120.7985
167.0180, 122.2045
167.5002, 117.9587
167.9823, 113.7784
168.4644, 115.1504
168.9465, 123.3267
169.4286, 131.1188
169.9107, 133.3020
170.3929, 131.1843
170.8750, 127.7120
171.3571, 121.4677
171.8392, 115.8679
172.3213, 115.3789
172.8034, 121.6428
173.2856, 129.2725
173.7677, 133.6322
174.2498, 135.2806
174.7319, 135.9780
175.2140, 134.1753
175.6961, 132.6864
176.1783, 136.8694
176.6604, 150.0911
177.1425, 164.7334
177.6246, 170.0912
178.1067, 167.3417
178.5888, 164.8474
179.0710, 167.6387
179.5531, 175.0356
180.0352, 186.8922
180.5173, 205.8422
180.9994, 224.9744
181.4815, 234.6047
181.9637, 234.8867
182.4458, 226.6261
182.9279, 204.8630
183.4100, 173.7739
183.8921, 148.0111
184.3742, 134.2262
184.8564, 127.6976
185.3385, 116.7635
185.8206, 100.8954
186.3027, 86.45496
186.7848, 80.98523
187.2669, 83.49634
187.7491, 86.46338
188.2312, 88.67969
188.7133, 89.36121
189.1954, 84.16541
189.6775, 71.93176
190.1596, 59.01221
190.6418, 52.80457
191.1239, 53.25549
191.6060, 56.97668
192.0881, 65.38989
192.5702, 77.39026
193.0524, 81.36316
193.5345, 75.06042
194.0166, 66.44812
194.4987, 70.45886
194.9808, 88.19312
195.4629, 101.6453
195.9451, 99.02209
196.4272, 80.79578
196.9093, 71.24658
197.3914, 72.94263
197.8735, 80.46252
198.3556, 83.69470
198.8378, 82.05505
199.3199, 79.72021
199.8020, 78.22803
200.2841, 77.45020
200.7662, 79.83594
201.2483, 86.88965
201.7305, 95.94434
202.2126, 100.1998
202.6947, 98.89453
203.1768, 95.41846
203.6589, 91.24939
204.1410, 86.28906
204.6232, 83.80090
205.1053, 85.68921
205.5874, 89.42737
206.0695, 84.97266
206.5516, 68.94043
207.0337, 53.60059
207.5159, 48.89819
207.9980, 57.82886
208.4801, 63.04285
208.9622, 61.95178
209.4443, 55.53748
209.9264, 47.81665
210.4086, 37.33813
210.8907, 28.46521
211.3728, 25.70166
211.8549, 31.73987
212.3370, 34.59717
212.8191, 31.68933
213.3013, 23.79504
213.7834, 17.43042
214.2655, 12.45605
214.7476, 9.249023
215.2297, 8.581177
215.7118, 11.73425
216.1940, 13.92761
216.6761, 13.89441
217.1582, 11.80554
217.6403, 11.21118
218.1224, 13.05847
218.6045, 15.07031
219.0867, 14.90649
219.5688, 11.63708
220.0509, 8.317017
220.5330, 5.677979
221.0151, 3.780518
221.4972, 0.5671390
221.9794, 5.776611
222.4615, 11.40100
222.9436, 11.72290
223.4257, 4.061401
223.9078, 3.620117
224.3899, 9.963623
224.8721, 15.26953
225.3542, 16.96179
225.8363, 13.16357
226.3184, 7.588989
226.8005, 4.998413
227.2827, 7.631226
227.7648, 8.785034
228.2469, 5.239868
228.7290, 4.615356
229.2111, 6.175293
229.6932, 4.600220
230.1754, 20.24951
230.6575, 31.33752
231.1396, 36.14172
231.6217, 39.24255
232.1038, 40.94739
232.5859, 40.21887
233.0681, 44.03503
233.5502, 54.58679
234.0323, 68.01428
234.5144, 78.84497
234.9965, 85.25830
235.4786, 92.01465
235.9608, 100.8838
236.4429, 112.4218
236.9250, 122.1193
237.4071, 127.2991
237.8892, 132.2146
238.3713, 144.4873
238.8535, 169.6077
239.3356, 192.8381
239.8177, 210.5825
240.2998, 223.9739
240.7819, 226.5046
241.2640, 211.7695
241.7462, 190.0312
242.2283, 178.4575
242.7104, 178.1165
243.1925, 186.2491
243.6746, 203.3130
244.1567, 232.5259
244.6389, 260.1112
245.1210, 285.0846
245.6031, 308.9252
246.0852, 334.7708
246.5673, 367.1307
247.0494, 396.1660
247.5316, 418.0149
248.0137, 431.5789
248.4958, 434.8857
248.9779, 424.7000
249.4600, 407.7551
249.9421, 396.6384
250.4243, 393.1409
250.9064, 392.6128
251.3885, 393.1473
251.8706, 393.9480
252.3527, 397.0688
252.8348, 404.3713
253.3170, 414.3950
253.7991, 423.6477
254.2812, 431.8188
254.7633, 435.4291
255.2454, 433.0585
255.7275, 424.0225
256.2097, 414.9907
256.6918, 402.9419
257.1739, 389.1531
257.6560, 379.9855
258.1381, 381.8337
258.6202, 376.4313
259.1024, 352.1842
259.5845, 300.3685
260.0666, 260.7017
260.5487, 237.7561
261.0308, 223.7695
261.5129, 202.8284
261.9951, 171.2573
262.4772, 141.6150
262.9593, 118.6689
263.4414, 102.5793
263.9235, 92.32739
264.4056, 89.51074
264.8878, 91.04932
265.3699, 91.94336
265.8520, 92.43481
266.3341, 91.68530
266.8162, 89.28027
267.2983, 85.02075
267.7805, 80.15161
268.2626, 74.75024
268.7447, 68.78955
269.2268, 60.29712
269.7089, 46.53076
270.1910, 39.75195
270.6732, 47.96851
271.1553, 73.54980
271.6374, 89.87036
272.1195, 94.71460
272.6016, 93.59009
273.0837, 92.46533
273.5659, 89.64551
274.0480, 95.88257
274.5301, 120.1404
275.0122, 163.2783
275.4943, 192.4153
275.9764, 203.9182
276.4586, 208.2505
276.9407, 223.1714
277.4228, 250.3191
277.9049, 271.9028
278.3870, 281.7485
278.8691, 279.9792
279.3513, 266.9783
279.8334, 241.0649
280.3155, 207.8123
280.7976, 170.9705
281.2798, 130.4509
281.7619, 98.55713
282.2440, 83.22290
282.7261, 82.05640
283.2082, 76.42578
283.6903, 65.50146
284.1725, 52.98071
284.6546, 43.17114
285.1367, 36.04517
285.6188, 29.79297
286.1009, 22.32715
286.5830, 15.05566
287.0652, 15.84839
287.5473, 25.79370
288.0294, 37.56812
288.5115, 43.61206
288.9936, 44.35864
289.4757, 42.83130
289.9579, 38.65161
290.4400, 33.25049
290.9221, 31.07056
291.4042, 32.37988
291.8863, 34.55884
292.3684, 33.92920
292.8506, 31.53931
293.3327, 32.33496
293.8148, 41.05249
294.2969, 52.10107
294.7790, 52.25635
295.2611, 41.51367
295.7433, 31.88599
296.2254, 37.47534
296.7075, 53.04395
297.1896, 63.20093
297.6717, 62.06226
298.1538, 54.83984
298.6360, 48.18408
299.1181, 42.11328
299.6002, 36.99561
300.0823, 33.99072
300.5644, 32.04175
301.0465, 29.10083
301.5287, 24.19165
302.0108, 18.62427
302.4929, 14.77344
302.9750, 12.08105
303.4571, 7.281494
303.9392, 8.200684
304.4214, 25.22510
304.9035, 30.18091
305.3856, 13.73169
305.8677, 5.766357
306.3498, 12.16089
306.8319, 7.856445
307.3141, 1.499268
307.7962, 4.568604
308.2783, 8.980225
308.7604, 9.435547
309.2425, 3.008057
309.7246, 1.783936
310.2068, 5.191406
310.6889, 18.62891
311.1710, 24.81934
311.6531, 5.036621
312.1352, 17.15942
312.6173, 20.94507
313.0995, 5.297119
313.5816, 25.89917
314.0637, 15.06616
314.5458, 12.46509
315.0279, 29.05103
315.5100, 8.826172
315.9922, 13.62036
316.4743, 17.33423
316.9564, 5.524658
317.4385, 24.57715
317.9206, 25.24365
318.4027, 17.13867
318.8849, 13.69946
319.3670, 23.47559
319.8491, 34.17871
320.3312, 41.73267
320.8133, 45.76123
321.2954, 47.19727
321.7776, 44.06885
322.2597, 39.33105
322.7418, 36.13916
323.2239, 34.99219
323.7060, 35.38330
324.1881, 39.17822
324.6703, 47.12891
325.1524, 49.09302
325.6345, 35.13379
326.1166, 19.73169
326.5987, 14.53223
327.0808, 29.95654
327.5630, 43.38477
328.0451, 51.73193
328.5272, 55.23657
329.0093, 59.35986
329.4914, 68.31543
329.9735, 73.88110
330.4557, 69.22119
330.9378, 40.93115
331.4199, 26.62280
331.9020, 35.48242
332.3841, 61.55029
332.8662, 75.13062
333.3484, 70.01221
333.8305, 61.42090
334.3126, 58.54272
334.7947, 65.30347
335.2768, 65.40210
335.7589, 55.54028
336.2411, 39.98950
336.7232, 29.05103
337.2053, 23.01758
337.6874, 20.70410
338.1695, 23.86450
338.6516, 33.90283
339.1338, 35.66260
339.6159, 26.18408
340.0980, 12.44092
340.5801, 6.336426
341.0622, 8.511230
341.5443, 13.07129
342.0265, 19.62231
342.5086, 27.37329
342.9907, 28.87842
343.4728, 22.91382
343.9549, 15.33789
344.4370, 14.05640
344.9192, 18.33496
345.4013, 21.38379
345.8834, 18.60864
346.3655, 13.44971
346.8476, 14.64453
347.3297, 22.15332
347.8119, 34.45435
348.2940, 56.74121
348.7761, 83.60693
349.2582, 97.24194
349.7403, 86.80371
350.2225, 67.33789
350.7046, 60.36206
351.1867, 64.65991
351.6688, 70.86279
352.1509, 75.34521
352.6331, 76.57422
353.1152, 70.56421
353.5973, 51.30444
354.0794, 34.24561
354.5615, 36.41626
355.0436, 52.77563
355.5258, 68.04956
356.0079, 70.71655
356.4900, 70.35815
356.9721, 75.66187
357.4542, 89.18994
357.9363, 104.1797
358.4185, 117.9690
358.9006, 130.5344
359.3827, 141.8286
359.8648, 146.4309
360.3469, 154.0464
360.8290, 172.6504
361.3112, 205.2507
361.7933, 231.1545
362.2754, 234.5447
362.7575, 232.1045
363.2396, 242.5632
363.7217, 279.6882
364.2039, 319.0784
364.6860, 354.0122
365.1681, 384.2771
365.6502, 417.5154
366.1323, 455.3328
366.6144, 496.6440
367.0966, 541.2380
367.5787, 592.8838
368.0608, 641.4758
368.5429, 686.5869
369.0250, 728.6765
369.5071, 768.2607
369.9893, 807.8384
370.4714, 839.6448
370.9535, 857.0305
371.4356, 845.3369
371.9177, 853.5625
372.3998, 891.5291
372.8820, 944.8152
373.3641, 982.8965
373.8462, 1000.246
374.3283, 1013.951
374.8104, 1037.992
375.2925, 1075.196
375.7747, 1072.250
376.2568, 1021.380
376.7389, 945.7583
377.2210, 875.1252
377.7031, 809.9736
378.1852, 743.0962
378.6674, 670.9797
379.1495, 595.3967
379.6316, 517.8821
380.1137, 437.9954
380.5958, 365.2456
381.0779, 309.5889
381.5601, 269.2090
382.0422, 239.9043
382.5243, 224.1011
383.0064, 213.7800
383.4885, 194.6714
383.9706, 167.7034
384.4528, 141.2112
384.9349, 118.2288
385.4170, 100.1296
385.8991, 90.64844
386.3812, 93.03979
386.8633, 94.76050
387.3455, 81.41992
387.8276, 58.46094
388.3097, 38.02832
388.7918, 25.87817
389.2739, 19.21802
389.7560, 14.90063
390.2382, 12.52612
390.7203, 15.17358
391.2024, 33.19312
391.6845, 54.32739
392.1666, 64.64380
392.6487, 49.43579
393.1309, 31.83130
393.6130, 18.54272
394.0951, 10.23096
394.5772, 8.891113
395.0593, 22.90308
395.5414, 38.05859
396.0236, 45.90845
396.5057, 34.48242
396.9878, 29.12256
397.4699, 37.15894
397.9520, 53.30273
398.4341, 61.24756
398.9163, 53.88843
399.3984, 45.72290
399.8805, 42.79370
400.3626, 48.89258
400.8447, 49.90088
401.3268, 37.77905
401.8090, 22.75024
402.2911, 20.41260
402.7732, 36.86035
403.2553, 50.06665
403.7374, 52.34985
404.2195, 44.64966
404.7017, 45.41235
405.1838, 56.52393
405.6659, 70.35742
406.1480, 80.22485
406.6301, 85.83545
407.1122, 90.14624
407.5944, 93.93457
408.0765, 96.73877
408.5586, 93.95728
409.0407, 85.83862
409.5228, 80.79541
410.0049, 86.21655
410.4871, 98.95532
410.9692, 109.5876
411.4513, 116.1970
411.9334, 124.5913
412.4155, 146.8513
412.8976, 177.7476
413.3798, 200.7336
413.8619, 194.9893
414.3440, 185.6753
414.8261, 205.7026
415.3082, 255.6907
415.7903, 299.6216
416.2725, 313.4597
416.7546, 308.7449
417.2367, 298.7046
417.7188, 287.1106
418.2009, 271.3262
418.6830, 247.3831
419.1652, 217.5095
419.6473, 190.3970
420.1294, 167.3318
420.6115, 148.7207
421.0937, 135.3289
421.5758, 130.2588
422.0579, 124.3948
422.5400, 116.5420
423.0221, 107.6357
423.5042, 97.93213
423.9864, 84.28857
424.4685, 75.38574
424.9506, 76.86011
425.4327, 90.39355
425.9148, 89.96338
426.3969, 64.81055
426.8791, 38.18652
427.3612, 32.56445
427.8433, 57.18213
428.3254, 71.85986
428.8075, 68.57031
429.2896, 52.59717
429.7718, 41.02344
430.2539, 34.10449
430.7360, 30.31152
431.2181, 28.98877
431.7002, 30.08691
432.1823, 33.07617
432.6645, 37.97949
433.1466, 44.73633
433.6287, 54.43066
434.1108, 66.26465
434.5929, 76.54785
435.0750, 86.23438
435.5572, 92.18408
436.0393, 86.27197
436.5214, 68.98047
437.0035, 50.92188
437.4856, 38.49658
437.9677, 31.10254
438.4499, 28.85596
438.9320, 35.45459
439.4141, 40.82617
439.8962, 34.37158
440.3783, 20.82617
440.8604, 12.24658
441.3426, 20.43994
441.8247, 30.19629
442.3068, 31.28076
442.7889, 19.83008
443.2710, 13.04297
443.7531, 22.04199
444.2353, 35.47119
444.7174, 41.06689
445.1995, 29.09668
445.6816, 17.71729
446.1637, 6.563477
446.6458, 3.429688
447.1280, 0.7841800
447.6101, 26.56396
448.0922, 53.37158
448.5743, 65.35889
449.0564, 58.43799
449.5385, 47.48730
450.0207, 30.67773
450.5028, 11.87451
450.9849, 2.086426
451.4670, 11.15527
451.9491, 15.14600
452.4312, 11.78857
452.9134, 2.386230
453.3955, 2.015625
453.8776, 0.7529300
454.3597, 1.380859
454.8418, 1.249512
455.3239, 1.696777
455.8061, 11.12305
456.2882, 33.69189
456.7703, 54.11670
457.2524, 41.79932
457.7345, 5.242188
458.2166, 20.87598
458.6988, 4.395020
459.1809, 27.57178
459.6630, 46.59033
460.1451, 49.50000
460.6272, 43.74756
461.1093, 27.37012
461.5915, 7.029785
462.0736, 8.812012
462.5557, 16.94385
463.0378, 20.42334
463.5199, 19.47412
464.0020, 14.51367
464.4842, 7.588867
464.9663, 6.221680
465.4484, 17.81738
465.9305, 22.05664
466.4126, 12.22998
466.8947, 6.885742
467.3769, 8.102539
467.8590, 12.84521
468.3411, 16.73633
468.8232, 20.72510
469.3053, 21.41699
469.7874, 15.37354
470.2696, 3.489746
470.7517, 4.802246
471.2338, 23.39062
471.7159, 42.51270
472.1980, 45.73486
472.6801, 33.49561
473.1623, 23.34912
473.6444, 17.24463
474.1265, 15.30762
474.6086, 20.79492
475.0907, 32.25635
475.5728, 40.26025
476.0550, 33.29199
476.5371, 22.09033
477.0192, 28.93311
477.5013, 54.99414
477.9834, 75.00488
478.4655, 63.45996
478.9477, 36.01025
479.4298, 12.62061
479.9119, 5.900391
480.3940, 12.73926
480.8761, 6.569824
481.3582, 41.92822
481.8404, 63.88721
482.3225, 53.00684
482.8046, 34.60400
483.2867, 18.84229
483.7688, 5.778809
484.2509, 1.822754
484.7331, 3.547363
485.2152, 0.2724610
485.6973, 10.99854
486.1794, 39.83594
486.6615, 55.47168
487.1436, 47.90723
487.6258, 23.62256
488.1079, 14.42822
488.5900, 24.69092
489.0721, 38.10596
489.5542, 44.46338
490.0363, 43.72510
490.5185, 51.24219
491.0006, 69.52490
491.4827, 88.54395
491.9648, 92.09033
492.4470, 83.17871
492.9291, 78.41748
493.4112, 86.40771
493.8933, 98.83398
494.3754, 101.9956
494.8575, 97.10254
495.3397, 91.03369
495.8218, 82.25049
496.3039, 77.78613
496.7860, 88.78174
497.2681, 122.6206
497.7502, 150.0361
498.2324, 144.9990
498.7145, 127.3433
499.1966, 124.1455
499.6787, 168.8428
500.1608, 203.0776
500.6429, 200.0396
501.1251, 162.8149
501.6072, 143.5566
502.0893, 160.8770
502.5714, 183.5396
503.0535, 196.2217
503.5356, 190.3613
504.0178, 196.9980
504.4999, 224.7314
504.9820, 256.4653
505.4641, 260.9272
505.9462, 231.0562
506.4283, 210.6445
506.9105, 215.9619
507.3926, 239.5640
507.8747, 249.8950
508.3568, 246.2163
508.8389, 243.0332
509.3210, 257.0415
509.8032, 280.1450
510.2853, 288.1162
510.7674, 275.8696
511.2495, 257.9355
511.7316, 252.1543
512.2137, 251.8091
512.6959, 243.2485
513.1780, 207.7422
513.6601, 172.7661
514.1422, 156.7612
514.6243, 158.2119
515.1064, 164.6562
515.5886, 179.4219
516.0707, 190.6650
516.5528, 193.5781
517.0349, 182.3486
517.5170, 170.9053
517.9991, 158.5195
518.4813, 147.4741
518.9634, 141.0259
519.4455, 143.2871
519.9276, 143.7661
520.4097, 139.2554
520.8918, 129.7876
521.3740, 118.9307
521.8561, 104.4658
522.3382, 99.36328
522.8203, 115.9917
523.3024, 150.6519
523.7845, 169.0688
524.2667, 167.1709
524.7488, 157.6953
525.2309, 157.2856
525.7130, 162.9966
526.1951, 163.8804
526.6772, 151.0220
527.1594, 136.3682
527.6415, 137.7349
528.1236, 151.1953
528.6057, 159.7271
529.0878, 144.4546
529.5699, 125.1084
530.0521, 118.2876
530.5342, 130.0859
531.0163, 136.9434
531.4984, 121.0825
531.9805, 100.9102
532.4626, 96.04541
532.9448, 136.4028
533.4269, 159.1021
533.9090, 148.0630
534.3911, 113.1079
534.8732, 93.03711
535.3553, 92.77197
535.8375, 98.82666
536.3196, 107.1392
536.8017, 118.2612
537.2838, 120.3022
537.7659, 111.2173
538.2480, 99.15625
538.7302, 93.19580
539.2123, 92.92529
539.6944, 96.10254
540.1765, 100.1445
540.6586, 106.5405
541.1407, 122.2100
541.6229, 143.6299
542.1050, 158.2944
542.5871, 152.9834
543.0692, 142.8452
543.5513, 139.5728
544.0334, 143.8452
544.5156, 154.7090
544.9977, 175.6387
545.4798, 200.5537
545.9619, 223.9106
546.4440, 240.4697
546.9261, 262.1748
547.4083, 303.7295
547.8904, 348.9321
548.3725, 367.0566
548.8546, 342.3320
549.3367, 317.3281
549.8188, 305.7222
550.3010, 304.8628
550.7831, 280.2061
551.2652, 224.4619
551.7473, 169.4824
552.2294, 139.5083
552.7115, 132.2690
553.1937, 128.3711
553.6758, 127.4990
554.1579, 124.9819
554.6400, 113.4238
555.1221, 95.38623
555.6042, 77.58252
556.0864, 56.25488
556.5685, 42.40625
557.0506, 55.64648
557.5327, 87.89990
558.0148, 108.7603
558.4969, 97.95752
558.9791, 75.35840
559.4612, 49.76514
559.9433, 19.81885
560.4254, 1.086426
560.9075, 9.878906
561.3896, 8.422852
561.8718, 1.703613
562.3539, 28.43213
562.8360, 51.17627
563.3181, 70.54883
563.8002, 83.50391
564.2823, 80.23438
564.7645, 56.83008
565.2466, 34.47070
565.7287, 21.56396
566.2108, 16.54102
566.6929, 10.22754
567.1750, 2.232422
567.6572, 1.041504
568.1393, 24.52979
568.6214, 58.00830
569.1035, 66.55127
569.5856, 38.84375
570.0677, 10.99805
570.5499, 18.35352
571.0320, 44.23926
571.5141, 62.35547
571.9962, 59.46826
572.4783, 50.59521
572.9604, 36.09326
573.4426, 18.62061
573.9247, 11.19971
574.4068, 30.58008
574.8889, 46.90967
575.3710, 47.65088
575.8531, 29.23828
576.3353, 12.42822
576.8174, 5.233887
577.2995, 17.55811
577.7816, 14.49951
578.2637, 6.374512
578.7458, 13.85254
579.2280, 1.385742
579.7101, 23.11279
580.1922, 18.63672
580.6743, 7.527832
581.1564, 29.62695
581.6385, 33.29199
582.1207, 27.61328
582.6028, 20.47949
583.0849, 12.76074
583.5670, 11.22266
584.0491, 31.73877
584.5313, 52.35303
585.0134, 51.89600
585.4955, 16.68604
585.9776, 5.065430
586.4597, 14.90771
586.9418, 47.92627
587.4240, 60.65332
587.9061, 34.26172
588.3882, 15.94873
588.8703, 13.75000
589.3524, 22.49316
589.8345, 24.94531
590.3167, 18.61230
590.7988, 17.42529
591.2809, 32.81152
591.7630, 59.03516
592.2451, 57.38135
592.7272, 26.35498
593.2094, 2.373535
593.6915, 32.77490
594.1736, 88.37939
594.6557, 110.7490
595.1378, 84.74121
595.6199, 47.56934
596.1021, 15.02441
596.5842, 10.06348
597.0663, 21.81006
597.5485, 6.797852
598.0306, 9.813965
598.5127, 17.98047
598.9948, 20.58252
599.4769, 31.35840
599.9590, 68.81689
600.4412, 93.38135
600.9233, 87.72168
601.4054, 49.28809
601.8875, 21.82324
602.3696, 5.396484
602.8517, 0.5244140
603.3339, 10.02930
603.8160, 35.43848
604.2981, 49.78027
604.7802, 48.90137
605.2623, 40.25830
605.7444, 28.68799
606.2266, 15.79053
606.7087, 10.04834
607.1908, 20.45947
607.6729, 33.78906
608.1550, 39.96094
608.6371, 40.51855
609.1193, 41.05859
609.6014, 45.64844
610.0835, 48.81152
610.5656, 45.84912
611.0477, 34.99463
611.5298, 30.96045
612.0120, 38.42188
612.4941, 48.57129
612.9762, 55.80273
613.4583, 55.69043
613.9404, 60.66309
614.4225, 74.74023
614.9047, 88.13379
615.3868, 82.67090
615.8689, 60.16309
616.3510, 43.68750
616.8331, 36.25586
617.3152, 41.43652
617.7974, 82.77637
618.2795, 147.2051
618.7616, 186.5811
619.2437, 149.0820
619.7258, 96.38379
620.2079, 75.32617
620.6901, 88.46387
621.1722, 101.6045
621.6543, 101.5332
622.1364, 98.23535
622.6185, 97.87207
623.1006, 101.5107
623.5828, 108.0615
624.0649, 120.3740
624.5470, 132.2021
625.0291, 132.5088
625.5112, 115.8633
625.9933, 120.0273
626.4755, 157.2471
626.9576, 210.8135
627.4397, 250.4697
627.9218, 276.4834
628.4039, 290.9648
628.8860, 291.5771
629.3682, 283.2744
629.8503, 268.6270
630.3324, 248.6045
630.8145, 231.9365
631.2966, 222.5654
631.7787, 219.5264
632.2609, 227.8594
632.7430, 256.9736
633.2251, 261.7666
633.7072, 203.2598
634.1893, 135.1641
634.6714, 101.7373
635.1536, 116.8643
635.6357, 138.0479
636.1178, 167.6074
636.5999, 196.0947
637.0820, 209.1201
637.5641, 205.3027
638.0463, 185.3711
638.5284, 139.1201
639.0105, 85.89941
639.4926, 74.22949
639.9747, 96.97266
640.4568, 112.7988
640.9390, 83.41699
641.4211, 44.71875
641.9032, 30.89941
642.3853, 44.16016
642.8674, 61.90723
643.3495, 75.94336
643.8317, 90.43750
644.3138, 112.5068
644.7959, 167.0986
645.2780, 176.8320
645.7601, 111.4463
646.2422, 27.50879
646.7244, 5.529297
647.2065, 22.67285
647.6886, 50.46973
648.1707, 69.25195
648.6528, 78.79395
649.1349, 75.27148
649.6171, 60.43848
650.0992, 46.74902
650.5813, 43.12500
651.0634, 41.77441
651.5455, 31.20996
652.0276, 13.59570
652.5098, 0.4404300
652.9919, 12.58691
653.4740, 13.95605
653.9561, 7.190430
654.4382, 57.80859
654.9203, 90.29492
655.4025, 93.01855
655.8846, 83.38477
656.3667, 70.82227
656.8488, 53.03906
657.3309, 40.33594
657.8130, 34.77637
658.2952, 31.22852
658.7773, 17.61621
659.2594, 4.209961
659.7415, 8.455078
660.2236, 19.32520
660.7057, 54.90039
661.1879, 64.88379
661.6700, 54.50391
662.1521, 37.79688
662.6342, 5.512695
663.1163, 17.22070
663.5984, 7.557617
664.0806, 30.33203
664.5627, 60.46680
665.0448, 74.70703
665.5269, 77.67480
666.0090, 67.74316
666.4911, 41.36621
666.9733, 30.23633
667.4554, 40.49023
667.9375, 53.70898
668.4196, 55.21191
668.9017, 45.22656
669.3839, 27.56250
669.8660, 0.7880860
670.3481, 20.85645
670.8302, 3.363281
671.3123, 51.37891
671.7944, 77.90723
672.2766, 59.04102
672.7587, 30.77832
673.2408, 6.871094
673.7229, 8.437500
674.2050, 6.813477
674.6871, 44.28906
675.1693, 79.53027
675.6514, 68.20801
676.1335, 22.84863
676.6156, 11.99219
677.0977, 52.23828
677.5798, 88.44922
678.0620, 92.82129
678.5441, 70.11621
679.0262, 68.70508
679.5083, 90.48633
679.9904, 104.3525
680.4725, 61.73340
680.9547, 1.220703
681.4368, 3.690430
681.9189, 85.75586
682.4010, 158.1582
682.8831, 143.2588
683.3652, 96.38672
683.8474, 73.80957
684.3295, 108.9590
684.8116, 135.3975
685.2937, 144.6016
685.7758, 139.3809
686.2579, 117.2139
686.7401, 61.43066
687.2222, 38.03027
687.7043, 70.90820
688.1864, 131.3447
688.6685, 146.8203
689.1506, 119.9287
689.6328, 92.10742
690.1149, 81.82812
690.5970, 81.48633
691.0791, 82.32227
691.5612, 83.78906
692.0433, 82.77051
692.5255, 67.91504
693.0076, 58.20215
693.4897, 71.39941
693.9718, 111.6943
694.4539, 136.9961
694.9360, 128.7500
695.4182, 116.1562
695.9003, 115.9932
696.3824, 132.0820
696.8645, 140.1865
697.3466, 141.8330
697.8287, 134.8652
698.3109, 107.1709
698.7930, 65.29395
699.2751, 47.81543
699.7572, 66.11230
700.2393, 93.65723
700.7214, 100.6191
701.2036, 98.59375
701.6857, 106.8242
702.1678, 147.9668
702.6499, 179.4619
703.1320, 178.5576
703.6141, 157.2832
704.0963, 145.2041
704.5784, 144.0547
705.0605, 153.5000
705.5426, 179.7920
706.0247, 215.8975
706.5068, 225.8789
706.9890, 206.6689
707.4711, 188.2637
707.9532, 190.7021
708.4353, 204.4697
708.9174, 204.0371
709.3995, 190.2803
709.8817, 171.8740
710.3638, 140.7715
710.8459, 116.2998
711.3280, 125.5078
711.8101, 177.9619
712.2922, 209.5947
712.7744, 190.9053
713.2565, 153.6182
713.7386, 117.9082
714.2207, 78.07715
714.7028, 55.79297
715.1849, 55.57812
715.6671, 65.12695
716.1492, 71.09375
716.6313, 73.83691
717.1134, 83.35156
717.5955, 103.7998
718.0776, 123.0244
718.5598, 122.1582
719.0419, 108.4893
719.5240, 95.85254
720.0061, 89.47168
720.4882, 84.90039
720.9703, 74.44336
721.4525, 65.47656
721.9346, 71.66113
722.4167, 121.1836
722.8988, 150.9111
723.3809, 142.8047
723.8630, 106.5703
724.3452, 80.80859
724.8273, 66.35059
725.3094, 56.43359
725.7915, 47.62891
726.2736, 41.12500
726.7557, 41.38281
727.2379, 47.72754
727.7200, 54.74121
728.2021, 64.66016
728.6842, 70.14160
729.1663, 58.54395
729.6484, 28.21484
730.1306, 4.173828
730.6127, 4.469727
731.0948, 7.722656
731.5769, 9.755859
732.0590, 9.392578
732.5411, 8.158203
733.0233, 5.405273
733.5054, 2.194336
733.9875, 2.703125
734.4696, 6.489258
734.9517, 5.553711
735.4338, 39.41113
735.9160, 72.66992
736.3981, 74.39258
736.8802, 55.94629
737.3623, 38.55566
737.8444, 28.01855
738.3266, 28.09277
738.8087, 52.19336
739.2908, 84.08105
739.7729, 99.26953
740.2551, 90.67383
740.7372, 75.01562
741.2193, 45.94629
741.7014, 17.40527
742.1835, 29.83789
742.6656, 83.66406
743.1478, 113.8574
743.6299, 88.79199
744.1120, 42.78711
744.5941, 29.70996
745.0762, 41.61621
745.5583, 53.41211
746.0405, 50.08496
746.5226, 44.92383
747.0047, 47.83398
747.4868, 56.56641
747.9689, 57.01660
748.4510, 30.62598
748.9332, 18.20996
749.4153, 40.88184
749.8974, 93.38477
750.3795, 111.7363
750.8616, 92.70898
751.3438, 64.47656
751.8259, 40.48340
752.3080, 21.07617
752.7901, 5.617188
753.2722, 5.527344
753.7543, 6.563477
754.2365, 16.94434
754.7186, 44.87012
755.2007, 58.31836
755.6828, 51.86621
756.1649, 53.02539
756.6470, 85.53809
757.1292, 110.1592
757.6113, 98.53906
758.0934, 37.47754
758.5755, 0.3544920
759.0576, 10.25586
759.5397, 5.856445
760.0219, 6.844727
760.5040, 24.99414
760.9861, 38.26074
761.4682, 44.04980
761.9503, 48.61914
762.4324, 55.44043
762.9146, 64.68457
763.3967, 77.08203
763.8788, 98.29883
764.3609, 113.6602
764.8430, 123.0947
765.3251, 123.7930
765.8073, 108.2324
766.2894, 67.43945
766.7715, 47.99707
767.2536, 62.15723
767.7357, 89.17871
768.2178, 93.07520
768.7000, 78.98340
769.1821, 68.51367
769.6642, 72.17676
770.1463, 76.34375
770.6284, 66.91211
771.1105, 49.83203
771.5927, 36.53320
772.0748, 32.69727
772.5569, 30.31836
773.0390, 24.83105
773.5211, 19.95312
774.0032, 24.50195
774.4854, 38.20117
774.9675, 64.20410
775.4496, 110.9297
775.9317, 164.0488
776.4138, 185.4600
776.8959, 178.7393
777.3781, 165.6807
777.8602, 153.5312
778.3423, 143.1719
778.8244, 141.0420
779.3065, 142.9756
779.7886, 131.6602
780.2708, 81.60645
780.7529, 38.92969
781.2350, 18.41406
781.7171, 18.44531
782.1992, 26.57324
782.6813, 44.78809
783.1635, 62.46191
783.6456, 76.82520
784.1277, 85.90918
784.6098, 81.58789
785.0919, 64.95996
785.5740, 47.41699
786.0562, 36.32812
786.5383, 27.61816
787.0204, 14.73633
787.5025, 2.469727
787.9846, 8.347656
788.4667, 20.40820
788.9489, 41.73340
789.4310, 34.51172
789.9131, 3.539063
790.3952, 27.39258
790.8773, 36.54980
791.3594, 33.49512
791.8416, 4.890625
792.3237, 32.06445
792.8058, 19.62500
793.2879, 44.24805
793.7700, 92.26270
794.2521, 63.62988
794.7343, 9.166992
795.2164, 31.33789
795.6985, 52.54492
796.1806, 64.12793
796.6627, 64.58008
797.1448, 60.15820
797.6270, 51.95605
798.1091, 38.00488
798.5912, 37.31445
799.0733, 52.16602
799.5554, 69.56543
800.0375, 76.53223
800.5197, 77.22266
801.0018, 82.12695
801.4839, 93.94141
801.9660, 94.80371
802.4481, 58.75781
802.9302, 17.11523
803.4124, 3.969727
803.8945, 6.725586
804.3766, 22.79883
804.8587, 47.28027
805.3408, 73.33789
805.8229, 91.86523
806.3051, 102.8711
806.7872, 130.6846
807.2693, 181.3838
807.7514, 226.2744
808.2335, 229.4746
808.7156, 210.0674
809.1978, 196.1025
809.6799, 193.3271
810.1620, 196.6836
810.6441, 195.6328
811.1262, 204.3291
811.6083, 240.9248
812.0905, 338.5830
812.5726, 387.3320
813.0547, 370.6494
813.5368, 331.1719
814.0189, 313.4209
814.5010, 316.1406
814.9832, 333.4531
815.4653, 366.0518
815.9474, 403.0762
816.4295, 443.5146
816.9116, 478.7930
817.3937, 498.4902
817.8759, 492.0957
818.3580, 485.0186
818.8401, 470.6729
819.3222, 465.3145
819.8043, 487.7988
820.2864, 544.8691
820.7686, 601.6523
821.2507, 657.3818
821.7328, 703.4043
822.2149, 717.6523
822.6970, 712.7539
823.1791, 724.9355
823.6613, 769.3477
824.1434, 806.5352
824.6255, 807.5820
825.1076, 788.1738
825.5897, 765.1699
826.0718, 728.4395
826.5540, 709.3340
827.0361, 722.2578
827.5182, 736.4043
828.0003, 706.9961
828.4824, 634.7344
828.9645, 584.3652
829.4467, 567.8672
829.9288, 565.4336
830.4109, 562.6484
830.8930, 556.3672
831.3751, 542.3711
831.8572, 520.6914
832.3394, 488.4531
832.8215, 431.1621
833.3036, 370.1797
833.7857, 327.7598
834.2678, 305.4785
834.7499, 300.0000
835.2321, 317.5547
835.7142, 337.5332
836.1963, 334.5195
836.6784, 311.9863
837.1605, 276.7578
837.6426, 224.7637
838.1248, 185.9844
838.6069, 192.6816
839.0890, 221.5645
839.5711, 247.5820
840.0532, 272.0840
840.5353, 282.0176
841.0175, 273.6582
841.4996, 252.6016
841.9817, 215.8594
842.4638, 161.3770
842.9459, 147.7754
843.4280, 187.4434
843.9102, 233.1660
844.3923, 229.6484
844.8744, 198.0312
845.3565, 169.9004
845.8386, 149.8574
846.3207, 143.1328
846.8029, 154.9648
847.2850, 177.2949
847.7671, 204.7070
848.2492, 246.5664
848.7313, 262.4277
849.2134, 246.7676
849.6956, 223.3672
850.1777, 211.1973
850.6598, 209.6523
851.1419, 211.7363
851.6240, 214.6523
852.1061, 209.2207
852.5883, 177.0840
853.0704, 145.1855
853.5525, 144.1055
854.0346, 194.2051
854.5167, 226.0312
854.9988, 234.3906
855.4810, 225.1406
855.9631, 193.8340
856.4452, 139.9648
856.9273, 122.0195
857.4094, 143.4180
857.8915, 172.0117
858.3737, 192.1582
858.8558, 195.8770
859.3379, 158.8301
859.8200, 73.70898
860.3021, 20.02539
860.7842, 52.97461
861.2664, 105.4082
861.7485, 141.1465
862.2306, 159.7285
862.7127, 170.3027
863.1948, 172.1934
863.6769, 169.2090
864.1591, 153.1797
864.6412, 137.7168
865.1233, 167.0020
865.6054, 237.9707
866.0875, 292.2266
866.5696, 263.4922
867.0518, 234.7207
867.5339, 276.9727
868.0160, 399.4219
868.4981, 441.2051
868.9802, 356.0762
869.4623, 288.3281
869.9445, 320.3184
870.4266, 424.2969
870.9087, 463.1426
871.3908, 443.8750
871.8729, 433.7988
872.3550, 469.4375
872.8372, 535.9473
873.3193, 645.8945
873.8014, 785.3320
874.2835, 875.3789
874.7656, 826.5586
875.2477, 814.4199
875.7299, 901.6406
876.2120, 1054.672
876.6941, 1142.959
877.1762, 1166.252
877.6583, 1175.287
878.1404, 1183.121
878.6226, 1196.621
879.1047, 1240.346
879.5869, 1297.203
880.0690, 1324.926
880.5511, 1300.721
881.0332, 1252.682
881.5153, 1178.566
881.9974, 1088.916
882.4796, 997.3008
882.9617, 897.8223
883.4438, 835.9004
883.9259, 831.7109
884.4080, 849.7734
884.8901, 842.0527
885.3723, 812.3984
885.8544, 770.0859
886.3365, 721.1719
886.8186, 655.1582
887.3007, 544.7871
887.7828, 424.5938
888.2650, 342.5352
888.7471, 308.6680
889.2292, 289.7676
889.7113, 286.1992
890.1934, 289.9199
890.6755, 306.2617
891.1577, 321.7988
891.6398, 284.5078
892.1219, 172.8242
892.6040, 71.02539
893.0861, 36.21289
893.5682, 42.08008
894.0504, 64.75391
894.5325, 119.2324
895.0146, 146.5059
895.4967, 143.2051
895.9788, 120.0039
896.4609, 74.43359
896.9431, 14.91211
897.4252, 17.76562
897.9073, 23.00391
898.3894, 12.74023
898.8715, 19.84766
899.3536, 55.61328
899.8358, 82.33398
900.3179, 99.09961
900.8000, 92.26562
901.2821, 37.40234
901.7642, 5.605469
902.2463, 1.437500
902.7285, 40.58203
903.2106, 48.66406
903.6927, 23.09570
904.1748, 1.097656
904.6569, 6.824219
905.1390, 27.62695
905.6212, 62.90039
906.1033, 103.6152
906.5854, 116.2891
907.0675, 67.02539
907.5496, 15.00977
908.0317, 36.49023
908.5139, 77.40430
908.9960, 66.46484
909.4781, 3.408203
909.9602, 53.42578
910.4423, 86.53711
910.9244, 97.82617
911.4066, 68.85352
911.8887, 27.44531
912.3708, 17.16797
912.8529, 92.63086
913.3350, 152.0820
913.8171, 174.4980
914.2993, 173.6797
914.7814, 163.0293
915.2635, 141.4473
915.7456, 123.8594
916.2277, 112.0000
916.7098, 106.3965
917.1920, 110.2031
917.6741, 119.2891
918.1562, 129.7266
918.6383, 143.9746
919.1204, 147.8516
919.6025, 116.2988
920.0847, 89.69141
920.5668, 102.4707
921.0489, 165.7949
921.5310, 180.3848
922.0131, 140.0566
922.4952, 100.6816
922.9774, 121.5762
923.4595, 165.0898
923.9416, 172.2793
924.4237, 141.9902
924.9058, 112.1426
925.3879, 95.19727
925.8701, 85.16797
926.3522, 79.18750
926.8343, 77.38281
927.3164, 77.99609
927.7985, 79.92969
928.2806, 97.05078
928.7628, 150.0918
929.2449, 207.6934
929.7270, 213.7812
930.2091, 183.8184
930.6912, 160.7871
931.1733, 165.7324
931.6555, 176.0820
932.1376, 198.0938
932.6197, 215.7168
933.1018, 195.1074
933.5839, 129.2637
934.0660, 76.80664
934.5482, 47.12500
935.0303, 37.46094
935.5124, 55.14648
935.9945, 87.48438
936.4766, 113.4746
936.9587, 132.5234
937.4409, 135.0547
937.9230, 88.28320
938.4051, 47.34375
938.8872, 64.18555
939.3693, 158.6387
939.8514, 182.3438
940.3336, 124.4414
940.8157, 72.02930
941.2978, 123.5566
941.7799, 213.2852
942.2620, 239.8203
942.7441, 200.1758
943.2263, 164.9844
943.7084, 170.9258
944.1905, 177.1348
944.6726, 166.6953
945.1547, 142.1953
945.6368, 119.2539
946.1190, 97.75195
946.6011, 86.67383
947.0832, 94.30469
947.5653, 109.8047
948.0474, 125.0820
948.5295, 136.8457
949.0117, 137.2988
949.4938, 121.6445
949.9759, 95.17188
950.4580, 39.02734
950.9401, 12.45312
951.4222, 8.974609
951.9044, 105.5820
952.3865, 151.6914
952.8686, 121.4531
953.3507, 64.21289
953.8328, 13.34375
954.3149, 24.29102
954.7971, 38.32031
955.2792, 23.65820
955.7613, 1.222656
956.2434, 46.12891
956.7255, 86.58789
957.2076, 104.8105
957.6898, 101.7695
958.1719, 112.6133
958.6540, 137.0605
959.1361, 142.9980
959.6182, 88.00586
960.1003, 21.37500
960.5825, 19.99609
961.0646, 33.77930
961.5467, 17.74219
962.0288, 50.89062
962.5109, 109.8242
962.9930, 149.9844
963.4752, 168.5449
963.9573, 138.0430
964.4394, 69.28516
964.9215, 34.17969
965.4036, 72.17969
965.8857, 118.1191
966.3679, 126.7598
966.8500, 113.2129
967.3321, 96.40430
967.8142, 79.41797
968.2963, 40.01367
968.7784, 41.76953
969.2606, 105.4824
969.7427, 66.27734
970.2248, 42.76758
970.7069, 99.58789
971.1890, 95.30469
971.6711, 81.86133
972.1533, 89.46289
972.6354, 101.0879
973.1175, 105.7910
973.5996, 103.1973
974.0817, 100.4824
974.5638, 99.05469
975.0460, 89.97461
975.5281, 62.23047
976.0102, 32.03711
976.4923, 45.85352
976.9744, 87.30273
977.4565, 108.3242
977.9387, 57.44727
978.4208, 18.49609
978.9029, 38.13281
979.3850, 77.90430
979.8671, 77.44336
980.3492, 20.69531
980.8314, 31.55859
981.3135, 138.4121
981.7956, 246.4004
982.2777, 239.0195
982.7598, 173.7168
983.2419, 130.4023
983.7241, 122.3926
984.2062, 123.3027
984.6883, 139.6230
985.1704, 148.1133
985.6525, 134.2031
986.1346, 101.3086
986.6168, 84.98438
987.0989, 85.01953
987.5810, 94.76172
988.0631, 115.8164
988.5452, 140.6152
989.0273, 164.9980
989.5095, 186.7285
989.9916, 199.9785
990.4737, 203.1934
990.9558, 197.5664
991.4379, 179.7285
991.9200, 157.1582
992.4022, 138.2852
992.8843, 123.9766
993.3664, 120.5156
993.8485, 129.5625
994.3306, 144.5391
994.8127, 172.4180
995.2949, 196.3730
995.7770, 194.3984
996.2591, 158.9609
996.7412, 158.0391
997.2233, 201.6738
997.7054, 240.6328
998.1876, 243.3242
998.6697, 220.7988
999.1518, 185.7949
999.6339, 145.8789
1000.116, 130.0645
1000.598, 193.8789
1001.080, 234.0742
1001.562, 183.3711
1002.044, 102.0723
1002.527, 110.3672
1003.009, 216.1406
1003.491, 293.9590
1003.973, 319.3809
1004.455, 310.7559
1004.937, 254.5762
1005.419, 191.4238
1005.901, 177.5547
1006.384, 235.9570
1006.866, 289.2012
1007.348, 337.2012
1007.830, 362.3496
1008.312, 347.4355
1008.794, 298.5488
1009.276, 260.0469
1009.758, 231.1582
1010.240, 209.5469
1010.723, 192.1680
1011.205, 183.2227
1011.687, 196.9414
1012.169, 217.7988
1012.651, 208.1465
1013.133, 152.6465
1013.615, 120.3574
1014.097, 124.9668
1014.580, 143.0195
1015.062, 145.1973
1015.544, 136.0938
1016.026, 125.3086
1016.508, 115.7051
1016.990, 98.42578
1017.472, 59.04297
1017.954, 19.49219
1018.436, 13.20898
1018.919, 37.36133
1019.401, 26.75000
1019.883, 19.95312
1020.365, 55.29688
1020.847, 30.38477
1021.329, 0.1054690
1021.811, 27.48633
1022.293, 91.30469
1022.776, 141.3750
1023.258, 173.2598
1023.740, 179.8965
1024.222, 149.6191
1024.704, 111.4785
1025.186, 115.1934
1025.668, 145.0000
1026.150, 135.6836
1026.632, 71.05664
1027.115, 23.60742
1027.597, 77.52344
1028.079, 146.0176
1028.561, 150.8457
1029.043, 95.76172
1029.525, 97.08008
1030.007, 163.8027
1030.489, 206.7637
1030.972, 163.6094
1031.454, 97.92773
1031.936, 106.5078
1032.418, 160.5156
1032.900, 197.4707
1033.382, 187.8184
1033.864, 172.9395
1034.346, 154.5781
1034.828, 137.8906
1035.311, 126.4297
1035.793, 121.1387
1036.275, 131.4492
1036.757, 159.0078
1037.239, 174.5371
1037.721, 137.5137
1038.203, 104.0664
1038.685, 116.9453
1039.167, 168.5703
1039.650, 183.5430
1040.132, 154.7383
1040.614, 126.0137
1041.096, 110.1270
1041.578, 104.8926
1042.060, 109.1250
1042.542, 120.2793
1043.024, 134.5801
1043.507, 153.1367
1043.989, 170.0293
1044.471, 195.5586
1044.953, 210.4395
1045.435, 185.9707
1045.917, 130.4531
1046.399, 129.7227
1046.881, 182.6875
1047.364, 236.4082
1047.846, 271.2031
1048.328, 279.7617
1048.810, 232.7188
1049.292, 151.6270
1049.774, 130.6758
1050.256, 194.2090
1050.738, 230.7109
1051.220, 211.1934
1051.703, 175.0781
1052.185, 192.1445
1052.667, 226.5605
1053.149, 204.0703
1053.631, 87.01758
1054.113, 26.28125
1054.595, 114.9395
1055.077, 209.4082
1055.559, 236.5566
1056.042, 205.7539
1056.524, 177.5156
1057.006, 152.7754
1057.488, 138.9160
1057.970, 142.0918
1058.452, 156.0469
1058.934, 194.8848
1059.416, 235.1582
1059.899, 231.6055
1060.381, 161.8242
1060.863, 135.6914
1061.345, 170.2676
1061.827, 213.3047
1062.309, 217.5059
1062.791, 193.9375
1063.273, 133.9395
1063.755, 37.55859
1064.238, 6.708984
1064.720, 143.6211
1065.202, 253.4746
1065.684, 271.9219
1066.166, 229.3145
1066.648, 206.6523
1067.130, 198.5449
1067.612, 177.0156
1068.094, 116.6660
1068.577, 81.00977
1069.059, 137.3887
1069.541, 217.6504
1070.023, 256.7285
1070.505, 248.8867
1070.987, 221.6953
1071.469, 171.2188
1071.951, 139.8535
1072.434, 191.4414
1072.916, 253.0273
1073.398, 219.1465
1073.880, 118.7148
1074.362, 58.27539
1074.844, 86.16016
1075.326, 111.3320
1075.808, 121.0195
1076.291, 127.6953
1076.773, 160.4531
1077.255, 206.7363
1077.737, 216.9980
1078.219, 180.1973
1078.701, 147.7891
1079.183, 158.7832
1079.665, 167.5176
1080.147, 146.3711
1080.630, 102.4902
1081.112, 80.27344
1081.594, 79.54883
1082.076, 91.70508
1082.558, 124.0977
1083.040, 147.0547
1083.522, 129.0293
1084.004, 87.63281
1084.486, 43.39062
1084.969, 14.25195
1085.451, 35.20508
1085.933, 13.56055
1086.415, 21.76953
1086.897, 56.82227
1087.379, 86.73438
1087.861, 100.9941
1088.343, 101.8965
1088.826, 100.9082
1089.308, 97.64453
1089.790, 96.69141
1090.272, 90.77734
1090.754, 96.82812
1091.236, 172.2188
1091.718, 288.7578
1092.200, 294.4414
1092.682, 157.4297
1093.165, 43.96875
1093.647, 116.1367
1094.129, 191.3125
1094.611, 130.8867
1095.093, 37.53125
1095.575, 109.1094
1096.057, 81.17969
1096.539, 26.41797
1097.022, 38.23438
1097.504, 96.07031
1097.986, 135.4883
1098.468, 152.3750
1098.950, 138.9141
1099.432, 71.19531
1099.914, 42.82422
1100.396, 67.56250
1100.879, 86.71484
1101.361, 36.31641
1101.843, 39.14453
1102.325, 46.21875
1102.807, 0.8671880
1103.289, 45.13672
1103.771, 57.04297
1104.253, 78.16016
1104.735, 125.1953
1105.218, 173.5391
1105.700, 186.2148
1106.182, 169.4375
1106.664, 147.3086
1107.146, 122.1836
1107.628, 100.2617
1108.110, 93.25000
1108.592, 82.64453
1109.074, 46.96875
1109.557, 0.5625000
1110.039, 1.679688
1110.521, 54.57422
1111.003, 96.58203
1111.485, 106.6836
1111.967, 106.3164
1112.449, 116.0664
1112.931, 125.7422
1113.414, 123.5234
1113.896, 105.6523
1114.378, 89.44922
1114.860, 75.83203
1115.342, 58.83594
1115.824, 19.73828
1116.306, 11.94531
1116.788, 30.98047
1117.271, 115.1875
1117.753, 167.8320
1118.235, 150.1094
1118.717, 117.0078
1119.199, 63.65234
1119.681, 13.28906
1120.163, 19.01562
1120.645, 28.71094
1121.127, 11.87500
1121.609, 97.19531
1122.092, 165.6562
1122.574, 181.0938
1123.056, 180.1797
1123.538, 165.7812
1124.020, 149.1289
1124.502, 157.0391
1124.984, 185.5781
1125.466, 200.0703
1125.949, 192.1445
1126.431, 178.4766
1126.913, 168.2891
1127.395, 159.0625
1127.877, 149.8242
1128.359, 140.0977
1128.841, 123.8633
1129.323, 100.4727
1129.806, 81.71094
1130.288, 66.09766
1130.770, 70.17188
1131.252, 146.6172
1131.734, 235.5312
1132.216, 247.4727
1132.698, 138.1719
1133.180, 89.71094
1133.662, 113.5430
1134.145, 150.3945
1134.627, 169.8555
1135.109, 175.2773
1135.591, 170.1562
1136.073, 154.3789
1136.555, 127.4297
1137.037, 53.16797
1137.519, 29.52344
1138.001, 81.15625
1138.484, 143.1484
1138.966, 135.6172
1139.448, 89.10156
1139.930, 76.14844
1140.412, 102.7695
1140.894, 138.3789
1141.376, 182.1836
1141.858, 223.0781
1142.341, 268.8125
1142.823, 298.6719
1143.305, 255.5312
1143.787, 164.1719
1144.269, 132.0234
1144.751, 181.3711
1145.233, 229.6680
1145.715, 241.9570
1146.198, 226.5938
1146.680, 180.6445
1147.162, 114.4023
1147.644, 71.86719
1148.126, 53.58984
1148.608, 63.18359
1149.090, 109.7812
1149.572, 164.9609
1150.054, 230.3359
1150.536, 277.8047
1151.019, 275.1289
1151.501, 219.1328
1151.983, 172.1133
1152.465, 132.7070
1152.947, 123.8828
1153.429, 199.0273
1153.911, 261.9609
1154.393, 176.7031
1154.876, 32.45312
1155.358, 9.589844
1155.840, 98.89844
1156.322, 191.5352
1156.804, 270.8242
1157.286, 308.5820
1157.768, 250.2383
1158.250, 164.1211
1158.733, 139.6641
1159.215, 163.0430
1159.697, 172.4648
1160.179, 159.8320
1160.661, 140.1914
1161.143, 108.0625
1161.625, 78.67969
1162.107, 75.43359
1162.589, 84.53516
1163.072, 72.49609
1163.554, 40.64453
1164.036, 49.88672
1164.518, 168.9336
1165.000, 235.8945
1165.482, 200.4297
1165.964, 113.4062
1166.446, 49.83203
1166.928, 10.66406
1167.411, 2.988281
1167.893, 32.91016
1168.375, 62.47266
1168.857, 77.53125
1169.339, 93.46094
1169.821, 117.0781
1170.303, 144.2930
1170.785, 169.6602
1171.268, 187.9102
1171.750, 183.8242
1172.232, 132.6523
1172.714, 111.6641
1173.196, 204.7539
1173.678, 284.7109
1174.160, 259.7773
1174.642, 152.7383
1175.125, 92.18750
1175.607, 74.98438
1176.089, 85.83594
1176.571, 151.0625
1177.053, 198.3945
1177.535, 172.5703
1178.017, 130.5117
1178.499, 137.8633
1178.981, 196.3984
1179.464, 171.9961
1179.946, 69.40625
1180.428, 12.85156
1180.910, 6.917969
1181.392, 42.30469
1181.874, 45.47266
1182.356, 36.98047
1182.838, 50.46094
1183.320, 86.65625
1183.803, 119.9023
1184.285, 148.6797
1184.767, 168.7773
1185.249, 170.5430
1185.731, 169.8203
1186.213, 188.8828
1186.695, 211.8789
1187.177, 184.7656
1187.660, 102.1211
1188.142, 53.07812
1188.624, 53.92969
1189.106, 76.32422
1189.588, 103.1094
1190.070, 133.4648
1190.552, 183.0273
1191.034, 240.7031
1191.516, 221.9883
1191.999, 114.4023
1192.481, 53.51172
1192.963, 77.32422
1193.445, 141.8594
1193.927, 254.8984
1194.409, 351.9492
1194.891, 346.9805
1195.373, 233.9375
1195.855, 188.2578
1196.338, 221.4609
1196.820, 209.8359
1197.302, 75.16016
1197.784, 60.55469
1198.266, 41.71484
1198.748, 44.00000
1199.230, 84.70703
1199.712, 58.53516
1200.195, 48.90234
1200.677, 56.94531
1201.159, 72.76172
1201.641, 88.14844
1202.123, 111.3164
1202.605, 163.3086
1203.087, 224.9531
1203.569, 270.0273
1204.052, 310.0781
1204.534, 280.5117
1205.016, 167.2734
1205.498, 67.91016
1205.980, 58.23438
1206.462, 91.89062
1206.944, 139.1523
1207.426, 184.4727
1207.908, 185.8125
1208.391, 121.7734
1208.873, 73.44531
1209.355, 46.44141
1209.837, 22.71484
1210.319, 40.18750
1210.801, 87.48047
1211.283, 34.73047
1211.765, 89.08984
1212.247, 180.5586
1212.730, 242.8828
1213.212, 223.7031
1213.694, 100.8867
1214.176, 15.36719
1214.658, 7.132813
1215.140, 76.54688
1215.622, 78.90625
1216.104, 25.28906
1216.587, 19.00000
1217.069, 84.89453
1217.551, 132.2734
1218.033, 146.2383
1218.515, 138.7656
1218.997, 91.00000
1219.479, 50.48047
1219.961, 91.69531
1220.443, 210.1914
1220.926, 270.9141
1221.408, 262.0312
1221.890, 211.7969
1222.372, 112.9102
1222.854, 24.37891
1223.336, 34.59766
1223.818, 83.97266
1224.300, 101.9180
1224.782, 79.37891
1225.265, 82.19141
1225.747, 119.9727
1226.229, 139.1172
1226.711, 120.3086
1227.193, 83.95703
1227.675, 31.09766
1228.157, 10.98828
1228.639, 0.9843750
1229.122, 71.98828
1229.604, 116.0938
1230.086, 129.2852
1230.568, 128.0195
1231.050, 112.5547
1231.532, 99.01172
1232.014, 110.3359
1232.496, 132.1172
1232.979, 143.6367
1233.461, 138.4805
1233.943, 188.2383
1234.425, 300.3555
1234.907, 360.6719
1235.389, 287.7148
1235.871, 183.7578
1236.353, 129.8047
1236.835, 117.3398
1237.318, 145.4492
1237.800, 221.4883
1238.282, 260.2109
1238.764, 261.8750
1239.246, 234.8672
1239.728, 145.4180
1240.210, 76.55859
1240.692, 139.5586
1241.175, 244.1758
1241.657, 259.2812
1242.139, 162.2969
1242.621, 118.3008
1243.103, 127.7617
1243.585, 141.4180
1244.067, 120.8477
1244.549, 103.7109
1245.031, 110.0430
1245.514, 140.5859
1245.996, 204.3867
1246.478, 310.9688
1246.960, 329.6055
1247.442, 264.6641
1247.924, 207.0781
1248.406, 252.2148
1248.888, 288.5977
1249.370, 224.7266
1249.853, 133.2422
1250.335, 115.9805
1250.817, 169.8438
1251.299, 204.3750
1251.781, 214.6953
1252.263, 199.4570
1252.745, 111.7031
1253.227, 53.30469
1253.710, 94.15625
1254.192, 169.4414
1254.674, 201.9375
1255.156, 196.2852
1255.638, 180.6523
1256.120, 162.5469
1256.602, 144.5703
1257.084, 112.3047
1257.567, 94.23047
1258.049, 98.91016
1258.531, 120.2617
1259.013, 156.9102
1259.495, 203.2539
1259.977, 247.9609
1260.459, 288.6484
1260.941, 312.9102
1261.423, 315.5938
1261.906, 295.1523
1262.388, 236.4961
1262.870, 177.7383
1263.352, 189.0078
1263.834, 232.8164
1264.316, 234.0820
1264.798, 181.0352
1265.280, 150.9805
1265.762, 196.2031
1266.245, 228.5391
1266.727, 234.6992
1267.209, 218.7266
1267.691, 157.0000
1268.173, 87.79297
1268.655, 90.15625
1269.137, 164.4531
1269.619, 200.7578
1270.102, 169.7070
1270.584, 154.6016
1271.066, 174.7109
1271.548, 206.9648
1272.030, 233.7227
1272.512, 243.1328
1272.994, 218.1211
1273.476, 157.9961
1273.958, 109.4180
1274.441, 66.61719
1274.923, 80.42188
1275.405, 173.7891
1275.887, 270.8594
1276.369, 286.2461
1276.851, 271.9141
1277.333, 280.7812
1277.815, 306.8867
1278.297, 293.4258
1278.780, 238.8906
1279.262, 196.0352
1279.744, 175.3945
1280.226, 172.2852
1280.708, 167.7695
1281.190, 195.6445
1281.672, 313.8633
1282.154, 476.5820
1282.637, 500.6133
1283.119, 400.5664
1283.601, 316.6875
1284.083, 281.1211
1284.565, 248.5273
1285.047, 170.5508
1285.529, 115.8750
1286.011, 119.0039
1286.494, 161.3477
1286.976, 203.3516
1287.458, 237.8672
1287.940, 231.1523
1288.422, 170.4062
1288.904, 110.4297
1289.386, 74.05859
1289.868, 35.99219
1290.350, 22.00781
1290.833, 71.53125
1291.315, 46.64062
1291.797, 27.10938
1292.279, 104.8789
1292.761, 181.9180
1293.243, 240.9766
1293.725, 291.2461
1294.207, 292.0781
1294.689, 212.2266
1295.172, 120.1758
1295.654, 121.4258
1296.136, 171.5977
1296.618, 209.0664
1297.100, 224.5898
1297.582, 241.0391
1298.064, 261.7617
1298.546, 260.2656
1299.029, 216.9141
1299.511, 185.4570
1299.993, 234.6289
1300.475, 313.6758
1300.957, 396.9180
1301.439, 470.0117
1301.921, 412.9883
1302.403, 231.5938
1302.885, 120.0625
1303.368, 134.1211
1303.850, 122.7656
1304.332, 37.69141
1304.814, 18.63672
1305.296, 52.06641
1305.778, 200.6172
1306.260, 255.2695
1306.742, 238.2461
1307.224, 245.1797
1307.707, 310.0273
1308.189, 334.3828
1308.671, 227.3203
1309.153, 140.6680
1309.635, 138.1250
1310.117, 176.7852
1310.599, 97.25000
1311.081, 8.796875
1311.564, 15.15625
1312.046, 156.6328
1312.528, 202.6367
1313.010, 94.87891
1313.492, 11.62500
1313.974, 11.74219
1314.456, 49.03906
1314.938, 34.52734
1315.421, 5.113281
1315.903, 0.0000000E+00
##END=



