##NAMES=Gustavite
##RRUFFID=R100203
##IDEAL CHEMISTRY=Ag^1+^Pb^2+^Bi^3+^_3_S^2-^_6_
##LOCALITY=Level 390, Vein 14, Mina Herminia, Julcani District, Huancavelica, Peru
##OWNER=RRUFF
##SOURCE=William W Pinch
##DESCRIPTION=Elongated black metallic crystals with striations, on a matrix of tetrahedrite, R100204.
##STATUS=The identification of this mineral is confirmed by single-crystal X-ray diffraction and chemical analysis.
##URL=rruff.info/R100203
##MEASURED CHEMISTRY=Ag_1.02_Pb_0.96_Bi_1.86_Sb_1.17_(S_5.97_As_0.03_)_Î£=6.00_
169.6203, 0.0000000E+00
170.1024, 0.7046130
170.5845, 0.5117030
171.0666, 1.7859999E-02
171.5487, 1.124672
172.0309, 4.132210
172.5130, 6.007507
172.9951, 4.666954
173.4772, 1.689163
173.9593, 0.4674220
174.4414, 0.2766490
174.9236, 0.8706740
175.4057, 1.419334
175.8878, 1.357964
176.3699, 1.407890
176.8520, 2.561569
177.3341, 4.291496
177.8163, 5.452850
178.2984, 5.151840
178.7805, 4.131592
179.2626, 3.456863
179.7447, 3.163200
180.2268, 3.040726
180.7090, 2.834305
181.1911, 2.615067
181.6732, 2.614021
182.1553, 2.919556
182.6374, 3.513496
183.1195, 4.544090
183.6017, 6.138496
184.0838, 7.530991
184.5659, 7.440453
185.0480, 6.193474
185.5301, 5.457100
186.0123, 6.679443
186.4944, 9.097916
186.9765, 10.12395
187.4586, 9.485352
187.9407, 8.193703
188.4228, 7.444069
188.9050, 7.224960
189.3871, 7.475891
189.8692, 8.449112
190.3513, 9.955521
190.8334, 11.09119
191.3155, 11.81313
191.7977, 12.14966
192.2798, 11.97028
192.7619, 11.27792
193.2440, 10.69146
193.7261, 10.64056
194.2082, 11.06653
194.6904, 11.24214
195.1725, 11.08400
195.6546, 10.76107
196.1367, 10.52537
196.6188, 10.36425
197.1009, 10.40651
197.5831, 10.90003
198.0652, 11.84509
198.5473, 12.24258
199.0294, 11.86949
199.5115, 11.15642
199.9937, 10.98277
200.4758, 11.39414
200.9579, 12.03460
201.4400, 12.85666
201.9221, 13.90479
202.4042, 14.41915
202.8864, 14.13379
203.3685, 13.51514
203.8506, 13.91076
204.3327, 15.66418
204.8148, 17.02823
205.2969, 16.72430
205.7791, 14.40465
206.2612, 12.99935
206.7433, 12.85255
207.2254, 13.57431
207.7075, 14.21768
208.1896, 14.77070
208.6718, 15.28562
209.1539, 15.87321
209.6360, 16.62696
210.1181, 16.91909
210.6002, 16.54764
211.0823, 15.79144
211.5645, 15.48383
212.0466, 15.81005
212.5287, 16.15072
213.0108, 16.10818
213.4929, 15.51288
213.9750, 15.23730
214.4572, 15.46964
214.9393, 15.99557
215.4214, 16.11220
215.9035, 15.56140
216.3856, 15.12406
216.8678, 15.34486
217.3499, 16.58447
217.8320, 17.24838
218.3141, 17.01199
218.7962, 16.21878
219.2783, 16.02030
219.7605, 16.76225
220.2426, 17.47079
220.7247, 17.54589
221.2068, 16.63464
221.6889, 16.11948
222.1710, 16.21882
222.6532, 16.71423
223.1353, 16.89845
223.6174, 16.59583
224.0995, 16.28183
224.5816, 16.18246
225.0637, 16.30862
225.5459, 16.67570
226.0280, 17.57285
226.5101, 18.65025
226.9922, 18.67887
227.4743, 16.80966
227.9564, 15.10485
228.4386, 14.62036
228.9207, 16.07671
229.4028, 17.02641
229.8849, 17.37009
230.3670, 17.18845
230.8492, 16.59297
231.3313, 15.07736
231.8134, 13.90878
232.2955, 13.79835
232.7776, 15.45740
233.2597, 16.51601
233.7419, 16.83932
234.2240, 16.59212
234.7061, 16.14811
235.1882, 15.32814
235.6703, 14.59088
236.1524, 14.10693
236.6346, 13.86169
237.1167, 13.93867
237.5988, 14.48233
238.0809, 15.29340
238.5630, 15.97249
239.0451, 16.74780
239.5273, 17.03185
240.0094, 16.42145
240.4915, 14.22403
240.9736, 12.95737
241.4557, 12.93423
241.9378, 13.68588
242.4200, 14.27091
242.9021, 14.69458
243.3842, 14.94652
243.8663, 15.02081
244.3484, 14.90784
244.8306, 14.63451
245.3127, 14.15877
245.7948, 13.54991
246.2769, 12.88641
246.7590, 11.96230
247.2411, 11.34791
247.7233, 11.26682
248.2054, 11.82067
248.6875, 12.59964
249.1696, 13.93890
249.6517, 15.27712
250.1338, 15.58296
250.6160, 14.19601
251.0981, 12.96481
251.5802, 12.51387
252.0623, 12.99542
252.5444, 13.45940
253.0265, 13.92867
253.5087, 14.36065
253.9908, 14.72101
254.4729, 15.11993
254.9550, 15.22722
255.4371, 14.88660
255.9192, 14.04061
256.4014, 13.21371
256.8835, 12.23460
257.3656, 11.44506
257.8477, 11.30872
258.3298, 12.14616
258.8120, 12.91130
259.2941, 13.28890
259.7762, 13.24078
260.2583, 13.53534
260.7404, 14.48055
261.2225, 15.38473
261.7047, 15.33408
262.1868, 13.70130
262.6689, 12.79625
263.1510, 13.42869
263.6331, 15.52709
264.1152, 16.47487
264.5974, 15.72231
265.0795, 14.65802
265.5616, 14.77789
266.0437, 16.58990
266.5258, 17.88195
267.0079, 18.10741
267.4901, 17.41070
267.9722, 17.11951
268.4543, 17.45369
268.9364, 17.83030
269.4185, 17.56777
269.9006, 16.35948
270.3828, 15.78754
270.8649, 16.19746
271.3470, 17.37637
271.8291, 18.36929
272.3112, 19.25485
272.7933, 19.84049
273.2755, 19.85701
273.7576, 19.21695
274.2397, 18.61286
274.7218, 18.09829
275.2039, 17.68384
275.6860, 17.42416
276.1682, 17.33697
276.6503, 17.31834
277.1324, 17.28706
277.6145, 17.23750
278.0966, 17.34833
278.5787, 17.64104
279.0609, 18.08360
279.5430, 18.74266
280.0251, 19.68182
280.5072, 20.33291
280.9893, 20.31371
281.4715, 19.63595
281.9536, 18.77682
282.4357, 17.63531
282.9178, 16.58409
283.3999, 16.40401
283.8820, 17.14326
284.3642, 17.91550
284.8463, 18.44777
285.3284, 18.71386
285.8105, 18.29781
286.2926, 17.03971
286.7747, 15.59959
287.2569, 14.98023
287.7390, 15.15421
288.2211, 15.30516
288.7032, 15.07624
289.1853, 14.53487
289.6674, 14.00864
290.1496, 13.52301
290.6317, 12.95857
291.1138, 11.91505
291.5959, 10.54354
292.0780, 9.868362
292.5602, 10.60504
293.0423, 12.05640
293.5244, 12.42718
294.0065, 11.73650
294.4886, 10.76022
294.9707, 10.07037
295.4529, 9.635239
295.9350, 9.359573
296.4171, 9.258080
296.8992, 9.269264
297.3813, 9.361328
297.8634, 9.540215
298.3456, 9.641068
298.8277, 9.547440
299.3098, 9.284882
299.7919, 8.834366
300.2740, 8.032944
300.7561, 7.343224
301.2383, 7.600960
301.7204, 8.607529
302.2025, 9.474449
302.6846, 9.509308
303.1667, 9.114021
303.6488, 8.934868
304.1310, 9.160637
304.6131, 9.358177
305.0952, 8.941414
305.5773, 8.115227
306.0594, 7.444107
306.5415, 7.472542
307.0237, 7.680893
307.5058, 7.446167
307.9879, 6.651604
308.4700, 5.824562
308.9521, 5.261505
309.4343, 4.954414
309.9164, 4.861671
310.3985, 5.284248
310.8806, 5.697769
311.3627, 5.736565
311.8448, 5.381386
312.3270, 4.707642
312.8091, 3.155968
313.2912, 1.502602
313.7733, 0.6644740
314.2554, 1.776146
314.7375, 3.085358
315.2197, 3.828079
315.7018, 4.013779
316.1839, 3.743721
316.6660, 2.357735
317.1481, 0.8972630
317.6302, 0.2586060
318.1124, 1.591156
318.5945, 2.649651
319.0766, 2.294365
319.5587, 0.9535220
320.0408, 0.1845090
320.5229, 1.326317
321.0051, 2.627274
321.4872, 3.027596
321.9693, 1.676994
322.4514, 0.7158660
322.9335, 0.9380260
323.4156, 1.808739
323.8978, 2.298370
324.3799, 2.105690
324.8620, 1.614311
325.3441, 0.8798450
325.8262, 0.2296980
326.3083, 1.134872
326.7905, 1.826874
327.2726, 2.278503
327.7547, 2.446022
328.2368, 1.949547
328.7189, 1.579330
329.2010, 1.640175
329.6832, 2.218964
330.1653, 2.224068
330.6474, 1.123993
331.1295, 0.1707760
331.6116, 0.9120030
332.0938, 0.6782150
332.5759, 0.5661540
333.0580, 0.8374940
333.5401, 1.399879
334.0222, 1.514076
334.5043, 0.9736630
334.9865, 0.2628170
335.4686, 0.3720170
335.9507, 0.9936600
336.4328, 1.358818
336.9149, 1.424423
337.3970, 1.248489
337.8792, 0.9338070
338.3613, 0.3993760
338.8434, 6.2369999E-02
339.3255, 0.2828670
339.8076, 0.2173690
340.2898, 0.2931670
340.7719, 0.5456850
341.2540, 0.8511120
341.7361, 1.116257
342.2182, 1.354836
342.7003, 1.446243
343.1825, 1.331177
343.6646, 1.026131
344.1467, 0.5797200
344.6288, 6.4438000E-02
345.1109, 0.5922780
345.5930, 0.6208570
346.0752, 0.1938550
346.5573, 0.2564620
347.0394, 0.7036130
347.5215, 1.044510
348.0036, 0.9891820
348.4857, 0.5444110
348.9679, 1.7775999E-02
349.4500, 0.6337660
349.9321, 1.209908
350.4142, 1.006966
350.8963, 0.2956620
351.3784, 1.850105
351.8606, 2.644638
352.3427, 2.760422
352.8248, 2.500641
353.3069, 1.498199
353.7890, 0.4258190
354.2711, 0.3864970
354.7533, 1.572166
355.2354, 2.804253
355.7175, 3.069748
356.1996, 2.684456
356.6817, 2.198784
357.1638, 1.710571
357.6460, 1.307030
358.1281, 0.9913410
358.6102, 0.7767790
359.0923, 0.8194960
359.5744, 1.650337
360.0565, 2.588066
360.5387, 2.943787
361.0208, 2.043968
361.5029, 1.129547
361.9850, 0.7457660
362.4671, 0.7854390
362.9492, 0.9278560
363.4314, 1.115448
363.9135, 1.336937
364.3956, 1.562073
364.8777, 1.708191
365.3598, 2.052734
365.8419, 3.075058
366.3241, 4.239883
366.8062, 4.735481
367.2883, 3.712959
367.7704, 2.720459
368.2526, 2.165543
368.7347, 2.114532
369.2168, 2.187340
369.6989, 2.493782
370.1810, 2.838539
370.6631, 3.064827
371.1453, 3.128899
371.6274, 3.149162
372.1095, 3.194473
372.5916, 3.216377
373.0737, 2.889168
373.5558, 1.852074
374.0380, 0.9953080
374.5201, 0.9419630
375.0022, 2.127396
375.4843, 2.573730
375.9664, 1.827805
376.4485, 0.6562730
376.9307, 0.7490770
377.4128, 2.447067
377.8949, 3.958679
378.3770, 4.489433
378.8591, 4.089508
379.3412, 3.727852
379.8234, 3.393448
380.3055, 3.148026
380.7876, 3.126007
381.2697, 3.311302
381.7518, 3.405701
382.2339, 3.245644
382.7161, 3.011253
383.1982, 3.288017
383.6803, 4.038139
384.1624, 4.517708
384.6445, 3.877304
385.1266, 2.598251
385.6088, 1.905914
386.0909, 2.116844
386.5730, 2.684242
387.0551, 3.118881
387.5372, 3.364059
388.0193, 3.391045
388.5015, 3.020500
388.9836, 2.601471
389.4657, 2.504303
389.9478, 2.760475
390.4299, 2.910316
390.9120, 2.392731
391.3942, 1.665596
391.8763, 1.301643
392.3584, 1.868736
392.8405, 2.485550
393.3226, 2.599579
393.8047, 2.313843
394.2869, 2.128304
394.7690, 2.517761
395.2511, 2.915619
395.7332, 2.956902
396.2154, 2.460358
396.6975, 1.904510
397.1796, 1.019424
397.6617, 0.1571350
398.1438, 5.0140001E-02
398.6259, 1.094055
399.1081, 2.300392
399.5902, 3.309608
400.0723, 4.151871
400.5544, 4.553154
401.0365, 4.256760
401.5186, 3.704361
402.0008, 3.228989
402.4829, 2.709518
402.9650, 2.426010
403.4471, 2.538528
403.9292, 2.970078
404.4113, 3.278633
404.8935, 3.435692
405.3756, 3.496078
405.8577, 3.470093
406.3398, 3.338028
406.8219, 3.174164
407.3040, 2.955292
407.7862, 2.712212
408.2683, 2.575424
408.7504, 2.619980
409.2325, 2.550133
409.7146, 2.134415
410.1967, 1.545311
410.6789, 1.400917
411.1610, 1.712006
411.6431, 2.089188
412.1252, 2.231102
412.6073, 2.232285
413.0894, 2.289291
413.5716, 2.501717
414.0537, 2.636368
414.5358, 2.291725
415.0179, 1.601784
415.5000, 0.9919820
415.9821, 0.7173230
416.4643, 0.6304320
416.9464, 0.5933300
417.4285, 0.6056060
417.9106, 0.7015230
418.3927, 0.9902880
418.8748, 1.378197
419.3570, 1.665215
419.8391, 1.731323
420.3212, 1.748123
420.8033, 1.773232
421.2854, 1.801781
421.7675, 1.807640
422.2497, 1.706711
422.7318, 1.636429
423.2139, 1.675636
423.6960, 1.863991
424.1781, 2.099922
424.6602, 2.631546
425.1424, 3.130241
425.6245, 3.076584
426.1066, 1.610794
426.5887, 0.7125020
427.0709, 1.156212
427.5530, 2.940811
428.0351, 3.471313
428.5172, 1.930367
428.9993, 0.2578510
429.4814, 1.6235000E-02
429.9636, 1.741455
430.4457, 2.784798
430.9278, 2.761002
431.4099, 2.100288
431.8920, 1.743912
432.3741, 1.746803
432.8563, 1.742226
433.3384, 1.366791
433.8205, 0.7404250
434.3026, 0.8770980
434.7847, 1.898148
435.2668, 3.008339
435.7490, 3.324883
436.2311, 3.000168
436.7132, 2.531784
437.1953, 1.892220
437.6774, 1.391586
438.1595, 1.660080
438.6417, 2.509720
439.1238, 3.158646
439.6059, 2.939758
440.0880, 2.379013
440.5701, 2.001762
441.0522, 1.869354
441.5344, 1.912094
442.0165, 2.308357
442.4986, 2.776688
442.9807, 2.968964
443.4628, 2.344086
443.9449, 1.845352
444.4271, 2.029213
444.9092, 2.753395
445.3913, 3.193573
445.8734, 2.907967
446.3555, 2.481956
446.8376, 2.185440
447.3198, 2.217049
447.8019, 2.110245
448.2840, 1.632462
448.7661, 1.101944
449.2482, 1.015953
449.7303, 1.842400
450.2125, 2.337700
450.6946, 2.078308
451.1767, 1.067680
451.6588, 0.6548390
452.1409, 1.100037
452.6230, 1.797058
453.1052, 2.354996
453.5873, 2.774529
454.0694, 3.116638
454.5515, 3.437912
455.0337, 3.572281
455.5158, 2.987503
455.9979, 1.750961
456.4800, 0.9572370
456.9621, 1.422325
457.4442, 2.515625
457.9264, 2.623795
458.4085, 1.782684
458.8906, 0.9260410
459.3727, 0.9314580
459.8548, 1.398216
460.3369, 1.658508
460.8191, 1.480453
461.3012, 1.289413
461.7833, 1.475029
462.2654, 1.898636
462.7475, 2.270287
463.2296, 2.663322
463.7118, 2.810333
464.1939, 2.351929
464.6760, 1.253334
465.1581, 0.5652010
465.6402, 1.003357
466.1223, 1.738358
466.6045, 2.182449
467.0866, 1.799385
467.5687, 1.687187
468.0508, 2.218903
468.5329, 3.027977
469.0150, 3.267288
469.4972, 2.481720
469.9793, 1.816338
470.4614, 1.704147
470.9435, 2.188057
471.4256, 2.328751
471.9077, 1.992058
472.3899, 1.582558
472.8720, 1.496925
473.3541, 1.768410
473.8362, 1.977760
474.3183, 2.130936
474.8004, 2.094841
475.2826, 1.379593
475.7647, 5.6389000E-02
476.2468, 0.8623120
476.7289, 0.7469100
477.2110, 9.1514997E-02
477.6931, 1.469582
478.1753, 3.382721
478.6574, 4.747749
479.1395, 4.162132
479.6216, 2.600464
480.1037, 1.525391
480.5858, 1.509529
481.0680, 1.685844
481.5501, 1.430656
482.0322, 0.9309460
482.5143, 0.5782390
482.9964, 0.4490970
483.4786, 0.5690230
483.9607, 1.069916
484.4428, 1.986275
484.9249, 2.719910
485.4070, 3.139183
485.8892, 3.338142
486.3713, 3.373375
486.8534, 3.171783
487.3355, 2.909103
487.8176, 2.498711
488.2997, 2.063393
488.7819, 1.924179
489.2640, 2.302338
489.7461, 2.465546
490.2282, 2.019371
490.7103, 1.030647
491.1924, 0.6418460
491.6746, 0.9037630
492.1567, 1.531502
492.6388, 2.536598
493.1209, 3.826759
493.6030, 4.454857
494.0851, 4.223190
494.5673, 3.525230
495.0494, 2.644028
495.5315, 1.708229
496.0136, 1.213814
496.4957, 1.730766
496.9778, 2.602478
497.4600, 3.237366
497.9421, 3.614151
498.4242, 3.626404
498.9063, 2.959587
499.3884, 2.045341
499.8705, 1.166054
500.3527, 0.1883010
500.8348, 0.2573090
501.3169, 0.7808530
501.7990, 2.299522
502.2811, 2.885689
502.7632, 0.9619750
503.2454, 0.4976960
503.7275, 0.6126940
504.2096, 0.4733960
504.6917, 1.187828
505.1738, 1.432007
505.6559, 1.433403
506.1381, 1.310158
506.6202, 1.088989
507.1023, 0.5190120
507.5844, 0.6600950
508.0665, 1.719765
508.5486, 1.412827
509.0308, 0.3022460
509.5129, 1.675041
509.9950, 2.244499
510.4771, 2.215164
510.9592, 1.792290
511.4413, 1.039589
511.9235, 0.5545580
512.4056, 1.116165
512.8877, 2.031921
513.3698, 2.104240
513.8519, 1.183983
514.3340, 0.4120790
514.8162, 0.8940200
515.2983, 1.803833
515.7804, 2.182693
516.2625, 1.246429
516.7446, 0.3879390
517.2267, 0.1382290
517.7089, 0.3818510
518.1910, 0.8428880
518.6731, 2.080467
519.1552, 2.949669
519.6373, 2.867989
520.1194, 1.722893
520.6016, 0.9051440
521.0837, 0.5117800
521.5658, 0.3449170
522.0479, 0.2635040
522.5300, 0.2418370
523.0121, 0.4268110
523.4943, 0.9058840
523.9764, 1.491371
524.4585, 1.856857
524.9406, 1.993912
525.4227, 2.025269
525.9048, 1.908279
526.3870, 1.757500
526.8691, 1.920822
527.3513, 2.378746
527.8334, 2.819901
528.3155, 3.130974
528.7976, 3.249214
529.2797, 3.039673
529.7618, 2.448959
530.2440, 1.764488
530.7261, 0.8334050
531.2082, 4.3159001E-02
531.6903, 9.4665997E-02
532.1724, 1.734680
532.6545, 3.022415
533.1367, 2.430389
533.6188, 0.5488430
534.1009, 0.5548860
534.5830, 0.1994780
535.0651, 1.161652
535.5472, 1.808487
536.0294, 2.130486
536.5115, 2.195770
536.9936, 1.862495
537.4757, 1.471474
537.9578, 1.303223
538.4399, 1.380066
538.9221, 1.551918
539.4042, 1.844376
539.8863, 2.157700
540.3684, 2.314133
540.8505, 2.321205
541.3326, 2.277100
541.8148, 2.273209
542.2969, 2.212357
542.7790, 1.746964
543.2611, 0.9576950
543.7432, 0.4462280
544.2253, 1.044342
544.7075, 1.901917
545.1896, 2.041832
545.6717, 1.207527
546.1538, 0.4415210
546.6359, 9.4379997E-03
547.1180, 8.9644998E-02
547.6002, 0.2732850
548.0823, 1.722816
548.5644, 2.977623
549.0465, 3.990959
549.5286, 4.656464
550.0107, 4.628288
550.4929, 3.408829
550.9750, 2.231575
551.4571, 1.413994
551.9392, 0.9537510
552.4213, 1.034157
552.9034, 1.792793
553.3856, 2.661362
553.8677, 3.342766
554.3498, 3.805534
554.8319, 3.457123
555.3140, 2.023247
555.7961, 0.5695880
556.2783, 0.8342900
556.7604, 2.247543
557.2425, 3.179268
557.7246, 2.687874
558.2067, 1.814995
558.6888, 1.575722
559.1710, 1.827904
559.6531, 2.011955
560.1352, 1.776176
560.6173, 1.458740
561.0994, 1.218803
561.5815, 1.090355
562.0637, 1.072792
562.5458, 1.038696
563.0279, 1.148903
563.5100, 1.542847
563.9921, 2.660187
564.4742, 3.268250
564.9564, 3.191093
565.4385, 2.677406
565.9206, 2.075859
566.4027, 1.409988
566.8848, 1.171616
567.3669, 1.583000
567.8491, 2.339363
568.3312, 2.325333
568.8133, 1.572235
569.2954, 0.8901140
569.7775, 1.077560
570.2596, 1.615852
570.7418, 1.402145
571.2239, 0.3448640
571.7060, 0.5957110
572.1881, 0.6474460
572.6702, 0.2067260
573.1523, 0.3242420
573.6345, 0.9882130
574.1166, 1.463127
574.5987, 1.477844
575.0808, 1.250580
575.5629, 1.146591
576.0450, 1.331444
576.5272, 1.525078
577.0093, 1.667160
577.4914, 1.775040
577.9735, 1.952080
578.4556, 2.306747
578.9377, 2.526489
579.4199, 2.413788
579.9020, 1.964005
580.3841, 1.549629
580.8662, 1.163422
581.3483, 0.8650890
581.8304, 0.6776200
582.3126, 0.6262820
582.7947, 0.8660130
583.2768, 1.528198
583.7589, 2.172417
584.2410, 2.273796
584.7231, 2.016312
585.2053, 1.764389
585.6874, 1.372330
586.1696, 1.302368
586.6517, 2.163368
587.1338, 3.673019
587.6159, 4.586266
588.0980, 4.324371
588.5801, 3.621811
589.0623, 2.582809
589.5444, 1.056511
590.0265, 0.2769850
590.5086, 0.5093920
590.9907, 1.134705
591.4728, 1.818779
591.9550, 2.625854
592.4371, 2.772011
592.9192, 1.975433
593.4013, 0.9213100
593.8834, 0.6673430
594.3655, 1.100060
594.8477, 1.513947
595.3298, 1.718834
595.8119, 1.756264
596.2940, 1.609978
596.7761, 1.305428
597.2582, 1.093758
597.7404, 1.227295
598.2225, 1.421173
598.7046, 1.556557
599.1867, 1.620140
599.6688, 1.520279
600.1509, 0.8834690
600.6331, 0.3222810
601.1152, 0.3019030
601.5973, 1.321693
602.0794, 1.686592
602.5615, 1.048988
603.0436, 8.5837997E-02
603.5258, 0.4840620
604.0079, 0.6515960
604.4900, 0.4270940
604.9721, 0.3163220
605.4542, 1.273651
605.9363, 1.842560
606.4185, 2.034042
606.9006, 1.983208
607.3827, 1.591415
607.8648, 1.092384
608.3469, 0.7592010
608.8290, 0.6030880
609.3112, 0.7050630
609.7933, 1.514244
610.2754, 2.316551
610.7575, 2.437996
611.2396, 1.682205
611.7217, 1.228539
612.2039, 1.803299
612.6860, 2.553131
613.1681, 2.824585
613.6502, 2.350624
614.1323, 1.802116
614.6144, 1.010963
615.0966, 0.3044130
615.5787, 0.2305760
616.0608, 0.9077450
616.5429, 1.534653
617.0250, 1.987846
617.5071, 2.209473
617.9893, 1.824272
618.4714, 0.9302220
618.9535, 0.3010410
619.4356, 0.4609760
619.9177, 1.035339
620.3998, 1.692375
620.8820, 2.391205
621.3641, 2.843979
621.8462, 2.694527
622.3283, 2.376862
622.8104, 2.215889
623.2925, 2.299263
623.7747, 2.342972
624.2568, 2.244865
624.7389, 2.116646
625.2210, 2.042809
625.7031, 2.012550
626.1852, 2.073402
626.6674, 2.280167
627.1495, 2.517204
627.6316, 2.581505
628.1137, 2.467224
628.5958, 2.318054
629.0779, 2.152145
629.5601, 1.965874
630.0422, 1.847015
630.5243, 1.826744
631.0064, 1.885490
631.4885, 2.041809
631.9706, 2.243515
632.4528, 2.598732
632.9349, 3.054459
633.4170, 3.082771
633.8991, 1.797234
634.3812, 0.5083920
634.8633, 6.8458997E-02
635.3455, 0.9077070
635.8276, 1.521469
636.3097, 1.814125
636.7918, 1.918472
637.2739, 1.893105
637.7560, 1.652344
638.2382, 1.663498
638.7203, 2.050079
639.2024, 2.529541
639.6845, 2.631165
640.1666, 2.400703
640.6487, 2.228325
641.1309, 2.279495
641.6130, 2.372696
642.0951, 2.150543
642.5772, 1.748291
643.0594, 1.563522
643.5415, 2.094879
644.0236, 2.634315
644.5057, 2.688194
644.9879, 2.303070
645.4700, 2.036461
645.9521, 2.220528
646.4342, 2.365425
646.9163, 2.235786
647.3984, 1.777664
647.8806, 1.410889
648.3627, 1.145714
648.8448, 0.9562530
649.3269, 0.7403790
649.8090, 0.5028150
650.2911, 0.8107220
650.7733, 1.828682
651.2554, 2.832169
651.7375, 2.998840
652.2196, 2.480888
652.7017, 1.564201
653.1838, 4.6310001E-03
653.6660, 1.291374
654.1481, 1.545792
654.6302, 1.064980
655.1123, 0.3874130
655.5944, 0.3769530
656.0765, 1.237961
656.5587, 2.558128
657.0408, 4.063522
657.5229, 4.465401
658.0050, 2.973053
658.4871, 1.713394
658.9692, 1.536179
659.4514, 2.322601
659.9335, 2.708900
660.4156, 2.659332
660.8977, 2.491692
661.3798, 2.342407
661.8619, 2.256302
662.3441, 2.434631
662.8262, 2.923096
663.3083, 3.157059
663.7904, 2.363411
664.2725, 1.254311
664.7546, 0.6109310
665.2368, 0.6611100
665.7189, 0.9947430
666.2010, 1.939545
666.6831, 2.891953
667.1652, 3.119286
667.6473, 1.968796
668.1295, 1.160011
668.6116, 0.8842160
669.0937, 0.9535980
669.5758, 1.047432
670.0579, 1.175728
670.5400, 1.240318
671.0222, 1.219627
671.5043, 1.107918
671.9864, 0.8177030
672.4685, 0.3948440
672.9506, 6.7001000E-02
673.4327, 0.1033250
673.9149, 6.6230997E-02
674.3970, 0.4267270
674.8791, 1.272636
675.3612, 1.741241
675.8433, 0.9961850
676.3254, 0.2651900
676.8076, 0.2974550
677.2897, 1.311966
677.7718, 1.933846
678.2539, 2.032448
678.7360, 1.912292
679.2181, 1.734116
679.7003, 1.489479
680.1824, 1.274025
680.6645, 1.067520
681.1466, 0.9963380
681.6287, 1.335533
682.1108, 1.921913
682.5930, 2.248489
683.0751, 2.138428
683.5572, 2.048592
684.0393, 2.489403
684.5214, 3.099503
685.0035, 3.384972
685.4857, 2.843643
685.9678, 2.350998
686.4499, 2.201965
686.9320, 2.240334
687.4141, 2.095459
687.8962, 1.558937
688.3784, 1.244041
688.8605, 1.337967
689.3426, 1.727570
689.8247, 2.058113
690.3068, 2.334244
690.7889, 2.518112
691.2711, 2.601639
691.7532, 2.578018
692.2353, 2.402603
692.7174, 2.086197
693.1995, 1.730797
693.6816, 0.9979170
694.1638, 0.5245360
694.6459, 1.125549
695.1280, 2.919510
695.6101, 3.952942
696.0922, 2.955147
696.5743, 1.725555
697.0565, 1.307014
697.5386, 2.039795
698.0207, 2.198402
698.5028, 1.521339
698.9849, 0.6497040
699.4670, 0.2984470
699.9492, 0.4427720
700.4313, 0.9499360
700.9135, 1.890633
701.3956, 2.694275
701.8777, 2.509300
702.3598, 1.811394
702.8419, 1.435539
703.3240, 1.762672
703.8062, 2.136230
704.2883, 2.281502
704.7704, 2.241676
705.2525, 2.077599
705.7346, 1.725449
706.2167, 1.329010
706.6989, 0.8084340
707.1810, 0.2945330
707.6631, 9.7884998E-02
708.1452, 0.2602160
708.6273, 0.5304180
709.1094, 0.8439560
709.5916, 1.211197
710.0737, 1.786346
710.5558, 2.486786
711.0379, 2.897133
711.5200, 2.371582
712.0021, 1.724289
712.4843, 1.863281
712.9664, 2.618919
713.4485, 2.992065
713.9306, 2.114502
714.4127, 1.153496
714.8948, 0.6584240
715.3770, 0.6351550
715.8591, 0.6177520
716.3412, 0.5642550
716.8233, 0.5992510
717.3054, 0.8444290
717.7875, 1.288933
718.2697, 1.623985
718.7518, 1.877136
719.2339, 1.931450
719.7160, 1.470230
720.1981, 0.8292690
720.6802, 0.5854110
721.1624, 0.8360210
721.6445, 1.173172
722.1266, 1.431969
722.6087, 1.625404
723.0908, 1.763252
723.5729, 1.855171
724.0551, 1.855469
724.5372, 1.625290
725.0193, 1.429390
725.5014, 1.654213
725.9835, 2.456802
726.4656, 2.642258
726.9478, 1.949364
727.4299, 0.9825130
727.9120, 0.6253280
728.3941, 0.7140730
728.8762, 0.7439190
729.3583, 0.5391770
729.8405, 0.3089370
730.3226, 0.1650700
730.8047, 0.1232380
731.2868, 0.2103810
731.7689, 0.6609190
732.2510, 1.012772
732.7332, 1.108299
733.2153, 1.034798
733.6974, 0.9021910
734.1795, 0.5549320
734.6616, 0.6565700
735.1437, 1.644501
735.6259, 2.939964
736.1080, 2.719086
736.5901, 1.175667
737.0722, 3.1784002E-02
737.5543, 0.4245830
738.0364, 1.406708
738.5186, 2.125336
739.0007, 2.528908
739.4828, 2.461388
739.9649, 1.252197
740.4470, 0.1333010
740.9291, 0.3670960
741.4113, 0.2357410
741.8934, 0.1751790
742.3755, 1.127281
742.8576, 1.889755
743.3397, 2.147308
743.8218, 1.949982
744.3040, 1.640388
744.7861, 1.216797
745.2682, 0.8582080
745.7503, 0.7086790
746.2324, 0.6935420
746.7145, 0.7210850
747.1967, 0.7822190
747.6788, 0.8256450
748.1609, 0.6993330
748.6430, 0.6401140
749.1251, 0.8123020
749.6072, 1.267471
750.0894, 1.828888
750.5715, 2.809685
751.0536, 3.492699
751.5357, 3.229889
752.0178, 1.901688
752.4999, 1.062141
752.9821, 0.7554700
753.4642, 0.6285550
753.9463, 0.4023670
754.4284, 0.1052250
754.9105, 0.3393250
755.3926, 1.003029
755.8748, 1.191238
756.3569, 3.9779998E-02
756.8390, 1.611382
757.3211, 2.532867
757.8032, 2.307968
758.2853, 2.156586
758.7675, 2.254387
759.2496, 2.351440
759.7318, 2.168846
760.2139, 1.649384
760.6960, 1.387558
761.1781, 1.453285
761.6602, 1.580727
762.1423, 1.288017
762.6245, 0.8259960
763.1066, 0.9008410
763.5887, 1.850929
764.0708, 2.719589
764.5529, 2.673645
765.0350, 2.229759
765.5172, 1.998482
765.9993, 2.487282
766.4814, 2.682655
766.9635, 2.277824
767.4456, 1.747444
767.9277, 1.846138
768.4099, 2.751198
768.8920, 3.022247
769.3741, 2.273277
769.8562, 1.207741
770.3383, 0.8506850
770.8204, 1.012741
771.3026, 1.195122
771.7847, 1.276291
772.2668, 1.275558
772.7489, 1.131958
773.2310, 0.9357530
773.7131, 0.8298490
774.1953, 1.103027
774.6774, 1.117798
775.1595, 0.6522290
775.6416, 8.6749997E-03
776.1237, 0.3495100
776.6058, 0.3475110
777.0880, 0.1717450
777.5701, 0.2026980
778.0522, 0.6077580
778.5343, 0.6376420
779.0164, 0.4505690
779.4985, 0.5148240
779.9807, 1.189674
780.4628, 1.959343
780.9449, 2.720543
781.4270, 3.322067
781.9091, 3.468460
782.3912, 2.699158
782.8734, 1.940300
783.3555, 1.197037
783.8376, 0.5983200
784.3197, 0.5258480
784.8018, 1.015800
785.2839, 1.637711
785.7661, 2.363678
786.2482, 2.994225
786.7303, 3.146408
787.2124, 2.914856
787.6945, 2.573860
788.1766, 2.080223
788.6588, 1.679955
789.1409, 1.516388
789.6230, 1.538948
790.1051, 1.607315
790.5872, 1.818932
791.0693, 1.898071
791.5515, 1.777679
792.0336, 1.495781
792.5157, 1.077293
792.9978, 0.5207370
793.4799, 0.2052080
793.9620, 0.3370970
794.4442, 0.7046050
794.9263, 1.070267
795.4084, 1.419212
795.8905, 1.714767
796.3726, 2.102791
796.8547, 2.263000
797.3369, 1.849899
797.8190, 1.079269
798.3011, 0.7097630
798.7832, 0.9362790
799.2653, 1.148300
799.7474, 1.163651
800.2296, 1.077362
800.7117, 1.237396
801.1938, 1.617477
801.6759, 1.940300
802.1580, 2.148071
802.6401, 2.178955
803.1223, 1.691322
803.6044, 0.9580760
804.0865, 0.6948700
804.5686, 1.805634
805.0507, 2.720406
805.5328, 2.853905
806.0150, 2.431038
806.4971, 2.003349
806.9792, 1.585403
807.4613, 1.080353
807.9434, 0.3358990
808.4255, 0.3737560
808.9077, 0.2492370
809.3898, 0.5450290
809.8719, 1.269569
810.3540, 1.491249
810.8361, 1.628433
811.3182, 2.302986
811.8004, 3.130989
812.2825, 3.221771
812.7646, 1.056854
813.2467, 0.3224870
813.7288, 1.8616000E-02
814.2109, 1.415382
814.6931, 2.369522
815.1752, 2.848167
815.6573, 2.841171
816.1394, 2.226242
816.6215, 1.327812
817.1037, 0.5066830
817.5858, 0.1577990
818.0679, 0.4773640
818.5500, 0.2668910
819.0322, 0.1966780
819.5143, 1.089920
819.9964, 2.092392
820.4785, 2.473923
820.9606, 1.780174
821.4427, 1.277725
821.9249, 1.212105
822.4070, 1.377419
822.8891, 1.316071
823.3712, 1.059532
823.8533, 0.9467930
824.3354, 1.143433
824.8176, 1.374245
825.2997, 1.150841
825.7818, 0.7808990
826.2639, 0.7946850
826.7460, 2.048538
827.2281, 2.881401
827.7103, 2.562820
828.1924, 1.789787
828.6745, 1.510391
829.1566, 1.911606
829.6387, 2.033974
830.1208, 1.671654
830.6030, 1.138313
831.0851, 0.8387220
831.5672, 0.7645030
832.0493, 0.9541400
832.5314, 1.551651
833.0135, 2.050934
833.4957, 1.919312
833.9778, 1.550026
834.4599, 1.442719
834.9420, 2.295013
835.4241, 2.503769
835.9063, 1.676331
836.3884, 0.6947020
836.8705, 0.6165010
837.3526, 1.327843
837.8347, 2.004120
838.3168, 2.571503
838.7990, 2.941299
839.2811, 2.939987
839.7632, 2.714478
840.2453, 2.584671
840.7274, 2.681244
841.2095, 2.648468
841.6917, 2.195160
842.1738, 1.685127
842.6559, 1.362984
843.1380, 1.178947
843.6201, 1.468742
844.1022, 2.391525
844.5844, 3.239723
845.0665, 3.126259
845.5486, 2.436234
846.0307, 2.371376
846.5128, 3.056862
846.9949, 3.508698
847.4771, 2.762146
847.9592, 1.739807
848.4413, 1.108101
848.9234, 0.9744340
849.4055, 1.165810
849.8876, 1.945915
850.3698, 2.595726
850.8519, 2.586960
851.3340, 1.990959
851.8161, 1.725014
852.2982, 1.787186
852.7803, 1.990257
853.2625, 2.265755
853.7446, 2.565086
854.2267, 2.985756
854.7088, 3.477661
855.1909, 3.516663
855.6730, 2.245567
856.1552, 1.218094
856.6373, 1.139236
857.1194, 1.866631
857.6015, 2.190033
858.0836, 2.057411
858.5657, 1.945526
859.0479, 2.176926
859.5300, 2.527519
860.0121, 2.443237
860.4942, 1.996529
860.9763, 1.640167
861.4584, 1.417900
861.9406, 1.512039
862.4227, 2.467934
862.9048, 3.836281
863.3869, 4.053368
863.8690, 2.596085
864.3511, 1.248817
864.8333, 0.3251650
865.3154, 0.1468580
865.7975, 4.3381002E-02
866.2796, 0.7359240
866.7617, 1.359497
867.2438, 1.785477
867.7260, 1.947906
868.2081, 1.494156
868.6902, 0.8434300
869.1723, 0.6407700
869.6544, 1.793648
870.1365, 2.256332
870.6187, 1.596588
871.1008, 0.5699080
871.5829, 0.2521740
872.0650, 0.5830380
872.5471, 1.130180
873.0292, 1.897110
873.5114, 2.523682
873.9935, 2.627998
874.4756, 2.376900
874.9577, 1.904411
875.4399, 1.059410
875.9220, 0.5346530
876.4041, 0.7730940
876.8862, 1.222847
877.3683, 1.617203
877.8505, 2.018188
878.3326, 1.792145
878.8147, 0.8437580
879.2968, 3.4630001E-02
879.7789, 8.3861999E-02
880.2610, 0.3683010
880.7432, 0.8513180
881.2253, 1.325172
881.7074, 1.738907
882.1895, 2.223114
882.6716, 2.497047
883.1537, 2.237869
883.6359, 1.500298
884.1180, 1.331398
884.6001, 1.861938
885.0822, 2.421524
885.5643, 2.813828
886.0464, 2.942551
886.5286, 2.265091
887.0107, 1.045403
887.4928, 0.2846150
887.9749, 0.7953950
888.4570, 1.605209
888.9391, 2.431084
889.4213, 3.158417
889.9034, 3.464630
890.3855, 3.147377
890.8676, 2.909920
891.3497, 2.986855
891.8318, 3.075699
892.3140, 2.480576
892.7961, 1.369064
893.2782, 0.3360900
893.7603, 0.6024630
894.2424, 1.009308
894.7245, 0.1576690
895.2067, 1.740646
895.6888, 2.308136
896.1709, 0.4179000
896.6530, 0.4685130
897.1351, 6.7978002E-02
897.6172, 0.8536680
898.0994, 1.767563
898.5815, 2.606369
899.0636, 2.658569
899.5457, 1.816315
900.0278, 0.9194490
900.5099, 0.4470370
900.9921, 0.3729860
901.4742, 0.7999420
901.9563, 1.825623
902.4384, 2.584221
902.9205, 3.071709
903.4026, 3.130074
903.8848, 2.470505
904.3669, 1.247810
904.8490, 0.8768230
905.3311, 1.326035
905.8132, 1.695251
906.2953, 1.162590
906.7775, 0.4988560
907.2596, 0.5807500
907.7417, 1.209732
908.2238, 1.659805
908.7059, 1.494347
909.1880, 1.436020
909.6702, 1.774750
910.1523, 2.224136
910.6344, 1.921234
911.1165, 0.8905870
911.5986, 0.3430940
912.0807, 0.7295300
912.5629, 1.423134
913.0450, 1.856293
913.5271, 2.075798
914.0092, 2.150108
914.4913, 2.052811
914.9734, 1.884666
915.4556, 1.708862
915.9377, 1.427635
916.4198, 0.7992170
916.9019, 0.2345050
917.3840, 0.4594880
917.8661, 0.2559200
918.3483, 1.125557
918.8304, 1.593384
919.3125, 1.723228
919.7946, 1.351952
920.2767, 0.4618450
920.7589, 0.1973800
921.2410, 2.012245
921.7231, 3.328049
922.2052, 2.852486
922.6873, 0.9169010
923.1694, 0.3145900
923.6516, 1.181007
924.1337, 2.040031
924.6158, 2.143364
925.0979, 1.844940
925.5800, 1.442528
926.0621, 1.017159
926.5443, 0.7671280
927.0264, 1.059402
927.5085, 1.145401
927.9906, 0.7162480
928.4727, 0.1171570
928.9548, 8.3549000E-02
929.4370, 0.1223910
929.9191, 0.5253220
930.4012, 1.133003
930.8833, 1.724899
931.3654, 2.083778
931.8475, 2.256126
932.3297, 2.244781
932.8118, 1.924637
933.2939, 1.906830
933.7761, 2.952209
934.2582, 3.709366
934.7403, 3.150620
935.2224, 1.220650
935.7045, 0.3088230
936.1866, 0.4479520
936.6688, 0.9353710
937.1509, 1.470245
937.6330, 1.958344
938.1151, 2.305580
938.5972, 2.505524
939.0793, 2.540970
939.5615, 2.238350
940.0436, 1.973427
940.5257, 1.832748
941.0078, 1.797440
941.4899, 1.883469
941.9720, 2.080994
942.4542, 2.116295
942.9363, 1.906036
943.4184, 1.522049
943.9005, 0.6941600
944.3826, 0.1056900
944.8647, 0.1839140
945.3469, 1.270554
945.8290, 2.207748
946.3111, 2.275391
946.7932, 2.041237
947.2753, 1.985626
947.7574, 2.094139
948.2396, 2.021027
948.7217, 1.753021
949.2038, 1.590240
949.6859, 1.979225
950.1680, 2.421410
950.6501, 2.450150
951.1323, 2.058449
951.6144, 1.591255
952.0965, 1.082344
952.5786, 0.6529010
953.0607, 0.2062840
953.5428, 0.1883240
954.0250, 0.3342820
954.5071, 0.2705380
954.9892, 5.5466000E-02
955.4713, 0.8634190
955.9534, 1.494293
956.4355, 1.213371
956.9177, 0.5351870
957.3998, 0.2137220
957.8819, 0.5944290
958.3640, 0.8467480
958.8461, 0.9273610
959.3282, 0.9345250
959.8104, 0.8695370
960.2925, 0.8157270
960.7746, 1.228638
961.2567, 2.139908
961.7388, 2.729576
962.2209, 2.213722
962.7031, 1.416176
963.1852, 0.6951830
963.6673, 0.1184620
964.1494, 0.3856120
964.6315, 1.801308
965.1136, 3.011955
965.5958, 3.542984
966.0779, 3.510239
966.5600, 2.843613
967.0421, 1.814865
967.5242, 1.196236
968.0063, 1.704056
968.4885, 2.092659
968.9706, 1.617760
969.4527, 0.9371410
969.9348, 0.8158720
970.4169, 1.356445
970.8990, 2.151924
971.3812, 3.293304
971.8633, 4.033630
972.3454, 3.123131
972.8275, 1.571251
973.3096, 0.8961720
973.7917, 1.235863
974.2739, 1.684166
974.7560, 2.009171
975.2381, 2.247910
975.7202, 2.469185
976.2023, 2.631729
976.6844, 2.698715
977.1666, 2.671417
977.6487, 2.602409
978.1308, 2.641808
978.6129, 2.451050
979.0950, 1.194626
979.5771, 0.4068760
980.0593, 1.180939
980.5414, 0.1119230
981.0235, 0.8576660
981.5056, 0.7141650
981.9877, 0.3502880
982.4698, 0.5167620
982.9520, 1.097511
983.4341, 1.298576
983.9162, 1.075493
984.3983, 0.8897090
984.8804, 1.256493
985.3625, 1.637459
985.8447, 1.594223
986.3268, 1.121826
986.8089, 0.7276990
987.2910, 0.4146500
987.7731, 0.2632900
988.2552, 0.3283310
988.7374, 0.5316770
989.2195, 0.7895890
989.7016, 1.056374
990.1837, 1.188095
990.6658, 0.9568560
991.1479, 0.8242340
991.6301, 1.254990
992.1122, 1.676399
992.5944, 1.448700
993.0765, 0.3592680
993.5586, 0.1900790
994.0407, 0.1613920
994.5228, 0.2077410
995.0049, 1.099174
995.4871, 1.988396
995.9692, 2.051437
996.4513, 1.380226
996.9334, 0.8291020
997.4155, 0.6303480
997.8976, 0.6685100
998.3798, 1.090706
998.8619, 1.606133
999.3440, 1.228355
999.8261, 0.1184080
1000.308, 1.9370999E-02
1000.790, 1.591179
1001.272, 3.159157
1001.755, 3.093086
1002.237, 2.200363
1002.719, 1.303001
1003.201, 0.3854750
1003.683, 0.1062620
1004.165, 0.6745990
1004.647, 1.351242
1005.129, 1.624954
1005.612, 1.645988
1006.094, 1.872169
1006.576, 2.262268
1007.058, 2.628769
1007.540, 3.030357
1008.022, 3.213837
1008.504, 2.992538
1008.986, 2.517860
1009.468, 1.918831
1009.951, 1.121124
1010.433, 0.9385990
1010.915, 1.606339
1011.397, 2.354408
1011.879, 2.397606
1012.361, 2.013298
1012.843, 1.419304
1013.325, 0.5594860
1013.807, 0.1414570
1014.290, 0.5097730
1014.772, 0.9944310
1015.254, 1.370697
1015.736, 1.617363
1016.218, 1.537544
1016.700, 1.208206
1017.182, 1.088737
1017.664, 1.697632
1018.147, 2.171043
1018.629, 1.685173
1019.111, 0.8247070
1019.593, 0.5125200
1020.075, 1.025200
1020.557, 1.314262
1021.039, 1.303268
1021.521, 1.199341
1022.003, 1.122215
1022.486, 1.125435
1022.968, 1.388588
1023.450, 1.886292
1023.932, 2.248329
1024.414, 2.423149
1024.896, 2.299950
1025.378, 1.739883
1025.860, 0.9281770
1026.343, 0.2773970
1026.825, 0.1820070
1027.307, 5.3078000E-02
1027.789, 0.9732360
1028.271, 1.968674
1028.753, 2.024338
1029.235, 1.637352
1029.717, 1.351646
1030.199, 1.284798
1030.682, 1.115685
1031.164, 0.7460400
1031.646, 0.5472560
1032.128, 0.8973010
1032.610, 1.533882
1033.092, 1.719612
1033.574, 1.577309
1034.056, 1.536827
1034.539, 2.064735
1035.021, 2.398323
1035.503, 2.128342
1035.985, 1.647873
1036.467, 1.492867
1036.949, 1.674057
1037.431, 1.758202
1037.913, 1.682648
1038.396, 1.616096
1038.878, 1.534920
1039.360, 1.390442
1039.842, 1.085670
1040.324, 0.6186900
1040.806, 0.2643740
1041.288, 7.2975002E-02
1041.770, 1.4570000E-03
1042.252, 0.8364410
1042.734, 1.854156
1043.217, 1.600212
1043.699, 0.5744020
1044.181, 0.1400070
1044.663, 0.9984820
1045.145, 1.798271
1045.627, 2.219856
1046.109, 2.187927
1046.591, 1.416359
1047.074, 0.1626280
1047.556, 0.4822850
1048.038, 0.5169530
1048.520, 1.389816
1049.002, 1.122581
1049.484, 0.5627060
1049.966, 0.3500750
1050.448, 0.4423680
1050.931, 0.7268300
1051.413, 1.481125
1051.895, 1.636856
1052.377, 0.8581160
1052.859, 1.6510000E-02
1053.341, 0.4371410
1053.823, 1.548843
1054.305, 2.029877
1054.787, 1.725609
1055.270, 1.418991
1055.752, 1.491241
1056.234, 1.613831
1056.716, 1.767685
1057.198, 1.864021
1057.680, 1.410431
1058.162, 0.4512020
1058.644, 0.2460940
1059.126, 0.4365840
1059.609, 0.3077010
1060.091, 0.2967220
1060.573, 0.9511800
1061.055, 1.077881
1061.537, 0.3683620
1062.019, 0.1997150
1062.501, 0.6429440
1062.983, 1.373886
1063.466, 2.578705
1063.948, 3.711143
1064.430, 3.522346
1064.912, 2.379799
1065.394, 1.380196
1065.876, 0.7729950
1066.358, 0.6490550
1066.840, 1.346954
1067.323, 2.110802
1067.805, 1.829941
1068.287, 0.6914370
1068.769, 1.2146000E-02
1069.251, 0.1034390
1069.733, 0.1413730
1070.215, 1.163269
1070.697, 1.989639
1071.179, 1.677338
1071.661, 0.5602490
1072.144, 0.1145320
1072.626, 0.4437870
1073.108, 0.7650990
1073.590, 0.8724210
1074.072, 0.9126430
1074.554, 1.109161
1075.036, 1.331123
1075.518, 1.410744
1076.001, 1.312157
1076.483, 1.056564
1076.965, 0.4536290
1077.447, 0.1221470
1077.929, 0.5608220
1078.411, 1.397362
1078.893, 1.519829
1079.375, 1.096550
1079.858, 0.6648410
1080.340, 0.2113040
1080.822, 0.1099240
1081.304, 0.8506390
1081.786, 1.735291
1082.268, 2.138084
1082.750, 2.048195
1083.232, 1.837624
1083.714, 1.514992
1084.197, 1.184357
1084.679, 0.9000630
1085.161, 0.6536250
1085.643, 0.3228450
1086.125, 1.6678000E-02
1086.607, 8.9592002E-02
1087.089, 0.7093200
1087.571, 1.125938
1088.054, 1.211662
1088.536, 1.143135
1089.018, 1.148628
1089.500, 1.164558
1089.982, 0.8371050
1090.464, 9.5725998E-02
1090.946, 7.3044002E-02
1091.428, 0.9786830
1091.911, 1.862358
1092.393, 2.147285
1092.875, 1.996719
1093.357, 1.526474
1093.839, 0.9485320
1094.321, 1.014816
1094.803, 2.195427
1095.285, 3.188469
1095.767, 3.375603
1096.250, 3.130333
1096.732, 2.547241
1097.214, 1.677460
1097.696, 1.702736
1098.178, 2.565208
1098.660, 3.056099
1099.142, 2.245796
1099.624, 1.198090
1100.106, 0.5114520
1100.589, 0.1988750
1101.071, 0.3339460
1101.553, 1.178818
1102.035, 1.421944
1102.517, 0.9016110
1102.999, 0.5605390
1103.481, 1.857414
1103.963, 3.363808
1104.446, 2.574593
1104.928, 0.1433560
1105.410, 0.9606930
1105.892, 1.164337
1106.374, 2.650093
1106.856, 2.924805
1107.338, 2.550217
1107.820, 1.997574
1108.302, 1.417725
1108.785, 1.181938
1109.267, 1.332573
1109.749, 1.410370
1110.231, 0.8515550
1110.713, 0.6684420
1111.195, 1.549156
1111.677, 2.848206
1112.159, 2.416542
1112.641, 0.6078190
1113.124, 0.2827450
1113.606, 0.4984440
1114.088, 1.483658
1114.570, 1.779190
1115.052, 1.797066
1115.534, 1.842438
1116.016, 1.921494
1116.498, 1.971214
1116.981, 1.996635
1117.463, 1.806717
1117.945, 1.151939
1118.427, 0.5374370
1118.909, 0.5350270
1119.391, 0.8719860
1119.873, 1.100258
1120.355, 1.015633
1120.838, 1.386543
1121.320, 2.371162
1121.802, 3.125305
1122.284, 2.932404
1122.766, 2.228218
1123.248, 1.428589
1123.730, 0.6733550
1124.212, 0.3173680
1124.694, 0.8772580
1125.177, 1.243088
1125.659, 1.299721
1126.141, 1.225197
1126.623, 1.151176
1127.105, 1.103104
1127.587, 1.220192
1128.069, 1.470802
1128.551, 1.602394
1129.033, 1.233231
1129.516, 1.097160
1129.998, 1.589111
1130.480, 2.270531
1130.962, 2.363342
1131.444, 1.973228
1131.926, 1.500412
1132.408, 0.9816970
1132.890, 0.7652050
1133.373, 1.315941
1133.855, 1.998032
1134.337, 2.516342
1134.819, 2.864052
1135.301, 3.012299
1135.783, 2.961205
1136.265, 2.664505
1136.747, 2.040352
1137.229, 1.451553
1137.712, 1.202309
1138.194, 1.135338
1138.676, 1.106544
1139.158, 1.109474
1139.640, 1.294388
1140.122, 1.685768
1140.604, 2.046448
1141.086, 2.340858
1141.569, 2.455521
1142.051, 2.129974
1142.533, 1.615395
1143.015, 1.246529
1143.497, 1.107056
1143.979, 1.018837
1144.461, 0.9989470
1144.943, 0.9654010
1145.426, 0.9068980
1145.908, 0.7726970
1146.390, 0.1234820
1146.872, 0.6032490
1147.354, 0.4944530
1147.836, 2.007851
1148.318, 3.278419
1148.800, 2.940376
1149.282, 2.055885
1149.765, 1.254097
1150.247, 0.6576160
1150.729, 0.7430800
1151.211, 1.329636
1151.693, 1.646988
1152.175, 0.9298170
1152.657, 0.6273570
1153.139, 1.205940
1153.621, 1.902596
1154.104, 1.630569
1154.586, 0.7376170
1155.068, 0.4051670
1155.550, 0.6947560
1156.032, 1.130455
1156.514, 1.695053
1156.996, 2.134247
1157.478, 2.410362
1157.961, 2.493721
1158.443, 2.249092
1158.925, 1.741585
1159.407, 1.277161
1159.889, 0.8939970
1160.371, 0.7928310
1160.853, 1.472321
1161.335, 2.056160
1161.818, 1.870857
1162.300, 1.339241
1162.782, 2.164436
1163.264, 4.086716
1163.746, 4.358818
1164.228, 1.973022
1164.710, 0.1497650
1165.192, 0.7027740
1165.674, 2.116287
1166.156, 2.168129
1166.639, 1.124947
1167.121, 0.8119580
1167.603, 1.229286
1168.085, 1.920311
1168.567, 2.917076
1169.049, 3.625809
1169.531, 3.286873
1170.013, 2.574707
1170.496, 2.102623
1170.978, 1.873291
1171.460, 2.036980
1171.942, 2.606201
1172.424, 3.040207
1172.906, 3.129433
1173.388, 2.923210
1173.870, 2.323479
1174.353, 1.529686
1174.835, 0.7179870
1175.317, 0.2378920
1175.799, 0.3540040
1176.281, 0.4716950
1176.763, 1.321648
1177.245, 1.703232
1177.727, 1.825874
1178.209, 1.884987
1178.692, 1.870163
1179.174, 1.746208
1179.656, 1.431114
1180.138, 1.227913
1180.620, 1.136505
1181.102, 1.147026
1181.584, 1.360664
1182.066, 1.588341
1182.548, 1.522430
1183.031, 1.289658
1183.513, 1.197784
1183.995, 1.383423
1184.477, 1.521057
1184.959, 1.619110
1185.441, 1.587585
1185.923, 1.339104
1186.405, 0.9217760
1186.888, 0.1833500
1187.370, 0.6860660
1187.852, 0.9889140
1188.334, 0.3043900
1188.816, 0.3250120
1189.298, 0.8162080
1189.780, 1.197784
1190.262, 1.462730
1190.745, 1.654228
1191.227, 1.897949
1191.709, 2.150101
1192.191, 2.148178
1192.673, 1.592171
1193.155, 1.246513
1193.637, 1.287712
1194.119, 1.351563
1194.601, 0.7876510
1195.084, 6.3704997E-02
1195.566, 4.1168001E-02
1196.048, 0.7081600
1196.530, 1.200737
1197.012, 1.262535
1197.494, 1.329956
1197.976, 1.496925
1198.458, 1.668854
1198.941, 1.657715
1199.423, 1.582939
1199.905, 1.684074
1200.387, 1.979271
1200.869, 2.159447
1201.351, 2.024094
1201.833, 2.114861
1202.315, 2.733604
1202.797, 3.285934
1203.280, 2.482956
1203.762, 1.072151
1204.244, 0.3804020
1204.726, 0.5976490
1205.208, 0.8918910
1205.690, 1.236153
1206.172, 1.417641
1206.654, 1.313828
1207.136, 1.143112
1207.619, 1.335991
1208.101, 1.714203
1208.583, 1.997627
1209.065, 2.148613
1209.547, 2.070213
1210.029, 1.601593
1210.511, 1.270302
1210.993, 1.357109
1211.476, 1.527748
1211.958, 0.9928740
1212.440, 0.1547090
1212.922, 0.2635350
1213.404, 8.9980997E-02
1213.886, 0.4237980
1214.368, 1.544662
1214.850, 2.215202
1215.333, 1.831291
1215.815, 0.9975510
1216.297, 0.7995070
1216.779, 0.9651490
1217.261, 1.008583
1217.743, 0.8062130
1218.225, 0.5225220
1218.707, 8.3884999E-02
1219.189, 0.1913380
1219.672, 0.1637270
1220.154, 0.1256940
1220.636, 0.8453060
1221.118, 1.691597
1221.600, 2.093300
1222.082, 1.738556
1222.564, 1.443123
1223.046, 1.271576
1223.528, 1.198425
1224.011, 1.260941
1224.493, 1.368172
1224.975, 1.315231
1225.457, 1.438332
1225.939, 1.571350
1226.421, 1.608543
1226.903, 1.842857
1227.385, 1.959526
1227.868, 1.951355
1228.350, 1.989571
1228.832, 1.478073
1229.314, 1.906960
1229.796, 1.601143
1230.278, 1.494148
1230.760, 1.662827
1231.242, 1.284309
1231.724, 1.660713
1232.207, 2.102402
1232.689, 2.240929
1233.171, 2.155365
1233.653, 1.907333
1234.135, 1.610527
1234.617, 1.369873
1235.099, 1.238632
1235.581, 0.9850230
1236.063, 0.5614550
1236.546, 0.3677900
1237.028, 0.7902220
1237.510, 1.423409
1237.992, 2.076126
1238.474, 2.561478
1238.956, 2.455826
1239.438, 1.475891
1239.920, 1.278267
1240.403, 1.944778
1240.885, 2.371857
1241.367, 1.295189
1241.849, 0.2800060
1242.331, 1.139801
1242.813, 2.726891
1243.295, 3.245262
1243.777, 2.385445
1244.260, 2.083580
1244.742, 2.334442
1245.224, 2.463623
1245.706, 1.984711
1246.188, 1.504585
1246.670, 1.091293
1247.152, 0.8722460
1247.634, 1.108704
1248.116, 1.888405
1248.599, 1.695938
1249.081, 0.6037140
1249.563, 0.1648250
1250.045, 0.4161150
1250.527, 1.188538
1251.009, 1.677223
1251.491, 1.946503
1251.973, 2.044052
1252.455, 1.973221
1252.938, 1.816399
1253.420, 1.574356
1253.902, 1.248901
1254.384, 0.6714480
1254.866, 0.2302630
1255.348, 7.1640000E-02
1255.830, 0.1009750
1256.313, 0.2336350
1256.795, 0.4885410
1257.277, 1.126678
1257.759, 2.041779
1258.241, 2.652473
1258.723, 2.870781
1259.205, 2.622498
1259.687, 1.604172
1260.169, 0.6446990
1260.651, 0.5464550
1261.134, 1.049477
1261.616, 1.716209
1262.098, 2.381851
1262.580, 2.446556
1263.062, 0.7065580
1263.544, 4.1191000E-02
1264.026, 0.7581860
1264.508, 1.794746
1264.991, 1.888107
1265.473, 1.509132
1265.955, 1.626198
1266.437, 2.031761
1266.919, 2.150330
1267.401, 1.512108
1267.883, 1.173347
1268.365, 1.170197
1268.848, 1.389687
1269.330, 1.920380
1269.812, 2.485344
1270.294, 2.764130
1270.776, 2.797722
1271.258, 2.635635
1271.740, 2.154999
1272.222, 1.959503
1272.704, 2.079659
1273.187, 2.273262
1273.669, 2.514137
1274.151, 2.613647
1274.633, 2.286232
1275.115, 1.756470
1275.597, 1.383095
1276.079, 1.193329
1276.561, 1.009987
1277.043, 0.8803940
1277.526, 0.8191760
1278.008, 0.9737400
1278.490, 1.064224
1278.972, 0.7130740
1279.454, 0.3784710
1279.936, 0.6762470
1280.418, 1.558868
1280.900, 1.521133
1281.383, 0.7388990
1281.865, 0.3565370
1282.347, 1.478065
1282.829, 2.314400
1283.311, 1.954628
1283.793, 1.484795
1284.275, 1.984436
1284.757, 3.006767
1285.240, 2.272331
1285.722, 0.3868260
1286.204, 0.6418300
1286.686, 0.6213230
1287.168, 1.611954
1287.650, 2.017792
1288.132, 2.152496
1288.614, 2.118835
1289.096, 2.033722
1289.578, 2.219093
1290.061, 2.519920
1290.543, 2.594101
1291.025, 2.138054
1291.507, 2.069344
1291.989, 2.524284
1292.471, 2.701889
1292.953, 1.883965
1293.435, 0.8835450
1293.918, 0.7553480
1294.400, 1.037010
1294.882, 0.6637570
1295.364, 9.1263004E-02
1295.846, 0.2904970
1296.328, 1.283890
1296.810, 1.799896
1297.292, 0.8729480
1297.775, 8.1511997E-02
1298.257, 0.3529430
1298.739, 1.002174
1299.221, 0.6248860
1299.703, 0.9987950
1300.185, 1.337234
1300.667, 0.6961980
1301.149, 1.504379
1301.631, 1.073395
1302.114, 0.4472500
1302.596, 0.0000000E+00
##END=



