##NAMES=Gustavite
##RRUFFID=R100202
##IDEAL CHEMISTRY=Ag^1+^Pb^2+^Bi^3+^_3_S^2-^_6_
##LOCALITY=Level 390, Vein 14, Mina Herminia, Julcani District, Huancavelica, Peru
##OWNER=RRUFF
##SOURCE=William W Pinch
##DESCRIPTION=Elongated black metallic crystals frozen in white granular quartz and barite mixture
##STATUS=The identification of this mineral is confirmed by single-crystal X-ray diffraction and chemical analysis.
##URL=rruff.info/R100202
##MEASURED CHEMISTRY=Ag_1.03_Pb_0.91_Bi_1.72_Sb_1.32_(S_5.96_As_0.04_)_Î£=6.00_
172.0831, 0.0000000E+00
172.5652, 1.185493
173.0474, 1.752941
173.5295, 1.567783
174.0116, 0.7450490
174.4937, 0.1477320
174.9758, 2.0283001E-02
175.4579, 8.9821003E-02
175.9401, 0.7925000
176.4222, 1.596336
176.9043, 2.040333
177.3864, 1.453068
177.8685, 0.6078190
178.3506, 0.5513500
178.8328, 1.526394
179.3149, 2.211636
179.7970, 2.028934
180.2791, 1.470715
180.7612, 0.9123570
181.2433, 0.3084750
181.7255, 0.1546250
182.2076, 2.7969001E-02
182.6897, 1.406006
183.1718, 2.221588
183.6539, 1.766201
184.1360, 0.8246230
184.6181, 0.2236100
185.1003, 0.3770330
185.5824, 1.050587
186.0645, 1.362808
186.5466, 0.9589730
187.0287, 0.6169550
187.5108, 0.4711950
187.9930, 0.4426380
188.4751, 0.3659020
188.9572, 0.1472320
189.4393, 0.1324460
189.9214, 1.0570000E-03
190.4035, 1.382538
190.8857, 2.251083
191.3678, 1.824444
191.8499, 0.6919560
192.3320, 7.9758003E-02
192.8141, 0.1979640
193.2962, 1.343884
193.7784, 1.945011
194.2605, 1.638397
194.7426, 1.319233
195.2247, 1.254341
195.7068, 1.416462
196.1889, 1.750870
196.6711, 2.333401
197.1532, 3.006413
197.6353, 3.075386
198.1174, 1.841217
198.5995, 0.7043420
199.0816, 0.6064070
199.5638, 1.402008
200.0459, 2.107616
200.5280, 2.081074
201.0101, 1.553867
201.4922, 1.296486
201.9743, 1.560898
202.4565, 1.871620
202.9386, 1.704826
203.4207, 1.041061
203.9028, 0.5916140
204.3849, 0.9509470
204.8670, 1.703983
205.3492, 2.248501
205.8313, 2.398525
206.3134, 2.404499
206.7955, 2.596241
207.2776, 3.026161
207.7597, 3.397282
208.2419, 3.502129
208.7240, 3.505154
209.2061, 3.542091
209.6882, 3.639545
210.1703, 3.822491
210.6524, 4.203465
211.1346, 4.949421
211.6167, 5.443321
212.0988, 5.393932
212.5809, 5.071205
213.0630, 4.641682
213.5451, 4.127415
214.0273, 3.710300
214.5094, 3.894810
214.9915, 5.215431
215.4736, 6.119030
215.9557, 6.056511
216.4378, 5.664421
216.9200, 5.480568
217.4021, 5.850151
217.8842, 6.521534
218.3663, 6.753376
218.8484, 6.126492
219.3305, 5.652794
219.8127, 5.622326
220.2948, 5.737766
220.7769, 5.655224
221.2590, 5.225094
221.7411, 4.565987
222.2232, 4.030022
222.7054, 3.370052
223.1875, 3.215275
223.6696, 4.118820
224.1517, 5.356865
224.6338, 6.051682
225.1159, 5.906761
225.5980, 5.061703
226.0802, 4.556561
226.5623, 5.067482
227.0444, 5.229362
227.5265, 4.400532
228.0086, 3.276329
228.4907, 2.860523
228.9729, 3.598892
229.4550, 4.975674
229.9371, 5.655197
230.4192, 5.226482
230.9013, 4.752247
231.3834, 4.406742
231.8656, 4.102818
232.3477, 3.652592
232.8298, 2.952705
233.3119, 2.223221
233.7940, 1.972416
234.2761, 2.314640
234.7583, 2.681286
235.2404, 3.072495
235.7225, 3.386803
236.2046, 3.383617
236.6867, 2.901230
237.1688, 2.247345
237.6510, 1.931332
238.1331, 1.902744
238.6152, 2.090828
239.0973, 2.622463
239.5794, 3.330284
240.0615, 3.884705
240.5437, 4.164063
241.0258, 4.304729
241.5079, 4.519897
241.9900, 4.811810
242.4721, 4.982922
242.9542, 4.864918
243.4364, 4.569695
243.9185, 4.330090
244.4006, 4.101990
244.8827, 4.123482
245.3648, 4.924484
245.8469, 6.368217
246.3290, 7.283192
246.8112, 6.666603
247.2933, 5.035244
247.7754, 4.044514
248.2575, 4.182968
248.7396, 4.512859
249.2217, 4.190178
249.7039, 3.406574
250.1860, 2.819988
250.6681, 3.052448
251.1502, 3.820099
251.6323, 4.014381
252.1144, 3.295383
252.5966, 2.462738
253.0787, 1.911289
253.5608, 1.611469
254.0429, 1.511265
254.5250, 1.746403
255.0071, 2.169125
255.4893, 2.142628
255.9714, 1.316891
256.4535, 0.6006010
256.9356, 0.4374660
257.4177, 0.6319580
257.8998, 0.8844300
258.3820, 1.092724
258.8641, 1.215508
259.3462, 1.031654
259.8283, 0.1532520
260.3104, 0.3671910
260.7925, 7.5741000E-02
261.2747, 0.9417570
261.7568, 1.496052
262.2389, 1.336784
262.7210, 0.7239990
263.2031, 0.4331780
263.6852, 0.7236940
264.1674, 0.9022520
264.6495, 0.6043890
265.1316, 0.2078290
265.6137, 0.1202350
266.0958, 0.5206790
266.5779, 1.272305
267.0601, 2.130415
267.5422, 3.454975
268.0243, 4.192345
268.5064, 4.041191
268.9885, 3.429054
269.4706, 2.573578
269.9528, 1.573969
270.4349, 0.6913800
270.9170, 0.5116270
271.3991, 1.635298
271.8812, 2.282093
272.3633, 2.059101
272.8455, 1.567863
273.3276, 1.217659
273.8097, 1.125725
274.2918, 1.203600
274.7739, 1.356722
275.2560, 1.764656
275.7382, 1.843679
276.2202, 1.449827
276.7024, 0.9076880
277.1845, 0.2147370
277.6666, 0.5157700
278.1487, 0.8948570
278.6308, 0.3219620
279.1129, 1.744242
279.5951, 2.873859
280.0772, 2.622641
280.5593, 1.974939
281.0414, 1.144905
281.5235, 0.3489930
282.0056, 3.2784998E-02
282.4878, 0.4628300
282.9699, 2.058802
283.4520, 2.903959
283.9341, 2.433289
284.4162, 1.883551
284.8983, 1.735430
285.3805, 1.935318
285.8626, 2.225815
286.3447, 2.434408
286.8268, 2.558294
287.3089, 2.410713
287.7910, 1.548710
288.2732, 0.9102590
288.7553, 0.9922660
289.2374, 1.486685
289.7195, 1.768089
290.2016, 1.436735
290.6837, 0.6396370
291.1659, 0.1702120
291.6480, 0.3911610
292.1301, 0.5084610
292.6122, 0.3201600
293.0943, 2.4540000E-02
293.5764, 0.3664740
294.0586, 0.6423650
294.5407, 0.7716810
295.0228, 0.5337070
295.5049, 0.3892120
295.9870, 1.316641
296.4691, 2.606529
296.9513, 3.725794
297.4334, 3.921389
297.9155, 2.980476
298.3976, 1.585979
298.8797, 0.8907890
299.3618, 1.426960
299.8440, 1.719978
300.3261, 1.344650
300.8082, 0.9935530
301.2903, 1.384947
301.7724, 2.586256
302.2545, 3.931141
302.7367, 4.634491
303.2188, 4.495625
303.7009, 4.395041
304.1830, 4.518028
304.6651, 4.528049
305.1472, 4.048985
305.6294, 3.176414
306.1115, 2.455669
306.5936, 2.405273
307.0757, 3.080111
307.5578, 3.339449
308.0399, 2.841434
308.5221, 2.345207
309.0042, 2.161207
309.4863, 2.249832
309.9684, 2.474760
310.4505, 2.768272
310.9326, 3.106319
311.4148, 3.333803
311.8969, 3.507771
312.3790, 3.531313
312.8611, 3.155966
313.3432, 2.654047
313.8253, 2.563480
314.3075, 3.166834
314.7896, 4.063086
315.2717, 4.193438
315.7538, 2.607416
316.2359, 1.626770
316.7180, 1.850197
317.2001, 2.584665
317.6823, 3.139822
318.1644, 3.287464
318.6465, 3.159719
319.1286, 2.811102
319.6107, 1.976707
320.0928, 1.594440
320.5750, 1.944658
321.0571, 2.533714
321.5392, 3.136194
322.0213, 3.653788
322.5034, 3.896658
322.9855, 3.648376
323.4677, 2.830833
323.9498, 2.011065
324.4319, 0.7483730
324.9140, 0.1210650
325.3961, 3.1387001E-02
325.8782, 0.8409900
326.3604, 1.978882
326.8425, 3.107399
327.3246, 4.164078
327.8067, 4.412951
328.2888, 3.194746
328.7709, 2.041285
329.2531, 1.188755
329.7352, 0.6916560
330.2173, 0.7235320
330.6994, 1.359348
331.1815, 2.305494
331.6636, 2.729954
332.1458, 2.030016
332.6279, 1.534842
333.1100, 1.322641
333.5921, 1.308273
334.0742, 1.536551
334.5563, 1.984386
335.0385, 2.353098
335.5206, 2.144073
336.0027, 1.043116
336.4848, 0.2638610
336.9669, 0.2880940
337.4490, 0.5257660
337.9312, 0.3494700
338.4133, 0.2358630
338.8954, 1.187981
339.3775, 2.592829
339.8596, 4.575802
340.3417, 5.370104
340.8239, 3.913715
341.3060, 2.528036
341.7881, 2.101782
342.2702, 2.373903
342.7523, 2.722017
343.2344, 2.773388
343.7166, 2.569668
344.1987, 2.314093
344.6808, 1.595591
345.1629, 1.320755
345.6450, 2.115547
346.1271, 3.174040
346.6093, 3.524900
347.0914, 2.830462
347.5735, 1.606466
348.0556, 0.8039000
348.5377, 0.4521810
349.0198, 0.6352920
349.5020, 1.703325
349.9841, 2.793959
350.4662, 3.224546
350.9483, 2.954679
351.4304, 2.443201
351.9125, 2.197639
352.3947, 2.278904
352.8768, 2.316158
353.3589, 2.153872
353.8410, 2.118519
354.3231, 2.528120
354.8052, 3.158689
355.2874, 3.519676
355.7695, 3.230289
356.2516, 2.443232
356.7337, 2.044138
357.2158, 2.364584
357.6979, 2.658216
358.1800, 2.677681
358.6621, 2.643696
359.1443, 2.932327
359.6264, 3.684303
360.1085, 4.438261
360.5906, 4.226128
361.0727, 2.447701
361.5548, 1.279446
362.0370, 1.384262
362.5191, 1.786482
363.0012, 1.937389
363.4833, 1.770296
363.9654, 1.504507
364.4475, 1.316383
364.9297, 1.200972
365.4118, 1.265026
365.8939, 1.842346
366.3760, 2.224913
366.8581, 1.888062
367.3402, 1.161961
367.8224, 0.7555790
368.3045, 1.208279
368.7866, 2.163490
369.2687, 2.529675
369.7508, 2.059694
370.2329, 1.530703
370.7151, 1.128143
371.1972, 0.8367790
371.6793, 0.6364080
372.1614, 0.5209920
372.6435, 0.5234600
373.1256, 0.7115630
373.6078, 1.097282
374.0899, 1.528898
374.5720, 2.188913
375.0541, 2.681534
375.5362, 2.587955
376.0183, 1.970018
376.5005, 1.440626
376.9826, 1.591457
377.4647, 2.185881
377.9468, 2.251150
378.4289, 1.516983
378.9110, 0.7533210
379.3932, 0.4483260
379.8753, 0.4826260
380.3574, 0.6726440
380.8395, 1.058170
381.3216, 1.490501
381.8037, 1.763481
382.2859, 1.869398
382.7680, 1.998640
383.2501, 2.380178
383.7322, 2.774500
384.2143, 2.795071
384.6964, 2.354721
385.1786, 1.806181
385.6607, 1.284370
386.1428, 0.8095490
386.6249, 0.3780960
387.1070, 7.8606002E-02
387.5891, 0.2999060
388.0713, 0.3493290
388.5534, 1.773207
389.0355, 2.532568
389.5176, 1.663403
389.9997, 0.4137940
390.4818, 9.8950997E-02
390.9640, 0.7499520
391.4461, 1.543545
391.9282, 1.985518
392.4103, 2.091858
392.8924, 2.050779
393.3745, 1.832422
393.8567, 1.509630
394.3388, 1.001329
394.8209, 0.4032920
395.3030, 5.5498000E-02
395.7851, 0.2704030
396.2672, 0.2730430
396.7494, 0.1536270
397.2315, 0.1384330
397.7136, 0.4281010
398.1957, 0.7627140
398.6778, 1.060432
399.1599, 1.186384
399.6420, 1.162031
400.1241, 1.219458
400.6063, 1.603809
401.0884, 2.336988
401.5705, 2.716904
402.0526, 2.621256
402.5347, 2.366444
403.0168, 1.827435
403.4990, 1.240864
403.9811, 1.082407
404.4632, 1.590185
404.9453, 2.325672
405.4274, 2.124355
405.9095, 0.3152310
406.3917, 1.448149
406.8738, 0.1893980
407.3559, 1.564110
407.8380, 2.510771
408.3201, 2.503139
408.8022, 2.099262
409.2844, 1.835306
409.7665, 1.740664
410.2486, 1.717739
410.7307, 1.770933
411.2128, 1.786554
411.6949, 1.765734
412.1771, 1.739302
412.6592, 1.783043
413.1413, 1.958693
413.6234, 2.141161
414.1055, 2.001406
414.5876, 1.371912
415.0698, 0.9304240
415.5519, 0.9469320
416.0340, 1.136724
416.5161, 1.389334
416.9982, 1.671061
417.4803, 1.845516
417.9625, 1.712965
418.4446, 1.333494
418.9267, 1.127388
419.4088, 1.178083
419.8909, 1.313477
420.3730, 1.499514
420.8552, 1.676399
421.3373, 1.711029
421.8194, 1.498854
422.3015, 1.188375
422.7836, 0.8544250
423.2657, 0.5030310
423.7479, 0.5102210
424.2300, 1.270468
424.7121, 2.251728
425.1942, 2.603455
425.6763, 2.224895
426.1584, 1.767517
426.6406, 1.459734
427.1227, 1.263865
427.6048, 1.140703
428.0869, 1.087751
428.5690, 1.032373
429.0511, 0.8643040
429.5333, 0.5977480
430.0154, 0.5703850
430.4975, 0.9717240
430.9796, 1.437157
431.4617, 1.841352
431.9438, 2.148003
432.4260, 2.296507
432.9081, 2.259663
433.3902, 2.037771
433.8723, 1.600672
434.3544, 0.4579640
434.8365, 5.8318999E-02
435.3187, 0.7519440
435.8008, 1.768507
436.2829, 1.863792
436.7650, 1.049767
437.2471, 0.3472210
437.7292, 0.7836890
438.2114, 2.404989
438.6935, 3.428097
439.1756, 3.466194
439.6577, 3.350485
440.1398, 3.171286
440.6219, 2.917891
441.1040, 2.519779
441.5862, 1.943707
442.0683, 1.372320
442.5504, 1.185232
443.0325, 1.534210
443.5146, 1.783604
443.9967, 1.666637
444.4789, 1.616491
444.9610, 2.042482
445.4431, 2.780510
445.9252, 3.261032
446.4073, 2.904285
446.8894, 1.944542
447.3716, 1.303453
447.8537, 1.067608
448.3358, 0.9284710
448.8179, 0.7835520
449.3000, 0.6518590
449.7821, 0.5289400
450.2643, 0.3908410
450.7464, 0.3733120
451.2285, 0.7021680
451.7106, 1.290800
452.1927, 1.669468
452.6748, 1.676125
453.1570, 1.587078
453.6391, 1.793007
454.1212, 2.205524
454.6033, 2.283522
455.0854, 1.584473
455.5675, 0.7255210
456.0497, 0.1863330
456.5318, 2.2211000E-02
457.0139, 8.2666002E-02
457.4960, 0.5788190
457.9781, 1.325348
458.4602, 1.883556
458.9424, 2.344204
459.4245, 2.434975
459.9066, 1.786482
460.3887, 0.9196680
460.8708, 0.2987270
461.3529, 2.3008000E-02
461.8351, 9.2886001E-02
462.3172, 0.5797770
462.7993, 1.508551
463.2814, 1.998243
463.7635, 1.868078
464.2456, 1.449434
464.7278, 0.7222210
465.2099, 7.1392000E-02
465.6920, 0.4921190
466.1741, 0.3762510
466.6562, 2.2085000E-02
467.1383, 1.1520000E-03
467.6205, 0.5659310
468.1026, 0.6486260
468.5847, 0.4340740
469.0668, 1.428896
469.5489, 1.630880
470.0310, 1.253063
470.5132, 0.9625630
470.9953, 1.186579
471.4774, 1.753399
471.9595, 2.302145
472.4416, 2.917948
472.9237, 3.188194
473.4059, 2.576736
473.8880, 1.781309
474.3701, 1.518425
474.8522, 1.888060
475.3343, 2.176697
475.8164, 1.783144
476.2986, 0.9800430
476.7807, 0.3868240
477.2628, 5.3475998E-02
477.7449, 5.4306000E-02
478.2270, 0.6418420
478.7091, 1.639067
479.1913, 2.281570
479.6734, 2.453478
480.1555, 2.350008
480.6376, 1.843809
481.1197, 1.155758
481.6018, 0.7822820
482.0839, 0.8935830
482.5660, 1.236855
483.0482, 1.477997
483.5303, 1.596695
484.0124, 1.664631
484.4945, 1.574286
484.9766, 1.538050
485.4587, 1.698877
485.9409, 2.007650
486.4230, 2.368687
486.9051, 2.743019
487.3872, 3.046820
487.8693, 3.020582
488.3514, 2.467863
488.8336, 1.945358
489.3157, 1.346439
489.7978, 0.9002740
490.2799, 0.8512760
490.7620, 1.141056
491.2441, 1.451141
491.7263, 1.506414
492.2084, 1.371216
492.6905, 1.367037
493.1726, 1.545834
493.6547, 1.768234
494.1368, 2.198750
494.6190, 2.536327
495.1011, 2.384117
495.5832, 1.628721
496.0653, 0.7871650
496.5474, 7.2192997E-02
497.0295, 0.4230650
497.5117, 0.2284370
497.9938, 0.9162290
498.4759, 1.936411
498.9580, 1.752436
499.4401, 0.6227740
499.9222, 1.1175000E-02
500.4044, 0.3384880
500.8865, 0.8550910
501.3686, 1.341520
501.8507, 1.717220
502.3328, 1.727978
502.8149, 1.270517
503.2971, 0.7546940
503.7792, 0.7785380
504.2613, 1.528896
504.7434, 2.181768
505.2255, 2.915958
505.7076, 3.390974
506.1898, 3.248705
506.6719, 2.743397
507.1540, 2.401545
507.6361, 2.504923
508.1182, 2.860815
508.6003, 3.056719
509.0825, 3.131649
509.5646, 2.942917
510.0467, 2.036528
510.5288, 1.242638
511.0109, 1.180803
511.4930, 1.682455
511.9752, 2.039387
512.4573, 1.731722
512.9394, 1.033447
513.4215, 0.5999790
513.9036, 0.4730590
514.3857, 0.3069520
514.8679, 0.2031650
515.3500, 0.6733570
515.8321, 0.5540330
516.3142, 0.2356340
516.7963, 0.9535520
517.2784, 0.2347030
517.7606, 1.631559
518.2427, 2.420513
518.7248, 2.631826
519.2069, 0.5439850
519.6890, 1.423233
520.1711, 1.115778
520.6533, 0.7608830
521.1354, 2.061028
521.6175, 0.3117410
522.0996, 1.585466
522.5817, 1.651987
523.0638, 2.263878
523.5460, 1.653728
524.0281, 1.420101
524.5102, 2.405159
524.9923, 2.734896
525.4744, 2.012981
525.9565, 2.656445
526.4387, 0.8644660
526.9208, 1.218109
527.4029, 2.499187
527.8850, 1.856039
528.3671, 2.534735
528.8492, 2.702551
529.3314, 0.5674460
529.8135, 2.437389
530.2956, 2.614904
530.7777, 1.002617
531.2598, 2.734587
531.7419, 1.338520
532.2241, 1.058798
532.7062, 1.619177
533.1883, 1.303518
533.6704, 2.368687
534.1525, 2.103346
534.6346, 1.717371
535.1168, 1.848597
535.5989, 1.501326
536.0810, 1.900290
536.5631, 1.428478
537.0452, 1.882469
537.5273, 2.546196
538.0095, 1.602793
538.4916, 2.365948
538.9737, 0.5249980
539.4558, 0.8542460
539.9379, 0.9431760
540.4200, 2.442995
540.9022, 0.5746630
541.3843, 0.8395670
541.8664, 2.012751
542.3485, 1.914927
542.8306, 2.348244
543.3127, 1.208241
543.7948, 1.545998
544.2769, 1.476259
544.7590, 2.814074
545.2411, 3.040455
545.7233, 1.926485
546.2054, 0.8180660
546.6875, 2.256668
547.1696, 1.280922
547.6517, 1.607473
548.1339, 0.5887470
548.6160, 0.7313180
549.0981, 0.8553350
549.5802, 1.574600
550.0623, 1.454357
550.5444, 1.743902
551.0266, 1.645769
551.5087, 1.946218
551.9908, 2.202177
552.4729, 2.363354
552.9550, 2.090820
553.4371, 2.628721
553.9193, 1.438160
554.4014, 0.9004230
554.8835, 0.8030400
555.3656, 2.917856
555.8477, 3.003864
556.3298, 0.6453480
556.8120, 2.679119
557.2941, 2.009951
557.7762, 2.141045
558.2583, 1.980488
558.7404, 1.908205
559.2225, 2.017155
559.7047, 1.012274
560.1868, 2.482424
560.6689, 1.927067
561.1510, 2.740891
561.6331, 1.059023
562.1152, 0.8583320
562.5974, 1.050720
563.0795, 1.386370
563.5616, 0.5966780
564.0437, 0.9363980
564.5258, 0.8728690
565.0079, 0.7427580
565.4901, 0.8107530
565.9722, 0.6399350
566.4543, 0.3222030
566.9364, 1.846745
567.4185, 0.5043010
567.9006, 1.863848
568.3828, 2.364388
568.8649, 1.721132
569.3470, 1.678644
569.8291, 0.4443070
570.3112, 1.020655
570.7933, 0.9807550
571.2755, 1.962168
571.7576, 0.7290730
572.2397, 2.037710
572.7218, 0.8497520
573.2039, 2.218418
573.6860, 0.9556370
574.1682, 2.078247
574.6503, 0.3969540
575.1324, 0.7469440
575.6145, 1.232721
576.0966, 1.040972
576.5787, 1.152987
577.0609, 1.253454
577.5430, 1.113274
578.0251, 0.8417970
578.5072, 0.7030430
578.9893, 0.7251890
579.4714, 0.8264690
579.9536, 1.140795
580.4357, 1.435556
580.9178, 1.376911
581.3999, 0.9591480
581.8820, 0.4385400
582.3641, 2.7313000E-02
582.8463, 0.3979400
583.3284, 0.4283070
583.8105, 0.3629280
584.2926, 0.7975750
584.7747, 0.3853230
585.2568, 9.9151999E-02
585.7390, 0.1082590
586.2211, 0.8911480
586.7032, 1.381157
587.1853, 0.6963810
587.6674, 0.5334780
588.1495, 0.3520200
588.6317, 1.544840
589.1138, 2.956291
589.5959, 3.005625
590.0780, 2.409580
590.5601, 1.902277
591.0422, 1.483564
591.5244, 1.378740
592.0065, 2.082298
592.4886, 2.796684
592.9707, 2.633694
593.4528, 1.819731
593.9349, 1.253288
594.4171, 1.356806
594.8992, 1.687815
595.3813, 1.408033
595.8634, 5.4733001E-02
596.3455, 0.5191040
596.8276, 0.2526070
597.3098, 1.092886
597.7919, 1.578077
598.2740, 1.733959
598.7561, 1.587667
599.2382, 1.138975
599.7203, 0.7296280
600.2025, 0.9934810
600.6846, 1.904684
601.1667, 2.406755
601.6488, 2.203695
602.1309, 1.965687
602.6130, 2.217054
603.0952, 2.752695
603.5773, 3.202541
604.0594, 3.687267
604.5415, 3.766733
605.0236, 2.826847
605.5057, 1.489401
605.9879, 0.7495570
606.4700, 0.7454990
606.9521, 0.9689200
607.4342, 1.014555
607.9163, 0.9126420
608.3984, 0.8915480
608.8806, 0.8920920
609.3627, 1.069622
609.8448, 1.707193
610.3269, 2.318901
610.8090, 2.429186
611.2911, 2.102770
611.7733, 1.832884
612.2554, 1.997894
612.7375, 2.416801
613.2196, 2.696465
613.7017, 2.837357
614.1838, 2.841070
614.6660, 2.694719
615.1481, 2.426849
615.6302, 2.030285
616.1123, 1.515123
616.5944, 1.040009
617.0765, 0.3441450
617.5587, 2.6055999E-02
618.0408, 0.6762120
618.5229, 1.940510
619.0050, 2.642565
619.4871, 2.392015
619.9692, 1.606581
620.4514, 0.7706530
620.9335, 0.1884960
621.4156, 0.6616670
621.8977, 0.2350030
622.3798, 0.2106130
622.8619, 0.4209790
623.3441, 0.5461250
623.8262, 0.8605160
624.3083, 1.413837
624.7904, 1.733381
625.2725, 1.139757
625.7546, 3.2969002E-02
626.2367, 0.4063630
626.7188, 6.7272000E-02
627.2009, 0.2944430
627.6830, 0.2409740
628.1652, 2.3700000E-04
628.6473, 9.9326998E-02
629.1294, 0.6024630
629.6115, 1.158594
630.0936, 2.072508
630.5757, 2.723227
631.0579, 2.464823
631.5400, 1.558672
632.0221, 0.6988680
632.5042, 0.2285180
632.9863, 0.1318090
633.4684, 0.5000550
633.9506, 1.472673
634.4327, 2.079851
634.9148, 2.080763
635.3969, 1.938639
635.8790, 1.859171
636.3611, 1.812113
636.8433, 1.726843
637.3254, 1.550793
637.8075, 1.449043
638.2896, 1.645739
638.7717, 1.971424
639.2538, 2.117678
639.7360, 2.037663
640.2181, 1.731071
640.7002, 1.091267
641.1823, 0.3121130
641.6644, 0.1351530
642.1465, 1.307377
642.6287, 2.023264
643.1108, 2.000179
643.5929, 1.699228
644.0750, 1.155041
644.5571, 0.6188390
645.0392, 0.7629050
645.5214, 2.110710
646.0035, 3.695206
646.4856, 3.438709
646.9677, 1.323784
647.4498, 0.2618500
647.9319, 1.163162
648.4141, 2.372923
648.8962, 2.427460
649.3783, 1.651541
649.8604, 1.273945
650.3425, 1.650578
650.8246, 2.081608
651.3068, 2.425005
651.7889, 2.602465
652.2710, 2.393347
652.7531, 1.850855
653.2352, 1.405132
653.7173, 1.417566
654.1995, 1.709831
654.6816, 1.703209
655.1637, 1.197371
655.6458, 0.7515010
656.1279, 0.2002510
656.6100, 8.7869996E-03
657.0922, 0.6515310
657.5743, 1.874943
658.0564, 2.711061
658.5385, 2.563448
659.0206, 2.197021
659.5027, 2.432617
659.9849, 3.034634
660.4670, 3.310146
660.9491, 3.094290
661.4312, 2.696836
661.9133, 2.363991
662.3954, 2.100475
662.8776, 1.978928
663.3597, 2.253393
663.8418, 2.335367
664.3239, 1.945374
664.8060, 1.509289
665.2881, 1.369658
665.7703, 1.525904
666.2524, 1.811466
666.7345, 2.216345
667.2166, 2.546471
667.6987, 2.291542
668.1808, 1.475828
668.6630, 1.070766
669.1451, 1.445021
669.6272, 1.948183
670.1093, 1.886433
670.5914, 1.323063
671.0735, 1.094860
671.5557, 1.460035
672.0378, 1.860573
672.5199, 2.275591
673.0020, 2.540588
673.4841, 2.291332
673.9662, 1.625118
674.4484, 1.234806
674.9305, 1.765602
675.4126, 2.786663
675.8947, 2.716402
676.3768, 1.182566
676.8589, 0.3563040
677.3411, 1.112518
677.8232, 2.179163
678.3053, 2.459269
678.7874, 2.133898
679.2695, 1.934155
679.7516, 2.410522
680.2338, 2.690823
680.7159, 1.888197
681.1980, 0.6981090
681.6801, 0.2200930
682.1622, 0.6170220
682.6443, 1.194471
683.1265, 1.400703
683.6086, 1.289305
684.0907, 1.119221
684.5728, 0.8707940
685.0549, 0.7826960
685.5370, 1.034130
686.0192, 1.262974
686.5013, 1.276464
686.9834, 1.107029
687.4655, 0.8462960
687.9476, 0.4161740
688.4297, 0.1145100
688.9119, 0.4140340
689.3940, 1.011158
689.8761, 1.045542
690.3582, 0.3861450
690.8403, 5.8485001E-02
691.3224, 0.5225910
691.8046, 1.809883
692.2867, 2.274271
692.7688, 0.9109950
693.2509, 0.3927970
693.7330, 1.757206
694.2151, 3.027044
694.6973, 2.733135
695.1794, 1.418976
695.6615, 0.5225070
696.1436, 0.7102910
696.6257, 1.336676
697.1078, 1.935257
697.5900, 2.394537
698.0721, 2.191545
698.5542, 1.208775
699.0363, 0.2183110
699.5184, 0.3026620
700.0005, 0.4014910
700.4827, 0.2510590
700.9648, 0.3828660
701.4469, 0.8859920
701.9290, 1.182413
702.4111, 1.410324
702.8932, 1.747509
703.3754, 2.061827
703.8575, 2.022257
704.3396, 1.470772
704.8217, 0.8325100
705.3038, 0.6260470
705.7859, 0.7850890
706.2681, 0.9987350
706.7502, 1.257666
707.2323, 1.505085
707.7144, 1.763988
708.1965, 1.965006
708.6786, 1.908922
709.1607, 1.442139
709.6428, 1.182310
710.1249, 1.267813
710.6071, 1.472012
711.0892, 1.881113
711.5713, 2.257648
712.0534, 2.142286
712.5355, 1.407137
713.0176, 0.5195810
713.4998, 9.7512998E-02
713.9819, 0.4350260
714.4640, 0.3468910
714.9461, 0.2753870
715.4282, 0.7393990
715.9103, 0.6695960
716.3925, 0.3876720
716.8746, 0.3862710
717.3567, 0.6859470
717.8388, 1.027742
718.3209, 1.543701
718.8030, 1.929081
719.2852, 1.934774
719.7673, 1.769840
720.2494, 1.778980
720.7315, 2.005205
721.2136, 2.122549
721.6957, 1.758926
722.1779, 1.083052
722.6600, 0.6771050
723.1421, 0.5430300
723.6242, 0.6840920
724.1063, 1.270144
724.5884, 1.863239
725.0706, 1.846527
725.5527, 1.294847
726.0348, 1.223539
726.5169, 2.354734
726.9990, 3.150719
727.4811, 2.725037
727.9633, 1.941292
728.4454, 1.756205
728.9275, 2.202829
729.4096, 2.754459
729.8917, 3.095760
730.3738, 3.159094
730.8560, 2.652796
731.3381, 1.550779
731.8202, 0.9189430
732.3023, 1.123592
732.7844, 1.322155
733.2665, 0.6073210
733.7487, 0.5853210
734.2308, 0.5978360
734.7129, 1.457077
735.1950, 3.001402
735.6771, 3.410711
736.1592, 3.218435
736.6414, 2.610640
737.1235, 1.778540
737.6056, 0.9362680
738.0877, 0.1646120
738.5698, 0.2996670
739.0519, 9.9996999E-02
739.5341, 1.220991
740.0162, 1.751837
740.4983, 1.546078
740.9804, 1.093037
741.4625, 0.4730000
741.9446, 0.1194230
742.4268, 0.2953130
742.9089, 2.6680001E-03
743.3910, 0.3720020
743.8731, 0.9652080
744.3552, 1.453020
744.8373, 1.751848
745.3195, 1.815495
745.8016, 1.439135
746.2837, 0.6591610
746.7658, 3.8791999E-02
747.2479, 0.1537650
747.7300, 0.7475810
748.2122, 1.218153
748.6943, 1.556681
749.1764, 1.463636
749.6585, 0.6992300
750.1406, 0.1877310
750.6227, 0.7031520
751.1049, 0.8404100
751.5870, 0.6457670
752.0691, 2.9034000E-02
752.5512, 0.7660080
753.0333, 2.126617
753.5154, 3.315748
753.9976, 3.628229
754.4797, 3.198502
754.9618, 2.619307
755.4439, 2.150257
755.9260, 1.802349
756.4081, 1.580050
756.8903, 1.486814
757.3724, 1.601383
757.8545, 1.977156
758.3366, 2.228254
758.8187, 2.075716
759.3008, 1.691990
759.7830, 1.573963
760.2651, 1.902021
760.7472, 2.078575
761.2293, 1.988911
761.7114, 1.886532
762.1935, 2.026079
762.6757, 2.144686
763.1578, 1.679226
763.6399, 0.5516530
764.1220, 0.1650580
764.6041, 0.7925990
765.0862, 2.341219
765.5684, 2.774378
766.0505, 2.258842
766.5326, 1.728785
767.0147, 1.482658
767.4968, 1.279593
767.9789, 0.8135110
768.4611, 0.1086790
768.9432, 0.1699500
769.4253, 0.2946000
769.9074, 0.6433730
770.3895, 0.5599990
770.8716, 0.4870570
771.3538, 0.8328270
771.8359, 1.427292
772.3180, 1.723228
772.8001, 1.460236
773.2822, 1.064852
773.7643, 0.6836170
774.2465, 0.4447940
774.7286, 0.6120800
775.2107, 1.141968
775.6928, 1.782278
776.1749, 2.420853
776.6570, 2.854990
777.1392, 2.570171
777.6213, 1.408829
778.1034, 0.6651630
778.5855, 0.4068930
779.0676, 0.4618210
779.5497, 0.9327280
780.0319, 1.578474
780.5140, 2.185812
780.9961, 2.777781
781.4782, 2.922840
781.9603, 2.058964
782.4424, 1.209307
782.9246, 1.108629
783.4067, 1.333294
783.8888, 1.160036
784.3709, 0.5181980
784.8530, 4.8070000E-03
785.3351, 0.1247020
785.8173, 0.5919700
786.2994, 0.4433250
786.7815, 0.3232800
787.2636, 0.3041900
787.7457, 0.9970820
788.2278, 2.311325
788.7100, 2.608204
789.1921, 2.165241
789.6742, 2.096195
790.1563, 2.926735
790.6384, 3.148884
791.1205, 2.163086
791.6026, 1.035515
792.0847, 0.3204750
792.5668, 1.5369999E-03
793.0490, 0.2033390
793.5311, 0.3568190
794.0132, 0.1109830
794.4953, 1.221397
794.9774, 2.948370
795.4595, 3.854530
795.9417, 3.988653
796.4238, 3.688513
796.9059, 3.091248
797.3880, 2.439581
797.8701, 2.028191
798.3522, 1.837070
798.8344, 1.567760
799.3165, 1.118998
799.7986, 0.7746580
800.2807, 0.4304560
800.7628, 0.3724060
801.2449, 0.9237210
801.7271, 1.870968
802.2092, 2.654192
802.6913, 3.134113
803.1734, 3.460184
803.6555, 3.774521
804.1376, 3.920494
804.6198, 3.637554
805.1019, 3.037102
805.5840, 2.356707
806.0661, 1.713011
806.5482, 1.343775
807.0303, 1.775261
807.5125, 2.866064
807.9946, 3.110455
808.4767, 2.299206
808.9588, 1.765720
809.4409, 2.107967
809.9230, 2.709747
810.4052, 2.829380
810.8873, 2.458855
811.3694, 2.118948
811.8515, 1.648329
812.3336, 1.426605
812.8157, 1.707317
813.2979, 2.117373
813.7800, 2.480896
814.2621, 2.704521
814.7442, 2.632990
815.2263, 2.173630
815.7084, 1.554232
816.1906, 0.5929760
816.6727, 0.2258430
817.1548, 0.5668140
817.6369, 2.753632
818.1190, 4.050291
818.6011, 3.382811
819.0833, 2.001183
819.5654, 1.760815
820.0475, 2.721882
820.5296, 3.054688
821.0117, 2.417965
821.4938, 1.854696
821.9760, 1.664442
822.4581, 1.624130
822.9402, 1.548252
823.4223, 1.449139
823.9044, 1.394150
824.3865, 1.357771
824.8687, 1.424643
825.3508, 1.645658
825.8329, 1.971668
826.3150, 2.502163
826.7971, 3.080019
827.2792, 3.260609
827.7614, 2.832281
828.2435, 2.372746
828.7256, 2.811136
829.2077, 3.813267
829.6898, 4.048582
830.1719, 3.483521
830.6541, 2.623718
831.1362, 1.504879
831.6183, 0.7609100
832.1004, 1.340879
832.5825, 3.210110
833.0646, 3.931852
833.5468, 2.464821
834.0289, 1.457747
834.5110, 1.295826
834.9931, 1.593700
835.4752, 2.448744
835.9573, 3.532269
836.4395, 4.061573
836.9216, 3.701511
837.4037, 3.238468
837.8858, 2.920158
838.3679, 2.832296
838.8500, 3.253220
839.3322, 3.957472
839.8143, 4.402405
840.2964, 4.401287
840.7785, 4.159084
841.2606, 3.898481
841.7427, 3.581079
842.2249, 2.908165
842.7070, 1.846418
843.1891, 1.397173
843.6712, 1.991076
844.1533, 2.614429
844.6354, 2.233118
845.1176, 2.802057
845.5997, 3.345097
846.0818, 3.124218
846.5639, 4.322630
847.0460, 4.358616
847.5281, 3.983088
848.0103, 3.160666
848.4924, 2.321180
848.9745, 2.211163
849.4566, 2.975132
849.9387, 3.479174
850.4208, 2.848900
850.9030, 1.960693
851.3851, 1.374496
851.8672, 1.210133
852.3493, 1.885647
852.8314, 3.301123
853.3135, 4.489916
853.7957, 4.688839
854.2778, 4.253075
854.7599, 4.000792
855.2420, 3.921690
855.7241, 3.361521
856.2062, 2.067129
856.6884, 1.244549
857.1705, 1.685268
857.6526, 2.810986
858.1347, 3.590076
858.6168, 3.972712
859.0989, 4.217619
859.5811, 4.418968
860.0632, 4.418108
860.5453, 3.862652
861.0274, 3.183628
861.5095, 2.632748
861.9916, 2.294718
862.4738, 2.245653
862.9559, 2.562569
863.4380, 2.878477
863.9201, 3.044029
864.4022, 2.972260
864.8843, 2.164555
865.3665, 1.014084
865.8486, 0.9065510
866.3307, 2.390682
866.8128, 4.119232
867.2949, 4.230989
867.7770, 3.186630
868.2592, 3.180912
868.7413, 4.245020
869.2234, 4.572178
869.7055, 3.527229
870.1876, 2.221050
870.6697, 1.498728
871.1519, 1.373371
871.6340, 1.797884
872.1161, 3.279736
872.5981, 4.335865
873.0803, 4.960539
873.5624, 5.104988
874.0445, 4.336832
874.5266, 3.154230
875.0087, 2.258242
875.4908, 1.738754
875.9730, 1.443520
876.4551, 1.229633
876.9372, 1.327074
877.4193, 2.312616
877.9014, 3.456299
878.3835, 3.674076
878.8657, 2.993086
879.3478, 2.258087
879.8299, 1.938583
880.3120, 1.917671
880.7941, 2.277283
881.2762, 2.872267
881.7584, 2.899340
882.2405, 2.335739
882.7226, 2.195515
883.2047, 3.016178
883.6868, 3.913765
884.1689, 3.614035
884.6511, 2.200140
885.1332, 1.516750
885.6153, 1.802904
886.0974, 2.172752
886.5795, 2.531050
887.0616, 2.826939
887.5438, 3.097012
888.0259, 3.269085
888.5080, 3.095852
888.9901, 2.343174
889.4722, 1.795275
889.9543, 1.757471
890.4365, 1.736668
890.9186, 1.301596
891.4007, 0.8170470
891.8828, 0.8462910
892.3649, 1.425367
892.8470, 2.054262
893.3292, 2.556721
893.8113, 2.857439
894.2934, 2.887690
894.7755, 2.675629
895.2576, 2.168179
895.7397, 1.442198
896.2219, 0.7720030
896.7040, 0.3012830
897.1861, 3.5073999E-02
897.6682, 3.1982001E-02
898.1503, 0.2614590
898.6324, 0.4798770
899.1146, 0.6838470
899.5967, 0.9301150
900.0788, 1.265079
900.5609, 1.531981
901.0430, 1.524466
901.5251, 1.324545
902.0073, 1.476492
902.4894, 2.317566
902.9715, 2.823437
903.4536, 2.717140
903.9357, 2.567629
904.4178, 2.821957
904.9000, 3.083117
905.3821, 2.592903
905.8642, 1.230940
906.3463, 0.5377900
906.8284, 1.658848
907.3105, 2.593985
907.7927, 2.140221
908.2748, 1.244080
908.7569, 0.8982410
909.2390, 1.071005
909.7211, 1.194099
910.2032, 0.9946650
910.6854, 0.8195380
911.1675, 1.044441
911.6496, 1.468224
912.1317, 1.887909
912.6138, 2.208193
913.0959, 2.076452
913.5781, 1.426582
914.0602, 0.8103160
914.5423, 0.7492370
915.0244, 1.097038
915.5065, 1.578779
915.9886, 2.200617
916.4708, 1.890593
916.9529, 0.2510800
917.4350, 0.7789590
917.9171, 0.1326220
918.3992, 1.744421
918.8813, 1.689550
919.3635, 0.4621200
919.8456, 0.8927800
920.3277, 1.973799
920.8098, 3.970627
921.2919, 3.641369
921.7740, 2.670818
922.2562, 2.074421
922.7383, 1.780247
923.2204, 1.522394
923.7025, 1.307076
924.1846, 1.031876
924.6667, 0.4211640
925.1489, 9.2890002E-03
925.6310, 0.4346490
926.1131, 1.091433
926.5952, 0.9592130
927.0773, 4.0112998E-02
927.5594, 0.5075170
928.0416, 0.1001380
928.5237, 1.087534
929.0058, 2.203701
929.4879, 3.000130
929.9700, 2.359377
930.4521, 0.6692750
930.9343, 0.4087140
931.4164, 0.1811450
931.8985, 0.6033020
932.3806, 1.223486
932.8627, 1.645611
933.3448, 1.647030
933.8270, 1.277916
934.3091, 1.146313
934.7912, 1.401583
935.2733, 1.612675
935.7554, 1.450708
936.2375, 1.107046
936.7197, 1.123184
937.2018, 1.720659
937.6839, 1.300468
938.1660, 0.8373570
938.6481, 2.188629
939.1302, 1.528725
939.6124, 0.2647530
940.0945, 8.4677003E-02
940.5766, 0.3357730
941.0587, 0.1769660
941.5408, 1.239534
942.0229, 2.205868
942.5051, 2.405926
942.9872, 2.299374
943.4693, 1.812746
943.9514, 1.293676
944.4335, 1.328604
944.9156, 1.951757
945.3978, 2.253580
945.8799, 1.413916
946.3620, 0.8010160
946.8441, 1.427149
947.3262, 2.387699
947.8083, 2.833513
948.2905, 2.770658
948.7726, 2.479137
949.2547, 2.058699
949.7368, 1.605255
950.2189, 0.8848190
950.7010, 0.4069100
951.1832, 1.324118
951.6653, 2.941818
952.1474, 3.449249
952.6295, 2.644840
953.1116, 1.665152
953.5938, 1.209915
954.0759, 1.160509
954.5580, 1.408781
955.0400, 1.899725
955.5222, 2.374990
956.0043, 2.823736
956.4864, 3.176044
956.9685, 3.425310
957.4506, 3.425596
957.9327, 3.012733
958.4149, 2.304026
958.8970, 1.471355
959.3791, 0.4078560
959.8612, 4.9713001E-02
960.3433, 0.3668820
960.8254, 0.8264620
961.3076, 0.9398990
961.7897, 0.9122100
962.2718, 1.014837
962.7539, 1.249912
963.2360, 1.489389
963.7181, 1.922613
964.2003, 2.062172
964.6824, 1.529156
965.1645, 1.054602
965.6466, 1.076864
966.1287, 1.393171
966.6108, 1.662083
967.0930, 1.850607
967.5751, 2.023779
968.0572, 2.036491
968.5393, 2.236942
969.0214, 3.152695
969.5035, 3.998020
969.9857, 3.935253
970.4678, 3.194670
970.9499, 2.457428
971.4320, 1.898233
971.9141, 1.661552
972.3962, 1.999453
972.8784, 2.533880
973.3605, 3.190737
973.8426, 3.689047
974.3247, 3.379749
974.8068, 2.420776
975.2889, 1.811131
975.7711, 2.308233
976.2532, 2.990993
976.7353, 2.866861
977.2174, 2.238665
977.6995, 1.519573
978.1816, 0.9541550
978.6638, 1.081942
979.1459, 1.970009
979.6280, 2.643711
980.1101, 2.261272
980.5922, 1.355852
981.0743, 1.032349
981.5565, 1.198624
982.0386, 1.283134
982.5207, 1.248308
983.0028, 1.285084
983.4849, 1.490570
983.9670, 1.759218
984.4492, 2.003424
984.9313, 2.193592
985.4134, 2.167944
985.8955, 1.966015
986.3776, 1.829161
986.8597, 1.826559
987.3419, 1.806255
987.8240, 1.764654
988.3061, 1.709198
988.7882, 1.569729
989.2703, 1.399612
989.7524, 1.671892
990.2346, 2.904623
990.7167, 3.319941
991.1988, 2.172028
991.6809, 0.9131430
992.1630, 0.3005960
992.6451, 0.1243920
993.1273, 6.7900000E-03
993.6094, 0.1393450
994.0915, 0.1124880
994.5736, 1.416470
995.0557, 2.184328
995.5378, 1.707767
996.0200, 0.9337100
996.5021, 0.2893030
996.9842, 2.1193000E-02
997.4663, 0.5700590
997.9484, 2.144520
998.4305, 2.794825
998.9127, 0.9076080
999.3948, 0.4771610
999.8769, 0.5273170
1000.359, 2.089144
1000.841, 2.503946
1001.323, 1.967072
1001.805, 1.343767
1002.287, 0.8212220
1002.770, 0.7001300
1003.252, 1.475363
1003.734, 2.331560
1004.216, 2.843689
1004.698, 2.974689
1005.180, 2.458832
1005.662, 1.544939
1006.144, 1.066916
1006.627, 1.422596
1007.109, 1.973200
1007.591, 2.376108
1008.073, 2.535824
1008.555, 2.050081
1009.037, 1.341433
1009.519, 1.308500
1010.001, 1.978884
1010.483, 2.678724
1010.966, 3.057083
1011.448, 3.061178
1011.930, 2.408970
1012.412, 1.444456
1012.894, 0.7027950
1013.376, 0.2627050
1013.858, 0.5259340
1014.340, 1.436274
1014.823, 1.811865
1015.305, 0.7084140
1015.787, 0.7178150
1016.269, 0.1971870
1016.751, 1.610714
1017.233, 1.999491
1017.715, 1.065762
1018.197, 0.5669250
1018.679, 0.9862190
1019.162, 1.732967
1019.644, 2.372364
1020.126, 2.868111
1020.608, 3.176886
1021.090, 3.287415
1021.572, 2.950838
1022.054, 2.140560
1022.536, 1.542252
1023.018, 1.394238
1023.501, 1.300694
1023.983, 0.8350870
1024.465, 1.315861
1024.947, 0.7100600
1025.429, 2.221992
1025.911, 3.293522
1026.393, 3.882223
1026.875, 3.917797
1027.358, 3.234591
1027.840, 2.429684
1028.322, 2.062143
1028.804, 2.069532
1029.286, 2.274921
1029.768, 2.842216
1030.250, 2.850266
1030.732, 1.974485
1031.214, 1.384785
1031.697, 1.541245
1032.179, 2.084457
1032.661, 2.821211
1033.143, 3.594185
1033.625, 3.635515
1034.107, 2.462709
1034.589, 1.796751
1035.071, 1.849731
1035.553, 2.051712
1036.036, 2.236841
1036.518, 2.460999
1037.000, 2.933195
1037.482, 3.519020
1037.964, 3.404417
1038.446, 1.823723
1038.928, 1.062920
1039.410, 1.865335
1039.893, 2.481741
1040.375, 2.045097
1040.857, 1.394682
1041.339, 1.398561
1041.821, 1.926044
1042.303, 2.280466
1042.785, 2.679655
1043.267, 2.458532
1043.750, 0.5733780
1044.232, 0.6704160
1044.714, 2.4668001E-02
1045.196, 1.354815
1045.678, 2.228769
1046.160, 2.619148
1046.642, 2.623466
1047.124, 1.979622
1047.606, 1.653610
1048.089, 2.013174
1048.571, 2.219458
1049.053, 1.638601
1049.535, 0.9605940
1050.017, 0.8236370
1050.499, 1.163626
1050.981, 1.626419
1051.463, 2.307508
1051.945, 2.713448
1052.428, 2.708580
1052.910, 2.423418
1053.392, 1.574957
1053.874, 0.7248860
1054.356, 0.3797650
1054.838, 0.5265390
1055.320, 1.037239
1055.802, 2.047136
1056.285, 2.837605
1056.767, 3.279093
1057.249, 3.334490
1057.731, 2.901287
1058.213, 2.234808
1058.695, 1.490040
1059.177, 0.7714180
1059.659, 0.2453270
1060.141, 9.2840001E-02
1060.624, 3.0237000E-02
1061.106, 0.8220180
1061.588, 1.710533
1062.070, 2.431789
1062.552, 2.861553
1063.034, 2.794395
1063.516, 2.358345
1063.998, 1.830536
1064.480, 1.231955
1064.963, 0.8996810
1065.445, 1.198366
1065.927, 1.513731
1066.409, 1.409290
1066.891, 1.263849
1067.373, 1.560999
1067.855, 2.104746
1068.337, 2.401302
1068.820, 2.333355
1069.302, 2.000774
1069.784, 1.063240
1070.266, 0.3748840
1070.748, 0.5420070
1071.230, 1.095293
1071.712, 1.834257
1072.194, 2.504246
1072.677, 2.700527
1073.159, 2.339014
1073.641, 1.698019
1074.123, 0.6351510
1074.605, 0.1651120
1075.087, 0.2544460
1075.569, 2.6991000E-02
1076.051, 0.2944850
1076.533, 0.6220470
1077.016, 0.8719860
1077.498, 1.028767
1077.980, 1.113741
1078.462, 1.017689
1078.944, 1.024839
1079.426, 1.482430
1079.908, 1.894608
1080.390, 1.747200
1080.872, 1.334875
1081.354, 1.144093
1081.837, 1.235907
1082.319, 1.371021
1082.801, 1.471922
1083.283, 1.575531
1083.765, 1.603804
1084.247, 1.739473
1084.729, 2.424011
1085.211, 3.110994
1085.694, 2.810566
1086.176, 1.751102
1086.658, 1.382006
1087.140, 2.482746
1087.622, 3.173693
1088.104, 2.444307
1088.586, 1.424780
1089.068, 0.5973090
1089.551, 4.9626999E-02
1090.033, 0.1544320
1090.515, 2.8816000E-02
1090.997, 0.4478680
1091.479, 1.418186
1091.961, 2.115507
1092.443, 2.257900
1092.925, 2.048059
1093.407, 1.223129
1093.890, 0.3972820
1094.372, 0.2023240
1094.854, 0.4881630
1095.336, 0.8021890
1095.818, 1.062590
1096.300, 1.233692
1096.782, 1.371805
1097.264, 1.329300
1097.746, 0.6726150
1098.229, 0.1690810
1098.711, 0.7012020
1099.193, 1.719498
1099.675, 2.107944
1100.157, 1.710260
1100.639, 1.475798
1101.121, 2.019045
1101.603, 2.210325
1102.086, 1.133942
1102.568, 0.2653010
1103.050, 0.9521220
1103.532, 2.056726
1104.014, 1.632160
1104.496, 0.2265010
1104.978, 0.9973930
1105.460, 0.7934400
1105.943, 1.813013
1106.425, 0.8001980
1106.907, 0.1646440
1107.389, 0.1141620
1107.871, 0.4149020
1108.353, 1.070728
1108.835, 1.701870
1109.317, 1.708006
1109.799, 0.6311570
1110.281, 4.3016002E-02
1110.764, 1.2297000E-02
1111.246, 0.1735480
1111.728, 0.2944010
1112.210, 0.5725780
1112.692, 1.487368
1113.174, 2.631252
1113.656, 2.869719
1114.138, 1.921471
1114.621, 1.341261
1115.103, 1.314362
1115.585, 1.358332
1116.067, 1.416883
1116.549, 1.509554
1117.031, 1.731150
1117.513, 1.927042
1117.995, 1.798624
1118.478, 1.345499
1118.960, 1.081980
1119.442, 1.034327
1119.924, 1.116554
1120.406, 1.442688
1120.888, 1.639849
1121.370, 1.487757
1121.852, 1.214617
1122.334, 1.004694
1122.817, 0.9225850
1123.299, 1.430470
1123.781, 2.857573
1124.263, 3.465038
1124.745, 3.031898
1125.227, 2.415188
1125.709, 1.850426
1126.191, 1.200026
1126.673, 0.2195990
1127.156, 0.6755320
1127.638, 0.2802640
1128.120, 1.476227
1128.602, 2.205542
1129.084, 1.802593
1129.566, 1.350039
1130.048, 1.038767
1130.530, 0.9608170
1131.013, 1.206577
1131.495, 1.509415
1131.977, 1.428991
1132.459, 1.080416
1132.941, 1.058537
1133.423, 1.364836
1133.905, 1.897867
1134.387, 2.622198
1134.870, 3.149467
1135.352, 3.326910
1135.834, 3.034731
1136.316, 2.009180
1136.798, 0.8494110
1137.280, 0.9667640
1137.762, 2.017845
1138.244, 3.073210
1138.726, 3.913155
1139.208, 3.519798
1139.691, 1.877773
1140.173, 0.8493000
1140.655, 1.656828
1141.137, 2.997856
1141.619, 3.444603
1142.101, 3.155262
1142.583, 2.046392
1143.065, 0.5522820
1143.548, 0.6129910
1144.030, 1.206061
1144.512, 0.6937930
1144.994, 1.067089
1145.476, 2.691383
1145.958, 2.932428
1146.440, 2.735935
1146.922, 3.090277
1147.405, 3.438351
1147.887, 2.888222
1148.369, 1.911663
1148.851, 1.507504
1149.333, 1.801908
1149.815, 2.153978
1150.297, 2.310558
1150.779, 2.339020
1151.261, 2.307985
1151.744, 2.132086
1152.226, 1.475437
1152.708, 0.8383750
1153.190, 0.9481870
1153.672, 1.597033
1154.154, 1.987169
1154.636, 1.916004
1155.118, 1.777159
1155.600, 1.441257
1156.083, 1.389702
1156.565, 2.282328
1157.047, 3.017763
1157.529, 2.585913
1158.011, 1.609909
1158.493, 1.022659
1158.975, 0.8772790
1159.457, 1.177193
1159.940, 2.518847
1160.422, 3.334740
1160.904, 3.662811
1161.386, 3.308161
1161.868, 1.475300
1162.350, 0.2018360
1162.832, 2.5919000E-02
1163.314, 1.457512
1163.796, 2.077682
1164.279, 1.600227
1164.761, 1.565588
1165.243, 2.113716
1165.725, 2.733126
1166.207, 3.387230
1166.689, 3.863743
1167.171, 4.071367
1167.653, 3.932474
1168.135, 3.260300
1168.618, 2.186638
1169.100, 1.236786
1169.582, 0.4217820
1170.064, 0.9052960
1170.546, 2.745838
1171.028, 3.911770
1171.510, 3.727289
1171.992, 3.029610
1172.474, 2.439228
1172.957, 2.010689
1173.439, 1.898680
1173.921, 2.014639
1174.403, 2.470852
1174.885, 3.040829
1175.367, 2.548088
1175.849, 1.124474
1176.331, 0.3884930
1176.814, 1.022976
1177.296, 2.001629
1177.778, 2.593475
1178.260, 2.823553
1178.742, 2.540251
1179.224, 2.046627
1179.706, 1.650496
1180.188, 1.419453
1180.671, 1.487879
1181.153, 1.803606
1181.635, 2.045717
1182.117, 2.050795
1182.599, 2.030802
1183.081, 2.081829
1183.563, 2.175137
1184.045, 2.253717
1184.527, 2.396749
1185.010, 2.715363
1185.492, 3.169601
1185.974, 3.516563
1186.456, 3.699436
1186.938, 3.742674
1187.420, 3.726534
1187.902, 3.453709
1188.384, 2.457912
1188.866, 1.740971
1189.349, 1.835678
1189.831, 2.322758
1190.313, 2.986948
1190.795, 3.641520
1191.277, 3.472038
1191.759, 2.194569
1192.241, 1.324591
1192.723, 0.8456840
1193.206, 0.9071080
1193.688, 1.678221
1194.170, 2.453196
1194.652, 2.830910
1195.134, 2.962723
1195.616, 3.073637
1196.098, 3.108517
1196.580, 2.675323
1197.063, 1.867153
1197.545, 1.701601
1198.027, 2.183481
1198.509, 2.618250
1198.991, 2.800816
1199.473, 2.878563
1199.955, 2.954927
1200.437, 2.953390
1200.919, 2.679482
1201.401, 2.278793
1201.884, 2.278831
1202.366, 2.387899
1202.848, 1.723814
1203.330, 0.4717040
1203.812, 0.4183460
1204.294, 0.6425690
1204.776, 0.2896860
1205.258, 1.013773
1205.741, 2.035280
1206.223, 1.517319
1206.705, 0.9114800
1207.187, 1.626793
1207.669, 2.697609
1208.151, 2.761110
1208.633, 2.065332
1209.115, 1.852047
1209.598, 2.466473
1210.080, 2.737206
1210.562, 2.042410
1211.044, 1.652250
1211.526, 2.057236
1212.008, 2.531057
1212.490, 2.931093
1212.972, 3.015831
1213.454, 2.330589
1213.937, 1.118622
1214.419, 0.5963690
1214.901, 0.9147970
1215.383, 1.121294
1215.865, 1.137798
1216.347, 1.593584
1216.829, 2.702080
1217.311, 3.636187
1217.793, 3.923475
1218.276, 3.695871
1218.758, 2.977354
1219.240, 2.082066
1219.722, 2.005098
1220.204, 2.484318
1220.686, 2.687517
1221.168, 2.643602
1221.650, 2.913866
1222.133, 3.493408
1222.615, 3.460783
1223.097, 2.165575
1223.579, 0.9287970
1224.061, 1.179865
1224.543, 1.789913
1225.025, 1.633125
1225.507, 1.223103
1225.990, 1.026649
1226.472, 1.156160
1226.954, 1.966969
1227.436, 3.340391
1227.918, 3.886627
1228.400, 2.668816
1228.882, 1.691221
1229.364, 1.828684
1229.846, 1.746321
1230.328, 0.4051280
1230.811, 0.8165490
1231.293, 0.7794840
1231.775, 2.5930000E-02
1232.257, 0.7963580
1232.739, 1.528742
1233.221, 1.719505
1233.703, 1.179413
1234.185, 0.9235800
1234.668, 1.028458
1235.150, 1.563251
1235.632, 2.655338
1236.114, 3.193966
1236.596, 2.190428
1237.078, 0.7670820
1237.560, 1.215864
1238.042, 0.2459200
1238.525, 2.088795
1239.007, 0.2311170
1239.489, 0.1357400
1239.971, 1.660879
1240.453, 3.007719
1240.935, 3.594341
1241.417, 3.717915
1241.899, 3.480642
1242.381, 3.126497
1242.864, 2.891247
1243.346, 2.572546
1243.828, 1.772629
1244.310, 0.9805240
1244.792, 0.5546800
1245.274, 0.6983700
1245.756, 1.560863
1246.238, 3.114138
1246.720, 3.776709
1247.203, 2.396383
1247.685, 1.603439
1248.167, 2.185318
1248.649, 2.415216
1249.131, 1.368010
1249.613, 0.4969350
1250.095, 1.070385
1250.577, 2.307148
1251.059, 2.660465
1251.542, 2.205952
1252.024, 1.826836
1252.506, 1.521570
1252.988, 1.186157
1253.470, 0.8285240
1253.952, 0.8124850
1254.434, 1.231943
1254.916, 1.765053
1255.399, 2.209257
1255.881, 2.452316
1256.363, 2.222832
1256.845, 1.815666
1257.327, 1.477989
1257.809, 1.374392
1258.291, 1.972101
1258.773, 3.076674
1259.255, 2.677498
1259.738, 0.7584440
1260.220, 0.1357120
1260.702, 1.484699
1261.184, 2.554001
1261.666, 1.429159
1262.148, 0.4514750
1262.630, 0.5217380
1263.112, 1.105312
1263.594, 2.244928
1264.077, 3.264235
1264.559, 2.947617
1265.041, 1.542049
1265.523, 1.270653
1266.005, 2.406548
1266.487, 2.978289
1266.969, 2.851736
1267.451, 3.014462
1267.934, 3.722740
1268.416, 4.156313
1268.898, 3.852118
1269.380, 3.153522
1269.862, 2.345976
1270.344, 1.613783
1270.826, 1.407890
1271.308, 1.448776
1271.791, 1.165367
1272.273, 0.7207910
1272.755, 0.5045050
1273.237, 0.6060390
1273.719, 0.6198140
1274.201, 0.4038200
1274.683, 0.5133780
1275.165, 1.475199
1275.647, 2.409191
1276.130, 3.391371
1276.612, 3.782967
1277.094, 2.557316
1277.576, 1.118628
1278.058, 1.216053
1278.540, 0.3888610
1279.022, 1.0759000E-02
1279.504, 0.3176400
1279.986, 0.1454430
1280.469, 0.7294060
1280.951, 1.577433
1281.433, 2.258568
1281.915, 2.549843
1282.397, 2.223261
1282.879, 1.382168
1283.361, 0.8673900
1283.843, 0.3277110
1284.326, 5.6821998E-02
1284.808, 0.0000000E+00
##END=



