##NAMES=Guyanaite
##RRUFFID=R070444
##IDEAL CHEMISTRY=Cr^3+^O(OH)
##LOCALITY=Merume river, Kamakusa, Mazaruni District, Guyana
##OWNER=RRUFF
##SOURCE=Michael Scott
##DESCRIPTION=Black alluvial grains, a mixture of guyanaite, bracewellite, eskolaite and quartz, colloquially known as merumite
##STATUS=The identification of this mineral has been confirmed only by X-ray diffraction
##URL=rruff.info/R070444
165.8327, 0.0000000E+00
166.3148, 2.031006
166.7969, 7.351318
167.2790, 13.69922
167.7611, 10.05933
168.2433, 2.432373
168.7254, 2.136108
169.2075, 3.716919
169.6896, 13.86304
170.1717, 21.08191
170.6538, 15.99121
171.1360, 11.28271
171.6181, 20.68469
172.1002, 45.00806
172.5823, 65.08716
173.0644, 62.14673
173.5465, 45.61963
174.0287, 32.46729
174.5108, 31.89185
174.9929, 37.86975
175.4750, 45.54358
175.9571, 55.35815
176.4392, 62.35376
176.9214, 58.75708
177.4035, 47.89282
177.8856, 38.97302
178.3677, 38.09912
178.8498, 42.06689
179.3319, 46.70447
179.8141, 52.46997
180.2962, 56.33533
180.7783, 52.30664
181.2604, 41.95947
181.7425, 33.49194
182.2246, 33.75562
182.7068, 39.86060
183.1889, 45.38745
183.6710, 49.47485
184.1531, 51.95825
184.6352, 52.14185
185.1173, 50.10645
185.5995, 46.90942
186.0816, 42.53320
186.5637, 37.47925
187.0458, 33.57642
187.5279, 31.37939
188.0100, 30.63525
188.4922, 29.83838
188.9743, 28.82251
189.4564, 30.06567
189.9385, 37.66699
190.4206, 50.70264
190.9027, 62.36865
191.3849, 72.70825
191.8670, 80.08667
192.3491, 75.90576
192.8312, 58.15479
193.3133, 38.64966
193.7954, 31.83960
194.2776, 37.50659
194.7597, 44.73242
195.2418, 49.37183
195.7239, 51.89478
196.2060, 57.31177
196.6881, 66.81152
197.1703, 76.07568
197.6524, 77.33862
198.1345, 69.97339
198.6166, 63.48315
199.0987, 62.34497
199.5808, 66.56152
200.0630, 71.55884
200.5451, 77.86206
201.0272, 83.97095
201.5093, 86.90063
201.9914, 86.13452
202.4735, 84.70068
202.9557, 84.68237
203.4378, 86.41333
203.9199, 85.05835
204.4020, 78.95190
204.8841, 70.85278
205.3662, 68.64844
205.8484, 74.17163
206.3305, 79.35596
206.8126, 78.19775
207.2947, 69.00342
207.7768, 64.43237
208.2589, 67.14307
208.7411, 74.68994
209.2232, 78.38696
209.7053, 79.22632
210.1874, 78.20068
210.6695, 78.45825
211.1517, 83.72192
211.6338, 84.08618
212.1159, 75.77954
212.5980, 61.22314
213.0801, 55.75903
213.5622, 63.37939
214.0444, 73.61768
214.5265, 77.29614
215.0086, 72.80688
215.4907, 69.68652
215.9728, 70.72266
216.4549, 75.27222
216.9371, 73.96680
217.4192, 64.67139
217.9013, 52.98340
218.3834, 42.05371
218.8655, 29.90845
219.3476, 25.57007
219.8298, 34.80151
220.3119, 57.73218
220.7940, 66.50586
221.2761, 53.26709
221.7582, 34.88574
222.2403, 31.10400
222.7225, 49.54175
223.2046, 65.19409
223.6867, 71.84180
224.1688, 69.16675
224.6509, 63.25244
225.1330, 50.29199
225.6152, 37.61182
226.0973, 36.44775
226.5794, 54.60278
227.0615, 67.98267
227.5436, 68.21558
228.0257, 52.33301
228.5079, 41.22241
228.9900, 35.96729
229.4721, 34.58594
229.9542, 34.48853
230.4363, 36.58691
230.9184, 38.20776
231.4006, 37.45117
231.8827, 32.11987
232.3648, 34.59839
232.8469, 50.93384
233.3290, 71.56982
233.8111, 79.07983
234.2933, 65.24023
234.7754, 52.00635
235.2575, 47.69702
235.7396, 56.60425
236.2217, 60.33936
236.7038, 56.66016
237.1860, 48.86914
237.6681, 43.53882
238.1502, 41.67896
238.6323, 40.69312
239.1144, 39.66626
239.5965, 38.42407
240.0787, 37.57495
240.5608, 37.18237
241.0429, 37.25244
241.5250, 37.97534
242.0071, 40.90869
242.4892, 42.53101
242.9714, 40.91162
243.4535, 33.56763
243.9356, 28.81201
244.4177, 27.01074
244.8998, 27.70825
245.3819, 30.05469
245.8641, 35.66357
246.3462, 40.56641
246.8283, 43.06885
247.3104, 43.23364
247.7925, 40.60840
248.2746, 33.66724
248.7568, 24.26855
249.2389, 17.42725
249.7210, 12.64795
250.2031, 11.17798
250.6852, 15.48608
251.1674, 33.00757
251.6495, 37.43506
252.1316, 21.83740
252.6137, 6.291992
253.0958, 23.30762
253.5779, 26.74341
254.0601, 22.86035
254.5422, 13.02197
255.0243, 8.327393
255.5064, 20.66748
255.9885, 19.95874
256.4706, 10.14209
256.9528, 4.464600
257.4349, 4.425537
257.9170, 6.059570
258.3991, 7.696777
258.8812, 10.05322
259.3633, 10.16870
259.8455, 7.053223
260.3276, 1.751709
260.8097, 2.854492
261.2918, 8.814453
261.7739, 10.37695
262.2560, 2.198975
262.7382, 21.84570
263.2203, 36.89722
263.7024, 39.32007
264.1845, 32.41943
264.6666, 27.98511
265.1487, 27.53467
265.6309, 26.45459
266.1130, 20.18237
266.5951, 4.656982
267.0772, 7.8125000E-02
267.5593, 12.52368
268.0414, 35.09155
268.5236, 40.08984
269.0057, 20.95532
269.4878, 0.2392580
269.9699, 7.514404
270.4520, 1.142578
270.9341, 6.931885
271.4163, 7.072754
271.8984, 3.938232
272.3805, 5.497559
272.8626, 13.42847
273.3447, 21.20972
273.8268, 24.58154
274.3090, 22.91406
274.7911, 20.97412
275.2732, 18.81079
275.7553, 16.86206
276.2374, 16.69751
276.7195, 18.81763
277.2017, 20.84912
277.6838, 20.73413
278.1659, 18.14819
278.6480, 17.98413
279.1301, 21.90088
279.6122, 27.30029
280.0944, 27.57178
280.5765, 22.01025
281.0586, 15.18896
281.5407, 7.975830
282.0228, 0.3151860
282.5049, 0.2492680
282.9871, 10.68848
283.4692, 26.26807
283.9513, 36.15942
284.4334, 40.14453
284.9155, 41.00854
285.3976, 38.34814
285.8798, 32.69702
286.3619, 31.93994
286.8440, 38.14087
287.3261, 47.18555
287.8082, 51.62573
288.2903, 51.43188
288.7725, 49.57788
289.2546, 46.89478
289.7367, 43.72070
290.2188, 42.26221
290.7009, 43.13110
291.1830, 44.79736
291.6652, 44.29932
292.1473, 41.83447
292.6294, 40.00244
293.1115, 41.55908
293.5936, 45.12939
294.0757, 45.24561
294.5579, 40.59814
295.0400, 35.13647
295.5221, 37.05859
296.0042, 44.59814
296.4863, 47.08643
296.9684, 32.79053
297.4506, 9.723877
297.9327, 3.303467
298.4148, 4.701172
298.8969, 2.294189
299.3790, 20.04614
299.8611, 44.65381
300.3433, 62.01001
300.8254, 60.00464
301.3075, 47.30322
301.7896, 36.59448
302.2717, 28.16138
302.7538, 24.24780
303.2360, 30.14136
303.7181, 42.50732
304.2002, 53.42529
304.6823, 60.07544
305.1644, 62.72998
305.6465, 59.02930
306.1287, 47.98926
306.6108, 39.97803
307.0929, 50.69434
307.5750, 69.86719
308.0571, 79.14551
308.5392, 60.10083
309.0214, 33.60059
309.5035, 20.94434
309.9856, 23.16821
310.4677, 30.54443
310.9498, 37.58667
311.4319, 44.33789
311.9141, 49.98193
312.3962, 53.17041
312.8783, 56.84961
313.3604, 58.16187
313.8426, 58.48608
314.3247, 59.59253
314.8068, 62.35327
315.2889, 66.37451
315.7710, 71.27222
316.2531, 80.40088
316.7353, 87.34106
317.2174, 90.50317
317.6995, 89.90698
318.1816, 82.57422
318.6637, 58.29736
319.1458, 31.75317
319.6280, 15.00244
320.1101, 15.94556
320.5922, 22.63623
321.0743, 36.84985
321.5564, 56.19995
322.0385, 67.47510
322.5207, 57.16382
323.0028, 44.06885
323.4849, 39.99390
323.9670, 58.77734
324.4491, 72.28564
324.9312, 73.39673
325.4134, 65.33472
325.8955, 59.98657
326.3776, 58.63403
326.8597, 59.92334
327.3418, 63.71729
327.8239, 77.01025
328.3061, 82.85962
328.7882, 73.68750
329.2703, 56.33789
329.7524, 48.60840
330.2345, 62.47339
330.7166, 74.22559
331.1988, 74.29761
331.6809, 54.62988
332.1630, 41.83936
332.6451, 38.16016
333.1272, 40.42456
333.6093, 43.44287
334.0915, 49.84424
334.5736, 52.99341
335.0557, 49.01953
335.5378, 34.79370
336.0199, 28.86011
336.5020, 34.41162
336.9842, 45.15698
337.4663, 53.27637
337.9484, 59.54956
338.4305, 61.03589
338.9126, 55.64380
339.3947, 22.98364
339.8769, 48.01562
340.3590, 61.71338
340.8411, 64.68921
341.3232, 24.82080
341.8053, 40.29077
342.2874, 33.67456
342.7696, 26.20605
343.2517, 49.56641
343.7338, 15.92896
344.2159, 38.68115
344.6980, 38.92310
345.1801, 49.46655
345.6623, 37.70166
346.1444, 32.82666
346.6265, 50.26709
347.1086, 55.35010
347.5907, 41.01562
348.0728, 52.21167
348.5550, 17.79028
349.0371, 23.59912
349.5192, 46.75757
350.0013, 33.56348
350.4834, 45.16406
350.9655, 47.31299
351.4477, 6.507324
351.9298, 38.64355
352.4119, 53.20239
352.8940, 63.01538
353.3761, 66.91357
353.8582, 60.07935
354.3404, 39.01904
354.8225, 18.57764
355.3046, 16.43701
355.7867, 26.25366
356.2688, 33.16919
356.7509, 24.63037
357.2331, 11.54077
357.7152, 5.415039
358.1973, 7.768311
358.6794, 13.02173
359.1615, 19.97827
359.6436, 26.25415
360.1258, 30.34937
360.6079, 34.46704
361.0900, 35.17993
361.5721, 28.12231
362.0542, 13.40332
362.5363, 1.811523
363.0185, 1.323975
363.5006, 0.2346190
363.9827, 3.106689
364.4648, 7.205322
364.9469, 11.77368
365.4290, 15.87769
365.9112, 18.42725
366.3933, 27.90649
366.8754, 53.83911
367.3575, 60.46680
367.8396, 10.02637
368.3217, 19.05811
368.8039, 8.237061
369.2860, 4.216309
369.7681, 38.89136
370.2502, 20.38232
370.7323, 21.83325
371.2144, 23.52954
371.6966, 43.76855
372.1787, 23.85132
372.6608, 16.40649
373.1429, 49.65283
373.6250, 60.06494
374.1071, 35.51953
374.5893, 56.92944
375.0714, 3.687012
375.5535, 8.568115
376.0356, 51.67603
376.5177, 29.26660
376.9998, 51.53613
377.4820, 57.36084
377.9641, 30.09814
378.4462, 48.66211
378.9283, 57.88599
379.4104, 49.66553
379.8925, 29.50171
380.3747, 26.02466
380.8568, 42.03760
381.3389, 57.32690
381.8210, 50.92920
382.3031, 25.85278
382.7852, 6.943848
383.2674, 0.8168950
383.7495, 0.5856930
384.2316, 4.446045
384.7137, 13.76343
385.1958, 21.51855
385.6779, 22.64673
386.1601, 19.64429
386.6422, 18.12476
387.1243, 19.25781
387.6064, 20.15039
388.0885, 16.60010
388.5706, 10.26147
389.0528, 5.461670
389.5349, 3.289307
390.0170, 4.281982
390.4991, 11.22266
390.9812, 24.76123
391.4633, 35.29053
391.9455, 34.17554
392.4276, 27.06348
392.9097, 21.13062
393.3918, 21.83105
393.8739, 21.70337
394.3561, 14.51562
394.8382, 1.489258
395.3203, 5.916504
395.8024, 0.9777830
396.2845, 9.503906
396.7667, 21.27563
397.2488, 41.24023
397.7309, 52.76392
398.2130, 48.02002
398.6951, 31.78638
399.1772, 19.09521
399.6594, 10.30957
400.1415, 6.527100
400.6236, 9.092773
401.1057, 22.63721
401.5878, 31.36255
402.0699, 31.98315
402.5521, 29.38257
403.0342, 31.09399
403.5163, 40.48950
403.9984, 48.36255
404.4805, 53.49072
404.9626, 55.89844
405.4448, 48.89917
405.9269, 26.96606
406.4090, 5.775146
406.8911, 2.566650
407.3732, 20.36523
407.8553, 36.33545
408.3375, 47.26685
408.8196, 53.04395
409.3017, 51.52124
409.7838, 42.16016
410.2659, 31.51855
410.7480, 23.91895
411.2302, 18.94116
411.7123, 14.84937
412.1944, 11.70605
412.6765, 8.728516
413.1586, 2.728027
413.6407, 4.853027
414.1229, 7.681396
414.6050, 4.577637
415.0871, 20.91675
415.5692, 20.74902
416.0513, 2.524170
416.5334, 12.83374
417.0156, 4.706787
417.4977, 16.03369
417.9798, 32.94165
418.4619, 37.69141
418.9440, 38.97388
419.4261, 42.72168
419.9083, 48.10864
420.3904, 50.92773
420.8725, 48.53003
421.3546, 43.29517
421.8367, 36.04419
422.3188, 22.19360
422.8010, 14.52563
423.2831, 18.83765
423.7652, 30.22021
424.2473, 42.89233
424.7294, 62.09839
425.2115, 74.50586
425.6937, 72.04272
426.1758, 49.37183
426.6579, 38.32715
427.1400, 44.41309
427.6221, 58.51807
428.1042, 71.37598
428.5864, 93.87598
429.0685, 98.27026
429.5506, 70.09155
430.0327, 16.79126
430.5148, 2.050537
430.9969, 27.03540
431.4791, 58.66895
431.9612, 56.03076
432.4433, 16.21167
432.9254, 6.735352
433.4075, 2.960693
433.8896, 13.38745
434.3718, 13.07812
434.8539, 3.181885
435.3360, 10.53491
435.8181, 15.04053
436.3002, 58.50684
436.7823, 75.53003
437.2645, 63.59961
437.7466, 43.08618
438.2287, 28.90869
438.7108, 21.23438
439.1929, 20.86206
439.6750, 32.65186
440.1572, 47.37036
440.6393, 58.34839
441.1214, 65.02686
441.6035, 65.09253
442.0856, 46.78735
442.5677, 27.23633
443.0499, 22.98560
443.5320, 45.36816
444.0141, 63.44019
444.4962, 57.91577
444.9783, 40.68970
445.4604, 31.80981
445.9426, 46.87891
446.4247, 61.70215
446.9068, 66.70483
447.3889, 59.47681
447.8710, 57.41162
448.3531, 65.47241
448.8353, 76.52271
449.3174, 85.61401
449.7995, 93.49731
450.2816, 98.43091
450.7637, 101.9163
451.2458, 102.2510
451.7280, 89.63159
452.2101, 56.03564
452.6922, 28.43408
453.1743, 23.52563
453.6564, 44.91431
454.1385, 59.69092
454.6207, 65.33789
455.1028, 68.49585
455.5849, 83.82495
456.0670, 109.8760
456.5491, 120.9751
457.0313, 97.90039
457.5134, 58.12744
457.9955, 46.05664
458.4776, 61.06201
458.9597, 82.21680
459.4418, 95.81152
459.9240, 103.6794
460.4061, 109.6118
460.8882, 115.8247
461.3703, 117.0234
461.8524, 104.4102
462.3345, 83.13550
462.8167, 64.86890
463.2988, 56.97144
463.7809, 52.60107
464.2630, 46.37964
464.7451, 37.43823
465.2272, 34.37549
465.7094, 46.59644
466.1915, 62.20483
466.6736, 71.09961
467.1557, 59.90405
467.6378, 55.13989
468.1199, 66.81836
468.6021, 89.97754
469.0842, 101.4268
469.5663, 92.50415
470.0484, 81.96826
470.5305, 77.66455
471.0126, 81.41064
471.4948, 85.85840
471.9769, 94.62671
472.4590, 101.0920
472.9411, 89.81665
473.4232, 56.02588
473.9053, 34.17773
474.3875, 38.21973
474.8696, 62.05542
475.3517, 75.52173
475.8338, 76.66602
476.3159, 70.66357
476.7981, 58.79932
477.2802, 45.83325
477.7623, 44.02075
478.2444, 58.15308
478.7265, 73.68359
479.2086, 72.26611
479.6908, 59.82593
480.1729, 50.49976
480.6550, 53.69922
481.1371, 61.51001
481.6192, 68.84253
482.1013, 75.50537
482.5835, 78.69849
483.0656, 70.63599
483.5477, 61.14502
484.0298, 58.72437
484.5119, 72.00464
484.9940, 85.20825
485.4762, 95.51587
485.9583, 101.7151
486.4404, 103.9353
486.9225, 100.3340
487.4046, 97.16846
487.8867, 96.71460
488.3689, 99.47583
488.8510, 99.94165
489.3331, 97.29712
489.8152, 92.09180
490.2973, 82.29980
490.7794, 63.63184
491.2616, 58.09448
491.7437, 74.89502
492.2258, 102.2715
492.7079, 105.9065
493.1900, 84.80151
493.6721, 62.48926
494.1543, 49.28662
494.6364, 43.61060
495.1185, 48.21509
495.6006, 65.12549
496.0827, 79.67456
496.5648, 67.63135
497.0470, 42.68384
497.5291, 34.27490
498.0112, 69.63086
498.4933, 107.4211
498.9754, 110.0652
499.4576, 84.64551
499.9397, 57.41797
500.4218, 34.07520
500.9039, 17.60498
501.3860, 10.40845
501.8681, 14.47241
502.3503, 22.45044
502.8324, 37.78711
503.3145, 54.28589
503.7966, 64.62305
504.2787, 65.52881
504.7608, 63.22437
505.2430, 56.06201
505.7251, 45.45728
506.2072, 41.77222
506.6893, 48.22656
507.1714, 55.91064
507.6535, 60.88940
508.1357, 63.37109
508.6178, 60.10156
509.0999, 48.95337
509.5820, 36.74194
510.0641, 32.43091
510.5462, 35.76807
511.0284, 44.08569
511.5105, 61.34424
511.9926, 79.73926
512.4747, 82.39575
512.9568, 70.81982
513.4389, 57.62866
513.9210, 52.39404
514.4031, 50.17847
514.8853, 43.67749
515.3674, 30.02905
515.8495, 19.73242
516.3316, 23.97412
516.8137, 34.22485
517.2958, 38.68750
517.7780, 24.76611
518.2601, 13.33472
518.7422, 13.66357
519.2244, 24.45850
519.7065, 31.74268
520.1886, 31.58057
520.6707, 29.61011
521.1528, 28.38379
521.6349, 29.13794
522.1171, 26.66357
522.5992, 17.06543
523.0813, 8.157227
523.5634, 13.25854
524.0455, 36.24512
524.5276, 52.08984
525.0098, 52.26001
525.4919, 41.65015
525.9740, 36.97314
526.4561, 38.38159
526.9382, 40.26733
527.4203, 38.65112
527.9025, 34.73853
528.3846, 31.03784
528.8667, 27.64404
529.3488, 25.37012
529.8309, 26.53394
530.3130, 29.02808
530.7952, 29.47876
531.2773, 30.72168
531.7594, 25.73950
532.2415, 1.050293
532.7236, 36.41382
533.2057, 55.87646
533.6879, 27.73779
534.1700, 4.690186
534.6521, 18.55859
535.1342, 2.602783
535.6163, 5.198242
536.0984, 2.403809
536.5806, 13.93579
537.0627, 16.81079
537.5448, 6.974854
538.0269, 1.550049
538.5090, 6.127441
538.9911, 8.130615
539.4733, 12.70093
539.9554, 20.48486
540.4375, 26.19629
540.9196, 24.68384
541.4017, 18.11353
541.8839, 19.45093
542.3660, 30.09863
542.8481, 36.89038
543.3302, 20.04956
543.8123, 8.878906
544.2944, 26.29468
544.7766, 19.89746
545.2587, 9.324219
545.7408, 8.456299
546.2229, 15.31909
546.7050, 25.03296
547.1871, 45.49512
547.6693, 59.87769
548.1514, 54.99292
548.6335, 27.36523
549.1156, 10.49927
549.5977, 23.80225
550.0798, 39.72363
550.5620, 38.18799
551.0441, 2.100830
551.5262, 16.91992
552.0083, 10.57422
552.4904, 9.337646
552.9725, 20.14575
553.4547, 20.63525
553.9368, 17.88599
554.4189, 11.08765
554.9010, 3.409180
555.3831, 11.02808
555.8652, 34.40771
556.3474, 56.28882
556.8295, 60.83569
557.3116, 54.56201
557.7937, 51.14331
558.2758, 53.29517
558.7579, 54.40625
559.2401, 49.52075
559.7222, 40.44897
560.2043, 29.44141
560.6864, 8.022217
561.1685, 6.412109
561.6506, 7.2509997E-02
562.1328, 22.41187
562.6149, 36.22656
563.0970, 27.02734
563.5791, 16.71558
564.0612, 13.93677
564.5433, 19.76392
565.0255, 30.17603
565.5076, 50.20044
565.9897, 68.65991
566.4718, 72.21875
566.9539, 57.86694
567.4360, 47.73267
567.9182, 46.76416
568.4003, 50.21313
568.8824, 46.96777
569.3645, 37.67212
569.8466, 30.22949
570.3287, 29.29175
570.8109, 32.71289
571.2930, 38.60913
571.7751, 46.77393
572.2572, 52.26929
572.7393, 45.45215
573.2214, 37.37549
573.7036, 42.00220
574.1857, 73.04053
574.6678, 92.30469
575.1499, 69.83447
575.6320, 31.05981
576.1141, 12.82739
576.5963, 46.27759
577.0784, 72.94849
577.5605, 80.43237
578.0426, 71.41748
578.5247, 62.86841
579.0068, 53.37915
579.4890, 47.34619
579.9711, 47.87695
580.4532, 55.25610
580.9353, 63.10303
581.4174, 72.66235
581.8995, 79.76294
582.3817, 76.55859
582.8638, 66.24023
583.3459, 61.50342
583.8280, 68.18726
584.3101, 76.17676
584.7922, 70.10474
585.2744, 55.81738
585.7565, 48.27197
586.2386, 61.30054
586.7207, 77.59204
587.2028, 88.68604
587.6849, 94.06860
588.1671, 93.66040
588.6492, 82.71924
589.1313, 69.23315
589.6134, 56.67310
590.0955, 36.63403
590.5776, 34.31543
591.0598, 63.63086
591.5419, 102.9646
592.0240, 117.3479
592.5061, 98.56543
592.9882, 86.79565
593.4703, 94.34668
593.9525, 111.5461
594.4346, 107.4258
594.9167, 83.65771
595.3988, 67.71680
595.8809, 87.03589
596.3630, 119.6777
596.8452, 127.4482
597.3273, 108.9583
597.8094, 86.78613
598.2915, 69.65967
598.7736, 60.21899
599.2557, 62.42163
599.7379, 83.73315
600.2200, 100.8467
600.7021, 105.7808
601.1842, 104.5647
601.6663, 104.6472
602.1484, 100.5569
602.6306, 103.5698
603.1127, 121.0933
603.5948, 147.8506
604.0769, 154.1934
604.5590, 134.3611
605.0411, 112.8721
605.5233, 102.4180
606.0054, 101.9551
606.4875, 103.7554
606.9696, 107.8074
607.4517, 113.9377
607.9338, 125.1125
608.4160, 137.8179
608.8981, 143.5503
609.3802, 137.7268
609.8623, 130.8533
610.3444, 130.4299
610.8265, 133.3677
611.3087, 135.3413
611.7908, 137.3301
612.2729, 135.5342
612.7550, 123.2715
613.2371, 103.4116
613.7192, 97.34180
614.2014, 121.0933
614.6835, 139.4160
615.1656, 135.1621
615.6477, 104.7734
616.1298, 85.53174
616.6119, 78.03955
617.0941, 80.60352
617.5762, 97.91699
618.0583, 127.2363
618.5404, 142.5405
619.0225, 137.2739
619.5046, 124.8306
619.9868, 119.6963
620.4689, 120.1353
620.9510, 121.7793
621.4331, 125.4712
621.9152, 127.3818
622.3973, 122.6270
622.8795, 113.2563
623.3616, 107.7681
623.8437, 114.9917
624.3258, 121.4961
624.8079, 119.4492
625.2900, 106.4683
625.7722, 99.83154
626.2543, 102.9624
626.7364, 108.1787
627.2185, 108.6675
627.7006, 102.7979
628.1827, 103.8770
628.6649, 114.8086
629.1470, 128.0396
629.6291, 132.4097
630.1112, 129.1353
630.5933, 124.3755
631.0754, 119.8066
631.5576, 115.0879
632.0397, 104.8374
632.5218, 93.16455
633.0039, 93.24023
633.4860, 127.8945
633.9681, 162.7100
634.4503, 176.6309
634.9324, 168.0352
635.4145, 156.9790
635.8966, 140.1689
636.3787, 127.8843
636.8608, 126.8765
637.3430, 144.2466
637.8251, 153.3262
638.3072, 153.2002
638.7893, 146.0537
639.2714, 130.1855
639.7535, 105.5063
640.2357, 92.75684
640.7178, 99.20703
641.1999, 113.4468
641.6820, 116.5400
642.1641, 111.5952
642.6462, 109.5879
643.1284, 123.6680
643.6105, 136.9946
644.0926, 131.2402
644.5747, 109.7832
645.0568, 94.43750
645.5389, 98.10010
646.0211, 106.4429
646.5032, 113.9546
646.9853, 122.6201
647.4674, 118.9292
647.9495, 91.85889
648.4316, 64.94873
648.9138, 58.76611
649.3959, 77.37842
649.8780, 94.37256
650.3601, 109.7383
650.8422, 117.5039
651.3243, 98.92432
651.8065, 61.12695
652.2886, 41.77832
652.7707, 63.28809
653.2528, 96.28760
653.7349, 105.1836
654.2170, 97.60498
654.6992, 95.63770
655.1813, 122.4517
655.6634, 146.5083
656.1455, 149.4404
656.6276, 130.4302
657.1097, 110.3560
657.5919, 81.92627
658.0740, 62.57129
658.5561, 64.06055
659.0382, 94.21240
659.5203, 110.0229
660.0024, 109.0991
660.4846, 99.81543
660.9667, 87.54541
661.4488, 73.19922
661.9309, 67.02051
662.4130, 72.70605
662.8951, 81.38574
663.3773, 80.29590
663.8594, 73.63232
664.3415, 70.27441
664.8236, 75.49219
665.3057, 83.50098
665.7878, 96.99609
666.2700, 111.7915
666.7521, 113.6475
667.2342, 83.72510
667.7163, 55.76562
668.1984, 39.01025
668.6805, 33.55811
669.1627, 39.75879
669.6448, 63.35156
670.1269, 85.53223
670.6090, 94.39014
671.0911, 90.30322
671.5732, 76.78418
672.0554, 51.93701
672.5375, 34.27881
673.0196, 54.33594
673.5017, 92.65723
673.9838, 111.0244
674.4659, 95.54004
674.9481, 72.21387
675.4302, 50.88281
675.9123, 34.19775
676.3944, 25.66211
676.8765, 32.78418
677.3586, 40.64941
677.8408, 47.46826
678.3229, 52.86133
678.8050, 54.54346
679.2871, 48.89600
679.7692, 49.19482
680.2513, 64.26416
680.7335, 88.89062
681.2156, 90.29834
681.6977, 68.03125
682.1799, 52.02979
682.6620, 77.21045
683.1441, 116.6763
683.6262, 121.2344
684.1083, 87.48926
684.5905, 54.18701
685.0726, 41.51660
685.5547, 42.37256
686.0368, 53.03174
686.5189, 83.21191
687.0010, 101.6689
687.4832, 99.52881
687.9653, 86.44043
688.4474, 67.67578
688.9295, 35.66064
689.4116, 25.01758
689.8937, 48.64600
690.3759, 84.39453
690.8580, 84.42627
691.3401, 52.22559
691.8222, 28.62988
692.3043, 31.67773
692.7864, 48.14551
693.2686, 62.22461
693.7507, 74.57568
694.2328, 85.31348
694.7149, 97.78711
695.1970, 106.5049
695.6791, 107.2744
696.1613, 100.5698
696.6434, 92.35010
697.1255, 80.06543
697.6076, 70.16699
698.0897, 67.52295
698.5718, 75.04395
699.0540, 28.28662
699.5361, 71.81689
700.0182, 95.11719
700.5003, 99.77637
700.9824, 28.71826
701.4645, 56.31104
701.9467, 43.54395
702.4288, 29.31348
702.9109, 70.81396
703.3930, 10.19434
703.8751, 51.16016
704.3572, 51.77930
704.8394, 71.11084
705.3215, 50.45752
705.8036, 42.37598
706.2857, 75.06836
706.7678, 86.36279
707.2499, 61.99561
707.7321, 83.52246
708.2142, 23.10742
708.6963, 35.64062
709.1784, 80.71143
709.6605, 60.14648
710.1426, 83.25000
710.6248, 89.50977
711.1069, 18.62598
711.5890, 82.38379
712.0711, 88.15869
712.5532, 34.39258
713.0353, 94.04639
713.5175, 48.84717
713.9996, 41.30225
714.4817, 57.62695
714.9638, 47.83887
715.4459, 38.16602
715.9280, 33.46875
716.4102, 34.92578
716.8923, 38.07568
717.3744, 44.45850
717.8565, 49.66699
718.3386, 50.21436
718.8207, 46.35303
719.3029, 34.92334
719.7850, 12.11963
720.2671, 7.264160
720.7492, 2.963379
721.2313, 15.75586
721.7134, 35.39844
722.1956, 58.39697
722.6777, 72.31982
723.1598, 62.88428
723.6419, 42.26416
724.1240, 34.86963
724.6061, 61.73242
725.0883, 80.69385
725.5704, 84.89258
726.0525, 76.93359
726.5346, 62.40967
727.0167, 38.40967
727.4988, 17.82568
727.9810, 8.680176
728.4631, 8.568848
728.9452, 11.01270
729.4273, 16.21387
729.9094, 25.49365
730.3915, 46.40723
730.8737, 66.74512
731.3558, 76.41699
731.8379, 74.69287
732.3200, 69.78418
732.8021, 61.52979
733.2842, 52.72852
733.7664, 44.46973
734.2485, 36.21387
734.7306, 31.15234
735.2127, 29.94922
735.6948, 30.37646
736.1769, 30.51953
736.6591, 30.58301
737.1412, 32.77051
737.6233, 37.52930
738.1054, 40.24463
738.5875, 33.35840
739.0696, 22.94434
739.5518, 19.54004
740.0339, 30.29590
740.5160, 34.46875
740.9981, 19.63770
741.4802, 2.662109
741.9623, 16.58057
742.4445, 20.61035
742.9266, 17.34326
743.4087, 2.163086
743.8908, 15.76318
744.3729, 14.10449
744.8550, 7.265625
745.3372, 15.25879
745.8193, 6.633301
746.3014, 37.87158
746.7835, 46.82227
747.2656, 38.05762
747.7477, 28.76270
748.2299, 27.57764
748.7120, 28.13770
749.1941, 29.14844
749.6762, 29.66992
750.1583, 24.69629
750.6404, 4.570801
751.1226, 8.922363
751.6047, 5.430664
752.0868, 12.45020
752.5689, 14.90967
753.0510, 0.2866210
753.5331, 13.34619
754.0153, 8.172852
754.4974, 7.462402
754.9795, 14.13721
755.4616, 11.99756
755.9437, 11.04443
756.4258, 26.41211
756.9080, 39.79785
757.3901, 31.43115
757.8722, 7.131348
758.3543, 28.49609
758.8364, 8.891602
759.3185, 15.68408
759.8007, 22.99463
760.2828, 7.397949
760.7649, 2.590332
761.2470, 8.789551
761.7291, 17.45996
762.2112, 21.49463
762.6934, 21.01660
763.1755, 13.79639
763.6576, 2.666504
764.1397, 13.90039
764.6218, 1.690918
765.1039, 24.60156
765.5861, 30.59082
766.0682, 6.161133
766.5503, 27.53760
767.0324, 13.17090
767.5145, 15.44775
767.9966, 34.96436
768.4788, 44.80713
768.9609, 50.64062
769.4430, 49.79004
769.9251, 46.32666
770.4072, 44.64502
770.8893, 44.28223
771.3715, 43.32275
771.8536, 40.40283
772.3357, 37.43164
772.8178, 35.75342
773.2999, 35.23291
773.7820, 35.59570
774.2642, 41.38086
774.7463, 42.64795
775.2284, 35.90820
775.7105, 23.29199
776.1926, 8.380859
776.6747, 11.48682
777.1569, 23.85498
777.6390, 24.74219
778.1211, 15.73340
778.6032, 8.020508
779.0853, 41.82227
779.5674, 60.12891
780.0496, 30.45898
780.5317, 5.729980
781.0138, 10.65381
781.4959, 10.18750
781.9780, 26.76855
782.4601, 31.53467
782.9423, 28.18408
783.4244, 12.43164
783.9065, 13.19336
784.3886, 15.36426
784.8707, 11.43262
785.3528, 40.68115
785.8350, 60.81396
786.3171, 71.93652
786.7992, 71.63916
787.2813, 60.89941
787.7634, 51.41260
788.2455, 54.41357
788.7277, 59.49854
789.2098, 54.07422
789.6919, 36.90820
790.1740, 31.68652
790.6561, 60.21875
791.1382, 86.83203
791.6204, 94.88037
792.1025, 82.88135
792.5846, 70.91016
793.0667, 58.54297
793.5488, 47.05859
794.0309, 34.99951
794.5131, 25.05127
794.9952, 29.01709
795.4773, 47.84131
795.9594, 59.58691
796.4415, 34.28809
796.9236, 4.295898
797.4058, 0.1083980
797.8879, 33.32764
798.3700, 61.43848
798.8521, 84.62256
799.3342, 96.24121
799.8163, 85.62988
800.2985, 47.70898
800.7806, 32.41992
801.2627, 44.03857
801.7448, 64.07910
802.2269, 81.38037
802.7090, 91.59375
803.1912, 80.31641
803.6733, 41.77441
804.1554, 13.58008
804.6375, 30.41113
805.1196, 61.86914
805.6017, 80.07568
806.0839, 70.86475
806.5660, 68.47217
807.0481, 78.69336
807.5302, 88.20020
808.0123, 79.92578
808.4944, 53.85889
808.9766, 36.75879
809.4587, 32.49707
809.9408, 36.01611
810.4229, 41.98975
810.9050, 51.37695
811.3871, 67.33838
811.8693, 97.42529
812.3514, 119.1465
812.8335, 119.8760
813.3156, 108.2432
813.7977, 93.06787
814.2798, 69.99902
814.7620, 53.88184
815.2441, 45.40430
815.7262, 43.52197
816.2083, 54.36523
816.6904, 75.93604
817.1725, 74.59473
817.6547, 35.84082
818.1368, 0.7568360
818.6189, 19.33691
819.1010, 61.82275
819.5831, 87.67578
820.0652, 75.01807
820.5474, 61.94727
821.0295, 51.14648
821.5116, 46.31494
821.9937, 55.03564
822.4758, 85.03467
822.9579, 101.5903
823.4401, 99.23389
823.9222, 84.64307
824.4043, 63.70850
824.8864, 40.75635
825.3685, 19.42871
825.8506, 6.363770
826.3328, 16.13770
826.8149, 25.47510
827.2970, 83.21484
827.7791, 111.5308
828.2612, 65.66846
828.7433, 41.72754
829.2255, 52.51123
829.7076, 75.98291
830.1897, 80.92188
830.6718, 67.32764
831.1539, 55.48486
831.6360, 48.09082
832.1182, 46.88330
832.6003, 61.07861
833.0824, 81.05811
833.5645, 89.99805
834.0466, 73.99121
834.5287, 60.17432
835.0109, 64.22559
835.4930, 74.19824
835.9751, 73.56934
836.4572, 58.37207
836.9393, 44.75342
837.4214, 31.52588
837.9036, 24.96973
838.3857, 41.96289
838.8678, 74.86621
839.3499, 87.52246
839.8320, 63.70459
840.3141, 37.12451
840.7963, 33.29395
841.2784, 43.22266
841.7605, 55.42139
842.2426, 81.27930
842.7247, 93.18066
843.2068, 79.79346
843.6890, 58.79053
844.1711, 52.31885
844.6532, 60.83350
845.1353, 71.27441
845.6174, 83.64355
846.0995, 90.92676
846.5817, 77.71045
847.0638, 55.31885
847.5460, 45.71875
848.0281, 61.80273
848.5102, 71.21533
848.9923, 50.99951
849.4744, 23.01074
849.9565, 11.64111
850.4387, 22.02588
850.9208, 33.11719
851.4029, 47.14111
851.8850, 57.76855
852.3671, 52.15723
852.8492, 36.08301
853.3314, 32.00537
853.8135, 45.24854
854.2956, 59.57959
854.7777, 62.83691
855.2598, 59.72412
855.7419, 55.10303
856.2241, 44.84473
856.7062, 41.31055
857.1883, 52.71533
857.6704, 61.73340
858.1525, 55.95654
858.6346, 34.74072
859.1168, 18.22803
859.5989, 6.784180
860.0810, 5.768555
860.5631, 31.69873
861.0452, 66.39355
861.5273, 84.98340
862.0095, 81.74658
862.4916, 69.83447
862.9737, 37.08838
863.4558, 10.01953
863.9379, 9.462402
864.4200, 43.96924
864.9022, 59.25928
865.3843, 50.32275
865.8664, 41.50488
866.3485, 62.83301
866.8306, 98.18848
867.3127, 104.4531
867.7949, 79.40479
868.2770, 51.48682
868.7591, 30.70947
869.2412, 19.34082
869.7233, 22.67383
870.2054, 44.90576
870.6876, 55.20752
871.1697, 49.23193
871.6518, 39.63184
872.1339, 30.11377
872.6160, 22.24414
873.0981, 31.10400
873.5803, 56.00732
874.0624, 78.21484
874.5445, 86.34668
875.0266, 84.98975
875.5087, 74.02734
875.9908, 53.78760
876.4730, 40.03613
876.9551, 43.97119
877.4372, 44.53809
877.9193, 31.95020
878.4014, 9.924316
878.8835, 1.322266
879.3657, 6.172852
879.8478, 21.33789
880.3299, 57.14014
880.8120, 94.00635
881.2941, 100.7383
881.7762, 84.03027
882.2584, 67.46191
882.7405, 57.71973
883.2226, 52.63525
883.7047, 52.17920
884.1868, 54.66064
884.6689, 60.02979
885.1511, 67.80615
885.6332, 70.56152
886.1153, 64.35791
886.5974, 54.37451
887.0795, 50.29395
887.5616, 50.35840
888.0438, 49.83936
888.5259, 41.30762
889.0080, 37.96045
889.4901, 54.37256
889.9722, 77.62646
890.4543, 82.44482
890.9365, 60.26709
891.4186, 39.00635
891.9007, 18.92725
892.3828, 7.404297
892.8649, 26.30566
893.3470, 64.67334
893.8292, 82.22119
894.3113, 62.64746
894.7934, 38.55811
895.2755, 29.81543
895.7576, 30.95117
896.2397, 36.68311
896.7219, 54.80518
897.2040, 60.44336
897.6861, 48.01758
898.1682, 32.11670
898.6503, 30.84814
899.1324, 41.26123
899.6146, 40.32910
900.0967, 24.89453
900.5788, 9.013672
901.0609, 0.5463870
901.5430, 2.286133
902.0251, 8.020020
902.5073, 34.64746
902.9894, 53.44238
903.4715, 61.39648
903.9536, 62.01758
904.4357, 54.71289
904.9178, 40.17822
905.4000, 34.35693
905.8821, 37.35254
906.3642, 35.61963
906.8463, 8.761230
907.3284, 20.71436
907.8105, 25.78613
908.2927, 7.482422
908.7748, 9.996582
909.2569, 19.09424
909.7390, 26.90381
910.2211, 36.96191
910.7032, 48.18945
911.1854, 52.60596
911.6675, 50.25732
912.1496, 50.64893
912.6317, 65.58936
913.1138, 77.11230
913.5959, 48.38818
914.0781, 1.846191
914.5602, 28.49316
915.0423, 7.357422
915.5244, 42.78125
916.0065, 65.01562
916.4886, 76.09717
916.9708, 77.49854
917.4529, 68.32422
917.9350, 58.34766
918.4171, 49.68164
918.8992, 41.36377
919.3813, 29.91650
919.8635, 18.87256
920.3456, 14.79980
920.8277, 22.55078
921.3098, 30.35107
921.7919, 37.52881
922.2740, 41.89160
922.7562, 39.16064
923.2383, 26.21338
923.7204, 24.83643
924.2025, 37.30029
924.6846, 52.08545
925.1667, 61.62500
925.6489, 64.70605
926.1310, 55.87988
926.6131, 34.51123
927.0952, 18.21826
927.5773, 16.61279
928.0594, 21.13330
928.5416, 27.00293
929.0237, 34.24365
929.5058, 46.08105
929.9879, 64.51270
930.4700, 74.00586
930.9521, 53.66699
931.4343, 24.76611
931.9164, 31.83838
932.3985, 64.65527
932.8806, 84.08545
933.3627, 54.79688
933.8448, 28.33691
934.3270, 27.65430
934.8091, 42.77295
935.2912, 48.99854
935.7733, 44.24902
936.2554, 45.18066
936.7375, 58.38086
937.2197, 74.44873
937.7018, 79.19922
938.1839, 76.21436
938.6660, 73.62305
939.1481, 80.09424
939.6302, 76.20605
940.1124, 37.14209
940.5945, 3.377930
941.0766, 7.493164
941.5587, 35.20508
942.0408, 56.14746
942.5229, 48.67285
943.0051, 34.66357
943.4872, 35.21191
943.9693, 43.54541
944.4514, 50.07910
944.9335, 53.74365
945.4156, 53.66406
945.8978, 42.21973
946.3799, 34.01562
946.8620, 37.96484
947.3441, 53.46729
947.8262, 63.67285
948.3083, 68.89258
948.7905, 66.81055
949.2726, 44.73633
949.7547, 21.70215
950.2368, 32.18506
950.7189, 66.36475
951.2010, 91.51270
951.6832, 97.00684
952.1653, 88.48242
952.6474, 56.93018
953.1295, 18.47949
953.6116, 12.18115
954.0938, 39.35449
954.5759, 60.09229
955.0580, 65.53809
955.5401, 61.54395
956.0222, 57.57617
956.5043, 52.09521
956.9865, 41.65088
957.4686, 19.71191
957.9507, 6.390625
958.4328, 9.543457
958.9149, 16.85059
959.3970, 16.90479
959.8792, 9.580566
960.3613, 17.27393
960.8434, 41.22070
961.3255, 63.09180
961.8076, 65.50195
962.2897, 60.65137
962.7719, 62.24316
963.2540, 70.55127
963.7361, 71.41553
964.2182, 57.39893
964.7003, 42.18848
965.1824, 28.38281
965.6646, 16.81152
966.1467, 10.34521
966.6288, 7.637207
967.1109, 2.461426
967.5930, 14.02734
968.0751, 25.54053
968.5573, 11.91650
969.0394, 14.25830
969.5215, 30.63867
970.0036, 25.63330
970.4857, 24.78857
970.9678, 30.40625
971.4500, 39.39697
971.9321, 50.63770
972.4142, 60.54150
972.8963, 62.46191
973.3784, 52.76367
973.8605, 41.39014
974.3427, 34.41895
974.8248, 29.29980
975.3069, 23.19482
975.7890, 15.25244
976.2711, 14.92676
976.7532, 25.10938
977.2354, 33.79004
977.7175, 32.41406
978.1996, 25.75488
978.6817, 26.05811
979.1638, 32.24707
979.6459, 40.09277
980.1281, 51.91553
980.6102, 60.19043
981.0923, 61.56885
981.5744, 57.15771
982.0565, 48.17432
982.5386, 33.69678
983.0208, 18.41064
983.5029, 1.275879
983.9850, 10.62646
984.4671, 4.850098
984.9492, 10.93555
985.4313, 26.25781
985.9135, 41.51855
986.3956, 46.31445
986.8777, 22.65820
987.3598, 1.168457
987.8419, 0.3911130
988.3240, 18.05029
988.8062, 44.61230
989.2883, 79.53418
989.7704, 99.31006
990.2525, 71.32471
990.7346, 32.97900
991.2167, 23.16211
991.6989, 37.16064
992.1810, 51.32568
992.6631, 67.49023
993.1452, 72.28564
993.6273, 58.23340
994.1094, 37.00537
994.5916, 32.52686
995.0737, 40.40479
995.5558, 54.42725
996.0379, 77.47021
996.5200, 90.31201
997.0021, 64.74219
997.4843, 29.81104
997.9664, 18.42041
998.4485, 41.57812
998.9306, 55.52979
999.4127, 60.25977
999.8948, 57.89258
1000.377, 44.21826
1000.859, 27.02783
1001.341, 28.55322
1001.823, 46.12402
1002.305, 58.91504
1002.788, 56.35791
1003.270, 47.25781
1003.752, 29.47510
1004.234, 9.204102
1004.716, 3.676270
1005.198, 14.15771
1005.680, 25.80273
1006.162, 34.08887
1006.644, 43.21143
1007.127, 64.83154
1007.609, 90.24951
1008.091, 99.99170
1008.573, 81.80566
1009.055, 61.56201
1009.537, 37.22607
1010.019, 18.53662
1010.501, 17.15479
1010.984, 30.31543
1011.466, 23.14648
1011.948, 2.805176
1012.430, 19.25977
1012.912, 4.692383
1013.394, 34.43701
1013.876, 43.75195
1014.358, 35.66748
1014.841, 30.29541
1015.323, 26.43652
1015.805, 30.87109
1016.287, 47.15723
1016.769, 68.53271
1017.251, 89.58691
1017.733, 105.7959
1018.215, 105.1392
1018.697, 78.63086
1019.180, 53.78809
1019.662, 41.53711
1020.144, 35.46484
1020.626, 31.03516
1021.108, 28.17725
1021.590, 30.18750
1022.072, 37.37793
1022.554, 41.86914
1023.036, 34.62061
1023.519, 24.70459
1024.001, 22.26172
1024.483, 25.71387
1024.965, 27.76074
1025.447, 22.17480
1025.929, 21.42822
1026.411, 31.39990
1026.893, 45.27393
1027.375, 48.97559
1027.858, 45.65234
1028.340, 48.60303
1028.822, 62.28564
1029.304, 72.85596
1029.786, 68.65137
1030.268, 59.91455
1030.750, 54.12500
1031.232, 51.38379
1031.715, 54.15674
1032.197, 63.79639
1032.679, 69.80469
1033.161, 64.77539
1033.643, 53.18408
1034.125, 34.34180
1034.607, 14.26025
1035.089, 10.23486
1035.572, 44.26025
1036.054, 74.26123
1036.536, 97.65527
1037.018, 109.6445
1037.500, 95.51953
1037.982, 60.05371
1038.464, 43.80957
1038.946, 53.56152
1039.428, 62.01709
1039.911, 38.89209
1040.393, 13.21826
1040.875, 11.56152
1041.357, 35.59473
1041.839, 49.62061
1042.321, 53.38086
1042.803, 50.24609
1043.285, 35.38477
1043.767, 21.30469
1044.250, 40.94336
1044.732, 78.14990
1045.214, 97.11328
1045.696, 65.99414
1046.178, 42.19824
1046.660, 37.34131
1047.142, 41.96289
1047.624, 50.84863
1048.107, 63.12207
1048.589, 59.91846
1049.071, 40.16650
1049.553, 25.31299
1050.035, 45.95068
1050.517, 65.75977
1050.999, 48.05176
1051.481, 0.9985350
1051.964, 19.51758
1052.446, 2.494629
1052.928, 26.25098
1053.410, 43.85498
1053.892, 56.83984
1054.374, 70.90820
1054.856, 80.65332
1055.338, 73.03613
1055.820, 35.46631
1056.302, 7.149414
1056.785, 1.260254
1057.267, 2.679688
1057.749, 20.22900
1058.231, 49.31006
1058.713, 57.95605
1059.195, 47.42920
1059.677, 34.16943
1060.159, 23.40674
1060.642, 18.13525
1061.124, 26.65332
1061.606, 41.51270
1062.088, 41.10156
1062.570, 15.96484
1063.052, 10.25586
1063.534, 36.16406
1064.016, 60.35107
1064.499, 23.43457
1064.981, 33.62061
1065.463, 35.18994
1065.945, 32.89160
1066.427, 81.67578
1066.909, 71.54102
1067.391, 55.43750
1067.873, 50.98193
1068.355, 55.30322
1068.838, 62.85205
1069.320, 71.07764
1069.802, 64.86426
1070.284, 24.46631
1070.766, 7.752930
1071.248, 4.572266
1071.730, 17.07471
1072.212, 38.16797
1072.694, 62.31201
1073.177, 66.64258
1073.659, 48.30029
1074.141, 30.63428
1074.623, 35.38379
1075.105, 49.22949
1075.587, 54.88916
1076.069, 53.93604
1076.551, 58.18750
1077.034, 79.75977
1077.516, 91.28760
1077.998, 86.66309
1078.480, 72.45068
1078.962, 55.15820
1079.444, 37.53857
1079.926, 31.15039
1080.408, 40.50195
1080.891, 45.64746
1081.373, 25.78711
1081.855, 8.677246
1082.337, 13.69482
1082.819, 37.89502
1083.301, 44.26953
1083.783, 33.10010
1084.265, 30.18896
1084.747, 56.84814
1085.229, 83.13672
1085.712, 76.57715
1086.194, 52.91162
1086.676, 37.11572
1087.158, 33.68652
1087.640, 34.57910
1088.122, 40.61328
1088.604, 47.82617
1089.086, 54.56592
1089.569, 59.27637
1090.051, 58.17725
1090.533, 51.88086
1091.015, 44.93506
1091.497, 37.50049
1091.979, 31.15186
1092.461, 23.13721
1092.943, 19.47070
1093.426, 40.44971
1093.908, 78.16797
1094.390, 88.56006
1094.872, 59.31836
1095.354, 31.17773
1095.836, 30.12744
1096.318, 40.25293
1096.800, 52.43652
1097.282, 65.94580
1097.765, 74.78223
1098.247, 78.86768
1098.729, 79.20020
1099.211, 75.54248
1099.693, 69.34570
1100.175, 61.99951
1100.657, 53.18066
1101.139, 41.81934
1101.622, 18.73193
1102.104, 15.05273
1102.586, 38.19922
1103.068, 58.87988
1103.550, 42.35059
1104.032, 10.86865
1104.514, 15.14502
1104.996, 48.49609
1105.479, 72.56006
1105.961, 72.53760
1106.443, 59.43896
1106.925, 27.28271
1107.407, 6.173340
1107.889, 4.871094
1108.371, 22.69092
1108.853, 29.00830
1109.335, 5.508789
1109.818, 14.33154
1110.300, 0.3125000
1110.782, 20.69336
1111.264, 31.32080
1111.746, 32.78613
1112.228, 25.96338
1112.710, 10.48242
1113.192, 0.1650390
1113.674, 0.1010740
1114.157, 5.687500
1114.639, 12.95898
1115.121, 20.23291
1115.603, 26.84473
1116.085, 34.59375
1116.567, 33.34619
1117.049, 20.19141
1117.531, 9.702637
1118.014, 14.55908
1118.496, 25.93555
1118.978, 29.12598
1119.460, 26.67627
1119.942, 25.15234
1120.424, 26.74121
1120.906, 29.10596
1121.388, 31.55273
1121.870, 35.66211
1122.353, 47.99609
1122.835, 60.61377
1123.317, 53.04834
1123.799, 28.56396
1124.281, 12.95508
1124.763, 31.72900
1125.245, 49.16406
1125.727, 50.75830
1126.209, 43.43359
1126.692, 43.15723
1127.174, 48.99951
1127.656, 52.26221
1128.138, 50.85938
1128.620, 47.57275
1129.102, 48.31934
1129.584, 46.98535
1130.066, 33.59326
1130.549, 10.13818
1131.031, 9.145996
1131.513, 33.25293
1131.995, 48.45801
1132.477, 32.87012
1132.959, 16.75293
1133.441, 42.99414
1133.923, 82.85400
1134.406, 93.87793
1134.888, 59.44092
1135.370, 32.00488
1135.852, 11.37891
1136.334, 0.7651370
1136.816, 1.718750
1137.298, 5.471680
1137.780, 18.68701
1138.262, 35.95605
1138.745, 51.38623
1139.227, 64.70703
1139.709, 74.10156
1140.191, 80.16260
1140.673, 81.04395
1141.155, 71.13232
1141.637, 55.14893
1142.119, 44.72900
1142.601, 40.41113
1143.084, 39.39355
1143.566, 42.72852
1144.048, 44.27441
1144.530, 40.53857
1145.012, 36.92871
1145.494, 49.30762
1145.976, 72.31787
1146.458, 78.65869
1146.941, 61.43750
1147.423, 44.32031
1147.905, 42.18555
1148.387, 42.94922
1148.869, 39.89258
1149.351, 33.54883
1149.833, 24.62402
1150.315, 13.80322
1150.797, 12.02734
1151.280, 26.61865
1151.762, 41.92334
1152.244, 43.00244
1152.726, 41.31250
1153.208, 51.22656
1153.690, 75.63867
1154.172, 77.88623
1154.654, 57.03223
1155.136, 36.17432
1155.619, 20.89404
1156.101, 19.39893
1156.583, 56.66943
1157.065, 108.4966
1157.547, 127.7627
1158.029, 98.78271
1158.511, 77.16357
1158.993, 63.94336
1159.476, 59.91211
1159.958, 77.87939
1160.440, 97.91260
1160.922, 89.66357
1161.404, 60.01709
1161.886, 38.98535
1162.368, 35.89551
1162.850, 31.74756
1163.333, 22.45117
1163.815, 13.47119
1164.297, 14.25879
1164.779, 21.09717
1165.261, 28.06445
1165.743, 35.23340
1166.225, 41.16553
1166.707, 44.54688
1167.189, 46.12549
1167.672, 43.98047
1168.154, 42.94385
1168.636, 53.11865
1169.118, 66.24072
1169.600, 61.59814
1170.082, 32.78125
1170.564, 6.841797
1171.046, 11.24609
1171.528, 19.74219
1172.011, 15.42090
1172.493, 2.457520
1172.975, 10.80420
1173.457, 23.09180
1173.939, 30.57764
1174.421, 31.91553
1174.903, 29.41113
1175.385, 17.46729
1175.868, 10.39795
1176.350, 19.78271
1176.832, 41.79395
1177.314, 52.26416
1177.796, 52.60645
1178.278, 49.91602
1178.760, 45.23828
1179.242, 40.62012
1179.724, 36.72998
1180.207, 34.15967
1180.689, 32.20654
1181.171, 30.98926
1181.653, 44.01025
1182.135, 69.55273
1182.617, 83.06641
1183.099, 55.10791
1183.581, 26.86475
1184.063, 22.00146
1184.546, 29.36670
1185.028, 31.61182
1185.510, 28.36621
1185.992, 38.27441
1186.474, 62.97656
1186.956, 77.80908
1187.438, 56.41309
1187.920, 27.42529
1188.403, 4.824219
1188.885, 9.279297
1189.367, 9.778809
1189.849, 4.086914
1190.331, 17.70117
1190.813, 28.48242
1191.295, 44.73828
1191.777, 85.42920
1192.260, 119.8345
1192.742, 115.5894
1193.224, 80.89502
1193.706, 70.89697
1194.188, 88.78955
1194.670, 96.41699
1195.152, 83.40967
1195.634, 65.22656
1196.116, 52.10596
1196.599, 44.79541
1197.081, 46.71924
1197.563, 57.55811
1198.045, 63.41602
1198.527, 64.72119
1199.009, 56.14844
1199.491, 31.61719
1199.973, 6.881836
1200.455, 4.602539
1200.938, 4.806641
1201.420, 9.220703
1201.902, 40.86182
1202.384, 47.00488
1202.866, 23.88379
1203.348, 4.210449
1203.830, 5.421387
1204.312, 15.52734
1204.795, 26.23340
1205.277, 34.90039
1205.759, 37.09912
1206.241, 30.42822
1206.723, 26.17920
1207.205, 24.80664
1207.687, 22.62207
1208.169, 12.67041
1208.651, 4.841797
1209.134, 14.94238
1209.616, 34.15820
1210.098, 44.86328
1210.580, 45.04639
1211.062, 36.55811
1211.544, 16.88623
1212.026, 4.395020
1212.508, 21.05176
1212.990, 44.62646
1213.473, 47.54395
1213.955, 37.03613
1214.437, 35.65332
1214.919, 52.56348
1215.401, 50.48730
1215.883, 22.54395
1216.365, 1.239258
1216.847, 14.97168
1217.330, 42.20947
1217.812, 49.67676
1218.294, 39.61426
1218.776, 26.98047
1219.258, 11.19775
1219.740, 1.665039
1220.222, 11.76416
1220.704, 13.82910
1221.187, 4.861328
1221.669, 28.97266
1222.151, 40.88037
1222.633, 41.60449
1223.115, 48.04785
1223.597, 62.54883
1224.079, 75.74512
1224.561, 86.87842
1225.043, 91.91846
1225.526, 79.56836
1226.008, 63.63965
1226.490, 60.00488
1226.972, 69.48096
1227.454, 76.99658
1227.936, 84.69922
1228.418, 74.53174
1228.900, 34.64893
1229.382, 0.1342770
1229.865, 27.98877
1230.347, 70.38379
1230.829, 65.83496
1231.311, 10.06982
1231.793, 9.871582
1232.275, 11.31738
1232.757, 25.70312
1233.239, 15.71777
1233.722, 1.679688
1234.204, 9.207031
1234.686, 21.79199
1235.168, 17.84375
1235.650, 4.016113
1236.132, 5.141602
1236.614, 16.10498
1237.096, 36.25537
1237.578, 45.93018
1238.061, 52.45117
1238.543, 66.43799
1239.025, 79.02588
1239.507, 79.26318
1239.989, 67.12939
1240.471, 50.90283
1240.953, 30.48096
1241.435, 16.68115
1241.917, 17.49658
1242.400, 21.27979
1242.882, 12.95117
1243.364, 6.915039
1243.846, 21.92725
1244.328, 59.58936
1244.810, 74.08887
1245.292, 66.37158
1245.774, 62.38477
1246.257, 86.09863
1246.739, 99.93213
1247.221, 70.12207
1247.703, 26.02490
1248.185, 5.672363
1248.667, 25.46094
1249.149, 16.03223
1249.631, 19.39551
1250.114, 49.29736
1250.596, 55.41846
1251.078, 52.46582
1251.560, 41.88135
1252.042, 30.01562
1252.524, 23.42383
1253.006, 21.81787
1253.488, 16.22852
1253.970, 7.948730
1254.453, 6.627930
1254.935, 29.00732
1255.417, 44.34717
1255.899, 31.97168
1256.381, 16.87354
1256.863, 29.01221
1257.345, 60.75049
1257.827, 58.53516
1258.310, 26.96777
1258.792, 2.014648
1259.274, 6.510742
1259.756, 13.57764
1260.238, 17.48584
1260.720, 20.60645
1261.202, 25.90869
1261.684, 31.66992
1262.167, 30.01758
1262.649, 22.52734
1263.131, 18.21240
1263.613, 19.73682
1264.095, 27.84521
1264.577, 46.09863
1265.059, 63.22461
1265.541, 61.74023
1266.023, 52.50879
1266.505, 66.10205
1266.988, 95.75781
1267.470, 103.2769
1267.952, 60.43018
1268.434, 24.40234
1268.916, 2.684570
1269.398, 14.69385
1269.880, 17.35352
1270.362, 61.40332
1270.845, 66.17383
1271.327, 39.80615
1271.809, 34.34961
1272.291, 64.03564
1272.773, 88.17725
1273.255, 103.2119
1273.737, 105.2163
1274.219, 74.50879
1274.702, 41.40967
1275.184, 46.73584
1275.666, 79.92285
1276.148, 81.23096
1276.630, 41.02441
1277.112, 15.71338
1277.594, 13.62012
1278.076, 28.49072
1278.558, 78.13428
1279.041, 121.8940
1279.523, 118.9209
1280.005, 85.06152
1280.487, 62.75049
1280.969, 52.32178
1281.451, 42.11279
1281.933, 30.71338
1282.415, 23.13916
1282.897, 21.46826
1283.380, 23.97461
1283.862, 40.06055
1284.344, 61.25488
1284.826, 70.54199
1285.308, 68.78125
1285.790, 59.79834
1286.272, 44.17920
1286.754, 30.19531
1287.237, 17.84521
1287.719, 14.79297
1288.201, 26.02100
1288.683, 43.21875
1289.165, 54.42383
1289.647, 59.42871
1290.129, 53.91357
1290.611, 38.34131
1291.094, 29.77246
1291.576, 41.86035
1292.058, 49.89893
1292.540, 48.57373
1293.022, 42.69482
1293.504, 36.73145
1293.986, 30.64014
1294.468, 29.13135
1294.950, 30.74463
1295.432, 28.87939
1295.915, 17.51660
1296.397, 21.26123
1296.879, 48.60303
1297.361, 75.48975
1297.843, 74.41748
1298.325, 58.85303
1298.807, 35.59131
1299.289, 9.735840
1299.772, 7.576660
1300.254, 32.61768
1300.736, 50.82422
1301.218, 56.46777
1301.700, 55.54980
1302.182, 47.80615
1302.664, 40.67236
1303.146, 42.45752
1303.629, 48.24365
1304.111, 44.35547
1304.593, 32.23535
1305.075, 31.96729
1305.557, 46.64746
1306.039, 60.25244
1306.521, 64.04248
1307.003, 62.35352
1307.485, 55.39746
1307.968, 46.87939
1308.450, 39.58838
1308.932, 36.77295
1309.414, 56.55029
1309.896, 99.05127
1310.378, 120.4214
1310.860, 84.51514
1311.342, 54.28125
1311.824, 41.09277
1312.307, 39.64160
1312.789, 50.76172
1313.271, 64.66846
1313.753, 62.43799
1314.235, 44.99170
1314.717, 37.67139
1315.199, 48.40381
1315.681, 44.91553
1316.164, 17.29834
1316.646, 0.6494140
1317.128, 36.19043
1317.610, 0.0000000E+00
##END=



