##NAMES=Hammarite
##RRUFFID=R110028
##IDEAL CHEMISTRY=Cu^1+^_2_Pb^2+^_2_Bi^3+^_4_S^2-^_9_
##LOCALITY=Baita Mining District (Baita Bihor; Rezbanya), Nucet, Bihor Co., Romania
##OWNER=RRUFF
##SOURCE=Bob Jenkins 
##DESCRIPTION=Steel-gray parallel aggregates of prismatic crystals
##STATUS=The identification of this mineral has been confirmed only by single crystal X-ray diffraction.
##URL=rruff.info/R110028
168.6560, 0.0000000E+00
169.1381, 0.2990090
169.6203, 0.3626060
170.1024, 0.7785380
170.5845, 2.492451
171.0666, 3.920161
171.5487, 4.385593
172.0309, 3.679385
172.5130, 2.551736
172.9951, 3.375903
173.4772, 5.264925
173.9593, 9.812917
174.4414, 6.459038
174.9236, 2.992712
175.4057, 4.582992
175.8878, 11.29841
176.3699, 17.25315
176.8520, 16.96602
177.3341, 12.31419
177.8163, 7.320936
178.2984, 1.986624
178.7805, 2.085017
179.2626, 1.386563
179.7447, 4.440632
180.2268, 10.93356
180.7090, 12.93808
181.1911, 11.74482
181.6732, 11.30637
182.1553, 15.16348
182.6374, 20.76894
183.1195, 21.59849
183.6017, 16.78797
184.0838, 11.45277
184.5659, 13.04829
185.0480, 20.06478
185.5301, 24.90273
186.0123, 20.78386
186.4944, 11.32890
186.9765, 9.206223
187.4586, 16.10511
187.9407, 25.48801
188.4228, 27.96170
188.9050, 24.14480
189.3871, 19.75202
189.8692, 17.89268
190.3513, 18.06300
190.8334, 17.21488
191.3155, 14.89852
191.7977, 12.35504
192.2798, 12.32750
192.7619, 14.81156
193.2440, 15.98480
193.7261, 11.96355
194.2082, 3.545788
194.6904, 0.8954620
195.1725, 6.038162
195.6546, 14.14657
196.1367, 15.12881
196.6188, 8.417404
197.1009, 2.391576
197.5831, 2.787807
198.0652, 9.565158
198.5473, 12.69821
199.0294, 10.59661
199.5115, 6.087660
199.9937, 5.477536
200.4758, 9.420580
200.9579, 13.08304
201.4400, 13.46676
201.9221, 10.30497
202.4042, 7.460069
202.8864, 4.845177
203.3685, 2.949784
203.8506, 3.514560
204.3327, 7.244096
204.8148, 10.55053
205.2969, 11.25067
205.7791, 8.976025
206.2612, 6.764292
206.7433, 4.703766
207.2254, 2.866858
207.7075, 1.409902
208.1896, 0.2926160
208.6718, 0.3447490
209.1539, 0.6379750
209.6360, 0.8279310
210.1181, 0.7054300
210.6002, 4.689867
211.0823, 10.09163
211.5645, 14.18366
212.0466, 17.09162
212.5287, 18.43018
213.0108, 17.68510
213.4929, 14.25751
213.9750, 10.98245
214.4572, 7.588654
214.9393, 4.612739
215.4214, 3.949634
215.9035, 6.783146
216.3856, 9.523781
216.8678, 9.731233
217.3499, 5.918110
217.8320, 4.666181
218.3141, 7.382258
218.7962, 12.53390
219.2783, 15.23025
219.7605, 14.68076
220.2426, 13.07605
220.7247, 11.43576
221.2068, 9.639390
221.6889, 8.130933
222.1710, 6.819525
222.6532, 5.840116
223.1353, 5.856518
223.6174, 7.742522
224.0995, 9.162592
224.5816, 8.737256
225.0637, 5.388833
225.5459, 2.845809
226.0280, 0.9309140
226.5101, 3.8809001E-02
226.9922, 1.298867
227.4743, 6.925910
227.9564, 11.75923
228.4386, 12.84927
228.9207, 7.376093
229.4028, 5.177535
229.8849, 8.098752
230.3670, 13.96517
230.8492, 16.63429
231.3313, 14.69176
231.8134, 11.64854
232.2955, 8.821750
232.7776, 5.552165
233.2597, 4.335495
233.7419, 5.827622
234.2240, 8.829570
234.7061, 11.01408
235.1882, 11.91462
235.6703, 12.70940
236.1524, 14.19353
236.6346, 17.75830
237.1167, 18.22108
237.5988, 13.95460
238.0809, 7.184223
238.5630, 3.418965
239.0451, 3.565365
239.5273, 5.422171
240.0094, 8.615505
240.4915, 14.82463
240.9736, 17.80584
241.4557, 16.09514
241.9378, 11.83405
242.4200, 9.578035
242.9021, 10.60406
243.3842, 11.59996
243.8663, 11.01512
244.3484, 7.587966
244.8306, 6.493182
245.3127, 8.809731
245.7948, 12.88951
246.2769, 15.85315
246.7590, 17.59057
247.2411, 18.14149
247.7233, 17.15474
248.2054, 13.86902
248.6875, 11.79805
249.1696, 10.70432
249.6517, 10.98577
250.1338, 13.83471
250.6160, 21.72695
251.0981, 27.72374
251.5802, 29.15774
252.0623, 24.98771
252.5444, 21.58461
253.0265, 18.66743
253.5087, 16.77902
253.9908, 17.01154
254.4729, 20.56636
254.9550, 23.78850
255.4371, 25.49190
255.9192, 25.40077
256.4014, 26.04993
256.8835, 28.12437
257.3656, 30.25911
257.8477, 30.55872
258.3298, 27.80687
258.8120, 25.99640
259.2941, 26.52467
259.7762, 29.61620
260.2583, 31.24045
260.7404, 31.16047
261.2225, 29.92657
261.7047, 27.87157
262.1868, 24.27814
262.6689, 21.87277
263.1510, 21.09498
263.6331, 21.93485
264.1152, 24.17100
264.5974, 29.26929
265.0795, 33.46491
265.5616, 32.26269
266.0437, 23.43499
266.5258, 16.54820
267.0079, 13.61538
267.4901, 14.22664
267.9722, 15.07395
268.4543, 16.17731
268.9364, 17.53592
269.4185, 18.87938
269.9006, 20.27330
270.3828, 22.02998
270.8649, 24.84120
271.3470, 28.00776
271.8291, 27.81051
272.3112, 23.19539
272.7933, 17.95887
273.2755, 14.82262
273.7576, 13.97324
274.2397, 13.98973
274.7218, 15.26830
275.2039, 16.99345
275.6860, 16.18099
276.1682, 12.20082
276.6503, 8.608782
277.1324, 7.366092
277.6145, 8.893294
278.0966, 10.86254
278.5787, 13.35999
279.0609, 15.89903
279.5430, 17.48011
280.0251, 18.10716
280.5072, 17.75890
280.9893, 15.96332
281.4715, 12.80733
281.9536, 10.33651
282.4357, 8.575283
282.9178, 7.620471
283.3999, 8.230636
283.8820, 10.55473
284.3642, 11.76031
284.8463, 9.221049
285.3284, 3.493535
285.8105, 1.833537
286.2926, 5.111963
286.7747, 9.736827
287.2569, 10.22603
287.7390, 6.757986
288.2211, 4.130382
288.7032, 5.531753
289.1853, 3.483103
289.6674, 3.677094
290.1496, 3.519040
290.6317, 2.556959
291.1138, 3.462935
291.5959, 3.521080
292.0780, 3.374215
292.5602, 4.628955
293.0423, 4.571372
293.5244, 4.826519
294.0065, 5.394569
294.4886, 6.276814
294.9707, 8.060348
295.4529, 10.30333
295.9350, 11.31458
296.4171, 10.29057
296.8992, 8.159637
297.3813, 6.330295
297.8634, 4.815154
298.3456, 3.690469
298.8277, 3.185158
299.3098, 3.117270
299.7919, 2.913648
300.2740, 2.018553
300.7561, 1.740001
301.2383, 5.450809
301.7204, 12.03658
302.2025, 16.14550
302.6846, 10.87229
303.1667, 2.101614
303.6488, 0.9044340
304.1310, 4.685910
304.6131, 12.16425
305.0952, 15.52183
305.5773, 15.50774
306.0594, 14.18588
306.5415, 11.97821
307.0237, 9.591568
307.5058, 7.684109
307.9879, 6.324546
308.4700, 5.495745
308.9521, 5.650227
309.4343, 6.314027
309.9164, 6.529510
310.3985, 4.805508
310.8806, 3.327196
311.3627, 4.449059
311.8448, 8.315319
312.3270, 11.35486
312.8091, 10.68559
313.2912, 8.261104
313.7733, 6.472688
314.2554, 6.989074
314.7375, 7.951976
315.2197, 8.559265
315.7018, 8.815115
316.1839, 8.794959
316.6660, 8.808056
317.1481, 8.415746
317.6302, 7.230145
318.1124, 4.442815
318.5945, 1.744176
319.0766, 0.9378950
319.5587, 0.1379262
320.0408, -0.3289248
320.5229, 1.726507
321.0051, 1.519756
321.4872, 4.955134
321.9693, 9.214301
322.4514, 12.13755
322.9335, 12.73585
323.4156, 11.74801
323.8978, 10.59739
324.3799, 9.889832
324.8620, 8.746180
325.3441, 6.288498
325.8262, 1.179642
326.3083, 1.119075
326.7905, 2.537220
327.2726, 8.349966
327.7547, 11.59728
328.2368, 9.792873
328.7189, 7.867231
329.2010, 6.771931
329.6832, 6.617780
330.1653, 6.134149
330.6474, 4.647546
331.1295, 3.317327
331.6116, 3.239852
332.0938, 6.412006
332.5759, 7.533371
333.0580, 4.626441
333.5401, 1.439853
334.0222, 3.655377
334.5043, 0.4063040
334.9865, 4.941458
335.4686, 6.185966
335.9507, 2.299316
336.4328, 0.2739320
336.9149, 1.278071
337.3970, 3.972850
337.8792, 4.434781
338.3613, 1.674129
338.8434, 0.5085330
339.3255, 0.1490830
339.8076, 2.915720
340.2898, 6.214746
340.7719, 10.30927
341.2540, 13.80831
341.7361, 14.03231
342.2182, 10.55953
342.7003, 7.819518
343.1825, 7.621955
343.6646, 9.566441
344.1467, 11.00081
344.6288, 11.87087
345.1109, 12.56750
345.5930, 14.02624
346.0752, 16.01504
346.5573, 16.17208
347.0394, 13.01256
347.5215, 8.469312
348.0036, 7.368778
348.4857, 9.499341
348.9679, 11.43559
349.4500, 10.32881
349.9321, 7.006408
350.4142, 4.317757
350.8963, 2.583278
351.3784, 1.872127
351.8606, 2.952062
352.3427, 5.355032
352.8248, 7.378289
353.3069, 7.479905
353.7890, 6.833743
354.2711, 7.371201
354.7533, 9.417199
355.2354, 11.00313
355.7175, 9.498873
356.1996, 6.465547
356.6817, 4.625950
357.1638, 6.714702
357.6460, 9.325898
358.1281, 9.775372
358.6102, 8.059450
359.0923, 5.762777
359.5744, 2.856693
360.0565, 0.3273080
360.5387, 0.7812490
361.0208, 1.159062
361.5029, 2.849988
361.9850, 1.765976
362.4671, 0.8982580
362.9492, 1.295034
363.4314, 5.533046
363.9135, 12.35674
364.3956, 14.88355
364.8777, 10.72517
365.3598, 6.587062
365.8419, 2.969337
366.3241, 0.4135840
366.8062, 0.2270160
367.2883, 3.750982
367.7704, 7.161509
368.2526, 8.592122
368.7347, 7.770029
369.2168, 6.259098
369.6989, 1.752643
370.1810, 1.992561
370.6631, 1.717690
371.1453, 6.639017
371.6274, 12.99964
372.1095, 16.02067
372.5916, 16.03709
373.0737, 15.12747
373.5558, 12.80926
374.0380, 10.27181
374.5201, 7.903571
375.0022, 5.270427
375.4843, 4.601135
375.9664, 6.997861
376.4485, 10.49018
376.9307, 10.56861
377.4128, 6.188908
377.8949, 2.585683
378.3770, 2.398614
378.8591, 5.419622
379.3412, 7.782563
379.8234, 9.507935
380.3055, 10.43365
380.7876, 9.987187
381.2697, 8.253569
381.7518, 6.724820
382.2339, 5.480334
382.7161, 4.924815
383.1982, 6.862559
383.6803, 11.16709
384.1624, 14.61025
384.6445, 14.24699
385.1266, 11.27707
385.6088, 8.820013
386.0909, 7.418371
386.5730, 6.395860
387.0551, 4.756766
387.5372, 2.837582
388.0193, 1.581285
388.5015, 1.508017
388.9836, 2.351757
389.4657, 4.511722
389.9478, 8.081709
390.4299, 10.44340
390.9120, 8.328663
391.3942, 4.312729
391.8763, 1.733806
392.3584, 3.614104
392.8405, 5.973999
393.3226, 6.902132
393.8047, 6.645169
394.2869, 6.180891
394.7690, 6.307749
395.2511, 6.098463
395.7332, 4.723181
396.2154, 0.7867710
396.6975, 1.713281
397.1796, 0.6438480
397.6617, 2.298721
398.1438, 4.107111
398.6259, 2.799191
399.1081, 1.881199
399.5902, 2.564745
400.0723, 5.180280
400.5544, 7.176139
401.0365, 8.879549
401.5186, 9.718601
402.0008, 8.927811
402.4829, 4.382811
402.9650, 2.387024
403.4471, 4.894826
403.9292, 10.47077
404.4113, 12.83901
404.8935, 11.01687
405.3756, 8.305667
405.8577, 5.989520
406.3398, 3.902631
406.8219, 3.992380
407.3040, 7.094185
407.7862, 10.81657
408.2683, 11.05827
408.7504, 7.679464
409.2325, 5.554219
409.7146, 7.112705
410.1967, 11.24348
410.6789, 12.90009
411.1610, 12.27292
411.6431, 10.93724
412.1252, 10.43087
412.6073, 10.31660
413.0894, 9.200468
413.5716, 6.537103
414.0537, 3.454993
414.5358, 0.9017020
415.0179, 0.9868740
415.5000, 1.851153
415.9821, 1.158445
416.4643, 2.632885
416.9464, 2.745191
417.4285, 5.615369
417.9106, 8.257568
418.3927, 10.96404
418.8748, 12.94860
419.3570, 12.98151
419.8391, 8.126904
420.3212, 3.627171
420.8033, 1.648792
421.2854, 2.096648
421.7675, 3.640957
422.2497, 8.290930
422.7318, 12.16673
423.2139, 12.79157
423.6960, 7.710517
424.1781, 4.170548
424.6602, 3.931242
425.1424, 5.471564
425.6245, 6.423881
426.1066, 6.419838
426.5887, 6.254709
427.0709, 6.132128
427.5530, 6.051870
428.0351, 5.295781
428.5172, 3.233494
428.9993, 1.887249
429.4814, 3.054469
429.9636, 8.024647
430.4457, 10.27615
430.9278, 8.448354
431.4099, 4.440372
431.8920, 2.398589
432.3741, 2.495691
432.8563, 3.094779
433.3384, 3.628922
433.8205, 4.078201
434.3026, 4.105558
434.7847, 3.621839
435.2668, 3.420742
435.7490, 5.108346
436.2311, 7.927244
436.7132, 8.938520
437.1953, 6.616020
437.6774, 3.207201
438.1595, 1.453950
438.6417, 1.184403
439.1238, 1.689110
439.6059, 3.770229
440.0880, 5.779362
440.5701, 5.367497
441.0522, 1.839035
441.5344, 0.9461480
442.0165, 0.4074210
442.4986, 3.583881
442.9807, 5.743134
443.4628, 4.947093
443.9449, 3.939475
444.4271, 3.845266
444.9092, 4.505408
445.3913, 4.932308
445.8734, 4.525480
446.3555, 4.091908
446.8376, 4.083832
447.3198, 4.978093
447.8019, 5.414386
448.2840, 5.374160
448.7661, 4.861860
449.2482, 3.691676
449.7303, 0.5283460
450.2125, 0.9029670
450.6946, 0.9989230
451.1767, 5.869555
451.6588, 7.792335
452.1409, 5.560168
452.6230, 3.217813
453.1052, 4.385554
453.5873, 9.525584
454.0694, 11.86939
454.5515, 10.29256
455.0337, 6.857161
455.5158, 4.165039
455.9979, 2.199289
456.4800, 1.504777
456.9621, 2.932596
457.4442, 5.602488
457.9264, 7.642610
458.4085, 9.048785
458.8906, 9.827320
459.3727, 9.789045
459.8548, 9.159670
460.3369, 8.214496
460.8191, 6.818885
461.3012, 5.561479
461.7833, 5.237107
462.2654, 5.389173
462.7475, 5.293178
463.2296, 3.299914
463.7118, 1.578924
464.1939, 1.892838
464.6760, 4.629236
465.1581, 7.025414
465.6402, 9.146909
466.1223, 9.939762
466.6045, 8.731083
467.0866, 0.1781890
467.5687, 3.848062
468.0508, 0.7860220
468.5329, 9.981338
469.0150, 14.88170
469.4972, 13.44022
469.9793, 10.92188
470.4614, 8.505163
470.9435, 6.123649
471.4256, 5.379749
471.9077, 6.817843
472.3899, 8.806016
472.8720, 9.915997
473.3541, 10.11624
473.8362, 9.957836
474.3183, 9.439550
474.8004, 8.686030
475.2826, 7.874093
475.7647, 7.039207
476.2468, 6.688057
476.7289, 7.999329
477.2110, 9.798344
477.6931, 8.694531
478.1753, 4.679728
478.6574, 1.321339
479.1395, 2.527884
479.6216, 5.997443
480.1037, 8.249700
480.5858, 7.825966
481.0680, 7.067120
481.5501, 7.835299
482.0322, 9.442600
482.5143, 10.44768
482.9964, 9.134431
483.4786, 8.084178
483.9607, 9.032304
484.4428, 12.27948
484.9249, 14.28678
485.4070, 13.89868
485.8892, 12.32222
486.3713, 10.34133
486.8534, 7.257175
487.3355, 4.888218
487.8176, 3.427929
488.2997, 2.661289
488.7819, 1.990462
489.2640, 0.9836780
489.7461, 1.142144
490.2282, 3.530947
490.7103, 7.934595
491.1924, 10.10507
491.6746, 9.739245
492.1567, 8.457781
492.6388, 7.602103
493.1209, 7.088727
493.6030, 6.004470
494.0851, 3.814631
494.5673, 2.119869
495.0494, 4.688396
495.5315, 10.12714
496.0136, 13.32008
496.4957, 9.425324
496.9778, 3.524955
497.4600, 1.317397
497.9421, 2.570751
498.4242, 4.478630
498.9063, 6.128913
499.3884, 7.217640
499.8705, 7.480170
500.3527, 6.213978
500.8348, 5.588855
501.3169, 7.257401
501.7990, 9.794346
502.2811, 11.19845
502.7632, 10.65728
503.2454, 9.421346
503.7275, 7.238979
504.2096, 4.290761
504.6917, 2.413922
505.1738, 1.695038
505.6559, 1.944979
506.1381, 3.494581
506.6202, 7.167998
507.1023, 8.525349
507.5844, 6.852850
508.0665, 4.123325
508.5486, 2.923193
509.0308, 3.238109
509.5129, 4.722975
509.9950, 8.208482
510.4771, 11.89514
510.9592, 10.54025
511.4413, 4.770522
511.9235, 0.5322850
512.4056, 4.246103
512.8877, 10.86580
513.3698, 12.04515
513.8519, 6.822504
514.3340, 1.559718
514.8162, 1.323337
515.2983, 3.564124
515.7804, 5.172201
516.2625, 3.834771
516.7446, 3.480307
517.2267, 7.371388
517.7089, 13.46914
518.1910, 16.71317
518.6731, 14.77909
519.1552, 10.98539
519.6373, 5.243372
520.1194, 3.034678
520.6016, 1.493095
521.0837, 4.171153
521.5658, 0.1505580
522.0479, 1.904402
522.5300, 4.2938001E-02
523.0121, 0.4122610
523.4943, 1.501808
523.9764, 0.7956064
524.4585, 1.285077
524.9406, 0.8975630
525.4227, 1.403522
525.9048, 0.9827990
526.3870, 1.307840
526.8691, 4.566120
527.3513, 8.658119
527.8334, 11.41904
528.3155, 9.792691
528.7976, 6.439387
529.2797, 5.768263
529.7618, 8.835690
530.2440, 11.31318
530.7261, 8.653274
531.2082, 4.139989
531.6903, 1.838884
532.1724, 5.714443
532.6545, 8.984937
533.1367, 8.437755
533.6188, 5.311693
534.1009, 4.048154
534.5830, 7.378924
535.0651, 10.68975
535.5472, 12.55066
536.0294, 12.87604
536.5115, 12.29865
536.9936, 10.08617
537.4757, 7.993234
537.9578, 7.777555
538.4399, 9.872327
538.9221, 11.03835
539.4042, 10.78640
539.8863, 9.737588
540.3684, 8.857794
540.8505, 8.142186
541.3326, 7.547744
541.8148, 7.226616
542.2969, 6.916470
542.7790, 5.668480
543.2611, 3.698670
543.7432, 2.664316
544.2253, 5.203400
544.7075, 8.442478
545.1896, 8.971547
545.6717, 5.785162
546.1538, 3.003531
546.6359, 3.217684
547.1180, 4.645696
547.6002, 5.393694
548.0823, 3.379352
548.5644, 2.543987
549.0465, 4.976455
549.5286, 9.162072
550.0107, 10.57212
550.4929, 7.100359
550.9750, 4.029994
551.4571, 3.253728
551.9392, 4.786613
552.4213, 5.353255
552.9034, 4.628357
553.3856, 3.964678
553.8677, 5.101688
554.3498, 7.749914
554.8319, 7.933886
555.3140, 4.746006
555.7961, 0.9393210
556.2783, 3.0438000E-02
556.7604, 1.420086
557.2425, 3.512129
557.7246, 6.270497
558.2067, 8.904991
558.6888, 10.62712
559.1710, 11.56288
559.6531, 12.10429
560.1352, 12.50955
560.6173, 12.51607
561.0994, 11.78188
561.5815, 10.16531
562.0637, 8.859076
562.5458, 8.126795
563.0279, 7.896042
563.5100, 7.891386
563.9921, 8.798738
564.4742, 9.076159
564.9564, 8.483849
565.4385, 7.411805
565.9206, 6.472048
566.4027, 5.671652
566.8848, 4.909965
567.3669, 3.772830
567.8491, 2.862809
568.3312, 5.045869
568.8133, 10.16373
569.2954, 14.25715
569.7775, 13.71950
570.2596, 10.69793
570.7418, 9.148285
571.2239, 9.327723
571.7060, 9.702411
572.1881, 9.457035
572.6702, 8.619081
573.1523, 6.989494
573.6345, 3.294443
574.1166, 1.066339
574.5987, 3.257780
575.0808, 7.454858
575.5629, 9.680418
576.0450, 6.877923
576.5272, 4.717413
577.0093, 4.600289
577.4914, 6.148352
577.9735, 6.502245
578.4556, 4.936836
578.9377, 4.025384
579.4199, 5.641475
579.9020, 9.606195
580.3841, 10.07307
580.8662, 6.572200
581.3483, 2.217236
581.8304, 0.3927610
582.3126, 1.428403
582.7947, 1.279665
583.2768, 0.1578000
583.7589, 1.904644
584.2410, 2.754616
584.7231, 3.016294
585.2053, 3.484140
585.6874, 4.962394
586.1696, 6.301401
586.6517, 7.252737
587.1338, 7.651038
587.6159, 6.808500
588.0980, 2.177350
588.5801, 1.622550
589.0623, 2.190053
589.5444, 1.063315
590.0265, 3.517090
590.5086, 4.984430
590.9907, 5.890628
591.4728, 6.496192
591.9550, 6.755817
592.4371, 7.018278
592.9192, 7.378692
593.4013, 7.577718
593.8834, 7.272995
594.3655, 6.475944
594.8477, 5.152238
595.3298, 2.848558
595.8119, 0.5969260
596.2940, 0.1838830
596.7761, 0.2953710
597.2582, 1.301872
597.7404, 2.900111
598.2225, 4.541431
598.7046, 6.066872
599.1867, 7.439179
599.6688, 7.969956
600.1509, 6.587241
600.6331, 4.934237
601.1152, 4.078148
601.5973, 4.480182
602.0794, 4.589293
602.5615, 3.802836
603.0436, 3.273975
603.5258, 4.852234
604.0079, 9.317778
604.4900, 11.41407
604.9721, 9.606483
605.4542, 6.011001
605.9363, 4.933691
606.4185, 6.140782
606.9006, 7.496502
607.3827, 7.956656
607.8648, 8.018087
608.3469, 8.423570
608.8290, 9.098727
609.3112, 9.601949
609.7933, 9.974441
610.2754, 9.868877
610.7575, 8.809567
611.2396, 6.616619
611.7217, 4.676369
612.2039, 2.875040
612.6860, 1.808764
613.1681, 2.014587
613.6502, 4.873969
614.1323, 6.557665
614.6144, 6.896730
615.0966, 6.236570
615.5787, 4.699283
616.0608, 1.952707
616.5429, 0.6047680
617.0250, 1.546732
617.5071, 3.908652
617.9893, 6.570592
618.4714, 9.270561
618.9535, 9.952485
619.4356, 5.012878
619.9177, 1.195361
620.3998, 2.527686
620.8820, 0.5894150
621.3641, 3.691227
621.8462, 4.109387
622.3283, 3.710685
622.8104, 3.937728
623.2925, 5.262254
623.7747, 6.039642
624.2568, 5.845806
624.7389, 5.054607
625.2210, 3.921793
625.7031, 1.164411
626.1852, 0.8401510
626.6674, 4.129786
627.1495, 8.670950
627.6316, 9.941948
628.1137, 7.806571
628.5958, 5.735970
629.0779, 4.698676
629.5601, 4.335605
630.0422, 3.977355
630.5243, 3.668184
631.0064, 3.603042
631.4885, 4.132580
631.9706, 4.792462
632.4528, 5.089898
632.9349, 5.045430
633.4170, 5.093611
633.8991, 6.113759
634.3812, 6.762636
634.8633, 5.980903
635.3455, 2.864107
635.8276, 0.9262950
636.3097, 0.5496650
636.7918, 1.103783
637.2739, 2.375069
637.7560, 4.533937
638.2382, 5.831943
638.7203, 6.056427
639.2024, 5.518476
639.6845, 4.310228
640.1666, 2.518898
640.6487, 1.237314
641.1309, 0.7160050
641.6130, 1.012606
642.0951, 2.978794
642.5772, 6.005947
643.0594, 8.293950
643.5415, 8.478781
644.0236, 8.108568
644.5057, 8.232519
644.9879, 8.767808
645.4700, 8.657417
645.9521, 6.559485
646.4342, 4.681187
646.9163, 4.327981
647.3984, 6.078090
647.8806, 6.395266
648.3627, 4.500720
648.8448, 2.637201
649.3269, 3.111641
649.8090, 5.918559
650.2911, 6.791010
650.7733, 5.064717
651.2554, 2.977345
651.7375, 3.781492
652.2196, 6.279780
652.7017, 7.430836
653.1838, 5.845615
653.6660, 3.748356
654.1481, 2.697052
654.6302, 2.361422
655.1123, 2.114049
655.5944, 1.371874
656.0765, 1.099403
656.5587, 2.014548
657.0408, 3.763633
657.5229, 4.725022
658.0050, 4.760119
658.4871, 4.132764
658.9692, 2.352067
659.4514, 0.2809490
659.9335, 0.1086710
660.4156, 3.861656
660.8977, 7.791869
661.3798, 9.987929
661.8619, 10.53842
662.3441, 9.252313
662.8262, 6.071255
663.3083, 2.937493
663.7904, 0.7784280
664.2725, 0.2015010
664.7546, 0.5406610
665.2368, 4.005715
665.7189, 6.727468
666.2010, 7.520838
666.6831, 7.006890
667.1652, 5.798194
667.6473, 3.008795
668.1295, 1.100252
668.6116, 0.3644480
669.0937, 0.4904690
669.5758, 0.9853400
670.0579, 1.887468
670.5400, 2.815306
671.0222, 3.700142
671.5043, 4.496431
671.9864, 5.233574
672.4685, 5.853889
672.9506, 6.072821
673.4327, 5.405500
673.9149, 4.500459
674.3970, 4.064477
674.8791, 4.004004
675.3612, 3.582947
675.8433, 1.245807
676.3254, 0.4699910
676.8076, 0.2129120
677.2897, 3.949982
677.7718, 6.191578
678.2539, 6.128806
678.7360, 5.817473
679.2181, 6.470327
679.7003, 8.243587
680.1824, 9.474167
680.6645, 10.26096
681.1466, 9.856775
681.6287, 6.314348
682.1108, 6.893984
682.5930, 2.800783
683.0751, 4.167696
683.5572, 3.657383
684.0393, 0.1433220
684.5214, 4.543130
685.0035, 7.797711
685.4857, 8.159559
685.9678, 7.729745
686.4499, 6.448174
686.9320, 4.785255
687.4141, 3.778626
687.8962, 3.805825
688.3784, 3.782161
688.8605, 3.403482
689.3426, 2.833750
689.8247, 2.532968
690.3068, 2.488567
690.7889, 3.008516
691.2711, 4.689192
691.7532, 6.831017
692.2353, 8.417026
692.7174, 9.329162
693.1995, 8.788115
693.6816, 4.389024
694.1638, 0.1735670
694.6459, 1.859637
695.1280, 0.3375180
695.6101, 1.414834
696.0922, 3.356607
696.5743, 4.739587
697.0565, 5.085478
697.5386, 4.096334
698.0207, 3.300439
698.5028, 2.583640
698.9849, 2.347372
699.4670, 3.467134
699.9492, 5.714378
700.4313, 6.447760
700.9135, 5.156664
701.3956, 3.494501
701.8777, 3.294266
702.3598, 3.944940
702.8419, 4.440192
703.3240, 4.580443
703.8062, 4.358024
704.2883, 3.219235
704.7704, 1.872922
705.2525, 1.374065
705.7346, 2.890576
706.2167, 3.968513
706.6989, 4.090261
707.1810, 3.761254
707.6631, 4.130028
708.1452, 5.269607
708.6273, 6.677896
709.1094, 8.402104
709.5916, 10.10496
710.0737, 10.91624
710.5558, 10.94946
711.0379, 10.82785
711.5200, 11.04463
712.0021, 11.13183
712.4843, 10.58652
712.9664, 9.499873
713.4485, 8.374488
713.9306, 7.485264
714.4127, 6.528655
714.8948, 5.186542
715.3770, 3.429365
715.8591, 2.462576
716.3412, 2.544844
716.8233, 2.906250
717.3054, 3.013481
717.7875, 2.918448
718.2697, 4.026801
718.7518, 6.155468
719.2339, 7.616946
719.7160, 6.667213
720.1981, 4.965005
720.6802, 5.677451
721.1624, 9.435620
721.6445, 12.57488
722.1266, 12.39701
722.6087, 10.94001
723.0908, 9.933339
723.5729, 10.09535
724.0551, 9.814445
724.5372, 8.903468
725.0193, 7.646025
725.5014, 6.061003
725.9835, 3.863240
726.4656, 3.357553
726.9478, 5.232446
727.4299, 7.636190
727.9120, 7.865070
728.3941, 6.419381
728.8762, 4.685587
729.3583, 2.592166
729.8405, 1.330821
730.3226, 2.460208
730.8047, 4.980433
731.2868, 7.202577
731.7689, 9.184645
732.2510, 10.17057
732.7332, 9.698705
733.2153, 8.184636
733.6974, 6.497434
734.1795, 3.851094
734.6616, 1.745240
735.1437, 0.7009930
735.6259, 0.7968980
736.1080, 2.928521
736.5901, 6.727820
737.0722, 8.862338
737.5543, 5.628640
738.0364, 1.508178
738.5186, 2.711743
739.0007, 7.756566
739.4828, 11.37818
739.9649, 10.14060
740.4470, 7.938390
740.9291, 6.132247
741.4113, 5.063839
741.8934, 5.659970
742.3755, 8.737393
742.8576, 11.20862
743.3397, 11.48707
743.8218, 9.932240
744.3040, 9.913251
744.7861, 11.48827
745.2682, 12.30612
745.7503, 9.136519
746.2324, 4.854574
746.7145, 4.866272
747.1967, 9.043026
747.6788, 12.72029
748.1609, 14.04265
748.6430, 13.43347
749.1251, 10.20581
749.6072, 3.140297
750.0894, 0.1290820
750.5715, 3.644978
751.0536, 8.249362
751.5357, 10.69921
752.0178, 10.89767
752.4999, 10.01824
752.9821, 8.152540
753.4642, 5.905756
753.9463, 3.245542
754.4284, 0.8274300
754.9105, 9.2685997E-02
755.3926, 1.298019
755.8748, 3.336413
756.3569, 6.743326
756.8390, 9.928082
757.3211, 11.50038
757.8032, 10.60260
758.2853, 9.068845
758.7675, 5.929305
759.2496, 3.309955
759.7318, 3.643247
760.2139, 7.528609
760.6960, 9.563786
761.1781, 9.017492
761.6602, 7.616566
762.1423, 7.493278
762.6245, 8.152776
763.1066, 8.325611
763.5887, 7.577063
764.0708, 6.848453
764.5529, 6.826562
765.0350, 7.188494
765.5172, 7.551612
765.9993, 7.807158
766.4814, 8.124987
766.9635, 8.888187
767.4456, 9.437320
767.9277, 8.597722
768.4099, 5.989680
768.8920, 4.659091
769.3741, 5.439594
769.8562, 6.772953
770.3383, 5.997206
770.8204, 3.904929
771.3026, 2.685498
771.7847, 3.331097
772.2668, 4.435954
772.7489, 5.225064
773.2310, 5.805001
773.7131, 6.333359
774.1953, 8.578781
774.6774, 8.252653
775.1595, 2.622764
775.6416, 4.408219
776.1237, 4.799185
776.6058, 2.509459
777.0880, 8.356149
777.5701, 10.48401
778.0522, 10.18190
778.5343, 8.852536
779.0164, 6.803982
779.4985, 4.899925
779.9807, 3.196708
780.4628, 2.132333
780.9449, 2.248854
781.4270, 3.175551
781.9091, 4.140906
782.3912, 4.800336
782.8734, 5.780872
783.3555, 7.530185
783.8376, 9.485169
784.3197, 9.886292
784.8018, 8.538694
785.2839, 8.180369
785.7661, 10.26756
786.2482, 12.90894
786.7303, 12.69318
787.2124, 10.36298
787.6945, 8.030429
788.1766, 5.743521
788.6588, 4.643115
789.1409, 7.238650
789.6230, 4.297631
790.1051, 11.45479
790.5872, 1.934278
791.0693, 4.572345
791.5515, 4.713627
792.0336, 0.6897700
792.5157, 0.9375220
792.9978, 0.1504640
793.4799, 0.4705050
793.9620, 3.581542
794.4442, 8.058431
794.9263, 13.20459
795.4084, 18.10857
795.8905, 20.31778
796.3726, 16.88748
796.8547, 12.47066
797.3369, 8.409132
797.8190, 4.908179
798.3011, 2.135093
798.7832, 0.4788270
799.2653, 0.8280330
799.7474, 2.540909
800.2296, 7.814533
800.7117, 9.713501
801.1938, 8.483730
801.6759, 6.728223
802.1580, 4.818624
802.6401, 3.704944
803.1223, 5.175671
803.6044, 8.368552
804.0865, 11.01810
804.5686, 12.34800
805.0507, 12.91376
805.5328, 12.54190
806.0150, 11.68934
806.4971, 11.81920
806.9792, 13.77159
807.4613, 13.75293
807.9434, 9.742248
808.4255, 4.199123
808.9077, 2.732564
809.3898, 4.726120
809.8719, 7.471832
810.3540, 11.09172
810.8361, 13.60114
811.3182, 12.39721
811.8004, 8.923810
812.2825, 6.579774
812.7646, 8.184391
813.2467, 8.506638
813.7288, 5.611868
814.2109, 1.178706
814.6931, 0.1888210
815.1752, 1.857204
815.6573, 3.679349
816.1394, 4.200535
816.6215, 4.024174
817.1037, 3.760583
817.5858, 3.611026
818.0679, 4.104768
818.5500, 6.110656
819.0322, 8.117767
819.5143, 9.706750
819.9964, 10.71396
820.4785, 10.60800
820.9606, 8.224762
821.4427, 7.069530
821.9249, 8.275173
822.4070, 10.35317
822.8891, 9.686377
823.3712, 6.609735
823.8533, 5.051822
824.3354, 6.849345
824.8176, 9.039380
825.2997, 7.170155
825.7818, 3.618585
826.2639, 2.386818
826.7460, 8.868358
827.2281, 12.87448
827.7103, 9.373742
828.1924, 3.417983
828.6745, 2.005992
829.1566, 6.656610
829.6387, 9.665483
830.1208, 9.540213
830.6030, 8.257439
831.0851, 9.071011
831.5672, 11.18223
832.0493, 12.39284
832.5314, 12.02017
833.0135, 10.85538
833.4957, 8.244529
833.9778, 5.517402
834.4599, 4.231969
834.9420, 5.116618
835.4241, 6.090549
835.9063, 7.372741
836.3884, 8.469327
836.8705, 8.465601
837.3526, 7.415314
837.8347, 7.517045
838.3168, 9.242455
838.7990, 11.03714
839.2811, 11.46176
839.7632, 10.87514
840.2453, 9.573978
840.7274, 7.242249
841.2095, 5.491595
841.6917, 5.018392
842.1738, 5.261080
842.6559, 5.817497
843.1380, 6.849164
843.6201, 7.768582
844.1022, 8.572398
844.5844, 8.832708
845.0665, 7.473260
845.5486, 5.266985
846.0307, 4.593866
846.5128, 5.692256
846.9949, 6.797899
847.4771, 6.573432
847.9592, 5.997016
848.4413, 5.891866
848.9234, 6.198662
849.4055, 5.960304
849.8876, 4.936985
850.3698, 4.206248
850.8519, 4.603148
851.3340, 6.031279
851.8161, 6.972342
852.2982, 7.418034
852.7803, 7.231066
853.2625, 6.008479
853.7446, 4.299760
854.2267, 1.904027
854.7088, 0.9081300
855.1909, 1.506661
855.6730, 3.911185
856.1552, 8.636657
856.6373, 10.00791
857.1194, 8.386960
857.6015, 6.255629
858.0836, 3.327685
858.5657, 1.255276
859.0479, 1.213295
859.5300, 2.227036
860.0121, 2.633765
860.4942, 2.490586
860.9763, 1.978146
861.4584, 0.5137190
861.9406, 1.598104
862.4227, 1.611384
862.9048, 7.639315
863.3869, 11.16719
863.8690, 11.56216
864.3511, 11.01392
864.8333, 9.830060
865.3154, 8.236982
865.7975, 6.443503
866.2796, 4.570912
866.7617, 3.172776
867.2438, 2.073242
867.7260, 1.663138
868.2081, 2.762540
868.6902, 4.522282
869.1723, 5.632795
869.6544, 5.297248
870.1365, 5.054713
870.6187, 5.103605
871.1008, 5.140744
871.5829, 4.647939
872.0650, 3.661344
872.5471, 2.721334
873.0292, 1.861398
873.5114, 1.787613
873.9935, 4.245541
874.4756, 7.501076
874.9577, 9.300118
875.4399, 8.910126
875.9220, 8.044680
876.4041, 6.194300
876.8862, 4.800675
877.3683, 5.216600
877.8505, 8.015281
878.3326, 8.303545
878.8147, 5.760579
879.2968, 3.067939
879.7789, 2.880248
880.2610, 3.958506
880.7432, 4.431432
881.2253, 4.160496
881.7074, 3.339460
882.1895, 3.072330
882.6716, 0.6957670
883.1537, 1.468905
883.6359, 1.160086
884.1180, 3.5115000E-02
884.6001, 2.129938
885.0822, 3.821139
885.5643, 4.009733
886.0464, 3.371151
886.5286, 3.667429
887.0107, 4.642159
887.4928, 5.240900
887.9749, 3.994844
888.4570, 3.456118
888.9391, 5.643088
889.4213, 9.219151
889.9034, 10.24802
890.3855, 7.362457
890.8676, 5.260189
891.3497, 4.868896
891.8318, 5.748486
892.3140, 7.790842
892.7961, 10.49798
893.2782, 11.84251
893.7603, 10.93948
894.2424, 9.159080
894.7245, 6.654078
895.2067, 4.271529
895.6888, 3.048102
896.1709, 4.055229
896.6530, 4.801244
897.1351, 5.167783
897.6172, 5.449376
898.0994, 6.259392
898.5815, 7.392875
899.0636, 7.070083
899.5457, 5.060891
900.0278, 2.842962
900.5099, 0.4644040
900.9921, 0.8026630
901.4742, 1.012924
901.9563, 6.760200
902.4384, 9.963992
902.9205, 8.562328
903.4026, 6.493324
903.8848, 5.401154
904.3669, 5.240365
904.8490, 6.033481
905.3311, 7.707998
905.8132, 8.465199
906.2953, 5.266294
906.7775, 2.130617
907.2596, 4.367326
907.7417, 10.28289
908.2238, 13.85514
908.7059, 10.94001
909.1880, 8.522018
909.6702, 8.357541
910.1523, 9.362142
910.6344, 8.910934
911.1165, 7.031303
911.5986, 4.882302
912.0807, 2.464389
912.5629, 0.6476380
913.0450, 1.198730
913.5271, 2.915572
914.0092, 3.707102
914.4913, 2.226261
914.9734, 1.216422
915.4556, 1.208455
915.9377, 1.704019
916.4198, 2.352924
916.9019, 3.170420
917.3840, 3.898650
917.8661, 4.535952
918.3483, 4.990266
918.8304, 4.676120
919.3125, 4.404306
919.7946, 5.635567
920.2767, 8.674787
920.7589, 10.46499
921.2410, 8.804841
921.7231, 7.080310
922.2052, 6.994797
922.6873, 4.826486
923.1694, 6.490899
923.6516, 1.857834
924.1337, 1.293243
924.6158, 0.5638460
925.0979, 3.993027
925.5800, 4.019779
926.0621, 1.971087
926.5443, 1.162647
927.0264, 4.277093
927.5085, 6.837928
927.9906, 8.179235
928.4727, 8.367040
928.9548, 6.967791
929.4370, 3.880959
929.9191, 2.295681
930.4012, 2.969837
930.8833, 4.625657
931.3654, 6.927286
931.8475, 8.929499
932.3297, 8.996764
932.8118, 6.030396
933.2939, 3.998254
933.7761, 4.327652
934.2582, 5.362195
934.7403, 6.222549
935.2224, 6.908588
935.7045, 7.700948
936.1866, 8.603448
936.6688, 9.681604
937.1509, 12.01193
937.6330, 13.83817
938.1151, 12.38804
938.5972, 8.318748
939.0793, 5.257259
939.5615, 5.616631
940.0436, 5.415132
940.5257, 3.241477
941.0078, 0.1658620
941.4899, 0.4397600
941.9720, 1.357351
942.4542, 2.823291
942.9363, 3.116270
943.4184, 3.015291
943.9005, 3.967594
944.3826, 4.834681
944.8647, 3.833882
945.3469, 1.803012
945.8290, 4.750669
946.3111, 4.070941
946.7932, 1.194789
947.2753, 3.773589
947.7574, 10.63016
948.2396, 13.62207
948.7217, 12.56136
949.2038, 9.984544
949.6859, 6.711672
950.1680, 3.679490
950.6501, 1.442096
951.1323, 9.3808003E-02
951.6144, 0.5524840
952.0965, 4.567200
952.5786, 7.393743
953.0607, 7.120031
953.5428, 4.986455
954.0250, 5.073417
954.5071, 6.911754
954.9892, 7.638932
955.4713, 5.427884
955.9534, 2.980648
956.4355, 2.324343
956.9177, 2.707242
957.3998, 3.035447
957.8819, 2.947164
958.3640, 3.288629
958.8461, 4.257092
959.3282, 5.238562
959.8104, 5.368478
960.2925, 4.809868
960.7746, 3.881958
961.2567, 2.617318
961.7388, 1.821442
962.2209, 1.922001
962.7031, 2.736313
963.1852, 4.628884
963.6673, 7.453625
964.1494, 8.710605
964.6315, 7.735166
965.1136, 7.853781
965.5958, 10.80511
966.0779, 14.23057
966.5600, 13.01067
967.0421, 8.920623
967.5242, 6.573836
968.0063, 9.312109
968.4885, 11.95617
968.9706, 12.98066
969.4527, 12.60400
969.9348, 10.80167
970.4169, 6.970906
970.8990, 4.964705
971.3812, 5.244451
971.8633, 5.999671
972.3454, 5.448809
972.8275, 4.223971
973.3096, 3.083816
973.7917, 2.120441
974.2739, 1.642916
974.7560, 1.274702
975.2381, 2.081933
975.7202, 5.400722
976.2023, 10.19432
976.6844, 10.60942
977.1666, 6.709690
977.6487, 3.474798
978.1308, 2.957799
978.6129, 3.955327
979.0950, 6.420243
979.5771, 9.202542
980.0593, 10.43496
980.5414, 8.155334
981.0235, 6.348409
981.5056, 4.834328
981.9877, 4.214314
982.4698, 6.327512
982.9520, 10.34532
983.4341, 11.21782
983.9162, 8.652175
984.3983, 5.489172
984.8804, 2.671301
985.3625, 0.9284660
985.8447, 1.643444
986.3268, 4.587985
986.8089, 5.077428
987.2910, 1.952132
987.7731, 0.3470530
988.2552, 0.1215190
988.7374, 1.395476
989.2195, 1.309184
989.7016, 0.4563700
990.1837, 1.233402
990.6658, 5.913758
991.1479, 9.434709
991.6301, 8.269779
992.1122, 5.788174
992.5944, 5.491797
993.0765, 8.117407
993.5586, 8.469319
994.0407, 6.169180
994.5228, 4.240541
995.0049, 6.753859
995.4871, 4.096443
995.9692, 8.665534
996.4513, 2.985308
996.9334, 0.5756370
997.4155, 1.726240
997.8976, 4.305570
998.3798, 5.960516
998.8619, 6.959936
999.3440, 8.236616
999.8261, 9.719921
1000.308, 9.747523
1000.790, 7.497019
1001.272, 5.058461
1001.755, 4.237505
1002.237, 4.114696
1002.719, 3.618143
1003.201, 1.966013
1003.683, 1.565254
1004.165, 3.340738
1004.647, 4.975164
1005.129, 3.990860
1005.612, 1.620814
1006.094, 2.509104
1006.576, 5.827191
1007.058, 7.703829
1007.540, 3.929640
1008.022, 0.7635360
1008.504, 1.888733
1008.986, 4.844334
1009.468, 5.221423
1009.951, 2.569639
1010.433, 0.7840730
1010.915, 0.3905980
1011.397, 1.245982
1011.879, 4.303246
1012.361, 7.887609
1012.843, 9.909300
1013.325, 9.930054
1013.807, 9.326323
1014.290, 7.700857
1014.772, 6.496120
1015.254, 6.637299
1015.736, 7.620445
1016.218, 7.223027
1016.700, 5.654483
1017.182, 4.066739
1017.664, 2.059405
1018.147, 1.388321
1018.629, 5.165755
1019.111, 10.18187
1019.593, 11.28816
1020.075, 6.415625
1020.557, 3.945983
1021.039, 4.848062
1021.521, 5.681252
1022.003, 1.595486
1022.486, 4.163843
1022.968, 5.286009
1023.450, 1.801741
1023.932, 1.708723
1024.414, 3.481421
1024.896, 4.971697
1025.378, 6.891121
1025.860, 8.777675
1026.343, 9.265869
1026.825, 8.401945
1027.307, 6.574350
1027.789, 3.267099
1028.271, 1.044963
1028.753, 3.381618
1029.235, 7.418708
1029.717, 10.18010
1030.199, 11.50144
1030.682, 10.05878
1031.164, 4.564825
1031.646, 0.1217460
1032.128, 0.2517100
1032.610, 2.337155
1033.092, 3.021098
1033.574, 2.238944
1034.056, 1.491841
1034.539, 1.083398
1035.021, 1.239275
1035.503, 2.439781
1035.985, 3.971366
1036.467, 4.855261
1036.949, 5.063637
1037.431, 5.536064
1037.913, 6.408999
1038.396, 7.168383
1038.878, 7.501181
1039.360, 7.405196
1039.842, 6.815028
1040.324, 5.722685
1040.806, 4.342864
1041.288, 2.082779
1041.770, 1.078758
1042.252, 2.557299
1042.734, 4.918173
1043.217, 4.297260
1043.699, 1.892953
1044.181, 0.9183920
1044.663, 2.812444
1045.145, 5.122901
1045.627, 7.772320
1046.109, 9.701257
1046.591, 10.05611
1047.074, 8.767426
1047.556, 6.109977
1048.038, 2.065613
1048.520, 0.6567800
1049.002, 1.044751
1049.484, 3.715361
1049.966, 4.240745
1050.448, 3.311598
1050.931, 3.042900
1051.413, 4.022619
1051.895, 4.826036
1052.377, 5.269033
1052.859, 5.569512
1053.341, 6.051401
1053.823, 6.590693
1054.305, 6.783149
1054.787, 6.518227
1055.270, 6.689847
1055.752, 8.944675
1056.234, 10.04037
1056.716, 7.964680
1057.198, 3.892921
1057.680, 2.959396
1058.162, 4.905771
1058.644, 5.499003
1059.126, 2.745912
1059.609, 0.1733020
1060.091, 0.5924000
1060.573, 0.4984110
1061.055, 2.181977
1061.537, 4.590391
1062.019, 6.722026
1062.501, 8.739508
1062.983, 9.876604
1063.466, 9.085516
1063.948, 7.357157
1064.430, 6.490579
1064.912, 6.261575
1065.394, 5.996827
1065.876, 4.604442
1066.358, 4.474473
1066.840, 7.146720
1067.323, 9.843416
1067.805, 8.327942
1068.287, 3.386784
1068.769, 0.8004770
1069.251, 1.021751
1069.733, 2.131252
1070.215, 4.070405
1070.697, 5.287914
1071.179, 3.591698
1071.661, 0.1155400
1072.144, 0.1122340
1072.626, 4.216548
1073.108, 7.494912
1073.590, 8.641087
1074.072, 8.561818
1074.554, 7.966238
1075.036, 7.024079
1075.518, 5.925726
1076.001, 4.669753
1076.483, 3.322187
1076.965, 1.305192
1077.447, 0.4492780
1077.929, 2.390884
1078.411, 5.772925
1078.893, 6.627132
1079.375, 5.494376
1079.858, 4.108128
1080.340, 2.415467
1080.822, 1.221267
1081.304, 1.300664
1081.786, 1.969433
1082.268, 2.572073
1082.750, 3.090320
1083.232, 4.711473
1083.714, 7.450586
1084.197, 9.255363
1084.679, 7.511875
1085.161, 5.332169
1085.643, 5.619277
1086.125, 7.407256
1086.607, 7.244519
1087.089, 4.261828
1087.571, 2.073958
1088.054, 1.279580
1088.536, 1.274684
1089.018, 1.854983
1089.500, 2.444274
1089.982, 1.954662
1090.464, 0.2688220
1090.946, 0.7810860
1091.428, 0.9962830
1091.911, 0.2086890
1092.393, 2.018945
1092.875, 4.889439
1093.357, 6.448517
1093.839, 7.019547
1094.321, 7.894901
1094.803, 10.02061
1095.285, 10.55084
1095.767, 6.001549
1096.250, 1.314586
1096.732, 7.6282002E-02
1097.214, 1.656611
1097.696, 2.862565
1098.178, 3.577228
1098.660, 4.458622
1099.142, 6.514183
1099.624, 8.180606
1100.106, 7.666342
1100.589, 5.942222
1101.071, 4.427382
1101.553, 2.811913
1102.035, 2.858127
1102.517, 4.854094
1102.999, 7.050053
1103.481, 8.305059
1103.963, 8.667095
1104.446, 7.833221
1104.928, 6.082061
1105.410, 4.491448
1105.892, 3.184107
1106.374, 2.266386
1106.856, 1.977890
1107.338, 2.286926
1107.820, 2.270378
1108.302, 2.324374
1108.785, 4.712746
1109.267, 9.741894
1109.749, 12.08352
1110.231, 6.398254
1110.713, 1.496502
1111.195, 0.6307750
1111.677, 2.713812
1112.159, 5.775428
1112.641, 9.333707
1113.124, 9.754137
1113.606, 5.167745
1114.088, 1.508322
1114.570, 4.413220
1115.052, 8.526318
1115.534, 9.264012
1116.016, 6.787554
1116.498, 6.246914
1116.981, 7.706051
1117.463, 9.030251
1117.945, 9.334401
1118.427, 9.032288
1118.909, 8.257797
1119.391, 7.194179
1119.873, 5.991720
1120.355, 4.192818
1120.838, 3.857797
1121.320, 5.240437
1121.802, 6.991193
1122.284, 9.127567
1122.766, 10.44148
1123.248, 8.039172
1123.730, 3.328495
1124.212, 0.1045830
1124.694, 0.3691770
1125.177, 0.9633040
1125.659, 1.616179
1126.141, 2.640435
1126.623, 4.830553
1127.105, 7.550461
1127.587, 9.082717
1128.069, 9.444069
1128.551, 9.438966
1129.033, 9.512807
1129.516, 9.098858
1129.998, 7.921474
1130.480, 6.355050
1130.962, 4.630744
1131.444, 2.990499
1131.926, 2.970576
1132.408, 4.865210
1132.890, 6.466649
1133.373, 5.552801
1133.855, 4.825191
1134.337, 6.465379
1134.819, 9.385452
1135.301, 9.376135
1135.783, 6.552249
1136.265, 4.003885
1136.747, 2.336702
1137.229, 1.918239
1137.712, 4.397292
1138.194, 7.285954
1138.676, 8.184637
1139.158, 7.078014
1139.640, 5.639732
1140.122, 3.725281
1140.604, 2.809510
1141.086, 3.673153
1141.569, 5.450231
1142.051, 8.882726
1142.533, 11.83166
1143.015, 10.88847
1143.497, 3.616829
1143.979, 0.6257750
1144.461, 1.475238
1144.943, 0.5574960
1145.426, 1.891328
1145.908, 4.884429
1146.390, 7.469108
1146.872, 9.219660
1147.354, 9.264147
1147.836, 5.158974
1148.318, 2.692945
1148.800, 2.151937
1149.282, 2.838322
1149.765, 5.334130
1150.247, 8.198988
1150.729, 7.335434
1151.211, 3.700567
1151.693, 1.526199
1152.175, 4.038774
1152.657, 5.900012
1153.139, 5.924946
1153.621, 5.489276
1154.104, 6.333120
1154.586, 8.062585
1155.068, 10.02001
1155.550, 11.93844
1156.032, 11.57498
1156.514, 3.980411
1156.996, 1.160330
1157.478, 0.1995190
1157.961, 4.052871
1158.443, 7.305344
1158.925, 9.472926
1159.407, 9.527636
1159.889, 7.247133
1160.371, 5.636566
1160.853, 6.810269
1161.335, 8.933578
1161.818, 11.99241
1162.300, 14.89310
1162.782, 14.08878
1163.264, 9.823570
1163.746, 4.576591
1164.228, 1.605252
1164.710, 0.4998633
1165.192, -0.6440931
1165.674, 0.8464860
1166.156, 0.2284590
1166.639, 1.381588
1167.121, 1.441206
1167.603, 8.188576
1168.085, 12.22690
1168.567, 10.75526
1169.049, 8.107079
1169.531, 7.379156
1170.013, 7.747607
1170.496, 8.722238
1170.978, 10.26559
1171.460, 10.62794
1171.942, 9.763531
1172.424, 8.569248
1172.906, 7.250413
1173.388, 6.119523
1173.870, 5.406363
1174.353, 5.130392
1174.835, 5.547068
1175.317, 6.976303
1175.799, 7.037178
1176.281, 5.578757
1176.763, 3.946609
1177.245, 2.687926
1177.727, 1.856612
1178.209, 1.230596
1178.692, 1.158815
1179.174, 2.434490
1179.656, 6.096866
1180.138, 8.240826
1180.620, 8.662962
1181.102, 8.698903
1181.584, 9.463923
1182.066, 10.33187
1182.548, 10.72730
1183.031, 10.41375
1183.513, 8.721481
1183.995, 3.768923
1184.477, 1.891534
1184.959, 3.894908
1185.441, 6.805296
1185.923, 7.782003
1186.405, 8.207582
1186.888, 10.88285
1187.370, 14.78749
1187.852, 15.96910
1188.334, 12.29504
1188.816, 8.743311
1189.298, 5.500837
1189.780, 3.345443
1190.262, 3.861172
1190.745, 5.552248
1191.227, 5.971047
1191.709, 5.287392
1192.191, 5.512563
1192.673, 7.983112
1193.155, 9.591855
1193.637, 10.01592
1194.119, 9.217791
1194.601, 5.834694
1195.084, 1.871809
1195.566, 0.8519750
1196.048, 2.786359
1196.530, 4.808189
1197.012, 6.825552
1197.494, 7.850304
1197.976, 7.420525
1198.458, 6.584580
1198.941, 7.156364
1199.423, 8.193774
1199.905, 7.606119
1200.387, 5.257051
1200.869, 4.563054
1201.351, 6.989293
1201.833, 9.511822
1202.315, 11.85002
1202.797, 13.16655
1203.280, 10.35728
1203.762, 6.018696
1204.244, 5.408694
1204.726, 9.540839
1205.208, 11.74412
1205.690, 9.986212
1206.172, 8.083507
1206.654, 7.029884
1207.136, 6.639790
1207.619, 7.247591
1208.101, 8.025761
1208.583, 7.054517
1209.065, 3.553107
1209.547, 2.080887
1210.029, 3.844019
1210.511, 6.279311
1210.993, 8.757459
1211.476, 11.00232
1211.958, 13.30764
1212.440, 14.99383
1212.922, 13.56159
1213.404, 7.171859
1213.886, 4.339957
1214.368, 7.600625
1214.850, 10.09561
1215.333, 8.767767
1215.815, 5.809307
1216.297, 4.823964
1216.779, 5.274290
1217.261, 6.376600
1217.743, 8.357709
1218.225, 9.311516
1218.707, 8.826096
1219.189, 8.118198
1219.672, 7.867093
1220.154, 7.572882
1220.636, 6.129962
1221.118, 4.030497
1221.600, 1.952860
1222.082, 0.6006660
1222.564, 1.114270
1223.046, 1.800567
1223.528, 4.385118
1224.011, 4.172383
1224.493, 2.572137
1224.975, 1.742848
1225.457, 1.683311
1225.939, 2.811778
1226.421, 6.448960
1226.903, 7.488144
1227.385, 5.161817
1227.868, 2.846658
1228.350, 2.492448
1228.832, 3.152907
1229.314, 3.188122
1229.796, 3.267536
1230.278, 4.781143
1230.760, 9.410069
1231.242, 10.84309
1231.724, 8.301935
1232.207, 6.354502
1232.689, 8.756866
1233.171, 12.15576
1233.653, 12.12959
1234.135, 10.01793
1234.617, 7.918959
1235.099, 5.975175
1235.581, 4.350048
1236.063, 2.942945
1236.546, 2.658606
1237.028, 5.359400
1237.510, 8.110413
1237.992, 7.544490
1238.474, 5.010903
1238.956, 2.459058
1239.438, 0.6263870
1239.920, 0.3932720
1240.403, 3.435576
1240.885, 6.683490
1241.367, 5.767635
1241.849, 4.048717
1242.331, 4.659214
1242.813, 4.153212
1243.295, 4.341150
1243.777, 5.253238
1244.260, 5.516236
1244.742, 7.397459
1245.224, 8.475281
1245.706, 5.830959
1246.188, 3.481236
1246.670, 5.722198
1247.152, 8.943526
1247.634, 7.647807
1248.116, 1.206705
1248.599, 0.2264200
1249.081, 3.079174
1249.563, 6.284866
1250.045, 5.530536
1250.527, 5.036257
1251.009, 8.080606
1251.491, 11.74351
1251.973, 12.98454
1252.455, 11.89913
1252.938, 10.59766
1253.420, 9.133245
1253.902, 7.712634
1254.384, 5.900659
1254.866, 4.882778
1255.348, 5.663698
1255.830, 6.821659
1256.313, 7.288673
1256.795, 7.058011
1257.277, 5.523828
1257.759, 3.076841
1258.241, 1.685271
1258.723, 3.007426
1259.205, 4.493835
1259.687, 5.923363
1260.169, 6.888990
1260.651, 6.542548
1261.134, 5.540802
1261.616, 6.742959
1262.098, 9.256834
1262.580, 9.853495
1263.062, 4.519906
1263.544, 2.235522
1264.026, 4.696434
1264.508, 7.532904
1264.991, 6.560015
1265.473, 3.738290
1265.955, 2.659594
1266.437, 2.916773
1266.919, 3.344201
1267.401, 3.546256
1267.883, 4.436419
1268.365, 3.708956
1268.848, 4.039287
1269.330, 2.743406
1269.812, 2.716799
1270.294, 3.070950
1270.776, 8.7003000E-02
1271.258, 3.359601
1271.740, 7.245994
1272.222, 8.723694
1272.704, 7.463456
1273.187, 5.721267
1273.669, 4.740151
1274.151, 4.275739
1274.633, 4.359364
1275.115, 4.724700
1275.597, 4.820968
1276.079, 4.395655
1276.561, 5.560234
1277.043, 8.187260
1277.526, 9.774560
1278.008, 7.576199
1278.490, 5.272594
1278.972, 5.070683
1279.454, 5.866418
1279.936, 6.743580
1280.418, 7.661821
1280.900, 7.668464
1281.383, 6.835569
1281.865, 5.626526
1282.347, 2.969981
1282.829, 1.861190
1283.311, 4.412802
1283.793, 7.524588
1284.275, 8.984080
1284.757, 9.070886
1285.240, 8.509716
1285.722, 7.583386
1286.204, 7.240752
1286.686, 6.856689
1287.168, 7.794456
1287.650, 9.006876
1288.132, 9.309787
1288.614, 7.454988
1289.096, 4.473670
1289.578, 1.798452
1290.061, 0.2061540
1290.543, 0.7009780
1291.025, 1.406892
1291.507, 3.123254
1291.989, 4.546205
1292.471, 5.066995
1292.953, 3.777943
1293.435, 2.122143
1293.918, 1.551804
1294.400, 1.870365
1294.882, 3.170751
1295.364, 5.671820
1295.846, 6.316988
1296.328, 5.069155
1296.810, 3.735579
1297.292, 4.285159
1297.775, 5.325763
1298.257, 6.187208
1298.739, 7.149099
1299.221, 8.840199
1299.703, 10.97581
1300.185, 10.32136
1300.667, 7.257499
1301.149, 4.076924
1301.631, 0.8652860
1302.114, 3.1546999E-02
1302.596, 0.0000000E+00
##END=



