##NAMES=Hardystonite
##RRUFFID=R040026
##IDEAL CHEMISTRY=Ca_2_Zn^2+^Si_2_O_7_
##LOCALITY=Franklin, Sussex County, New Jersey, USA
##OWNER=RRUFF
##SOURCE=University of Arizona Mineral Museum
##DESCRIPTION=White massive
##STATUS=The identification of this mineral has been confirmed by X-ray diffraction and chemical analysis
##URL=rruff.info/R040026
##MEASURED CHEMISTRY=(Ca_1.98_Mn_0.02_)_Σ=2_(Zn_0.99_Al_0.01_)_Σ=1_(Si_1.99_Al_0.01_)_Σ=2_O_7_
118.6159, 2970.900
119.0980, 3005.125
119.5801, 3044.013
120.0622, 3088.316
120.5444, 3134.302
121.0265, 3176.385
121.5086, 3214.652
121.9907, 3253.637
122.4728, 3295.458
122.9549, 3338.910
123.4371, 3380.203
123.9192, 3415.570
124.4013, 3452.370
124.8834, 3499.194
125.3655, 3556.661
125.8476, 3614.024
126.3298, 3660.150
126.8119, 3693.342
127.2940, 3732.540
127.7761, 3788.120
128.2582, 3848.424
128.7403, 3907.593
129.2225, 3964.167
129.7046, 4019.298
130.1867, 4075.627
130.6688, 4134.733
131.1509, 4192.032
131.6330, 4245.710
132.1152, 4298.225
132.5973, 4352.158
133.0794, 4408.437
133.5615, 4466.950
134.0436, 4526.209
134.5257, 4589.285
135.0079, 4649.710
135.4900, 4704.039
135.9721, 4755.378
136.4542, 4809.599
136.9363, 4870.983
137.4184, 4938.970
137.9006, 5002.199
138.3827, 5059.084
138.8648, 5114.388
139.3469, 5170.440
139.8290, 5226.979
140.3111, 5282.919
140.7933, 5337.025
141.2754, 5389.548
141.7575, 5442.859
142.2396, 5498.972
142.7217, 5554.920
143.2038, 5606.428
143.6860, 5652.604
144.1681, 5698.000
144.6502, 5748.065
145.1323, 5800.320
145.6144, 5849.144
146.0965, 5891.221
146.5787, 5927.777
147.0608, 5962.265
147.5429, 5991.249
148.0250, 6023.255
148.5071, 6064.971
148.9892, 6113.515
149.4714, 6161.179
149.9535, 6202.548
150.4356, 6237.521
150.9177, 6267.389
151.3998, 6285.110
151.8819, 6302.790
152.3641, 6326.748
152.8462, 6356.066
153.3283, 6384.440
153.8104, 6404.169
154.2925, 6410.968
154.7746, 6420.591
155.2568, 6435.620
155.7389, 6451.050
156.2210, 6464.055
156.7031, 6473.923
157.1852, 6481.521
157.6673, 6488.285
158.1495, 6496.225
158.6316, 6498.907
159.1137, 6493.026
159.5958, 6483.511
160.0779, 6475.459
160.5600, 6470.619
161.0422, 6466.938
161.5243, 6460.150
162.0064, 6450.125
162.4885, 6438.049
162.9706, 6423.157
163.4527, 6406.408
163.9349, 6389.926
164.4170, 6374.961
164.8991, 6359.902
165.3812, 6341.262
165.8633, 6317.678
166.3454, 6294.768
166.8276, 6278.368
167.3097, 6267.138
167.7918, 6249.774
168.2739, 6218.849
168.7560, 6181.526
169.2381, 6146.528
169.7203, 6115.000
170.2024, 6085.048
170.6845, 6054.826
171.1666, 6024.471
171.6487, 5993.779
172.1308, 5962.942
172.6130, 5931.683
173.0951, 5899.448
173.5772, 5865.921
174.0593, 5832.134
174.5414, 5800.042
175.0235, 5771.431
175.5057, 5740.769
175.9878, 5705.934
176.4699, 5669.377
176.9520, 5632.974
177.4341, 5597.685
177.9162, 5563.050
178.3984, 5527.104
178.8805, 5488.194
179.3626, 5450.057
179.8447, 5412.972
180.3268, 5376.804
180.8089, 5340.896
181.2911, 5305.029
181.7732, 5269.427
182.2553, 5234.885
182.7374, 5204.907
183.2195, 5172.104
183.7016, 5132.212
184.1838, 5088.630
184.6659, 5047.786
185.1480, 5013.837
185.6301, 4985.870
186.1122, 4954.862
186.5943, 4917.628
187.0764, 4881.494
187.5586, 4851.049
188.0407, 4824.639
188.5228, 4796.082
189.0049, 4760.676
189.4870, 4719.685
189.9691, 4681.750
190.4513, 4647.881
190.9334, 4615.958
191.4155, 4585.116
191.8976, 4555.376
192.3797, 4525.748
192.8618, 4496.435
193.3440, 4466.689
193.8261, 4434.811
194.3082, 4399.153
194.7903, 4362.380
195.2724, 4327.033
195.7545, 4293.103
196.2367, 4261.197
196.7188, 4233.250
197.2009, 4207.419
197.6830, 4181.403
198.1651, 4154.206
198.6472, 4126.722
199.1294, 4100.349
199.6115, 4075.408
200.0936, 4050.945
200.5757, 4026.700
201.0578, 4002.487
201.5399, 3977.791
202.0221, 3952.143
202.5042, 3926.139
202.9863, 3901.125
203.4684, 3877.202
203.9505, 3854.490
204.4326, 3833.695
204.9148, 3813.691
205.3969, 3792.588
205.8790, 3768.789
206.3611, 3743.347
206.8432, 3721.196
207.3253, 3704.691
207.8075, 3689.036
208.2896, 3672.829
208.7717, 3656.826
209.2538, 3642.760
209.7359, 3632.320
210.2180, 3624.531
210.7002, 3610.625
211.1823, 3581.818
211.6644, 3555.700
212.1465, 3536.697
212.6286, 3522.709
213.1107, 3509.668
213.5929, 3494.825
214.0750, 3478.418
214.5571, 3464.409
215.0392, 3456.435
215.5213, 3446.707
216.0034, 3430.882
216.4856, 3411.527
216.9677, 3394.637
217.4498, 3384.355
217.9319, 3380.186
218.4140, 3374.253
218.8961, 3365.792
219.3783, 3356.866
219.8604, 3348.032
220.3425, 3339.332
220.8246, 3330.467
221.3067, 3320.777
221.7888, 3310.887
222.2710, 3304.318
222.7531, 3304.393
223.2352, 3304.206
223.7173, 3299.729
224.1994, 3291.655
224.6815, 3283.613
225.1637, 3277.936
225.6458, 3273.937
226.1279, 3268.594
226.6100, 3259.290
227.0921, 3251.212
227.5742, 3249.014
228.0564, 3252.140
228.5385, 3254.589
229.0206, 3252.209
229.5027, 3247.387
229.9848, 3245.413
230.4669, 3247.402
230.9491, 3251.192
231.4312, 3255.950
231.9133, 3261.708
232.3954, 3265.516
232.8775, 3263.758
233.3596, 3260.292
233.8418, 3260.650
234.3239, 3267.099
234.8060, 3274.274
235.2881, 3275.591
235.7702, 3270.280
236.2523, 3266.397
236.7345, 3268.061
237.2166, 3272.190
237.6987, 3276.219
238.1808, 3279.543
238.6629, 3283.182
239.1451, 3288.436
239.6272, 3295.525
240.1093, 3303.117
240.5914, 3310.822
241.0735, 3318.868
241.5556, 3328.320
242.0378, 3339.552
242.5199, 3349.437
243.0020, 3352.039
243.4841, 3343.642
243.9662, 3341.822
244.4483, 3354.575
244.9305, 3371.656
245.4126, 3388.317
245.8947, 3403.086
246.3768, 3414.833
246.8589, 3420.573
247.3410, 3416.820
247.8231, 3418.055
248.3053, 3427.850
248.7874, 3441.038
249.2695, 3455.954
249.7516, 3471.741
250.2337, 3486.812
250.7158, 3498.449
251.1980, 3504.373
251.6801, 3513.219
252.1622, 3527.145
252.6443, 3542.147
253.1264, 3555.525
253.6085, 3567.236
254.0907, 3579.651
254.5728, 3596.297
255.0549, 3620.298
255.5370, 3639.003
256.0191, 3647.997
256.5013, 3656.261
256.9834, 3668.161
257.4655, 3684.193
257.9476, 3702.598
258.4297, 3721.585
258.9118, 3741.373
259.3940, 3760.983
259.8761, 3778.846
260.3582, 3797.788
260.8403, 3820.243
261.3224, 3845.504
261.8045, 3870.561
262.2867, 3892.375
262.7688, 3909.991
263.2509, 3930.650
263.7330, 3955.785
264.2151, 3981.741
264.6972, 4007.464
265.1794, 4032.572
265.6615, 4057.079
266.1436, 4080.707
266.6257, 4103.480
267.1078, 4127.085
267.5899, 4150.203
268.0721, 4175.440
268.5542, 4205.692
269.0363, 4239.308
269.5184, 4271.974
270.0005, 4300.438
270.4826, 4325.052
270.9648, 4349.618
271.4469, 4369.233
271.9290, 4393.724
272.4111, 4430.312
272.8932, 4474.822
273.3753, 4517.219
273.8575, 4551.101
274.3396, 4578.475
274.8217, 4609.973
275.3038, 4645.122
275.7859, 4683.679
276.2680, 4728.505
276.7502, 4776.546
277.2323, 4821.460
277.7144, 4859.702
278.1965, 4893.993
278.6786, 4932.976
279.1607, 4979.611
279.6428, 5024.293
280.1249, 5061.917
280.6071, 5096.363
281.0892, 5134.586
281.5713, 5179.635
282.0534, 5228.694
282.5355, 5276.884
283.0176, 5324.411
283.4998, 5370.864
283.9819, 5413.379
284.4640, 5455.305
284.9461, 5503.022
285.4282, 5559.048
285.9103, 5616.969
286.3925, 5666.861
286.8746, 5707.945
287.3567, 5751.505
287.8388, 5802.146
288.3209, 5855.839
288.8030, 5906.901
289.2852, 5954.562
289.7673, 6001.134
290.2494, 6049.123
290.7315, 6098.633
291.2136, 6146.570
291.6957, 6189.799
292.1779, 6232.948
292.6600, 6281.222
293.1421, 6335.100
293.6242, 6391.542
294.1063, 6451.139
294.5884, 6511.716
295.0706, 6561.524
295.5527, 6591.588
296.0348, 6615.813
296.5169, 6645.410
296.9990, 6680.442
297.4811, 6717.621
297.9633, 6755.378
298.4454, 6793.576
298.9275, 6831.653
299.4096, 6869.351
299.8917, 6907.119
300.3738, 6948.140
300.8560, 6991.167
301.3381, 7025.988
301.8202, 7044.451
302.3023, 7054.494
302.7844, 7073.542
303.2665, 7104.780
303.7487, 7136.903
304.2308, 7163.463
304.7129, 7185.573
305.1950, 7207.513
305.6771, 7231.206
306.1592, 7254.470
306.6414, 7273.727
307.1235, 7288.702
307.6056, 7304.129
308.0877, 7322.734
308.5698, 7343.318
309.0519, 7362.691
309.5341, 7379.421
310.0162, 7396.845
310.4983, 7419.729
310.9804, 7447.270
311.4625, 7473.884
311.9446, 7496.126
312.4268, 7516.873
312.9089, 7541.771
313.3910, 7572.495
313.8731, 7602.115
314.3552, 7623.696
314.8373, 7639.280
315.3195, 7655.394
315.8016, 7669.598
316.2837, 7687.057
316.7658, 7715.790
317.2479, 7756.249
317.7300, 7795.897
318.2122, 7826.189
318.6943, 7850.659
319.1764, 7878.400
319.6585, 7914.207
320.1406, 7948.304
320.6227, 7971.014
321.1049, 7983.950
321.5870, 7999.532
322.0691, 8025.023
322.5512, 8054.331
323.0333, 8075.784
323.5154, 8086.608
323.9976, 8098.438
324.4797, 8120.207
324.9618, 8148.217
325.4439, 8170.625
325.9260, 8183.366
326.4081, 8191.069
326.8903, 8199.529
327.3724, 8208.655
327.8545, 8217.495
328.3366, 8225.893
328.8187, 8233.618
329.3008, 8240.877
329.7830, 8248.042
330.2651, 8252.875
330.7472, 8253.245
331.2293, 8249.400
331.7114, 8241.443
332.1935, 8225.380
332.6757, 8207.519
333.1578, 8195.623
333.6399, 8190.019
334.1220, 8183.356
334.6041, 8171.052
335.0862, 8153.483
335.5684, 8134.069
336.0505, 8110.319
336.5326, 8087.427
337.0147, 8069.457
337.4968, 8055.492
337.9789, 8041.293
338.4611, 8024.846
338.9432, 8007.167
339.4253, 7990.147
339.9074, 7973.569
340.3895, 7958.159
340.8716, 7947.798
341.3538, 7938.397
341.8359, 7920.073
342.3180, 7888.357
342.8001, 7852.850
343.2822, 7827.800
343.7643, 7813.987
344.2465, 7799.072
344.7286, 7778.339
345.2107, 7756.611
345.6928, 7739.470
346.1749, 7727.605
346.6570, 7718.163
347.1392, 7709.382
347.6213, 7701.133
348.1034, 7690.728
348.5855, 7677.712
349.0676, 7662.853
349.5497, 7643.987
350.0319, 7622.662
350.5140, 7605.940
350.9961, 7598.656
351.4782, 7598.919
351.9603, 7597.625
352.4424, 7594.899
352.9246, 7590.845
353.4067, 7583.334
353.8888, 7574.829
354.3709, 7570.370
354.8530, 7572.186
355.3351, 7577.022
355.8173, 7578.210
356.2994, 7571.608
356.7815, 7571.255
357.2636, 7582.910
357.7457, 7598.857
358.2278, 7610.510
358.7100, 7616.764
359.1921, 7624.404
359.6742, 7641.306
360.1563, 7669.766
360.6384, 7694.155
361.1205, 7710.316
361.6027, 7726.569
362.0848, 7745.496
362.5669, 7768.099
363.0490, 7796.605
363.5311, 7832.870
364.0132, 7875.951
364.4954, 7917.916
364.9775, 7956.442
365.4596, 7996.473
365.9417, 8038.358
366.4238, 8082.368
366.9059, 8127.642
367.3881, 8174.075
367.8702, 8224.262
368.3523, 8284.094
368.8344, 8361.735
369.3165, 8436.138
369.7986, 8503.233
370.2808, 8570.439
370.7629, 8642.243
371.2450, 8719.826
371.7271, 8803.312
372.2092, 8892.565
372.6913, 8988.837
373.1735, 9086.859
373.6556, 9186.033
374.1377, 9287.231
374.6198, 9388.678
375.1019, 9492.608
375.5840, 9601.279
376.0662, 9716.152
376.5483, 9837.323
377.0304, 9963.129
377.5125, 10095.83
377.9946, 10230.07
378.4767, 10360.22
378.9589, 10492.70
379.4410, 10635.28
379.9231, 10790.24
380.4052, 10950.70
380.8873, 11106.35
381.3694, 11253.55
381.8516, 11406.55
382.3337, 11564.68
382.8158, 11730.37
383.2979, 11908.97
383.7800, 12098.01
384.2621, 12287.56
384.7443, 12469.06
385.2264, 12642.69
385.7085, 12819.22
386.1906, 12998.86
386.6727, 13181.93
387.1548, 13367.53
387.6370, 13556.03
388.1191, 13746.68
388.6012, 13940.63
389.0833, 14135.85
389.5654, 14327.60
390.0475, 14515.42
390.5297, 14701.62
391.0118, 14888.13
391.4939, 15073.46
391.9760, 15256.16
392.4581, 15436.08
392.9402, 15611.31
393.4224, 15780.25
393.9045, 15943.03
394.3866, 16101.14
394.8687, 16255.81
395.3508, 16403.40
395.8329, 16541.02
396.3151, 16669.91
396.7972, 16793.12
397.2793, 16914.54
397.7614, 17029.57
398.2435, 17133.72
398.7256, 17226.59
399.2078, 17306.45
399.6899, 17367.83
400.1720, 17415.32
400.6541, 17462.10
401.1362, 17513.20
401.6183, 17554.85
402.1004, 17579.57
402.5826, 17588.37
403.0647, 17583.02
403.5468, 17562.78
404.0289, 17531.81
404.5110, 17494.93
404.9931, 17452.86
405.4753, 17402.45
405.9574, 17342.87
406.4395, 17274.88
406.9216, 17200.21
407.4037, 17118.37
407.8858, 17026.18
408.3680, 16920.80
408.8501, 16802.26
409.3322, 16679.71
409.8143, 16550.87
410.2964, 16420.27
410.7785, 16291.83
411.2607, 16162.13
411.7428, 16023.23
412.2249, 15872.52
412.7070, 15713.64
413.1891, 15553.68
413.6712, 15393.01
414.1534, 15231.60
414.6355, 15068.47
415.1176, 14905.44
415.5997, 14743.44
416.0818, 14583.22
416.5639, 14426.95
417.0461, 14277.47
417.5282, 14135.22
418.0103, 13987.05
418.4924, 13830.40
418.9745, 13670.58
419.4566, 13503.86
419.9388, 13335.81
420.4209, 13172.19
420.9030, 13016.94
421.3851, 12867.58
421.8672, 12720.46
422.3493, 12572.93
422.8315, 12433.54
423.3136, 12309.08
423.7957, 12186.30
424.2778, 12055.66
424.7599, 11917.33
425.2420, 11780.25
425.7242, 11652.73
426.2063, 11533.34
426.6884, 11413.01
427.1705, 11290.81
427.6526, 11169.55
428.1347, 11049.21
428.6169, 10930.29
429.0990, 10812.51
429.5811, 10694.78
430.0632, 10580.75
430.5453, 10475.78
431.0274, 10379.98
431.5096, 10287.52
431.9917, 10197.44
432.4738, 10109.72
432.9559, 10023.53
433.4380, 9938.842
433.9201, 9855.592
434.4023, 9773.604
434.8844, 9693.214
435.3665, 9616.392
435.8486, 9543.373
436.3307, 9470.960
436.8128, 9394.979
437.2950, 9318.096
437.7771, 9250.527
438.2592, 9199.368
438.7413, 9149.769
439.2234, 9094.421
439.7055, 9034.674
440.1877, 8973.143
440.6698, 8910.271
441.1519, 8847.943
441.6340, 8787.997
442.1161, 8729.751
442.5982, 8676.981
443.0804, 8631.937
443.5625, 8591.041
444.0446, 8551.205
444.5267, 8512.599
445.0088, 8477.158
445.4909, 8447.153
445.9731, 8421.500
446.4552, 8389.076
446.9373, 8341.403
447.4194, 8296.545
447.9015, 8257.176
448.3836, 8221.827
448.8658, 8188.982
449.3479, 8158.206
449.8300, 8129.977
450.3121, 8106.300
450.7942, 8089.705
451.2763, 8068.103
451.7585, 8035.463
452.2406, 8003.322
452.7227, 7975.307
453.2048, 7951.447
453.6869, 7931.138
454.1690, 7914.649
454.6512, 7900.606
455.1333, 7884.649
455.6154, 7865.358
456.0975, 7848.495
456.5796, 7837.892
457.0617, 7829.241
457.5439, 7819.589
458.0260, 7808.569
458.5081, 7796.323
458.9902, 7781.923
459.4723, 7766.307
459.9544, 7752.323
460.4366, 7739.642
460.9187, 7730.362
461.4008, 7728.984
461.8829, 7732.337
462.3650, 7732.572
462.8471, 7725.616
463.3293, 7718.063
463.8114, 7714.946
464.2935, 7715.430
464.7756, 7716.883
465.2577, 7718.798
465.7398, 7720.044
466.2220, 7717.765
466.7041, 7710.018
467.1862, 7706.867
467.6683, 7714.663
468.1504, 7723.662
468.6325, 7724.622
469.1147, 7718.306
469.5968, 7712.123
470.0789, 7711.249
470.5610, 7714.982
471.0431, 7718.741
471.5252, 7720.768
472.0074, 7725.038
472.4895, 7736.049
472.9716, 7747.340
473.4537, 7751.644
473.9358, 7747.744
474.4179, 7740.685
474.9001, 7736.061
475.3822, 7733.936
475.8643, 7734.099
476.3464, 7740.378
476.8285, 7744.880
477.3106, 7743.131
477.7928, 7738.389
478.2749, 7736.175
478.7570, 7739.215
479.2391, 7744.745
479.7212, 7748.608
480.2033, 7750.782
480.6855, 7751.429
481.1676, 7750.265
481.6497, 7747.673
482.1318, 7745.151
482.6139, 7742.194
483.0960, 7735.224
483.5782, 7718.848
484.0603, 7698.933
484.5424, 7684.696
485.0245, 7676.583
485.5066, 7670.845
485.9887, 7666.901
486.4709, 7663.176
486.9530, 7656.038
487.4351, 7645.552
487.9172, 7631.966
488.3993, 7614.134
488.8814, 7593.742
489.3636, 7572.494
489.8457, 7550.836
490.3278, 7530.285
490.8099, 7512.572
491.2920, 7498.033
491.7741, 7480.492
492.2563, 7458.427
492.7384, 7435.767
493.2205, 7413.479
493.7026, 7391.479
494.1847, 7369.325
494.6668, 7346.957
495.1490, 7325.130
495.6311, 7305.890
496.1132, 7292.078
496.5953, 7271.751
497.0774, 7238.753
497.5595, 7204.746
498.0417, 7175.242
498.5238, 7148.237
499.0059, 7118.624
499.4880, 7083.008
499.9701, 7044.186
500.4522, 7007.396
500.9344, 6972.512
501.4165, 6939.923
501.8986, 6911.705
502.3807, 6884.360
502.8628, 6855.288
503.3449, 6824.509
503.8271, 6792.065
504.3092, 6756.063
504.7913, 6719.201
505.2734, 6686.108
505.7555, 6657.026
506.2376, 6629.396
506.7198, 6602.627
507.2019, 6575.630
507.6840, 6545.276
508.1661, 6511.460
508.6482, 6475.223
509.1303, 6432.330
509.6125, 6389.452
510.0946, 6355.624
510.5767, 6331.668
511.0588, 6311.036
511.5409, 6288.173
512.0230, 6263.063
512.5051, 6235.172
512.9872, 6200.120
513.4694, 6167.329
513.9515, 6139.260
514.4336, 6114.159
514.9157, 6090.870
515.3978, 6068.714
515.8799, 6046.047
516.3621, 6019.681
516.8442, 5989.010
517.3263, 5962.007
517.8084, 5941.659
518.2905, 5920.932
518.7726, 5896.721
519.2548, 5870.065
519.7369, 5842.683
520.2190, 5814.894
520.7011, 5786.898
521.1832, 5757.198
521.6653, 5726.578
522.1475, 5702.045
522.6296, 5687.320
523.1117, 5674.985
523.5938, 5657.589
524.0759, 5635.709
524.5580, 5611.365
525.0402, 5580.563
525.5223, 5551.188
526.0044, 5532.101
526.4865, 5519.425
526.9686, 5499.979
527.4507, 5467.443
527.9329, 5430.296
528.4150, 5404.835
528.8971, 5398.528
529.3792, 5387.191
529.8613, 5368.523
530.3434, 5347.414
530.8256, 5324.472
531.3077, 5301.357
531.7898, 5281.560
532.2719, 5267.600
532.7540, 5256.206
533.2361, 5238.067
533.7183, 5209.611
534.2004, 5184.310
534.6825, 5166.277
535.1646, 5150.575
535.6467, 5135.369
536.1288, 5120.161
536.6110, 5104.358
537.0931, 5087.595
537.5752, 5070.059
538.0573, 5051.734
538.5394, 5032.487
539.0215, 5014.853
539.5037, 5000.612
539.9858, 4987.922
540.4679, 4973.469
540.9500, 4956.770
541.4321, 4940.843
541.9142, 4927.688
542.3964, 4914.950
542.8785, 4899.789
543.3606, 4882.529
543.8427, 4865.570
544.3248, 4850.380
544.8069, 4836.940
545.2891, 4825.232
545.7712, 4819.697
546.2533, 4809.603
546.7354, 4789.972
547.2175, 4769.407
547.6996, 4754.353
548.1818, 4744.897
548.6639, 4737.375
549.1460, 4729.751
549.6281, 4721.360
550.1102, 4708.996
550.5923, 4690.507
551.0745, 4673.444
551.5566, 4661.479
552.0387, 4650.811
552.5208, 4637.986
553.0029, 4622.823
553.4850, 4608.852
553.9672, 4598.418
554.4493, 4590.313
554.9314, 4582.897
555.4135, 4576.107
555.8956, 4568.136
556.3777, 4557.902
556.8599, 4546.000
557.3420, 4533.633
557.8241, 4518.753
558.3062, 4508.162
558.7883, 4508.292
559.2704, 4509.804
559.7526, 4502.483
560.2347, 4487.309
560.7168, 4473.684
561.1989, 4468.839
561.6810, 4470.244
562.1631, 4466.099
562.6453, 4450.714
563.1274, 4439.464
563.6095, 4438.137
564.0916, 4437.768
564.5737, 4432.238
565.0558, 4421.224
565.5380, 4407.546
566.0201, 4391.776
566.5022, 4375.470
566.9843, 4362.793
567.4664, 4353.982
567.9485, 4347.246
568.4307, 4342.641
568.9128, 4339.392
569.3949, 4337.141
569.8770, 4336.239
570.3591, 4332.656
570.8412, 4322.790
571.3234, 4311.171
571.8055, 4301.068
572.2876, 4293.257
572.7697, 4290.714
573.2518, 4296.040
573.7339, 4304.745
574.2161, 4305.138
574.6982, 4289.894
575.1803, 4278.762
575.6624, 4273.543
576.1445, 4270.560
576.6266, 4268.153
577.1088, 4266.018
577.5909, 4264.271
578.0730, 4263.089
578.5551, 4261.992
579.0372, 4259.948
579.5193, 4256.878
580.0015, 4253.200
580.4836, 4248.212
580.9657, 4243.486
581.4478, 4240.225
581.9299, 4238.240
582.4120, 4236.640
582.8942, 4235.522
583.3763, 4234.340
583.8584, 4232.463
584.3405, 4230.070
584.8226, 4227.780
585.3047, 4225.821
585.7869, 4223.980
586.2690, 4221.694
586.7511, 4218.430
587.2332, 4217.873
587.7153, 4222.534
588.1974, 4227.031
588.6796, 4229.748
589.1617, 4230.595
589.6438, 4228.614
590.1259, 4223.702
590.6080, 4219.391
591.0901, 4222.640
591.5723, 4235.000
592.0544, 4238.834
592.5365, 4226.991
593.0186, 4216.672
593.5007, 4217.162
593.9828, 4223.619
594.4650, 4229.134
594.9471, 4232.092
595.4292, 4233.764
595.9113, 4234.755
596.3934, 4235.187
596.8755, 4235.428
597.3577, 4235.559
597.8398, 4234.953
598.3219, 4232.593
598.8040, 4229.085
599.2861, 4228.563
599.7682, 4231.989
600.2504, 4236.691
600.7325, 4243.284
601.2146, 4250.378
601.6967, 4257.638
602.1788, 4264.382
602.6609, 4268.335
603.1431, 4266.831
603.6252, 4261.889
604.1073, 4263.008
604.5894, 4273.048
605.0715, 4281.620
605.5536, 4283.513
606.0358, 4284.986
606.5179, 4291.632
607.0000, 4302.853
607.4821, 4312.336
607.9642, 4316.288
608.4464, 4317.376
608.9285, 4317.546
609.4106, 4317.318
609.8927, 4319.975
610.3748, 4327.336
610.8569, 4336.322
611.3391, 4343.193
611.8212, 4349.083
612.3033, 4346.845
612.7854, 4329.796
613.2675, 4312.136
613.7496, 4299.968
614.2318, 4291.485
614.7139, 4283.829
615.1960, 4275.785
615.6781, 4266.263
616.1602, 4252.967
616.6423, 4235.618
617.1245, 4220.710
617.6066, 4210.718
618.0887, 4198.881
618.5708, 4179.779
619.0529, 4157.447
619.5350, 4137.070
620.0172, 4119.388
620.4993, 4103.578
620.9814, 4089.876
621.4635, 4077.366
621.9456, 4064.593
622.4277, 4051.431
622.9099, 4038.352
623.3920, 4025.592
623.8741, 4013.266
624.3562, 4001.981
624.8383, 3993.290
625.3204, 3983.381
625.8026, 3970.340
626.2847, 3957.766
626.7668, 3948.800
627.2489, 3942.332
627.7310, 3935.222
628.2131, 3925.892
628.6953, 3914.332
629.1774, 3898.922
629.6595, 3879.465
630.1416, 3863.743
630.6237, 3853.866
631.1058, 3846.971
631.5880, 3842.253
632.0701, 3838.723
632.5522, 3833.082
633.0343, 3824.415
633.5164, 3814.062
633.9985, 3801.253
634.4807, 3787.682
634.9628, 3774.823
635.4449, 3763.439
635.9270, 3756.688
636.4091, 3758.678
636.8912, 3767.954
637.3734, 3768.616
637.8555, 3754.515
638.3376, 3741.499
638.8197, 3731.427
639.3018, 3723.639
639.7839, 3717.631
640.2661, 3713.411
640.7482, 3711.333
641.2303, 3713.365
641.7124, 3716.363
642.1945, 3714.212
642.6766, 3707.497
643.1588, 3703.176
643.6409, 3703.952
644.1230, 3706.612
644.6051, 3707.326
645.0872, 3705.809
645.5693, 3704.475
646.0515, 3700.939
646.5336, 3700.286
647.0157, 3705.949
647.4978, 3715.074
647.9799, 3724.688
648.4620, 3733.653
648.9442, 3740.851
649.4263, 3744.636
649.9084, 3745.476
650.3905, 3747.427
650.8726, 3750.304
651.3547, 3754.811
651.8369, 3761.280
652.3190, 3769.572
652.8011, 3779.065
653.2832, 3789.762
653.7653, 3803.484
654.2474, 3824.774
654.7296, 3846.417
655.2117, 3860.775
655.6938, 3869.514
656.1759, 3878.119
656.6580, 3888.702
657.1401, 3900.739
657.6223, 3913.747
658.1044, 3928.172
658.5865, 3940.853
659.0686, 3950.939
659.5507, 3960.130
660.0328, 3972.232
660.5150, 3981.805
660.9971, 3982.255
661.4792, 3972.324
661.9613, 3956.698
662.4434, 3937.805
662.9255, 3916.292
663.4077, 3894.091
663.8898, 3871.301
664.3719, 3846.009
664.8540, 3817.014
665.3361, 3785.530
665.8182, 3753.134
666.3004, 3718.884
666.7825, 3687.304
667.2646, 3661.400
667.7467, 3635.011
668.2288, 3602.591
668.7109, 3568.417
669.1931, 3539.531
669.6752, 3518.105
670.1573, 3500.954
670.6394, 3486.919
671.1215, 3475.225
671.6036, 3453.887
672.0858, 3419.245
672.5679, 3386.590
673.0500, 3363.200
673.5321, 3345.740
674.0142, 3329.201
674.4963, 3313.581
674.9785, 3298.174
675.4606, 3282.529
675.9427, 3267.256
676.4248, 3253.675
676.9069, 3240.877
677.3890, 3226.206
677.8712, 3208.560
678.3533, 3190.447
678.8354, 3175.830
679.3175, 3165.255
679.7996, 3152.934
680.2817, 3139.061
680.7639, 3122.946
681.2460, 3101.265
681.7281, 3079.117
682.2102, 3062.310
682.6923, 3051.632
683.1744, 3042.766
683.6566, 3036.398
684.1387, 3028.595
684.6208, 3012.294
685.1029, 2989.388
685.5850, 2968.471
686.0671, 2953.249
686.5493, 2941.951
687.0314, 2932.294
687.5135, 2925.070
687.9956, 2915.423
688.4777, 2900.252
688.9598, 2886.259
689.4420, 2876.675
689.9241, 2868.260
690.4062, 2857.063
690.8883, 2842.478
691.3704, 2827.688
691.8525, 2815.490
692.3347, 2804.525
692.8168, 2791.577
693.2989, 2776.788
693.7810, 2763.173
694.2631, 2751.959
694.7452, 2742.009
695.2274, 2732.076
695.7095, 2722.476
696.1916, 2710.657
696.6737, 2693.792
697.1558, 2678.354
697.6379, 2668.895
698.1201, 2660.584
698.6022, 2647.428
699.0843, 2628.647
699.5664, 2608.415
700.0485, 2588.816
700.5306, 2570.895
701.0128, 2559.340
701.4949, 2554.471
701.9770, 2545.772
702.4591, 2528.590
702.9412, 2509.116
703.4233, 2494.949
703.9055, 2486.414
704.3876, 2476.345
704.8697, 2464.920
705.3518, 2451.558
705.8339, 2433.497
706.3160, 2414.907
706.7982, 2401.194
707.2803, 2392.556
707.7624, 2384.988
708.2445, 2375.811
708.7266, 2364.916
709.2087, 2352.032
709.6909, 2337.126
710.1730, 2320.236
710.6550, 2299.479
711.1371, 2279.769
711.6193, 2266.865
712.1014, 2259.494
712.5835, 2250.194
713.0656, 2237.378
713.5477, 2223.888
714.0298, 2211.125
714.5120, 2197.879
714.9941, 2182.531
715.4762, 2165.137
715.9583, 2146.777
716.4404, 2127.604
716.9225, 2109.420
717.4047, 2097.646
717.8868, 2093.132
718.3689, 2086.599
718.8510, 2076.726
719.3331, 2064.716
719.8152, 2049.769
720.2974, 2033.549
720.7795, 2020.296
721.2616, 2011.740
721.7437, 2003.297
722.2258, 1994.434
722.7079, 1984.313
723.1901, 1971.434
723.6722, 1956.482
724.1543, 1941.156
724.6364, 1926.288
725.1185, 1912.583
725.6006, 1901.810
726.0828, 1894.356
726.5649, 1885.012
727.0470, 1872.633
727.5291, 1860.292
728.0112, 1849.988
728.4933, 1840.397
728.9755, 1829.157
729.4576, 1815.813
729.9397, 1802.839
730.4218, 1791.815
730.9039, 1780.515
731.3860, 1766.016
731.8682, 1750.035
732.3503, 1736.510
732.8324, 1726.799
733.3145, 1718.798
733.7966, 1709.922
734.2787, 1700.307
734.7609, 1692.610
735.2430, 1688.095
735.7251, 1681.587
736.2072, 1669.952
736.6893, 1656.653
737.1714, 1645.374
737.6536, 1636.065
738.1357, 1627.674
738.6178, 1621.459
739.0999, 1614.500
739.5820, 1604.314
740.0641, 1592.787
740.5463, 1582.437
741.0284, 1573.775
741.5105, 1565.818
741.9926, 1557.960
742.4747, 1549.883
742.9568, 1540.230
743.4390, 1528.457
743.9211, 1518.390
744.4032, 1511.509
744.8853, 1505.351
745.3674, 1498.108
745.8495, 1489.955
746.3317, 1481.563
746.8138, 1473.640
747.2959, 1464.491
747.7780, 1451.631
748.2601, 1438.753
748.7422, 1430.343
749.2244, 1425.306
749.7065, 1419.188
750.1886, 1409.559
750.6707, 1398.809
751.1528, 1390.546
751.6349, 1384.754
752.1171, 1379.679
752.5992, 1375.482
753.0813, 1371.152
753.5634, 1366.467
754.0455, 1361.110
754.5276, 1354.113
755.0098, 1344.946
755.4919, 1336.798
755.9740, 1330.970
756.4561, 1325.251
756.9382, 1317.812
757.4203, 1309.919
757.9025, 1303.964
758.3846, 1300.291
758.8667, 1296.740
759.3488, 1291.627
759.8309, 1284.977
760.3130, 1276.041
760.7952, 1264.782
761.2773, 1255.594
761.7594, 1250.332
762.2415, 1246.305
762.7236, 1240.848
763.2057, 1233.984
763.6879, 1227.182
764.1700, 1219.920
764.6521, 1213.422
765.1342, 1208.344
765.6163, 1203.778
766.0984, 1199.258
766.5806, 1194.608
767.0627, 1189.706
767.5448, 1184.630
768.0269, 1178.887
768.5090, 1170.943
768.9911, 1161.852
769.4733, 1155.687
769.9554, 1152.965
770.4375, 1150.471
770.9196, 1146.459
771.4017, 1141.275
771.8839, 1135.717
772.3660, 1129.785
772.8481, 1123.422
773.3302, 1115.415
773.8123, 1108.310
774.2944, 1102.740
774.7766, 1098.652
775.2587, 1096.964
775.7408, 1097.497
776.2229, 1096.075
776.7050, 1087.613
777.1871, 1077.703
777.6693, 1074.164
778.1514, 1074.945
778.6335, 1073.281
779.1156, 1067.365
779.5977, 1060.283
780.0798, 1054.907
780.5620, 1051.085
781.0441, 1047.697
781.5262, 1045.069
782.0083, 1042.119
782.4904, 1038.901
782.9725, 1035.068
783.4547, 1030.402
783.9368, 1024.963
784.4189, 1018.717
784.9010, 1010.862
785.3831, 1004.213
785.8652, 1001.255
786.3474, 999.3296
786.8295, 995.4764
787.3116, 990.0480
787.7937, 984.9547
788.2758, 981.0455
788.7579, 977.4651
789.2401, 972.7370
789.7222, 966.9679
790.2043, 963.0555
790.6864, 961.6573
791.1685, 959.3539
791.6506, 954.4425
792.1328, 948.5546
792.6149, 943.3825
793.0970, 938.9351
793.5791, 935.8484
794.0612, 935.1920
794.5433, 934.6566
795.0255, 934.5724
795.5076, 933.5280
795.9897, 929.1501
796.4718, 922.3018
796.9539, 916.9185
797.4360, 915.7170
797.9182, 915.3790
798.4003, 910.3611
798.8824, 902.1932
799.3645, 897.5018
799.8466, 897.1466
800.3287, 896.7272
800.8109, 893.6583
801.2930, 888.9904
801.7751, 884.9193
802.2572, 881.5252
802.7393, 878.4964
803.2214, 877.1281
803.7036, 874.5490
804.1857, 868.7606
804.6678, 862.0677
805.1499, 856.5661
805.6320, 852.5735
806.1141, 850.4434
806.5963, 852.7938
807.0784, 854.7272
807.5605, 850.8244
808.0426, 843.9048
808.5247, 839.8034
809.0068, 839.2238
809.4890, 838.1931
809.9711, 833.5670
810.4532, 827.0237
810.9353, 823.2112
811.4174, 822.5270
811.8995, 821.4529
812.3817, 819.4796
812.8638, 817.5413
813.3459, 816.8525
813.8280, 816.2100
814.3101, 812.7401
814.7922, 805.3766
815.2744, 799.6170
815.7565, 796.7116
816.2386, 794.9988
816.7207, 795.0579
817.2028, 795.0709
817.6849, 791.7322
818.1671, 785.1113
818.6492, 780.0721
819.1313, 781.5367
819.6134, 785.1573
820.0955, 782.9570
820.5776, 776.3434
821.0598, 771.8768
821.5419, 770.9249
822.0240, 770.7311
822.5061, 769.4091
822.9882, 767.0607
823.4703, 763.7704
823.9525, 758.3972
824.4346, 755.0024
824.9167, 755.7957
825.3988, 756.0034
825.8809, 752.9218
826.3630, 748.5770
826.8452, 745.6141
827.3273, 744.3795
827.8094, 743.7982
828.2915, 745.0347
828.7736, 745.2319
829.2557, 740.9930
829.7379, 734.8514
830.2200, 731.1893
830.7021, 730.5419
831.1842, 730.1572
831.6663, 727.9241
832.1484, 724.6462
832.6306, 721.7772
833.1127, 719.3475
833.5948, 718.3990
834.0769, 719.4460
834.5590, 719.9918
835.0411, 718.3021
835.5233, 715.2731
836.0054, 713.1492
836.4875, 712.6510
836.9696, 710.9176
837.4517, 706.2535
837.9338, 702.4765
838.4160, 701.8817
838.8981, 702.1707
839.3802, 700.7009
839.8623, 697.3483
840.3444, 693.9843
840.8265, 690.8361
841.3087, 688.8043
841.7908, 689.9122
842.2729, 692.1370
842.7550, 691.6730
843.2371, 688.4423
843.7192, 685.3008
844.2014, 684.0339
844.6835, 683.6376
845.1656, 682.4584
845.6477, 680.4898
846.1298, 676.9896
846.6119, 671.3492
847.0941, 666.4998
847.5762, 663.9288
848.0583, 662.4412
848.5404, 660.2313
849.0225, 657.1073
849.5046, 655.1871
849.9868, 655.4639
850.4689, 655.5873
850.9510, 654.8598
851.4331, 653.9242
851.9152, 653.5321
852.3973, 653.4215
852.8795, 652.6707
853.3616, 650.8652
853.8437, 648.5433
854.3258, 645.7988
854.8079, 643.0071
855.2900, 640.6716
855.7722, 638.8062
856.2543, 637.3401
856.7364, 636.2306
857.2185, 635.0209
857.7006, 632.9567
858.1827, 630.2675
858.6649, 628.6901
859.1470, 628.3002
859.6291, 628.6986
860.1112, 630.3307
860.5933, 631.5706
861.0754, 630.8768
861.5576, 628.5923
862.0397, 626.4526
862.5218, 624.6322
863.0039, 622.6704
863.4860, 619.7714
863.9681, 617.5516
864.4503, 617.0767
864.9324, 617.7041
865.4145, 618.6101
865.8966, 619.5908
866.3787, 620.3517
866.8608, 620.9300
867.3430, 621.0160
867.8251, 620.1488
868.3072, 618.6086
868.7893, 616.9340
869.2714, 615.2167
869.7535, 613.1927
870.2357, 610.5687
870.7178, 607.9468
871.1999, 606.5356
871.6820, 606.3256
872.1641, 606.9016
872.6462, 608.3713
873.1284, 609.9589
873.6105, 611.4764
874.0926, 612.6320
874.5747, 612.9534
875.0568, 612.3903
875.5389, 611.4722
876.0211, 608.9348
876.5032, 607.7482
876.9853, 609.7692
877.4674, 612.0702
877.9495, 611.9379
878.4316, 610.2283
878.9138, 609.8736
879.3959, 611.9755
879.8780, 614.5739
880.3601, 616.8909
880.8422, 619.0230
881.3243, 620.8846
881.8065, 622.6839
882.2886, 624.9033
882.7707, 627.6566
883.2528, 630.5240
883.7349, 632.9316
884.2170, 635.3468
884.6992, 639.1015
885.1813, 644.0231
885.6634, 648.6349
886.1455, 652.6831
886.6276, 655.9528
887.1097, 657.9111
887.5919, 659.7508
888.0740, 664.6528
888.5561, 673.3582
889.0382, 682.3608
889.5203, 692.4329
890.0024, 701.4049
890.4846, 706.6328
890.9667, 711.7260
891.4488, 720.9935
891.9309, 734.1254
892.4130, 746.4573
892.8951, 755.5396
893.3773, 766.0518
893.8594, 780.6151
894.3415, 796.0992
894.8236, 809.7441
895.3057, 822.2555
895.7878, 835.4823
896.2700, 850.0668
896.7521, 866.3761
897.2342, 885.8244
897.7163, 906.5156
898.1984, 925.4706
898.6805, 943.5056
899.1627, 963.9806
899.6448, 987.3054
900.1269, 1010.286
900.6090, 1029.860
901.0911, 1047.679
901.5732, 1068.291
902.0554, 1091.737
902.5375, 1113.336
903.0196, 1132.481
903.5017, 1150.644
903.9838, 1169.255
904.4659, 1186.120
904.9481, 1197.653
905.4302, 1203.652
905.9123, 1206.256
906.3944, 1205.613
906.8765, 1201.229
907.3586, 1193.282
907.8408, 1181.471
908.3229, 1165.277
908.8050, 1145.114
909.2871, 1121.288
909.7692, 1092.944
910.2513, 1064.395
910.7335, 1037.464
911.2156, 1010.839
911.6977, 983.6744
912.1798, 956.1393
912.6619, 927.9086
913.1440, 899.2719
913.6262, 872.5162
914.1083, 848.9969
914.5904, 828.1019
915.0725, 809.6237
915.5546, 792.9384
916.0367, 776.4492
916.5189, 760.1534
917.0010, 744.5953
917.4831, 730.0911
917.9652, 717.0717
918.4473, 706.5306
918.9294, 698.2316
919.4116, 689.3107
919.8937, 679.4502
920.3758, 671.8344
920.8579, 667.8802
921.3400, 664.6788
921.8221, 659.8035
922.3043, 653.7499
922.7864, 648.3587
923.2685, 643.9656
923.7506, 639.5060
924.2327, 635.3832
924.7148, 630.6879
925.1970, 623.6983
925.6791, 616.9210
926.1612, 613.6963
926.6433, 613.7946
927.1254, 612.9977
927.6075, 609.4048
928.0897, 605.9310
928.5718, 603.7774
929.0539, 602.0883
929.5360, 599.8658
930.0181, 597.5634
930.5002, 596.5485
930.9824, 597.2219
931.4645, 597.6089
931.9466, 595.3949
932.4287, 592.6719
932.9108, 592.3870
933.3929, 593.5996
933.8751, 594.1461
934.3572, 593.6586
934.8393, 592.7134
935.3214, 591.6024
935.8035, 590.7855
936.2856, 591.3863
936.7678, 593.1254
937.2499, 593.8735
937.7320, 593.5294
938.2141, 593.1726
938.6962, 593.1954
939.1783, 593.1998
939.6605, 592.6437
940.1426, 591.7590
940.6247, 592.1895
941.1068, 594.8975
941.5889, 595.8685
942.0710, 593.6968
942.5532, 591.6077
943.0353, 591.1121
943.5174, 591.7090
943.9995, 592.9441
944.4816, 594.9655
944.9637, 595.8654
945.4459, 594.2319
945.9280, 593.2987
946.4101, 594.2208
946.8922, 595.6842
947.3743, 596.8942
947.8564, 597.8257
948.3386, 598.7311
948.8207, 599.7635
949.3028, 600.0584
949.7849, 598.9586
950.2670, 597.2506
950.7491, 594.5455
951.2313, 592.1125
951.7134, 592.3106
952.1955, 594.7459
952.6776, 596.2671
953.1597, 594.8960
953.6418, 593.1007
954.1240, 593.9755
954.6061, 596.0850
955.0882, 596.5736
955.5703, 595.8098
956.0524, 595.8641
956.5345, 597.3647
957.0166, 599.4368
957.4987, 601.5184
957.9808, 603.1234
958.4630, 602.4569
958.9451, 599.7819
959.4272, 598.7332
959.9093, 599.7906
960.3914, 601.1249
960.8735, 601.9581
961.3557, 602.1622
961.8378, 601.2904
962.3199, 599.4413
962.8020, 599.7374
963.2841, 603.2368
963.7662, 605.4299
964.2484, 605.0231
964.7305, 604.1805
965.2126, 604.2222
965.6947, 604.8001
966.1768, 604.9916
966.6589, 604.3129
967.1411, 605.1671
967.6232, 609.9406
968.1053, 612.9878
968.5874, 611.3170
969.0695, 608.9889
969.5516, 609.3125
970.0338, 611.6058
970.5159, 613.4018
970.9980, 613.9846
971.4801, 615.0071
971.9622, 617.3508
972.4443, 619.8024
972.9265, 622.9874
973.4086, 625.0551
973.8907, 622.2185
974.3728, 615.6566
974.8549, 612.1929
975.3370, 615.9931
975.8192, 620.4985
976.3013, 620.3109
976.7834, 618.8300
977.2655, 620.2351
977.7476, 623.4154
978.2297, 625.5463
978.7119, 625.8384
979.1940, 624.8228
979.6761, 622.2094
980.1582, 619.8479
980.6403, 620.8821
981.1224, 624.1222
981.6046, 627.0244
982.0867, 629.2548
982.5688, 630.6484
983.0509, 631.1530
983.5330, 631.1469
984.0151, 630.7021
984.4973, 630.4144
984.9794, 632.7421
985.4615, 637.4296
985.9436, 641.0917
986.4257, 643.2375
986.9078, 644.4280
987.3900, 644.9193
987.8721, 644.7518
988.3542, 643.6758
988.8363, 641.8095
989.3184, 642.6660
989.8005, 647.1753
990.2827, 649.9132
990.7648, 649.4555
991.2469, 648.0409
991.7290, 646.5447
992.2111, 645.7181
992.6932, 647.4288
993.1754, 652.3078
993.6575, 656.1793
994.1396, 658.4703
994.6217, 660.8109
995.1038, 664.6105
995.5859, 667.4285
996.0681, 665.8036
996.5502, 661.9772
997.0323, 662.4548
997.5144, 669.3837
997.9965, 674.2428
998.4786, 674.5795
998.9608, 675.2145
999.4429, 678.9962
999.9250, 682.6512
1000.407, 682.0928
1000.889, 678.8114
1001.371, 678.5779
1001.853, 683.8782
1002.336, 688.0724
1002.818, 687.7134
1003.300, 687.2882
1003.782, 689.6402
1004.264, 693.2086
1004.746, 696.2299
1005.228, 698.4733
1005.710, 700.3306
1006.193, 702.0516
1006.675, 703.1361
1007.157, 701.5665
1007.639, 700.8143
1008.121, 705.7654
1008.603, 713.0311
1009.085, 716.2672
1009.567, 715.0356
1010.049, 713.9017
1010.532, 715.2111
1011.014, 718.0836
1011.496, 722.8890
1011.978, 727.9327
1012.460, 730.3685
1012.942, 731.0193
1013.424, 732.3598
1013.906, 734.9327
1014.388, 737.3929
1014.871, 738.6411
1015.353, 739.5543
1015.835, 741.3593
1016.317, 743.8170
1016.799, 746.1766
1017.281, 748.5707
1017.763, 751.9254
1018.245, 756.4794
1018.728, 761.6204
1019.210, 767.2817
1019.692, 771.8693
1020.174, 770.0276
1020.656, 763.7471
1021.138, 763.9822
1021.620, 771.0345
1022.102, 776.7465
1022.584, 777.9761
1023.067, 777.9109
1023.549, 779.7525
1024.031, 783.0293
1024.513, 786.5466
1024.995, 790.2675
1025.477, 792.6922
1025.959, 793.5848
1026.441, 794.6847
1026.924, 796.5864
1027.406, 799.8715
1027.888, 805.7474
1028.370, 813.1909
1028.852, 815.8928
1029.334, 812.8560
1029.816, 812.7389
1030.298, 816.8798
1030.781, 821.4391
1031.263, 824.7228
1031.745, 827.6265
1032.227, 831.3817
1032.709, 835.7545
1033.191, 838.8148
1033.673, 840.1735
1034.155, 841.3329
1034.637, 841.8444
1035.120, 843.5876
1035.602, 847.8912
1036.084, 853.1945
1036.566, 857.5045
1037.048, 860.9005
1037.530, 864.6183
1038.012, 869.1478
1038.494, 872.8903
1038.976, 874.7731
1039.459, 877.4725
1039.941, 882.8585
1040.423, 889.0675
1040.905, 893.9633
1041.387, 897.5300
1041.869, 899.6764
1042.351, 899.0123
1042.833, 899.2410
1043.316, 900.1740
1043.798, 902.4385
1044.280, 907.4303
1044.762, 913.1494
1045.244, 916.4959
1045.726, 917.7260
1046.208, 921.6328
1046.690, 931.7852
1047.172, 939.3818
1047.655, 941.4971
1048.137, 943.5228
1048.619, 948.7358
1049.101, 954.6100
1049.583, 957.8818
1050.065, 958.6725
1050.547, 959.9165
1051.029, 961.3270
1051.511, 964.2582
1051.994, 970.7760
1052.476, 976.7482
1052.958, 978.7876
1053.440, 980.0353
1053.922, 984.5516
1054.404, 992.1064
1054.886, 999.2311
1055.368, 1005.731
1055.851, 1010.830
1056.333, 1012.888
1056.815, 1015.159
1057.297, 1019.596
1057.779, 1025.005
1058.261, 1029.686
1058.743, 1033.810
1059.225, 1039.182
1059.708, 1047.041
1060.190, 1054.219
1060.672, 1059.384
1061.154, 1064.056
1061.636, 1068.948
1062.118, 1073.920
1062.600, 1078.621
1063.082, 1083.174
1063.564, 1088.096
1064.047, 1093.698
1064.529, 1099.276
1065.011, 1104.964
1065.493, 1110.142
1065.975, 1113.915
1066.457, 1117.373
1066.939, 1121.221
1067.421, 1125.870
1067.903, 1132.534
1068.386, 1142.356
1068.868, 1150.648
1069.350, 1154.894
1069.832, 1157.718
1070.314, 1158.722
1070.796, 1160.563
1071.278, 1166.530
1071.760, 1175.731
1072.243, 1185.213
1072.725, 1194.359
1073.207, 1202.101
1073.689, 1206.131
1074.171, 1210.819
1074.653, 1221.070
1075.135, 1231.331
1075.617, 1233.784
1076.099, 1231.866
1076.582, 1235.532
1077.064, 1247.637
1077.546, 1258.971
1078.028, 1264.970
1078.510, 1269.757
1078.992, 1275.718
1079.474, 1281.424
1079.956, 1283.927
1080.438, 1285.564
1080.921, 1291.898
1081.403, 1304.025
1081.885, 1315.290
1082.367, 1321.646
1082.849, 1327.980
1083.331, 1337.927
1083.813, 1347.712
1084.295, 1353.216
1084.777, 1356.566
1085.260, 1362.360
1085.742, 1371.068
1086.224, 1378.201
1086.706, 1380.262
1087.188, 1383.027
1087.670, 1389.518
1088.152, 1397.347
1088.634, 1405.801
1089.117, 1413.780
1089.599, 1418.954
1090.081, 1421.883
1090.563, 1427.355
1091.045, 1438.448
1091.527, 1449.098
1092.009, 1456.853
1092.491, 1463.263
1092.974, 1468.046
1093.456, 1472.941
1093.938, 1480.413
1094.420, 1490.018
1094.902, 1499.172
1095.384, 1507.218
1095.866, 1514.580
1096.348, 1520.673
1096.830, 1526.983
1097.313, 1533.200
1097.795, 1540.938
1098.277, 1553.733
1098.759, 1569.188
1099.241, 1579.898
1099.723, 1583.337
1100.205, 1588.588
1100.687, 1600.787
1101.169, 1612.222
1101.652, 1618.291
1102.134, 1623.673
1102.616, 1632.087
1103.098, 1642.817
1103.580, 1654.617
1104.062, 1667.379
1104.544, 1677.865
1105.026, 1682.918
1105.509, 1688.872
1105.991, 1696.661
1106.473, 1706.718
1106.955, 1721.990
1107.437, 1738.237
1107.919, 1748.760
1108.401, 1753.403
1108.883, 1758.758
1109.365, 1764.250
1109.848, 1772.934
1110.330, 1788.656
1110.812, 1803.613
1111.294, 1813.317
1111.776, 1821.112
1112.258, 1829.542
1112.740, 1839.203
1113.222, 1853.003
1113.704, 1875.386
1114.187, 1892.547
1114.669, 1899.585
1115.151, 1906.823
1115.633, 1917.446
1116.115, 1929.265
1116.597, 1940.545
1117.079, 1951.617
1117.561, 1963.416
1118.044, 1976.144
1118.526, 1988.716
1119.008, 2001.631
1119.490, 2013.391
1119.972, 2022.381
1120.454, 2032.092
1120.936, 2045.229
1121.418, 2059.955
1121.901, 2072.537
1122.383, 2082.890
1122.865, 2098.560
1123.347, 2123.929
1123.829, 2143.253
1124.311, 2153.083
1124.793, 2160.916
1125.275, 2168.568
1125.757, 2178.490
1126.240, 2194.626
1126.722, 2215.157
1127.204, 2229.404
1127.686, 2234.674
1128.168, 2247.557
1128.650, 2271.036
1129.132, 2291.843
1129.614, 2305.696
1130.096, 2316.441
1130.579, 2326.438
1131.061, 2337.364
1131.543, 2354.477
1132.025, 2377.983
1132.507, 2393.728
1132.989, 2401.235
1133.471, 2410.034
1133.953, 2422.006
1134.436, 2436.495
1134.918, 2453.337
1135.400, 2470.958
1135.882, 2487.072
1136.364, 2502.054
1136.846, 2517.680
1137.328, 2533.824
1137.810, 2550.039
1138.292, 2566.096
1138.775, 2579.591
1139.257, 2589.716
1139.739, 2601.405
1140.221, 2619.774
1140.703, 2641.273
1141.185, 2659.702
1141.667, 2675.261
1142.149, 2686.896
1142.631, 2696.087
1143.114, 2708.107
1143.596, 2724.247
1144.078, 2744.576
1144.560, 2769.832
1145.042, 2793.591
1145.524, 2807.177
1146.006, 2815.423
1146.488, 2822.198
1146.971, 2831.202
1147.453, 2853.938
1147.935, 2885.713
1148.417, 2906.515
1148.899, 2910.070
1149.381, 2914.437
1149.863, 2935.259
1150.345, 2959.119
1150.828, 2972.489
1151.310, 2983.328
1151.792, 3000.347
1152.274, 3021.836
1152.756, 3044.166
1153.238, 3066.079
1153.720, 3085.601
1154.202, 3100.702
1154.684, 3117.023
1155.167, 3140.812
1155.649, 3162.870
1156.131, 3173.599
1156.613, 3182.457
1157.095, 3200.290
1157.577, 3225.204
1158.059, 3250.152
1158.541, 3274.267
1159.023, 3295.573
1159.506, 3309.859
1159.988, 3326.660
1160.470, 3351.117
1160.952, 3376.113
1161.434, 3396.705
1161.916, 3415.343
1162.398, 3436.456
1162.880, 3459.836
1163.363, 3480.380
1163.845, 3495.555
1164.327, 3512.682
1164.809, 3533.007
1165.291, 3553.141
1165.773, 3571.752
1166.255, 3590.141
1166.737, 3608.592
1167.219, 3628.309
1167.702, 3652.802
1168.184, 3682.855
1168.666, 3710.329
1169.148, 3734.666
1169.630, 3759.188
1170.112, 3784.324
1170.594, 3810.571
1171.076, 3838.678
1171.558, 3865.625
1172.041, 3886.653
1172.523, 3904.464
1173.005, 3930.155
1173.487, 3962.885
1173.969, 3993.298
1174.451, 4020.777
1174.933, 4045.878
1175.415, 4068.979
1175.898, 4091.636
1176.380, 4114.765
1176.862, 4139.643
1177.344, 4169.981
1177.826, 4202.519
1178.308, 4227.030
1178.790, 4247.923
1179.272, 4278.729
1179.755, 4318.070
1180.237, 4353.751
1180.719, 4381.664
1181.201, 4409.401
1181.683, 4443.860
1182.165, 4478.907
1182.647, 4509.226
1183.129, 4536.722
1183.611, 4560.735
1184.094, 4585.143
1184.576, 4616.870
1185.058, 4654.944
1185.540, 4691.131
1186.022, 4722.143
1186.504, 4753.398
1186.986, 4786.219
1187.468, 4820.990
1187.950, 4860.226
1188.433, 4899.173
##END=



