##NAMES=Hawleyite
##RRUFFID=R061010
##IDEAL CHEMISTRY=Cd^2+^S^2-^
##LOCALITY=Eureka County, Nevada, USA
##OWNER=RRUFF
##SOURCE=Michael Scott
##DESCRIPTION=Bright yellow-orange fine-grained powder
##STATUS=The identification of this mineral is not yet confirmed.
##URL=rruff.info/R061010
180.3464, 0.0000000E+00
180.8285, 15.74219
181.3106, 20.23438
181.7927, 25.12109
182.2748, 3.054688
182.7569, 13.69922
183.2391, 9.398438
183.7212, 31.74609
184.2033, 90.67969
184.6854, 143.8672
185.1675, 192.4492
185.6496, 220.1836
186.1318, 184.2812
186.6139, 107.1719
187.0960, 63.74219
187.5781, 95.77734
188.0602, 169.4570
188.5423, 236.2656
189.0245, 293.3125
189.5066, 338.7539
189.9887, 369.7031
190.4708, 388.0039
190.9529, 393.7852
191.4350, 367.9688
191.9172, 334.9844
192.3993, 341.5234
192.8814, 400.5625
193.3635, 464.9766
193.8456, 489.4844
194.3277, 489.8281
194.8099, 505.1797
195.2920, 571.1680
195.7741, 652.7383
196.2562, 687.4727
196.7383, 662.5898
197.2204, 628.5781
197.7026, 614.0078
198.1847, 617.5547
198.6668, 643.3281
199.1489, 723.2227
199.6310, 815.4180
200.1131, 852.6562
200.5953, 824.6094
201.0774, 774.1719
201.5595, 716.0547
202.0416, 656.5078
202.5237, 610.6367
203.0058, 600.0352
203.4880, 597.9492
203.9701, 560.3438
204.4522, 479.1953
204.9343, 397.7383
205.4164, 336.6953
205.8985, 295.9102
206.3806, 281.2578
206.8628, 317.9336
207.3449, 367.9922
207.8270, 370.6562
208.3091, 315.3477
208.7912, 279.5781
209.2733, 341.0156
209.7555, 450.2773
210.2376, 517.4961
210.7197, 498.7656
211.2018, 450.9688
211.6839, 430.5977
212.1660, 437.5078
212.6482, 474.9844
213.1303, 567.3008
213.6124, 687.2969
214.0945, 787.1211
214.5766, 864.5508
215.0587, 915.3516
215.5409, 923.5234
216.0230, 888.6992
216.5051, 856.3281
216.9872, 857.2266
217.4693, 872.0547
217.9514, 863.5703
218.4336, 809.8516
218.9157, 759.1133
219.3978, 760.4453
219.8799, 810.6836
220.3620, 854.8398
220.8441, 871.5781
221.3263, 864.4883
221.8084, 845.9961
222.2905, 816.6602
222.7726, 774.3125
223.2547, 707.6328
223.7368, 620.7734
224.2190, 543.5312
224.7011, 482.8398
225.1832, 442.4336
225.6653, 428.5078
226.1474, 453.8906
226.6295, 469.5977
227.1117, 422.5977
227.5938, 336.0117
228.0759, 301.3672
228.5580, 365.1367
229.0401, 474.4961
229.5222, 541.7031
230.0044, 559.5000
230.4865, 574.8672
230.9686, 605.3359
231.4507, 648.7148
231.9328, 701.9844
232.4149, 766.6953
232.8971, 836.0352
233.3792, 905.3555
233.8613, 977.9336
234.3434, 1032.434
234.8255, 1048.480
235.3076, 1044.625
235.7898, 1053.766
236.2719, 1085.020
236.7540, 1122.848
237.2361, 1157.129
237.7182, 1191.727
238.2003, 1178.605
238.6825, 1086.633
239.1646, 966.5352
239.6467, 879.6953
240.1288, 836.7383
240.6109, 814.6914
241.0930, 797.2578
241.5752, 785.6445
242.0573, 758.9336
242.5394, 698.6250
243.0215, 634.1289
243.5036, 599.8008
243.9857, 596.6172
244.4679, 586.5195
244.9500, 533.6641
245.4321, 434.7422
245.9142, 353.6719
246.3963, 280.7773
246.8784, 232.9531
247.3606, 231.4648
247.8427, 269.1875
248.3248, 311.2305
248.8069, 328.8203
249.2890, 325.4062
249.7711, 358.7188
250.2533, 477.2734
250.7354, 576.3594
251.2175, 586.6523
251.6996, 538.2891
252.1817, 511.8359
252.6638, 556.3086
253.1460, 656.0977
253.6281, 732.3906
254.1102, 788.9727
254.5923, 820.8164
255.0744, 803.0742
255.5565, 764.4961
256.0387, 757.1719
256.5208, 807.1367
257.0029, 884.7812
257.4850, 909.3945
257.9671, 809.6680
258.4492, 742.9375
258.9314, 727.1250
259.4135, 742.9492
259.8956, 782.5703
260.3777, 841.4375
260.8598, 895.1758
261.3419, 900.2148
261.8241, 819.8359
262.3062, 751.9648
262.7883, 696.4648
263.2704, 652.5898
263.7525, 626.6602
264.2346, 616.4141
264.7168, 604.4805
265.1989, 563.7852
265.6810, 471.2695
266.1631, 430.5938
266.6452, 490.7227
267.1273, 553.2578
267.6095, 571.5977
268.0916, 545.6719
268.5737, 498.7031
269.0558, 447.9141
269.5379, 392.3125
270.0201, 348.2891
270.5022, 323.1133
270.9843, 303.5000
271.4664, 287.9648
271.9485, 275.0742
272.4306, 259.6758
272.9128, 232.2109
273.3949, 202.0469
273.8770, 223.6211
274.3591, 332.7500
274.8412, 442.8242
275.3233, 525.8984
275.8055, 596.2148
276.2876, 676.5781
276.7697, 781.6211
277.2518, 889.3789
277.7339, 953.0547
278.2160, 959.3086
278.6982, 954.9180
279.1803, 940.0156
279.6624, 926.9180
280.1445, 927.0430
280.6266, 943.7148
281.1087, 969.0898
281.5909, 996.3906
282.0730, 1026.117
282.5551, 1052.945
283.0372, 1087.383
283.5193, 1108.293
284.0014, 1094.090
284.4836, 1044.121
284.9657, 989.7070
285.4478, 963.1094
285.9299, 954.9062
286.4120, 914.0508
286.8941, 819.8359
287.3763, 714.9336
287.8584, 632.0586
288.3405, 569.7070
288.8226, 524.6680
289.3047, 509.9492
289.7868, 508.4922
290.2690, 492.3750
290.7511, 459.5625
291.2332, 415.0781
291.7153, 349.6875
292.1974, 273.9023
292.6795, 226.9492
293.1617, 225.1797
293.6438, 245.6367
294.1259, 274.2539
294.6080, 309.4336
295.0901, 342.8594
295.5722, 363.0234
296.0544, 380.3516
296.5365, 433.0547
297.0186, 552.4844
297.5007, 663.0000
297.9828, 731.0039
298.4649, 768.1211
298.9471, 793.8438
299.4292, 812.6172
299.9113, 835.8242
300.3934, 892.6289
300.8755, 1020.594
301.3576, 1109.672
301.8398, 1121.922
302.3219, 1104.195
302.8040, 1112.812
303.2861, 1157.797
303.7682, 1194.723
304.2503, 1161.543
304.7325, 1016.520
305.2146, 948.2695
305.6967, 998.0273
306.1788, 1068.734
306.6609, 1133.559
307.1430, 1179.863
307.6252, 1192.730
308.1073, 1158.539
308.5894, 1078.062
309.0715, 977.8242
309.5536, 823.2227
310.0357, 684.9688
310.5179, 569.4336
311.0000, 482.2734
311.4821, 436.4609
311.9642, 442.5273
312.4463, 477.8594
312.9284, 475.4102
313.4106, 412.1992
313.8927, 356.6016
314.3748, 303.8164
314.8569, 272.6836
315.3390, 295.2500
315.8211, 378.9648
316.3033, 465.9883
316.7854, 472.3750
317.2675, 385.8359
317.7496, 332.8906
318.2317, 352.5430
318.7138, 393.2266
319.1960, 417.2383
319.6781, 427.1523
320.1602, 454.1055
320.6423, 539.2812
321.1244, 660.1953
321.6065, 727.3828
322.0887, 712.2422
322.5708, 695.4844
323.0529, 741.6992
323.5350, 830.1172
324.0171, 915.2266
324.4992, 1007.086
324.9814, 1073.391
325.4635, 1055.266
325.9456, 957.7578
326.4277, 895.8203
326.9098, 943.5859
327.3919, 1053.758
327.8741, 1098.180
328.3562, 1053.715
328.8383, 988.5781
329.3204, 928.1445
329.8025, 868.6953
330.2846, 798.8828
330.7667, 713.5117
331.2488, 628.2734
331.7310, 573.7812
332.2131, 571.3633
332.6952, 554.9336
333.1773, 512.4961
333.6594, 460.3359
334.1415, 410.2227
334.6237, 364.6406
335.1058, 324.2773
335.5879, 290.7344
336.0700, 265.2500
336.5521, 234.4609
337.0342, 194.5312
337.5164, 154.5078
337.9985, 107.6914
338.4806, 64.06641
338.9627, 43.51562
339.4448, 59.31641
339.9269, 98.39062
340.4091, 114.2344
340.8912, 76.53906
341.3733, 64.71875
341.8554, 101.8945
342.3375, 157.6094
342.8196, 203.9375
343.3018, 233.5820
343.7839, 262.3906
344.2660, 316.3477
344.7481, 400.7891
345.2302, 460.1836
345.7123, 463.2305
346.1945, 464.1328
346.6766, 503.2773
347.1587, 570.7891
347.6408, 622.3516
348.1229, 617.5703
348.6050, 578.4766
349.0872, 563.7031
349.5693, 576.8867
350.0514, 604.1289
350.5335, 669.1484
351.0156, 736.7383
351.4977, 736.5625
351.9799, 609.8125
352.4620, 474.1836
352.9441, 432.7148
353.4262, 468.1289
353.9083, 498.6719
354.3904, 495.4492
354.8726, 470.5039
355.3547, 451.9805
355.8368, 456.2812
356.3189, 416.3281
356.8010, 266.0469
357.2831, 89.64453
357.7653, 15.12891
358.2474, 32.72266
358.7295, 11.68359
359.2116, 4.390625
359.6937, 16.56250
360.1758, 13.12891
360.6580, 6.714844
361.1401, 37.99219
361.6222, 105.9883
362.1043, 182.0586
362.5864, 205.0039
363.0685, 136.2891
363.5507, 5.421875
364.0328, 86.33594
364.5149, 133.0820
364.9970, 145.5312
365.4791, 66.70312
365.9612, 6.738281
366.4434, 24.55859
366.9255, 174.6953
367.4076, 350.8164
367.8897, 443.5781
368.3718, 446.2617
368.8539, 467.4922
369.3361, 539.1758
369.8182, 598.1328
370.3003, 589.8633
370.7824, 540.0547
371.2645, 521.6367
371.7466, 600.4883
372.2288, 716.4414
372.7109, 758.5039
373.1930, 719.6836
373.6751, 667.3125
374.1572, 631.0117
374.6393, 602.5664
375.1215, 564.3438
375.6036, 506.7148
376.0857, 458.6523
376.5678, 441.5273
377.0499, 444.5625
377.5320, 453.5391
378.0142, 468.7109
378.4963, 461.5156
378.9784, 387.3281
379.4605, 219.6562
379.9426, 92.11328
380.4247, 15.78906
380.9069, 27.73828
381.3890, 28.80859
381.8711, 3.464844
382.3532, 2.882813
382.8353, 67.43750
383.3174, 179.9062
383.7996, 234.6797
384.2817, 167.4414
384.7638, 117.4023
385.2459, 111.3594
385.7280, 123.1445
386.2101, 128.3164
386.6923, 119.2109
387.1744, 99.37109
387.6565, 77.58594
388.1386, 58.23047
388.6207, 9.335938
389.1028, 92.22266
389.5850, 202.8828
390.0671, 310.8555
390.5492, 409.7930
391.0313, 487.3047
391.5134, 538.6680
391.9955, 562.2578
392.4777, 541.1289
392.9598, 464.1680
393.4419, 419.3242
393.9240, 469.8008
394.4061, 568.3320
394.8882, 628.2031
395.3704, 635.8750
395.8525, 630.5664
396.3346, 618.9062
396.8167, 609.8555
397.2988, 633.4570
397.7809, 699.3867
398.2631, 751.0312
398.7452, 716.3867
399.2273, 570.5117
399.7094, 474.2266
400.1915, 456.5742
400.6736, 460.2305
401.1558, 465.1250
401.6379, 466.0156
402.1200, 458.1953
402.6021, 437.9414
403.0842, 407.0273
403.5663, 372.2227
404.0485, 330.2617
404.5306, 292.3594
405.0127, 257.9414
405.4948, 229.7227
405.9769, 210.8281
406.4590, 201.7070
406.9412, 199.7109
407.4233, 200.2148
407.9054, 203.8281
408.3875, 224.9688
408.8696, 276.9453
409.3517, 325.2617
409.8339, 336.4531
410.3160, 332.6367
410.7981, 357.4922
411.2802, 437.3125
411.7623, 531.7656
412.2444, 599.1289
412.7266, 641.8008
413.2087, 685.6758
413.6908, 746.0273
414.1729, 800.5391
414.6550, 801.6250
415.1371, 737.5039
415.6193, 695.1875
416.1014, 711.0117
416.5835, 743.5977
417.0656, 750.3633
417.5477, 733.2305
418.0298, 726.2773
418.5120, 751.1797
418.9941, 801.0547
419.4762, 822.7969
419.9583, 814.5117
420.4404, 784.5664
420.9225, 721.9258
421.4047, 647.5508
421.8868, 570.6992
422.3689, 497.7305
422.8510, 444.7695
423.3331, 446.4688
423.8152, 511.9727
424.2974, 544.5469
424.7795, 512.7305
425.2616, 473.7383
425.7437, 452.8438
426.2258, 448.3789
426.7079, 454.0234
427.1901, 477.7578
427.6722, 499.6484
428.1543, 482.6016
428.6364, 427.9453
429.1185, 388.9297
429.6006, 393.9062
430.0828, 417.7969
430.5649, 414.5078
431.0470, 377.4219
431.5291, 346.7266
432.0112, 327.1328
432.4933, 322.8906
432.9755, 348.1992
433.4576, 399.7148
433.9397, 444.6172
434.4218, 452.3398
434.9039, 427.0938
435.3860, 440.7070
435.8682, 548.3555
436.3503, 629.2656
436.8324, 663.0586
437.3145, 659.7500
437.7966, 616.4062
438.2787, 535.0938
438.7609, 457.7383
439.2430, 450.6367
439.7251, 525.2773
440.2072, 574.7734
440.6893, 581.3633
441.1714, 567.0273
441.6536, 544.8281
442.1357, 521.5742
442.6178, 495.1641
443.0999, 453.7891
443.5820, 415.4688
444.0641, 412.9609
444.5463, 441.8281
445.0284, 448.5195
445.5105, 401.6367
445.9926, 341.4844
446.4747, 354.7031
446.9568, 468.8711
447.4390, 511.0430
447.9211, 374.2422
448.4032, 211.8633
448.8853, 158.8789
449.3674, 210.0586
449.8495, 285.8945
450.3317, 335.6758
450.8138, 359.6172
451.2959, 354.8672
451.7780, 302.9180
452.2601, 248.5898
452.7422, 187.6523
453.2244, 132.9102
453.7065, 88.85156
454.1886, 59.13672
454.6707, 55.96875
455.1528, 109.7773
455.6349, 210.8711
456.1171, 265.1953
456.5992, 251.6523
457.0813, 231.8672
457.5634, 251.7773
458.0455, 284.6367
458.5276, 283.5234
459.0098, 216.8398
459.4919, 156.9219
459.9740, 154.0742
460.4561, 195.3789
460.9382, 255.0547
461.4203, 328.9609
461.9025, 403.2227
462.3846, 467.5703
462.8667, 526.5742
463.3488, 537.7227
463.8309, 437.8281
464.3130, 360.1289
464.7952, 382.0547
465.2773, 465.5938
465.7594, 546.4648
466.2415, 595.9805
466.7236, 608.8750
467.2057, 559.5625
467.6879, 413.9414
468.1700, 326.4961
468.6521, 354.2422
469.1342, 407.7695
469.6163, 457.1953
470.0984, 495.0195
470.5806, 508.1484
471.0627, 484.5859
471.5448, 435.4727
472.0269, 365.8711
472.5090, 276.4883
472.9911, 215.8867
473.4733, 218.3672
473.9554, 241.6328
474.4375, 195.6680
474.9196, 57.19531
475.4017, 39.48047
475.8839, 37.60156
476.3660, 8.066406
476.8481, 13.50000
477.3302, 51.24219
477.8123, 82.07422
478.2944, 78.16016
478.7766, 47.23438
479.2587, 24.65234
479.7408, 6.101563
480.2229, 2.984375
480.7050, 48.86328
481.1871, 85.56250
481.6693, 50.69141
482.1514, 52.29688
482.6335, 148.0898
483.1156, 157.4961
483.5977, 111.6328
484.0798, 119.8203
484.5620, 192.8281
485.0441, 272.6328
485.5262, 332.7305
486.0083, 378.1406
486.4904, 420.6055
486.9725, 458.6289
487.4547, 495.6680
487.9368, 556.8125
488.4189, 605.8281
488.9010, 576.1875
489.3831, 467.0938
489.8652, 359.8906
490.3474, 326.2070
490.8295, 361.4688
491.3116, 388.4531
491.7937, 418.6797
492.2758, 425.0117
492.7579, 383.2070
493.2401, 327.8477
493.7222, 293.7852
494.2043, 288.4883
494.6864, 290.9961
495.1685, 279.4258
495.6506, 256.8125
496.1327, 245.8711
496.6148, 254.3711
497.0970, 254.5664
497.5791, 210.6797
498.0612, 151.9883
498.5433, 142.1523
499.0254, 217.0234
499.5075, 284.0078
499.9897, 292.7070
500.4718, 266.9062
500.9539, 238.2227
501.4360, 214.1680
501.9181, 197.7383
502.4002, 193.2148
502.8824, 200.9062
503.3645, 205.3594
503.8466, 219.1641
504.3287, 215.0508
504.8108, 162.1641
505.2929, 102.1133
505.7751, 86.78516
506.2572, 127.4688
506.7393, 178.7578
507.2214, 189.9922
507.7035, 167.2266
508.1856, 163.2734
508.6678, 185.2344
509.1499, 213.9727
509.6320, 245.5742
510.1141, 273.8125
510.5962, 283.0547
511.0783, 255.8477
511.5605, 235.7852
512.0426, 246.1523
512.5247, 275.2227
513.0068, 313.1289
513.4890, 355.2461
513.9711, 382.1133
514.4532, 371.0430
514.9353, 323.0117
515.4174, 315.1992
515.8995, 400.1758
516.3817, 460.6758
516.8638, 471.7773
517.3459, 453.5195
517.8280, 410.6367
518.3101, 345.2109
518.7922, 300.6758
519.2744, 345.5391
519.7565, 449.2266
520.2386, 466.5352
520.7207, 368.3789
521.2028, 281.9492
521.6849, 295.6641
522.1671, 371.1680
522.6492, 397.5039
523.1313, 347.2539
523.6134, 300.2305
524.0955, 282.0195
524.5776, 280.7773
525.0598, 285.2383
525.5419, 293.3125
526.0240, 308.3711
526.5061, 337.3438
526.9882, 374.2578
527.4703, 370.0508
527.9525, 289.6680
528.4346, 228.1523
528.9167, 201.2734
529.3988, 199.8008
529.8809, 225.6641
530.3630, 275.5938
530.8452, 322.5898
531.3273, 342.7539
531.8094, 351.7773
532.2915, 379.3750
532.7736, 423.8164
533.2557, 441.7812
533.7379, 403.5117
534.2200, 345.5234
534.7021, 355.0469
535.1842, 477.1172
535.6663, 544.8984
536.1484, 497.9766
536.6306, 429.4609
537.1127, 392.1094
537.5948, 392.5078
538.0769, 436.1016
538.5590, 533.3320
539.0411, 641.2305
539.5233, 637.4961
540.0054, 486.6289
540.4875, 379.6367
540.9696, 383.8281
541.4517, 408.4414
541.9338, 375.0820
542.4160, 300.3477
542.8981, 265.0547
543.3802, 345.7891
543.8623, 441.5469
544.3444, 451.8477
544.8265, 398.9219
545.3087, 355.8867
545.7908, 349.0898
546.2729, 352.4883
546.7550, 326.6953
547.2371, 259.9414
547.7192, 215.4180
548.2014, 201.2031
548.6835, 197.2031
549.1656, 202.0195
549.6477, 210.3867
550.1298, 211.4258
550.6119, 200.3750
551.0941, 198.5078
551.5762, 240.4453
552.0583, 318.4766
552.5404, 377.7031
553.0225, 411.3203
553.5046, 430.5703
553.9868, 438.7930
554.4689, 438.4570
554.9510, 441.2070
555.4331, 464.1875
555.9152, 466.3086
556.3973, 402.6055
556.8795, 330.2734
557.3616, 322.7031
557.8437, 382.0703
558.3258, 449.4531
558.8079, 475.0625
559.2900, 466.4727
559.7722, 473.3320
560.2543, 515.3594
560.7364, 527.6523
561.2185, 458.6445
561.7006, 376.5625
562.1827, 337.7773
562.6649, 342.3672
563.1470, 341.7969
563.6291, 295.4766
564.1112, 244.2500
564.5933, 257.3203
565.0754, 316.0820
565.5576, 315.9727
566.0397, 204.1406
566.5218, 54.01562
567.0039, 1.726563
567.4860, 85.42578
567.9681, 128.0703
568.4503, 88.73438
568.9324, 50.91797
569.4145, 62.06250
569.8966, 96.42578
570.3787, 105.9336
570.8608, 70.81641
571.3430, 20.89844
571.8251, 12.55078
572.3072, 30.29297
572.7893, 32.11719
573.2714, 12.12109
573.7535, 1.164063
574.2357, 32.06641
574.7178, 91.46094
575.1999, 109.9609
575.6820, 54.39453
576.1641, 4.511719
576.6462, 20.22656
577.1283, 32.02734
577.6104, 42.58594
578.0925, 52.66016
578.5746, 54.07422
579.0568, 35.89844
579.5389, 9.234375
580.0210, 16.95312
580.5031, 67.59766
580.9852, 119.2969
581.4673, 182.4648
581.9495, 221.3516
582.4316, 184.9258
582.9137, 81.29688
583.3958, 14.91406
583.8779, 50.47266
584.3600, 100.9258
584.8422, 91.62109
585.3243, 47.42969
585.8064, 31.92578
586.2885, 66.30469
586.7706, 120.0469
587.2527, 158.1484
587.7349, 184.1328
588.2170, 159.2344
588.6991, 15.75391
589.1812, 84.65234
589.6633, 69.35547
590.1454, 2.976563
590.6276, 67.22656
591.1097, 111.0078
591.5918, 144.3438
592.0739, 175.5625
592.5560, 199.5000
593.0381, 198.0977
593.5203, 174.5000
594.0024, 171.8594
594.4845, 220.6523
594.9666, 289.7852
595.4487, 299.6602
595.9308, 199.1953
596.4130, 138.6953
596.8951, 131.1250
597.3772, 146.1094
597.8593, 178.3398
598.3414, 220.0430
598.8235, 261.9141
599.3057, 303.1328
599.7878, 332.4844
600.2699, 316.9102
600.7520, 274.5898
601.2341, 295.1797
601.7162, 401.6758
602.1984, 509.8594
602.6805, 552.5625
603.1626, 539.5039
603.6447, 537.6602
604.1268, 569.4375
604.6089, 580.9805
605.0911, 550.6445
605.5732, 507.6992
606.0553, 469.8984
606.5374, 442.2656
607.0195, 430.4414
607.5016, 443.7500
607.9838, 465.6094
608.4659, 446.9922
608.9480, 387.0586
609.4301, 388.8555
609.9122, 495.7305
610.3943, 621.2070
610.8765, 673.9453
611.3586, 653.8516
611.8407, 636.5195
612.3228, 606.5820
612.8049, 594.7617
613.2870, 642.7344
613.7692, 699.7773
614.2513, 692.8398
614.7334, 615.7656
615.2155, 536.0625
615.6976, 517.4688
616.1797, 545.8320
616.6619, 558.7227
617.1440, 552.2852
617.6261, 549.7734
618.1082, 550.7461
618.5903, 567.3789
619.0724, 632.8516
619.5546, 749.3789
620.0367, 812.1914
620.5188, 747.1641
621.0009, 680.0469
621.4830, 684.0430
621.9651, 735.8906
622.4473, 803.1602
622.9294, 871.1562
623.4115, 915.9727
623.8936, 900.4531
624.3757, 832.6836
624.8578, 793.5469
625.3400, 792.2930
625.8221, 786.5273
626.3042, 761.0352
626.7863, 720.6172
627.2684, 660.0703
627.7505, 571.4492
628.2327, 539.5117
628.7148, 641.0820
629.1969, 760.1758
629.6790, 815.5781
630.1611, 820.7812
630.6432, 802.0664
631.1254, 770.8359
631.6075, 746.6914
632.0896, 764.3398
632.5717, 825.8164
633.0538, 839.6836
633.5359, 786.3008
634.0181, 735.5352
634.5002, 719.2266
634.9823, 722.6602
635.4644, 726.2812
635.9465, 728.2148
636.4286, 733.3984
636.9108, 748.6602
637.3929, 762.1914
637.8750, 764.1797
638.3571, 755.2930
638.8392, 738.1992
639.3214, 713.9023
639.8035, 687.4727
640.2856, 668.5938
640.7677, 658.7227
641.2498, 638.9922
641.7319, 599.0156
642.2141, 570.0430
642.6962, 598.1367
643.1783, 635.0195
643.6604, 598.1211
644.1425, 460.3477
644.6246, 345.1250
645.1068, 302.0078
645.5889, 296.7539
646.0710, 318.2969
646.5531, 350.7539
647.0352, 352.1680
647.5173, 305.6016
647.9995, 249.3672
648.4816, 245.4609
648.9637, 297.8906
649.4458, 355.6641
649.9279, 431.7812
650.4100, 485.5469
650.8922, 487.0078
651.3743, 453.1016
651.8564, 405.5703
652.3385, 328.8398
652.8206, 286.5703
653.3027, 331.6055
653.7849, 395.2422
654.2670, 424.4531
654.7491, 421.8789
655.2312, 394.5586
655.7133, 345.1172
656.1954, 299.6250
656.6776, 304.6289
657.1597, 360.5820
657.6418, 389.2148
658.1239, 375.6055
658.6060, 368.8828
659.0881, 420.1836
659.5703, 482.2656
660.0524, 454.0156
660.5345, 300.5625
661.0166, 178.0273
661.4987, 130.9219
661.9808, 114.2344
662.4630, 107.3984
662.9451, 103.9453
663.4272, 93.68359
663.9093, 72.84766
664.3914, 57.02734
664.8735, 80.81250
665.3557, 135.6992
665.8378, 127.3398
666.3199, 31.53125
666.8020, 25.56250
667.2841, 44.51172
667.7662, 168.6523
668.2484, 187.6562
668.7305, 54.76172
669.2126, 8.917969
669.6947, 88.16406
670.1768, 183.0977
670.6589, 173.0820
671.1411, 106.7383
671.6232, 73.66016
672.1053, 101.6797
672.5874, 142.5898
673.0695, 143.1758
673.5516, 112.5547
674.0338, 88.13672
674.5159, 71.13672
674.9980, 63.97266
675.4801, 66.61719
675.9622, 79.00781
676.4443, 112.0664
676.9265, 180.2891
677.4086, 217.6172
677.8907, 215.6367
678.3728, 191.7461
678.8549, 126.0156
679.3370, 56.42969
679.8192, 40.06250
680.3013, 83.46484
680.7834, 114.6250
681.2655, 60.36328
681.7476, 29.25391
682.2297, 73.49609
682.7119, 76.03516
683.1940, 61.84766
683.6761, 38.57031
684.1582, 8.289063
684.6403, 27.90234
685.1224, 70.69141
685.6046, 108.1875
686.0867, 164.9492
686.5688, 179.8867
687.0509, 81.91406
687.5330, 17.98438
688.0151, 8.042969
688.4973, 108.4961
688.9794, 216.3242
689.4615, 280.1875
689.9436, 299.7031
690.4257, 232.8477
690.9078, 129.7305
691.3900, 115.7383
691.8721, 211.7148
692.3542, 300.8984
692.8363, 268.7773
693.3184, 143.1992
693.8005, 86.83984
694.2827, 120.6836
694.7648, 154.1758
695.2469, 162.6562
695.7290, 172.5898
696.2111, 223.4258
696.6932, 298.2070
697.1754, 323.8125
697.6575, 229.0703
698.1396, 160.7305
698.6217, 220.9297
699.1038, 307.6289
699.5859, 302.6758
700.0681, 210.1680
700.5502, 102.1484
701.0323, 17.71094
701.5144, 30.72266
701.9965, 5.714844
702.4786, 120.9844
702.9608, 166.1914
703.4429, 106.7031
703.9250, 35.93359
704.4071, 14.55859
704.8892, 29.90625
705.3713, 39.85156
705.8535, 55.15234
706.3356, 45.80859
706.8177, 16.98828
707.2998, 77.73047
707.7819, 105.3242
708.2640, 108.1719
708.7462, 108.3008
709.2283, 114.4023
709.7104, 105.5820
710.1925, 40.03906
710.6746, 44.59375
711.1567, 61.43359
711.6389, 14.80469
712.1210, 21.14844
712.6031, 13.59766
713.0852, 25.12500
713.5673, 80.15625
714.0494, 157.6523
714.5316, 209.4219
715.0137, 230.0781
715.4958, 232.5195
715.9779, 213.8516
716.4600, 184.1562
716.9421, 146.8320
717.4243, 103.1953
717.9064, 78.85156
718.3885, 99.94531
718.8706, 126.9336
719.3527, 126.1836
719.8348, 114.2695
720.3170, 129.6133
720.7991, 174.7891
721.2812, 201.4570
721.7633, 157.2852
722.2454, 72.00781
722.7275, 46.72266
723.2097, 86.01172
723.6918, 125.3047
724.1739, 155.6016
724.6560, 168.2266
725.1381, 158.7617
725.6202, 127.7891
726.1024, 97.93750
726.5845, 51.73438
727.0666, 30.21484
727.5487, 74.64453
728.0308, 117.7812
728.5129, 106.2383
728.9951, 54.93359
729.4772, 7.425781
729.9593, 20.97656
730.4414, 30.04297
730.9235, 0.7656250
731.4056, 41.87891
731.8878, 35.77344
732.3699, 16.22656
732.8520, 46.33984
733.3341, 17.40625
733.8162, 35.87500
734.2983, 42.15234
734.7805, 16.85547
735.2626, 9.613281
735.7447, 107.0742
736.2268, 214.3867
736.7089, 274.9023
737.1910, 294.9766
737.6732, 262.0430
738.1553, 170.1445
738.6374, 135.2773
739.1195, 250.3945
739.6016, 354.8945
740.0837, 351.3672
740.5659, 291.7383
741.0480, 242.1445
741.5301, 218.5117
742.0122, 209.6328
742.4943, 212.0664
742.9764, 214.9609
743.4586, 183.3398
743.9407, 125.5469
744.4228, 121.0977
744.9049, 190.6680
745.3870, 280.6484
745.8691, 360.8164
746.3513, 427.2539
746.8334, 449.8633
747.3155, 391.3047
747.7976, 358.2852
748.2797, 379.3594
748.7618, 402.3203
749.2440, 400.7930
749.7261, 383.7656
750.2082, 369.0391
750.6903, 360.5859
751.1724, 353.5703
751.6545, 346.5312
752.1367, 339.2695
752.6188, 332.2305
753.1009, 324.2617
753.5830, 307.8711
754.0651, 281.6211
754.5472, 266.0391
755.0294, 295.9805
755.5115, 358.5742
755.9936, 385.3320
756.4757, 375.0547
756.9578, 345.4023
757.4399, 293.8164
757.9221, 245.9414
758.4042, 231.2812
758.8863, 249.5039
759.3684, 266.7461
759.8505, 283.2695
760.3326, 308.8516
760.8148, 348.8789
761.2969, 391.7578
761.7790, 437.2969
762.2611, 477.8828
762.7432, 490.1133
763.2253, 442.3516
763.7075, 416.6016
764.1896, 508.3750
764.6717, 626.0312
765.1538, 636.5234
765.6359, 557.3594
766.1180, 488.7383
766.6002, 478.3867
767.0823, 503.4102
767.5644, 537.0508
768.0465, 582.4219
768.5286, 635.5508
769.0107, 697.3984
769.4929, 734.0117
769.9750, 727.8945
770.4571, 696.0742
770.9392, 649.6836
771.4213, 580.4375
771.9034, 566.7422
772.3856, 683.7695
772.8677, 756.2617
773.3498, 708.4609
773.8319, 637.4922
774.3140, 635.0820
774.7961, 688.6719
775.2783, 713.7734
775.7604, 654.3516
776.2425, 599.7578
776.7246, 624.7812
777.2067, 683.2539
777.6888, 714.8789
778.1710, 717.7148
778.6531, 715.0547
779.1352, 718.3477
779.6173, 732.4180
780.0994, 772.8516
780.5815, 834.7305
781.0637, 872.3086
781.5458, 881.6289
782.0279, 880.3398
782.5100, 869.6836
782.9921, 865.0312
783.4742, 891.5938
783.9564, 953.4531
784.4385, 1005.043
784.9206, 1039.125
785.4027, 1071.449
785.8848, 1110.277
786.3669, 1142.676
786.8491, 1161.594
787.3312, 1164.758
787.8133, 1144.414
788.2954, 1085.480
788.7775, 1028.582
789.2596, 979.6094
789.7418, 951.0703
790.2239, 972.4492
790.7060, 1026.430
791.1881, 1066.855
791.6702, 1070.242
792.1523, 1040.051
792.6345, 958.2695
793.1166, 848.8594
793.5987, 793.0234
794.0808, 792.5742
794.5629, 827.5703
795.0450, 897.5000
795.5272, 963.3438
796.0093, 971.1914
796.4914, 920.4688
796.9735, 882.2461
797.4556, 855.2734
797.9377, 842.2266
798.4199, 851.2891
798.9020, 866.4062
799.3841, 873.6875
799.8662, 875.9922
800.3483, 886.0430
800.8304, 921.0273
801.3126, 937.1406
801.7947, 906.6055
802.2768, 867.2734
802.7589, 846.3203
803.2410, 839.9727
803.7231, 832.7891
804.2053, 819.6562
804.6874, 815.2578
805.1695, 845.6484
805.6516, 885.3633
806.1337, 887.9414
806.6158, 862.7891
807.0980, 843.8828
807.5801, 841.7188
808.0622, 860.2852
808.5443, 909.4141
809.0264, 975.8359
809.5085, 999.8008
809.9907, 975.2031
810.4728, 955.2578
810.9549, 949.4219
811.4370, 946.7305
811.9191, 939.3516
812.4012, 929.5547
812.8834, 925.5117
813.3655, 926.8320
813.8476, 933.1016
814.3297, 943.7773
814.8118, 948.7812
815.2939, 952.0625
815.7761, 948.0508
816.2582, 914.6055
816.7403, 852.9453
817.2224, 839.8203
817.7045, 994.0547
818.1866, 1112.074
818.6688, 1004.578
819.1509, 808.6562
819.6330, 709.3672
820.1151, 720.1094
820.5972, 745.6953
821.0793, 731.1562
821.5615, 698.6523
822.0436, 662.5938
822.5257, 630.1758
823.0078, 645.3945
823.4899, 707.3516
823.9720, 739.4258
824.4542, 702.2188
824.9363, 643.5625
825.4184, 642.4102
825.9005, 699.7500
826.3826, 703.2266
826.8647, 627.0039
827.3469, 580.6406
827.8290, 616.8398
828.3111, 660.1719
828.7932, 631.6016
829.2753, 541.9062
829.7574, 483.6133
830.2396, 458.7812
830.7217, 462.1875
831.2038, 533.4414
831.6859, 592.6016
832.1680, 576.4414
832.6501, 521.1367
833.1323, 502.8086
833.6144, 543.6016
834.0965, 555.9531
834.5786, 438.8398
835.0607, 330.3555
835.5428, 372.9258
836.0250, 493.4062
836.5071, 576.6758
836.9892, 594.8477
837.4713, 562.7227
837.9534, 476.6641
838.4355, 376.9531
838.9177, 328.2461
839.3998, 322.0859
839.8819, 332.8594
840.3640, 356.1133
840.8461, 362.0117
841.3282, 332.4492
841.8104, 290.1250
842.2925, 273.8359
842.7746, 284.3477
843.2567, 308.6953
843.7388, 353.2266
844.2209, 387.5156
844.7031, 402.3164
845.1852, 401.2930
845.6673, 383.3633
846.1494, 350.1914
846.6315, 327.8555
847.1136, 334.3906
847.5958, 324.4766
848.0779, 258.9414
848.5600, 213.0977
849.0421, 255.6289
849.5242, 337.7266
850.0063, 370.9102
850.4885, 338.6445
850.9706, 273.4883
851.4527, 115.5664
851.9348, 4.566406
852.4169, 79.42188
852.8990, 230.9141
853.3812, 317.6797
853.8633, 316.8164
854.3454, 268.1211
854.8275, 170.3672
855.3096, 87.17578
855.7917, 105.3164
856.2739, 182.6602
856.7560, 244.0820
857.2381, 281.0195
857.7202, 303.0664
858.2023, 314.6328
858.6844, 313.2578
859.1666, 291.3555
859.6487, 252.7461
860.1308, 218.8398
860.6129, 189.4336
861.0950, 167.8633
861.5771, 155.3164
862.0593, 147.4922
862.5414, 141.3867
863.0235, 136.4219
863.5056, 131.0664
863.9877, 129.6562
864.4698, 112.6250
864.9520, 58.97266
865.4341, 25.01562
865.9162, 60.61328
866.3983, 118.7891
866.8804, 115.1133
867.3625, 39.77344
867.8447, 14.05078
868.3268, 28.61719
868.8089, 39.78906
869.2910, 49.61328
869.7731, 65.02734
870.2552, 111.9883
870.7374, 169.4688
871.2195, 167.2969
871.7016, 58.26562
872.1837, 36.26562
872.6658, 52.92969
873.1479, 37.38672
873.6301, 14.76172
874.1122, 7.230469
874.5943, 20.67969
875.0764, 24.40234
875.5585, 26.46875
876.0406, 38.70312
876.5228, 46.56641
877.0049, 19.00781
877.4870, 22.63281
877.9691, 25.58203
878.4512, 9.578125
878.9333, 38.04297
879.4155, 35.45312
879.8976, 7.933594
880.3797, 49.12500
880.8618, 125.5586
881.3439, 160.3008
881.8260, 153.7305
882.3082, 152.0117
882.7903, 171.2148
883.2724, 185.5508
883.7545, 165.4453
884.2366, 124.2188
884.7188, 131.5664
885.2009, 206.8945
885.6830, 231.3516
886.1651, 176.2383
886.6472, 113.5000
887.1293, 68.67969
887.6115, 43.36719
888.0936, 53.60156
888.5757, 110.2812
889.0578, 135.9414
889.5399, 108.4180
890.0220, 83.79297
890.5042, 56.75000
890.9863, 41.14062
891.4684, 51.49609
891.9505, 84.67578
892.4326, 133.8594
892.9147, 219.0195
893.3969, 269.8789
893.8790, 257.3711
894.3611, 222.2383
894.8432, 176.2578
895.3253, 127.0664
895.8074, 74.73828
896.2896, 23.95312
896.7717, 3.980469
897.2538, 42.96094
897.7359, 96.22266
898.2180, 142.1289
898.7001, 182.2969
899.1823, 228.9688
899.6644, 270.3828
900.1465, 267.3789
900.6286, 204.8711
901.1107, 146.9180
901.5928, 163.3711
902.0750, 207.9570
902.5571, 207.0469
903.0392, 181.6250
903.5213, 198.8477
904.0034, 261.3008
904.4855, 292.0664
904.9677, 234.8633
905.4498, 149.8984
905.9318, 139.3125
906.4139, 187.2539
906.8961, 230.7344
907.3782, 265.5586
907.8603, 286.9844
908.3424, 292.3750
908.8245, 303.1836
909.3066, 347.3984
909.7888, 411.0820
910.2709, 425.2070
910.7530, 383.8789
911.2351, 362.0898
911.7172, 373.2695
912.1993, 392.5000
912.6815, 411.6289
913.1636, 419.0234
913.6457, 384.8906
914.1278, 304.6406
914.6099, 247.9609
915.0920, 212.7109
915.5742, 211.0547
916.0563, 275.7422
916.5384, 329.4609
917.0205, 289.0391
917.5026, 195.0938
917.9847, 192.6094
918.4669, 357.5898
918.9490, 439.9805
919.4311, 374.2500
919.9132, 308.1914
920.3953, 282.5078
920.8774, 280.6758
921.3596, 294.7891
921.8417, 320.5000
922.3238, 330.1250
922.8059, 322.4883
923.2880, 294.7773
923.7701, 215.6211
924.2523, 148.2539
924.7344, 131.1016
925.2165, 152.0820
925.6986, 196.4180
926.1807, 260.3008
926.6628, 310.9297
927.1450, 323.5703
927.6271, 333.9570
928.1092, 364.9102
928.5913, 394.4648
929.0734, 409.6719
929.5555, 414.0547
930.0377, 396.2734
930.5198, 346.4219
931.0019, 314.8008
931.4840, 356.1641
931.9661, 409.7461
932.4482, 419.4531
932.9304, 402.0820
933.4125, 389.2773
933.8946, 381.1602
934.3767, 353.0859
934.8588, 290.5508
935.3409, 223.1172
935.8231, 177.5820
936.3052, 146.5625
936.7873, 123.2383
937.2694, 105.9727
937.7515, 84.24609
938.2336, 56.91016
938.7158, 45.22266
939.1979, 70.71484
939.6800, 110.9023
940.1621, 126.4062
940.6442, 125.1953
941.1263, 134.1836
941.6085, 152.4609
942.0906, 162.4531
942.5727, 156.8164
943.0548, 129.0078
943.5369, 60.46875
944.0190, 25.05859
944.5012, 47.01953
944.9833, 12.53125
945.4654, 22.82812
945.9475, 50.79688
946.4296, 51.69141
946.9117, 11.20703
947.3939, 35.25000
947.8760, 27.92969
948.3581, 26.16016
948.8402, 57.77734
949.3223, 65.54688
949.8044, 75.37891
950.2866, 91.19531
950.7687, 121.0508
951.2508, 177.4805
951.7329, 235.4258
952.2150, 233.4531
952.6971, 164.5078
953.1793, 111.7812
953.6614, 76.41797
954.1435, 51.82031
954.6256, 35.66797
955.1077, 31.39453
955.5898, 44.82812
956.0720, 67.20312
956.5541, 63.43359
957.0362, 20.07422
957.5183, 2.175781
958.0004, 17.30469
958.4825, 39.72266
958.9647, 68.18750
959.4468, 97.33594
959.9289, 121.9453
960.4110, 140.7930
960.8931, 142.5820
961.3752, 108.2422
961.8574, 98.08984
962.3395, 142.8047
962.8216, 166.5664
963.3037, 115.0000
963.7858, 42.84766
964.2679, 24.84375
964.7501, 60.68359
965.2322, 80.18750
965.7143, 78.85156
966.1964, 66.42578
966.6785, 29.08594
967.1606, 2.421875
967.6428, 7.546875
968.1249, 0.3632810
968.6070, 10.16016
969.0891, 43.61328
969.5712, 33.93359
970.0533, 78.19922
970.5355, 154.6992
971.0176, 144.6914
971.4997, 120.1523
971.9818, 115.8398
972.4639, 131.8320
972.9460, 173.8672
973.4282, 249.9922
973.9103, 292.6289
974.3924, 261.9453
974.8745, 236.9531
975.3566, 248.6328
975.8387, 265.1758
976.3209, 257.4883
976.8030, 236.4688
977.2851, 231.7617
977.7672, 251.5391
978.2493, 265.6836
978.7314, 256.5469
979.2136, 254.9922
979.6957, 285.3594
980.1778, 318.1875
980.6599, 324.4453
981.1420, 310.9531
981.6241, 305.2227
982.1063, 320.6094
982.5884, 311.5117
983.0705, 234.9102
983.5526, 166.8008
984.0347, 144.4453
984.5168, 148.8164
984.9990, 174.5781
985.4811, 207.3203
985.9632, 205.4922
986.4453, 143.6289
986.9274, 97.09766
987.4095, 102.4531
987.8917, 119.5508
988.3738, 131.8125
988.8559, 138.8477
989.3380, 136.5781
989.8201, 129.6055
990.3022, 137.7578
990.7844, 180.0078
991.2665, 201.0625
991.7486, 158.0391
992.2307, 109.1641
992.7128, 90.45312
993.1949, 89.48047
993.6771, 86.23047
994.1592, 81.58594
994.6413, 92.88672
995.1234, 129.8242
995.6055, 173.7383
996.0876, 223.0234
996.5698, 268.7695
997.0519, 317.7969
997.5340, 351.0156
998.0161, 328.8281
998.4982, 260.6172
998.9803, 214.9141
999.4625, 223.5703
999.9446, 243.9062
1000.427, 256.6328
1000.909, 272.7227
1001.391, 324.6172
1001.873, 369.1719
1002.355, 336.1328
1002.837, 234.3945
1003.319, 147.5625
1003.802, 94.89062
1004.284, 86.44531
1004.766, 191.0703
1005.248, 275.1367
1005.730, 212.9727
1006.212, 93.10156
1006.694, 31.50000
1007.176, 37.42578
1007.658, 51.60938
1008.141, 57.08594
1008.623, 62.90625
1009.105, 84.04297
1009.587, 95.99219
1010.069, 68.69531
1010.551, 27.44141
1011.033, 4.125000
1011.515, 4.453125
1011.997, 27.36719
1012.480, 86.34375
1012.962, 141.2266
1013.444, 205.0195
1013.926, 226.7305
1014.408, 120.2930
1014.890, 23.74609
1015.372, 75.91016
1015.854, 28.24219
1016.337, 35.70703
1016.819, 113.0391
1017.301, 154.9062
1017.783, 96.08984
1018.265, 44.86328
1018.747, 98.69141
1019.229, 189.5664
1019.711, 220.8711
1020.193, 188.7617
1020.676, 154.3594
1021.158, 138.6211
1021.640, 116.7188
1022.122, 51.34375
1022.604, 10.61719
1023.086, 64.89453
1023.568, 149.4336
1024.050, 186.6523
1024.533, 171.9219
1025.015, 132.8242
1025.497, 40.37109
1025.979, 3.359375
1026.461, 81.01953
1026.943, 155.0977
1027.425, 128.0117
1027.907, 71.33594
1028.390, 78.71484
1028.872, 138.0742
1029.354, 153.6797
1029.836, 85.42188
1030.318, 33.94141
1030.800, 7.335938
1031.282, 13.40625
1031.764, 95.84375
1032.246, 182.8164
1032.729, 185.1445
1033.211, 120.2930
1033.693, 90.83984
1034.175, 132.5820
1034.657, 154.3711
1035.139, 129.8281
1035.621, 107.0039
1036.103, 105.4805
1036.585, 110.8984
1037.068, 111.5000
1037.550, 107.3047
1038.032, 97.24219
1038.514, 64.57422
1038.996, 65.87695
1039.478, 137.0840
1039.960, 192.1719
1040.442, 214.0449
1040.925, 205.5879
1041.407, 143.0410
1041.889, 56.83398
1042.371, 50.13867
1042.853, 164.0977
1043.335, 207.3984
1043.817, 118.3477
1044.299, 79.79297
1044.781, 176.8867
1045.264, 269.6699
1045.746, 247.7734
1046.228, 156.3633
1046.710, 101.9004
1047.192, 90.50195
1047.674, 74.60547
1048.156, 47.98633
1048.638, 38.31055
1049.120, 58.02539
1049.603, 78.29297
1050.085, 78.50000
1050.567, 69.99805
1051.049, 71.83008
1051.531, 83.84180
1052.013, 116.7461
1052.495, 178.0469
1052.977, 213.0664
1053.460, 209.2461
1053.942, 193.6309
1054.424, 178.6367
1054.906, 164.7754
1055.388, 149.5137
1055.870, 136.8047
1056.352, 173.8770
1056.834, 261.8809
1057.317, 268.6094
1057.799, 175.1680
1058.281, 92.52734
1058.763, 69.86914
1059.245, 84.86328
1059.727, 120.2090
1060.209, 161.3418
1060.691, 153.8438
1061.173, 108.0117
1061.656, 99.56250
1062.138, 127.4199
1062.620, 107.9980
1063.102, 14.59961
1063.584, 72.97656
1064.066, 82.43750
1064.548, 45.76562
1065.030, 5.066406
1065.512, 31.08398
1065.995, 26.38867
1066.477, 5.332031
1066.959, 1.537109
1067.441, 47.77539
1067.923, 88.75195
1068.405, 81.18945
1068.887, 69.49219
1069.369, 123.8594
1069.852, 196.9043
1070.334, 206.4043
1070.816, 179.5645
1071.298, 179.1484
1071.780, 211.0879
1072.262, 247.1719
1072.744, 273.8691
1073.226, 280.4863
1073.708, 248.1309
1074.191, 215.8164
1074.673, 231.2363
1075.155, 257.6719
1075.637, 233.4902
1076.119, 176.1191
1076.601, 154.2441
1077.083, 189.2109
1077.565, 226.1914
1078.047, 244.6152
1078.530, 250.0156
1079.012, 242.3125
1079.494, 225.4453
1079.976, 187.8984
1080.458, 149.5859
1080.940, 160.0371
1081.422, 224.7988
1081.904, 244.8789
1082.386, 149.0020
1082.869, 77.53711
1083.351, 84.85547
1083.833, 98.66992
1084.315, 86.33984
1084.797, 56.87891
1085.279, 9.974609
1085.761, 48.69727
1086.243, 56.75391
1086.726, 24.46289
1087.208, 85.84570
1087.690, 124.1484
1088.172, 144.3203
1088.654, 129.8633
1089.136, 124.1875
1089.618, 179.4590
1090.100, 265.5742
1090.583, 282.0371
1091.065, 210.2344
1091.547, 168.7578
1092.029, 160.6230
1092.511, 170.7656
1092.993, 198.3555
1093.475, 234.9863
1093.957, 278.4688
1094.439, 317.5488
1094.922, 332.3418
1095.404, 324.8457
1095.886, 299.1250
1096.368, 258.1504
1096.850, 266.0039
1097.332, 329.1035
1097.814, 384.6816
1098.296, 404.9902
1098.778, 386.7539
1099.261, 310.1152
1099.743, 219.4023
1100.225, 230.8203
1100.707, 298.6797
1101.189, 287.9180
1101.671, 213.0879
1102.153, 169.2207
1102.635, 179.2871
1103.118, 191.7891
1103.600, 172.8184
1104.082, 142.7871
1104.564, 121.9961
1105.046, 102.2871
1105.528, 66.43750
1106.010, 28.14453
1106.492, 2.556641
1106.974, 2.259766
1107.457, 37.74023
1107.939, 141.4180
1108.421, 214.6191
1108.903, 182.4258
1109.385, 137.3906
1109.867, 121.1543
1110.349, 124.7051
1110.831, 149.2949
1111.313, 181.7695
1111.796, 194.8633
1112.278, 183.7871
1112.760, 186.7656
1113.242, 228.1055
1113.724, 256.8516
1114.206, 271.7559
1114.688, 264.2969
1115.170, 209.1777
1115.653, 150.4453
1116.135, 142.1914
1116.617, 175.1328
1117.099, 196.8320
1117.581, 210.0352
1118.063, 200.5957
1118.545, 157.2812
1119.027, 132.2637
1119.510, 145.3887
1119.992, 159.7988
1120.474, 147.7773
1120.956, 118.7363
1121.438, 79.89844
1121.920, 39.89062
1122.402, 58.14648
1122.884, 129.4668
1123.366, 183.5391
1123.849, 209.0000
1124.331, 218.0059
1124.813, 217.3027
1125.295, 200.6777
1125.777, 154.1836
1126.259, 98.19922
1126.741, 62.22461
1127.223, 48.62695
1127.705, 79.28125
1128.188, 132.7949
1128.670, 151.5996
1129.152, 126.5996
1129.634, 89.40234
1130.116, 49.36523
1130.598, 31.14453
1131.080, 74.13672
1131.562, 124.5664
1132.045, 134.7539
1132.527, 130.9180
1133.009, 155.6992
1133.491, 193.4609
1133.973, 187.6484
1134.455, 121.2871
1134.937, 72.30469
1135.419, 66.80078
1135.901, 68.71680
1136.384, 83.38672
1136.866, 86.66992
1137.348, 53.19727
1137.830, 8.890625
1138.312, 15.19727
1138.794, 21.01953
1139.276, 24.79883
1139.758, 30.29492
1140.240, 21.30469
1140.723, 3.384766
1141.205, 45.05664
1141.687, 113.0762
1142.169, 158.1387
1142.651, 138.5371
1143.133, 90.53906
1143.615, 84.11133
1144.097, 111.4785
1144.580, 99.82617
1145.062, 58.33008
1145.544, 92.13672
1146.026, 197.2109
1146.508, 237.0781
1146.990, 161.1758
1147.472, 66.09180
1147.954, 33.09961
1148.437, 30.42383
1148.919, 22.81641
1149.401, 16.85547
1149.883, 28.36914
1150.365, 45.56445
1150.847, 39.29102
1151.329, 13.84961
1151.811, 8.490234
1152.293, 44.27539
1152.776, 67.40820
1153.258, 38.39648
1153.740, 10.81445
1154.222, 3.865234
1154.704, 6.277344
1155.186, 78.99023
1155.668, 169.8770
1156.150, 189.1133
1156.632, 130.4453
1157.115, 104.9551
1157.597, 125.7285
1158.079, 151.9102
1158.561, 191.1035
1159.043, 209.2246
1159.525, 185.4629
1160.007, 161.7539
1160.489, 177.4473
1160.972, 210.7285
1161.454, 208.9121
1161.936, 175.2988
1162.418, 153.8926
1162.900, 143.3340
1163.382, 126.9258
1163.864, 103.5215
1164.346, 92.24414
1164.828, 100.6191
1165.311, 98.96680
1165.793, 46.35156
1166.275, 6.531250
1166.757, 21.49219
1167.239, 83.01367
1167.721, 104.6816
1168.203, 106.8652
1168.685, 150.5801
1169.167, 225.2773
1169.650, 242.8438
1170.132, 158.6562
1170.614, 93.24609
1171.096, 114.0840
1171.578, 138.6191
1172.060, 140.3438
1172.542, 125.9766
1173.024, 74.82227
1173.507, 26.33789
1173.989, 62.35547
1174.471, 172.3457
1174.953, 196.2852
1175.435, 92.69531
1175.917, 31.24609
1176.399, 22.34961
1176.881, 44.53516
1177.364, 101.4375
1177.846, 134.6367
1178.328, 97.64453
1178.810, 31.24609
1179.292, 2.042969
1179.774, 3.109375
1180.256, 15.51953
1180.738, 34.66406
1181.220, 39.51172
1181.703, 33.49219
1182.185, 44.49805
1182.667, 77.92383
1183.149, 99.66211
1183.631, 82.62109
1184.113, 62.29492
1184.595, 74.21875
1185.077, 89.36523
1185.559, 82.98438
1186.042, 65.19531
1186.524, 39.90039
1187.006, 16.97461
1187.488, 20.42773
1187.970, 56.47461
1188.452, 74.43359
1188.934, 57.64062
1189.416, 38.27734
1189.899, 11.44922
1190.381, 1.574219
1190.863, 23.83984
1191.345, 65.54102
1191.827, 122.5723
1192.309, 173.5254
1192.791, 146.9473
1193.273, 47.18555
1193.755, 2.023438
1194.238, 3.652344
1194.720, 2.830078
1195.202, 12.08203
1195.684, 48.24023
1196.166, 118.3711
1196.648, 161.5215
1197.130, 110.1816
1197.612, 38.63281
1198.094, 28.41016
1198.577, 53.12500
1199.059, 96.11523
1199.541, 141.1719
1200.023, 168.3281
1200.505, 177.8633
1200.987, 179.8047
1201.469, 175.9746
1201.951, 166.5586
1202.434, 132.3301
1202.916, 122.4727
1203.398, 188.0469
1203.880, 227.9883
1204.362, 181.6797
1204.844, 116.7402
1205.326, 106.2793
1205.808, 130.1211
1206.291, 111.0488
1206.773, 45.50391
1207.255, 63.35156
1207.737, 162.0020
1208.219, 223.3984
1208.701, 228.8184
1209.183, 206.4551
1209.665, 169.0137
1210.147, 128.5820
1210.630, 92.23828
1211.112, 67.46875
1211.594, 71.11328
1212.076, 84.94727
1212.558, 92.90820
1213.040, 92.99609
1213.522, 75.13867
1214.004, 52.28320
1214.486, 74.75586
1214.969, 163.8398
1215.451, 202.0293
1215.933, 104.3359
1216.415, 43.82227
1216.897, 79.53516
1217.379, 118.6016
1217.861, 128.7539
1218.343, 121.2793
1218.826, 103.7949
1219.308, 82.50977
1219.790, 75.61914
1220.272, 82.43750
1220.754, 88.32422
1221.236, 93.96094
1221.718, 116.2852
1222.200, 151.5957
1222.682, 155.7832
1223.165, 114.5820
1223.647, 61.33789
1224.129, 11.69141
1224.611, 11.95508
1225.093, 42.03320
1225.575, 102.5078
1226.057, 92.76562
1226.539, 55.55859
1227.021, 38.46484
1227.504, 42.81055
1227.986, 63.31445
1228.468, 100.6758
1228.950, 115.4766
1229.432, 90.30078
1229.914, 69.73242
1230.396, 52.69922
1230.878, 47.35547
1231.361, 55.00195
1231.843, 78.58008
1232.325, 126.0703
1232.807, 170.9375
1233.289, 157.0449
1233.771, 107.8516
1234.253, 120.0117
1234.735, 168.9023
1235.218, 167.9922
1235.700, 128.0957
1236.182, 110.9199
1236.664, 127.7754
1237.146, 147.6367
1237.628, 155.5430
1238.110, 165.8379
1238.592, 199.1895
1239.074, 220.6680
1239.557, 197.9336
1240.039, 171.1973
1240.521, 169.5410
1241.003, 183.6582
1241.485, 207.8281
1241.967, 233.4688
1242.449, 215.0762
1242.931, 142.9062
1243.413, 81.57227
1243.896, 30.93164
1244.378, 3.023438
1244.860, 0.2324220
1245.342, 31.77148
1245.824, 100.9824
1246.306, 135.0352
1246.788, 46.76367
1247.270, 60.95117
1247.753, 28.05078
1248.235, 61.87305
1248.717, 126.4980
1249.199, 166.9824
1249.681, 185.7793
1250.163, 187.3809
1250.645, 179.5234
1251.127, 164.5254
1251.609, 158.5293
1252.092, 177.3320
1252.574, 182.6562
1253.056, 174.0156
1253.538, 146.6777
1254.020, 89.71680
1254.502, 41.33594
1254.984, 27.73047
1255.466, 38.14648
1255.948, 59.69922
1256.431, 87.94336
1256.913, 111.0488
1257.395, 117.5410
1257.877, 102.2051
1258.359, 72.30859
1258.841, 32.42773
1259.323, 71.71094
1259.805, 113.4043
1260.288, 142.2539
1260.770, 170.8984
1261.252, 233.6250
1261.734, 255.6484
1262.216, 159.3027
1262.698, 59.85352
1263.180, 29.25977
1263.662, 44.46875
1264.145, 100.6309
1264.627, 170.6973
1265.109, 169.4434
1265.591, 96.53516
1266.073, 40.82812
1266.555, 0.2031250
1267.037, 2.396484
1267.519, 41.97852
1268.001, 57.18164
1268.484, 16.17188
1268.966, 8.2030997E-02
1269.448, 0.0000000E+00
##END=



