##NAMES=Haxonite
##RRUFFID=R070034
##IDEAL CHEMISTRY=(Fe,Ni)_23_C_6_
##LOCALITY=Egvekinot meteorite, Chukot Province, Russia
##OWNER=RRUFF
##SOURCE=Michael Scott
##DESCRIPTION=Dark gray metallic fragment embedded in epoxy
##STATUS=The identification of this mineral has been confirmed only by chemical analysis
##URL=rruff.info/R070034
##MEASURED CHEMISTRY=(Fe_21.57_Ni_1.36_Co_0.07_)_Î£=23_C_6_
125.1122, 0.0000000E+00
125.5943, 3.151825
126.0764, 1.135101
126.5585, 0.1073910
127.0406, 9.444427
127.5227, 30.77460
128.0049, 61.78296
128.4870, 96.90500
128.9691, 137.5033
129.4512, 180.0271
129.9333, 222.1072
130.4154, 265.5089
130.8976, 293.5232
131.3797, 278.8495
131.8618, 224.2419
132.3439, 168.3358
132.8260, 122.1103
133.3081, 85.80334
133.7903, 64.98895
134.2724, 62.06708
134.7545, 69.55789
135.2366, 73.62436
135.7187, 72.93628
136.2008, 76.88797
136.6830, 92.74298
137.1651, 121.8383
137.6472, 149.4310
138.1293, 177.5204
138.6114, 202.1830
139.0935, 209.5225
139.5756, 196.1262
140.0578, 172.1877
140.5399, 141.9448
141.0220, 99.69705
141.5041, 68.37634
141.9862, 52.20172
142.4683, 51.13037
142.9505, 57.39304
143.4326, 72.26318
143.9147, 93.37067
144.3968, 119.6412
144.8789, 164.3222
145.3610, 194.0406
145.8432, 197.6907
146.3253, 166.3602
146.8074, 142.5415
147.2895, 130.1711
147.7716, 124.1601
148.2537, 115.3310
148.7359, 97.03940
149.2180, 82.42603
149.7001, 75.60925
150.1822, 80.13629
150.6643, 87.29227
151.1464, 99.21783
151.6285, 114.1234
152.1107, 126.5281
152.5928, 134.4137
153.0749, 140.9224
153.5570, 147.5145
154.0391, 161.7625
154.5212, 168.0898
155.0034, 162.5228
155.4855, 145.9251
155.9676, 126.3497
156.4497, 96.99078
156.9318, 69.38837
157.4139, 52.40891
157.8961, 53.41513
158.3782, 60.30115
158.8603, 73.40112
159.3424, 93.45300
159.8245, 105.6862
160.3066, 96.08661
160.7888, 78.38440
161.2709, 68.88159
161.7530, 84.16644
162.2351, 100.6458
162.7172, 105.1171
163.1993, 93.68121
163.6814, 81.62662
164.1636, 76.46487
164.6457, 75.78888
165.1278, 74.95120
165.6099, 68.79535
166.0920, 63.42865
166.5741, 64.19171
167.0563, 74.47443
167.5384, 85.78070
168.0205, 91.35696
168.5026, 93.01202
168.9847, 96.70227
169.4668, 110.2797
169.9490, 126.0552
170.4311, 135.8593
170.9132, 137.8154
171.3953, 132.8887
171.8774, 116.0888
172.3595, 89.53473
172.8417, 69.20483
173.3238, 73.14856
173.8059, 89.59854
174.2880, 99.74472
174.7701, 92.88364
175.2522, 78.92206
175.7344, 70.21722
176.2165, 64.47256
176.6986, 61.03653
177.1807, 60.51407
177.6628, 61.03696
178.1449, 59.85193
178.6270, 51.79196
179.1092, 42.40204
179.5913, 42.03821
180.0734, 52.83109
180.5555, 65.60138
181.0376, 67.92624
181.5197, 60.29294
182.0019, 53.29996
182.4840, 57.38644
182.9661, 67.59625
183.4482, 72.08395
183.9303, 68.57318
184.4124, 63.22345
184.8946, 65.29575
185.3767, 74.19897
185.8588, 84.23029
186.3409, 87.78958
186.8230, 88.27344
187.3051, 103.8419
187.7873, 144.3137
188.2694, 190.2068
188.7515, 201.2803
189.2336, 177.2850
189.7157, 141.5240
190.1978, 104.7675
190.6799, 68.53421
191.1621, 41.53973
191.6442, 27.10873
192.1263, 22.47778
192.6084, 19.34341
193.0905, 17.41727
193.5726, 17.93231
194.0548, 23.74490
194.5369, 34.64612
195.0190, 42.53000
195.5011, 45.03595
195.9832, 43.31931
196.4653, 41.61743
196.9475, 39.80197
197.4296, 38.42496
197.9117, 37.49316
198.3938, 36.83377
198.8759, 38.84763
199.3580, 45.80865
199.8402, 57.14368
200.3223, 62.97165
200.8044, 61.47598
201.2865, 58.27878
201.7686, 61.65469
202.2507, 72.74542
202.7328, 83.92538
203.2150, 94.65570
203.6971, 105.4939
204.1792, 104.4303
204.6613, 88.43884
205.1434, 64.49371
205.6255, 43.41064
206.1077, 24.39987
206.5898, 10.63013
207.0719, 4.242493
207.5540, 6.312653
208.0361, 10.21027
208.5182, 16.90073
209.0004, 24.60574
209.4825, 28.83591
209.9646, 28.12653
210.4467, 27.63025
210.9288, 30.93716
211.4109, 40.23114
211.8931, 44.33252
212.3752, 41.31094
212.8573, 33.31824
213.3394, 26.17227
213.8215, 19.16931
214.3036, 14.59619
214.7858, 14.85513
215.2679, 22.48422
215.7500, 26.67267
216.2321, 25.50870
216.7142, 20.21326
217.1963, 16.25494
217.6785, 13.79230
218.1606, 12.47842
218.6427, 12.60028
219.1248, 15.62698
219.6069, 15.98740
220.0890, 11.76987
220.5712, 3.848602
221.0533, 0.7699280
221.5354, 0.8839420
222.0175, 0.7516480
222.4996, 1.961029
222.9817, 2.191833
223.4639, 3.499908
223.9460, 7.654602
224.4281, 14.33234
224.9102, 14.17297
225.3923, 2.623077
225.8744, 10.46646
226.3566, 15.72144
226.8387, 8.673767
227.3208, 3.137970
227.8029, 2.602539
228.2850, 7.355530
228.7671, 7.782104
229.2492, 1.637512
229.7314, 6.559235
230.2135, 12.44614
230.6956, 16.85468
231.1777, 17.39401
231.6598, 11.39774
232.1419, 2.695648
232.6241, 7.708374
233.1062, 1.856415
233.5883, 15.97562
234.0704, 22.08054
234.5525, 17.02014
235.0346, 9.587799
235.5168, 0.8404240
235.9989, 10.29678
236.4810, 16.75275
236.9631, 17.53235
237.4452, 14.33279
237.9273, 8.822601
238.4095, 1.968323
238.8916, 9.896210
239.3737, 11.82458
239.8558, 5.946655
240.3379, 2.340149
240.8200, 1.883545
241.3021, 3.148834
241.7843, 3.908478
242.2664, 3.614563
242.7485, 3.725647
243.2306, 4.698425
243.7127, 6.658081
244.1948, 9.433868
244.6770, 15.05304
245.1591, 19.95425
245.6412, 18.56461
246.1233, 5.166626
246.6054, 4.815369
247.0875, 4.322388
247.5697, 12.56161
248.0518, 19.87033
248.5339, 13.25305
249.0160, 0.6888730
249.4981, 9.430695
249.9802, 11.09564
250.4624, 10.69391
250.9445, 10.14740
251.4266, 10.10031
251.9087, 7.693176
252.3908, 1.712311
252.8729, 6.047363
253.3551, 11.93176
253.8372, 15.80246
254.3193, 17.93375
254.8014, 17.75409
255.2835, 13.31024
255.7656, 12.86136
256.2477, 18.73367
256.7299, 27.44687
257.2120, 30.24414
257.6941, 22.92365
258.1762, 17.61710
258.6583, 20.68384
259.1404, 37.10571
259.6226, 46.55307
260.1047, 46.97568
260.5868, 41.59555
261.0689, 37.64844
261.5510, 35.80353
262.0331, 33.99615
262.5153, 30.80795
262.9974, 25.08234
263.4795, 22.53357
263.9616, 24.68832
264.4437, 29.19528
264.9258, 29.48190
265.4080, 22.64890
265.8901, 18.47455
266.3722, 23.28091
266.8543, 40.52878
267.3364, 51.46265
267.8185, 54.60583
268.3007, 52.04318
268.7828, 48.18430
269.2649, 42.58270
269.7470, 36.83237
270.2291, 31.69843
270.7112, 27.26248
271.1934, 22.67972
271.6755, 17.20483
272.1576, 12.22476
272.6397, 11.78552
273.1218, 17.16980
273.6039, 22.32486
274.0860, 23.87128
274.5681, 21.31644
275.0503, 19.40137
275.5324, 18.17065
276.0145, 17.80667
276.4966, 19.30756
276.9787, 23.23370
277.4608, 26.20993
277.9430, 25.55508
278.4251, 21.07642
278.9072, 19.42197
279.3893, 21.93451
279.8714, 25.87222
280.3535, 24.36386
280.8357, 16.42947
281.3178, 11.40552
281.7999, 17.67188
282.2820, 34.68707
282.7641, 41.07571
283.2462, 33.61987
283.7284, 19.41071
284.2105, 11.84991
284.6926, 11.86273
285.1747, 13.22403
285.6568, 11.75577
286.1389, 7.823700
286.6211, 6.781525
287.1032, 9.266479
287.5853, 14.63321
288.0674, 24.27808
288.5495, 37.89752
289.0316, 48.12579
289.5138, 49.70148
289.9959, 44.16736
290.4780, 37.91077
290.9601, 31.57153
291.4422, 26.43777
291.9243, 25.95059
292.4065, 29.50638
292.8886, 32.98676
293.3707, 33.27036
293.8528, 31.27386
294.3349, 32.21603
294.8170, 37.26440
295.2992, 42.61334
295.7813, 43.13092
296.2634, 39.96170
296.7455, 35.99954
297.2276, 30.66333
297.7097, 26.06412
298.1919, 28.01996
298.6740, 37.48459
299.1561, 47.15787
299.6382, 50.61438
300.1203, 48.26059
300.6024, 41.21231
301.0845, 22.34470
301.5667, 2.099182
302.0488, 3.454224
302.5309, 6.930542
303.0130, 21.03702
303.4951, 30.54654
303.9772, 36.00296
304.4594, 37.82245
304.9415, 36.11401
305.4236, 32.40286
305.9057, 25.35928
306.3878, 14.96860
306.8699, 7.374725
307.3521, 9.893646
307.8342, 17.75909
308.3163, 23.47873
308.7984, 23.52582
309.2805, 20.59137
309.7626, 15.15009
310.2448, 7.597626
310.7269, 2.794006
311.2090, 5.727936
311.6911, 11.74951
312.1732, 15.68173
312.6553, 13.21155
313.1375, 10.35763
313.6196, 10.79584
314.1017, 14.19214
314.5838, 16.84561
315.0659, 16.23352
315.5480, 14.54395
316.0302, 13.64764
316.5123, 16.01239
316.9944, 17.36313
317.4765, 15.06427
317.9586, 9.859161
318.4407, 6.170441
318.9229, 4.431396
319.4050, 5.260071
319.8871, 9.229584
320.3692, 22.23303
320.8513, 31.52625
321.3334, 32.82892
321.8156, 27.68552
322.2977, 22.23984
322.7798, 13.61258
323.2619, 8.006775
323.7440, 8.871735
324.2261, 25.09769
324.7083, 35.93607
325.1904, 36.64868
325.6725, 30.38657
326.1546, 25.84283
326.6367, 25.63394
327.1188, 25.61972
327.6009, 24.15506
328.0830, 19.47156
328.5652, 16.51447
329.0473, 16.54532
329.5294, 18.06381
330.0115, 17.95758
330.4936, 14.86829
330.9757, 11.80527
331.4579, 9.728394
331.9400, 9.022491
332.4221, 7.855408
332.9042, 5.098572
333.3863, 2.623871
333.8684, 3.528412
334.3506, 9.104767
334.8327, 15.54370
335.3148, 22.53430
335.7969, 30.47952
336.2790, 34.97867
336.7611, 35.65082
337.2433, 33.34500
337.7254, 28.05682
338.2075, 18.39059
338.6896, 11.06915
339.1717, 8.477051
339.6538, 10.13190
340.1360, 9.613434
340.6181, 6.295471
341.1002, 2.705780
341.5823, 1.848053
342.0644, 3.281006
342.5465, 6.443176
343.0287, 14.03186
343.5108, 23.40387
343.9929, 22.55243
344.4750, 10.43958
344.9571, 0.2839660
345.4392, 4.715088
345.9214, 22.07520
346.4035, 31.89716
346.8856, 28.50864
347.3677, 18.80338
347.8498, 15.13919
348.3319, 17.73129
348.8141, 21.79373
349.2962, 25.90067
349.7783, 28.98251
350.2604, 27.53326
350.7425, 19.33157
351.2246, 10.96432
351.7067, 11.32104
352.1888, 18.47375
352.6710, 25.60406
353.1531, 29.47311
353.6352, 30.95029
354.1173, 30.30554
354.5994, 26.95947
355.0815, 24.76993
355.5637, 30.09564
356.0458, 38.59256
356.5279, 41.92407
357.0100, 27.61200
357.4921, 12.66718
357.9742, 12.03687
358.4564, 27.68411
358.9385, 41.67584
359.4206, 44.70636
359.9027, 40.71716
360.3848, 35.25003
360.8669, 26.75214
361.3491, 19.15506
361.8312, 13.43967
362.3133, 9.699768
362.7954, 9.139038
363.2775, 15.47659
363.7596, 23.21213
364.2418, 28.28320
364.7239, 28.01041
365.2060, 27.14334
365.6881, 26.12680
366.1702, 25.04156
366.6523, 24.36862
367.1345, 25.28696
367.6166, 25.75134
368.0987, 24.70352
368.5808, 19.41119
369.0629, 16.58572
369.5450, 17.45395
370.0272, 20.66861
370.5093, 23.28693
370.9914, 24.82449
371.4735, 25.31155
371.9556, 25.47681
372.4377, 26.19235
372.9199, 23.88531
373.4020, 16.46445
373.8841, 7.868713
374.3662, 4.769928
374.8483, 9.022888
375.3304, 12.92166
375.8126, 13.87894
376.2947, 12.00696
376.7768, 10.68600
377.2589, 9.880280
377.7410, 9.686676
378.2231, 10.27017
378.7052, 11.63174
379.1873, 13.54889
379.6695, 16.31891
380.1516, 19.43686
380.6337, 22.15363
381.1158, 24.54874
381.5979, 24.48734
382.0800, 17.25455
382.5622, 5.327393
383.0443, 0.4468990
383.5264, 3.245392
384.0085, 10.89377
384.4906, 15.06586
384.9727, 16.21530
385.4549, 16.44388
385.9370, 17.53937
386.4191, 18.36746
386.9012, 16.69763
387.3833, 11.72418
387.8654, 6.825989
388.3476, 4.834167
388.8297, 5.090088
389.3118, 6.289490
389.7939, 8.133881
390.2760, 10.50180
390.7581, 14.50412
391.2403, 20.38205
391.7224, 22.99060
392.2045, 16.17609
392.6866, 6.111328
393.1687, 0.7816470
393.6508, 0.5003360
394.1330, 1.175537
394.6151, 2.029419
395.0972, 2.340393
395.5793, 4.471771
396.0614, 12.26328
396.5435, 19.82300
397.0257, 23.75723
397.5078, 23.96878
397.9899, 20.17950
398.4720, 6.254791
398.9541, 11.65152
399.4362, 17.55933
399.9184, 3.517731
400.4005, 11.60620
400.8826, 21.73642
401.3647, 25.79691
401.8468, 28.70056
402.3289, 31.88922
402.8111, 32.67679
403.2932, 25.48669
403.7753, 5.256073
404.2574, 8.380066
404.7395, 8.085175
405.2216, 4.934448
405.7037, 13.64517
406.1859, 17.45871
406.6680, 18.76978
407.1501, 19.37167
407.6322, 19.26526
408.1143, 19.03317
408.5964, 18.67300
409.0786, 18.36795
409.5607, 19.01785
410.0428, 20.56546
410.5249, 21.19330
411.0070, 18.53354
411.4891, 14.05502
411.9713, 11.46817
412.4534, 11.35043
412.9355, 12.62833
413.4176, 15.86252
413.8997, 19.76700
414.3818, 20.66794
414.8640, 13.19339
415.3461, 3.966583
415.8282, 0.1342770
416.3103, 1.218903
416.7924, 4.400604
417.2745, 8.405212
417.7567, 12.51746
418.2388, 15.92236
418.7209, 18.54315
419.2030, 20.22479
419.6851, 20.52661
420.1672, 19.66962
420.6494, 18.76270
421.1315, 18.50006
421.6136, 18.03052
422.0957, 16.73367
422.5778, 13.32117
423.0599, 11.13455
423.5421, 10.68918
424.0242, 11.67438
424.5063, 13.44025
424.9884, 17.70380
425.4705, 20.83353
425.9526, 22.15494
426.4348, 21.90042
426.9169, 17.77762
427.3990, 6.464081
427.8811, 5.056061
428.3632, 8.616089
428.8453, 1.881866
429.3275, 5.133270
429.8095, 11.22119
430.2917, 16.10172
430.7738, 17.56354
431.2559, 15.10773
431.7380, 11.93283
432.2201, 9.801758
432.7022, 8.740997
433.1844, 9.785828
433.6665, 13.79950
434.1486, 18.10434
434.6307, 16.91733
435.1128, 11.47693
435.5949, 8.511719
436.0771, 15.12405
436.5592, 25.13626
437.0413, 27.19861
437.5234, 20.72296
438.0055, 13.35950
438.4876, 11.31671
438.9698, 12.32092
439.4519, 12.94058
439.9340, 10.32294
440.4161, 8.719543
440.8982, 13.02182
441.3803, 21.54459
441.8625, 26.50684
442.3446, 21.26285
442.8267, 13.37122
443.3088, 7.551483
443.7909, 4.580292
444.2730, 3.490417
444.7552, 4.594940
445.2373, 7.355652
445.7194, 10.92398
446.2015, 18.81653
446.6836, 23.67349
447.1657, 22.78577
447.6479, 15.42197
448.1300, 9.830383
448.6121, 4.840118
449.0942, 2.756592
449.5763, 6.656281
450.0584, 20.48035
450.5406, 29.02008
451.0227, 29.26294
451.5048, 23.66800
451.9869, 19.27347
452.4690, 16.11569
452.9511, 14.03656
453.4333, 13.18851
453.9154, 13.50568
454.3975, 14.89212
454.8796, 17.98895
455.3617, 19.50778
455.8438, 11.71063
456.3259, 2.542084
456.8080, 11.08124
457.2902, 4.360657
457.7723, 9.406647
458.2544, 15.59445
458.7365, 14.58777
459.2186, 13.43314
459.7007, 18.07724
460.1829, 24.89435
460.6650, 29.90741
461.1471, 32.67172
461.6292, 32.60150
462.1113, 26.15970
462.5934, 16.90958
463.0756, 10.81812
463.5577, 11.46860
464.0398, 13.40012
464.5219, 14.11856
465.0040, 13.16748
465.4861, 13.28104
465.9683, 16.80695
466.4504, 20.51111
466.9325, 21.55469
467.4146, 16.15811
467.8967, 13.67242
468.3788, 17.44388
468.8610, 24.86090
469.3431, 24.61646
469.8252, 11.46521
470.3073, 0.8605350
470.7894, 1.723541
471.2715, 16.23001
471.7537, 25.96265
472.2358, 30.09232
472.7179, 31.28598
473.2000, 33.84464
473.6821, 37.55673
474.1642, 37.02246
474.6464, 28.21082
475.1285, 15.58392
475.6106, 9.566742
476.0927, 9.833038
476.5748, 11.62802
477.0569, 10.94571
477.5391, 9.618622
478.0212, 10.99799
478.5033, 16.34653
478.9854, 22.05991
479.4675, 26.06262
479.9496, 28.29337
480.4318, 28.63828
480.9139, 26.55508
481.3960, 22.95276
481.8781, 16.48062
482.3602, 7.180176
482.8423, 2.740631
483.3244, 8.738525
483.8065, 18.35843
484.2887, 26.86105
484.7708, 38.19534
485.2529, 42.91409
485.7350, 36.33704
486.2171, 22.35114
486.6992, 12.08807
487.1814, 6.254364
487.6635, 3.547760
488.1456, 4.659363
488.6277, 10.02341
489.1098, 11.66824
489.5919, 8.119080
490.0741, 4.134186
490.5562, 4.781769
491.0383, 10.08170
491.5204, 16.08844
492.0025, 22.96667
492.4846, 28.85764
492.9668, 28.65784
493.4489, 22.97403
493.9310, 17.60864
494.4131, 16.29599
494.8952, 17.40979
495.3773, 18.24756
495.8595, 18.55499
496.3416, 19.52719
496.8237, 24.05103
497.3058, 29.29156
497.7879, 31.41605
498.2701, 25.68152
498.7522, 19.98416
499.2343, 18.72855
499.7164, 20.78116
500.1985, 21.51230
500.6806, 18.16006
501.1628, 14.30035
501.6449, 11.45114
502.1270, 9.296051
502.6091, 9.295929
503.0912, 12.42194
503.5733, 17.11533
504.0555, 22.11862
504.5376, 29.64590
505.0197, 32.50491
505.5018, 27.77515
505.9839, 17.43011
506.4660, 11.26443
506.9482, 10.08862
507.4303, 9.653503
507.9124, 5.625244
508.3945, 1.163269
508.8766, 0.2811890
509.3587, 10.33563
509.8408, 22.50531
510.3229, 25.75909
510.8051, 22.27829
511.2872, 19.07355
511.7693, 19.95151
512.2514, 21.24316
512.7335, 16.73322
513.2156, 8.078735
513.6978, 3.202240
514.1799, 11.99860
514.6620, 22.55200
515.1441, 25.74609
515.6262, 17.17538
516.1083, 9.990753
516.5905, 9.803009
517.0726, 13.09366
517.5547, 15.39734
518.0368, 17.33850
518.5189, 16.69766
519.0010, 10.49176
519.4832, 8.5387997E-02
519.9653, 2.595520
520.4474, 6.732117
520.9295, 17.24167
521.4116, 23.34052
521.8937, 24.42761
522.3759, 24.45499
522.8580, 23.47897
523.3401, 21.40921
523.8222, 17.08417
524.3043, 10.65302
524.7864, 6.423096
525.2686, 5.618286
525.7507, 7.863037
526.2328, 15.00201
526.7149, 26.02042
527.1970, 33.29730
527.6791, 28.29477
528.1613, 18.01535
528.6434, 10.85321
529.1255, 7.968567
529.6076, 7.496704
530.0897, 10.21994
530.5718, 14.10486
531.0540, 16.60229
531.5361, 16.59555
532.0182, 15.73383
532.5003, 12.88297
532.9824, 8.457153
533.4645, 7.097717
533.9467, 12.49472
534.4288, 17.66995
534.9109, 19.75656
535.3930, 17.76801
535.8751, 17.02356
536.3572, 18.74939
536.8394, 20.04672
537.3215, 16.46542
537.8036, 7.006226
538.2857, 1.438782
538.7678, 2.758484
539.2499, 7.998505
539.7321, 10.49274
540.2142, 10.36386
540.6963, 9.212677
541.1784, 8.624878
541.6605, 7.461212
542.1426, 1.943817
542.6248, 7.946259
543.1069, 14.00305
543.5890, 7.524750
544.0711, 4.255524
544.5532, 13.39053
545.0353, 17.34232
545.5175, 18.46689
545.9996, 15.95929
546.4817, 11.28775
546.9637, 8.030975
547.4459, 5.902130
547.9280, 6.305237
548.4101, 10.97723
548.8922, 20.43436
549.3743, 26.67264
549.8564, 28.59973
550.3386, 28.68573
550.8207, 28.64368
551.3028, 28.77637
551.7849, 28.81168
552.2670, 28.72430
552.7491, 27.96902
553.2313, 23.73026
553.7134, 16.33936
554.1955, 11.56317
554.6776, 13.05157
555.1597, 18.09335
555.6418, 22.05612
556.1240, 24.88126
556.6061, 26.10599
557.0882, 23.75363
557.5703, 20.43130
558.0524, 18.88739
558.5345, 19.73639
559.0167, 21.86700
559.4988, 26.96362
559.9809, 32.33798
560.4630, 34.47662
560.9451, 30.14035
561.4272, 25.20642
561.9094, 20.47055
562.3915, 16.07407
562.8736, 12.10916
563.3557, 5.834656
563.8378, 3.405487
564.3199, 8.910187
564.8021, 23.74069
565.2842, 33.65027
565.7663, 38.01044
566.2484, 38.88016
566.7305, 37.55643
567.2126, 34.32224
567.6948, 32.13657
568.1769, 32.47372
568.6590, 32.55817
569.1411, 25.75745
569.6232, 14.61356
570.1053, 7.988464
570.5875, 14.55722
571.0696, 24.70016
571.5517, 30.60019
572.0338, 32.17300
572.5159, 32.06628
572.9980, 31.01834
573.4802, 29.56177
573.9623, 27.99869
574.4444, 25.77087
574.9265, 24.54691
575.4086, 25.32263
575.8907, 26.81046
576.3729, 27.44620
576.8550, 27.54108
577.3371, 25.90179
577.8192, 21.21780
578.3013, 14.84335
578.7834, 12.27353
579.2656, 14.04214
579.7477, 15.77844
580.2298, 13.80942
580.7119, 9.513580
581.1940, 8.703400
581.6761, 12.07236
582.1583, 15.08124
582.6404, 11.99490
583.1225, 6.281555
583.6046, 3.839813
584.0867, 7.892944
584.5688, 12.59293
585.0510, 13.88708
585.5331, 13.23969
586.0152, 13.74780
586.4973, 19.15619
586.9794, 23.55807
587.4615, 24.93384
587.9437, 23.55005
588.4258, 19.26031
588.9079, 8.062653
589.3900, 1.191437
589.8721, 2.924164
590.3542, 4.641083
590.8364, 12.42783
591.3185, 21.14633
591.8006, 28.25681
592.2827, 29.76031
592.7648, 26.13177
593.2469, 21.97339
593.7291, 17.74579
594.2112, 14.67557
594.6933, 15.29990
595.1754, 18.86096
595.6575, 22.51605
596.1396, 24.91885
596.6218, 26.62161
597.1039, 28.70975
597.5860, 31.24091
598.0681, 31.09052
598.5502, 25.99252
599.0323, 18.42944
599.5144, 9.785187
599.9965, 5.453796
600.4786, 12.56827
600.9608, 6.484436
601.4429, 5.663239
601.9250, 12.06659
602.4071, 9.823853
602.8892, 9.535858
603.3713, 14.78271
603.8535, 22.86075
604.3356, 24.51059
604.8177, 19.72232
605.2998, 14.22208
605.7819, 11.20154
606.2640, 9.897797
606.7462, 9.409485
607.2283, 9.705719
607.7104, 9.019867
608.1925, 3.125305
608.6746, 3.072693
609.1567, 3.715302
609.6389, 5.971924
610.1210, 14.05920
610.6031, 15.39828
611.0852, 12.74789
611.5673, 10.29993
612.0494, 8.234100
612.5316, 6.791321
613.0137, 6.340973
613.4958, 6.591461
613.9779, 5.628296
614.4600, 2.293579
614.9421, 1.238770
615.4243, 6.861847
615.9064, 17.95459
616.3885, 20.95914
616.8706, 15.20035
617.3527, 9.389862
617.8348, 15.45001
618.3170, 26.76059
618.7991, 28.41885
619.2812, 14.23468
619.7633, 0.3023990
620.2454, 2.470612
620.7275, 2.768768
621.2097, 7.761353
621.6918, 10.92175
622.1739, 12.55084
622.6560, 10.64047
623.1381, 6.306549
623.6202, 6.903473
624.1024, 17.98212
624.5845, 26.65274
625.0666, 27.37009
625.5487, 19.72495
626.0308, 15.30576
626.5129, 14.64517
626.9951, 15.43625
627.4772, 17.05518
627.9593, 18.87057
628.4414, 15.76422
628.9235, 5.738159
629.4056, 2.939423
629.8878, 2.731323
630.3699, 15.97995
630.8520, 23.92444
631.3341, 15.84061
631.8162, 8.253418
632.2983, 13.84241
632.7805, 27.57751
633.2626, 35.02765
633.7447, 23.78644
634.2268, 14.56708
634.7089, 16.69208
635.1910, 29.71814
635.6732, 33.84940
636.1553, 25.29202
636.6374, 14.58633
637.1195, 8.398712
637.6016, 6.924622
638.0837, 4.644257
638.5659, 0.9971310
639.0480, 1.800812
639.5301, 0.3641660
640.0122, 4.003510
640.4943, 7.430634
640.9764, 8.444977
641.4586, 9.212280
641.9407, 14.04218
642.4228, 19.91006
642.9049, 20.83734
643.3870, 5.952942
643.8691, 5.927216
644.3513, 6.010468
644.8334, 4.798767
645.3155, 15.16080
645.7976, 28.44485
646.2797, 36.06677
646.7618, 32.43307
647.2440, 15.81015
647.7261, 7.911163
648.2082, 11.00916
648.6903, 17.34900
649.1724, 19.72107
649.6545, 19.14578
650.1367, 22.63821
650.6187, 32.46082
651.1008, 40.72012
651.5829, 35.76498
652.0651, 23.63168
652.5472, 15.48038
653.0293, 17.22110
653.5114, 21.59183
653.9935, 27.48486
654.4756, 33.28647
654.9578, 34.83426
655.4399, 26.76904
655.9220, 18.90652
656.4041, 13.15598
656.8862, 9.592133
657.3683, 10.66446
657.8505, 18.66156
658.3326, 24.11050
658.8147, 19.93185
659.2968, 7.197510
659.7789, 0.8653870
660.2610, 1.480530
660.7432, 6.000458
661.2253, 13.77084
661.7074, 22.79990
662.1895, 29.27719
662.6716, 32.05066
663.1537, 33.20386
663.6359, 34.32202
664.1180, 34.62949
664.6001, 33.02911
665.0822, 23.52762
665.5643, 18.56808
666.0464, 24.51288
666.5286, 36.63052
667.0107, 42.79248
667.4928, 41.40613
667.9749, 38.17209
668.4570, 34.56323
668.9391, 30.73672
669.4213, 27.86902
669.9034, 26.00681
670.3855, 23.86981
670.8676, 19.82239
671.3497, 15.02536
671.8318, 11.51633
672.3140, 9.374268
672.7961, 9.423004
673.2782, 15.27625
673.7603, 22.01889
674.2424, 24.82697
674.7245, 21.66293
675.2067, 16.63391
675.6888, 4.757751
676.1709, 5.976929
676.6530, 4.183105
677.1351, 20.50708
677.6172, 34.54300
678.0994, 30.78192
678.5815, 16.28635
679.0636, 4.999939
679.5457, 3.190521
680.0278, 5.537933
680.5099, 2.201721
680.9921, 14.34564
681.4742, 21.74106
681.9563, 24.56812
682.4384, 24.15701
682.9205, 16.57761
683.4026, 9.477173
683.8848, 10.31897
684.3669, 20.21906
684.8490, 27.05179
685.3311, 27.13376
685.8132, 23.67831
686.2953, 17.71179
686.7775, 5.074646
687.2596, 2.633087
687.7417, 14.78064
688.2238, 30.71503
688.7059, 39.05304
689.1880, 40.03870
689.6702, 36.31305
690.1523, 27.39850
690.6344, 16.48618
691.1165, 5.008362
691.5986, 5.221558
692.0807, 9.471832
692.5629, 0.7855530
693.0450, 8.987762
693.5271, 12.53290
694.0092, 11.84372
694.4913, 12.53378
694.9734, 17.27896
695.4556, 22.15381
695.9377, 27.06909
696.4198, 31.61261
696.9019, 30.91040
697.3840, 23.18735
697.8661, 16.43967
698.3483, 16.27304
698.8304, 21.45535
699.3125, 22.77283
699.7946, 20.07764
700.2767, 17.20056
700.7589, 17.91257
701.2410, 20.13339
701.7231, 20.21167
702.2052, 17.45190
702.6873, 16.35690
703.1694, 20.99017
703.6515, 26.67993
704.1336, 28.83377
704.6157, 21.91522
705.0978, 18.04819
705.5800, 18.12683
706.0621, 20.85248
706.5442, 25.38763
707.0263, 32.67404
707.5084, 35.25739
707.9905, 29.81503
708.4727, 21.10165
708.9548, 18.90988
709.4369, 21.81345
709.9190, 23.54218
710.4011, 18.81915
710.8832, 13.27231
711.3654, 12.96399
711.8475, 16.54242
712.3296, 18.10519
712.8117, 12.42355
713.2938, 7.126373
713.7759, 5.584717
714.2581, 7.867859
714.7402, 11.98154
715.2223, 20.14322
715.7044, 26.11746
716.1865, 25.29382
716.6686, 17.88205
717.1508, 11.45715
717.6329, 5.919922
718.1150, 3.601501
718.5971, 10.93671
719.0792, 21.90225
719.5613, 24.55127
720.0435, 14.68515
720.5256, 6.535919
721.0077, 10.92874
721.4898, 20.33066
721.9719, 26.74823
722.4540, 28.68365
722.9362, 26.86938
723.4183, 17.74554
723.9004, 7.310974
724.3825, 5.534149
724.8646, 14.22742
725.3467, 22.78409
725.8289, 29.73575
726.3110, 34.20364
726.7931, 32.09589
727.2752, 25.05029
727.7573, 20.44119
728.2394, 24.96701
728.7216, 30.82809
729.2037, 30.79160
729.6858, 26.10608
730.1679, 21.29678
730.6500, 17.00644
731.1321, 13.83905
731.6143, 11.84622
732.0964, 11.26764
732.5785, 13.25018
733.0606, 18.99753
733.5427, 24.24200
734.0248, 26.25803
734.5070, 25.65289
734.9891, 25.77359
735.4712, 26.49664
735.9533, 27.44705
736.4354, 29.00806
736.9175, 30.32080
737.3997, 29.88467
737.8818, 27.36450
738.3639, 24.68149
738.8460, 21.58395
739.3281, 19.00305
739.8102, 17.75650
740.2924, 18.48978
740.7745, 19.70615
741.2566, 22.39160
741.7387, 24.51627
742.2208, 22.83951
742.7029, 17.02628
743.1851, 13.87860
743.6672, 14.53372
744.1493, 17.49875
744.6314, 22.61237
745.1135, 28.35001
745.5956, 30.80646
746.0778, 25.99817
746.5599, 21.32715
747.0420, 21.78900
747.5241, 25.52405
748.0062, 28.91394
748.4883, 33.52084
748.9705, 35.28809
749.4526, 30.94806
749.9347, 22.83823
750.4168, 21.02591
750.8989, 26.56836
751.3810, 31.16605
751.8632, 31.59033
752.3453, 28.99081
752.8274, 25.32416
753.3095, 20.90637
753.7916, 17.49814
754.2737, 16.91245
754.7558, 17.08936
755.2379, 16.27292
755.7200, 14.52664
756.2021, 13.44226
756.6843, 12.25168
757.1664, 12.87534
757.6485, 17.48712
758.1306, 26.60971
758.6127, 28.04596
759.0948, 19.05988
759.5770, 11.19739
760.0591, 14.74036
760.5412, 26.57413
761.0233, 33.37851
761.5054, 34.64230
761.9875, 32.72864
762.4697, 25.62201
762.9518, 18.05930
763.4339, 16.67917
763.9160, 25.04648
764.3981, 28.66357
764.8802, 15.98080
765.3624, 2.050781
765.8445, 1.044128
766.3266, 12.47379
766.8087, 20.64777
767.2908, 21.67584
767.7729, 20.45856
768.2551, 24.65771
768.7372, 32.50754
769.2193, 32.52603
769.7014, 20.73187
770.1835, 8.454224
770.6656, 8.743286
771.1478, 15.65723
771.6299, 19.32642
772.1120, 11.16391
772.5941, 5.515381
773.0762, 7.961517
773.5583, 15.20923
774.0405, 23.21619
774.5226, 34.22333
775.0047, 38.77264
775.4868, 33.45032
775.9689, 23.75381
776.4510, 21.14999
776.9332, 24.41684
777.4153, 25.71783
777.8974, 21.07614
778.3795, 14.93451
778.8616, 11.21594
779.3438, 9.501862
779.8259, 8.829376
780.3080, 9.992828
780.7901, 11.20871
781.2722, 11.43616
781.7543, 10.94180
782.2365, 9.777435
782.7186, 7.512817
783.2007, 5.944458
783.6828, 5.589478
784.1649, 6.159851
784.6470, 6.109222
785.1292, 5.729126
785.6113, 7.090759
786.0934, 13.46194
786.5755, 20.49448
787.0576, 25.55008
787.5397, 28.15842
788.0219, 26.23306
788.5040, 13.07638
788.9861, 1.436035
789.4682, 4.219559
789.9503, 4.153641
790.4324, 1.546448
790.9146, 4.146484
791.3967, 10.47940
791.8788, 18.01578
792.3609, 25.01904
792.8430, 23.11819
793.3251, 13.12735
793.8073, 4.277496
794.2894, 3.505127
794.7715, 5.964249
795.2536, 8.193054
795.7357, 9.909241
796.2178, 10.36694
796.7000, 6.463898
797.1821, 4.158188
797.6642, 7.340805
798.1463, 16.64185
798.6284, 19.25368
799.1105, 13.96323
799.5927, 7.289261
800.0748, 2.559311
800.5569, 0.2561340
801.0390, 2.930435
801.5211, 10.60771
802.0032, 18.04843
802.4854, 21.32802
802.9675, 23.17496
803.4496, 26.96562
803.9317, 35.03587
804.4138, 34.93245
804.8959, 20.53772
805.3781, 4.670975
805.8602, 5.297760
806.3423, 9.204880
806.8243, 7.835434
807.3065, 0.4571230
807.7886, 7.209671
808.2707, 9.234222
808.7528, 8.081879
809.2349, 8.422043
809.7170, 11.05972
810.1992, 12.79886
810.6813, 8.928482
811.1634, 5.346725
811.6455, 7.910553
812.1276, 22.58038
812.6097, 26.80139
813.0919, 14.48953
813.5740, 1.314575
814.0561, 3.405380
814.5382, 19.52805
815.0203, 27.89989
815.5024, 26.58878
815.9846, 22.24759
816.4667, 21.11472
816.9488, 20.78214
817.4309, 17.66086
817.9130, 10.09285
818.3951, 3.612534
818.8773, 0.8273160
819.3594, 2.788559
819.8415, 2.101746
820.3236, 1.581863
820.8057, 7.326996
821.2878, 15.78876
821.7700, 24.64880
822.2521, 32.87323
822.7342, 39.44998
823.2163, 39.53345
823.6984, 31.43829
824.1805, 23.79340
824.6627, 25.56468
825.1448, 30.26614
825.6269, 30.94778
826.1090, 23.82655
826.5911, 18.50356
827.0732, 18.22728
827.5554, 17.50262
828.0375, 9.305389
828.5196, 7.849899
829.0017, 13.89491
829.4838, 5.769501
829.9659, 5.365906
830.4481, 7.023407
830.9302, 3.021957
831.4123, 5.6473002E-02
831.8944, 0.3248750
832.3765, 2.390686
832.8586, 11.32892
833.3408, 21.88667
833.8229, 29.80510
834.3050, 36.12515
834.7871, 36.77994
835.2692, 29.44434
835.7513, 20.86734
836.2335, 20.09872
836.7156, 25.26964
837.1977, 22.67072
837.6798, 10.00195
838.1619, 0.7741090
838.6440, 6.002411
839.1262, 18.64188
839.6083, 22.64853
840.0904, 10.80148
840.5725, 3.589661
841.0546, 9.261108
841.5367, 17.28485
842.0189, 18.94536
842.5010, 12.16133
842.9831, 13.47643
843.4652, 25.22740
843.9473, 36.50989
844.4294, 33.71863
844.9116, 22.95395
845.3937, 15.86995
845.8758, 14.33871
846.3579, 14.91505
846.8400, 17.64360
847.3221, 20.12775
847.8043, 20.28368
848.2864, 16.07228
848.7685, 17.01033
849.2506, 25.70518
849.7327, 34.03954
850.2148, 33.98550
850.6970, 27.01828
851.1791, 22.57924
851.6612, 21.31479
852.1433, 21.86162
852.6254, 24.86839
853.1075, 28.07680
853.5897, 28.14311
854.0718, 23.45244
854.5539, 23.27618
855.0360, 36.67789
855.5181, 47.81552
856.0002, 46.64021
856.4824, 31.79530
856.9645, 21.65369
857.4466, 16.12321
857.9287, 15.45915
858.4108, 25.63829
858.8929, 38.57449
859.3750, 38.93320
859.8571, 25.95535
860.3392, 13.23178
860.8214, 4.171341
861.3035, 0.1177830
861.7856, 3.954651
862.2677, 16.03416
862.7498, 24.77492
863.2319, 30.26646
863.7141, 31.90005
864.1962, 26.86877
864.6783, 18.43164
865.1604, 19.37456
865.6425, 28.44739
866.1246, 36.15645
866.6068, 33.71098
867.0889, 30.03023
867.5710, 34.68640
868.0531, 47.21063
868.5352, 47.85507
869.0173, 25.75218
869.4995, 7.352310
869.9816, 3.730698
870.4637, 11.79561
870.9458, 16.17801
871.4279, 16.86617
871.9100, 16.17221
872.3922, 12.82773
872.8743, 10.50815
873.3564, 14.53629
873.8385, 23.37080
874.3206, 31.22403
874.8027, 37.97044
875.2849, 41.18492
875.7670, 39.39647
876.2491, 33.85818
876.7312, 28.84262
877.2133, 24.15012
877.6954, 22.68085
878.1776, 26.10187
878.6597, 31.64313
879.1418, 37.41046
879.6239, 42.30154
880.1060, 43.51022
880.5881, 34.22339
881.0703, 27.32629
881.5524, 30.59650
882.0345, 38.78256
882.5166, 40.39023
882.9987, 31.80328
883.4808, 29.20746
883.9630, 37.92419
884.4451, 48.99179
884.9272, 45.46399
885.4093, 31.63885
885.8914, 20.52579
886.3735, 16.52313
886.8557, 13.04553
887.3378, 2.447540
887.8199, 7.528854
888.3020, 6.462433
888.7841, 16.68484
889.2662, 31.32751
889.7484, 35.75717
890.2305, 33.19647
890.7126, 23.23587
891.1947, 8.248352
891.6768, 3.654022
892.1589, 12.62265
892.6411, 23.35498
893.1232, 28.91281
893.6053, 29.34079
894.0874, 23.01019
894.5695, 5.302734
895.0516, 4.543549
895.5338, 3.109985
896.0159, 2.877441
896.4980, 10.87128
896.9801, 20.71198
897.4622, 26.80106
897.9443, 28.89487
898.4265, 28.93451
898.9086, 26.61072
899.3907, 24.38623
899.8728, 25.35587
900.3549, 29.70590
900.8370, 34.07315
901.3192, 40.57480
901.8013, 43.51077
902.2834, 39.40021
902.7655, 29.41699
903.2476, 23.91864
903.7297, 23.08133
904.2119, 23.23267
904.6940, 22.48990
905.1761, 21.43454
905.6582, 19.89343
906.1403, 18.53851
906.6224, 19.83942
907.1046, 30.81360
907.5867, 37.47656
908.0688, 33.51770
908.5509, 22.88098
909.0330, 16.01303
909.5151, 12.97943
909.9973, 14.11313
910.4793, 21.11926
910.9614, 29.42227
911.4435, 32.43866
911.9257, 31.67508
912.4078, 29.62057
912.8899, 25.61072
913.3720, 23.20581
913.8541, 25.23828
914.3362, 28.67853
914.8184, 29.35260
915.3005, 26.86649
915.7826, 24.10086
916.2647, 21.24347
916.7468, 18.51620
917.2289, 14.96243
917.7111, 12.08463
918.1932, 13.53976
918.6753, 20.83234
919.1574, 27.11072
919.6395, 29.65732
920.1216, 30.05466
920.6038, 28.88129
921.0859, 25.34445
921.5680, 26.04584
922.0501, 31.95691
922.5322, 37.91113
923.0143, 40.01550
923.4965, 39.30005
923.9786, 37.98315
924.4607, 36.15054
924.9428, 33.07166
925.4249, 26.01440
925.9070, 19.36487
926.3892, 14.81995
926.8713, 12.50665
927.3534, 14.51730
927.8355, 22.37744
928.3176, 28.56537
928.7997, 30.19092
929.2819, 28.20728
929.7640, 22.12946
930.2461, 13.85275
930.7282, 9.340668
931.2103, 17.20068
931.6924, 22.21872
932.1746, 14.29495
932.6567, 1.392242
933.1388, 0.1091310
933.6209, 16.02173
934.1030, 21.85172
934.5851, 11.49698
935.0673, 2.790588
935.5494, 3.070251
936.0315, 5.749817
936.5136, 12.83691
936.9957, 15.49692
937.4778, 17.07413
937.9600, 19.37088
938.4421, 21.14313
938.9242, 21.20914
939.4063, 19.05414
939.8884, 17.48816
940.3705, 16.56839
940.8527, 16.00668
941.3348, 15.56427
941.8169, 15.32306
942.2990, 15.60284
942.7811, 16.36469
943.2632, 16.96069
943.7454, 16.58099
944.2275, 16.43845
944.7096, 18.07544
945.1917, 20.77240
945.6738, 19.02112
946.1559, 12.50711
946.6381, 7.530884
947.1202, 6.095276
947.6023, 6.803040
948.0844, 7.124176
948.5665, 7.630829
949.0486, 9.950317
949.5308, 17.87604
950.0129, 23.40274
950.4950, 23.32257
950.9771, 19.87592
951.4592, 15.11945
951.9413, 8.353607
952.4235, 5.101837
952.9056, 6.405457
953.3877, 8.505005
953.8698, 4.294800
954.3519, 1.690613
954.8340, 1.054871
955.3162, 9.056000
955.7983, 17.94763
956.2804, 24.00436
956.7625, 25.69836
957.2446, 20.76001
957.7267, 8.811615
958.2089, 1.165558
958.6910, 2.262726
959.1731, 0.8649600
959.6552, 10.51379
960.1373, 23.83731
960.6194, 29.00970
961.1016, 26.93250
961.5837, 22.89960
962.0658, 15.58099
962.5479, 10.37970
963.0300, 9.441956
963.5121, 10.99518
963.9942, 9.756439
964.4763, 5.921204
964.9584, 5.490112
965.4406, 11.94019
965.9227, 18.22314
966.4048, 15.83020
966.8869, 9.166687
967.3690, 4.305115
967.8511, 4.269257
968.3333, 3.046265
968.8154, 1.429230
969.2975, 4.747833
969.7796, 0.8863530
970.2617, 8.793854
970.7438, 10.43103
971.2260, 3.326538
971.7081, 2.324249
972.1902, 4.792328
972.6723, 13.78439
973.1544, 14.08688
973.6365, 5.349548
974.1187, 3.144165
974.6008, 10.84305
975.0829, 19.11172
975.5650, 25.59274
976.0471, 29.69037
976.5292, 29.10803
977.0114, 24.62637
977.4935, 19.13147
977.9756, 10.57709
978.4577, 5.623779
978.9398, 11.55188
979.4219, 21.87280
979.9041, 26.23145
980.3862, 23.16299
980.8683, 17.18610
981.3504, 7.429565
981.8325, 1.268555
982.3146, 3.707458
982.7968, 1.049103
983.2789, 6.112549
983.7610, 18.21786
984.2431, 26.31357
984.7252, 22.45297
985.2073, 17.16980
985.6895, 17.19421
986.1716, 22.04007
986.6537, 20.72195
987.1358, 12.78381
987.6179, 4.291443
988.1000, 4.281219
988.5822, 9.156494
989.0643, 0.5440060
989.5464, 17.80057
990.0285, 25.29245
990.5106, 1.372131
990.9927, 11.03506
991.4749, 0.2719120
991.9570, 20.06815
992.4391, 25.45258
992.9212, 17.37161
993.4033, 11.28867
993.8854, 9.678833
994.3676, 10.11609
994.8497, 12.48074
995.3318, 14.81589
995.8139, 14.63882
996.2960, 10.69461
996.7781, 10.42139
997.2603, 15.48660
997.7424, 21.03247
998.2245, 25.62207
998.7066, 28.11404
999.1887, 21.42621
999.6708, 8.342163
1000.153, 1.239349
1000.635, 11.99609
1001.117, 24.39130
1001.599, 32.40887
1002.081, 36.20111
1002.564, 35.96469
1003.046, 30.17703
1003.528, 28.32413
1004.010, 33.10138
1004.492, 37.25116
1004.974, 29.64413
1005.456, 16.18152
1005.938, 4.688538
1006.420, 4.623291
1006.903, 4.358398
1007.385, 20.95334
1007.867, 42.74979
1008.349, 45.62173
1008.831, 31.72488
1009.313, 23.35345
1009.795, 20.36624
1010.277, 18.25052
1010.760, 9.674042
1011.242, 5.085510
1011.724, 21.03033
1012.206, 47.23862
1012.688, 58.05228
1013.170, 41.38147
1013.652, 24.87036
1014.134, 9.478546
1014.616, 0.8102720
1015.099, 3.557434
1015.581, 17.70490
1016.063, 26.83661
1016.545, 28.23819
1017.027, 27.67194
1017.509, 25.03094
1017.991, 24.35291
1018.473, 30.72223
1018.955, 43.86707
1019.438, 43.96490
1019.920, 28.82272
1020.402, 18.55399
1020.884, 28.49341
1021.366, 44.18170
1021.848, 43.62961
1022.330, 32.77188
1022.812, 25.44775
1023.294, 30.14233
1023.777, 33.16882
1024.259, 31.75516
1024.741, 29.26263
1025.223, 31.71991
1025.705, 37.77649
1026.187, 35.27502
1026.669, 22.27603
1027.151, 11.35233
1027.634, 16.56400
1028.116, 24.40726
1028.598, 22.07388
1029.080, 8.958282
1029.562, 7.606567
1030.044, 22.02478
1030.526, 34.92914
1031.008, 40.11710
1031.490, 39.19989
1031.973, 30.72678
1032.455, 19.00604
1032.937, 14.24069
1033.419, 25.94131
1033.901, 36.11945
1034.383, 39.37576
1034.865, 40.16092
1035.347, 42.91208
1035.830, 47.67795
1036.312, 48.82272
1036.794, 46.03821
1037.276, 42.11017
1037.758, 36.30566
1038.240, 32.68314
1038.722, 37.70261
1039.204, 49.96921
1039.687, 53.63400
1040.169, 44.37399
1040.651, 35.96170
1041.133, 31.58023
1041.615, 30.47769
1042.097, 33.97327
1042.579, 39.47491
1043.061, 40.16837
1043.543, 31.55566
1044.026, 25.03857
1044.508, 26.94135
1044.990, 31.07892
1045.472, 33.59833
1045.954, 34.34641
1046.436, 30.93460
1046.918, 24.03232
1047.400, 20.40140
1047.882, 28.58710
1048.365, 39.09982
1048.847, 44.57230
1049.329, 45.84988
1049.811, 41.31802
1050.293, 26.18488
1050.775, 16.03793
1051.257, 13.86499
1051.739, 16.12967
1052.221, 19.86444
1052.704, 23.78262
1053.186, 24.97961
1053.668, 22.96719
1054.150, 18.31259
1054.632, 5.280273
1055.114, 4.214294
1055.596, 3.209717
1056.078, 7.056335
1056.561, 17.09323
1057.043, 26.77661
1057.525, 31.83652
1058.007, 28.15189
1058.489, 21.94830
1058.971, 14.69110
1059.453, 9.995483
1059.935, 14.89691
1060.417, 39.68073
1060.900, 53.53711
1061.382, 54.08328
1061.864, 47.76135
1062.346, 38.79047
1062.828, 28.15204
1063.310, 15.40933
1063.792, 1.614319
1064.274, 4.419159
1064.756, 12.09253
1065.239, 24.85864
1065.721, 22.36313
1066.203, 11.14294
1066.685, 9.424927
1067.167, 16.17053
1067.649, 17.91525
1068.131, 9.344879
1068.613, 1.762115
1069.096, 5.952850
1069.578, 14.96014
1070.060, 22.69266
1070.542, 29.34396
1071.024, 29.19138
1071.506, 20.11472
1071.988, 13.83890
1072.470, 21.43552
1072.953, 34.01526
1073.435, 35.57254
1073.917, 29.03970
1074.399, 22.45154
1074.881, 17.55704
1075.363, 13.39862
1075.845, 9.929352
1076.327, 7.676636
1076.809, 6.419006
1077.292, 6.732697
1077.774, 13.92972
1078.256, 28.47528
1078.738, 38.79883
1079.220, 32.81665
1079.702, 24.39102
1080.184, 23.29437
1080.666, 27.32599
1081.148, 26.62207
1081.631, 20.66675
1082.113, 15.27762
1082.595, 12.26044
1083.077, 10.13510
1083.559, 5.461243
1084.041, 1.658020
1084.523, 4.149841
1085.005, 17.64813
1085.488, 25.99139
1085.970, 27.59341
1086.452, 26.78296
1086.934, 25.15872
1087.416, 23.51166
1087.898, 26.42209
1088.380, 31.70639
1088.862, 31.54935
1089.344, 14.61319
1089.827, 1.886383
1090.309, 1.510010
1090.791, 6.444855
1091.273, 6.624603
1091.755, 2.008972
1092.237, 5.412628
1092.719, 18.03113
1093.201, 28.63120
1093.683, 25.25806
1094.166, 19.91077
1094.648, 23.77994
1095.130, 34.43607
1095.612, 33.01318
1096.094, 16.25937
1096.576, 5.646393
1097.058, 7.729279
1097.540, 15.60699
1098.022, 24.29700
1098.505, 31.11377
1098.987, 31.59015
1099.469, 21.65482
1099.951, 18.93457
1100.433, 28.01123
1100.915, 37.10272
1101.397, 40.32172
1101.879, 38.17694
1102.362, 28.35089
1102.844, 13.85611
1103.326, 4.628662
1103.808, 7.896820
1104.290, 13.06534
1104.772, 20.31784
1105.254, 25.54953
1105.736, 23.06812
1106.219, 13.35263
1106.701, 6.191345
1107.183, 1.762268
1107.665, 1.318970
1108.147, 9.790558
1108.629, 18.58701
1109.111, 22.16135
1109.593, 21.29962
1110.075, 19.18533
1110.557, 15.71362
1111.040, 11.14038
1111.522, 5.044037
1112.004, 1.9623000E-02
1112.486, 0.1022640
1112.968, 2.301056
1113.450, 2.299377
1113.932, 1.028473
1114.414, 1.313110
1114.897, 2.770874
1115.379, 7.735352
1115.861, 11.82751
1116.343, 15.95047
1116.825, 23.46338
1117.307, 31.59116
1117.789, 33.67883
1118.271, 22.17355
1118.754, 16.33093
1119.236, 23.54364
1119.718, 31.83112
1120.200, 32.46497
1120.682, 26.41891
1121.164, 17.63110
1121.646, 7.362823
1122.128, 2.926453
1122.610, 15.44260
1123.093, 27.42938
1123.575, 30.49063
1124.057, 28.04880
1124.539, 23.24249
1125.021, 16.80804
1125.503, 11.33954
1125.985, 6.900726
1126.467, 7.034454
1126.949, 23.70834
1127.432, 38.35287
1127.914, 30.86130
1128.396, 5.527740
1128.878, 2.727905
1129.360, 9.579346
1129.842, 20.49869
1130.324, 25.69977
1130.806, 25.18091
1131.289, 11.82983
1131.771, 3.502869
1132.253, 4.624451
1132.735, 14.44916
1133.217, 22.77261
1133.699, 14.77148
1134.181, 7.304626
1134.663, 8.620239
1135.146, 14.19113
1135.628, 15.43753
1136.110, 13.69516
1136.592, 11.61398
1137.074, 8.104767
1137.556, 8.690369
1138.038, 18.08124
1138.520, 25.25833
1139.002, 18.32916
1139.484, 1.895874
1139.967, 8.3251998E-02
1140.449, 9.506622
1140.931, 17.16907
1141.413, 11.57156
1141.895, 8.621765
1142.377, 16.17252
1142.859, 26.92352
1143.341, 33.04904
1143.824, 34.56979
1144.306, 29.44427
1144.788, 17.72699
1145.270, 9.509979
1145.752, 17.98392
1146.234, 25.83893
1146.716, 19.95111
1147.198, 5.660553
1147.680, 4.899872
1148.163, 11.87256
1148.645, 9.775726
1149.127, 3.776154
1149.609, 18.81168
1150.091, 29.44119
1150.573, 35.03525
1151.055, 33.68912
1151.537, 25.60156
1152.020, 18.08380
1152.502, 10.58142
1152.984, 7.178528
1153.466, 11.14197
1153.948, 15.82309
1154.430, 10.60330
1154.912, 2.121368
1155.394, 0.4578250
1155.876, 6.706818
1156.359, 13.15128
1156.841, 19.89319
1157.323, 22.19150
1157.805, 12.68860
1158.287, 1.256958
1158.769, 10.23019
1159.251, 29.68085
1159.733, 38.35388
1160.215, 13.73389
1160.698, 4.359497
1161.180, 18.01978
1161.662, 33.93506
1162.144, 33.80865
1162.626, 23.19421
1163.108, 12.92493
1163.590, 4.167389
1164.072, 0.6008910
1164.555, 7.913818
1165.037, 15.09119
1165.519, 21.39206
1166.001, 24.93021
1166.483, 20.62775
1166.965, 11.66052
1167.447, 10.15466
1167.929, 16.54620
1168.411, 20.78214
1168.894, 16.39377
1169.376, 10.47885
1169.858, 4.247192
1170.340, 0.8953550
1170.822, 0.4645080
1171.304, 4.172638
1171.786, 4.659210
1172.268, 1.289581
1172.750, 2.046783
1173.233, 19.04245
1173.715, 36.59872
1174.197, 35.10361
1174.679, 20.17358
1175.161, 13.21423
1175.643, 13.47977
1176.125, 14.40936
1176.607, 14.00610
1177.090, 14.30869
1177.572, 17.68417
1178.054, 21.52551
1178.536, 24.93362
1179.018, 27.55469
1179.500, 21.50803
1179.982, 7.291229
1180.464, 4.451416
1180.947, 10.74612
1181.429, 10.16663
1181.911, 5.678192
1182.393, 24.47977
1182.875, 31.96161
1183.357, 26.31940
1183.839, 21.42999
1184.321, 17.24408
1184.803, 16.07639
1185.286, 23.11264
1185.768, 30.09705
1186.250, 29.48456
1186.732, 24.43463
1187.214, 21.07709
1187.696, 19.32761
1188.178, 19.22910
1188.660, 20.79465
1189.142, 23.87067
1189.625, 29.00882
1190.107, 34.74518
1190.589, 42.83594
1191.071, 49.85895
1191.553, 46.62622
1192.035, 28.99426
1192.517, 18.92255
1192.999, 19.36099
1193.482, 22.13403
1193.964, 19.15817
1194.446, 14.83252
1194.928, 14.51511
1195.410, 17.34766
1195.892, 16.01077
1196.374, 7.840057
1196.856, 5.696442
1197.338, 12.67416
1197.821, 22.64511
1198.303, 30.95895
1198.785, 37.41351
1199.267, 42.31808
1199.749, 45.44482
1200.231, 43.80905
1200.713, 36.21823
1201.195, 27.30615
1201.677, 16.78943
1202.160, 9.503906
1202.642, 14.35815
1203.124, 24.51199
1203.606, 32.90817
1204.088, 38.55173
1204.570, 37.43051
1205.052, 25.82257
1205.534, 18.17319
1206.016, 20.45068
1206.499, 27.61865
1206.981, 36.63406
1207.463, 43.39560
1207.945, 41.02701
1208.427, 23.44809
1208.909, 19.27441
1209.391, 33.49634
1209.873, 42.74115
1210.356, 31.84125
1210.838, 15.17871
1211.320, 15.25046
1211.802, 24.73141
1212.284, 30.60397
1212.766, 28.52432
1213.248, 27.50537
1213.730, 28.08878
1214.213, 28.87711
1214.695, 29.18097
1215.177, 29.12775
1215.659, 29.21878
1216.141, 28.92218
1216.623, 27.45807
1217.105, 22.73013
1217.587, 20.65335
1218.069, 21.54910
1218.552, 23.88181
1219.034, 27.00684
1219.516, 30.66705
1219.998, 36.72147
1220.480, 42.83652
1220.962, 42.23486
1221.444, 27.96539
1221.926, 21.04788
1222.408, 23.99777
1222.891, 28.56937
1223.373, 26.48209
1223.855, 22.79047
1224.337, 26.11917
1224.819, 33.56714
1225.301, 33.69495
1225.783, 21.76706
1226.265, 12.82602
1226.748, 7.751648
1227.230, 7.933167
1227.712, 18.97159
1228.194, 32.55151
1228.676, 38.71561
1229.158, 38.93921
1229.640, 42.72913
1230.122, 54.59323
1230.604, 54.12610
1231.087, 36.88879
1231.569, 17.57831
1232.051, 8.266083
1232.533, 7.013275
1233.015, 16.03140
1233.497, 32.67462
1233.979, 40.15530
1234.461, 36.57700
1234.943, 30.25266
1235.426, 21.66135
1235.908, 15.60907
1236.390, 19.26334
1236.872, 26.14182
1237.354, 30.22296
1237.836, 31.16730
1238.318, 31.28561
1238.800, 30.93851
1239.283, 27.53076
1239.765, 20.34406
1240.247, 14.11609
1240.729, 14.60995
1241.211, 18.41306
1241.693, 23.51959
1242.175, 29.26740
1242.657, 32.57996
1243.140, 33.38794
1243.622, 32.50879
1244.104, 29.85892
1244.586, 26.92450
1245.068, 22.01639
1245.550, 19.93927
1246.032, 28.14102
1246.514, 43.97971
1246.996, 49.80844
1247.479, 45.82593
1247.961, 38.32883
1248.443, 27.24741
1248.925, 20.35062
1249.407, 26.51993
1249.889, 36.73856
1250.371, 45.21454
1250.853, 51.52563
1251.335, 52.41708
1251.818, 48.45142
1252.300, 45.39948
1252.782, 46.35852
1253.264, 44.86545
1253.746, 31.37143
1254.228, 19.75369
1254.710, 20.99927
1255.192, 31.77698
1255.674, 33.17569
1256.157, 26.69846
1256.639, 18.90903
1257.121, 9.049683
1257.603, 6.217255
1258.085, 23.48782
1258.567, 39.84207
1259.049, 43.84946
1259.531, 37.35666
1260.014, 24.75311
1260.496, 8.417633
1260.978, 4.023346
1261.460, 12.04474
1261.942, 10.09198
1262.424, 10.61935
1262.906, 29.71802
1263.388, 33.89212
1263.870, 28.43097
1264.353, 28.11954
1264.835, 30.66647
1265.317, 30.09576
1265.799, 19.31256
1266.281, 17.74075
1266.763, 32.23557
1267.245, 44.07993
1267.727, 40.30774
1268.209, 27.57300
1268.692, 11.23260
1269.174, 2.229309
1269.656, 1.355835
1270.138, 43.54440
1270.620, 64.43857
1271.102, 59.74991
1271.584, 49.59479
1272.066, 45.96420
1272.549, 45.02908
1273.031, 41.34692
1273.513, 36.59857
1273.995, 33.89139
1274.477, 34.07440
1274.959, 35.26089
1275.441, 37.81467
1275.923, 38.19455
1276.406, 33.73291
1276.888, 26.48706
1277.370, 14.80118
1277.852, 3.484039
1278.334, 0.1652530
1278.816, 4.845917
1279.298, 12.13370
1279.780, 21.58847
1280.262, 29.60062
1280.745, 36.57358
1281.227, 38.46371
1281.709, 25.83786
1282.191, 7.069550
1282.673, 4.003845
1283.155, 11.83539
1283.637, 13.38434
1284.119, 9.673065
1284.601, 9.804932
1285.084, 24.86703
1285.566, 36.71976
1286.048, 34.59875
1286.530, 30.42023
1287.012, 31.57925
1287.494, 35.96683
1287.976, 29.90009
1288.458, 16.11017
1288.941, 6.033844
1289.423, 6.476990
1289.905, 8.846313
1290.387, 11.75992
1290.869, 14.62683
1291.351, 13.21237
1291.833, 9.370422
1292.315, 8.800262
1292.797, 10.12122
1293.280, 9.762299
1293.762, 2.067596
1294.244, 1.271820
1294.726, 9.444214
1295.208, 17.83038
1295.690, 19.25806
1296.172, 17.30103
1296.654, 15.63907
1297.136, 14.49606
1297.619, 14.71118
1298.101, 17.14407
1298.583, 18.04706
1299.065, 17.42542
1299.547, 14.79269
1300.029, 6.749298
1300.511, 0.2857670
1300.993, 2.249146
1301.475, 6.177582
1301.958, 0.0000000E+00
##END=



