##NAMES=Hectorite
##RRUFFID=R050134
##IDEAL CHEMISTRY=Na_0.3_(Mg,Li)_3_Si_4_O_10_(OH)_2_
##LOCALITY=Hector, California, USA
##OWNER=RRUFF
##SOURCE=University of Arizona Mineral Museum
##DESCRIPTION=Compacted aggregate of fine-grained material
##STATUS=The identification of this mineral is not yet confirmed.
##URL=rruff.info/R050134
149.3282, 0.0000000E+00
149.8103, 164.5938
150.2924, 116.3164
150.7745, 0.4765630
151.2566, 5.632813
151.7388, 69.28516
152.2209, 141.2383
152.7030, 220.0508
153.1851, 286.3320
153.6672, 331.6094
154.1493, 336.2148
154.6315, 344.7227
155.1136, 356.3359
155.5957, 372.6523
156.0778, 399.5664
156.5599, 474.0586
157.0420, 535.8711
157.5242, 553.2617
158.0063, 490.0703
158.4884, 416.3672
158.9705, 321.1914
159.4526, 214.2773
159.9347, 153.4375
160.4169, 188.2266
160.8990, 255.1914
161.3811, 308.4180
161.8632, 328.2695
162.3453, 339.4492
162.8274, 340.7422
163.3096, 333.9375
163.7917, 344.6914
164.2738, 394.2188
164.7559, 464.1992
165.2380, 534.0938
165.7201, 606.5977
166.2023, 668.1250
166.6844, 713.0703
167.1665, 741.4883
167.6486, 751.3516
168.1307, 725.8945
168.6128, 685.3398
169.0949, 656.1836
169.5771, 630.0898
170.0592, 632.2617
170.5413, 712.7461
171.0234, 883.4375
171.5055, 1005.953
171.9876, 932.7852
172.4698, 747.8633
172.9519, 600.5156
173.4340, 588.8242
173.9161, 634.7188
174.3982, 660.0781
174.8803, 657.3984
175.3625, 646.2383
175.8446, 638.5156
176.3267, 635.0469
176.8088, 638.1523
177.2909, 642.7227
177.7730, 657.1914
178.2552, 698.1172
178.7373, 765.8047
179.2194, 855.6250
179.7015, 942.3594
180.1836, 1003.344
180.6657, 1048.574
181.1479, 1049.113
181.6300, 1044.812
182.1121, 1064.797
182.5942, 1148.340
183.0763, 1196.113
183.5584, 1103.418
184.0406, 895.6758
184.5227, 735.1484
185.0048, 775.6094
185.4869, 947.4297
185.9690, 1044.914
186.4511, 1029.043
186.9333, 945.8516
187.4154, 868.7266
187.8975, 797.2891
188.3796, 739.5547
188.8617, 704.8867
189.3438, 689.7500
189.8260, 674.3906
190.3081, 651.9180
190.7902, 632.4648
191.2723, 652.6484
191.7544, 714.7500
192.2365, 755.4609
192.7187, 702.5430
193.2008, 568.9648
193.6829, 483.1055
194.1650, 478.2656
194.6471, 525.9531
195.1292, 550.7305
195.6114, 552.2695
196.0935, 537.1133
196.5756, 510.8359
197.0577, 472.9688
197.5398, 410.5898
198.0219, 307.3008
198.5041, 175.7109
198.9862, 162.7734
199.4683, 289.7969
199.9504, 426.6445
200.4325, 449.6914
200.9146, 351.0664
201.3968, 262.8203
201.8789, 209.8320
202.3610, 187.8281
202.8431, 181.5859
203.3252, 196.6797
203.8073, 212.8203
204.2895, 216.5078
204.7716, 210.2305
205.2537, 179.9336
205.7358, 108.4062
206.2179, 9.074219
206.7000, 14.17578
207.1822, 71.32422
207.6643, 161.3438
208.1464, 145.1133
208.6285, 6.187500
209.1106, 124.4961
209.5927, 168.4297
210.0749, 145.3633
210.5570, 134.5781
211.0391, 150.7422
211.5212, 154.2266
212.0033, 92.92969
212.4854, 60.85938
212.9676, 175.2344
213.4497, 217.9961
213.9318, 190.6016
214.4139, 134.7109
214.8960, 24.94531
215.3781, 75.69531
215.8603, 96.23047
216.3424, 5.863281
216.8245, 72.88672
217.3066, 111.2734
217.7887, 109.9258
218.2708, 113.5938
218.7529, 122.1641
219.2351, 136.5938
219.7172, 162.9961
220.1993, 216.1055
220.6814, 244.4141
221.1635, 232.2031
221.6456, 178.8086
222.1278, 124.5703
222.6099, 58.94922
223.0920, 3.593750
223.5741, 15.42969
224.0562, 14.58203
224.5383, 50.92188
225.0205, 90.07812
225.5026, 132.3281
225.9847, 152.0234
226.4668, 133.2812
226.9489, 109.0781
227.4310, 120.0859
227.9132, 197.3477
228.3953, 243.2305
228.8774, 226.1875
229.3595, 143.2852
229.8416, 98.12109
230.3237, 103.8633
230.8059, 133.9727
231.2880, 165.8242
231.7701, 210.7578
232.2522, 235.2617
232.7343, 226.5078
233.2164, 182.6406
233.6986, 153.5273
234.1807, 143.5547
234.6628, 142.9922
235.1449, 141.0273
235.6270, 128.9414
236.1091, 131.5156
236.5913, 154.3477
237.0734, 197.2930
237.5555, 249.8867
238.0376, 328.8203
238.5197, 399.6094
239.0018, 427.5039
239.4840, 395.4688
239.9661, 350.5195
240.4482, 287.5625
240.9303, 207.2578
241.4124, 178.5195
241.8945, 231.1875
242.3767, 304.0859
242.8588, 343.3438
243.3409, 338.0586
243.8230, 320.8125
244.3051, 300.1406
244.7872, 275.3281
245.2694, 214.0820
245.7515, 76.33203
246.2336, 53.30469
246.7157, 99.42578
247.1978, 16.00781
247.6799, 60.06641
248.1621, 110.5742
248.6442, 137.0898
249.1263, 152.7695
249.6084, 157.6914
250.0905, 153.1719
250.5726, 136.9531
251.0548, 95.27734
251.5369, 71.33203
252.0190, 67.46875
252.5011, 84.90625
252.9832, 142.8516
253.4653, 277.0703
253.9475, 402.7617
254.4296, 449.9375
254.9117, 364.8867
255.3938, 323.8086
255.8759, 361.8750
256.3580, 461.5312
256.8401, 522.4062
257.3223, 537.1367
257.8044, 523.5586
258.2865, 487.5156
258.7686, 415.0703
259.2507, 359.3633
259.7328, 329.5117
260.2150, 321.2891
260.6971, 310.3945
261.1792, 291.4492
261.6613, 282.7383
262.1434, 305.5234
262.6255, 387.2656
263.1077, 412.5781
263.5898, 341.9961
264.0719, 220.1172
264.5540, 201.5898
265.0361, 337.7344
265.5182, 348.1484
266.0004, 510.2383
266.4825, 601.7344
266.9646, 620.3125
267.4467, 374.1172
267.9288, 467.8008
268.4109, 426.5781
268.8931, 378.8320
269.3752, 519.6875
269.8573, 316.5352
270.3394, 464.8359
270.8215, 475.4531
271.3036, 549.1133
271.7858, 486.3320
272.2679, 465.7070
272.7500, 581.5938
273.2321, 616.6445
273.7142, 531.6719
274.1964, 608.3945
274.6785, 407.1445
275.1606, 450.7461
275.6427, 600.0156
276.1248, 528.5156
276.6069, 608.8516
277.0891, 631.3750
277.5712, 391.1797
278.0533, 607.9297
278.5354, 627.0938
279.0175, 512.5273
279.4996, 487.3672
279.9818, 453.7031
280.4639, 408.3945
280.9460, 383.9727
281.4281, 392.8828
281.9102, 435.1055
282.3923, 498.6211
282.8745, 593.7109
283.3566, 675.2227
283.8387, 681.3516
284.3208, 610.1641
284.8029, 533.9883
285.2850, 466.5664
285.7672, 411.2266
286.2493, 385.5430
286.7314, 392.2227
287.2135, 414.8984
287.6956, 454.8398
288.1777, 508.5859
288.6599, 514.0859
289.1420, 428.3438
289.6241, 299.8164
290.1062, 274.3516
290.5883, 357.0039
291.0704, 469.8711
291.5526, 563.8281
292.0347, 637.1250
292.5168, 677.9062
292.9989, 680.0352
293.4810, 652.2070
293.9631, 592.4844
294.4453, 502.6719
294.9274, 435.9414
295.4095, 446.0234
295.8916, 511.2734
296.3737, 567.8320
296.8558, 605.5898
297.3380, 628.6992
297.8201, 653.6484
298.3022, 675.3672
298.7843, 662.5117
299.2664, 567.5703
299.7485, 427.4922
300.2307, 321.3203
300.7128, 255.7109
301.1949, 228.9844
301.6770, 266.2852
302.1591, 348.5859
302.6412, 408.8242
303.1234, 392.9609
303.6055, 342.8711
304.0876, 324.6914
304.5697, 349.5195
305.0518, 365.2266
305.5339, 274.9648
306.0161, 129.9805
306.4982, 40.65625
306.9803, 103.5430
307.4624, 217.7461
307.9445, 280.2969
308.4266, 287.3281
308.9088, 279.8594
309.3909, 263.6875
309.8730, 255.7500
310.3551, 280.2383
310.8372, 403.6523
311.3193, 525.2227
311.8015, 553.4922
312.2836, 496.6016
312.7657, 433.8633
313.2478, 420.8633
313.7299, 425.1953
314.2120, 413.3906
314.6942, 354.8203
315.1763, 304.2578
315.6584, 304.2500
316.1405, 341.4023
316.6226, 371.5703
317.1047, 375.5898
317.5869, 373.2852
318.0690, 376.4805
318.5511, 391.7852
319.0332, 404.3203
319.5153, 409.9062
319.9974, 408.2188
320.4796, 399.2578
320.9617, 359.8672
321.4438, 332.5352
321.9259, 343.3789
322.4080, 415.2969
322.8901, 464.8203
323.3723, 455.0703
323.8544, 415.1953
324.3365, 389.4297
324.8186, 402.5742
325.3007, 417.0547
325.7828, 430.6992
326.2650, 450.0898
326.7471, 431.9844
327.2292, 311.5039
327.7113, 179.8242
328.1934, 123.5664
328.6755, 234.3789
329.1577, 328.6641
329.6398, 373.6836
330.1219, 369.4883
330.6040, 370.2734
331.0861, 368.0156
331.5682, 375.1641
332.0504, 403.1953
332.5325, 496.2500
333.0146, 534.4062
333.4967, 476.8281
333.9788, 350.9805
334.4609, 291.8242
334.9431, 338.4531
335.4252, 395.5742
335.9073, 413.4180
336.3894, 375.0859
336.8715, 343.4258
337.3536, 316.0625
337.8358, 299.5312
338.3179, 314.8555
338.8000, 372.6875
339.2821, 422.0898
339.7642, 449.0977
340.2463, 454.8164
340.7284, 424.1836
341.2105, 339.1992
341.6927, 253.7305
342.1748, 255.6875
342.6569, 357.1289
343.1390, 437.5625
343.6211, 447.0078
344.1032, 399.7422
344.5854, 393.3867
345.0675, 432.4375
345.5496, 480.0000
346.0317, 493.8398
346.5138, 477.2344
346.9959, 481.5039
347.4781, 528.8320
347.9602, 591.6602
348.4423, 602.3398
348.9244, 562.7266
349.4065, 519.0898
349.8886, 519.6719
350.3708, 544.5000
350.8529, 526.2656
351.3350, 445.2188
351.8171, 355.2227
352.2992, 323.3633
352.7813, 344.0859
353.2635, 391.9023
353.7456, 484.4219
354.2277, 585.0352
354.7098, 639.6992
355.1919, 642.8906
355.6740, 618.9727
356.1562, 566.4844
356.6383, 502.7812
357.1204, 457.8477
357.6025, 460.6719
358.0846, 473.6211
358.5667, 457.7383
359.0489, 415.7812
359.5310, 392.6562
360.0131, 452.2930
360.4952, 527.8125
360.9773, 549.2812
361.4594, 456.4180
361.9416, 359.6016
362.4237, 311.3477
362.9058, 300.6445
363.3879, 292.2031
363.8700, 277.7461
364.3521, 259.2539
364.8343, 236.7773
365.3164, 205.3008
365.7985, 182.9219
366.2806, 202.2031
366.7627, 228.6133
367.2448, 207.0703
367.7270, 53.46094
368.2091, 76.76953
368.6912, 134.8594
369.1733, 107.8789
369.6554, 64.42188
370.1375, 26.29297
370.6197, 114.3789
371.1018, 157.8672
371.5839, 139.4844
372.0660, 96.82031
372.5481, 7.378906
373.0302, 114.8086
373.5124, 155.9766
373.9945, 74.05469
374.4766, 30.63281
374.9587, 102.4766
375.4408, 134.7383
375.9229, 152.4336
376.4051, 158.0547
376.8872, 149.1211
377.3693, 113.8906
377.8514, 43.45312
378.3335, 18.10938
378.8156, 49.14062
379.2978, 48.90625
379.7799, 46.35156
380.2620, 43.26172
380.7441, 30.65234
381.2262, 11.01953
381.7083, 80.33594
382.1905, 136.2539
382.6726, 168.5625
383.1547, 176.9688
383.6368, 142.2305
384.1189, 62.33203
384.6010, 4.000000
385.0832, 49.18359
385.5653, 158.9531
386.0474, 219.3984
386.5295, 194.0742
387.0116, 145.7656
387.4937, 156.6328
387.9759, 213.8047
388.4580, 269.3945
388.9401, 303.1289
389.4222, 318.1445
389.9043, 309.0625
390.3864, 272.1328
390.8686, 247.2305
391.3507, 285.1172
391.8328, 349.5352
392.3149, 387.5625
392.7970, 371.4609
393.2791, 329.0312
393.7613, 265.4766
394.2434, 183.7500
394.7255, 109.0039
395.2076, 13.00391
395.6897, 49.00781
396.1718, 28.77734
396.6540, 166.4805
397.1361, 317.3867
397.6182, 335.7148
398.1003, 268.8555
398.5824, 218.2734
399.0645, 211.7930
399.5467, 213.0625
400.0288, 207.6602
400.5109, 187.9648
400.9930, 185.9453
401.4751, 234.4648
401.9572, 281.4570
402.4394, 269.6719
402.9215, 145.3281
403.4036, 52.61719
403.8857, 25.23047
404.3678, 55.12500
404.8499, 63.61328
405.3321, 39.22656
405.8142, 16.39844
406.2963, 14.58984
406.7784, 33.16406
407.2605, 85.71875
407.7426, 194.0078
408.2248, 311.2500
408.7069, 328.5742
409.1890, 236.5625
409.6711, 141.5859
410.1532, 77.40234
410.6353, 46.64453
411.1175, 74.04688
411.5996, 169.3516
412.0817, 258.3672
412.5638, 233.0156
413.0459, 127.9766
413.5280, 56.46875
414.0102, 59.16016
414.4923, 96.75000
414.9744, 117.2891
415.4565, 123.6172
415.9386, 129.1055
416.4207, 145.1328
416.9029, 164.8711
417.3850, 182.1133
417.8671, 198.3242
418.3492, 203.8047
418.8313, 168.7109
419.3134, 122.2891
419.7956, 110.1992
420.2777, 192.9062
420.7598, 278.4023
421.2419, 318.9727
421.7240, 313.6641
422.2061, 293.3672
422.6883, 241.5234
423.1704, 193.1367
423.6525, 172.6953
424.1346, 214.7070
424.6167, 243.4375
425.0988, 235.2227
425.5810, 205.2930
426.0631, 188.9805
426.5452, 203.2305
427.0273, 220.7109
427.5094, 238.5664
427.9915, 264.0781
428.4737, 253.6016
428.9558, 177.9102
429.4379, 98.27734
429.9200, 85.09375
430.4021, 169.6953
430.8842, 222.1367
431.3664, 217.1250
431.8485, 177.3750
432.3306, 166.3438
432.8127, 186.5352
433.2948, 204.2617
433.7769, 196.7266
434.2591, 164.9492
434.7412, 126.1719
435.2233, 76.15625
435.7054, 33.46484
436.1875, 19.69141
436.6696, 32.49609
437.1518, 67.03906
437.6339, 140.3164
438.1160, 221.8594
438.5981, 263.5000
439.0802, 266.9492
439.5623, 241.6992
440.0444, 158.5039
440.5266, 65.32031
441.0087, 31.58203
441.4908, 92.95703
441.9729, 164.5781
442.4550, 189.4883
442.9371, 182.5547
443.4193, 172.1250
443.9014, 159.9727
444.3835, 156.6094
444.8656, 180.2695
445.3477, 234.0430
445.8298, 255.1133
446.3120, 190.6445
446.7941, 105.9102
447.2762, 52.53906
447.7583, 70.87500
448.2404, 78.78516
448.7225, 57.01953
449.2047, 18.44531
449.6868, 3.625000
450.1689, 31.83594
450.6510, 57.36328
451.1331, 59.37500
451.6152, 30.02734
452.0974, 37.21484
452.5795, 104.1367
453.0616, 166.9961
453.5437, 142.2109
454.0258, 13.96484
454.5079, 48.52734
454.9901, 5.683594
455.4722, 131.4414
455.9543, 206.0703
456.4364, 228.0156
456.9185, 216.7383
457.4006, 156.2188
457.8828, 69.57031
458.3649, 40.44922
458.8470, 80.98047
459.3291, 134.7812
459.8112, 137.1719
460.2933, 106.6797
460.7755, 84.96094
461.2576, 83.31641
461.7397, 101.2344
462.2218, 164.1953
462.7039, 259.7695
463.1860, 310.4961
463.6682, 248.6680
464.1503, 149.0938
464.6324, 67.91797
465.1145, 11.92188
465.5966, 24.88281
466.0787, 45.05859
466.5609, 47.25000
467.0430, 27.44141
467.5251, 62.03516
468.0072, 116.6289
468.4893, 86.79688
468.9714, 19.87891
469.4536, 62.35156
469.9357, 6.089844
470.4178, 87.71875
470.8999, 128.3906
471.3820, 100.8398
471.8641, 102.9141
472.3463, 152.8047
472.8284, 213.3828
473.3105, 220.0000
473.7926, 161.3047
474.2747, 112.8359
474.7568, 98.02734
475.2390, 110.7695
475.7211, 125.6289
476.2032, 141.9453
476.6853, 167.7930
477.1674, 231.0391
477.6495, 309.8672
478.1317, 326.5781
478.6138, 257.1992
479.0959, 178.6992
479.5780, 196.5430
480.0601, 272.0039
480.5422, 314.3398
481.0244, 242.1328
481.5065, 152.5742
481.9886, 134.8789
482.4707, 180.5664
482.9528, 212.0469
483.4349, 170.1289
483.9171, 113.5391
484.3992, 85.97266
484.8813, 102.3359
485.3634, 130.4844
485.8455, 193.7695
486.3276, 256.9531
486.8098, 266.9180
487.2919, 123.0234
487.7740, 31.00781
488.2561, 48.30859
488.7382, 166.7695
489.2203, 250.6016
489.7025, 294.9766
490.1846, 310.6055
490.6667, 295.9258
491.1488, 241.9375
491.6309, 207.6328
492.1130, 198.6133
492.5952, 203.9336
493.0773, 209.0547
493.5594, 214.0898
494.0415, 216.1680
494.5236, 216.5664
495.0057, 212.3906
495.4879, 192.6172
495.9700, 158.4414
496.4521, 123.4062
496.9342, 96.16016
497.4163, 74.60156
497.8984, 56.39453
498.3806, 40.75391
498.8627, 28.99609
499.3448, 19.55078
499.8269, 14.71875
500.3090, 17.78906
500.7911, 39.49609
501.2733, 59.72656
501.7554, 68.08594
502.2375, 67.66016
502.7196, 69.83984
503.2017, 70.67578
503.6838, 78.34766
504.1660, 100.2422
504.6481, 151.4648
505.1302, 173.6797
505.6123, 149.6445
506.0944, 108.7539
506.5765, 85.03516
507.0587, 87.51953
507.5408, 83.80469
508.0229, 67.67188
508.5050, 42.45703
508.9871, 9.992188
509.4692, 34.28906
509.9514, 51.66016
510.4335, 1.316406
510.9156, 107.6211
511.3977, 163.8711
511.8798, 165.2266
512.3619, 142.2500
512.8441, 124.3984
513.3262, 111.3320
513.8083, 109.6133
514.2904, 125.3750
514.7725, 145.1445
515.2546, 154.9336
515.7368, 158.1562
516.2189, 163.7812
516.7010, 175.7852
517.1831, 190.7266
517.6652, 217.6133
518.1473, 257.7461
518.6295, 258.6641
519.1116, 139.3008
519.5937, 15.44531
520.0758, 29.07812
520.5579, 124.5938
521.0400, 208.5000
521.5222, 191.6484
522.0043, 118.5117
522.4864, 69.96484
522.9685, 57.57031
523.4506, 42.46875
523.9327, 10.48438
524.4149, 31.61328
524.8970, 35.77344
525.3791, 5.183594
525.8612, 53.68359
526.3433, 91.28906
526.8254, 114.4609
527.3076, 100.0078
527.7897, 42.22656
528.2718, 5.636719
528.7539, 44.32031
529.2360, 154.3984
529.7181, 235.7891
530.2003, 249.0664
530.6824, 226.1953
531.1645, 168.8203
531.6466, 92.74219
532.1287, 51.19141
532.6108, 117.6523
533.0930, 189.5820
533.5751, 194.9414
534.0572, 108.6953
534.5393, 56.01562
535.0214, 86.98438
535.5035, 150.4531
535.9857, 202.7539
536.4678, 258.1875
536.9499, 278.6055
537.4320, 249.3047
537.9141, 193.0625
538.3962, 151.6328
538.8784, 123.0977
539.3605, 111.0117
539.8426, 120.0430
540.3247, 146.4414
540.8068, 169.2305
541.2889, 188.5977
541.7711, 199.5703
542.2532, 189.8828
542.7353, 168.5430
543.2174, 165.7969
543.6995, 190.1523
544.1816, 215.3477
544.6638, 213.2930
545.1459, 193.0820
545.6280, 169.7148
546.1101, 140.1602
546.5922, 117.4180
547.0743, 111.6875
547.5565, 119.4336
548.0386, 128.0117
548.5207, 103.6133
549.0028, 102.8984
549.4849, 167.0898
549.9670, 327.3945
550.4492, 430.7383
550.9313, 467.8477
551.4134, 453.0195
551.8955, 381.7617
552.3776, 203.9883
552.8597, 121.2578
553.3419, 184.1719
553.8240, 318.0273
554.3061, 364.8633
554.7882, 321.8477
555.2703, 272.8203
555.7524, 247.9297
556.2346, 240.9023
556.7167, 247.9883
557.1988, 266.1836
557.6809, 262.1953
558.1630, 187.8125
558.6451, 87.49219
559.1273, 18.38672
559.6094, 14.14062
560.0915, 10.91016
560.5736, 64.14453
561.0557, 162.5391
561.5378, 223.6758
562.0200, 203.2656
562.5021, 178.9297
562.9842, 166.3672
563.4663, 163.8398
563.9484, 166.1523
564.4305, 180.0820
564.9127, 190.7266
565.3948, 192.9492
565.8769, 186.8984
566.3590, 184.8438
566.8411, 190.6016
567.3232, 189.1641
567.8054, 168.9805
568.2875, 134.5469
568.7696, 107.1133
569.2517, 87.00781
569.7338, 76.39453
570.2159, 83.44531
570.6981, 103.1602
571.1802, 117.5234
571.6623, 119.3008
572.1444, 115.5117
572.6265, 114.6680
573.1086, 114.6211
573.5908, 108.4258
574.0729, 75.08984
574.5550, 48.30469
575.0371, 47.60156
575.5192, 74.46484
576.0013, 116.8438
576.4835, 200.9570
576.9656, 278.3359
577.4477, 316.3203
577.9298, 284.4062
578.4119, 267.3008
578.8940, 262.2383
579.3762, 269.7148
579.8583, 301.6797
580.3404, 370.6953
580.8225, 390.4805
581.3046, 320.8242
581.7867, 208.0195
582.2689, 180.2383
582.7510, 235.0508
583.2331, 302.1445
583.7152, 341.8281
584.1973, 364.4375
584.6794, 387.0430
585.1616, 409.9961
585.6437, 428.3047
586.1258, 449.6602
586.6079, 459.0977
587.0900, 436.4102
587.5721, 364.3164
588.0542, 297.3828
588.5363, 236.3047
589.0184, 197.0273
589.5005, 200.0273
589.9827, 323.1680
590.4648, 393.3359
590.9469, 369.9336
591.4290, 283.0352
591.9111, 232.6953
592.3932, 232.9023
592.8754, 229.4570
593.3575, 201.8398
593.8396, 152.1133
594.3217, 80.85938
594.8038, 13.86328
595.2859, 79.33203
595.7681, 42.71094
596.2502, 51.54688
596.7323, 98.59766
597.2144, 80.90625
597.6965, 46.84375
598.1786, 28.22656
598.6608, 22.77344
599.1429, 28.83594
599.6250, 64.97266
600.1071, 88.71484
600.5892, 59.53906
601.0714, 6.367188
601.5535, 3.191406
602.0356, 87.00000
602.5177, 172.6172
602.9998, 238.8555
603.4819, 284.2031
603.9641, 280.6836
604.4462, 207.9648
604.9283, 132.6523
605.4104, 91.37109
605.8925, 83.92578
606.3746, 95.95312
606.8568, 131.6797
607.3389, 160.2305
607.8210, 144.4023
608.3031, 96.70312
608.7852, 46.79688
609.2673, 5.769531
609.7495, 41.17969
610.2316, 21.94141
610.7137, 24.35547
611.1958, 48.97656
611.6779, 6.328125
612.1600, 34.54297
612.6422, 42.35547
613.1243, 23.33594
613.6064, 12.85938
614.0885, 34.89844
614.5706, 44.71875
615.0527, 23.06250
615.5349, 32.53125
616.0170, 74.75000
616.4991, 107.8555
616.9812, 116.1836
617.4633, 66.73047
617.9454, 34.73047
618.4276, 69.37109
618.9097, 21.70312
619.3918, 46.30469
619.8739, 50.21875
620.3560, 18.84766
620.8381, 28.32422
621.3203, 133.8320
621.8024, 231.5469
622.2845, 218.7070
622.7666, 140.1992
623.2487, 91.39453
623.7308, 135.8242
624.2130, 187.2852
624.6951, 220.3125
625.1772, 233.7422
625.6593, 228.6289
626.1414, 183.2812
626.6235, 149.0859
627.1057, 153.2734
627.5878, 201.7695
628.0699, 219.7383
628.5520, 198.1250
629.0341, 175.8711
629.5162, 206.9844
629.9984, 275.2422
630.4805, 279.2305
630.9626, 194.3867
631.4447, 101.8164
631.9268, 103.8906
632.4089, 159.5352
632.8911, 192.7188
633.3732, 162.9727
633.8553, 123.3320
634.3374, 88.11719
634.8195, 65.62500
635.3016, 75.10156
635.7838, 182.2539
636.2659, 257.5391
636.7480, 248.3047
637.2301, 165.8242
637.7122, 106.4102
638.1943, 72.99609
638.6765, 56.55469
639.1586, 59.85547
639.6407, 82.56641
640.1228, 79.87891
640.6049, 48.75391
641.0870, 17.14062
641.5692, 14.12891
642.0513, 30.50391
642.5334, 42.84766
643.0155, 46.84766
643.4976, 51.97266
643.9797, 71.41406
644.4619, 94.87500
644.9440, 108.0430
645.4261, 88.14453
645.9082, 79.73438
646.3903, 106.6445
646.8724, 152.9727
647.3546, 185.3750
647.8367, 205.7969
648.3188, 205.4883
648.8009, 167.8633
649.2830, 107.5781
649.7651, 97.23047
650.2473, 143.7812
650.7294, 203.0938
651.2115, 270.6875
651.6936, 334.1094
652.1757, 330.8125
652.6578, 259.8906
653.1400, 182.3828
653.6221, 148.0977
654.1042, 144.6367
654.5863, 153.0859
655.0684, 170.6836
655.5505, 202.2109
656.0327, 282.7109
656.5148, 361.4688
656.9969, 390.2461
657.4790, 306.7656
657.9611, 251.9688
658.4432, 238.1797
658.9254, 251.0586
659.4075, 276.0117
659.8896, 323.4023
660.3717, 349.9062
660.8538, 343.9961
661.3359, 315.6758
661.8181, 279.2734
662.3002, 237.0117
662.7823, 210.8750
663.2644, 222.8672
663.7465, 249.4180
664.2286, 253.5000
664.7108, 240.4609
665.1929, 237.3984
665.6750, 262.5977
666.1571, 299.1484
666.6392, 349.1133
667.1213, 416.0703
667.6035, 435.0195
668.0856, 348.6328
668.5677, 257.3789
669.0498, 210.7578
669.5319, 219.2109
670.0140, 236.3984
670.4962, 272.7188
670.9783, 304.0312
671.4604, 289.1836
671.9425, 236.0391
672.4246, 215.3594
672.9067, 242.1211
673.3889, 291.7617
673.8710, 346.4180
674.3531, 399.9062
674.8352, 438.7930
675.3173, 452.5703
675.7994, 454.2422
676.2816, 437.0156
676.7637, 419.5273
677.2458, 430.5898
677.7279, 514.2852
678.2100, 579.8633
678.6921, 602.0625
679.1743, 588.8320
679.6564, 584.4570
680.1385, 593.2734
680.6206, 598.8359
681.1027, 586.0078
681.5848, 563.5664
682.0670, 581.3203
682.5491, 639.6914
683.0312, 703.7148
683.5133, 748.6133
683.9954, 779.6680
684.4775, 811.3672
684.9597, 848.1680
685.4418, 860.0312
685.9239, 780.3203
686.4060, 699.0469
686.8881, 697.9805
687.3702, 866.9961
687.8524, 950.0430
688.3345, 875.1016
688.8166, 758.7227
689.2987, 722.9375
689.7808, 787.1484
690.2629, 833.8828
690.7451, 857.2617
691.2272, 854.9727
691.7093, 798.7812
692.1914, 702.9375
692.6735, 638.0234
693.1556, 651.4531
693.6378, 671.1406
694.1199, 588.9570
694.6020, 450.8125
695.0841, 367.0234
695.5662, 456.9609
696.0483, 540.2031
696.5305, 530.7773
697.0126, 443.1328
697.4947, 375.8477
697.9768, 333.2266
698.4589, 312.1758
698.9410, 318.4219
699.4232, 349.1250
699.9053, 365.1367
700.3874, 364.9727
700.8695, 363.2852
701.3516, 377.9922
701.8337, 397.8164
702.3159, 388.9414
702.7980, 350.2852
703.2801, 304.8945
703.7622, 256.4297
704.2443, 216.6758
704.7264, 198.7539
705.2086, 207.4492
705.6907, 223.7812
706.1728, 252.6836
706.6549, 280.4453
707.1370, 297.6992
707.6191, 312.5625
708.1013, 291.3164
708.5834, 214.0195
709.0655, 129.6953
709.5476, 106.0547
710.0297, 139.8047
710.5118, 189.5508
710.9940, 257.6953
711.4761, 310.4219
711.9582, 277.7773
712.4403, 199.0703
712.9224, 157.9844
713.4045, 237.8203
713.8867, 304.6641
714.3688, 267.5039
714.8509, 169.3008
715.3330, 105.1875
715.8151, 127.7305
716.2972, 143.7812
716.7794, 129.5000
717.2615, 97.72656
717.7436, 102.9688
718.2257, 156.3750
718.7078, 190.2734
719.1899, 162.0195
719.6721, 99.17969
720.1542, 83.97266
720.6363, 110.5273
721.1184, 134.8672
721.6005, 115.8164
722.0826, 89.89453
722.5648, 99.07812
723.0469, 141.7656
723.5290, 171.1836
724.0111, 160.2227
724.4932, 141.7969
724.9753, 134.1719
725.4575, 141.3203
725.9396, 145.3867
726.4217, 144.1094
726.9038, 142.4258
727.3859, 153.5820
727.8680, 174.9297
728.3502, 142.7969
728.8323, 47.98047
729.3144, 41.08203
729.7965, 57.03516
730.2786, 24.58203
730.7607, 23.96484
731.2429, 89.26953
731.7250, 141.4414
732.2071, 165.3281
732.6892, 167.6172
733.1713, 154.6055
733.6534, 87.82812
734.1356, 64.03516
734.6177, 111.6758
735.0998, 175.2266
735.5819, 169.6016
736.0640, 84.66406
736.5461, 52.05078
737.0283, 107.6953
737.5104, 189.3945
737.9925, 207.5078
738.4746, 176.1094
738.9567, 129.3320
739.4388, 65.81641
739.9210, 10.34766
740.4031, 27.33984
740.8852, 44.11719
741.3673, 33.31641
741.8494, 51.94922
742.3315, 110.8203
742.8137, 118.0508
743.2958, 88.98828
743.7779, 62.74219
744.2600, 38.84766
744.7421, 22.08203
745.2242, 20.47266
745.7064, 22.21484
746.1885, 22.05469
746.6706, 99.48828
747.1527, 135.3008
747.6348, 51.98828
748.1169, 61.61719
748.5991, 135.8438
749.0812, 174.2422
749.5633, 198.5117
750.0454, 229.6172
750.5275, 232.8281
751.0096, 170.6992
751.4918, 53.09375
751.9739, 14.86719
752.4560, 83.39453
752.9381, 153.9727
753.4202, 162.6328
753.9023, 127.1016
754.3845, 156.1289
754.8666, 244.8125
755.3487, 298.6680
755.8308, 198.2383
756.3129, 58.24609
756.7950, 16.08594
757.2772, 79.58203
757.7593, 134.3477
758.2414, 121.8789
758.7235, 102.0586
759.2056, 115.1914
759.6877, 171.9883
760.1699, 201.0859
760.6520, 200.8633
761.1341, 181.8750
761.6162, 133.7578
762.0983, 62.23438
762.5804, 36.54297
763.0626, 57.30859
763.5447, 85.64453
764.0268, 78.07812
764.5089, 63.78125
764.9910, 86.71094
765.4731, 160.0195
765.9553, 225.8008
766.4374, 269.9609
766.9195, 291.1992
767.4016, 285.2500
767.8837, 239.3945
768.3658, 198.8047
768.8480, 158.5156
769.3301, 132.6406
769.8122, 141.9766
770.2943, 182.7734
770.7764, 219.8477
771.2585, 249.7539
771.7407, 271.5547
772.2228, 290.6406
772.7049, 298.8750
773.1870, 279.5977
773.6691, 213.4414
774.1512, 162.8320
774.6334, 171.2266
775.1155, 197.7422
775.5976, 196.3438
776.0797, 140.0703
776.5618, 113.8008
777.0439, 129.1602
777.5261, 162.3359
778.0082, 191.6953
778.4903, 214.8945
778.9724, 200.5820
779.4545, 131.3594
779.9366, 65.37891
780.4188, 91.44141
780.9009, 156.7812
781.3830, 177.0391
781.8651, 93.25000
782.3472, 19.50781
782.8293, 14.17969
783.3115, 13.60547
783.7936, 15.69141
784.2757, 99.46484
784.7578, 143.8125
785.2399, 124.6016
785.7220, 85.09375
786.2041, 95.67188
786.6862, 150.2305
787.1683, 209.3242
787.6505, 269.7188
788.1326, 323.5664
788.6147, 361.4922
789.0968, 383.1953
789.5789, 390.0547
790.0610, 369.0352
790.5432, 347.6523
791.0253, 328.7031
791.5074, 313.0820
791.9895, 302.5117
792.4716, 294.9297
792.9537, 304.5547
793.4359, 344.5938
793.9180, 384.8594
794.4001, 357.5781
794.8822, 280.0898
795.3643, 230.3242
795.8464, 249.9688
796.3286, 272.0898
796.8107, 221.5820
797.2928, 138.4648
797.7749, 89.60547
798.2570, 129.4648
798.7391, 157.2578
799.2213, 146.4258
799.7034, 122.9492
800.1855, 132.6953
800.6676, 186.0195
801.1497, 208.0391
801.6318, 176.6641
802.1140, 118.4883
802.5961, 62.90234
803.0782, 17.05078
803.5603, 3.167969
804.0424, 38.82422
804.5245, 87.01562
805.0067, 143.4922
805.4888, 204.8555
805.9709, 251.6680
806.4530, 295.3984
806.9351, 289.3906
807.4172, 197.6758
807.8994, 78.37500
808.3815, 49.42578
808.8636, 114.1836
809.3457, 167.1719
809.8278, 182.6055
810.3099, 177.0234
810.7921, 152.2031
811.2742, 126.3984
811.7563, 137.4766
812.2384, 250.8359
812.7205, 334.7930
813.2026, 300.8281
813.6848, 212.2578
814.1669, 178.4688
814.6490, 242.4414
815.1311, 281.1758
815.6132, 278.6836
816.0953, 247.8164
816.5775, 207.0938
817.0596, 157.1445
817.5417, 96.96484
818.0238, 19.59766
818.5059, 50.72266
818.9880, 96.50000
819.4702, 116.3984
819.9523, 107.6992
820.4344, 38.00391
820.9165, 19.88281
821.3986, 44.41406
821.8807, 52.90234
822.3629, 63.46484
822.8450, 73.78516
823.3271, 100.7656
823.8092, 153.7188
824.2913, 203.5742
824.7734, 196.6523
825.2556, 152.0742
825.7377, 122.9844
826.2198, 125.5430
826.7019, 139.4531
827.1840, 154.6875
827.6661, 172.0781
828.1483, 192.6602
828.6304, 219.2812
829.1125, 246.9805
829.5946, 283.7852
830.0767, 313.0977
830.5588, 310.5117
831.0410, 277.2852
831.5231, 250.5781
832.0052, 236.4297
832.4873, 227.5547
832.9694, 207.4141
833.4515, 191.3320
833.9337, 209.5820
834.4158, 288.6836
834.8979, 338.3789
835.3800, 292.0195
835.8621, 225.2305
836.3442, 204.9492
836.8264, 250.3047
837.3085, 284.2188
837.7906, 305.2539
838.2727, 314.8984
838.7548, 308.9180
839.2369, 291.5859
839.7191, 280.5664
840.2012, 278.1641
840.6833, 268.1641
841.1654, 230.5703
841.6475, 190.8242
842.1296, 171.0391
842.6118, 181.7500
843.0939, 181.9727
843.5760, 168.0625
844.0581, 146.8398
844.5402, 118.3789
845.0223, 82.32812
845.5045, 69.34766
845.9866, 80.67578
846.4687, 94.40625
846.9508, 84.43750
847.4329, 71.14062
847.9150, 92.69531
848.3972, 149.9023
848.8793, 177.1328
849.3614, 107.1836
849.8435, 38.75000
850.3256, 28.12500
850.8077, 75.38281
851.2899, 95.39062
851.7720, 81.71484
852.2541, 64.42578
852.7362, 58.26562
853.2183, 62.07812
853.7004, 77.98047
854.1826, 103.4492
854.6647, 122.3555
855.1468, 115.8359
855.6289, 108.4219
856.1110, 122.8359
856.5931, 154.6641
857.0753, 164.1445
857.5574, 134.9297
858.0395, 109.4727
858.5216, 97.32812
859.0037, 99.83984
859.4858, 135.0547
859.9680, 198.0742
860.4501, 237.8047
860.9322, 216.4883
861.4143, 175.8711
861.8964, 150.5312
862.3785, 139.5430
862.8607, 141.1992
863.3428, 158.4727
863.8249, 185.3867
864.3070, 233.7617
864.7891, 283.3477
865.2712, 288.1250
865.7534, 243.7070
866.2355, 201.7578
866.7176, 176.7148
867.1997, 153.1367
867.6818, 95.14453
868.1639, 24.69922
868.6461, 14.72266
869.1282, 4.679688
869.6103, 34.10547
870.0924, 54.35156
870.5745, 66.88281
871.0566, 78.18750
871.5388, 91.06250
872.0209, 105.3281
872.5030, 117.5820
872.9851, 129.7969
873.4672, 157.2461
873.9493, 190.5000
874.4315, 195.5625
874.9136, 163.5742
875.3957, 134.1133
875.8778, 136.8984
876.3599, 148.5977
876.8420, 149.0000
877.3242, 133.9023
877.8063, 123.7070
878.2884, 126.7227
878.7705, 128.2539
879.2526, 107.4727
879.7347, 70.10547
880.2169, 62.23047
880.6990, 83.94531
881.1811, 128.5859
881.6632, 226.5859
882.1453, 318.8633
882.6274, 346.7344
883.1096, 309.8047
883.5917, 266.1680
884.0738, 210.2227
884.5559, 170.6758
885.0380, 162.2461
885.5201, 178.1250
886.0023, 178.7422
886.4844, 164.6680
886.9665, 159.2305
887.4486, 185.5195
887.9307, 215.5977
888.4128, 216.8594
888.8950, 194.5859
889.3771, 162.7266
889.8592, 104.7148
890.3413, 64.02734
890.8234, 57.60547
891.3055, 71.67969
891.7877, 84.67188
892.2698, 98.32812
892.7519, 92.50781
893.2340, 56.99609
893.7161, 18.48828
894.1982, 17.12109
894.6804, 38.39062
895.1625, 54.38281
895.6446, 54.07812
896.1267, 55.62109
896.6088, 64.05078
897.0909, 78.24219
897.5731, 99.86719
898.0552, 137.9141
898.5373, 143.6055
899.0194, 107.6094
899.5015, 72.09766
899.9836, 89.49219
900.4658, 133.5391
900.9479, 144.9570
901.4300, 117.8203
901.9121, 91.34375
902.3942, 88.53906
902.8763, 91.81250
903.3585, 87.33984
903.8406, 74.53906
904.3227, 79.76172
904.8048, 106.4141
905.2869, 141.1992
905.7690, 189.5352
906.2512, 236.4805
906.7333, 233.8867
907.2154, 190.8477
907.6975, 148.4258
908.1796, 127.0703
908.6617, 114.7344
909.1439, 99.65625
909.6260, 89.06250
910.1081, 105.3086
910.5902, 160.8203
911.0723, 217.2188
911.5544, 279.3477
912.0366, 318.4531
912.5187, 249.3672
913.0008, 109.4805
913.4829, 27.44141
913.9650, 53.19922
914.4471, 113.4844
914.9293, 189.1133
915.4114, 257.8555
915.8935, 292.8242
916.3756, 285.1328
916.8577, 253.4219
917.3398, 185.3984
917.8220, 119.7383
918.3041, 96.05469
918.7862, 105.9805
919.2683, 113.1719
919.7504, 116.4062
920.2325, 133.4023
920.7147, 213.8320
921.1968, 281.7969
921.6789, 258.8906
922.1610, 134.1953
922.6431, 87.01953
923.1252, 167.4180
923.6074, 230.9258
924.0895, 208.6875
924.5716, 129.3867
925.0537, 101.3633
925.5358, 112.9805
926.0179, 107.6328
926.5001, 25.78516
926.9822, 50.87891
927.4643, 60.16797
927.9464, 29.03516
928.4285, 19.98047
928.9106, 61.93750
929.3928, 76.82422
929.8749, 49.62891
930.3570, 1.304688
930.8391, 48.03125
931.3212, 93.15625
931.8033, 107.5156
932.2855, 81.91797
932.7676, 47.67188
933.2497, 5.945313
933.7318, 21.10938
934.2139, 7.757813
934.6960, 67.78125
935.1782, 116.6328
935.6603, 134.3555
936.1424, 134.5391
936.6245, 119.6055
937.1066, 94.29688
937.5887, 78.99609
938.0709, 72.96094
938.5530, 70.75391
939.0351, 70.79688
939.5172, 72.26953
939.9993, 73.49219
940.4814, 76.11719
940.9636, 87.92578
941.4457, 117.3125
941.9278, 136.6367
942.4099, 139.1992
942.8920, 128.1953
943.3741, 96.82812
943.8563, 55.85938
944.3384, 42.44922
944.8205, 79.74219
945.3026, 117.0195
945.7847, 120.9883
946.2668, 109.8789
946.7490, 102.6250
947.2311, 93.14453
947.7132, 111.9492
948.1953, 172.7773
948.6774, 221.1484
949.1595, 194.3242
949.6417, 120.1133
950.1238, 61.40625
950.6059, 22.79688
951.0880, 12.44531
951.5701, 60.34375
952.0522, 113.8398
952.5344, 145.1250
953.0165, 156.0586
953.4986, 158.4180
953.9807, 150.1445
954.4628, 142.2852
954.9449, 139.4688
955.4271, 138.0156
955.9092, 120.0391
956.3913, 98.77344
956.8734, 108.7148
957.3555, 207.5391
957.8376, 271.6758
958.3198, 214.8789
958.8019, 126.0391
959.2840, 114.7812
959.7661, 204.9922
960.2482, 230.1328
960.7303, 172.1328
961.2125, 98.51172
961.6946, 72.44141
962.1767, 72.23438
962.6588, 75.00000
963.1409, 78.51562
963.6230, 77.85938
964.1052, 65.04297
964.5873, 55.28906
965.0694, 56.09375
965.5515, 65.12891
966.0336, 67.03125
966.5157, 61.41406
966.9979, 60.45703
967.4800, 72.39844
967.9621, 86.94141
968.4442, 100.9219
968.9263, 107.1094
969.4084, 92.29297
969.8906, 8.183594
970.3727, 36.18359
970.8548, 63.76562
971.3369, 182.8477
971.8190, 181.0117
972.3011, 74.00000
972.7833, 23.17188
973.2654, 44.91406
973.7475, 81.05859
974.2296, 82.57031
974.7117, 79.54688
975.1938, 111.5156
975.6760, 182.1211
976.1581, 185.5938
976.6402, 77.15625
977.1223, 10.35547
977.6044, 18.90625
978.0865, 21.02344
978.5687, 17.58984
979.0508, 13.89062
979.5329, 15.23438
980.0150, 59.89844
980.4971, 142.3594
980.9792, 211.9883
981.4614, 259.0781
981.9435, 268.6992
982.4255, 229.4141
982.9077, 184.6406
983.3898, 130.1289
983.8719, 94.38672
984.3540, 125.6719
984.8361, 185.2812
985.3182, 206.8164
985.8004, 187.7852
986.2825, 170.6406
986.7646, 158.9961
987.2467, 165.3438
987.7288, 211.8555
988.2109, 283.2578
988.6931, 279.6914
989.1752, 196.7930
989.6573, 138.0703
990.1394, 152.2695
990.6215, 191.4219
991.1036, 205.1445
991.5858, 201.0664
992.0679, 196.6016
992.5500, 217.4766
993.0321, 201.2539
993.5142, 124.2383
993.9963, 40.59375
994.4785, 1.855469
994.9606, 3.984375
995.4427, 19.95312
995.9248, 48.04297
996.4069, 66.44922
996.8890, 44.77344
997.3712, 19.80469
997.8533, 19.00781
998.3354, 40.58203
998.8175, 54.85547
999.2996, 48.64062
999.7817, 68.15234
1000.264, 133.3945
1000.746, 215.2852
1001.228, 271.8555
1001.710, 300.8945
1002.192, 289.7383
1002.674, 212.6367
1003.157, 156.1211
1003.639, 176.8672
1004.121, 221.4258
1004.603, 251.1523
1005.085, 267.3750
1005.567, 262.1484
1006.049, 234.9297
1006.531, 200.9961
1007.013, 167.1133
1007.496, 135.7520
1007.978, 109.1367
1008.460, 86.81641
1008.942, 65.16992
1009.424, 28.96289
1009.906, 15.93555
1010.388, 41.19727
1010.870, 81.39062
1011.353, 93.91016
1011.835, 83.20312
1012.317, 73.31836
1012.799, 67.74414
1013.281, 67.81250
1013.763, 94.00977
1014.245, 114.2871
1014.727, 87.09570
1015.209, 6.369141
1015.692, 25.32617
1016.174, 1.324219
1016.656, 45.03906
1017.138, 103.1758
1017.620, 151.2305
1018.102, 112.0254
1018.584, 20.77930
1019.066, 28.54883
1019.549, 46.70312
1020.031, 111.1875
1020.513, 129.7773
1020.995, 124.7383
1021.477, 120.3809
1021.959, 116.3008
1022.441, 88.90234
1022.923, 33.54688
1023.405, 4.187500
1023.888, 30.76562
1024.370, 88.32617
1024.852, 128.6367
1025.334, 148.0801
1025.816, 147.5020
1026.298, 113.0273
1026.780, 94.74023
1027.262, 112.8906
1027.745, 148.5703
1028.227, 167.0547
1028.709, 175.0820
1029.191, 175.6895
1029.673, 169.8555
1030.155, 159.4805
1030.637, 133.4668
1031.119, 112.9121
1031.601, 118.4141
1032.084, 154.9863
1032.566, 165.5273
1033.048, 149.4297
1033.530, 117.1309
1034.012, 44.17188
1034.494, 16.19922
1034.976, 21.68164
1035.458, 122.3164
1035.941, 167.4453
1036.423, 75.51562
1036.905, 16.40430
1037.387, 22.38086
1037.869, 52.63477
1038.351, 35.56055
1038.833, 9.185547
1039.315, 9.666016
1039.797, 46.45312
1040.280, 105.9453
1040.762, 136.1738
1041.244, 160.8086
1041.726, 202.8262
1042.208, 255.5859
1042.690, 253.7715
1043.172, 191.1055
1043.654, 149.1875
1044.136, 169.8691
1044.619, 206.6953
1045.101, 199.7695
1045.583, 171.6641
1046.065, 159.2441
1046.547, 192.7812
1047.029, 200.7754
1047.511, 174.5996
1047.993, 134.6211
1048.476, 86.76953
1048.958, 38.94922
1049.440, 27.43750
1049.922, 48.63867
1050.404, 74.24609
1050.886, 90.70508
1051.368, 105.5293
1051.850, 127.7148
1052.333, 148.4766
1052.815, 149.4785
1053.297, 128.8457
1053.779, 105.9453
1054.261, 83.02539
1054.743, 63.36133
1055.225, 52.73047
1055.707, 46.75195
1056.189, 39.43945
1056.672, 29.91992
1057.154, 26.97852
1057.636, 33.04102
1058.118, 42.05469
1058.600, 53.09766
1059.082, 64.10547
1059.564, 72.75586
1060.046, 78.51758
1060.528, 71.64062
1061.011, 25.96875
1061.493, 7.912109
1061.975, 81.02734
1062.457, 165.8223
1062.939, 198.1738
1063.421, 175.0176
1063.903, 141.3164
1064.385, 92.56250
1064.868, 58.35156
1065.350, 89.38477
1065.832, 133.9668
1066.314, 151.1914
1066.796, 145.6621
1067.278, 133.7480
1067.760, 116.3555
1068.242, 95.55664
1068.724, 70.10156
1069.207, 47.79883
1069.689, 44.97070
1070.171, 49.74414
1070.653, 25.96680
1071.135, 29.67383
1071.617, 41.39062
1072.099, 71.93555
1072.581, 174.6348
1073.063, 221.4043
1073.546, 220.7988
1074.028, 196.5859
1074.510, 151.8008
1074.992, 112.4219
1075.474, 84.68945
1075.956, 69.30273
1076.438, 68.50586
1076.920, 78.67188
1077.403, 105.3477
1077.885, 150.3438
1078.367, 173.0352
1078.849, 172.5156
1079.331, 161.9082
1079.813, 143.8398
1080.295, 125.3008
1080.777, 103.8320
1081.259, 89.91406
1081.742, 107.5410
1082.224, 231.6387
1082.706, 275.0352
1083.188, 197.6914
1083.670, 98.04492
1084.152, 87.40039
1084.634, 134.9688
1085.116, 136.1445
1085.599, 92.29883
1086.081, 81.48047
1086.563, 197.8984
1087.045, 289.6523
1087.527, 290.9180
1088.009, 234.8613
1088.491, 179.8926
1088.973, 127.4082
1089.455, 118.0723
1089.938, 166.3398
1090.420, 212.6914
1090.902, 190.2402
1091.384, 156.3594
1091.866, 176.5547
1092.348, 252.7871
1092.830, 246.4980
1093.312, 137.3008
1093.794, 54.42773
1094.277, 55.63281
1094.759, 93.88086
1095.241, 109.5859
1095.723, 112.8184
1096.205, 122.3652
1096.687, 158.8633
1097.169, 156.2090
1097.651, 90.81250
1098.134, 26.79102
1098.616, 9.453125
1099.098, 27.49414
1099.580, 48.99609
1100.062, 72.22852
1100.544, 91.02734
1101.026, 108.8613
1101.508, 113.4180
1101.990, 89.83984
1102.473, 60.80664
1102.955, 54.74805
1103.437, 70.71484
1103.919, 77.07422
1104.401, 72.05664
1104.883, 70.46484
1105.365, 87.24609
1105.847, 107.0332
1106.329, 122.9629
1106.812, 132.7051
1107.294, 126.6934
1107.776, 98.78516
1108.258, 92.07227
1108.740, 115.5723
1109.222, 154.8984
1109.704, 229.5781
1110.186, 289.3984
1110.669, 250.1387
1111.151, 92.90039
1111.633, 36.85352
1112.115, 143.2344
1112.597, 220.3340
1113.079, 191.0410
1113.561, 113.0332
1114.043, 88.19727
1114.526, 99.65820
1115.008, 114.9512
1115.490, 135.0078
1115.972, 129.4902
1116.454, 73.33398
1116.936, 16.36133
1117.418, 17.05078
1117.900, 28.06445
1118.382, 22.41602
1118.865, 0.9140630
1119.347, 33.66797
1119.829, 125.6387
1120.311, 170.5586
1120.793, 61.23633
1121.275, 72.76562
1121.757, 93.00781
1122.239, 6.974609
1122.721, 68.54102
1123.204, 88.75781
1123.686, 93.66602
1124.168, 92.43750
1124.650, 90.70898
1125.132, 97.32617
1125.614, 105.2285
1126.096, 95.22266
1126.578, 60.45117
1127.061, 41.42773
1127.543, 44.45508
1128.025, 49.46484
1128.507, 34.47656
1128.989, 10.24805
1129.471, 10.41211
1129.953, 22.12109
1130.435, 26.62305
1130.917, 24.51367
1131.400, 12.58203
1131.882, 13.33984
1132.364, 41.01953
1132.846, 55.32617
1133.328, 57.61328
1133.810, 44.06836
1134.292, 11.18750
1134.774, 0.6152340
1135.256, 31.75000
1135.739, 62.59766
1136.221, 75.86523
1136.703, 76.86133
1137.185, 71.90820
1137.667, 65.95117
1138.149, 78.20703
1138.631, 128.7070
1139.113, 149.7598
1139.596, 71.17969
1140.078, 2.7344000E-02
1140.560, 0.8027340
1141.042, 60.44336
1141.524, 100.7129
1142.006, 123.5840
1142.488, 142.4102
1142.970, 170.5098
1143.453, 184.5254
1143.935, 154.8750
1144.417, 118.1504
1144.899, 115.7012
1145.381, 152.8535
1145.863, 148.9395
1146.345, 105.4199
1146.827, 59.18945
1147.309, 21.13281
1147.792, 2.408203
1148.274, 24.00391
1148.756, 67.33203
1149.238, 98.38281
1149.720, 116.1914
1150.202, 121.3223
1150.684, 112.5723
1151.166, 103.7051
1151.648, 101.0352
1152.131, 108.2891
1152.613, 140.1230
1153.095, 185.9746
1153.577, 205.1465
1154.059, 190.2949
1154.541, 166.6973
1155.023, 134.2285
1155.505, 110.2480
1155.988, 126.4277
1156.470, 156.7422
1156.952, 167.1484
1157.434, 155.8887
1157.916, 151.6758
1158.398, 163.3066
1158.880, 166.2539
1159.362, 150.3652
1159.844, 135.0801
1160.327, 163.6602
1160.809, 206.5977
1161.291, 205.7930
1161.773, 147.4863
1162.255, 119.9922
1162.737, 160.8281
1163.219, 195.0762
1163.701, 198.2559
1164.183, 180.2637
1164.666, 146.6777
1165.148, 111.0996
1165.630, 109.1016
1166.112, 160.2656
1166.594, 196.2832
1167.076, 189.5781
1167.558, 177.2910
1168.040, 172.8164
1168.523, 176.6621
1169.005, 204.5566
1169.487, 242.9902
1169.969, 244.9512
1170.451, 169.8887
1170.933, 117.0723
1171.415, 141.4160
1171.897, 177.2246
1172.380, 185.5918
1172.862, 172.5195
1173.344, 176.3457
1173.826, 192.0742
1174.308, 195.4395
1174.790, 165.4238
1175.272, 134.3027
1175.754, 105.2012
1176.236, 92.28516
1176.719, 118.1953
1177.201, 179.3789
1177.683, 190.4297
1178.165, 158.2617
1178.647, 140.0859
1179.129, 191.3281
1179.611, 230.5234
1180.093, 202.8398
1180.575, 160.3379
1181.058, 173.1641
1181.540, 237.6660
1182.022, 235.0586
1182.504, 164.6621
1182.986, 105.5137
1183.468, 128.9629
1183.950, 158.4902
1184.432, 143.2051
1184.915, 108.9180
1185.397, 95.97852
1185.879, 105.1680
1186.361, 131.7656
1186.843, 175.9316
1187.325, 193.4121
1187.807, 117.2129
1188.289, 37.81055
1188.771, 23.05664
1189.254, 51.85547
1189.736, 75.06250
1190.218, 91.70508
1190.700, 106.6973
1191.182, 119.1582
1191.664, 132.3398
1192.146, 170.1328
1192.628, 189.3027
1193.110, 129.1074
1193.593, 24.09180
1194.075, 5.136719
1194.557, 80.55664
1195.039, 134.1621
1195.521, 143.9609
1196.003, 138.3711
1196.485, 140.1660
1196.967, 139.4785
1197.450, 116.4551
1197.932, 79.72461
1198.414, 91.62109
1198.896, 159.5684
1199.378, 203.6523
1199.860, 200.8613
1200.342, 177.9551
1200.824, 126.1152
1201.307, 90.87695
1201.789, 137.7285
1202.271, 255.2793
1202.753, 292.4785
1203.235, 242.3730
1203.717, 206.4277
1204.199, 218.0293
1204.681, 239.8770
1205.163, 245.6699
1205.646, 237.3770
1206.128, 211.6074
1206.610, 169.5059
1207.092, 145.0605
1207.574, 138.9590
1208.056, 137.4688
1208.538, 141.1191
1209.020, 133.5801
1209.502, 72.04688
1209.985, 7.746094
1210.467, 14.98438
1210.949, 95.24023
1211.431, 104.5332
1211.913, 37.01172
1212.395, 1.222656
1212.877, 50.52930
1213.359, 107.5605
1213.842, 60.77344
1214.324, 7.371094
1214.806, 14.00000
1215.288, 135.0801
1215.770, 185.9805
1216.252, 165.1289
1216.734, 120.9238
1217.216, 57.52148
1217.698, 11.76953
1218.181, 28.09961
1218.663, 71.83203
1219.145, 103.1055
1219.627, 120.1719
1220.109, 124.6719
1220.591, 116.1504
1221.073, 101.2285
1221.555, 74.39648
1222.037, 55.73828
1222.520, 70.22070
1223.002, 95.96680
1223.484, 107.0527
1223.966, 102.5684
1224.448, 80.80859
1224.930, 42.12695
1225.412, 27.62109
1225.894, 91.14062
1226.377, 146.2344
1226.859, 116.4199
1227.341, 53.09375
1227.823, 18.75586
1228.305, 15.81641
1228.787, 22.41016
1229.269, 38.05469
1229.751, 55.21680
1230.234, 61.49805
1230.716, 76.57617
1231.198, 133.1660
1231.680, 190.0215
1232.162, 194.0879
1232.644, 141.3906
1233.126, 117.5977
1233.608, 120.1582
1234.090, 120.4395
1234.573, 98.99219
1235.055, 74.17578
1235.537, 52.54492
1236.019, 35.56641
1236.501, 27.97461
1236.983, 29.40625
1237.465, 1.283203
1237.947, 48.34961
1238.429, 52.54297
1238.912, 102.2793
1239.394, 219.3809
1239.876, 176.2559
1240.358, 90.25977
1240.840, 75.10156
1241.322, 119.7637
1241.804, 125.2715
1242.286, 94.49023
1242.769, 66.18359
1243.251, 58.22461
1243.733, 59.16406
1244.215, 70.74414
1244.697, 82.85352
1245.179, 87.32422
1245.661, 83.85352
1246.143, 77.38086
1246.625, 67.51172
1247.108, 51.93945
1247.590, 9.164063
1248.072, 14.48828
1248.554, 83.00195
1249.036, 188.2656
1249.518, 192.9414
1250.000, 131.7305
1250.482, 100.7090
1250.964, 97.96680
1251.447, 103.0723
1251.929, 123.3301
1252.411, 127.1855
1252.893, 106.4844
1253.375, 81.50977
1253.857, 76.96875
1254.339, 80.49219
1254.821, 65.55859
1255.304, 36.46094
1255.786, 9.660156
1256.268, 20.78516
1256.750, 27.64453
1257.232, 6.164063
1257.714, 28.89062
1258.196, 75.87109
1258.678, 119.8281
1259.161, 148.8730
1259.643, 158.6562
1260.125, 134.6816
1260.607, 55.29688
1261.089, 6.408203
1261.571, 4.845703
1262.053, 3.591797
1262.535, 27.19141
1263.017, 54.27344
1263.500, 69.49805
1263.982, 79.24805
1264.464, 104.5664
1264.946, 155.7422
1265.428, 167.2852
1265.910, 134.3457
1266.392, 101.8320
1266.874, 114.6855
1267.356, 130.0820
1267.839, 111.4141
1268.321, 74.52539
1268.803, 47.77148
1269.285, 30.83008
1269.767, 33.52539
1270.249, 50.60156
1270.731, 67.60742
1271.213, 80.47656
1271.696, 87.95312
1272.178, 95.28320
1272.660, 96.61914
1273.142, 80.09766
1273.624, 49.07617
1274.106, 30.92383
1274.588, 26.58203
1275.070, 33.62500
1275.552, 63.62695
1276.035, 92.00781
1276.517, 109.1699
1276.999, 120.2734
1277.481, 135.4414
1277.963, 147.8438
1278.445, 116.2598
1278.927, 55.28906
1279.409, 28.42773
1279.891, 118.4961
1280.374, 167.3027
1280.856, 136.5566
1281.338, 90.37109
1281.820, 93.09375
1282.302, 114.0898
1282.784, 83.47852
1283.266, 23.75000
1283.748, 5.599609
1284.230, 91.20117
1284.713, 117.4277
1285.195, 66.56055
1285.677, 16.27734
1286.159, 29.13867
1286.641, 74.19922
1287.123, 130.9043
1287.605, 183.4707
1288.087, 198.1660
1288.570, 160.0078
1289.052, 142.2949
1289.534, 146.3418
1290.016, 155.0332
1290.498, 160.6641
1290.980, 162.3516
1291.462, 155.5410
1291.944, 149.6445
1292.427, 160.2969
1292.909, 187.9141
1293.391, 210.5156
1293.873, 227.5586
1294.355, 209.2578
1294.837, 94.26367
1295.319, 14.68359
1295.801, 71.68750
1296.283, 149.3047
1296.766, 165.6465
1297.248, 130.8281
1297.730, 81.66797
1298.212, 26.99609
1298.694, 3.173828
1299.176, 0.8613280
1299.658, 32.12305
1300.140, 101.0625
1300.622, 128.8320
1301.105, 109.8535
1301.587, 77.80078
1302.069, 0.0000000E+00
##END=



