##NAMES=Hedenbergite
##RRUFFID=R060040
##IDEAL CHEMISTRY=CaFe^2+^Si_2_O_6_
##LOCALITY=Rio Marina, Elba, Italy
##OWNER=RRUFF
##SOURCE=University of Arizona Mineral Museum
##DESCRIPTION=Radial aggregate of green thin bladed crystals
##STATUS=The identification of this mineral has been confirmed by X-ray diffraction and chemical analysis
##URL=rruff.info/R060040
##MEASURED CHEMISTRY=Ca_1.00_(Fe^2+^_0.89_Mg_0.09_Mn_0.02_)_Î£=1_Si_2.00_O_6_
93.97052, 0.0000000E+00
94.45264, 2.440186
94.93475, 4.099121
95.41687, 4.983154
95.89898, 7.194641
96.38110, 10.05951
96.86321, 11.80536
97.34533, 11.52673
97.82745, 7.003418
98.30956, 3.579224
98.79168, 2.905762
99.27380, 2.311768
99.75591, 1.371521
100.2380, 0.2591550
100.7201, 0.2778320
101.2023, 2.2644000E-02
101.6844, 1.328979
102.1665, 1.789368
102.6486, 0.5612180
103.1307, 4.1992001E-02
103.6128, 1.298828
104.0950, 3.097900
104.5771, 5.236694
105.0592, 7.225647
105.5413, 9.209351
106.0234, 11.33771
106.5055, 13.20050
106.9877, 15.20270
107.4698, 19.07922
107.9519, 27.60681
108.4340, 33.98285
108.9161, 35.42181
109.3982, 32.65179
109.8804, 27.56250
110.3625, 20.93518
110.8446, 12.07184
111.3267, 5.615784
111.8088, 2.183777
112.2909, 0.3215330
112.7731, 0.1159060
113.2552, 1.002747
113.7373, 3.034180
114.2194, 5.098267
114.7015, 6.835754
115.1836, 9.371948
115.6658, 13.16272
116.1479, 17.38214
116.6300, 21.28754
117.1121, 24.29230
117.5942, 26.19714
118.0763, 27.77161
118.5584, 29.23962
119.0406, 31.22858
119.5227, 34.07526
120.0048, 37.43103
120.4869, 40.79767
120.9690, 43.59619
121.4511, 45.94928
121.9333, 49.22736
122.4154, 54.27991
122.8975, 59.86304
123.3796, 65.72375
123.8617, 72.11249
124.3438, 78.41821
124.8260, 85.09045
125.3081, 91.35712
125.7902, 96.31006
126.2723, 99.42853
126.7544, 101.2968
127.2365, 103.2726
127.7187, 106.1890
128.2008, 107.6439
128.6829, 107.2121
129.1650, 105.0596
129.6471, 101.4189
130.1292, 96.38177
130.6114, 89.94531
131.0935, 82.14075
131.5756, 70.76843
132.0577, 60.02502
132.5398, 50.97552
133.0219, 43.43402
133.5041, 36.75372
133.9862, 30.35425
134.4683, 24.12006
134.9504, 19.07623
135.4325, 15.26691
135.9146, 12.31250
136.3968, 10.30304
136.8789, 9.131531
137.3610, 8.214539
137.8431, 6.878967
138.3252, 4.946045
138.8073, 3.560120
139.2895, 2.721008
139.7716, 2.471497
140.2537, 3.181335
140.7358, 5.176208
141.2179, 7.189270
141.7000, 7.419617
142.1821, 6.064514
142.6643, 4.388062
143.1464, 2.772766
143.6285, 1.217834
144.1106, 0.3413390
144.5927, 2.109283
145.0748, 3.614838
145.5570, 4.556549
146.0391, 4.916473
146.5212, 4.823334
147.0033, 4.346863
147.4854, 3.508545
147.9675, 2.444641
148.4497, 0.4012150
148.9318, 1.354675
149.4139, 1.902313
149.8960, 1.094666
150.3781, 0.2644350
150.8602, 0.8977970
151.3424, 0.2829590
151.8245, 1.878143
152.3066, 2.779480
152.7887, 3.414001
153.2708, 4.504425
153.7529, 6.347229
154.2351, 8.789581
154.7172, 11.46783
155.1993, 15.10016
155.6814, 18.09320
156.1635, 20.27539
156.6456, 21.84103
157.1278, 22.99530
157.6099, 23.83246
158.0920, 24.36810
158.5741, 24.64246
159.0562, 24.17465
159.5383, 24.06100
160.0205, 24.83356
160.5026, 26.14752
160.9847, 27.17700
161.4668, 27.33728
161.9489, 27.01382
162.4310, 27.79114
162.9131, 30.64951
163.3953, 33.57462
163.8774, 35.27969
164.3595, 35.87271
164.8416, 36.43567
165.3237, 37.60931
165.8058, 39.27878
166.2880, 41.07504
166.7701, 43.14508
167.2522, 45.13614
167.7343, 46.56000
168.2164, 47.29056
168.6985, 47.98035
169.1807, 48.91791
169.6628, 50.07172
170.1449, 51.46606
170.6270, 53.19138
171.1091, 55.23053
171.5912, 57.43472
172.0734, 59.96701
172.5555, 62.28433
173.0376, 64.10193
173.5197, 65.64899
174.0018, 67.22574
174.4839, 68.94940
174.9661, 70.82565
175.4482, 72.95923
175.9303, 76.07187
176.4124, 78.60410
176.8945, 79.81979
177.3766, 80.18927
177.8588, 80.51178
178.3409, 81.34448
178.8230, 82.69287
179.3051, 84.37985
179.7872, 87.21710
180.2693, 89.61566
180.7515, 91.06802
181.2336, 91.66388
181.7157, 91.74429
182.1978, 91.58200
182.6799, 91.17273
183.1620, 90.27411
183.6441, 88.11731
184.1263, 86.24857
184.6084, 85.79312
185.0905, 86.55188
185.5726, 87.21756
186.0547, 86.48053
186.5368, 84.06973
187.0190, 82.59180
187.5011, 82.88586
187.9832, 83.49588
188.4653, 83.26947
188.9474, 82.10800
189.4296, 80.81259
189.9117, 80.31802
190.3938, 80.58771
190.8759, 80.08432
191.3580, 78.06549
191.8401, 75.47632
192.3223, 73.39447
192.8044, 71.98639
193.2865, 70.73386
193.7686, 69.16562
194.2507, 67.35242
194.7328, 65.47803
195.2150, 63.78171
195.6971, 62.02023
196.1792, 59.57968
196.6613, 56.11621
197.1434, 52.63257
197.6255, 50.08569
198.1077, 48.15643
198.5898, 46.03925
199.0719, 42.87958
199.5540, 39.01697
200.0361, 36.08783
200.5182, 34.48212
201.0004, 33.35544
201.4825, 32.37363
201.9646, 31.42694
202.4467, 30.32294
202.9288, 28.93835
203.4109, 27.32043
203.8930, 25.72421
204.3752, 24.13916
204.8573, 22.68961
205.3394, 21.51709
205.8215, 20.56381
206.3036, 19.71188
206.7857, 18.77701
207.2679, 17.67722
207.7500, 16.58057
208.2321, 15.32184
208.7142, 14.17539
209.1963, 13.36945
209.6784, 12.89539
210.1606, 12.49954
210.6427, 12.00195
211.1248, 11.38559
211.6069, 10.93378
212.0890, 10.84171
212.5711, 10.71381
213.0533, 10.29855
213.5354, 9.684509
214.0175, 9.187408
214.4996, 9.106598
214.9817, 9.480896
215.4638, 9.723267
215.9460, 9.738434
216.4281, 9.742767
216.9102, 9.981140
217.3923, 10.37692
217.8744, 10.52951
218.3565, 9.979187
218.8387, 8.578522
219.3208, 7.750458
219.8029, 7.683258
220.2850, 7.950104
220.7671, 8.363007
221.2492, 8.891663
221.7314, 9.545715
222.2135, 10.40915
222.6956, 11.48285
223.1777, 12.12381
223.6598, 12.05634
224.1419, 11.77151
224.6240, 11.43445
225.1062, 11.09515
225.5883, 11.22107
226.0704, 12.54883
226.5525, 14.82056
227.0346, 16.05634
227.5167, 14.99814
227.9989, 13.56934
228.4810, 13.64237
228.9631, 15.33759
229.4452, 17.42484
229.9273, 19.22659
230.4094, 20.72168
230.8916, 21.86273
231.3737, 22.38019
231.8558, 22.67328
232.3379, 23.31610
232.8200, 24.40356
233.3021, 25.18460
233.7843, 24.75439
234.2664, 23.77368
234.7485, 23.27664
235.2306, 23.81790
235.7127, 24.70297
236.1948, 24.89764
236.6770, 24.21436
237.1591, 23.61359
237.6412, 23.94363
238.1233, 24.52209
238.6054, 24.51453
239.0875, 23.45901
239.5697, 22.00586
240.0518, 21.24173
240.5339, 21.36691
241.0160, 21.53290
241.4981, 21.45862
241.9802, 21.24271
242.4624, 20.97830
242.9445, 20.71198
243.4266, 20.36560
243.9087, 19.72968
244.3908, 18.61145
244.8729, 17.74033
245.3550, 17.24365
245.8372, 17.08817
246.3193, 17.42139
246.8014, 18.32629
247.2835, 19.32520
247.7656, 19.55154
248.2477, 18.70441
248.7299, 17.76718
249.2120, 16.79105
249.6941, 15.88010
250.1762, 15.12454
250.6583, 14.54974
251.1404, 14.11148
251.6226, 13.77597
252.1047, 13.71707
252.5868, 13.35843
253.0689, 12.40759
253.5510, 11.35074
254.0331, 10.47430
254.5153, 9.872467
254.9974, 9.515778
255.4795, 9.425140
255.9616, 9.913727
256.4437, 9.950897
256.9258, 9.098022
257.4080, 8.167236
257.8901, 7.773529
258.3722, 7.991608
258.8543, 8.377869
259.3364, 8.323303
259.8185, 7.636017
260.3007, 6.970215
260.7828, 6.141388
261.2649, 5.454010
261.7470, 5.157898
262.2291, 5.240082
262.7112, 5.475189
263.1934, 5.618958
263.6755, 5.677795
264.1576, 5.597260
264.6397, 5.326324
265.1218, 4.986176
265.6039, 4.647217
266.0861, 4.310577
266.5682, 3.932373
267.0503, 3.467010
267.5324, 2.905029
268.0145, 2.322571
268.4966, 1.512390
268.9788, 0.8660580
269.4609, 0.7955020
269.9430, 1.133850
270.4251, 1.246185
270.9072, 0.5353390
271.3893, 1.043518
271.8715, 1.932404
272.3536, 1.761169
272.8357, 1.420959
273.3178, 1.174561
273.7999, 1.059418
274.2820, 1.110596
274.7642, 1.389465
275.2463, 1.858063
275.7284, 2.025970
276.2105, 1.759155
276.6926, 1.429779
277.1747, 1.110077
277.6568, 0.8148190
278.1389, 0.5715330
278.6211, 0.3992610
279.1032, 0.2832340
279.5853, 0.1657100
280.0674, 4.4647001E-02
280.5495, 7.9773001E-02
281.0316, 0.2450260
281.5138, 0.4051210
281.9959, 0.4489750
282.4780, 0.3073730
282.9601, 9.6129999E-02
283.4422, 0.1489560
283.9243, 0.6608280
284.4065, 1.049713
284.8886, 1.165405
285.3707, 1.081390
285.8528, 0.8352360
286.3349, 0.4117740
286.8170, 5.1056001E-02
287.2992, 0.1893920
287.7813, 0.9295960
288.2634, 1.750244
288.7455, 2.717743
289.2276, 3.660492
289.7097, 4.334961
290.1919, 4.681641
290.6740, 4.885406
291.1561, 5.102753
291.6382, 5.300262
292.1203, 5.783417
292.6024, 6.959686
293.0846, 8.232727
293.5667, 8.932678
294.0488, 8.981567
294.5309, 8.900848
295.0130, 9.123627
295.4951, 9.676727
295.9773, 10.40332
296.4594, 11.48154
296.9415, 12.59824
297.4236, 13.42197
297.9057, 13.97336
298.3878, 14.66672
298.8700, 15.84250
299.3521, 17.42343
299.8342, 18.81522
300.3163, 20.01483
300.7984, 21.02499
301.2805, 21.69202
301.7627, 22.11224
302.2448, 22.73950
302.7269, 23.86401
303.2090, 25.33560
303.6911, 26.67737
304.1732, 27.86142
304.6554, 28.99826
305.1375, 30.20422
305.6196, 31.40302
306.1017, 32.39908
306.5838, 33.12051
307.0659, 33.60062
307.5481, 33.85294
308.0302, 33.83423
308.5123, 33.83524
308.9944, 34.13989
309.4765, 34.48901
309.9586, 34.40887
310.4408, 33.75125
310.9229, 32.76236
311.4050, 31.69186
311.8871, 30.52679
312.3692, 29.45364
312.8513, 28.62122
313.3335, 27.84924
313.8156, 26.93954
314.2977, 25.86517
314.7798, 24.61563
315.2619, 23.07663
315.7440, 21.27863
316.2262, 19.73160
316.7083, 18.56955
317.1904, 17.60611
317.6725, 16.77298
318.1546, 16.04141
318.6367, 15.20172
319.1188, 14.00934
319.6010, 12.61560
320.0831, 11.65775
320.5652, 11.47345
321.0473, 11.36911
321.5294, 11.01691
322.0115, 10.44226
322.4937, 9.672699
322.9758, 8.637207
323.4579, 7.524902
323.9400, 6.851654
324.4221, 6.711395
324.9042, 6.694458
325.3864, 6.811829
325.8685, 6.932678
326.3506, 6.735596
326.8327, 6.061737
327.3148, 5.263123
327.7969, 4.888214
328.2791, 4.955048
328.7612, 5.180267
329.2433, 5.777374
329.7254, 6.351532
330.2075, 6.388824
330.6896, 5.800140
331.1718, 5.073608
331.6539, 4.671570
332.1360, 4.623199
332.6181, 4.607635
333.1002, 4.785645
333.5823, 4.863678
334.0645, 4.438568
334.5466, 3.612640
335.0287, 3.071747
335.5108, 3.351746
335.9929, 4.332458
336.4750, 5.068329
336.9572, 5.323486
337.4393, 5.611725
337.9214, 6.332977
338.4035, 7.256531
338.8856, 7.795746
339.3677, 7.642273
339.8499, 7.043182
340.3320, 6.620636
340.8141, 6.365570
341.2962, 6.285797
341.7783, 6.444275
342.2604, 6.707886
342.7426, 7.013031
343.2247, 7.352921
343.7068, 7.537277
344.1889, 7.282043
344.6710, 6.426605
345.1531, 5.599487
345.6353, 4.800919
346.1174, 4.048737
346.5995, 3.225449
347.0816, 2.363464
347.5637, 1.778366
348.0458, 1.884735
348.5280, 2.776077
349.0101, 3.094162
349.4922, 2.299683
349.9743, 1.529907
350.4564, 1.249786
350.9385, 1.383102
351.4207, 1.715515
351.9028, 2.148071
352.3849, 2.632782
352.8670, 2.956070
353.3491, 2.942154
353.8312, 2.960693
354.3134, 2.951080
354.7955, 3.065979
355.2776, 3.509872
355.7597, 4.357819
356.2418, 5.473190
356.7239, 6.622421
357.2061, 7.798080
357.6882, 8.978333
358.1703, 10.32048
358.6524, 11.53224
359.1345, 12.35375
359.6166, 12.85651
360.0987, 13.33856
360.5808, 14.03026
361.0630, 14.93687
361.5451, 15.83511
362.0272, 16.73601
362.5093, 17.64815
362.9914, 18.48000
363.4735, 19.31870
363.9557, 20.32771
364.4378, 21.62502
364.9199, 23.12779
365.4020, 24.45889
365.8841, 25.27892
366.3662, 26.40948
366.8484, 28.23883
367.3305, 30.25394
367.8126, 31.88368
368.2947, 32.96207
368.7768, 33.88129
369.2589, 35.31891
369.7411, 37.58926
370.2232, 39.50687
370.7053, 40.71117
371.1874, 41.84647
371.6695, 43.26593
372.1516, 44.95361
372.6338, 46.70866
373.1159, 48.40837
373.5980, 50.04095
374.0801, 51.32610
374.5622, 52.11951
375.0443, 52.69989
375.5265, 53.31581
376.0086, 53.76669
376.4907, 53.69077
376.9728, 52.84047
377.4549, 51.53148
377.9370, 50.53127
378.4192, 50.08521
378.9013, 49.24426
379.3834, 47.65250
379.8655, 45.62975
380.3476, 43.24557
380.8297, 40.52563
381.3119, 37.87695
381.7940, 35.86650
382.2761, 34.47171
382.7582, 32.73126
383.2403, 30.31952
383.7224, 27.75842
384.2046, 25.30043
384.6867, 22.98438
385.1688, 20.85670
385.6509, 18.97702
386.1330, 17.32214
386.6151, 15.84074
387.0973, 14.55453
387.5794, 13.38295
388.0615, 12.39429
388.5436, 11.45424
389.0257, 10.31839
389.5078, 8.761444
389.9900, 7.324646
390.4721, 6.731995
390.9542, 6.834274
391.4363, 6.407181
391.9184, 4.753586
392.4005, 2.767838
392.8827, 1.716400
393.3648, 1.634293
393.8469, 1.685577
394.3290, 1.551743
394.8111, 1.350845
395.2932, 1.336060
395.7754, 1.566391
396.2575, 1.715805
396.7396, 1.446930
397.2217, 0.7926030
397.7038, 0.2471160
398.1859, 0.2772060
398.6681, 0.5995330
399.1501, 0.5033260
399.6323, 8.1772000E-02
400.1144, 0.3646390
400.5965, 0.7231750
401.0786, 0.9497830
401.5607, 0.8820500
402.0428, 0.3701480
402.5250, 0.1236570
403.0071, 0.6449890
403.4892, 1.052979
403.9713, 1.064392
404.4534, 0.6467590
404.9355, 0.2204740
405.4177, 0.3135830
405.8998, 1.086090
406.3819, 1.572510
406.8640, 1.654861
407.3461, 1.602631
407.8282, 1.511185
408.3104, 1.396790
408.7925, 1.265305
409.2746, 1.125031
409.7567, 0.9616240
410.2388, 0.7100980
410.7209, 0.1718750
411.2031, 0.1884920
411.6852, 0.3121640
412.1673, 0.2579190
412.6494, 1.5701000E-02
413.1315, 0.3889010
413.6136, 0.7991490
414.0958, 1.000580
414.5779, 0.9509740
415.0600, 0.8661040
415.5421, 0.4657290
416.0242, 0.2935330
416.5063, 1.019745
416.9885, 2.167923
417.4706, 2.539551
417.9527, 1.132645
418.4348, 1.385971
418.9169, 2.598862
419.3990, 1.757645
419.8812, 1.259735
420.3633, 2.312378
420.8454, 3.769196
421.3275, 4.585205
421.8096, 4.505508
422.2917, 3.996399
422.7739, 3.380371
423.2560, 2.673798
423.7381, 2.199203
424.2202, 2.042038
424.7023, 2.090103
425.1844, 2.358688
425.6666, 2.765778
426.1487, 3.007706
426.6308, 2.415741
427.1129, 1.830246
427.5950, 2.958206
428.0771, 5.948486
428.5593, 8.219055
429.0414, 8.151962
429.5235, 6.549301
430.0056, 5.359573
430.4877, 4.614059
430.9698, 4.223648
431.4520, 4.309830
431.9341, 4.698990
432.4162, 5.063766
432.8983, 5.327759
433.3804, 5.520493
433.8625, 5.653976
434.3447, 5.715134
434.8268, 5.837845
435.3089, 6.111938
435.7910, 6.375107
436.2731, 6.474976
436.7552, 6.459518
437.2374, 6.550873
437.7195, 6.918625
438.2016, 7.408279
438.6837, 7.422241
439.1658, 6.295334
439.6479, 5.541489
440.1301, 5.288589
440.6122, 5.438385
441.0943, 6.107712
441.5764, 7.213364
442.0585, 8.252747
442.5406, 8.610367
443.0227, 8.177231
443.5049, 7.869034
443.9870, 7.778168
444.4691, 7.721466
444.9512, 7.609528
445.4333, 7.503235
445.9154, 7.530090
446.3976, 7.771820
446.8797, 8.103531
447.3618, 8.197983
447.8439, 7.895294
448.3260, 7.832489
448.8081, 8.452652
449.2903, 9.110214
449.7724, 9.374496
450.2545, 9.233017
450.7366, 8.976944
451.2187, 8.796097
451.7008, 8.679977
452.1830, 8.581604
452.6651, 8.477692
453.1472, 8.447556
453.6293, 8.529068
454.1114, 8.716751
454.5935, 9.087143
455.0757, 9.865509
455.5578, 10.37840
456.0399, 9.791077
456.5220, 8.386703
457.0041, 7.403687
457.4862, 7.273285
457.9684, 7.547684
458.4505, 7.665848
458.9326, 7.623337
459.4147, 7.641815
459.8968, 7.877899
460.3789, 8.074371
460.8611, 8.000702
461.3432, 7.676437
461.8253, 7.280151
462.3074, 6.941376
462.7895, 6.618118
463.2716, 6.084518
463.7538, 4.846954
464.2359, 3.981995
464.7180, 3.876633
465.2001, 4.093338
465.6822, 4.239960
466.1643, 4.213043
466.6465, 4.036865
467.1286, 3.698929
467.6107, 3.151810
468.0928, 2.893616
468.5749, 3.408875
469.0570, 3.715515
469.5392, 3.315964
470.0213, 2.577698
470.5034, 2.034363
470.9855, 1.911606
471.4676, 2.091034
471.9497, 2.532547
472.4319, 3.454697
472.9140, 3.748459
473.3961, 2.486481
473.8782, 1.223160
474.3603, 0.8573610
474.8424, 1.240173
475.3246, 1.716400
475.8067, 2.142273
476.2888, 2.462677
476.7709, 2.214798
477.2530, 1.235596
477.7351, 0.6334080
478.2173, 1.226181
478.6994, 2.381271
479.1815, 3.089645
479.6636, 3.226089
480.1457, 3.212204
480.6278, 3.168442
481.1100, 3.137207
481.5920, 3.193817
482.0742, 3.352417
482.5563, 3.613037
483.0384, 4.059891
483.5205, 4.668472
484.0026, 4.852112
484.4847, 4.063431
484.9669, 3.460098
485.4490, 3.706970
485.9311, 4.434021
486.4132, 4.914932
486.8953, 4.884186
487.3774, 4.683914
487.8596, 4.887375
488.3417, 5.692337
488.8238, 6.373322
489.3059, 6.619659
489.7880, 7.061188
490.2701, 8.384872
490.7523, 10.13875
491.2344, 11.23952
491.7165, 10.94995
492.1986, 9.816650
492.6807, 9.337677
493.1628, 9.685486
493.6450, 10.21411
494.1271, 10.90923
494.6092, 11.65617
495.0913, 12.46092
495.5734, 13.28577
496.0555, 13.93190
496.5377, 14.10840
497.0198, 14.00995
497.5019, 14.14705
497.9840, 14.53212
498.4661, 15.16095
498.9482, 16.30394
499.4304, 17.58781
499.9125, 18.27208
500.3946, 18.10593
500.8767, 17.87106
501.3588, 17.91711
501.8409, 18.16544
502.3231, 18.55525
502.8052, 19.07799
503.2873, 19.46045
503.7694, 19.36238
504.2515, 18.75960
504.7336, 18.63492
505.2158, 19.29712
505.6979, 20.03355
506.1800, 20.54156
506.6621, 20.97609
507.1442, 21.63860
507.6263, 22.62544
508.1085, 23.68454
508.5906, 24.42802
509.0727, 24.80879
509.5548, 25.04265
510.0369, 24.79820
510.5190, 24.73697
511.0012, 25.28363
511.4833, 26.17599
511.9654, 26.90117
512.4475, 27.19374
512.9296, 27.23488
513.4117, 27.30669
513.8939, 27.39630
514.3760, 27.62920
514.8581, 28.16425
515.3402, 28.72186
515.8223, 29.06346
516.3044, 29.21185
516.7866, 29.33253
517.2687, 29.24640
517.7508, 29.31366
518.2329, 30.27351
518.7150, 32.03734
519.1971, 33.30182
519.6793, 33.28001
520.1614, 32.59761
520.6435, 32.78226
521.1256, 34.28853
521.6077, 35.16119
522.0898, 34.69484
522.5720, 33.72701
523.0541, 32.83655
523.5362, 32.13969
524.0183, 31.68155
524.5004, 31.53082
524.9825, 31.60562
525.4647, 31.45441
525.9468, 30.61832
526.4289, 30.24039
526.9110, 30.63921
527.3931, 31.34908
527.8752, 32.17882
528.3574, 32.99327
528.8395, 33.47462
529.3216, 33.23422
529.8037, 32.40044
530.2858, 31.70903
530.7679, 31.08971
531.2501, 30.81706
531.7322, 31.60153
532.2143, 32.47099
532.6964, 32.23830
533.1785, 30.57646
533.6606, 29.11906
534.1428, 29.22144
534.6249, 30.17937
535.1070, 30.41757
535.5891, 29.68390
536.0712, 28.98271
536.5533, 29.17126
537.0355, 30.09274
537.5176, 30.50308
537.9997, 29.75215
538.4818, 29.23907
538.9639, 29.47792
539.4460, 30.13266
539.9282, 30.87262
540.4103, 31.56178
540.8924, 32.05463
541.3745, 32.16850
541.8566, 31.90631
542.3387, 31.96384
542.8209, 32.74066
543.3029, 33.44705
543.7850, 33.89343
544.2672, 34.10161
544.7493, 34.12674
545.2314, 34.00874
545.7135, 33.80307
546.1956, 33.49806
546.6777, 33.11021
547.1599, 32.89391
547.6420, 32.87921
548.1241, 33.01001
548.6062, 33.39568
549.0883, 33.90959
549.5704, 34.27693
550.0526, 34.30902
550.5347, 34.28101
551.0168, 34.35410
551.4989, 34.52519
551.9810, 34.80521
552.4631, 35.20215
552.9453, 35.61362
553.4274, 35.98878
553.9095, 36.32721
554.3916, 36.24451
554.8737, 35.18799
555.3558, 34.44150
555.8380, 34.66106
556.3201, 35.23961
556.8022, 35.52243
557.2843, 35.30220
557.7664, 34.59390
558.2485, 33.16919
558.7307, 30.96770
559.2128, 30.06741
559.6949, 31.79384
560.1770, 32.93256
560.6591, 32.02388
561.1412, 30.16658
561.6234, 28.68257
562.1055, 27.93059
562.5876, 27.33319
563.0697, 26.37169
563.5518, 25.15312
564.0339, 24.05128
564.5161, 23.11958
564.9982, 22.22255
565.4803, 21.20084
565.9624, 20.14198
566.4445, 19.38939
566.9266, 19.26373
567.4088, 18.98709
567.8909, 18.19017
568.3730, 17.14565
568.8551, 16.20763
569.3372, 15.43156
569.8193, 14.57314
570.3015, 13.35872
570.7836, 11.82780
571.2657, 10.85114
571.7478, 10.82828
572.2299, 10.84660
572.7120, 10.85628
573.1942, 10.78421
573.6763, 10.58965
574.1584, 10.25497
574.6405, 9.748611
575.1226, 8.904083
575.6047, 7.846390
576.0869, 7.176941
576.5690, 7.022873
577.0511, 6.711090
577.5332, 5.744522
578.0153, 4.543152
578.4974, 3.789597
578.9796, 3.563690
579.4617, 3.473831
579.9438, 3.444809
580.4259, 3.433090
580.9080, 3.436417
581.3901, 3.427628
581.8723, 3.268875
582.3544, 2.856689
582.8365, 2.261536
583.3186, 1.712143
583.8007, 1.073914
584.2828, 0.7036130
584.7650, 0.8058170
585.2471, 0.9925230
585.7292, 1.008469
586.2113, 0.8744810
586.6934, 0.7709960
587.1755, 0.8558200
587.6577, 0.9575960
588.1398, 0.5678560
588.6219, 0.4362340
589.1040, 1.073837
589.5861, 0.8992000
590.0682, 0.5106660
590.5504, 0.5196990
591.0325, 0.8528900
591.5146, 1.026184
591.9967, 0.7780760
592.4788, 0.4093780
592.9609, 2.8595001E-02
593.4431, 0.2707820
593.9252, 0.1376190
594.4073, 0.5858920
594.8894, 1.463074
595.3715, 1.879471
595.8536, 1.730026
596.3358, 1.583435
596.8179, 1.547089
597.3000, 1.395035
597.7821, 0.8914950
598.2642, 0.2782290
598.7463, 0.1307370
599.2285, 0.2246860
599.7106, 5.9082001E-02
600.1927, 0.4691160
600.6748, 1.333740
601.1569, 1.664612
601.6390, 1.225327
602.1212, 0.6760560
602.6033, 0.3887790
603.0854, 0.2311100
603.5675, 2.4400000E-04
604.0496, 0.3672940
604.5317, 0.6914060
605.0139, 0.9928130
605.4960, 1.147461
605.9781, 0.7484590
606.4602, 0.1489870
606.9423, 0.6464080
607.4244, 5.5999998E-03
607.9066, 1.468567
608.3887, 2.203278
608.8708, 1.574783
609.3529, 1.093140
609.8350, 0.7332000
610.3171, 0.6001590
610.7993, 0.9601440
611.2814, 1.641693
611.7635, 2.093079
612.2456, 1.902451
612.7277, 1.373932
613.2098, 1.137756
613.6920, 1.212311
614.1741, 1.355728
614.6562, 1.547104
615.1383, 1.738235
615.6204, 1.918533
616.1025, 2.074844
616.5847, 2.093124
617.0668, 1.613708
617.5489, 1.321121
618.0310, 1.944839
618.5131, 3.021301
618.9952, 3.533493
619.4774, 3.194473
619.9595, 2.625916
620.4416, 2.570694
620.9237, 3.070190
621.4058, 3.448502
621.8879, 3.591644
622.3701, 3.751282
622.8522, 4.083389
623.3343, 4.398193
623.8164, 4.441391
624.2985, 4.187378
624.7806, 3.938721
625.2628, 3.945572
625.7448, 4.144287
626.2269, 4.410110
626.7090, 4.754333
627.1912, 4.978653
627.6733, 4.923325
628.1554, 4.762329
628.6375, 4.853088
629.1196, 5.245621
629.6017, 5.587418
630.0839, 5.663437
630.5660, 5.817596
631.0481, 6.383041
631.5302, 7.215469
632.0123, 7.967072
632.4944, 8.475845
632.9766, 8.811096
633.4587, 9.053085
633.9408, 9.164383
634.4229, 9.379318
634.9050, 9.721298
635.3871, 10.14574
635.8693, 10.74686
636.3514, 11.37146
636.8335, 11.72733
637.3156, 11.66495
637.7977, 11.69673
638.2798, 12.41881
638.7620, 13.41423
639.2441, 13.72343
639.7262, 13.27400
640.2083, 13.09595
640.6904, 13.92265
641.1725, 15.43733
641.6547, 16.59254
642.1368, 16.95496
642.6189, 17.59023
643.1010, 18.73611
643.5831, 19.93900
644.0652, 20.88803
644.5474, 21.65251
645.0295, 22.44844
645.5116, 23.36253
645.9937, 24.45886
646.4758, 25.92474
646.9579, 27.74097
647.4401, 29.28561
647.9222, 30.25456
648.4043, 31.38397
648.8864, 33.41988
649.3685, 36.07985
649.8506, 38.41769
650.3328, 40.28506
650.8149, 41.96262
651.2970, 43.16478
651.7791, 44.41327
652.2612, 46.38586
652.7433, 49.07407
653.2255, 51.92134
653.7076, 54.51091
654.1897, 56.99435
654.6718, 60.01389
655.1539, 63.84563
655.6360, 67.56754
656.1182, 70.76265
656.6003, 74.07521
657.0824, 77.99419
657.5645, 82.29686
658.0466, 86.36115
658.5287, 90.08810
659.0109, 93.28801
659.4930, 95.70267
659.9751, 97.47336
660.4572, 99.06967
660.9393, 100.5946
661.4214, 101.6479
661.9036, 101.9415
662.3857, 101.4431
662.8678, 99.92854
663.3499, 96.77739
663.8320, 93.41386
664.3141, 90.06007
664.7963, 86.36597
665.2784, 81.93372
665.7605, 76.92500
666.2426, 72.02570
666.7247, 67.68022
667.2068, 63.59648
667.6890, 59.07509
668.1711, 54.14351
668.6532, 49.57832
669.1353, 45.52025
669.6174, 41.95627
670.0995, 39.00272
670.5817, 36.64633
671.0638, 34.54593
671.5459, 32.89687
672.0280, 31.21985
672.5101, 29.18146
672.9922, 27.13048
673.4744, 25.49149
673.9565, 24.30298
674.4386, 23.29187
674.9207, 22.26343
675.4028, 21.23199
675.8849, 20.15506
676.3671, 19.01161
676.8492, 18.00368
677.3313, 17.21759
677.8134, 16.51437
678.2955, 15.78354
678.7776, 15.05598
679.2598, 14.41751
679.7419, 13.86276
680.2240, 13.41692
680.7061, 13.14500
681.1882, 12.95425
681.6703, 12.75226
682.1525, 12.52568
682.6346, 12.13110
683.1167, 11.39874
683.5988, 10.46597
684.0809, 10.05919
684.5630, 10.56714
685.0452, 10.87015
685.5273, 10.73016
686.0094, 10.32349
686.4915, 9.593155
686.9736, 8.684586
687.4557, 7.991074
687.9379, 7.728516
688.4200, 7.609070
688.9021, 7.273560
689.3842, 6.903900
689.8663, 7.113861
690.3484, 7.989731
690.8306, 8.570633
691.3127, 7.997147
691.7948, 6.602707
692.2769, 5.978058
692.7590, 6.850006
693.2411, 7.320663
693.7233, 7.022644
694.2054, 6.581970
694.6875, 6.380737
695.1696, 6.353928
695.6517, 6.243576
696.1339, 5.911484
696.6160, 5.539627
697.0981, 5.349136
697.5802, 5.289200
698.0623, 5.174301
698.5444, 4.976227
699.0266, 4.747498
699.5087, 4.527756
699.9908, 4.312408
700.4729, 4.089752
700.9550, 3.818146
701.4371, 3.603729
701.9193, 3.477478
702.4014, 3.377365
702.8835, 3.288467
703.3656, 3.191650
703.8477, 3.040680
704.3298, 2.809570
704.8120, 2.591812
705.2941, 2.496643
705.7762, 2.516281
706.2583, 2.644913
706.7404, 2.905457
707.2225, 3.106583
707.7046, 3.109390
708.1867, 2.999908
708.6688, 3.026642
709.1509, 3.356506
709.6331, 3.380600
710.1152, 2.803970
710.5973, 2.162476
711.0794, 1.681503
711.5615, 1.388031
712.0436, 1.372711
712.5258, 1.654755
713.0079, 1.863647
713.4900, 1.347733
713.9721, 0.3221740
714.4542, 0.1254730
714.9363, 0.9555970
715.4185, 1.581375
715.9006, 1.345779
716.3827, 0.6970520
716.8648, 0.3513340
717.3469, 0.3173070
717.8290, 0.4807430
718.3112, 1.171494
718.7933, 1.696625
719.2754, 1.627472
719.7575, 1.210175
720.2396, 0.7391970
720.7217, 0.3276670
721.2039, 7.4676998E-02
721.6860, 0.1499020
722.1681, 0.4465640
722.6502, 0.5093230
723.1323, 0.3020630
723.6144, 0.1760860
724.0966, 0.2914580
724.5787, 0.4596410
725.0608, 0.4410400
725.5429, 0.2407840
726.0250, 0.1130980
726.5071, 0.2323610
726.9893, 0.2345430
727.4714, 0.1332860
727.9535, 0.6146850
728.4356, 0.9735720
728.9177, 1.144638
729.3998, 1.090576
729.8820, 0.7388310
730.3641, 0.2280430
730.8462, 0.1609800
731.3283, 0.4286040
731.8104, 0.4691010
732.2925, 0.1343230
732.7747, 0.1294250
733.2568, 0.1617430
733.7389, 0.8536530
734.2210, 1.128098
734.7031, 0.7205200
735.1852, 0.3051610
735.6674, 1.6647000E-02
736.1495, 0.2696690
736.6316, 0.5052190
737.1137, 0.6919860
737.5958, 0.7464600
738.0779, 0.6270290
738.5601, 0.3649140
739.0422, 9.6892998E-02
739.5243, 0.7125850
740.0064, 1.046524
740.4885, 1.065323
740.9706, 0.7511600
741.4528, 0.1461030
741.9349, 1.211838
742.4170, 1.436417
742.8991, 0.5228730
743.3812, 0.1235660
743.8633, 0.2691800
744.3455, 0.2512660
744.8276, 0.1309360
745.3097, 9.9950004E-03
745.7918, 2.0431999E-02
746.2739, 0.1967320
746.7560, 0.4667970
747.2382, 0.9232940
747.7203, 1.392471
748.2024, 1.171738
748.6845, 0.2376100
749.1666, 0.3981320
749.6487, 0.3732910
750.1309, 2.0187000E-02
750.6130, 0.5209660
751.0951, 1.141571
751.5772, 1.533478
752.0593, 1.604111
752.5414, 1.582642
753.0236, 1.525620
753.5057, 1.389740
753.9878, 1.068054
754.4699, 0.6139070
754.9520, 0.2168880
755.4341, 5.4076999E-02
755.9163, 0.1406250
756.3984, 0.2180020
756.8805, 0.8648990
757.3626, 1.021118
757.8447, 0.5314030
758.3268, 2.7740000E-02
758.8090, 5.2811000E-02
759.2911, 0.2003940
759.7732, 0.4934690
760.2553, 0.9274900
760.7374, 1.222183
761.2195, 1.367523
761.7017, 1.400452
762.1838, 1.285629
762.6659, 1.091583
763.1480, 0.9172060
763.6301, 0.7909850
764.1122, 0.6703340
764.5944, 0.5275420
765.0765, 0.3682560
765.5586, 0.1256100
766.0407, 0.1521450
766.5228, 0.1770630
767.0049, 0.1714780
767.4871, 0.6800840
767.9692, 1.102081
768.4513, 1.445938
768.9334, 1.467102
769.4155, 0.7586360
769.8976, 0.3922580
770.3798, 0.9511570
770.8619, 1.646423
771.3440, 1.784393
771.8261, 1.451141
772.3082, 1.301117
772.7903, 1.769455
773.2725, 2.247986
773.7546, 2.297516
774.2367, 2.101273
774.7188, 1.885895
775.2009, 1.714691
775.6830, 1.681961
776.1652, 1.872635
776.6473, 2.101913
777.1294, 1.780518
777.6115, 0.7120210
778.0936, 0.4996490
778.5757, 1.782394
779.0579, 2.923370
779.5400, 2.978821
780.0221, 2.383759
780.5042, 1.758743
780.9863, 1.031448
781.4684, 0.6910100
781.9506, 1.172791
782.4327, 1.772446
782.9148, 2.053848
783.3969, 2.131439
783.8790, 2.282684
784.3611, 2.564392
784.8433, 2.706482
785.3254, 2.384857
785.8075, 1.745148
786.2896, 1.201859
786.7717, 0.7660520
787.2538, 0.6810300
787.7360, 1.112213
788.2181, 1.676941
788.7002, 2.051636
789.1823, 2.216751
789.6644, 2.152573
790.1465, 1.423950
790.6286, 1.085968
791.1107, 1.655045
791.5928, 2.272964
792.0750, 2.323410
792.5571, 2.005630
793.0392, 1.834183
793.5213, 1.997559
794.0034, 2.215851
794.4855, 2.244156
794.9677, 2.167694
795.4498, 2.185287
795.9319, 2.287872
796.4140, 2.278137
796.8961, 2.075485
797.3782, 1.735062
797.8604, 1.329666
798.3425, 0.8436130
798.8246, 0.6316070
799.3067, 0.8415530
799.7888, 0.9726260
800.2709, 0.9256900
800.7531, 0.9093020
801.2352, 1.027161
801.7173, 1.218781
802.1994, 1.316544
802.6815, 1.205566
803.1636, 1.096176
803.6458, 1.080811
804.1279, 1.141525
804.6100, 1.202240
805.0921, 1.310928
805.5742, 1.752563
806.0563, 2.712891
806.5385, 3.616379
807.0206, 3.277161
807.5027, 1.844727
807.9848, 1.211136
808.4669, 1.553833
808.9490, 2.104935
809.4312, 2.641708
809.9133, 3.054749
810.3954, 3.153793
810.8775, 2.887115
811.3596, 2.620132
811.8417, 2.194519
812.3239, 1.970520
812.8060, 2.214890
813.2881, 2.583191
813.7702, 2.738205
814.2523, 2.696762
814.7344, 2.687820
815.2166, 2.840851
815.6987, 3.039993
816.1808, 3.229385
816.6629, 3.354767
817.1450, 3.215698
817.6271, 2.832138
818.1093, 2.584244
818.5914, 2.704269
819.0735, 2.986298
819.5556, 3.005325
820.0377, 2.690140
820.5198, 2.551270
821.0020, 2.608093
821.4841, 2.805435
821.9662, 3.341263
822.4483, 3.851028
822.9304, 3.847153
823.4125, 3.349091
823.8947, 3.011108
824.3768, 3.124695
824.8589, 3.238754
825.3410, 3.126831
825.8231, 2.928589
826.3052, 2.817780
826.7874, 2.785599
827.2695, 2.716354
827.7516, 2.552689
828.2337, 2.286621
828.7158, 1.760803
829.1979, 1.107620
829.6801, 0.9085540
830.1622, 1.215714
830.6443, 1.829849
831.1264, 2.785675
831.6085, 3.576599
832.0906, 3.224869
832.5728, 1.432037
833.0549, 0.6973110
833.5370, 1.948334
834.0191, 2.933975
834.5012, 3.086700
834.9833, 2.845047
835.4655, 2.371155
835.9476, 1.789169
836.4297, 1.548981
836.9118, 2.043381
837.3939, 2.497482
837.8760, 2.291306
838.3582, 1.952042
838.8403, 2.239685
839.3224, 2.989761
839.8045, 3.460373
840.2866, 3.301270
840.7687, 2.826813
841.2509, 2.367355
841.7330, 1.951599
842.2151, 1.747757
842.6972, 1.760376
843.1793, 1.990265
843.6614, 2.485321
844.1436, 3.064911
844.6257, 3.531677
845.1078, 3.886169
845.5899, 4.169312
846.0720, 4.339767
846.5541, 4.491425
847.0363, 4.586990
847.5184, 4.707626
848.0005, 4.816177
848.4826, 5.004715
848.9647, 5.524643
849.4468, 6.540344
849.9290, 7.434631
850.4111, 7.803726
850.8932, 7.950089
851.3753, 8.103088
851.8574, 8.308868
852.3395, 8.639679
852.8217, 9.104202
853.3038, 9.605392
853.7859, 10.10477
854.2680, 10.51341
854.7501, 10.47716
855.2322, 9.996933
855.7144, 9.553436
856.1965, 9.245392
856.6786, 8.987885
857.1607, 8.763245
857.6428, 8.510666
858.1249, 8.012833
858.6071, 7.057693
859.0892, 6.318512
859.5713, 5.728485
860.0534, 5.422913
860.5355, 5.712234
861.0176, 6.160782
861.4998, 6.235413
861.9819, 5.885986
862.4640, 5.470932
862.9461, 5.179611
863.4282, 4.816238
863.9103, 4.124420
864.3925, 3.344315
864.8746, 2.841171
865.3567, 2.614807
865.8388, 2.402512
866.3209, 2.034363
866.8030, 1.737808
867.2852, 1.971619
867.7673, 2.613647
868.2494, 3.033035
868.7315, 3.191696
869.2136, 3.133820
869.6957, 2.838287
870.1779, 2.465149
870.6600, 2.222137
871.1421, 2.108765
871.6242, 2.073120
872.1063, 2.235794
872.5884, 2.263077
873.0705, 1.852692
873.5526, 1.522980
874.0347, 1.702911
874.5168, 2.189148
874.9990, 2.480469
875.4811, 2.478119
875.9632, 2.331955
876.4453, 1.946198
876.9274, 1.578125
877.4095, 1.437057
877.8917, 1.442993
878.3738, 1.445892
878.8559, 1.410019
879.3380, 1.389801
879.8201, 1.425385
880.3022, 1.504059
880.7844, 1.635422
881.2665, 1.802689
881.7486, 1.860413
882.2307, 1.794434
882.7128, 1.790298
883.1949, 1.963547
883.6771, 2.258865
884.1592, 2.654846
884.6413, 3.218430
885.1234, 3.305374
885.6055, 2.679352
886.0876, 2.123245
886.5698, 1.907394
887.0519, 1.894501
887.5340, 1.898544
888.0161, 1.922729
888.4982, 2.220139
888.9803, 3.249451
889.4625, 3.940414
889.9446, 3.933044
890.4267, 3.746780
890.9088, 3.683853
891.3909, 3.720245
891.8730, 3.716019
892.3552, 3.621658
892.8373, 3.624908
893.3194, 4.051910
893.8015, 4.472046
894.2836, 4.335678
894.7657, 3.858734
895.2479, 3.463104
895.7300, 3.265945
896.2121, 3.264191
896.6942, 3.475098
897.1763, 3.810074
897.6584, 4.115677
898.1406, 4.383408
898.6227, 4.640808
899.1048, 4.915253
899.5869, 4.933289
900.0690, 4.486267
900.5511, 3.920609
901.0333, 3.792648
901.5154, 4.138046
901.9975, 4.295181
902.4796, 4.034103
902.9617, 4.032486
903.4438, 4.666748
903.9260, 5.354858
904.4081, 5.719864
904.8902, 5.833496
905.3723, 5.875122
905.8544, 5.862000
906.3365, 5.782532
906.8187, 5.609299
907.3008, 5.395142
907.7829, 5.058136
908.2650, 4.760788
908.7471, 4.676071
909.2292, 4.852127
909.7114, 5.326706
910.1935, 6.259140
910.6756, 7.277008
911.1577, 8.159622
911.6398, 8.794861
912.1219, 8.832443
912.6041, 8.371735
913.0862, 7.948685
913.5683, 7.817032
914.0504, 7.897919
914.5325, 8.208435
915.0146, 8.646973
915.4968, 8.507431
915.9789, 7.761932
916.4610, 7.291824
916.9431, 7.337845
917.4252, 7.614670
917.9073, 7.921021
918.3895, 8.241180
918.8716, 8.544739
919.3537, 8.983414
919.8358, 8.979706
920.3179, 7.904404
920.8000, 7.289322
921.2822, 8.366516
921.7643, 9.796234
922.2464, 10.05542
922.7285, 9.165222
923.2106, 8.288040
923.6927, 7.363647
924.1749, 6.766357
924.6570, 6.740540
925.1391, 6.961044
925.6212, 7.348434
926.1033, 7.734436
926.5854, 7.811996
927.0676, 7.485687
927.5497, 7.096939
928.0318, 6.815094
928.5139, 6.632446
928.9960, 6.719788
929.4781, 6.835007
929.9603, 6.380508
930.4424, 5.383896
930.9245, 4.573181
931.4066, 4.436630
931.8887, 4.574890
932.3708, 4.351303
932.8530, 3.860031
933.3351, 3.470612
933.8172, 3.203995
934.2993, 3.060150
934.7814, 3.047607
935.2635, 3.100815
935.7457, 3.189117
936.2278, 3.255310
936.7099, 2.917252
937.1920, 2.056992
937.6741, 1.273987
938.1563, 0.5485690
938.6384, 0.1077270
939.1205, 0.1940610
939.6026, 0.5439910
940.0847, 0.7189940
940.5668, 0.7283630
941.0490, 0.5098270
941.5311, 0.2609560
942.0132, 0.8073580
942.4953, 0.8498540
942.9774, 0.7393490
943.4595, 0.6415250
943.9417, 0.6102910
944.4238, 0.7975920
944.9059, 1.366852
945.3880, 1.637207
945.8701, 1.052872
946.3522, 0.4269710
946.8344, 0.2402500
947.3165, 0.3783570
947.7986, 0.7874300
948.2807, 1.349487
948.7628, 1.700729
949.2449, 1.610687
949.7271, 1.336655
950.2092, 1.047958
950.6913, 0.7786560
951.1734, 0.5923160
951.6555, 0.4736480
952.1376, 0.3525850
952.6198, 0.2084350
953.1019, 9.7870000E-02
953.5840, 8.8790998E-02
954.0661, 0.1354370
954.5482, 0.1365050
955.0303, 9.2941001E-02
955.5124, 4.8492000E-02
955.9945, 0.2937620
956.4766, 0.2841800
956.9587, 0.2196040
957.4409, 0.8223270
957.9230, 0.8592680
958.4051, 0.3431240
958.8872, 5.2643001E-02
959.3693, 0.3235170
959.8514, 0.4842220
960.3336, 0.4949190
960.8157, 0.4985050
961.2978, 0.6300050
961.7799, 0.8150330
962.2620, 0.8268430
962.7441, 0.5534820
963.2263, 0.4558410
963.7084, 0.7093960
964.1905, 0.9025730
964.6726, 0.9484560
965.1547, 0.8747710
965.6368, 0.5708920
966.1190, 0.1427760
966.6011, 7.8064002E-02
967.0832, 0.7356720
967.5653, 1.147522
968.0474, 0.7435910
968.5295, 0.4337160
969.0117, 0.8928680
969.4938, 1.674561
969.9759, 2.221802
970.4580, 2.445297
970.9401, 2.435104
971.4222, 2.039612
971.9044, 1.730621
972.3865, 1.759308
972.8686, 2.061768
973.3507, 2.880493
973.8328, 3.843369
974.3149, 4.077621
974.7971, 3.381348
975.2792, 2.571243
975.7613, 2.230225
976.2434, 2.198975
976.7255, 2.416306
977.2076, 2.729935
977.6898, 2.753662
978.1719, 2.510544
978.6540, 2.409943
979.1361, 2.644257
979.6182, 2.827347
980.1003, 2.359421
980.5825, 1.495621
981.0646, 1.135025
981.5467, 1.222565
982.0288, 1.309586
982.5109, 1.308029
982.9930, 1.336197
983.4752, 1.480774
983.9573, 1.653992
984.4394, 1.662323
984.9215, 1.503967
985.4036, 1.517654
985.8857, 1.762085
986.3679, 1.763123
986.8500, 1.264282
987.3321, 0.9308930
987.8142, 1.369446
988.2963, 2.325943
988.7784, 3.016876
989.2606, 3.417160
989.7427, 3.610382
990.2248, 3.455460
990.7069, 3.357986
991.1890, 3.379486
991.6711, 3.581421
992.1533, 4.101120
992.6354, 4.873459
993.1175, 5.502991
993.5996, 5.867676
994.0817, 6.308823
994.5638, 7.027740
995.0460, 7.592331
995.5281, 7.472870
996.0102, 7.366730
996.4923, 8.172760
996.9744, 9.793564
997.4565, 11.12604
997.9387, 11.79518
998.4208, 12.42093
998.9029, 13.00836
999.3850, 13.71982
999.8671, 14.61154
1000.349, 15.76364
1000.831, 17.31886
1001.313, 19.24641
1001.796, 21.16678
1002.278, 22.90912
1002.760, 24.56859
1003.242, 26.10626
1003.724, 27.75871
1004.206, 29.65388
1004.688, 31.80437
1005.170, 34.26166
1005.653, 37.01898
1006.135, 39.98055
1006.617, 43.15115
1007.099, 46.50922
1007.581, 49.95609
1008.063, 53.59932
1008.545, 57.61284
1009.027, 61.94847
1009.509, 66.49057
1009.992, 71.16609
1010.474, 75.87788
1010.956, 80.56926
1011.438, 85.15558
1011.920, 89.79651
1012.402, 94.14354
1012.884, 97.64148
1013.366, 100.0729
1013.849, 100.9315
1014.331, 99.99342
1014.813, 97.49092
1015.295, 93.45499
1015.777, 88.27937
1016.259, 82.78055
1016.741, 76.96173
1017.223, 70.77823
1017.705, 64.31218
1018.188, 58.20955
1018.670, 52.80380
1019.152, 47.98215
1019.634, 43.57687
1020.116, 39.63071
1020.598, 36.30656
1021.080, 33.60579
1021.562, 31.25546
1022.044, 29.20416
1022.527, 27.56465
1023.009, 26.41551
1023.491, 25.64510
1023.973, 25.13608
1024.455, 24.85855
1024.937, 24.33609
1025.419, 23.56075
1025.901, 22.54868
1026.384, 21.18004
1026.866, 20.13322
1027.348, 19.88570
1027.830, 20.09787
1028.312, 20.15906
1028.794, 20.06267
1029.276, 19.98695
1029.758, 19.95894
1030.240, 19.83319
1030.723, 19.49550
1031.205, 19.26033
1031.687, 19.34189
1032.169, 19.65599
1032.651, 20.08412
1033.133, 20.68622
1033.615, 20.84259
1034.097, 20.15488
1034.579, 19.92598
1035.062, 20.78815
1035.544, 21.56239
1036.026, 21.33536
1036.508, 20.56970
1036.990, 20.24431
1037.472, 20.44827
1037.954, 20.59090
1038.436, 20.69263
1038.919, 20.69675
1039.401, 20.51463
1039.883, 20.32066
1040.365, 20.33470
1040.847, 20.38289
1041.329, 20.00978
1041.811, 19.04385
1042.293, 18.56697
1042.776, 19.19334
1043.258, 19.47475
1043.740, 18.82707
1044.222, 18.07506
1044.704, 17.73056
1045.186, 17.66721
1045.668, 17.65141
1046.150, 17.68726
1046.632, 17.63625
1047.115, 17.42645
1047.597, 17.20650
1048.079, 17.13156
1048.561, 16.94145
1049.043, 16.31258
1049.525, 15.49313
1050.007, 14.96053
1050.489, 14.79512
1050.971, 14.62027
1051.454, 14.33459
1051.936, 14.07228
1052.418, 13.99677
1052.900, 13.83737
1053.382, 13.30310
1053.864, 12.58054
1054.346, 11.99907
1054.828, 11.60326
1055.311, 11.34300
1055.793, 11.48355
1056.275, 11.38039
1056.757, 10.42851
1057.239, 9.526596
1057.721, 9.579575
1058.203, 10.06955
1058.685, 9.986298
1059.167, 9.186188
1059.650, 8.483337
1060.132, 8.113953
1060.614, 7.925720
1061.096, 8.069580
1061.578, 8.166229
1062.060, 7.725677
1062.542, 7.126541
1063.024, 7.154160
1063.506, 7.858856
1063.989, 8.203285
1064.471, 7.383423
1064.953, 6.742737
1065.435, 7.102844
1065.917, 7.583267
1066.399, 7.520050
1066.881, 7.115723
1067.363, 6.653076
1067.846, 6.227547
1068.328, 6.072220
1068.810, 6.470383
1069.292, 6.812515
1069.774, 6.909508
1070.256, 6.799881
1070.738, 6.301025
1071.220, 5.698189
1071.703, 5.364349
1072.185, 5.355408
1072.667, 5.548988
1073.149, 6.097679
1073.631, 6.387329
1074.113, 5.661850
1074.595, 5.065430
1075.077, 5.791809
1075.559, 6.927582
1076.042, 7.219521
1076.524, 6.646347
1077.006, 5.960678
1077.488, 5.365547
1077.970, 4.850960
1078.452, 3.971931
1078.934, 3.655472
1079.416, 5.355347
1079.898, 7.426308
1080.380, 7.696861
1080.863, 6.408394
1081.345, 5.256126
1081.827, 4.789574
1082.309, 4.553329
1082.791, 4.388947
1083.273, 4.330627
1083.755, 4.656113
1084.237, 4.950928
1084.720, 4.621918
1085.202, 3.862427
1085.684, 3.361694
1086.166, 3.340996
1086.648, 3.435608
1087.130, 3.691093
1087.612, 3.778107
1088.094, 3.263580
1088.577, 2.673607
1089.059, 2.598343
1089.541, 2.822952
1090.023, 2.819221
1090.505, 2.479584
1090.987, 2.308098
1091.469, 2.513329
1091.951, 2.769836
1092.433, 3.195831
1092.916, 3.418892
1093.398, 2.940361
1093.880, 2.160393
1094.362, 1.723106
1094.844, 1.702171
1095.326, 1.790138
1095.808, 1.873291
1096.290, 2.061302
1096.772, 2.497101
1097.255, 2.959358
1097.737, 3.405556
1098.219, 3.742531
1098.701, 3.857666
1099.183, 3.738945
1099.665, 3.464989
1100.147, 2.957466
1100.629, 2.513939
1101.112, 2.232231
1101.594, 2.007767
1102.076, 1.711357
1102.558, 1.506981
1103.040, 1.775856
1103.522, 2.293312
1104.004, 2.155220
1104.486, 0.8818820
1104.969, 7.8971997E-02
1105.451, 0.2814180
1105.933, 0.6755220
1106.415, 1.264839
1106.897, 1.671501
1107.379, 1.397011
1107.861, 0.7527620
1108.343, 0.5357440
1108.825, 0.8886570
1109.307, 1.181519
1109.790, 1.282433
1110.272, 1.426682
1110.754, 1.797043
1111.236, 2.082596
1111.718, 1.985748
1112.200, 1.735695
1112.682, 1.770088
1113.164, 2.121902
1113.647, 2.200264
1114.129, 1.835396
1114.611, 1.462219
1115.093, 0.9510880
1115.575, 0.6714170
1116.057, 1.000961
1116.539, 1.428619
1117.021, 1.283531
1117.504, 0.6764370
1117.986, 0.4429700
1118.468, 0.8367540
1118.950, 0.9894030
1119.432, 0.7169950
1119.914, 0.5499880
1120.396, 0.7046280
1120.878, 0.9457930
1121.360, 1.071625
1121.843, 1.123062
1122.325, 1.248985
1122.807, 1.507774
1123.289, 1.455948
1123.771, 0.9604640
1124.253, 0.6150590
1124.735, 0.5894780
1125.217, 0.6213300
1125.699, 0.5730360
1126.182, 0.4089360
1126.664, 2.0096000E-02
1127.146, 0.5647960
1127.628, 0.8039470
1128.110, 0.6680600
1128.592, 0.4138720
1129.074, 5.4435998E-02
1129.556, 0.2638930
1130.039, 0.4730220
1130.521, 0.6304550
1131.003, 0.8178250
1131.485, 0.9734040
1131.967, 0.8095780
1132.449, 0.3562320
1132.931, 0.1902240
1133.413, 0.3328860
1133.896, 0.3783570
1134.378, 0.2022170
1134.860, 7.0770003E-02
1135.342, 0.2097320
1135.824, 0.4127880
1136.306, 0.2739790
1136.788, 0.1161350
1137.270, 0.5122220
1137.752, 0.8470610
1138.234, 0.7049790
1138.717, 0.1000750
1139.199, 0.2815250
1139.681, 8.7967001E-02
1140.163, 0.2210010
1140.645, 3.5163999E-02
1141.127, 0.2852940
1141.609, 9.1651998E-02
1142.091, 0.7811510
1142.574, 0.8345490
1143.056, 0.3698960
1143.538, 0.1276860
1144.020, 0.3286440
1144.502, 0.6677250
1144.984, 1.026817
1145.466, 1.202896
1145.948, 0.8848650
1146.431, 0.3421940
1146.913, 0.3400340
1147.395, 0.8684080
1147.877, 0.5212940
1148.359, 0.5286560
1148.841, 1.101898
1149.323, 0.6385420
1149.805, 5.7425998E-02
1150.287, 0.1734700
1150.770, 0.1887280
1151.252, 7.7248000E-02
1151.734, 0.3747180
1152.216, 0.4650800
1152.698, 0.3569260
1153.180, 0.1186750
1153.662, 0.2372970
1154.144, 0.6293870
1154.626, 1.302612
1155.109, 1.622704
1155.591, 0.9908220
1156.073, 0.3754730
1156.555, 0.4417570
1157.037, 0.8365940
1157.519, 1.104675
1158.001, 1.227806
1158.483, 1.332985
1158.966, 1.503029
1159.448, 1.503624
1159.930, 1.047493
1160.412, 0.7977600
1160.894, 1.053444
1161.376, 1.435265
1161.858, 1.738625
1162.340, 1.927353
1162.822, 1.890335
1163.305, 1.592880
1163.787, 1.433884
1164.269, 1.412323
1164.751, 1.568489
1165.233, 2.013054
1165.715, 2.315689
1166.197, 2.235519
1166.679, 2.024818
1167.161, 1.988983
1167.644, 2.064713
1168.126, 1.959282
1168.608, 1.662796
1169.090, 1.522614
1169.572, 1.559746
1170.054, 1.468086
1170.536, 1.156342
1171.018, 1.130211
1171.500, 1.782150
1171.983, 2.601257
1172.465, 2.714630
1172.947, 2.346985
1173.429, 2.250069
1173.911, 2.344887
1174.393, 2.335220
1174.875, 2.191879
1175.357, 1.921944
1175.840, 1.557228
1176.322, 1.492142
1176.804, 2.231781
1177.286, 3.024757
1177.768, 2.747322
1178.250, 2.067314
1178.732, 1.943871
1179.214, 2.194862
1179.697, 2.328903
1180.179, 2.303375
1180.661, 2.413498
1181.143, 2.817307
1181.625, 3.085442
1182.107, 2.800377
1182.589, 2.485092
1183.071, 2.476929
1183.553, 2.593819
1184.036, 2.697052
1184.518, 2.770508
1185.000, 2.778717
1185.482, 2.733871
1185.964, 2.769661
1186.446, 3.119080
1186.928, 3.234436
1187.410, 2.755547
1187.892, 2.334946
1188.375, 2.318871
1188.857, 2.419197
1189.339, 2.337585
1189.821, 2.208321
1190.303, 2.470360
1190.785, 3.269226
1191.267, 3.576591
1191.749, 3.180916
1192.232, 2.867058
1192.714, 2.736580
1193.196, 2.795158
1193.678, 3.080856
1194.160, 3.424805
1194.642, 3.679039
1195.124, 3.824913
1195.606, 3.822159
1196.089, 3.705406
1196.571, 3.629677
1197.053, 3.578316
1197.535, 3.568718
1198.017, 3.589455
1198.499, 3.651840
1198.981, 3.748619
1199.463, 3.774353
1199.945, 3.553818
1200.427, 3.235207
1200.910, 3.010216
1201.392, 2.897636
1201.874, 3.029472
1202.356, 3.292107
1202.838, 3.304230
1203.320, 3.018227
1203.802, 2.872391
1204.284, 3.212418
1204.767, 3.491074
1205.249, 2.973427
1205.731, 2.481911
1206.213, 2.872902
1206.695, 3.501961
1207.177, 3.654716
1207.659, 3.387978
1208.141, 3.021767
1208.624, 2.603416
1209.106, 2.162392
1209.588, 1.432983
1210.070, 1.108116
1210.552, 1.717613
1211.034, 2.334076
1211.516, 2.593719
1211.998, 2.539642
1212.480, 2.012878
1212.963, 1.242531
1213.445, 1.167313
1213.927, 1.966660
1214.409, 2.531982
1214.891, 2.849312
1215.373, 3.007034
1215.855, 3.030014
1216.337, 2.802284
1216.819, 2.209457
1217.302, 1.632622
1217.784, 1.562111
1218.266, 1.832832
1218.748, 1.960350
1219.230, 1.969513
1219.712, 1.965630
1220.194, 1.959274
1220.676, 2.008873
1221.159, 2.092873
1221.641, 1.954544
1222.123, 1.444824
1222.605, 0.9786530
1223.087, 1.018089
1223.569, 1.266586
1224.051, 1.447105
1224.533, 1.579140
1225.016, 1.665955
1225.498, 1.733650
1225.980, 1.850540
1226.462, 2.002464
1226.944, 2.049255
1227.426, 1.888031
1227.908, 1.784454
1228.390, 1.810341
1228.872, 1.933952
1229.354, 2.344856
1229.837, 2.614075
1230.319, 2.261223
1230.801, 1.598953
1231.283, 1.208588
1231.765, 1.070915
1232.247, 0.9657060
1232.729, 0.8252030
1233.211, 1.010483
1233.694, 1.716866
1234.176, 2.069901
1234.658, 1.749390
1235.140, 1.320892
1235.622, 1.197548
1236.104, 1.182915
1236.586, 0.8824230
1237.068, 0.4196550
1237.551, 0.3421860
1238.033, 0.5720290
1238.515, 0.7840730
1238.997, 0.9176640
1239.479, 0.7472380
1239.961, 0.3269200
1240.443, 0.5914920
1240.925, 2.319504
1241.407, 3.941650
1241.890, 3.830200
1242.372, 3.013710
1242.854, 2.050079
1243.336, 1.342781
1243.818, 1.742531
1244.300, 2.609573
1244.782, 2.362633
1245.264, 0.8583760
1245.746, 8.6296000E-02
1246.229, 0.3918530
1246.711, 0.7373960
1247.193, 0.5677640
1247.675, 0.3803790
1248.157, 0.3183360
1248.639, 0.3668140
1249.121, 0.6269610
1249.603, 0.8751750
1250.085, 0.6370160
1250.568, 4.2144999E-02
1251.050, 0.2593310
1251.532, 2.9747000E-02
1252.014, 0.2881770
1252.496, 0.4738620
1252.978, 0.6219480
1253.460, 0.7431720
1253.942, 0.7800520
1254.425, 0.6882170
1254.907, 0.6693420
1255.389, 1.170456
1255.871, 1.787956
1256.353, 1.659798
1256.835, 1.141678
1257.317, 0.8281710
1257.799, 0.7385100
1258.281, 0.7002720
1258.764, 0.7021940
1259.246, 0.9747920
1259.728, 1.749977
1260.210, 2.325081
1260.692, 2.429893
1261.174, 2.177338
1261.656, 1.128456
1262.138, 0.2806550
1262.620, 0.7292790
1263.103, 1.651550
1263.585, 1.579407
1264.067, 0.6457900
1264.549, 9.2987001E-02
1265.031, 1.0986000E-02
1265.513, 1.3580000E-02
1265.995, 0.1659850
1266.477, 0.5318530
1266.960, 1.151154
1267.442, 1.503639
1267.924, 1.215622
1268.406, 0.6897430
1268.888, 0.5884250
1269.370, 0.7142870
1269.852, 0.8571850
1270.334, 0.9578860
1270.817, 0.7766720
1271.299, 0.4398190
1271.781, 0.3233570
1272.263, 0.4527660
1272.745, 0.5991290
1273.227, 0.6726300
1273.709, 0.7608570
1274.191, 1.033249
1274.673, 1.221268
1275.156, 1.101021
1275.638, 0.9071120
1276.120, 0.7630310
1276.602, 0.6331710
1277.084, 0.5177760
1277.566, 0.4093090
1278.048, 0.2992860
1278.530, 0.1706010
1279.012, 7.3302999E-02
1279.495, 1.7181000E-02
1279.977, 4.1359000E-02
1280.459, 1.0864000E-02
1280.941, 0.2296600
1281.423, 0.6705320
1281.905, 1.005096
1282.387, 0.9179460
1282.869, 0.5843580
1283.352, 0.6245270
1283.834, 0.7064900
1284.316, 0.4786150
1284.798, 0.0000000E+00
##END=



