##NAMES=Hedleyite
##RRUFFID=R100114
##IDEAL CHEMISTRY=Bi_7_Te_3_
##LOCALITY=Good Hope mine, Hedley, British Columbia, Canada
##OWNER=RRUFF
##SOURCE=Robert Woodside
##DESCRIPTION=Tin-white platy masses
##STATUS=The identification of this mineral has been confirmed by single-crystal X-ray diffraction.
##URL=rruff.info/R100114
151.9944, 0.0000000E+00
152.4765, 1.2350000E-02
152.9586, 0.6663840
153.4408, 1.480122
153.9229, 1.976973
154.4050, 2.146576
154.8871, 2.183094
155.3692, 1.896917
155.8513, 1.607296
156.3335, 1.435787
156.8156, 1.465879
157.2977, 1.627165
157.7798, 2.000870
158.2619, 2.753279
158.7440, 3.269266
159.2262, 3.563118
159.7083, 3.583891
160.1904, 3.112621
160.6725, 2.264034
161.1546, 1.865458
161.6367, 1.479773
162.1189, 2.464853
162.6010, 2.960848
163.0831, 2.520317
163.5652, 1.832146
164.0473, 1.597399
164.5294, 2.137754
165.0115, 3.220551
165.4937, 3.602051
165.9758, 2.974091
166.4579, 2.459833
166.9400, 2.318859
167.4221, 2.333750
167.9042, 2.139290
168.3864, 1.546507
168.8685, 0.7256260
169.3506, 0.1198540
169.8327, 0.4837000
170.3148, 0.6140820
170.7969, 0.3027380
171.2791, 1.965080
171.7612, 3.260679
172.2433, 3.553122
172.7254, 3.205933
173.2075, 3.033354
173.6896, 3.115803
174.1718, 3.220314
174.6539, 3.250343
175.1360, 3.195309
175.6181, 2.872984
176.1002, 1.899321
176.5823, 0.7658650
177.0645, 2.5410000E-03
177.5466, 0.2908950
178.0287, 0.2406180
178.5108, 1.6060000E-03
178.9929, 0.4563310
179.4750, 1.019613
179.9572, 1.941015
180.4393, 2.802916
180.9214, 3.152988
181.4035, 2.779839
181.8856, 2.061373
182.3677, 1.581373
182.8499, 1.366385
183.3320, 1.315660
183.8141, 1.406279
184.2962, 1.603056
184.7783, 1.906878
185.2604, 2.327980
185.7425, 2.798079
186.2247, 3.071777
186.7068, 3.031521
187.1889, 2.911766
187.6710, 2.743916
188.1531, 2.517990
188.6352, 2.198057
189.1174, 1.760340
189.5995, 1.236137
190.0816, 0.8068080
190.5637, 0.2368660
191.0458, 2.4134001E-02
191.5279, 0.5183640
192.0101, 1.418463
192.4922, 2.239914
192.9743, 2.705980
193.4564, 2.836374
193.9385, 2.759039
194.4206, 2.363186
194.9028, 1.935703
195.3849, 1.525078
195.8670, 1.151443
196.3491, 0.8495250
196.8312, 0.6300700
197.3133, 0.5130370
197.7955, 0.5538010
198.2776, 0.9754940
198.7597, 1.335724
199.2418, 1.301441
199.7239, 0.9331740
200.2060, 0.6405910
200.6882, 0.6749860
201.1703, 0.9707890
201.6524, 1.277943
202.1345, 1.717583
202.6166, 2.038025
203.0987, 1.870586
203.5808, 1.194340
204.0630, 0.7534980
204.5451, 1.321489
205.0272, 2.249243
205.5093, 2.547665
205.9914, 1.745176
206.4735, 0.6347410
206.9557, 0.2779140
207.4378, 0.8512040
207.9199, 1.356972
208.4020, 1.129208
208.8841, 0.6786420
209.3662, 0.5561730
209.8484, 1.062618
210.3305, 1.735130
210.8126, 1.671991
211.2947, 0.4585650
211.7768, 0.4125080
212.2589, 0.3143710
212.7411, 0.2488570
213.2232, 0.9056130
213.7053, 1.490561
214.1874, 1.904436
214.6695, 1.988146
215.1516, 1.460777
215.6338, 1.117250
216.1159, 1.243534
216.5980, 1.540199
217.0801, 1.676174
217.5622, 1.497190
218.0443, 1.168732
218.5265, 1.164089
219.0086, 1.732660
219.4907, 2.290236
219.9728, 3.027969
220.4549, 3.622372
220.9370, 3.602079
221.4192, 2.751371
221.9013, 1.457027
222.3834, 0.8665870
222.8655, 1.705236
223.3476, 2.446150
223.8297, 3.188587
224.3118, 3.725512
224.7940, 3.688522
225.2761, 2.907804
225.7582, 1.753317
226.2403, 1.281445
226.7224, 2.375620
227.2045, 3.055157
227.6867, 2.795521
228.1688, 2.145306
228.6509, 1.861959
229.1330, 2.209663
229.6151, 2.919111
230.0972, 3.316578
230.5794, 3.383947
231.0615, 3.204443
231.5436, 2.419186
232.0257, 1.470913
232.5078, 1.103533
232.9899, 1.659754
233.4721, 2.737482
233.9542, 3.357010
234.4363, 3.432825
234.9184, 3.209217
235.4005, 2.369383
235.8826, 1.331488
236.3648, 0.8848230
236.8469, 1.390993
237.3290, 2.301813
237.8111, 2.582460
238.2932, 2.124231
238.7753, 1.730003
239.2575, 1.814997
239.7396, 2.140003
240.2217, 2.110588
240.7038, 1.415350
241.1859, 0.6463910
241.6680, 0.7477090
242.1502, 1.713001
242.6323, 2.440559
243.1144, 2.242874
243.5965, 1.441732
244.0786, 0.9443780
244.5607, 0.9944970
245.0428, 1.281301
245.5250, 1.532753
246.0071, 1.749447
246.4892, 1.904909
246.9713, 1.991434
247.4534, 2.007357
247.9355, 1.924196
248.4177, 1.666189
248.8998, 1.425085
249.3819, 1.349461
249.8640, 1.411156
250.3461, 1.543474
250.8282, 1.731224
251.3104, 1.962191
251.7925, 2.226908
252.2746, 2.688660
252.7567, 2.888092
253.2388, 2.360460
253.7209, 1.395746
254.2031, 0.6490970
254.6852, 0.6176260
255.1673, 1.101854
255.6494, 1.298872
256.1315, 0.9992200
256.6136, 0.7464500
257.0958, 0.8292880
257.5779, 1.105947
258.0600, 1.347084
258.5421, 1.427410
259.0242, 1.387789
259.5063, 1.373962
259.9885, 1.442211
260.4706, 1.436968
260.9527, 1.196222
261.4348, 0.8938180
261.9169, 0.7868180
262.3990, 1.042698
262.8812, 1.502831
263.3633, 1.686031
263.8454, 1.401108
264.3275, 1.153343
264.8096, 1.058201
265.2917, 1.060139
265.7739, 1.110018
266.2560, 1.191227
266.7381, 1.276640
267.2202, 1.304556
267.7023, 1.267515
268.1844, 1.181534
268.6666, 1.087572
269.1487, 0.9355890
269.6308, 0.5656550
270.1129, 2.0339999E-02
270.5950, 0.5634170
271.0771, 0.5778100
271.5593, 0.2604620
272.0414, 1.003820
272.5235, 1.700569
273.0056, 2.223972
273.4877, 2.398964
273.9698, 2.216175
274.4520, 1.897409
274.9341, 1.777077
275.4162, 1.939737
275.8983, 2.137028
276.3804, 2.492273
276.8625, 2.786283
277.3446, 2.857641
277.8268, 2.698992
278.3089, 2.433502
278.7910, 2.197393
279.2731, 1.976742
279.7552, 1.842947
280.2373, 1.908321
280.7195, 1.948576
281.2016, 1.859339
281.6837, 1.631710
282.1658, 1.272299
282.6479, 0.7256550
283.1300, 0.1219710
283.6122, 0.3016000
284.0943, 0.8239080
284.5764, 1.897142
285.0585, 2.331331
285.5406, 2.293182
286.0227, 2.162092
286.5049, 2.331539
286.9870, 2.821644
287.4691, 2.768377
287.9512, 1.515471
288.4333, 0.4689160
288.9154, 0.2020380
289.3976, 0.4287640
289.8797, 0.5260260
290.3618, 8.8255003E-02
290.8439, 0.7168370
291.3260, 0.9449840
291.8081, 9.6414998E-02
292.2903, 0.9058320
292.7724, 1.200586
293.2545, 1.127129
293.7366, 0.8143980
294.2187, 0.3062500
294.7008, 0.2301900
295.1830, 0.3415850
295.6651, 0.4358650
296.1472, 1.093403
296.6293, 1.525923
297.1114, 1.852221
297.5935, 2.314978
298.0757, 2.972099
298.5578, 3.471636
299.0399, 3.172676
299.5220, 1.298952
300.0041, 7.7055000E-02
300.4862, 0.2384260
300.9684, 7.3615998E-02
301.4505, 0.3816410
301.9326, 1.031981
302.4147, 1.629879
302.8968, 1.862404
303.3789, 1.571692
303.8611, 1.503832
304.3432, 1.766685
304.8253, 2.151852
305.3074, 2.752037
305.7895, 3.437613
306.2716, 3.667578
306.7538, 2.829836
307.2359, 0.8153920
307.7180, 5.1846001E-02
308.2001, 1.731478
308.6822, 3.245155
309.1643, 3.242380
309.6465, 2.112566
310.1286, 1.008173
310.6107, 0.6636620
311.0928, 0.9697550
311.5749, 1.200750
312.0570, 1.457962
312.5392, 1.540516
313.0213, 1.247110
313.5034, 0.7745510
313.9855, 0.4083180
314.4676, 0.2725790
314.9497, 0.3612920
315.4319, 0.6780530
315.9140, 1.557405
316.3961, 2.181126
316.8782, 2.413101
317.3603, 2.389959
317.8424, 2.229950
318.3245, 1.971104
318.8066, 1.635887
319.2888, 1.233557
319.7709, 0.6332210
320.2530, 0.3279090
320.7351, 0.4844800
321.2172, 0.8089600
321.6993, 1.147011
322.1815, 1.447798
322.6636, 1.628767
323.1457, 1.557350
323.6278, 1.149523
324.1099, 1.178226
324.5920, 2.280722
325.0742, 3.164267
325.5563, 2.928190
326.0384, 1.860966
326.5205, 0.9492890
327.0026, 0.9093070
327.4847, 1.649744
327.9669, 2.140175
328.4490, 2.281349
328.9311, 2.295908
329.4132, 2.150660
329.8953, 1.933464
330.3774, 1.886997
330.8596, 2.142250
331.3417, 2.508213
331.8238, 2.462008
332.3059, 1.173828
332.7880, 0.5068360
333.2701, 1.048943
333.7523, 1.975929
334.2344, 2.482685
334.7165, 2.338350
335.1986, 1.856012
335.6807, 1.472698
336.1628, 1.177124
336.6450, 1.040583
337.1271, 1.020115
337.6092, 1.161127
338.0913, 1.620661
338.5734, 2.326128
339.0555, 2.962328
339.5377, 3.230864
340.0198, 3.105337
340.5019, 2.939646
340.9840, 2.992435
341.4661, 2.730782
341.9482, 1.532740
342.4304, 9.8539002E-02
342.9125, 1.033611
343.3946, 0.5149670
343.8767, 1.093903
344.3588, 2.018208
344.8409, 1.435326
345.3231, 1.062628
345.8052, 1.322237
346.2873, 1.778284
346.7694, 1.821812
347.2515, 1.227989
347.7336, 0.3898030
348.2158, 2.9673001E-02
348.6979, 0.4651280
349.1800, 0.7284180
349.6621, 0.7594110
350.1442, 0.7567830
350.6263, 0.9534090
351.1085, 1.334127
351.5906, 1.647509
352.0727, 1.568655
352.5548, 0.9751090
353.0369, 0.7102280
353.5190, 1.270710
354.0012, 1.703505
354.4833, 1.570017
354.9654, 1.052210
355.4475, 0.5666730
355.9296, 0.3943350
356.4117, 0.4893800
356.8939, 0.5883900
357.3760, 0.6759070
357.8581, 0.7889860
358.3402, 1.074121
358.8223, 1.359909
359.3044, 1.256632
359.7865, 0.6545940
360.2686, 6.0169000E-02
360.7508, 0.1272850
361.2329, 0.7953030
361.7150, 1.476124
362.1971, 1.768847
362.6792, 1.816528
363.1613, 1.575506
363.6435, 1.109663
364.1256, 0.6929490
364.6077, 0.6459790
365.0898, 0.9919510
365.5719, 1.146210
366.0540, 0.9704880
366.5362, 0.7510050
367.0183, 0.4935130
367.5004, 0.2848090
367.9825, 0.3093190
368.4646, 0.7605230
368.9467, 1.448225
369.4289, 1.763235
369.9110, 1.495739
370.3931, 1.317204
370.8752, 1.545858
371.3573, 1.949053
371.8394, 2.306763
372.3216, 2.518738
372.8037, 2.610600
373.2858, 2.564062
373.7679, 2.383972
374.2500, 2.255131
374.7321, 2.276543
375.2143, 2.311712
375.6964, 2.279068
376.1785, 2.180389
376.6606, 2.005749
377.1427, 1.599472
377.6248, 1.088827
378.1070, 1.029432
378.5891, 1.693884
379.0712, 2.282503
379.5533, 1.998236
380.0354, 1.274099
380.5175, 0.9749240
380.9997, 1.722170
381.4818, 2.686483
381.9639, 2.714344
382.4460, 1.784065
382.9281, 1.003948
383.4102, 0.9165900
383.8924, 1.232157
384.3745, 1.478863
384.8566, 1.667032
385.3387, 1.715933
385.8208, 1.473066
386.3029, 1.051912
386.7851, 0.7379420
387.2672, 0.5885770
387.7493, 0.5865500
388.2314, 0.7742370
388.7135, 1.131887
389.1956, 1.468651
389.6778, 1.945309
390.1599, 2.259768
390.6420, 1.888342
391.1241, 0.8694290
391.6062, 0.1239470
392.0883, 0.4228000
392.5705, 1.506041
393.0526, 1.921324
393.5347, 0.9063650
394.0168, 0.1143920
394.4989, 0.4003580
394.9810, 1.341693
395.4632, 2.186020
395.9453, 2.681938
396.4274, 2.821320
396.9095, 2.520413
397.3916, 1.388591
397.8737, 0.7746600
398.3559, 1.215781
398.8380, 1.871495
399.3201, 1.960031
399.8022, 1.465588
400.2843, 0.9734840
400.7664, 0.9972470
401.2485, 1.655998
401.7307, 1.960954
402.2128, 1.731493
402.6949, 1.340953
403.1770, 0.5233140
403.6591, 0.3043000
404.1412, 0.3463860
404.6234, 0.7931070
405.1055, 2.512975
405.5876, 3.329491
406.0697, 2.631645
406.5518, 2.007524
407.0339, 1.364611
407.5161, 0.9051080
407.9982, 0.8150210
408.4803, 1.086414
408.9624, 1.539438
409.4445, 2.040575
409.9266, 2.600791
410.4088, 2.993662
410.8909, 3.195347
411.3730, 3.232871
411.8551, 3.096498
412.3372, 2.849226
412.8193, 2.513978
413.3015, 2.244923
413.7836, 1.997609
414.2657, 1.655705
414.7478, 1.169454
415.2299, 0.7351160
415.7120, 6.0229000E-02
416.1942, 0.3127100
416.6763, 0.3353000
417.1584, 1.989654
417.6405, 3.389230
418.1226, 3.150614
418.6047, 1.565520
419.0869, 0.7180140
419.5690, 1.106581
420.0511, 1.578541
420.5332, 1.261185
421.0153, 0.4934190
421.4974, 4.1616000E-02
421.9796, 6.3050002E-02
422.4617, 0.1867880
422.9438, 0.4915130
423.4259, 0.8487250
423.9080, 1.101103
424.3901, 1.089621
424.8723, 1.027738
425.3544, 1.304304
425.8365, 2.016815
426.3186, 2.566276
426.8007, 2.752861
427.2828, 2.592183
427.7650, 1.967682
428.2471, 0.8175040
428.7292, 0.2872100
429.2113, 0.8309030
429.6934, 0.7824850
430.1755, 0.6187340
430.6577, 0.1404520
431.1398, 0.2645620
431.6219, 0.2228490
432.1040, 7.5172000E-02
432.5861, 6.9857001E-02
433.0682, 0.5444370
433.5504, 1.443233
434.0325, 1.844946
434.5146, 1.294354
434.9967, 0.9864560
435.4788, 1.068425
435.9609, 1.334661
436.4431, 1.720245
436.9252, 2.155850
437.4073, 2.438199
437.8894, 2.332454
438.3715, 1.819229
438.8536, 1.634644
439.3358, 2.078534
439.8179, 2.524883
440.3000, 3.034120
440.7821, 3.395670
441.2642, 3.233017
441.7463, 2.393926
442.2284, 1.311720
442.7105, 0.7876330
443.1927, 0.9577520
443.6748, 1.268699
444.1569, 1.960413
444.6390, 2.540987
445.1211, 2.646936
445.6032, 2.372723
446.0854, 2.131315
446.5675, 2.270605
447.0496, 2.667944
447.5317, 2.864970
448.0138, 2.856636
448.4959, 2.656576
448.9781, 2.091026
449.4602, 1.410317
449.9423, 0.8678420
450.4244, 0.5037250
450.9065, 0.3184390
451.3886, 0.3530450
451.8708, 0.5802970
452.3529, 0.9090620
452.8350, 1.378665
453.3171, 1.822631
453.7992, 2.126238
454.2813, 2.288958
454.7635, 2.191487
455.2456, 1.500250
455.7277, 0.7633090
456.2098, 0.4948440
456.6919, 0.6536760
457.1740, 0.9372350
457.6562, 1.240075
458.1383, 1.511121
458.6204, 1.570421
459.1025, 1.199959
459.5846, 1.100120
460.0667, 1.531683
460.5489, 2.215300
461.0310, 3.041443
461.5131, 3.890833
461.9952, 4.378101
462.4773, 4.074633
462.9594, 2.918472
463.4416, 2.173483
463.9237, 1.876032
464.4058, 1.913130
464.8879, 2.727735
465.3700, 3.705390
465.8521, 3.815981
466.3343, 2.695635
466.8164, 1.273772
467.2985, 1.412885
467.7806, 4.173231
468.2627, 5.173830
468.7448, 2.048156
469.2270, 0.8716020
469.7091, 1.365787
470.1912, 2.5835000E-02
470.6733, 1.493834
471.1554, 1.938578
471.6375, 1.709567
472.1197, 1.691425
472.6018, 1.940414
473.0839, 2.192716
473.5660, 2.460217
474.0481, 2.595477
474.5302, 2.445400
475.0124, 1.952910
475.4945, 1.529875
475.9766, 1.576889
476.4587, 1.881042
476.9408, 1.869303
477.4229, 1.430359
477.9051, 0.9346900
478.3872, 0.5375830
478.8693, 0.3171640
479.3514, 0.5258570
479.8335, 1.700749
480.3156, 2.748789
480.7978, 3.076677
481.2798, 2.861577
481.7620, 2.349298
482.2441, 1.591024
482.7262, 0.9277780
483.2083, 0.8921760
483.6904, 1.771755
484.1725, 2.231945
484.6547, 2.017323
485.1368, 1.651208
485.6189, 1.213121
486.1010, 0.8553640
486.5831, 0.9112680
487.0652, 1.609272
487.5474, 2.648070
488.0295, 3.017649
488.5116, 2.287821
488.9937, 1.725433
489.4758, 1.375164
489.9579, 1.200947
490.4401, 1.302956
490.9222, 1.637418
491.4043, 1.929228
491.8864, 1.917569
492.3685, 1.668402
492.8506, 1.445201
493.3328, 1.266377
493.8149, 1.074953
494.2970, 0.7512870
494.7791, 0.4517570
495.2612, 0.3916530
495.7433, 0.6412590
496.2255, 0.8659830
496.7076, 0.7136270
497.1897, 0.3316490
497.6718, 0.1703090
498.1539, 0.3099480
498.6360, 0.6200270
499.1182, 1.108780
499.6003, 1.705790
500.0824, 2.048616
500.5645, 1.910419
501.0466, 1.726034
501.5287, 1.710095
502.0109, 1.810527
502.4930, 1.951228
502.9751, 2.112777
503.4572, 2.203564
503.9393, 2.067515
504.4214, 1.576989
504.9036, 1.331783
505.3857, 1.680532
505.8678, 1.904840
506.3499, 1.480927
506.8320, 0.6881810
507.3141, 0.1076560
507.7963, 4.2633001E-02
508.2784, 0.3646210
508.7605, 0.8504490
509.2426, 1.694587
509.7247, 2.183668
510.2068, 1.994256
510.6890, 1.649004
511.1711, 1.257076
511.6532, 0.9300100
512.1353, 0.9577700
512.6174, 1.812480
513.0995, 2.987957
513.5817, 3.224576
514.0638, 2.411557
514.5459, 1.615346
515.0280, 1.216428
515.5101, 1.059534
515.9922, 0.9639460
516.4744, 0.9091420
516.9565, 0.8642270
517.4386, 0.9145940
517.9207, 1.003497
518.4028, 1.035048
518.8849, 1.003352
519.3671, 0.9719780
519.8492, 0.9840310
520.3313, 1.030180
520.8134, 1.064357
521.2955, 1.073775
521.7776, 1.090400
522.2598, 1.053061
522.7419, 1.063049
523.2240, 1.293154
523.7061, 1.727484
524.1882, 2.118149
524.6703, 2.203581
525.1525, 1.995699
525.6346, 1.937824
526.1167, 2.279779
526.5988, 2.456473
527.0809, 2.078198
527.5630, 1.537874
528.0452, 1.417170
528.5273, 1.754059
529.0094, 2.224352
529.4915, 2.572337
529.9736, 2.768793
530.4557, 2.695321
530.9379, 2.260615
531.4200, 1.759671
531.9021, 1.269582
532.3842, 0.8580600
532.8663, 0.6720920
533.3484, 0.8361010
533.8306, 1.032442
534.3127, 1.036790
534.7948, 0.9123770
535.2769, 0.7787490
535.7590, 0.6540640
536.2411, 0.6276330
536.7233, 0.8521800
537.2054, 1.346273
537.6875, 1.503171
538.1696, 0.8882370
538.6517, 0.4505160
539.1339, 0.6593220
539.6160, 1.225700
540.0981, 1.736917
540.5802, 2.049824
541.0623, 2.242088
541.5444, 2.427287
542.0266, 2.630939
542.5087, 2.682280
542.9907, 2.466912
543.4728, 2.214570
543.9550, 1.895317
544.4371, 1.615530
544.9192, 1.573675
545.4013, 1.870296
545.8834, 2.216841
546.3655, 2.295814
546.8477, 2.110025
547.3298, 1.623442
547.8119, 0.6129090
548.2940, 0.2835700
548.7761, 0.4809550
549.2582, 0.1333760
549.7404, 0.4200890
550.2225, 1.517766
550.7046, 2.377546
551.1867, 2.234941
551.6688, 1.496875
552.1509, 1.167245
552.6331, 1.563080
553.1152, 2.122779
553.5973, 2.129796
554.0794, 1.457366
554.5615, 0.9842470
555.0436, 0.7517340
555.5258, 0.6388700
556.0079, 0.6250220
556.4900, 0.6961230
556.9721, 0.8679230
557.4542, 1.140685
557.9363, 1.415287
558.4185, 1.579214
558.9006, 1.642191
559.3827, 1.484809
559.8648, 0.8359690
560.3469, 0.3238120
560.8290, 0.3247690
561.3112, 0.6207230
561.7933, 0.8437830
562.2754, 0.8992090
562.7575, 0.9187760
563.2396, 0.9103320
563.7217, 0.8683380
564.2039, 0.9859960
564.6860, 1.314078
565.1681, 1.724488
565.6502, 2.157933
566.1323, 2.596397
566.6144, 2.832994
567.0966, 2.802523
567.5787, 2.646325
568.0608, 2.462670
568.5429, 2.169308
569.0250, 1.496003
569.5071, 0.4386150
569.9893, 0.4920040
570.4714, 0.6525240
570.9535, 6.7240000E-03
571.4356, 0.5422650
571.9177, 1.146860
572.3998, 1.357930
572.8820, 0.5979290
573.3641, 0.3646530
573.8462, 0.6216090
574.3283, 4.2001002E-02
574.8104, 1.019847
575.2925, 1.974584
575.7747, 2.802439
576.2568, 2.880583
576.7389, 1.947316
577.2210, 1.156409
577.7031, 1.355643
578.1852, 2.150346
578.6674, 2.557255
579.1495, 2.413421
579.6316, 2.200645
580.1137, 2.024581
580.5958, 1.920197
581.0779, 2.038814
581.5601, 2.337561
582.0422, 2.445597
582.5243, 2.052098
583.0064, 1.250807
583.4885, 0.5767760
583.9706, 9.4075002E-02
584.4528, 0.4351480
584.9349, 0.1373640
585.4170, 0.2669080
585.8991, 0.3224980
586.3812, 4.8965000E-02
586.8633, 0.1752870
587.3455, 5.8970001E-02
587.8276, 0.3101930
588.3097, 0.6813470
588.7918, 1.032985
589.2739, 1.570028
589.7560, 2.697041
590.2382, 3.706423
590.7203, 3.644542
591.2024, 2.533775
591.6845, 1.583281
592.1666, 1.123560
592.6487, 1.015757
593.1309, 1.283704
593.6130, 1.810760
594.0951, 2.233719
594.5772, 2.390869
595.0593, 2.374931
595.5414, 2.343626
596.0236, 2.301031
596.5057, 2.227251
596.9878, 2.010161
597.4699, 1.886034
597.9520, 2.094184
598.4341, 2.426940
598.9163, 2.492523
599.3984, 2.120443
599.8805, 1.643695
600.3626, 1.548171
600.8447, 1.820790
601.3268, 1.960187
601.8090, 1.826541
602.2911, 1.738480
602.7732, 2.130713
603.2553, 2.695724
603.7374, 2.727034
604.2195, 1.767658
604.7017, 0.9648490
605.1838, 1.123270
605.6659, 1.723585
606.1480, 1.898416
606.6301, 1.545478
607.1122, 1.207353
607.5944, 1.311252
608.0765, 1.774419
608.5586, 2.028093
609.0407, 1.990460
609.5228, 1.836065
610.0049, 1.321656
610.4871, 0.8915960
610.9692, 0.9854740
611.4513, 1.539998
611.9334, 2.109248
612.4155, 2.441334
612.8976, 2.528362
613.3798, 2.226116
613.8619, 1.469362
614.3440, 1.045989
614.8261, 1.398635
615.3082, 1.929336
615.7903, 1.789211
616.2725, 1.038282
616.7546, 0.7237630
617.2367, 1.637492
617.7188, 2.505948
618.2009, 2.386145
618.6830, 1.571811
619.1652, 0.6326000
619.6473, 0.2194680
620.1294, 0.7651030
620.6115, 0.6307240
621.0936, 0.3224100
621.5757, 0.9006880
622.0579, 0.7938120
622.5400, 0.6629060
623.0221, 0.5690740
623.5042, 0.5926280
623.9863, 0.8947650
624.4684, 1.500488
624.9506, 2.063412
625.4326, 2.219891
625.9147, 2.113840
626.3969, 2.158255
626.8790, 2.384655
627.3611, 2.688581
627.8432, 3.178795
628.3253, 3.696423
628.8074, 3.734744
629.2896, 3.066496
629.7717, 2.602192
630.2538, 2.782788
630.7359, 2.943868
631.2180, 2.365386
631.7001, 1.342181
632.1823, 0.7666810
632.6644, 1.039387
633.1465, 1.729459
633.6286, 2.078605
634.1107, 2.057796
634.5928, 1.820748
635.0750, 1.104464
635.5571, 0.5207760
636.0392, 0.3366460
636.5213, 0.4811500
637.0034, 0.9132690
637.4855, 1.767826
637.9677, 2.431336
638.4498, 2.262585
638.9319, 1.645040
639.4140, 1.332410
639.8961, 1.426787
640.3782, 1.621098
640.8604, 1.700199
641.3425, 1.661745
641.8246, 1.423780
642.3067, 0.6629330
642.7888, 0.1770060
643.2709, 5.9519999E-02
643.7531, 1.3221000E-02
644.2352, 0.5752630
644.7173, 1.464985
645.1994, 2.089089
645.6815, 2.104744
646.1636, 1.750631
646.6458, 1.318821
647.1279, 0.8102230
647.6100, 0.7014280
648.0921, 1.302090
648.5742, 1.843876
649.0563, 1.447747
649.5385, 0.4368750
650.0206, 6.0499001E-02
650.5027, 0.8954700
650.9848, 1.722977
651.4669, 2.032933
651.9490, 2.088417
652.4312, 2.295732
652.9133, 2.581869
653.3954, 2.675121
653.8775, 2.283258
654.3596, 1.578846
654.8417, 1.343849
655.3239, 1.909281
655.8060, 2.152198
656.2881, 1.473852
656.7702, 0.7768040
657.2523, 0.5604160
657.7344, 0.8011720
658.2166, 1.220180
658.6987, 1.883266
659.1808, 2.443419
659.6629, 2.427235
660.1450, 2.020768
660.6271, 1.760877
661.1093, 1.773472
661.5914, 1.853855
662.0735, 1.809196
662.5556, 1.654312
663.0377, 1.607267
663.5198, 1.785644
664.0020, 1.919194
664.4841, 2.052155
664.9662, 2.079123
665.4483, 1.780819
665.9304, 1.265413
666.4125, 0.9795680
666.8947, 1.307595
667.3768, 1.870282
667.8589, 1.929683
668.3410, 1.499864
668.8231, 1.079100
669.3052, 0.7349070
669.7874, 0.5539380
670.2695, 0.7300130
670.7516, 1.213963
671.2337, 1.394449
671.7158, 0.8782330
672.1979, 0.5274940
672.6801, 0.7938100
673.1622, 1.268747
673.6443, 1.500376
674.1264, 1.425534
674.6085, 1.291591
675.0906, 1.290569
675.5728, 1.409573
676.0549, 1.663710
676.5370, 2.149951
677.0191, 2.326446
677.5012, 1.870217
677.9833, 1.245193
678.4655, 0.8504880
678.9476, 0.7020070
679.4297, 0.5847860
679.9118, 0.3700540
680.3939, 0.3290990
680.8760, 0.7613450
681.3582, 1.417119
681.8403, 2.063669
682.3224, 2.582313
682.8045, 2.528477
683.2866, 1.401152
683.7687, 0.4319320
684.2509, 1.149589
684.7330, 0.3043100
685.2151, 0.6792600
685.6972, 2.249798
686.1793, 3.335970
686.6614, 2.923737
687.1436, 1.491104
687.6257, 0.4632210
688.1078, 0.5107540
688.5899, 0.8816300
689.0720, 0.9242920
689.5541, 0.7689080
690.0363, 0.7152120
690.5184, 0.8139270
691.0005, 0.8914550
691.4826, 0.7775590
691.9647, 0.5860670
692.4468, 0.7701300
692.9290, 1.917540
693.4111, 2.392260
693.8932, 1.548813
694.3753, 0.6276090
694.8574, 0.4059310
695.3395, 0.6943720
695.8217, 0.9017790
696.3038, 0.7634070
696.7859, 0.4995730
697.2680, 0.1787800
697.7501, 7.6289997E-02
698.2322, 0.3474350
698.7144, 1.592543
699.1965, 2.611029
699.6786, 2.626810
700.1607, 1.925816
700.6428, 1.502361
701.1249, 1.529190
701.6071, 1.556656
702.0892, 1.621355
702.5713, 1.671631
703.0534, 1.639986
703.5355, 1.592686
704.0176, 1.657026
704.4998, 1.898405
704.9819, 2.079945
705.4640, 1.730984
705.9461, 1.032566
706.4282, 0.9593180
706.9103, 1.679064
707.3925, 2.413733
707.8745, 2.857859
708.3566, 2.937805
708.8387, 2.296158
709.3209, 0.3754290
709.8030, 0.5994030
710.2851, 0.3076340
710.7672, 1.405453
711.2493, 1.760668
711.7314, 1.629812
712.2136, 1.591820
712.6957, 1.833241
713.1778, 2.002081
713.6599, 1.592684
714.1420, 0.7390520
714.6241, 5.8961999E-02
715.1063, 0.5025410
715.5884, 0.3839470
716.0705, 1.077925
716.5526, 2.874477
717.0347, 3.352533
717.5168, 2.375126
717.9990, 1.505604
718.4811, 0.7531190
718.9632, 0.2665310
719.4453, 0.1725440
719.9274, 0.3612880
720.4095, 0.7997420
720.8917, 1.413914
721.3738, 1.883160
721.8559, 1.827328
722.3380, 1.433584
722.8201, 1.400469
723.3022, 1.769617
723.7844, 2.171137
724.2665, 2.634743
724.7486, 2.877789
725.2307, 2.414867
725.7128, 1.320454
726.1949, 0.6604840
726.6771, 0.7111280
727.1592, 0.9295600
727.6413, 1.299105
728.1234, 1.641485
728.6055, 1.800835
729.0876, 1.742662
729.5698, 1.429649
730.0519, 0.7716270
730.5340, 1.3855000E-02
731.0161, 0.3126220
731.4982, 0.1982840
731.9803, 3.6959000E-02
732.4625, 0.3231470
732.9446, 0.7935700
733.4267, 1.823315
733.9088, 3.094320
734.3909, 3.433481
734.8730, 2.317070
735.3552, 1.269505
735.8373, 0.2966460
736.3194, 0.2453290
736.8015, 0.2859500
737.2836, 1.446600
737.7657, 2.096987
738.2479, 1.714617
738.7300, 1.030565
739.2121, 1.236372
739.6942, 2.172577
740.1763, 2.180672
740.6584, 0.8895840
741.1406, 8.7108999E-02
741.6227, 0.8560260
742.1048, 2.372231
742.5869, 3.283701
743.0690, 3.519270
743.5511, 3.442671
744.0333, 2.976484
744.5154, 2.321148
744.9975, 1.230684
745.4796, 0.1642070
745.9617, 0.1621820
746.4438, 0.3534980
746.9260, 1.075228
747.4081, 1.579865
747.8902, 1.798460
748.3723, 1.376717
748.8544, 0.3008650
749.3365, 0.5605890
749.8187, 1.009941
750.3008, 1.039644
750.7829, 0.5411930
751.2650, 0.4678330
751.7471, 1.333080
752.2292, 2.425335
752.7114, 2.890236
753.1935, 1.904015
753.6756, 0.7597430
754.1577, 0.5582410
754.6398, 1.199520
755.1219, 2.034460
755.6041, 2.827538
756.0862, 3.332039
756.5683, 2.954203
757.0504, 1.933657
757.5325, 1.338568
758.0146, 1.324049
758.4968, 1.196384
758.9789, 0.3908960
759.4610, 0.6235920
759.9431, 0.6198080
760.4252, 1.138258
760.9073, 2.176167
761.3895, 2.102158
761.8716, 1.796413
762.3537, 1.383953
762.8358, 1.060759
763.3179, 1.112942
763.8000, 1.590321
764.2822, 2.102541
764.7643, 2.418737
765.2464, 2.572884
765.7285, 2.606743
766.2106, 2.523527
766.6927, 2.265356
767.1749, 1.797668
767.6570, 1.390499
768.1391, 1.522232
768.6212, 2.119619
769.1033, 2.461538
769.5854, 2.576815
770.0676, 2.378052
770.5497, 1.504787
771.0318, 0.6305580
771.5139, 0.2386970
771.9960, 0.2351880
772.4781, 0.2287710
772.9603, 8.4269997E-03
773.4424, 0.1030430
773.9245, 0.1640090
774.4066, 0.6261410
774.8887, 1.143345
775.3708, 1.647820
775.8530, 1.941326
776.3351, 1.901758
776.8172, 1.709490
777.2993, 1.744669
777.7814, 2.065752
778.2635, 2.176165
778.7457, 1.947660
779.2278, 1.753984
779.7099, 1.896826
780.1920, 2.078506
780.6741, 1.842625
781.1563, 1.140854
781.6384, 0.6325360
782.1205, 0.4259850
782.6026, 0.5087170
783.0847, 1.200350
783.5668, 2.030264
784.0490, 2.201088
784.5311, 1.659584
785.0132, 1.125727
785.4953, 1.180822
785.9774, 1.627075
786.4595, 2.039482
786.9417, 2.416784
787.4238, 2.585865
787.9059, 2.446392
788.3880, 2.326941
788.8701, 2.527153
789.3522, 2.942738
789.8343, 3.055017
790.3164, 2.564373
790.7985, 2.307194
791.2806, 2.648346
791.7628, 2.910925
792.2449, 2.620415
792.7270, 2.023453
793.2091, 1.497522
793.6912, 1.161081
794.1733, 1.073629
794.6555, 1.514406
795.1376, 2.166857
795.6197, 2.498453
796.1018, 2.532066
796.5839, 2.439810
797.0660, 2.270435
797.5482, 2.120811
798.0303, 2.128437
798.5124, 2.268099
798.9945, 2.086290
799.4766, 1.111584
799.9587, 0.7225300
800.4409, 1.970169
800.9230, 3.114586
801.4051, 2.868134
801.8872, 1.699858
802.3693, 0.9288330
802.8514, 0.8843460
803.3336, 1.206749
803.8157, 1.984074
804.2978, 2.845821
804.7799, 3.502918
805.2620, 3.859251
805.7441, 3.621132
806.2263, 2.678848
806.7084, 1.749914
807.1905, 1.989403
807.6726, 3.203072
808.1547, 3.434736
808.6368, 2.518148
809.1190, 1.736315
809.6011, 1.496183
810.0832, 1.537771
810.5653, 1.604191
811.0474, 1.696180
811.5295, 1.813551
812.0117, 2.038414
812.4938, 2.176559
812.9759, 2.059822
813.4580, 1.949118
813.9401, 2.182419
814.4222, 2.596565
814.9044, 2.661678
815.3865, 2.080687
815.8686, 1.490408
816.3507, 1.615292
816.8328, 2.145761
817.3149, 2.423765
817.7971, 2.454367
818.2792, 2.515659
818.7613, 2.701181
819.2434, 2.904888
819.7255, 2.937357
820.2076, 2.782169
820.6898, 3.009659
821.1719, 4.082697
821.6540, 4.573473
822.1361, 3.331442
822.6182, 2.053951
823.1003, 2.593184
823.5825, 4.440701
824.0646, 5.125526
824.5467, 3.058374
825.0288, 1.467766
825.5109, 2.107435
825.9930, 3.408264
826.4752, 3.948446
826.9573, 3.762835
827.4394, 3.388527
827.9215, 3.058258
828.4036, 2.837067
828.8857, 2.840073
829.3679, 3.018400
829.8500, 3.233332
830.3321, 3.478992
830.8142, 3.553226
831.2963, 3.351826
831.7784, 3.046867
832.2606, 2.812098
832.7427, 2.649340
833.2248, 2.655539
833.7069, 3.126093
834.1890, 3.299801
834.6711, 2.767574
835.1533, 2.228863
835.6354, 2.211233
836.1175, 2.527676
836.5996, 2.620790
837.0817, 2.237736
837.5638, 2.000284
838.0460, 2.486061
838.5281, 3.087885
839.0102, 3.047058
839.4923, 2.591599
839.9744, 2.411970
840.4565, 2.737906
840.9387, 3.262104
841.4208, 3.720194
841.9029, 4.008642
842.3850, 3.958141
842.8671, 3.570827
843.3492, 3.075855
843.8314, 2.448500
844.3135, 2.008390
844.7956, 2.107510
845.2777, 2.611115
845.7598, 2.849722
846.2419, 2.300243
846.7241, 2.325529
847.2062, 3.732189
847.6883, 4.824873
848.1704, 4.418362
848.6525, 3.362148
849.1346, 3.062860
849.6168, 3.810410
850.0989, 4.395031
850.5810, 3.900002
851.0631, 3.188993
851.5452, 3.094030
852.0273, 3.324688
852.5095, 3.183912
852.9916, 2.621565
853.4737, 2.321606
853.9558, 2.870182
854.4379, 3.807098
854.9200, 4.113243
855.4022, 3.797722
855.8843, 3.135845
856.3664, 2.029745
856.8485, 1.232166
857.3306, 1.265230
857.8127, 1.702150
858.2949, 1.735126
858.7770, 1.222240
859.2591, 0.9526900
859.7412, 0.8968320
860.2233, 1.166025
860.7054, 2.105192
861.1876, 3.065817
861.6697, 3.429228
862.1518, 3.303671
862.6339, 3.323778
863.1160, 3.992687
863.5981, 4.313707
864.0803, 3.083466
864.5624, 1.521301
865.0445, 1.340994
865.5266, 2.224947
866.0087, 2.755306
866.4908, 2.336714
866.9730, 1.649828
867.4551, 1.538177
867.9372, 1.869564
868.4193, 2.063700
868.9014, 2.118156
869.3835, 2.180048
869.8657, 2.296057
870.3478, 2.467049
870.8299, 2.722450
871.3120, 3.043400
871.7941, 3.165022
872.2762, 3.041111
872.7583, 2.896677
873.2404, 2.866425
873.7225, 2.665653
874.2047, 1.968061
874.6868, 1.104292
875.1689, 0.4492050
875.6510, 3.8616002E-02
876.1331, 0.1473500
876.6152, 1.484522
877.0974, 2.700251
877.5795, 2.927130
878.0616, 2.544819
878.5437, 1.882189
879.0258, 1.142410
879.5079, 0.6934890
879.9901, 0.7659050
880.4722, 1.184813
880.9543, 2.000420
881.4364, 2.940003
881.9185, 2.887314
882.4006, 1.860941
882.8828, 1.217323
883.3649, 1.591709
883.8470, 2.348183
884.3291, 2.645531
884.8112, 2.494307
885.2933, 2.160101
885.7755, 1.492351
886.2576, 1.065527
886.7397, 1.100028
887.2218, 1.270461
887.7039, 1.359891
888.1860, 1.375334
888.6682, 1.379269
889.1503, 1.451937
889.6324, 1.341048
890.1145, 0.6939510
890.5966, 0.1981580
891.0787, 0.2570760
891.5609, 0.6667350
892.0430, 1.295240
892.5251, 2.033165
893.0072, 2.427645
893.4893, 2.016953
893.9714, 1.416371
894.4536, 1.244944
894.9357, 1.283358
895.4178, 1.059952
895.8999, 0.6213850
896.3820, 0.5632550
896.8641, 1.216014
897.3463, 1.891129
897.8284, 1.293087
898.3105, 0.3298010
898.7926, 0.8795760
899.2747, 0.2780300
899.7568, 0.3399370
900.2390, 0.6458830
900.7211, 0.8033550
901.2032, 0.9461050
901.6853, 1.085860
902.1674, 1.326240
902.6495, 1.974032
903.1317, 2.082748
903.6138, 0.9911350
904.0959, 7.0963003E-02
904.5780, 0.1618180
905.0601, 0.6626700
905.5422, 0.7296990
906.0244, 0.2755550
906.5065, 0.1400070
906.9886, 0.5749300
907.4707, 0.7093200
907.9528, 4.3673001E-02
908.4349, 0.7467030
908.9171, 0.8508370
909.3992, 0.4107680
909.8813, 0.1234650
910.3634, 0.2867780
910.8455, 0.7474760
911.3276, 1.800246
911.8098, 2.817289
912.2919, 2.442075
912.7740, 1.078352
913.2561, 0.3203500
913.7382, 0.5920870
914.2203, 1.088075
914.7025, 1.063227
915.1846, 0.6768330
915.6667, 0.4165420
916.1488, 0.2835740
916.6309, 5.9520002E-03
917.1130, 0.5567570
917.5952, 0.8893840
918.0773, 0.7212340
918.5594, 0.2162960
919.0415, 0.4032940
919.5236, 1.091381
920.0057, 1.676244
920.4879, 2.461959
920.9700, 2.682764
921.4521, 1.557277
921.9342, 0.3684590
922.4163, 4.2667001E-02
922.8984, 0.3764200
923.3806, 0.7526070
923.8627, 1.181577
924.3448, 1.444259
924.8269, 1.447392
925.3090, 1.289193
925.7911, 0.9292850
926.2733, 0.4997530
926.7554, 7.3169999E-02
927.2375, 0.2779690
927.7196, 0.2555810
928.2017, 0.6538330
928.6838, 1.423374
929.1660, 0.6157980
929.6481, 0.6779860
930.1302, 0.4388280
930.6123, 1.007694
931.0944, 2.035811
931.5765, 1.993231
932.0587, 1.513568
932.5408, 1.226083
933.0229, 1.075679
933.5050, 1.124976
933.9871, 1.343061
934.4692, 1.254258
934.9514, 0.7343010
935.4335, 0.4854520
935.9156, 1.032079
936.3977, 1.951894
936.8798, 2.055922
937.3619, 1.065203
937.8441, 0.9734960
938.3262, 2.200402
938.8083, 3.128087
939.2904, 3.125266
939.7725, 2.729263
940.2546, 2.433701
940.7368, 2.230456
941.2189, 2.040242
941.7010, 1.693855
942.1831, 1.616548
942.6652, 2.332086
943.1473, 2.766962
943.6295, 2.095573
944.1116, 0.9851520
944.5937, 0.3163650
945.0758, 0.1993890
945.5579, 0.3411040
946.0400, 0.9445650
946.5222, 1.410448
947.0043, 1.325255
947.4864, 1.040227
947.9685, 0.7042210
948.4506, 0.4978460
948.9327, 0.8270790
949.4149, 1.849315
949.8970, 2.793131
950.3791, 2.922097
950.8612, 2.673885
951.3433, 2.640234
951.8254, 2.713065
952.3076, 2.533097
952.7897, 2.089790
953.2718, 1.779134
953.7539, 1.868486
954.2360, 2.126790
954.7181, 2.183995
955.2002, 2.068188
955.6823, 1.911701
956.1644, 1.705209
956.6465, 1.466010
957.1287, 1.263653
957.6108, 1.144970
958.0929, 1.163889
958.5750, 1.309951
959.0571, 1.593256
959.5392, 2.108483
960.0214, 2.227615
960.5035, 1.693782
960.9856, 1.364343
961.4677, 1.830406
961.9498, 2.450794
962.4319, 2.259585
962.9141, 1.232902
963.3962, 0.6945210
963.8783, 0.9831360
964.3604, 1.234534
964.8425, 1.218327
965.3246, 1.288339
965.8068, 1.850332
966.2889, 2.560247
966.7710, 2.864523
967.2531, 2.683105
967.7352, 2.450106
968.2173, 2.315764
968.6995, 2.070782
969.1816, 1.503267
969.6637, 0.8951420
970.1458, 0.3325040
970.6279, 2.0419000E-02
971.1100, 0.3086190
971.5922, 1.592767
972.0743, 2.561586
972.5564, 2.138185
973.0385, 1.404422
973.5206, 1.284869
974.0027, 1.517297
974.4849, 1.759995
974.9670, 1.840131
975.4491, 1.464922
975.9312, 0.3793760
976.4133, 0.5206590
976.8954, 3.5002001E-02
977.3776, 1.153811
977.8597, 2.017755
978.3418, 2.468830
978.8239, 2.283444
979.3060, 1.479630
979.7881, 0.7593270
980.2703, 0.7160040
980.7524, 1.008924
981.2345, 0.7646860
981.7166, 0.1479600
982.1987, 0.3644650
982.6808, 1.464800
983.1630, 2.080615
983.6451, 1.630195
984.1272, 1.059089
984.6093, 1.470448
985.0914, 2.549774
985.5735, 2.909969
986.0557, 2.516954
986.5378, 1.696558
987.0199, 0.2396670
987.5020, 0.7262900
987.9841, 0.3639630
988.4662, 0.5020720
988.9484, 0.6116500
989.4305, 5.8639999E-02
989.9126, 0.3050300
990.3947, 0.2113800
990.8768, 0.5508860
991.3589, 0.5462010
991.8411, 0.4113040
992.3232, 2.6190000E-02
992.8053, 0.2896710
993.2874, 0.2604490
993.7695, 1.934098
994.2516, 2.579102
994.7338, 0.6104090
995.2159, 0.2162400
995.6980, 2.206890
996.1801, 4.621523
996.6622, 4.565690
997.1443, 3.002168
997.6265, 1.943350
998.1086, 1.687889
998.5907, 1.689943
999.0728, 2.006915
999.5549, 2.317202
1000.037, 2.666245
1000.519, 2.795856
1001.001, 2.217566
1001.483, 1.254375
1001.966, 0.8004140
1002.448, 1.171925
1002.930, 1.545641
1003.412, 1.597515
1003.894, 1.414489
1004.376, 0.6530970
1004.858, 6.3001998E-02
1005.340, 0.3640030
1005.822, 1.649242
1006.305, 2.332058
1006.787, 1.699119
1007.269, 1.053270
1007.751, 1.711850
1008.233, 2.740579
1008.715, 3.007572
1009.197, 2.809985
1009.679, 2.855019
1010.161, 3.193948
1010.644, 3.350457
1011.126, 3.042236
1011.608, 2.520645
1012.090, 1.915611
1012.572, 1.391361
1013.054, 1.346403
1013.536, 1.670737
1014.018, 2.059752
1014.501, 2.396356
1014.983, 2.395123
1015.465, 1.785741
1015.947, 1.127863
1016.429, 1.590603
1016.911, 2.781038
1017.393, 3.070151
1017.875, 2.532188
1018.357, 2.301631
1018.840, 2.692119
1019.322, 3.104686
1019.804, 3.051288
1020.286, 2.693198
1020.768, 2.312636
1021.250, 1.929980
1021.732, 1.887155
1022.214, 2.208951
1022.697, 2.416426
1023.179, 2.355805
1023.661, 2.145185
1024.143, 1.875234
1024.625, 1.563765
1025.107, 1.209460
1025.589, 0.7780890
1026.071, 0.7481260
1026.553, 1.176385
1027.036, 1.866928
1027.518, 2.893613
1028.000, 3.696950
1028.482, 3.681736
1028.964, 3.055565
1029.446, 2.519240
1029.928, 2.042862
1030.410, 1.791419
1030.892, 1.925694
1031.375, 1.810826
1031.857, 1.038577
1032.339, 0.2488050
1032.821, 6.0008001E-02
1033.303, 0.4107750
1033.785, 1.033613
1034.267, 2.163360
1034.749, 2.910825
1035.232, 3.264888
1035.714, 3.159867
1036.196, 2.265641
1036.678, 1.252870
1037.160, 0.7545220
1037.642, 0.7297320
1038.124, 0.9581850
1038.606, 1.708412
1039.089, 2.181984
1039.571, 2.350279
1040.053, 2.273852
1040.535, 1.744374
1041.017, 1.146704
1041.499, 0.8237440
1041.981, 0.7567760
1042.463, 0.8520100
1042.945, 1.087697
1043.427, 1.525293
1043.910, 2.794241
1044.392, 3.484819
1044.874, 2.723462
1045.356, 1.395982
1045.838, 0.2035920
1046.320, 0.7006250
1046.802, 0.8371370
1047.284, 0.3002120
1047.767, 1.117910
1048.249, 1.237189
1048.731, 1.279716
1049.213, 1.428308
1049.695, 1.676986
1050.177, 2.226840
1050.659, 2.864602
1051.141, 2.819807
1051.624, 1.528725
1052.106, 0.6451370
1052.588, 0.8288810
1053.070, 1.091905
1053.552, 1.009493
1054.034, 0.8719170
1054.516, 0.9144950
1054.998, 1.147297
1055.480, 1.446849
1055.963, 1.855986
1056.445, 2.093473
1056.927, 2.105772
1057.409, 1.899174
1057.891, 1.156346
1058.373, 0.4467280
1058.855, 0.3550630
1059.337, 0.7875660
1059.819, 1.353094
1060.302, 2.009929
1060.784, 2.566515
1061.266, 3.088164
1061.748, 3.337273
1062.230, 3.005266
1062.712, 2.485008
1063.194, 2.071867
1063.676, 1.849328
1064.159, 2.012638
1064.641, 2.688021
1065.123, 3.135672
1065.605, 3.035439
1066.087, 2.607436
1066.569, 1.560463
1067.051, 0.6048350
1067.533, 0.6293610
1068.016, 1.246159
1068.498, 1.343174
1068.980, 0.6151240
1069.462, 0.1997200
1069.944, 0.8767790
1070.426, 1.619492
1070.908, 1.879020
1071.390, 1.968684
1071.872, 2.234576
1072.354, 2.559092
1072.837, 2.561692
1073.319, 2.172328
1073.801, 2.007325
1074.283, 2.833545
1074.765, 3.397726
1075.247, 2.636700
1075.729, 1.719027
1076.211, 1.674285
1076.694, 2.175731
1077.176, 2.535797
1077.658, 2.616382
1078.140, 2.578728
1078.622, 2.566431
1079.104, 2.340138
1079.586, 1.339555
1080.068, 0.5099620
1080.550, 0.8335640
1081.033, 1.745206
1081.515, 2.349427
1081.997, 2.521025
1082.479, 2.629135
1082.961, 2.931665
1083.443, 2.963014
1083.925, 2.293492
1084.407, 1.496878
1084.890, 0.8943110
1085.372, 0.4862320
1085.854, 0.1902410
1086.336, 3.6125001E-02
1086.818, 0.2444260
1087.300, 1.136270
1087.782, 1.776258
1088.264, 1.541108
1088.746, 1.149179
1089.229, 0.8924060
1089.711, 0.8622570
1090.193, 1.398100
1090.675, 2.228945
1091.157, 2.368087
1091.639, 1.338302
1092.121, 0.5899830
1092.603, 0.8266220
1093.085, 1.289591
1093.568, 1.786178
1094.050, 2.155546
1094.532, 2.193755
1095.014, 2.003729
1095.496, 1.881556
1095.978, 1.913050
1096.460, 1.778088
1096.942, 0.9127510
1097.425, 0.4159960
1097.907, 1.052285
1098.389, 1.909211
1098.871, 2.414935
1099.353, 2.543818
1099.835, 2.249076
1100.317, 1.528412
1100.799, 1.006983
1101.281, 0.7919310
1101.764, 0.8651150
1102.246, 1.622106
1102.728, 2.236975
1103.210, 1.928610
1103.692, 1.316771
1104.174, 1.394205
1104.656, 2.153719
1105.138, 2.447371
1105.620, 1.601257
1106.103, 0.9515540
1106.585, 0.8797510
1107.067, 0.8345480
1107.549, 0.4301980
1108.031, 3.5567999E-02
1108.513, 8.5081004E-02
1108.995, 0.5075820
1109.477, 0.9422250
1109.960, 1.581809
1110.442, 1.687783
1110.924, 0.2827570
1111.406, 0.4336400
1111.888, 0.9729580
1112.370, 2.557085
1112.852, 2.722940
1113.334, 1.903588
1113.817, 1.127502
1114.299, 0.2252430
1114.781, 0.1642700
1115.263, 1.971954
1115.745, 2.911759
1116.227, 1.797698
1116.709, 0.7320330
1117.191, 1.196812
1117.673, 2.228855
1118.156, 2.081423
1118.638, 2.679394
1119.120, 3.415999
1119.602, 3.021207
1120.084, 4.299748
1120.566, 4.019388
1121.048, 3.137026
1121.530, 1.773685
1122.012, 0.4353010
1122.495, 0.3278800
1122.977, 0.5455080
1123.459, 0.3100060
1123.941, 0.5629450
1124.423, 1.081762
1124.905, 1.074371
1125.387, 1.323981
1125.869, 2.228152
1126.352, 2.899438
1126.834, 2.501786
1127.316, 1.531849
1127.798, 1.243260
1128.280, 1.667933
1128.762, 1.766747
1129.244, 1.489912
1129.726, 1.514699
1130.208, 2.059717
1130.691, 2.004510
1131.173, 0.5629900
1131.655, 1.067050
1132.137, 1.030150
1132.619, 0.3169340
1133.101, 1.360173
1133.583, 2.093321
1134.065, 2.131015
1134.547, 1.484979
1135.030, 1.384051
1135.512, 2.312703
1135.994, 3.153483
1136.476, 2.802011
1136.958, 1.741590
1137.440, 0.7590280
1137.922, 2.5114000E-02
1138.404, 4.7056001E-02
1138.887, 0.7721640
1139.369, 0.9987520
1139.851, 0.5219070
1140.333, 0.1483140
1140.815, 0.3907960
1141.297, 0.8709000
1141.779, 1.169009
1142.261, 1.337797
1142.744, 1.575331
1143.226, 1.718736
1143.708, 1.212202
1144.190, 0.2258760
1144.672, 0.4716630
1145.154, 0.5743230
1145.636, 0.1347790
1146.118, 1.358030
1146.600, 2.660451
1147.083, 2.090778
1147.565, 0.9119630
1148.047, 0.7171710
1148.529, 1.216638
1149.011, 1.549722
1149.493, 1.559240
1149.975, 1.607190
1150.457, 1.888594
1150.939, 2.171700
1151.422, 2.489510
1151.904, 2.574851
1152.386, 2.090234
1152.868, 1.363986
1153.350, 0.5293540
1153.832, 0.1481800
1154.314, 0.1077260
1154.796, 1.668809
1155.279, 2.577222
1155.761, 1.679509
1156.243, 0.8627210
1156.725, 0.6801640
1157.207, 0.9034880
1157.689, 1.684663
1158.171, 2.587595
1158.653, 2.894196
1159.135, 2.581363
1159.618, 2.294818
1160.100, 1.866365
1160.582, 1.816030
1161.064, 2.709491
1161.546, 3.163104
1162.028, 2.311613
1162.510, 1.312684
1162.992, 1.328246
1163.474, 1.966867
1163.957, 1.965029
1164.439, 1.145890
1164.921, 0.6413510
1165.403, 0.4041240
1165.885, 0.7396240
1166.367, 1.927837
1166.849, 2.965226
1167.331, 3.299693
1167.813, 3.075720
1168.296, 2.404804
1168.778, 1.444139
1169.260, 1.183114
1169.742, 0.8203850
1170.224, 0.5581570
1170.706, 0.8792760
1171.188, 0.6547810
1171.670, 1.291285
1172.153, 1.912169
1172.635, 1.769594
1173.117, 1.432719
1173.599, 2.134461
1174.081, 3.360957
1174.563, 3.463866
1175.045, 2.751145
1175.527, 2.289070
1176.010, 2.241973
1176.492, 2.368138
1176.974, 2.554569
1177.456, 2.735890
1177.938, 2.935190
1178.420, 2.995372
1178.902, 2.700316
1179.384, 2.214349
1179.866, 1.524632
1180.349, 0.8924470
1180.831, 1.088846
1181.313, 2.029645
1181.795, 2.402682
1182.277, 1.399683
1182.759, 0.5178970
1183.241, 0.7324650
1183.723, 1.117537
1184.205, 1.017437
1184.688, 0.8724530
1185.170, 1.198334
1185.652, 1.831321
1186.134, 2.364193
1186.616, 2.747973
1187.098, 2.901407
1187.580, 2.722370
1188.062, 2.448530
1188.545, 1.882607
1189.027, 1.560463
1189.509, 1.786611
1189.991, 2.127551
1190.473, 2.154152
1190.955, 1.910539
1191.437, 1.837276
1191.919, 1.983804
1192.401, 2.076078
1192.884, 2.081714
1193.366, 2.183789
1193.848, 2.493506
1194.330, 2.551597
1194.812, 1.991535
1195.294, 1.428586
1195.776, 1.825291
1196.258, 2.862346
1196.740, 3.128853
1197.223, 2.680598
1197.705, 1.982459
1198.187, 1.141923
1198.669, 0.8263300
1199.151, 1.180697
1199.633, 1.478441
1200.115, 1.200471
1200.597, 0.7962890
1201.080, 0.8509120
1201.562, 1.176987
1202.044, 1.656754
1202.526, 2.020810
1203.008, 1.635394
1203.490, 0.7891280
1203.972, 0.4147820
1204.454, 0.7433860
1204.937, 1.096838
1205.419, 0.9452050
1205.901, 1.006870
1206.383, 2.135557
1206.865, 3.118629
1207.347, 2.844320
1207.829, 2.006676
1208.311, 1.400903
1208.793, 1.059882
1209.276, 0.7594580
1209.758, 0.4641690
1210.240, 0.2100130
1210.722, 5.8830999E-02
1211.204, 0.2001110
1211.686, 0.3306270
1212.168, 0.1264020
1212.650, 0.9268900
1213.132, 1.955770
1213.615, 1.782468
1214.097, 0.7282870
1214.579, 0.3915330
1215.061, 0.9553400
1215.543, 1.336088
1216.025, 1.527377
1216.507, 1.498518
1216.989, 1.202725
1217.472, 1.038501
1217.954, 1.240839
1218.436, 1.658597
1218.918, 2.149268
1219.400, 2.635240
1219.882, 2.860134
1220.364, 2.850753
1220.846, 2.508198
1221.328, 1.971822
1221.811, 1.857362
1222.293, 2.219482
1222.775, 2.419064
1223.257, 2.095217
1223.739, 1.538835
1224.221, 0.6161510
1224.703, 6.8180002E-03
1225.185, 0.6211370
1225.667, 1.737079
1226.150, 2.811165
1226.632, 3.558718
1227.114, 3.501002
1227.596, 2.667058
1228.078, 1.953815
1228.560, 1.624120
1229.042, 1.433179
1229.524, 1.329573
1230.007, 1.349395
1230.489, 1.830950
1230.971, 2.100795
1231.453, 1.348298
1231.935, 0.2467890
1232.417, 8.1588998E-02
1232.899, 0.8469380
1233.381, 1.736680
1233.864, 3.029290
1234.346, 2.982785
1234.828, 1.122621
1235.310, 3.6432002E-02
1235.792, 0.3804210
1236.274, 1.282435
1236.756, 1.860774
1237.238, 2.214200
1237.720, 2.575943
1238.203, 2.836782
1238.685, 2.475093
1239.167, 1.735967
1239.649, 1.364752
1240.131, 1.403450
1240.613, 1.647147
1241.095, 2.016669
1241.577, 2.533112
1242.059, 3.375043
1242.542, 3.787441
1243.024, 2.670639
1243.506, 1.427015
1243.988, 1.419658
1244.470, 1.772875
1244.952, 1.421503
1245.434, 0.6035180
1245.916, 6.2027998E-02
1246.398, 0.4741720
1246.881, 0.3353120
1247.363, 1.112339
1247.845, 1.919661
1248.327, 1.491185
1248.809, 1.113162
1249.291, 1.067886
1249.773, 1.231141
1250.255, 1.620219
1250.738, 2.041820
1251.220, 2.083269
1251.702, 1.793817
1252.184, 1.771951
1252.666, 2.016466
1253.148, 2.401754
1253.630, 2.894843
1254.112, 3.168196
1254.594, 3.116679
1255.077, 2.772160
1255.559, 2.154671
1256.041, 1.537053
1256.523, 1.222058
1257.005, 1.175508
1257.487, 1.617922
1257.969, 2.118114
1258.451, 1.816620
1258.933, 1.083899
1259.416, 0.9314760
1259.898, 1.460446
1260.380, 1.854362
1260.862, 1.843950
1261.344, 1.814919
1261.826, 2.179173
1262.308, 2.174451
1262.790, 0.8775630
1263.273, 0.2316130
1263.755, 0.1855750
1264.237, 1.209890
1264.719, 1.434642
1265.201, 0.9981580
1265.683, 1.024463
1266.165, 1.905433
1266.647, 2.423741
1267.130, 2.414455
1267.612, 2.307573
1268.094, 2.205416
1268.576, 1.946239
1269.058, 1.425146
1269.540, 0.9280150
1270.022, 0.8097850
1270.504, 0.9018180
1270.986, 0.9003250
1271.469, 0.8816840
1271.951, 1.060085
1272.433, 1.310194
1272.915, 1.344074
1273.397, 1.154917
1273.879, 0.9034460
1274.361, 0.4479510
1274.843, 0.2794800
1275.325, 0.4102880
1275.808, 0.4700330
1276.290, 8.2741000E-02
1276.772, 0.1602630
1277.254, 0.3013500
1277.736, 0.8978260
1278.218, 0.9734160
1278.700, 0.7182550
1279.182, 0.6670740
1279.665, 0.8392300
1280.147, 0.8914370
1280.629, 0.7621990
1281.111, 0.5333490
1281.593, 0.7490970
1282.075, 1.151329
1282.557, 1.746558
1283.039, 1.898491
1283.521, 0.9995000
1284.004, 3.1280001E-03
1284.486, 0.0000000E+00
##END=



