##NAMES=Hellyerite
##RRUFFID=R061050
##IDEAL CHEMISTRY=Ni^2+^CO_3_&#183;6H_2_O
##LOCALITY=Lord Brassy mine, Tasmania, Australia
##OWNER=RRUFF
##SOURCE=Michael Scott
##DESCRIPTION=Apple green colored, lamellar, fragmented crystals, amorphous, apparently dehydrated
##STATUS=The identification of this mineral is not yet confirmed.
##URL=rruff.info/R061050
127.3132, 0.0000000E+00
127.7953, 6.813599
128.2774, 27.56593
128.7595, 53.82922
129.2416, 73.58029
129.7238, 83.13873
130.2059, 89.88712
130.6880, 98.86197
131.1701, 109.4289
131.6522, 119.6122
132.1343, 132.7260
132.6165, 146.2632
133.0986, 146.6283
133.5807, 125.0401
134.0628, 106.3179
134.5449, 90.61157
135.0270, 80.01544
135.5092, 70.92377
135.9913, 59.24933
136.4734, 45.12729
136.9555, 33.16129
137.4376, 24.27197
137.9197, 17.23117
138.4019, 12.12106
138.8840, 8.559082
139.3661, 5.149200
139.8482, 0.5982670
140.3303, 9.681915
140.8124, 13.53592
141.2946, 7.222473
141.7767, 1.191589
142.2588, 7.723358
142.7409, 12.45883
143.2230, 18.82083
143.7051, 31.66925
144.1873, 53.64490
144.6694, 72.38629
145.1515, 85.49142
145.6336, 97.10471
146.1157, 108.9933
146.5979, 121.6015
147.0800, 134.7219
147.5621, 148.8998
148.0442, 167.2333
148.5263, 178.9007
149.0084, 181.7053
149.4906, 180.4978
149.9727, 177.3855
150.4548, 173.2299
150.9369, 168.7965
151.4190, 165.4299
151.9011, 164.5317
152.3833, 162.0734
152.8654, 158.3490
153.3475, 153.1100
153.8296, 145.6764
154.3117, 136.0295
154.7938, 125.3362
155.2760, 115.8982
155.7581, 109.5507
156.2402, 101.6783
156.7223, 88.94479
157.2044, 76.43460
157.6865, 69.07114
158.1687, 68.49652
158.6508, 72.06100
159.1329, 74.18835
159.6150, 70.87872
160.0971, 71.39093
160.5792, 82.17819
161.0614, 94.09216
161.5435, 95.63477
162.0256, 82.45883
162.5077, 62.14395
162.9898, 52.25412
163.4719, 64.06363
163.9541, 73.75681
164.4362, 80.04712
164.9183, 84.00363
165.4004, 86.39810
165.8825, 87.50354
166.3646, 87.99518
166.8468, 89.63593
167.3289, 96.19421
167.8110, 99.19687
168.2931, 95.75504
168.7752, 88.87286
169.2573, 81.99646
169.7395, 76.39569
170.2216, 74.54956
170.7037, 74.02896
171.1858, 77.05917
171.6679, 79.88330
172.1500, 83.00272
172.6322, 85.29657
173.1143, 84.55795
173.5964, 79.53024
174.0785, 72.01413
174.5606, 67.50238
175.0427, 66.36969
175.5249, 65.48297
176.0070, 64.11481
176.4891, 63.38150
176.9712, 63.05573
177.4533, 63.80969
177.9354, 65.28732
178.4176, 65.52560
178.8997, 64.68033
179.3818, 62.85736
179.8639, 59.71188
180.3460, 55.46564
180.8281, 50.46539
181.3103, 43.90381
181.7924, 36.90106
182.2745, 32.86661
182.7566, 32.91055
183.2387, 33.27631
183.7208, 33.69519
184.2030, 33.66895
184.6851, 32.63586
185.1672, 27.85211
185.6493, 21.58899
186.1314, 18.23798
186.6135, 17.94943
187.0957, 19.32248
187.5778, 23.04791
188.0599, 28.08139
188.5420, 32.95303
189.0241, 37.67957
189.5062, 40.75980
189.9884, 37.46564
190.4705, 24.14920
190.9526, 13.70078
191.4347, 11.81961
191.9168, 15.20810
192.3989, 17.01233
192.8811, 13.88708
193.3632, 9.433197
193.8453, 12.58087
194.3274, 26.88300
194.8095, 38.35141
195.2916, 41.20557
195.7738, 38.32144
196.2559, 34.87888
196.7380, 32.32333
197.2201, 30.78552
197.7022, 30.81128
198.1843, 32.35529
198.6665, 34.08047
199.1486, 37.35950
199.6307, 40.69073
200.1128, 41.01810
200.5949, 37.13687
201.0770, 30.60727
201.5592, 23.50345
202.0413, 14.93777
202.5234, 8.628326
203.0055, 5.185303
203.4876, 4.756378
203.9697, 8.433960
204.4519, 17.26062
204.9340, 27.96725
205.4161, 36.05600
205.8982, 42.88229
206.3803, 43.59357
206.8624, 29.50397
207.3446, 10.39725
207.8267, 3.193054
208.3088, 13.67853
208.7909, 30.48737
209.2730, 35.64020
209.7551, 27.60962
210.2373, 21.81512
210.7194, 26.44232
211.2015, 33.37875
211.6836, 29.18118
212.1657, 9.766205
212.6478, 12.24232
213.1300, 19.83037
213.6121, 11.61172
214.0942, 2.715729
214.5763, 7.163849
215.0584, 15.42032
215.5405, 17.94254
216.0227, 13.82498
216.5048, 7.719177
216.9869, 4.510834
217.4690, 4.426788
217.9511, 5.547546
218.4332, 9.435120
218.9154, 13.50896
219.3975, 15.36972
219.8796, 14.68382
220.3617, 12.00166
220.8438, 6.806213
221.3259, 1.373428
221.8081, 5.073761
222.2902, 1.148849
222.7723, 5.439117
223.2544, 12.61411
223.7365, 19.68190
224.2186, 22.58080
224.7008, 16.06302
225.1829, 0.4459230
225.6650, 9.176971
226.1471, 3.657959
226.6292, 4.359833
227.1113, 7.031906
227.5935, 4.564285
228.0756, 1.500824
228.5577, 1.313583
229.0398, 3.879272
229.5219, 5.114914
230.0040, 4.135712
230.4862, 2.791794
230.9683, 1.321823
231.4504, 0.1283870
231.9325, 0.7922970
232.4146, 5.083405
232.8967, 12.05861
233.3789, 13.73975
233.8610, 3.483231
234.3431, 4.016220
234.8252, 0.9921880
235.3073, 8.915970
235.7894, 17.24884
236.2716, 19.39058
236.7537, 16.61880
237.2358, 14.45537
237.7179, 13.41574
238.2000, 12.27831
238.6821, 10.60045
239.1643, 8.687866
239.6464, 7.277054
240.1285, 6.780396
240.6106, 6.502380
241.0927, 4.493912
241.5748, 3.952255
242.0570, 8.234970
242.5391, 4.198273
243.0212, 3.124527
243.5033, 7.923798
243.9854, 8.182098
244.4675, 5.858185
244.9497, 4.564636
245.4318, 5.115112
245.9139, 5.542282
246.3960, 6.325821
246.8781, 6.720184
247.3602, 5.241852
247.8424, 1.867264
248.3245, 1.070160
248.8066, 0.2510990
249.2887, 5.727798
249.7708, 12.49240
250.2529, 23.74828
250.7351, 32.93527
251.2172, 34.02469
251.6993, 27.53229
252.1814, 19.70547
252.6635, 17.55974
253.1456, 22.73744
253.6278, 25.60901
254.1099, 25.11285
254.5920, 23.59901
255.0741, 21.30997
255.5562, 18.77704
256.0384, 16.99654
256.5205, 16.88206
257.0026, 18.45967
257.4847, 20.02576
257.9668, 21.20094
258.4489, 22.92000
258.9311, 27.14345
259.4132, 31.72928
259.8953, 33.55009
260.3774, 31.59813
260.8595, 26.59541
261.3416, 22.15727
261.8238, 16.73053
262.3059, 14.25874
262.7880, 16.37315
263.2701, 21.40411
263.7522, 28.76668
264.2343, 38.87892
264.7165, 47.83496
265.1986, 43.99663
265.6807, 16.57172
266.1628, 0.5553280
266.6449, 7.219803
267.1270, 22.40211
267.6092, 30.15205
268.0913, 26.00696
268.5734, 17.61055
269.0555, 16.95894
269.5376, 26.83234
270.0197, 31.66331
270.5019, 18.70897
270.9840, 5.473679
271.4661, 5.667572
271.9482, 20.05544
272.4303, 34.98486
272.9124, 35.79918
273.3946, 22.87735
273.8767, 14.63040
274.3588, 15.26695
274.8409, 19.08275
275.3230, 24.04962
275.8051, 29.33998
276.2873, 31.28520
276.7694, 23.52351
277.2515, 10.19658
277.7336, 6.946274
278.2157, 19.32761
278.6978, 31.93163
279.1800, 33.14214
279.6621, 26.34044
280.1442, 19.31013
280.6263, 13.71622
281.1084, 9.465881
281.5905, 6.656387
282.0727, 5.354935
282.5548, 5.262909
283.0369, 7.063751
283.5190, 9.331177
284.0011, 10.27051
284.4832, 7.134262
284.9654, 4.969772
285.4475, 8.782257
285.9296, 17.77971
286.4117, 27.18729
286.8938, 35.67438
287.3759, 42.48322
287.8581, 46.30504
288.3402, 47.31543
288.8223, 45.52080
289.3044, 37.28041
289.7865, 26.65047
290.2686, 22.62569
290.7508, 28.64577
291.2329, 38.82953
291.7150, 43.82576
292.1971, 42.55443
292.6792, 39.44508
293.1613, 32.42293
293.6435, 24.97624
294.1256, 21.58551
294.6077, 22.80615
295.0898, 24.55185
295.5719, 21.84755
296.0540, 12.92809
296.5362, 9.828537
297.0183, 17.35088
297.5004, 26.18530
297.9825, 31.20525
298.4646, 32.35435
298.9467, 32.34882
299.4289, 32.79916
299.9110, 33.67451
300.3931, 33.57489
300.8752, 32.13509
301.3573, 30.81119
301.8394, 28.89352
302.3216, 26.53757
302.8037, 24.55779
303.2858, 23.32716
303.7679, 23.13448
304.2500, 24.08499
304.7321, 27.88231
305.2143, 30.16389
305.6964, 28.54520
306.1785, 26.68768
306.6606, 28.54234
307.1427, 34.61258
307.6248, 40.76749
308.1070, 39.82851
308.5891, 28.98125
309.0712, 22.30757
309.5533, 25.95450
310.0354, 29.74156
310.5175, 27.95215
310.9997, 21.27245
311.4818, 14.84283
311.9639, 12.42531
312.4460, 13.81787
312.9281, 17.75319
313.4102, 27.80627
313.8924, 34.65358
314.3745, 33.23238
314.8566, 25.87064
315.3387, 16.26137
315.8208, 2.431381
316.3029, 9.866333
316.7851, 8.430038
317.2672, 9.320923
317.7493, 24.71634
318.2314, 27.11392
318.7135, 22.83540
319.1956, 20.76881
319.6778, 22.41388
320.1599, 25.12067
320.6420, 28.12408
321.1241, 30.94623
321.6062, 31.16118
322.0883, 27.65608
322.5705, 21.79308
323.0526, 14.36992
323.5347, 4.369324
324.0168, 1.489563
324.4989, 3.332977
324.9810, 11.90718
325.4632, 15.13364
325.9453, 11.50627
326.4274, 5.873810
326.9095, 2.737839
327.3916, 2.445999
327.8737, 2.582809
328.3559, 1.844788
328.8380, 2.665161
329.3201, 8.656036
329.8022, 17.80527
330.2843, 23.62880
330.7664, 21.50662
331.2486, 13.32233
331.7307, 9.746902
332.2128, 14.75650
332.6949, 19.68538
333.1770, 23.13490
333.6591, 25.99460
334.1413, 30.62383
334.6234, 37.65306
335.1055, 43.26414
335.5876, 39.69682
336.0697, 20.06999
336.5518, 6.790375
337.0340, 2.670166
337.5161, 2.223602
337.9982, 3.424637
338.4803, 5.494232
338.9624, 7.505005
339.4445, 8.394684
339.9267, 8.230286
340.4088, 9.100616
340.8909, 11.25156
341.3730, 14.21637
341.8551, 19.48988
342.3372, 25.11359
342.8194, 27.40782
343.3015, 23.64467
343.7836, 17.23112
344.2657, 13.75940
344.7478, 13.38500
345.2299, 13.84720
345.7121, 16.12569
346.1942, 18.13512
346.6763, 16.55711
347.1584, 10.42896
347.6405, 6.136902
348.1227, 11.47520
348.6048, 23.33588
349.0869, 29.10034
349.5690, 24.26929
350.0511, 17.28125
350.5332, 19.61209
351.0154, 31.12891
351.4975, 38.75070
351.9796, 38.90421
352.4617, 35.09119
352.9438, 29.40785
353.4259, 22.36655
353.9081, 15.29572
354.3902, 8.490021
354.8723, 2.333801
355.3544, 1.543213
355.8365, 11.77237
356.3186, 19.74445
356.8008, 21.84622
357.2829, 19.32027
357.7650, 12.86549
358.2471, 2.747345
358.7292, 7.793343
359.2113, 12.38804
359.6935, 8.227150
360.1756, 2.779053
360.6577, 7.523331
361.1398, 16.17508
361.6219, 18.03171
362.1040, 13.49721
362.5862, 6.978622
363.0683, 1.317368
363.5504, 3.399620
364.0325, 1.744263
364.5146, 13.29074
364.9967, 25.30397
365.4789, 25.95639
365.9610, 20.94460
366.4431, 18.63110
366.9252, 23.74350
367.4073, 31.04259
367.8894, 31.13330
368.3716, 23.09418
368.8537, 17.33092
369.3358, 18.25793
369.8179, 22.25339
370.3000, 25.67328
370.7821, 28.48511
371.2643, 29.77892
371.7464, 28.29858
372.2285, 25.05767
372.7106, 21.67336
373.1927, 18.16853
373.6748, 15.92909
374.1570, 16.89662
374.6391, 21.68979
375.1212, 23.62114
375.6033, 18.47093
376.0854, 12.47388
376.5675, 8.025925
377.0497, 5.714737
377.5318, 7.036163
378.0139, 13.10762
378.4960, 22.35246
378.9781, 29.93613
379.4602, 39.48578
379.9424, 42.41124
380.4245, 33.24356
380.9066, 20.57535
381.3887, 10.98853
381.8708, 5.918427
382.3529, 4.446564
382.8351, 5.188904
383.3172, 7.369278
383.7993, 11.20723
384.2814, 19.91798
384.7635, 26.83571
385.2456, 29.43559
385.7278, 28.81293
386.2099, 26.88394
386.6920, 24.28215
387.1741, 21.76590
387.6562, 20.48853
388.1383, 20.44191
388.6205, 21.59721
389.1026, 26.50951
389.5847, 30.80695
390.0668, 29.47018
390.5489, 21.58093
391.0310, 13.75168
391.5132, 10.07468
391.9953, 9.365189
392.4774, 9.133331
392.9595, 9.091599
393.4416, 9.107132
393.9237, 8.887283
394.4059, 8.452316
394.8880, 8.781906
395.3701, 12.01854
395.8522, 14.27077
396.3343, 12.11217
396.8164, 7.107895
397.2986, 3.388062
397.7807, 2.944382
398.2628, 4.603790
398.7449, 5.533768
399.2270, 5.561859
399.7091, 4.976456
400.1913, 3.182297
400.6734, 1.217438
401.1555, 1.021500
401.6376, 2.978264
402.1197, 2.480408
402.6018, 4.048172
403.0840, 16.31160
403.5661, 18.61996
404.0482, 0.6995390
404.5303, 14.03149
405.0124, 8.215363
405.4945, 6.573303
405.9767, 16.78397
406.4588, 16.99312
406.9409, 12.96002
407.4230, 11.61542
407.9051, 12.92770
408.3872, 14.01466
408.8694, 13.36906
409.3515, 13.35127
409.8336, 18.15495
410.3157, 27.40831
410.7978, 32.22853
411.2799, 24.94633
411.7621, 13.95688
412.2442, 9.038483
412.7263, 10.42229
413.2084, 13.39896
413.6905, 15.41803
414.1726, 16.49945
414.6548, 17.74416
415.1369, 18.54533
415.6190, 20.18593
416.1011, 25.49763
416.5832, 30.00180
417.0653, 27.92227
417.5475, 18.74149
418.0296, 8.280197
418.5117, 3.858536
418.9938, 6.214539
419.4759, 9.026566
419.9580, 12.69122
420.4402, 16.38043
420.9223, 22.21425
421.4044, 27.25426
421.8865, 26.14200
422.3686, 14.62279
422.8507, 1.032257
423.3329, 7.949631
423.8150, 5.261826
424.2971, 0.8550260
424.7792, 13.05003
425.2613, 24.38640
425.7434, 26.47426
426.2256, 18.86473
426.7077, 13.92171
427.1898, 22.68285
427.6719, 35.99919
428.1540, 37.77513
428.6361, 26.45743
429.1183, 14.35204
429.6004, 10.04544
430.0825, 12.40184
430.5646, 12.45094
431.0467, 5.441467
431.5288, 2.108276
432.0110, 9.260956
432.4931, 20.55145
432.9752, 27.04335
433.4573, 26.27496
433.9394, 22.67384
434.4215, 21.99500
434.9037, 24.70772
435.3858, 28.51941
435.8679, 37.84082
436.3500, 43.83960
436.8321, 41.44994
437.3142, 33.53098
437.7964, 25.99052
438.2785, 22.07237
438.7606, 19.39305
439.2427, 11.45341
439.7248, 3.588013
440.2069, 10.65927
440.6891, 0.4104160
441.1712, 14.97543
441.6533, 23.67628
442.1354, 25.54677
442.6175, 25.34801
443.0996, 24.35233
443.5818, 22.84042
444.0639, 19.63243
444.5460, 15.03365
445.0281, 15.13765
445.5102, 25.74159
445.9923, 43.60464
446.4745, 52.33081
446.9566, 44.13141
447.4387, 38.25482
447.9208, 41.96817
448.4029, 47.57961
448.8850, 44.66185
449.3672, 32.25868
449.8493, 20.46611
450.3314, 21.64960
450.8135, 37.20953
451.2956, 45.87012
451.7777, 43.04640
452.2599, 38.47316
452.7420, 35.38612
453.2241, 32.41510
453.7062, 26.38016
454.1884, 15.13260
454.6705, 5.172012
455.1526, 5.496155
455.6347, 15.39174
456.1168, 25.82423
456.5989, 37.34311
457.0811, 44.90573
457.5632, 38.75966
458.0453, 21.43535
458.5274, 11.74731
459.0095, 19.24355
459.4916, 30.67145
459.9738, 36.70192
460.4559, 38.31113
460.9380, 39.24791
461.4201, 41.48528
461.9022, 43.54044
462.3843, 41.53912
462.8665, 34.73511
463.3486, 28.48201
463.8307, 19.20148
464.3128, 12.40445
464.7949, 13.05624
465.2770, 19.74367
465.7592, 27.54224
466.2413, 34.16713
466.7234, 38.16568
467.2055, 31.79591
467.6876, 8.618683
468.1697, 5.778107
468.6519, 6.591492
469.1340, 25.70889
469.6161, 33.38702
470.0982, 27.44313
470.5803, 19.48145
471.0624, 14.27769
471.5446, 11.82892
472.0267, 13.70306
472.5088, 20.02342
472.9909, 24.41606
473.4730, 21.78708
473.9551, 13.53477
474.4373, 8.671921
474.9194, 7.674042
475.4015, 8.759338
475.8836, 15.59306
476.3657, 22.22224
476.8478, 20.11830
477.3300, 8.782349
477.8121, 2.672150
478.2942, 3.942657
478.7763, 5.216202
479.2584, 11.34026
479.7405, 13.42276
480.2227, 13.73894
480.7048, 11.53488
481.1869, 8.504669
481.6690, 8.151337
482.1511, 11.80190
482.6332, 15.23969
483.1154, 13.29196
483.5975, 7.732285
484.0796, 5.931656
484.5617, 9.759598
485.0438, 15.04968
485.5259, 19.31334
486.0081, 22.13434
486.4902, 20.65538
486.9723, 5.676804
487.4544, 3.772186
487.9365, 7.022598
488.4186, 26.91696
488.9008, 37.19000
489.3829, 31.83122
489.8650, 20.10007
490.3471, 14.86227
490.8292, 17.51334
491.3113, 19.86205
491.7935, 23.43391
492.2756, 25.00974
492.7577, 21.35165
493.2398, 15.46286
493.7219, 12.84590
494.2040, 16.49284
494.6862, 21.09109
495.1683, 18.27672
495.6504, 9.317947
496.1325, 6.292999
496.6146, 13.31029
497.0967, 23.11212
497.5789, 29.00835
498.0610, 30.96298
498.5431, 31.32303
499.0252, 27.21367
499.5073, 23.79916
499.9894, 25.36935
500.4716, 29.57806
500.9537, 30.91150
501.4358, 27.29143
501.9179, 22.77122
502.4000, 24.47711
502.8821, 35.53850
503.3643, 42.07860
503.8464, 40.86884
504.3285, 38.01582
504.8106, 33.31680
505.2927, 28.90894
505.7748, 29.06473
506.2570, 36.96756
506.7391, 46.11177
507.2212, 46.82271
507.7033, 40.05830
508.1854, 35.70045
508.6675, 35.64076
509.1497, 39.17291
509.6318, 47.57150
510.1139, 60.50102
510.5960, 69.17316
511.0781, 69.78009
511.5602, 68.70111
512.0424, 69.78580
512.5245, 71.80891
513.0066, 69.27301
513.4887, 60.30328
513.9708, 52.87466
514.4529, 61.19345
514.9351, 90.87161
515.4172, 111.9048
515.8993, 122.2903
516.3814, 125.3412
516.8635, 117.0949
517.3456, 103.3963
517.8278, 93.46857
518.3099, 90.57547
518.7920, 94.45056
519.2741, 106.9862
519.7562, 125.6697
520.2383, 138.4082
520.7205, 142.0759
521.2026, 140.9303
521.6847, 136.6178
522.1668, 129.4071
522.6489, 130.6042
523.1310, 150.9854
523.6132, 167.8528
524.0953, 169.7903
524.5774, 163.4306
525.0595, 157.9828
525.5416, 156.6135
526.0237, 157.5292
526.5059, 159.2536
526.9880, 161.6847
527.4701, 161.2235
527.9522, 155.5311
528.4343, 150.7164
528.9164, 148.8997
529.3986, 149.2601
529.8807, 151.8137
530.3628, 157.9050
530.8449, 160.7046
531.3270, 151.7666
531.8091, 136.0914
532.2913, 123.9376
532.7734, 116.9153
533.2555, 113.9574
533.7376, 113.6308
534.2197, 116.0174
534.7018, 118.0746
535.1840, 120.6432
535.6661, 121.7980
536.1482, 120.5510
536.6303, 118.2533
537.1124, 115.8096
537.5945, 113.4982
538.0767, 111.3401
538.5588, 108.7482
539.0409, 106.3516
539.5230, 108.7477
540.0051, 119.0219
540.4872, 123.8757
540.9694, 114.8701
541.4515, 99.72501
541.9336, 88.08955
542.4157, 80.55468
542.8978, 74.60679
543.3799, 70.44952
543.8621, 66.69938
544.3442, 60.40697
544.8263, 52.61146
545.3084, 48.75629
545.7905, 52.46553
546.2726, 60.87119
546.7548, 66.29911
547.2369, 67.97577
547.7190, 68.07688
548.2011, 65.20736
548.6832, 62.50668
549.1653, 61.86111
549.6475, 62.48821
550.1296, 61.66588
550.6117, 57.83882
551.0938, 52.13759
551.5759, 45.00007
552.0580, 36.70464
552.5402, 33.32536
553.0223, 38.99342
553.5044, 45.94261
553.9865, 44.30292
554.4686, 32.73705
554.9507, 27.24837
555.4329, 33.04639
555.9150, 39.34198
556.3971, 44.13877
556.8792, 45.65273
557.3613, 39.30805
557.8434, 24.49751
558.3256, 9.980888
558.8077, 8.978790
559.2898, 21.85006
559.7719, 24.60659
560.2540, 10.30479
560.7361, 0.7897110
561.2183, 5.835052
561.7004, 19.85197
562.1825, 27.91486
562.6646, 27.26208
563.1467, 24.80495
563.6288, 22.97985
564.1110, 21.79837
564.5931, 20.61710
565.0752, 19.72786
565.5573, 22.35909
566.0394, 31.93531
566.5215, 44.39140
567.0037, 43.12905
567.4858, 15.42128
567.9679, 3.419662
568.4500, 8.900101
568.9321, 7.690689
569.4142, 0.2712100
569.8964, 11.79796
570.3785, 18.10262
570.8606, 11.74728
571.3427, 1.126816
571.8248, 1.269318
572.3069, 3.408752
572.7891, 6.831581
573.2712, 6.370773
573.7533, 4.962700
574.2354, 6.774078
574.7175, 12.74037
575.1996, 12.67078
575.6818, 3.446487
576.1639, 13.84975
576.6460, 6.592377
577.1281, 9.082367
577.6102, 21.99474
578.0923, 28.68817
578.5745, 30.54884
579.0566, 27.50855
579.5387, 20.24709
580.0208, 14.73595
580.5029, 11.21323
580.9850, 8.754013
581.4672, 7.827705
581.9493, 7.222809
582.4314, 4.539131
582.9135, 1.066872
583.3956, 5.638481
583.8777, 10.07200
584.3599, 11.47597
584.8420, 4.858322
585.3241, 7.487007
585.8062, 18.46394
586.2883, 24.40924
586.7704, 25.56316
587.2526, 20.43954
587.7347, 5.007385
588.2168, 0.1144330
588.6989, 18.25790
589.1810, 33.69088
589.6631, 26.64235
590.1453, 6.458611
590.6274, 4.656723
591.1095, 2.725807
591.5916, 13.97949
592.0737, 21.24826
592.5558, 24.80443
593.0380, 24.04126
593.5201, 19.19977
594.0022, 14.08194
594.4843, 11.84110
594.9664, 12.21132
595.4485, 13.26650
595.9307, 17.60684
596.4128, 18.31627
596.8949, 9.171310
597.3770, 0.5950010
597.8591, 2.286102
598.3412, 12.91575
598.8234, 21.92984
599.3055, 21.87614
599.7876, 18.34829
600.2697, 19.05314
600.7518, 23.16962
601.2339, 26.79372
601.7161, 28.99232
602.1982, 28.62973
602.6803, 23.23267
603.1624, 11.32278
603.6445, 6.570274
604.1266, 18.27666
604.6088, 25.35337
605.0909, 17.33708
605.5730, 4.325500
606.0551, 1.462997
606.5372, 2.249466
607.0193, 7.947662
607.5015, 10.19389
607.9836, 9.339706
608.4657, 4.120934
608.9478, 5.878723
609.4299, 9.120445
609.9120, 1.716896
610.3942, 18.72068
610.8763, 27.64161
611.3584, 25.49193
611.8405, 24.50775
612.3226, 27.40098
612.8047, 29.03671
613.2869, 24.49226
613.7690, 17.48810
614.2511, 15.61994
614.7332, 21.64158
615.2153, 27.93912
615.6974, 22.78286
616.1796, 8.470589
616.6617, 2.700104
617.1438, 7.935188
617.6259, 15.17106
618.1080, 20.83903
618.5901, 24.32134
619.0723, 23.67531
619.5544, 16.05927
620.0365, 11.69934
620.5186, 13.99528
621.0007, 18.66301
621.4828, 24.96896
621.9650, 30.84830
622.4471, 31.66135
622.9292, 24.75850
623.4113, 15.15427
623.8934, 10.31283
624.3755, 10.23170
624.8577, 14.64118
625.3398, 26.26077
625.8219, 35.44554
626.3040, 35.10098
626.7861, 27.89352
627.2682, 21.61186
627.7504, 14.07973
628.2325, 10.18429
628.7146, 13.79395
629.1967, 19.75999
629.6788, 23.62431
630.1609, 25.55619
630.6431, 26.97979
631.1252, 28.78041
631.6073, 30.88294
632.0894, 34.48920
632.5715, 40.19106
633.0536, 38.49666
633.5358, 23.27639
634.0179, 7.976372
634.5000, 3.590805
634.9821, 8.445679
635.4642, 16.97578
635.9464, 36.07189
636.4285, 47.88146
636.9106, 39.09695
637.3927, 25.10149
637.8748, 23.35528
638.3569, 32.92619
638.8391, 39.72987
639.3212, 33.65076
639.8033, 21.81555
640.2854, 22.43216
640.7675, 38.03826
641.2496, 43.04769
641.7318, 27.59052
642.2139, 10.34746
642.6960, 7.547096
643.1781, 15.72159
643.6602, 22.30148
644.1423, 27.04649
644.6245, 29.10609
645.1066, 27.34563
645.5887, 23.69347
646.0708, 18.05514
646.5529, 11.88866
647.0350, 9.064072
647.5172, 13.07416
647.9993, 21.35404
648.4814, 27.08357
648.9635, 31.30425
649.4456, 16.82020
649.9277, 32.39957
650.4099, 40.88370
650.8920, 42.65425
651.3741, 17.60416
651.8562, 27.18641
652.3383, 22.88892
652.8204, 18.02186
653.3026, 32.47697
653.7847, 11.32584
654.2668, 25.47455
654.7489, 25.53171
655.2310, 31.92170
655.7131, 24.41716
656.1953, 21.27037
656.6774, 32.09285
657.1595, 35.17992
657.6416, 26.11111
658.1237, 25.19569
658.6058, 29.05076
659.0880, 21.24854
659.5701, 5.142303
660.0522, 0.9536970
660.5343, 23.82980
661.0164, 38.22999
661.4985, 29.88044
661.9807, 15.20004
662.4628, 7.062859
662.9449, 6.302704
663.4270, 8.983276
663.9091, 13.18517
664.3912, 17.88533
664.8734, 20.03669
665.3555, 19.85452
665.8376, 20.96071
666.3197, 24.46655
666.8018, 26.56867
667.2839, 24.76903
667.7661, 20.66628
668.2482, 4.235428
668.7303, 20.23466
669.2124, 29.14120
669.6945, 31.33734
670.1766, 6.712959
670.6588, 16.72118
671.1409, 12.84996
671.6230, 8.409355
672.1051, 23.29144
672.5872, 2.566978
673.0693, 17.14223
673.5515, 17.62612
674.0336, 24.55902
674.5157, 17.47111
674.9978, 14.75195
675.4799, 17.41912
675.9620, 17.46581
676.4442, 15.73883
676.9263, 7.861191
677.4084, 5.771324
677.8905, 15.05551
678.3726, 24.04495
678.8547, 27.23323
679.3369, 26.33253
679.8190, 24.96696
680.3011, 24.04913
680.7832, 24.26073
681.2653, 27.66459
681.7474, 32.02679
682.2296, 33.37354
682.7117, 31.43074
683.1938, 26.75680
683.6759, 19.23849
684.1580, 10.89165
684.6401, 5.964676
685.1223, 5.392944
685.6044, 5.057648
686.0865, 2.681793
686.5686, 3.520821
687.0507, 13.42888
687.5328, 25.91407
688.0150, 31.64005
688.4971, 28.50050
688.9792, 23.68535
689.4613, 18.44050
689.9434, 14.89677
690.4255, 16.66233
690.9077, 21.18943
691.3898, 23.97588
691.8719, 23.06060
692.3540, 21.13309
692.8361, 22.64031
693.3182, 27.54084
693.8004, 26.60857
694.2825, 16.77500
694.7646, 9.885757
695.2467, 13.47604
695.7288, 19.80101
696.2109, 15.98012
696.6931, 0.8375630
697.1752, 4.676880
697.6573, 14.33005
698.1394, 31.12051
698.6215, 29.41405
699.1036, 18.41209
699.5858, 11.12068
700.0679, 10.36959
700.5500, 11.30352
701.0321, 10.23607
701.5142, 7.503525
701.9963, 3.387741
702.4785, 2.068001
702.9606, 6.860474
703.4427, 11.12234
703.9248, 12.25306
704.4069, 6.681389
704.8890, 5.335892
705.3712, 14.84504
705.8533, 20.72208
706.3354, 25.66795
706.8175, 31.57137
707.2996, 35.44366
707.7817, 34.33179
708.2639, 28.97179
708.7460, 21.91625
709.2281, 11.71207
709.7102, 5.303017
710.1923, 14.09371
710.6744, 30.76883
711.1566, 39.41428
711.6387, 37.76471
712.1208, 30.75253
712.6029, 21.11003
713.0850, 10.66177
713.5671, 4.636810
714.0493, 4.199974
714.5314, 4.428215
715.0135, 4.727150
715.4956, 6.092361
715.9777, 8.830032
716.4598, 13.00419
716.9420, 19.68223
717.4241, 31.00336
717.9062, 37.77628
718.3883, 31.68718
718.8704, 24.43819
719.3525, 27.45606
719.8347, 36.27025
720.3168, 40.14470
720.7989, 35.19999
721.2810, 26.38321
721.7631, 17.35374
722.2452, 9.185913
722.7274, 10.40371
723.2095, 22.37106
723.6916, 29.45180
724.1737, 23.20878
724.6558, 13.85708
725.1379, 16.26875
725.6201, 32.85789
726.1022, 43.31760
726.5843, 49.47253
727.0664, 48.68536
727.5485, 30.18886
728.0306, 10.57224
728.5128, 6.830154
728.9949, 18.32895
729.4770, 28.71483
729.9591, 27.43234
730.4412, 23.48457
730.9233, 27.18733
731.4055, 35.17021
731.8876, 39.86302
732.3697, 39.84322
732.8518, 37.24626
733.3339, 33.69373
733.8160, 28.78572
734.2982, 19.22334
734.7803, 1.254463
735.2624, 4.130524
735.7445, 14.24184
736.2266, 31.90745
736.7087, 29.90588
737.1909, 16.64314
737.6730, 10.80315
738.1551, 15.98844
738.6372, 21.67928
739.1193, 28.92154
739.6014, 32.65574
740.0836, 25.19818
740.5657, 12.62211
741.0478, 7.758743
741.5299, 14.81506
742.0120, 23.37442
742.4941, 20.88370
742.9763, 12.67869
743.4584, 14.28979
743.9405, 24.93251
744.4226, 29.57735
744.9047, 22.04391
745.3868, 11.18256
745.8690, 8.363968
746.3511, 13.89594
746.8332, 13.63800
747.3153, 1.112694
747.7974, 6.989632
748.2795, 9.880814
748.7617, 29.62720
749.2438, 37.74274
749.7259, 35.42127
750.2080, 31.65858
750.6901, 27.11242
751.1722, 23.94592
751.6544, 24.75710
752.1365, 26.56839
752.6186, 25.74864
753.1007, 22.47079
753.5828, 18.91093
754.0649, 16.17193
754.5471, 14.43716
755.0292, 12.15988
755.5113, 10.82776
755.9934, 20.02494
756.4755, 42.10049
756.9576, 57.85423
757.4398, 56.40262
757.9219, 44.89667
758.4040, 35.59093
758.8861, 27.87376
759.3682, 25.02782
759.8503, 32.38181
760.3325, 38.16206
760.8146, 37.55933
761.2967, 35.02947
761.7788, 37.06889
762.2609, 43.89677
762.7430, 46.30467
763.2252, 34.46814
763.7073, 22.25168
764.1894, 20.06339
764.6715, 23.83246
765.1536, 28.84411
765.6357, 33.29712
766.1179, 34.38929
766.6000, 29.79932
767.0821, 21.61415
767.5642, 12.97131
768.0463, 4.102890
768.5284, 0.8227230
769.0106, 1.106453
769.4927, 2.203743
769.9748, 9.577682
770.4569, 18.85819
770.9390, 24.82165
771.4211, 26.12637
771.9033, 27.42826
772.3854, 30.66891
772.8675, 31.66281
773.3496, 27.12229
773.8317, 20.56252
774.3138, 17.00182
774.7960, 17.01667
775.2781, 14.88569
775.7602, 4.175133
776.2423, 5.655373
776.7244, 7.253029
777.2065, 3.049774
777.6887, 4.887894
778.1708, 14.76743
778.6529, 20.46352
779.1350, 16.00145
779.6171, 7.358040
780.0992, 8.173660
780.5814, 17.58868
781.0635, 26.44820
781.5456, 33.87447
782.0277, 36.56247
782.5098, 31.66743
782.9919, 21.26691
783.4741, 10.04526
783.9562, 7.189888
784.4383, 11.58321
784.9204, 9.643211
785.4025, 28.59117
785.8846, 35.00558
786.3668, 34.13800
786.8489, 31.55916
787.3310, 27.83673
787.8131, 24.79365
788.2952, 24.11069
788.7773, 23.17525
789.2595, 19.37305
789.7416, 14.84798
790.2237, 12.09213
790.7058, 11.74405
791.1879, 14.11671
791.6700, 20.51337
792.1522, 27.31543
792.6343, 28.52518
793.1164, 24.70126
793.5985, 19.07915
794.0806, 11.76640
794.5627, 6.305351
795.0449, 5.038559
795.5270, 6.414871
796.0091, 7.025856
796.4912, 5.763962
796.9733, 7.591698
797.4554, 15.84816
797.9376, 20.94179
798.4197, 14.89921
798.9018, 6.653633
799.3839, 9.922508
799.8660, 25.18439
800.3481, 31.48534
800.8303, 16.03355
801.3124, 3.557022
801.7945, 4.643959
802.2766, 11.59567
802.7587, 20.01395
803.2408, 27.14071
803.7230, 26.95580
804.2051, 13.77847
804.6872, 0.4567640
805.1693, 0.5033650
805.6514, 8.317650
806.1335, 15.23669
806.6157, 18.62653
807.0978, 21.14251
807.5799, 23.98080
808.0620, 25.20029
808.5441, 20.04867
809.0262, 9.496597
809.5084, 9.438301
809.9905, 22.27655
810.4726, 29.46835
810.9547, 23.67696
811.4368, 13.02461
811.9189, 4.656372
812.4011, 1.207649
812.8832, 0.8144840
813.3653, 13.00756
813.8474, 22.40903
814.3295, 22.77758
814.8116, 21.63344
815.2938, 22.39900
815.7759, 25.18759
816.2580, 31.22188
816.7401, 43.48252
817.2222, 47.88648
817.7043, 29.20818
818.1865, 8.879974
818.6686, 5.729225
819.1507, 13.23283
819.6328, 18.82405
820.1149, 19.03606
820.5970, 17.46935
821.0792, 16.81263
821.5613, 16.48149
822.0434, 14.89928
822.5255, 12.69361
823.0076, 13.10056
823.4897, 16.54964
823.9719, 18.15751
824.4540, 13.86244
824.9362, 7.265533
825.4183, 8.643219
825.9004, 19.59623
826.3825, 26.54387
826.8646, 27.75848
827.3467, 26.72810
827.8289, 24.37260
828.3110, 21.30107
828.7931, 18.14261
829.2752, 14.69388
829.7573, 13.07321
830.2394, 16.18201
830.7216, 17.42686
831.2037, 13.85398
831.6858, 9.117668
832.1679, 5.951729
832.6500, 4.330315
833.1321, 3.077850
833.6143, 1.639618
834.0964, 0.6190190
834.5785, 0.4087980
835.0606, 0.7848210
835.5427, 8.420952
836.0248, 19.12814
836.5070, 24.94641
836.9891, 23.34170
837.4712, 20.34010
837.9533, 23.79813
838.4354, 29.10094
838.9175, 23.40842
839.3997, 10.26446
839.8818, 5.067177
840.3639, 11.31238
840.8460, 19.41163
841.3281, 21.43690
841.8102, 19.23081
842.2924, 20.26746
842.7745, 26.77108
843.2566, 31.49568
843.7387, 36.39082
844.2208, 36.79977
844.7029, 28.42262
845.1851, 16.20115
845.6672, 7.782875
846.1493, 2.334877
846.6314, 5.250771
847.1135, 30.14427
847.5956, 45.69949
848.0778, 40.75923
848.5599, 28.37208
849.0420, 16.12757
849.5241, 5.604141
850.0062, 0.5226440
850.4883, 3.703529
850.9705, 8.670479
851.4526, 17.45869
851.9347, 23.16145
852.4168, 15.78317
852.8989, 2.315842
853.3810, 2.633553
853.8632, 4.948296
854.3453, 14.15940
854.8274, 16.59810
855.3095, 16.12607
855.7916, 16.97210
856.2737, 19.09327
856.7559, 23.49155
857.2380, 29.75796
857.7201, 31.30529
858.2022, 22.67145
858.6843, 10.20068
859.1664, 5.247116
859.6486, 7.455254
860.1307, 16.16463
860.6128, 31.78027
861.0949, 41.91882
861.5770, 41.43433
862.0591, 32.26612
862.5413, 16.06216
863.0234, 7.041183
863.5055, 15.23559
863.9876, 2.669418
864.4697, 8.684906
864.9518, 13.25140
865.4340, 17.45269
865.9161, 28.83154
866.3982, 43.72795
866.8803, 47.57788
867.3624, 33.98252
867.8445, 23.21229
868.3267, 17.41544
868.8088, 12.92001
869.2909, 6.898369
869.7730, 2.128746
870.2551, 2.452553
870.7372, 8.117218
871.2194, 14.84660
871.7015, 25.97950
872.1836, 31.76733
872.6657, 20.79269
873.1478, 6.912102
873.6299, 5.580788
874.1121, 14.34668
874.5942, 21.45608
875.0763, 21.95451
875.5584, 22.16447
876.0405, 31.15366
876.5226, 40.72407
877.0048, 35.23568
877.4869, 20.81973
877.9690, 16.09190
878.4511, 24.78094
878.9332, 34.51727
879.4153, 35.23009
879.8975, 30.25568
880.3796, 24.57784
880.8617, 19.10149
881.3438, 22.36472
881.8259, 35.15974
882.3080, 39.61990
882.7902, 25.68357
883.2723, 5.265381
883.7544, 3.810638
884.2365, 1.670403
884.7186, 4.850342
885.2007, 18.54668
885.6829, 23.35006
886.1650, 9.866295
886.6471, 0.8938220
887.1292, 11.14975
887.6113, 38.77843
888.0934, 54.18692
888.5756, 53.96838
889.0577, 48.72673
889.5398, 31.46583
890.0219, 18.06005
890.5040, 14.90025
890.9861, 17.97992
891.4683, 25.69215
891.9504, 37.54847
892.4325, 41.79929
892.9146, 28.23343
893.3967, 18.64789
893.8788, 25.24874
894.3610, 31.93651
894.8431, 22.39053
895.3252, 4.518669
895.8073, 2.265800
896.2894, 8.212540
896.7715, 17.37803
897.2537, 11.48495
897.7358, 5.565765
898.2179, 17.59074
898.7000, 33.27396
899.1821, 25.16066
899.6642, 3.461838
900.1464, 19.12013
900.6285, 0.1097560
901.1106, 28.27616
901.5927, 42.98317
902.0748, 46.84505
902.5569, 39.69447
903.0391, 25.65665
903.5212, 16.11269
904.0033, 14.87287
904.4854, 18.01599
904.9675, 23.95389
905.4496, 29.17336
905.9318, 21.23569
906.4139, 4.357269
906.8960, 2.537781
907.3781, 18.39024
907.8602, 31.81200
908.3423, 31.07742
908.8245, 23.28938
909.3066, 19.59330
909.7887, 19.88443
910.2708, 22.81215
910.7529, 28.80736
911.2350, 33.87664
911.7172, 38.36862
912.1993, 36.54154
912.6814, 20.51952
913.1635, 2.616028
913.6456, 4.818581
914.1277, 22.73606
914.6099, 38.69430
915.0920, 38.11411
915.5741, 33.85154
916.0562, 27.57201
916.5383, 24.45722
917.0204, 34.68589
917.5026, 58.25217
917.9847, 61.44661
918.4668, 18.87804
918.9489, 4.123077
919.4310, 17.92599
919.9131, 39.51576
920.3953, 28.77761
920.8774, 4.472633
921.3595, 3.096321
921.8416, 33.01562
922.3237, 53.12996
922.8058, 52.49567
923.2880, 47.67721
923.7701, 39.29857
924.2522, 33.00131
924.7343, 34.97286
925.2164, 42.97713
925.6985, 49.53830
926.1807, 52.53040
926.6628, 54.93047
927.1449, 56.81314
927.6270, 59.66602
928.1091, 68.51176
928.5912, 76.71942
929.0734, 71.75519
929.5555, 55.45686
930.0376, 46.85762
930.5197, 59.33119
931.0018, 73.06609
931.4839, 72.45053
931.9661, 66.29390
932.4482, 65.51494
932.9303, 68.76957
933.4124, 69.34456
933.8945, 65.84983
934.3766, 64.99118
934.8588, 76.70290
935.3409, 89.02689
935.8230, 83.72642
936.3051, 69.54179
936.7872, 62.19745
937.2693, 62.71292
937.7515, 67.40140
938.2336, 74.53355
938.7157, 78.61836
939.1978, 68.94273
939.6799, 53.87720
940.1620, 56.14407
940.6442, 69.59785
941.1263, 70.32163
941.6084, 54.76670
942.0905, 38.38318
942.5726, 30.43901
943.0547, 27.72346
943.5369, 25.08138
944.0190, 23.16240
944.5011, 27.24864
944.9832, 36.75587
945.4653, 39.45556
945.9474, 31.82941
946.4296, 22.51204
946.9117, 18.27978
947.3938, 19.05396
947.8759, 27.07292
948.3580, 42.12010
948.8401, 47.11723
949.3223, 39.77022
949.8044, 39.58156
950.2865, 55.95628
950.7686, 72.31075
951.2507, 69.74547
951.7328, 51.58461
952.2150, 35.75620
952.6971, 21.83327
953.1792, 12.48026
953.6613, 7.169456
954.1434, 9.947891
954.6255, 25.48182
955.1077, 43.75039
955.5898, 50.57272
956.0719, 45.04273
956.5540, 35.50848
957.0361, 16.99811
957.5182, 10.59077
958.0004, 24.56014
958.4825, 40.65585
958.9646, 47.11794
959.4467, 45.18752
959.9288, 35.47133
960.4109, 15.64445
960.8931, 5.683578
961.3752, 11.20621
961.8573, 15.76772
962.3394, 14.25246
962.8215, 13.59150
963.3036, 21.10508
963.7858, 32.92950
964.2679, 36.42091
964.7500, 26.41361
965.2321, 20.48978
965.7142, 19.35068
966.1964, 21.34820
966.6785, 30.64076
967.1606, 38.94315
967.6427, 38.97045
968.1248, 32.75835
968.6069, 26.76087
969.0891, 18.44518
969.5712, 14.04253
970.0533, 16.60855
970.5354, 19.69171
971.0175, 20.82760
971.4996, 21.40305
971.9818, 25.20674
972.4639, 30.37106
972.9460, 28.27007
973.4281, 8.619865
973.9102, 0.7292940
974.3923, 16.54006
974.8745, 30.41684
975.3566, 21.66161
975.8387, 5.785660
976.3208, 1.533562
976.8029, 8.673584
977.2850, 15.45226
977.7672, 18.44743
978.2493, 22.04281
978.7314, 30.04806
979.2135, 35.84715
979.6956, 35.03538
980.1777, 30.04838
980.6599, 22.99085
981.1420, 14.62251
981.6241, 9.587112
982.1062, 10.97419
982.5883, 13.25945
983.0704, 17.48244
983.5526, 19.34795
984.0347, 11.11190
984.5168, 0.7747960
984.9989, 3.663834
985.4810, 21.19851
985.9631, 32.47375
986.4453, 26.60158
986.9274, 18.59277
987.4095, 13.78224
987.8916, 9.520851
988.3737, 0.7685240
988.8558, 10.33371
989.3380, 4.134773
989.8201, 20.40559
990.3022, 39.15571
990.7843, 45.09710
991.2664, 40.58218
991.7485, 15.00003
992.2307, 10.23466
992.7128, 15.50557
993.1949, 6.244995
993.6770, 5.444542
994.1591, 16.93855
994.6412, 24.50587
995.1234, 24.49929
995.6055, 22.75780
996.0876, 20.31316
996.5697, 19.17345
997.0518, 23.20287
997.5339, 29.50563
998.0161, 31.51969
998.4982, 27.55138
998.9803, 21.72031
999.4624, 9.885643
999.9445, 3.942268
1000.427, 16.02277
1000.909, 32.53902
1001.391, 41.37471
1001.873, 43.09267
1002.355, 41.47088
1002.837, 37.12946
1003.319, 35.05750
1003.801, 42.97640
1004.284, 47.17368
1004.766, 34.34474
1005.248, 18.40090
1005.730, 14.74431
1006.212, 19.81287
1006.694, 20.61898
1007.176, 13.04449
1007.658, 10.17000
1008.141, 21.91178
1008.623, 34.99380
1009.105, 46.55972
1009.587, 51.99715
1010.069, 42.26454
1010.551, 23.58069
1011.033, 12.17192
1011.515, 13.06835
1011.997, 12.90210
1012.480, 0.7681430
1012.962, 8.732048
1013.444, 5.596695
1013.926, 25.43699
1014.408, 34.15108
1014.890, 34.14264
1015.372, 35.77647
1015.854, 41.97956
1016.336, 45.74606
1016.819, 43.13623
1017.301, 38.99328
1017.783, 35.52269
1018.265, 31.80477
1018.747, 26.66883
1019.229, 20.57523
1019.711, 14.86003
1020.193, 9.917404
1020.676, 4.406868
1021.158, 8.873543
1021.640, 14.18402
1022.122, 5.422447
1022.604, 27.07629
1023.086, 28.93081
1023.568, 17.24065
1024.050, 9.691566
1024.532, 10.06770
1025.015, 8.734398
1025.497, 3.520683
1025.979, 9.219345
1026.461, 7.271385
1026.943, 24.15239
1027.425, 20.91528
1027.907, 5.995758
1028.389, 0.2444840
1028.871, 6.106346
1029.354, 9.877243
1029.836, 2.944252
1030.318, 0.1214220
1030.800, 9.154587
1031.282, 20.33160
1031.764, 27.10503
1032.246, 31.08335
1032.728, 36.06103
1033.211, 43.00090
1033.693, 44.31352
1034.175, 33.71903
1034.657, 25.16319
1035.139, 23.68727
1035.621, 22.59861
1036.103, 13.88718
1036.585, 4.607697
1037.068, 8.619087
1037.550, 28.02926
1038.032, 41.19418
1038.514, 49.77249
1038.996, 48.53238
1039.478, 22.70177
1039.960, 3.759888
1040.442, 15.94138
1040.924, 38.51134
1041.406, 38.23149
1041.889, 14.49622
1042.371, 8.325584
1042.853, 36.00842
1043.335, 48.16325
1043.817, 29.17612
1044.299, 13.79818
1044.781, 21.39280
1045.263, 36.73027
1045.746, 39.32647
1046.228, 30.68393
1046.710, 31.04797
1047.192, 46.40227
1047.674, 56.90556
1048.156, 60.08463
1048.638, 60.33528
1049.120, 59.65775
1049.603, 56.05161
1050.085, 45.42367
1050.567, 30.12922
1051.049, 21.86673
1051.531, 21.96964
1052.013, 19.01155
1052.495, 10.19410
1052.977, 11.02165
1053.459, 29.48355
1053.942, 48.40964
1054.424, 51.30305
1054.906, 43.15611
1055.388, 37.57418
1055.870, 34.44560
1056.352, 41.59737
1056.834, 60.05627
1057.316, 68.78819
1057.798, 61.32872
1058.281, 51.45534
1058.763, 50.13857
1059.245, 53.23448
1059.727, 50.23080
1060.209, 42.98008
1060.691, 47.32545
1061.173, 61.26989
1061.655, 62.05315
1062.138, 45.77453
1062.620, 32.27366
1063.102, 33.83057
1063.584, 41.82987
1064.066, 44.01115
1064.548, 42.72011
1065.030, 45.16406
1065.512, 49.81342
1065.995, 49.72097
1066.477, 44.67294
1066.959, 42.55137
1067.441, 46.89145
1067.923, 50.01140
1068.405, 39.88441
1068.887, 27.23706
1069.369, 29.69233
1069.851, 40.95570
1070.333, 50.58058
1070.816, 55.96689
1071.298, 56.83163
1071.780, 52.75949
1072.262, 48.82770
1072.744, 48.92483
1073.226, 50.38799
1073.708, 51.25195
1074.191, 51.81271
1074.673, 51.10769
1075.155, 50.87397
1075.637, 56.05746
1076.119, 66.38247
1076.601, 72.35137
1077.083, 67.26138
1077.565, 61.62963
1078.047, 59.76213
1078.530, 60.65953
1079.012, 66.57485
1079.494, 72.19282
1079.976, 69.87697
1080.458, 60.16402
1080.940, 54.22180
1081.422, 55.88505
1081.904, 58.18242
1082.386, 60.04238
1082.869, 61.46756
1083.351, 65.42110
1083.833, 65.84692
1084.315, 54.32416
1084.797, 35.59394
1085.279, 26.29008
1085.761, 29.57890
1086.243, 33.99693
1086.726, 38.71586
1087.208, 46.11694
1087.690, 61.22842
1088.172, 72.61246
1088.654, 72.48059
1089.136, 64.71816
1089.618, 54.31828
1090.100, 41.03577
1090.583, 42.02574
1091.065, 65.03316
1091.547, 71.11813
1092.029, 49.71266
1092.511, 33.77763
1092.993, 39.85603
1093.475, 53.47942
1093.957, 57.61043
1094.439, 54.95596
1094.922, 59.09019
1095.404, 69.72439
1095.886, 65.59903
1096.368, 45.77699
1096.850, 30.53218
1097.332, 26.34583
1097.814, 29.68513
1098.296, 38.72480
1098.778, 49.12519
1099.261, 54.07041
1099.743, 53.73085
1100.225, 43.99393
1100.707, 29.65390
1101.189, 28.16622
1101.671, 41.62043
1102.153, 59.52909
1102.635, 77.93238
1103.118, 87.60361
1103.600, 71.98901
1104.082, 48.98647
1104.564, 39.64272
1105.046, 38.48467
1105.528, 38.32934
1106.010, 37.97131
1106.492, 38.68594
1106.974, 40.48503
1107.457, 37.66884
1107.939, 18.63531
1108.421, 5.743210
1108.903, 19.28735
1109.385, 36.12402
1109.867, 38.10495
1110.349, 30.98090
1110.831, 21.16384
1111.313, 11.46959
1111.796, 13.08470
1112.278, 39.41389
1112.760, 53.78134
1113.242, 43.50677
1113.724, 28.57265
1114.206, 10.17905
1114.688, 4.326759
1115.170, 9.241943
1115.653, 5.560020
1116.135, 5.590286
1116.617, 26.98788
1117.099, 39.85508
1117.581, 43.67043
1118.063, 38.57310
1118.545, 19.66415
1119.027, 6.560211
1119.510, 12.11823
1119.992, 25.31279
1120.474, 31.00790
1120.956, 29.63224
1121.438, 25.81187
1121.920, 19.57771
1122.402, 9.794563
1122.884, 3.118706
1123.366, 4.430565
1123.849, 10.61137
1124.331, 26.46982
1124.813, 30.64898
1125.295, 26.77873
1125.777, 18.38768
1126.259, 7.830612
1126.741, 0.8465350
1127.223, 6.690563
1127.705, 7.485699
1128.188, 3.428352
1128.670, 3.511940
1129.152, 12.53928
1129.634, 21.75613
1130.116, 30.97977
1130.598, 38.27133
1131.080, 43.31675
1131.562, 44.47986
1132.045, 37.37923
1132.527, 26.06373
1133.009, 17.48225
1133.491, 13.03162
1133.973, 13.56683
1134.455, 26.98197
1134.937, 33.02365
1135.419, 18.14130
1135.901, 5.103996
1136.384, 8.837448
1136.866, 16.80954
1137.348, 13.38860
1137.830, 3.149590
1138.312, 3.971100
1138.794, 21.06670
1139.276, 26.72838
1139.758, 14.93030
1140.240, 8.401611
1140.723, 11.53800
1141.205, 22.06425
1141.687, 41.50093
1142.169, 58.92217
1142.651, 56.74619
1143.133, 40.08675
1143.615, 35.60294
1144.097, 41.40361
1144.580, 44.62221
1145.062, 43.88400
1145.544, 36.21289
1146.026, 21.41211
1146.508, 9.466133
1146.990, 8.235825
1147.472, 11.11167
1147.954, 9.173416
1148.437, 5.629242
1148.919, 5.978806
1149.401, 9.682808
1149.883, 16.96739
1150.365, 26.00744
1150.847, 32.89259
1151.329, 36.30568
1151.811, 33.48920
1152.293, 13.79516
1152.776, 0.1712270
1153.258, 8.686546
1153.740, 20.87112
1154.222, 22.67290
1154.704, 17.88365
1155.186, 10.05756
1155.668, 0.9925990
1156.150, 1.451851
1156.632, 21.85928
1157.115, 31.21392
1157.597, 25.00803
1158.079, 15.41256
1158.561, 1.227089
1159.043, 6.795033
1159.525, 0.5816270
1160.007, 15.51460
1160.489, 24.31025
1160.972, 27.33897
1161.454, 28.14653
1161.936, 26.76965
1162.418, 26.04166
1162.900, 26.14326
1163.382, 23.46700
1163.864, 16.97577
1164.346, 14.16544
1164.828, 22.58326
1165.311, 32.78704
1165.793, 29.66576
1166.275, 20.24650
1166.757, 15.75825
1167.239, 14.41916
1167.721, 11.25599
1168.203, 6.730141
1168.685, 4.975601
1169.167, 7.389351
1169.650, 11.95119
1170.132, 19.79070
1170.614, 26.34088
1171.096, 30.87919
1171.578, 31.86814
1172.060, 25.81493
1172.542, 16.97252
1173.024, 9.807503
1173.507, 5.560509
1173.989, 6.707458
1174.471, 16.18083
1174.953, 21.86231
1175.435, 24.54510
1175.917, 20.39725
1176.399, 5.687355
1176.881, 7.228104
1177.364, 11.21573
1177.846, 7.956402
1178.328, 1.431168
1178.810, 14.73843
1179.292, 23.34889
1179.774, 27.54115
1180.256, 28.29333
1180.738, 25.80311
1181.220, 19.53831
1181.703, 10.82279
1182.185, 7.894089
1182.667, 17.02781
1183.149, 26.93083
1183.631, 25.23753
1184.113, 20.48356
1184.595, 22.49800
1185.077, 25.24940
1185.559, 19.11322
1186.042, 9.074348
1186.524, 7.369232
1187.006, 15.95119
1187.488, 24.07764
1187.970, 28.45549
1188.452, 33.38263
1188.934, 47.43079
1189.416, 50.46026
1189.899, 24.05936
1190.381, 1.068184
1190.863, 13.42093
1191.345, 42.05541
1191.827, 40.57674
1192.309, 9.638031
1192.791, 0.6567990
1193.273, 14.14278
1193.755, 16.86416
1194.238, 5.221222
1194.720, 0.8576550
1195.202, 5.995346
1195.684, 15.44479
1196.166, 19.35201
1196.648, 19.89738
1197.130, 19.58405
1197.612, 18.27258
1198.094, 13.84638
1198.577, 9.278564
1199.059, 12.59917
1199.541, 20.28332
1200.023, 18.82108
1200.505, 4.612606
1200.987, 3.769550
1201.469, 4.796776
1201.951, 13.04773
1202.434, 18.42181
1202.916, 22.50293
1203.398, 29.59428
1203.880, 32.59777
1204.362, 21.84930
1204.844, 3.868942
1205.326, 3.428646
1205.808, 0.4597090
1206.291, 9.512230
1206.773, 24.75639
1207.255, 31.23828
1207.737, 26.75067
1208.219, 23.95805
1208.701, 28.00309
1209.183, 28.49856
1209.665, 14.25903
1210.147, 2.011414
1210.630, 0.7928700
1211.112, 10.62326
1211.594, 13.05173
1212.076, 10.44396
1212.558, 12.61693
1213.040, 18.75613
1213.522, 20.86738
1214.004, 16.81780
1214.486, 18.25396
1214.969, 37.01391
1215.451, 50.41988
1215.933, 49.93659
1216.415, 45.96555
1216.897, 42.20485
1217.379, 38.09148
1217.861, 33.13208
1218.343, 27.46158
1218.826, 20.53862
1219.308, 12.43057
1219.790, 14.38170
1220.272, 27.30300
1220.754, 34.50779
1221.236, 34.16207
1221.718, 29.35492
1222.200, 21.57727
1222.682, 14.95361
1223.165, 14.90188
1223.647, 19.26254
1224.129, 31.03744
1224.611, 41.82351
1225.093, 40.18662
1225.575, 32.09129
1226.057, 17.34345
1226.539, 1.947220
1227.021, 1.626961
1227.504, 7.565666
1227.986, 17.94270
1228.468, 27.45339
1228.950, 33.97586
1229.432, 40.04510
1229.914, 38.06865
1230.396, 20.28417
1230.878, 4.822533
1231.361, 5.335724
1231.843, 13.24243
1232.325, 12.94424
1232.807, 8.215408
1233.289, 25.48116
1233.771, 57.81879
1234.253, 57.30653
1234.735, 28.82810
1235.218, 13.44151
1235.700, 18.86229
1236.182, 24.66145
1236.664, 19.14164
1237.146, 12.56087
1237.628, 12.26043
1238.110, 14.39915
1238.592, 19.09564
1239.074, 22.27487
1239.557, 18.62267
1240.039, 12.42670
1240.521, 10.81731
1241.003, 13.08950
1241.485, 11.82300
1241.967, 5.415489
1242.449, 1.698372
1242.931, 0.1527100
1243.413, 4.615158
1243.896, 0.0000000E+00
##END=



