##NAMES=Hingganite-(Ce)
##RRUFFID=R060857
##IDEAL CHEMISTRY=BeCe^3+^(SiO_4_)(OH)
##LOCALITY=Tatyana pegmatite, Haldzan Buregteg massif, Mongolia
##OWNER=RRUFF
##SOURCE=Michael Scott
##DESCRIPTION=Brown vitreous fragments
##STATUS=The identification of this mineral has been confirmed only by single crystal X-ray diffraction.
##URL=rruff.info/R060857
89.22559, 411.7356
89.70770, 397.2333
90.18982, 388.2479
90.67194, 385.0922
91.15405, 385.6878
91.63617, 400.1755
92.11829, 411.5831
92.60040, 407.1613
93.08252, 384.7580
93.56464, 355.5037
94.04675, 337.6456
94.52887, 337.7079
95.01099, 338.0952
95.49310, 335.9322
95.97522, 333.9137
96.45734, 335.4515
96.93945, 342.0214
97.42157, 351.0257
97.90369, 354.6242
98.38580, 345.0163
98.86792, 338.3570
99.35004, 336.1822
99.83215, 337.6657
100.3143, 342.2624
100.7964, 350.0672
101.2785, 360.2111
101.7606, 365.4426
102.2427, 361.6138
102.7249, 357.8482
103.2070, 358.4671
103.6891, 361.5165
104.1712, 362.0465
104.6533, 356.6245
105.1354, 344.9115
105.6176, 329.5526
106.0997, 295.7592
106.5818, 270.8236
107.0639, 278.5623
107.5460, 315.9631
108.0281, 352.9760
108.5103, 362.0173
108.9924, 339.1668
109.4745, 320.9876
109.9566, 305.9255
110.4387, 296.9022
110.9208, 298.6082
111.4030, 312.1047
111.8851, 330.1879
112.3672, 345.9759
112.8493, 359.6415
113.3314, 373.1621
113.8135, 391.7399
114.2957, 409.4084
114.7778, 416.1933
115.2599, 409.3452
115.7420, 393.1155
116.2241, 365.6063
116.7062, 327.3169
117.1884, 302.1483
117.6705, 308.5426
118.1526, 338.4700
118.6347, 364.0665
119.1168, 376.7235
119.5989, 385.9942
120.0811, 398.4895
120.5632, 413.7612
121.0453, 439.1739
121.5274, 485.1689
122.0095, 550.8439
122.4916, 611.8608
122.9738, 655.9730
123.4559, 698.0662
123.9380, 748.7285
124.4201, 809.2831
124.9022, 877.6743
125.3843, 955.6014
125.8665, 1045.477
126.3486, 1128.344
126.8307, 1188.765
127.3128, 1246.170
127.7949, 1315.178
128.2770, 1400.839
128.7592, 1491.662
129.2413, 1571.968
129.7234, 1641.254
130.2055, 1700.686
130.6876, 1749.006
131.1698, 1789.935
131.6519, 1827.772
132.1340, 1865.164
132.6161, 1895.949
133.0982, 1904.452
133.5803, 1877.276
134.0625, 1849.117
134.5446, 1817.568
135.0267, 1791.868
135.5088, 1782.688
135.9909, 1795.926
136.4730, 1827.512
136.9552, 1862.883
137.4373, 1901.802
137.9194, 1945.642
138.4015, 1990.027
138.8836, 2040.101
139.3657, 2101.484
139.8479, 2177.504
140.3300, 2267.862
140.8121, 2375.192
141.2942, 2520.181
141.7763, 2661.425
142.2584, 2789.152
142.7406, 2908.413
143.2227, 3028.674
143.7048, 3156.790
144.1869, 3292.054
144.6690, 3431.041
145.1511, 3592.480
145.6333, 3737.993
146.1154, 3852.597
146.5975, 3942.147
147.0796, 4022.786
147.5617, 4106.919
148.0438, 4195.535
148.5260, 4265.866
149.0081, 4311.908
149.4902, 4350.230
149.9723, 4386.597
150.4544, 4421.104
150.9365, 4452.606
151.4187, 4481.851
151.9008, 4510.748
152.3829, 4511.904
152.8650, 4465.417
153.3471, 4413.925
153.8292, 4374.281
154.3114, 4349.075
154.7935, 4338.622
155.2756, 4345.264
155.7577, 4372.229
156.2398, 4394.159
156.7219, 4413.063
157.2041, 4425.942
157.6862, 4425.160
158.1683, 4412.444
158.6504, 4402.667
159.1325, 4409.506
159.6146, 4436.175
160.0968, 4471.019
160.5789, 4516.706
161.0610, 4568.220
161.5431, 4623.379
162.0252, 4681.496
162.5073, 4739.735
162.9895, 4795.390
163.4716, 4848.142
163.9537, 4898.946
164.4358, 4943.134
164.9179, 4988.111
165.4000, 5044.215
165.8822, 5112.765
166.3643, 5179.595
166.8464, 5228.079
167.3285, 5255.961
167.8106, 5288.613
168.2927, 5335.507
168.7749, 5384.635
169.2570, 5426.311
169.7391, 5459.255
170.2212, 5479.899
170.7033, 5481.093
171.1854, 5462.753
171.6676, 5440.662
172.1497, 5403.434
172.6318, 5369.622
173.1139, 5367.860
173.5960, 5406.120
174.0781, 5451.934
174.5603, 5466.680
175.0424, 5452.027
175.5245, 5441.814
176.0066, 5446.041
176.4887, 5457.422
176.9708, 5466.991
177.4530, 5473.708
177.9351, 5477.018
178.4172, 5474.357
178.8993, 5466.343
179.3814, 5459.500
179.8635, 5453.083
180.3457, 5449.431
180.8278, 5453.448
181.3099, 5467.174
181.7920, 5483.265
182.2741, 5490.583
182.7562, 5490.776
183.2384, 5499.337
183.7205, 5527.973
184.2026, 5565.592
184.6847, 5593.676
185.1668, 5607.475
185.6489, 5618.087
186.1311, 5640.535
186.6132, 5672.004
187.0953, 5694.633
187.5774, 5692.123
188.0595, 5679.963
188.5416, 5689.912
189.0238, 5733.583
189.5059, 5774.858
189.9880, 5775.135
190.4701, 5742.287
190.9522, 5700.032
191.4343, 5635.728
191.9165, 5571.628
192.3986, 5549.692
192.8807, 5581.559
193.3628, 5632.654
193.8449, 5679.133
194.3270, 5721.078
194.8092, 5753.098
195.2913, 5763.909
195.7734, 5766.486
196.2555, 5786.148
196.7376, 5830.259
197.2197, 5874.088
197.7019, 5892.307
198.1840, 5891.847
198.6661, 5891.115
199.1482, 5896.094
199.6303, 5904.134
200.1124, 5909.815
200.5946, 5911.360
201.0767, 5915.888
201.5588, 5937.503
202.0409, 5968.506
202.5230, 5986.646
203.0051, 5976.042
203.4873, 5952.269
203.9694, 5935.464
204.4515, 5925.916
204.9336, 5926.786
205.4157, 5950.912
205.8978, 5988.782
206.3800, 6015.291
206.8621, 6021.376
207.3442, 6013.905
207.8263, 5996.466
208.3084, 5966.203
208.7905, 5944.480
209.2727, 5955.945
209.7548, 5988.159
210.2369, 6011.663
210.7190, 6014.918
211.2011, 6009.230
211.6832, 6005.704
212.1654, 6004.268
212.6475, 6006.760
213.1296, 6014.887
213.6117, 6028.090
214.0938, 6045.106
214.5760, 6072.509
215.0581, 6099.086
215.5402, 6110.736
216.0223, 6106.923
216.5044, 6105.218
216.9865, 6116.684
217.4687, 6137.772
217.9508, 6159.285
218.4329, 6180.860
218.9150, 6202.206
219.3971, 6226.661
219.8792, 6253.797
220.3614, 6270.675
220.8435, 6267.087
221.3256, 6248.949
221.8077, 6231.687
222.2898, 6206.559
222.7719, 6193.815
223.2541, 6220.964
223.7362, 6280.947
224.2183, 6322.578
224.7004, 6314.345
225.1825, 6277.090
225.6646, 6262.192
226.1468, 6280.913
226.6289, 6301.578
227.1110, 6303.595
227.5931, 6291.610
228.0752, 6283.994
228.5573, 6289.415
229.0395, 6301.736
229.5216, 6308.400
230.0037, 6308.277
230.4858, 6306.128
230.9679, 6297.326
231.4500, 6287.697
231.9322, 6296.457
232.4143, 6336.936
232.8964, 6385.593
233.3785, 6395.416
233.8606, 6356.384
234.3427, 6325.382
234.8249, 6326.548
235.3070, 6346.445
235.7891, 6358.905
236.2712, 6354.480
236.7533, 6350.308
237.2354, 6380.776
237.7176, 6457.341
238.1997, 6506.019
238.6818, 6490.614
239.1639, 6448.327
239.6460, 6426.442
240.1281, 6435.311
240.6103, 6457.480
241.0924, 6473.384
241.5745, 6482.094
242.0566, 6489.673
242.5387, 6500.467
243.0208, 6508.135
243.5030, 6500.270
243.9851, 6476.990
244.4672, 6461.346
244.9493, 6480.290
245.4314, 6542.080
245.9135, 6578.355
246.3957, 6571.585
246.8778, 6553.940
247.3599, 6543.163
247.8420, 6541.203
248.3241, 6546.419
248.8062, 6558.547
249.2884, 6577.836
249.7705, 6594.477
250.2526, 6609.527
250.7347, 6621.269
251.2168, 6626.943
251.6989, 6628.249
252.1811, 6629.625
252.6632, 6633.879
253.1453, 6640.702
253.6274, 6647.922
254.1095, 6649.955
254.5916, 6658.191
255.0738, 6680.527
255.5559, 6710.455
256.0380, 6735.722
256.5201, 6749.411
257.0022, 6756.448
257.4843, 6774.866
257.9665, 6825.214
258.4486, 6862.915
258.9307, 6876.210
259.4128, 6878.275
259.8949, 6886.038
260.3770, 6905.941
260.8592, 6928.600
261.3413, 6933.739
261.8234, 6902.843
262.3055, 6882.833
262.7876, 6876.194
263.2697, 6878.642
263.7519, 6891.354
264.2340, 6912.636
264.7161, 6932.842
265.1982, 6936.214
265.6803, 6911.574
266.1624, 6898.975
266.6446, 6895.736
267.1267, 6904.785
267.6088, 6939.248
268.0909, 6992.702
268.5730, 7038.078
269.0551, 7044.966
269.5373, 7007.983
270.0194, 6979.147
270.5015, 6952.826
270.9836, 6941.122
271.4657, 6953.058
271.9478, 6984.021
272.4300, 7023.743
272.9121, 7071.005
273.3942, 7121.509
273.8763, 7141.744
274.3584, 7101.414
274.8405, 7072.200
275.3227, 7087.260
275.8048, 7126.119
276.2869, 7156.759
276.7690, 7159.520
277.2511, 7149.243
277.7332, 7164.153
278.2154, 7216.909
278.6975, 7261.224
279.1796, 7268.215
279.6617, 7264.418
280.1438, 7277.375
280.6259, 7317.329
281.1081, 7367.125
281.5902, 7412.670
282.0723, 7455.714
282.5544, 7474.023
283.0365, 7435.123
283.5186, 7386.571
284.0008, 7373.365
284.4829, 7401.313
284.9650, 7443.337
285.4471, 7496.860
285.9292, 7553.634
286.4113, 7564.923
286.8935, 7499.467
287.3756, 7418.498
287.8577, 7379.939
288.3398, 7381.226
288.8219, 7406.651
289.3040, 7469.012
289.7862, 7546.239
290.2683, 7596.853
290.7504, 7611.080
291.2325, 7623.281
291.7146, 7672.440
292.1967, 7750.929
292.6789, 7804.912
293.1610, 7803.990
293.6431, 7791.327
294.1252, 7804.979
294.6073, 7844.453
295.0894, 7888.830
295.5716, 7928.169
296.0537, 7960.418
296.5358, 7977.482
297.0179, 7958.237
297.5000, 7947.045
297.9821, 7966.566
298.4643, 8007.950
298.9464, 8051.366
299.4285, 8087.236
299.9106, 8119.860
300.3927, 8162.070
300.8748, 8223.201
301.3570, 8279.898
301.8391, 8332.234
302.3212, 8377.785
302.8033, 8412.742
303.2854, 8436.426
303.7675, 8453.244
304.2497, 8469.017
304.7318, 8480.261
305.2139, 8500.108
305.6960, 8539.604
306.1781, 8577.900
306.6602, 8600.600
307.1424, 8608.534
307.6245, 8612.443
308.1066, 8621.001
308.5887, 8634.007
309.0708, 8655.588
309.5529, 8706.863
310.0351, 8745.452
310.5172, 8755.318
310.9993, 8744.564
311.4814, 8727.368
311.9635, 8711.063
312.4456, 8696.102
312.9278, 8683.431
313.4099, 8671.170
313.8920, 8665.489
314.3741, 8657.381
314.8562, 8660.485
315.3383, 8696.713
315.8205, 8775.482
316.3026, 8859.809
316.7847, 8899.617
317.2668, 8890.205
317.7489, 8872.374
318.2310, 8848.499
318.7132, 8823.161
319.1953, 8799.758
319.6774, 8778.531
320.1595, 8756.912
320.6416, 8724.641
321.1237, 8689.052
321.6059, 8682.847
322.0880, 8721.751
322.5701, 8763.769
323.0522, 8767.175
323.5343, 8743.338
324.0164, 8729.557
324.4986, 8737.886
324.9807, 8760.432
325.4628, 8797.394
325.9449, 8848.037
326.4270, 8880.955
326.9091, 8870.235
327.3913, 8827.463
327.8734, 8803.008
328.3555, 8809.913
328.8376, 8819.379
329.3197, 8817.066
329.8018, 8807.987
330.2840, 8805.572
330.7661, 8816.919
331.2482, 8829.919
331.7303, 8818.000
332.2124, 8751.976
332.6945, 8718.699
333.1767, 8756.959
333.6588, 8810.690
334.1409, 8826.965
334.6230, 8798.838
335.1051, 8757.436
335.5872, 8737.253
336.0694, 8745.989
336.5515, 8731.574
337.0336, 8668.053
337.5157, 8610.646
337.9979, 8580.505
338.4800, 8573.528
338.9621, 8577.960
339.4442, 8588.142
339.9263, 8601.008
340.4084, 8601.555
340.8906, 8578.422
341.3727, 8560.522
341.8548, 8555.216
342.3369, 8556.174
342.8190, 8557.771
343.3011, 8558.190
343.7833, 8557.526
344.2654, 8559.666
344.7475, 8567.099
345.2296, 8555.479
345.7117, 8493.222
346.1938, 8435.517
346.6760, 8425.718
347.1581, 8459.751
347.6402, 8495.013
348.1223, 8505.357
348.6044, 8497.226
349.0865, 8487.617
349.5687, 8476.912
350.0508, 8466.207
350.5329, 8451.814
351.0150, 8438.008
351.4971, 8436.653
351.9792, 8466.284
352.4614, 8494.957
352.9435, 8492.578
353.4256, 8464.748
353.9077, 8439.356
354.3898, 8429.995
354.8719, 8429.709
355.3541, 8421.560
355.8362, 8406.040
356.3183, 8384.431
356.8004, 8347.911
357.2825, 8309.543
357.7646, 8286.981
358.2468, 8283.498
358.7289, 8287.519
359.2110, 8285.854
359.6931, 8277.178
360.1752, 8268.780
360.6573, 8248.703
361.1395, 8240.163
361.6216, 8271.662
362.1037, 8324.305
362.5858, 8351.672
363.0679, 8320.973
363.5500, 8246.173
364.0322, 8191.011
364.5143, 8160.453
364.9964, 8143.744
365.4785, 8144.281
365.9606, 8153.018
366.4427, 8165.143
366.9249, 8178.801
367.4070, 8185.665
367.8891, 8170.976
368.3712, 8132.475
368.8533, 8101.785
369.3354, 8079.661
369.8176, 8070.168
370.2997, 8085.032
370.7818, 8117.014
371.2639, 8135.457
371.7460, 8102.990
372.2281, 8053.641
372.7103, 8059.033
373.1924, 8128.649
373.6745, 8193.800
374.1566, 8218.188
374.6387, 8207.110
375.1208, 8178.980
375.6030, 8110.766
376.0851, 8059.273
376.5672, 8072.927
377.0493, 8124.269
377.5314, 8150.693
378.0135, 8130.588
378.4957, 8085.887
378.9778, 8046.993
379.4599, 8010.753
379.9420, 7992.660
380.4241, 8004.941
380.9063, 8026.234
381.3884, 8045.762
381.8705, 8060.684
382.3526, 8068.630
382.8347, 8067.172
383.3168, 8057.006
383.7990, 8046.305
384.2811, 8027.009
384.7632, 8017.345
385.2453, 8028.462
385.7274, 8047.324
386.2095, 8060.074
386.6917, 8061.746
387.1738, 8054.692
387.6559, 8037.763
388.1380, 8006.489
388.6201, 7991.732
389.1022, 8010.604
389.5844, 8035.306
390.0665, 8051.211
390.5486, 8058.355
391.0307, 8060.726
391.5128, 8049.980
391.9949, 8038.503
392.4771, 8062.724
392.9592, 8131.254
393.4413, 8180.254
393.9234, 8154.331
394.4055, 8087.810
394.8876, 8068.130
395.3698, 8129.181
395.8519, 8188.930
396.3340, 8199.146
396.8161, 8178.364
397.2982, 8163.019
397.7803, 8163.585
398.2625, 8174.493
398.7446, 8190.070
399.2267, 8214.802
399.7088, 8227.942
400.1909, 8213.354
400.6730, 8201.641
401.1552, 8218.676
401.6373, 8255.681
402.1194, 8283.755
402.6015, 8282.914
403.0836, 8258.703
403.5657, 8236.112
404.0479, 8206.049
404.5300, 8192.874
405.0121, 8210.312
405.4942, 8238.283
405.9763, 8262.273
406.4584, 8278.346
406.9406, 8283.997
407.4227, 8268.622
407.9048, 8233.557
408.3869, 8220.388
408.8690, 8242.406
409.3511, 8271.477
409.8333, 8290.374
410.3154, 8301.804
410.7975, 8312.308
411.2796, 8326.291
411.7617, 8338.335
412.2438, 8337.465
412.7260, 8326.117
413.2081, 8326.622
413.6902, 8352.072
414.1723, 8389.684
414.6544, 8410.579
415.1365, 8407.030
415.6187, 8411.863
416.1008, 8440.126
416.5829, 8474.134
417.0650, 8499.852
417.5471, 8514.228
418.0292, 8515.314
418.5114, 8498.871
418.9935, 8465.238
419.4756, 8446.369
419.9577, 8454.470
420.4398, 8464.072
420.9219, 8474.927
421.4041, 8482.874
421.8862, 8478.768
422.3683, 8459.518
422.8504, 8442.272
423.3325, 8460.882
423.8146, 8523.932
424.2968, 8557.267
424.7789, 8533.952
425.2610, 8498.002
425.7431, 8473.423
426.2252, 8459.394
426.7073, 8450.403
427.1895, 8444.730
427.6716, 8442.141
428.1537, 8442.312
428.6358, 8445.237
429.1179, 8452.211
429.6000, 8466.893
430.0822, 8483.537
430.5643, 8488.643
431.0464, 8478.590
431.5285, 8467.739
432.0106, 8456.298
432.4927, 8447.900
432.9749, 8450.452
433.4570, 8463.480
433.9391, 8473.885
434.4212, 8468.341
434.9033, 8446.368
435.3854, 8431.903
435.8676, 8434.376
436.3497, 8433.818
436.8318, 8416.702
437.3139, 8397.526
437.7960, 8398.450
438.2781, 8427.604
438.7603, 8464.390
439.2424, 8476.855
439.7245, 8461.927
440.2066, 8450.916
440.6887, 8450.851
441.1708, 8451.008
441.6530, 8442.695
442.1351, 8428.502
442.6172, 8417.648
443.0993, 8416.055
443.5814, 8418.225
444.0635, 8417.341
444.5457, 8413.594
445.0278, 8410.884
445.5099, 8413.055
445.9920, 8414.494
446.4741, 8399.480
446.9562, 8355.903
447.4384, 8331.102
447.9205, 8353.541
448.4026, 8384.197
448.8847, 8385.957
449.3668, 8358.112
449.8489, 8323.620
450.3311, 8300.938
450.8132, 8288.266
451.2953, 8265.518
451.7774, 8208.246
452.2595, 8175.055
452.7416, 8195.152
453.2238, 8231.458
453.7059, 8246.039
454.1880, 8230.129
454.6701, 8208.262
455.1522, 8211.829
455.6343, 8236.705
456.1165, 8236.299
456.5986, 8195.050
457.0807, 8152.462
457.5628, 8139.021
458.0449, 8143.573
458.5270, 8143.615
459.0092, 8130.528
459.4913, 8116.711
459.9734, 8113.766
460.4555, 8116.758
460.9376, 8110.043
461.4197, 8087.409
461.9019, 8063.798
462.3840, 8062.403
462.8661, 8093.937
463.3482, 8108.227
463.8303, 8093.643
464.3124, 8074.556
464.7946, 8060.119
465.2767, 8051.059
465.7588, 8046.891
466.2409, 8047.686
466.7230, 8051.307
467.2051, 8054.236
467.6873, 8059.048
468.1694, 8054.612
468.6515, 8027.529
469.1336, 8000.001
469.6157, 7987.422
470.0978, 7988.242
470.5800, 7988.236
471.0621, 7971.567
471.5442, 7953.147
472.0263, 7967.413
472.5084, 8013.836
472.9905, 8033.925
473.4727, 7986.879
473.9548, 7906.317
474.4369, 7879.146
474.9190, 7926.880
475.4011, 7964.541
475.8832, 7976.261
476.3654, 7972.128
476.8475, 7955.070
477.3296, 7929.437
477.8117, 7908.497
478.2938, 7904.496
478.7759, 7913.583
479.2581, 7906.756
479.7402, 7873.120
480.2223, 7840.142
480.7044, 7807.200
481.1865, 7780.709
481.6686, 7765.220
482.1508, 7761.878
482.6329, 7771.796
483.1150, 7806.888
483.5971, 7856.835
484.0792, 7883.625
484.5613, 7881.718
485.0435, 7871.628
485.5256, 7863.925
486.0077, 7857.621
486.4898, 7849.544
486.9719, 7837.736
487.4540, 7826.903
487.9362, 7815.566
488.4183, 7807.533
488.9004, 7811.553
489.3825, 7827.929
489.8646, 7843.549
490.3467, 7845.196
490.8289, 7832.425
491.3110, 7817.075
491.7931, 7787.519
492.2752, 7769.284
492.7573, 7771.200
493.2394, 7785.280
493.7216, 7806.190
494.2037, 7832.234
494.6858, 7851.562
495.1679, 7845.341
495.6500, 7818.203
496.1321, 7809.073
496.6143, 7832.357
497.0964, 7845.345
497.5785, 7802.864
498.0606, 7725.988
498.5427, 7678.405
499.0248, 7678.122
499.5070, 7693.108
499.9891, 7720.327
500.4712, 7749.104
500.9533, 7758.925
501.4355, 7745.154
501.9176, 7722.854
502.3997, 7709.141
502.8818, 7705.111
503.3639, 7698.226
503.8460, 7689.140
504.3282, 7676.325
504.8103, 7650.075
505.2924, 7623.648
505.7745, 7616.400
506.2566, 7634.970
506.7387, 7660.865
507.2209, 7668.859
507.7030, 7662.722
508.1851, 7681.045
508.6672, 7742.912
509.1493, 7791.886
509.6314, 7770.777
510.1136, 7701.799
510.5957, 7661.115
511.0778, 7682.497
511.5599, 7701.073
512.0420, 7674.443
512.5241, 7629.036
513.0062, 7610.477
513.4883, 7628.869
513.9705, 7655.959
514.4526, 7658.821
514.9347, 7635.014
515.4168, 7621.352
515.8989, 7623.906
516.3810, 7630.228
516.8632, 7638.430
517.3453, 7648.317
517.8274, 7661.540
518.3095, 7678.598
518.7916, 7692.756
519.2737, 7690.768
519.7559, 7678.576
520.2380, 7687.045
520.7201, 7724.673
521.2022, 7761.020
521.6843, 7777.943
522.1664, 7775.058
522.6486, 7757.739
523.1307, 7705.663
523.6128, 7665.634
524.0949, 7658.881
524.5770, 7669.437
525.0591, 7682.770
525.5413, 7693.872
526.0234, 7696.372
526.5055, 7682.012
526.9876, 7652.273
527.4697, 7633.602
527.9518, 7635.567
528.4340, 7633.551
528.9161, 7618.328
529.3982, 7598.433
529.8803, 7581.715
530.3624, 7569.555
530.8445, 7559.818
531.3267, 7548.916
531.8088, 7539.906
532.2909, 7538.114
532.7730, 7543.910
533.2551, 7562.604
533.7372, 7607.114
534.2194, 7660.352
534.7015, 7660.617
535.1836, 7542.760
535.6657, 7480.684
536.1478, 7534.012
536.6299, 7617.958
537.1121, 7671.990
537.5942, 7690.214
538.0763, 7689.105
538.5584, 7676.894
539.0405, 7659.132
539.5226, 7655.374
540.0048, 7670.182
540.4869, 7682.127
540.9690, 7685.677
541.4511, 7684.343
541.9332, 7679.113
542.4153, 7670.610
542.8975, 7666.883
543.3796, 7676.181
543.8617, 7687.641
544.3438, 7692.749
544.8259, 7691.221
545.3080, 7680.208
545.7902, 7656.933
546.2723, 7634.507
546.7544, 7639.184
547.2365, 7691.423
547.7186, 7713.491
548.2007, 7687.020
548.6829, 7652.293
549.1650, 7619.254
549.6471, 7591.373
550.1292, 7573.041
550.6113, 7567.068
551.0934, 7566.115
551.5756, 7557.202
552.0577, 7543.005
552.5398, 7547.188
553.0219, 7579.489
553.5040, 7612.308
553.9861, 7619.676
554.4683, 7604.997
554.9504, 7604.265
555.4325, 7645.663
555.9146, 7667.851
556.3967, 7625.209
556.8788, 7564.228
557.3610, 7543.391
557.8431, 7572.660
558.3252, 7621.714
558.8073, 7667.276
559.2894, 7706.880
559.7715, 7709.085
560.2537, 7650.603
560.7358, 7603.622
561.2179, 7608.210
561.7000, 7626.385
562.1821, 7619.886
562.6642, 7583.842
563.1464, 7554.289
563.6285, 7560.454
564.1106, 7575.521
564.5927, 7561.334
565.0748, 7521.610
565.5569, 7490.165
566.0391, 7485.601
566.5212, 7495.308
567.0033, 7490.397
567.4854, 7463.222
567.9675, 7436.762
568.4496, 7415.889
568.9318, 7391.001
569.4139, 7340.238
569.8960, 7283.824
570.3781, 7268.136
570.8602, 7322.525
571.3423, 7397.851
571.8245, 7430.471
572.3066, 7427.313
572.7887, 7433.070
573.2708, 7458.931
573.7529, 7484.220
574.2350, 7491.866
574.7172, 7482.135
575.1993, 7466.165
575.6814, 7431.876
576.1635, 7406.555
576.6456, 7400.512
577.1277, 7405.467
577.6099, 7416.555
578.0920, 7430.430
578.5741, 7439.031
579.0562, 7433.375
579.5383, 7416.834
580.0204, 7405.601
580.5026, 7400.635
580.9847, 7397.319
581.4668, 7396.115
581.9489, 7394.158
582.4310, 7385.632
582.9132, 7369.631
583.3953, 7362.215
583.8774, 7374.481
584.3596, 7391.359
584.8417, 7404.570
585.3238, 7412.279
585.8059, 7412.067
586.2880, 7402.910
586.7701, 7385.311
587.2523, 7354.478
587.7344, 7300.842
588.2165, 7283.706
588.6986, 7334.135
589.1807, 7382.705
589.6628, 7403.851
590.1450, 7405.081
590.6271, 7395.335
591.1092, 7373.746
591.5913, 7353.751
592.0734, 7343.868
592.5555, 7341.744
593.0377, 7349.963
593.5198, 7366.390
594.0019, 7365.840
594.4840, 7327.526
594.9661, 7265.875
595.4482, 7234.150
595.9304, 7252.629
596.4125, 7266.979
596.8946, 7268.940
597.3767, 7272.075
597.8588, 7292.142
598.3409, 7320.662
598.8231, 7330.562
599.3052, 7299.239
599.7873, 7262.075
600.2694, 7270.413
600.7515, 7313.237
601.2336, 7338.510
601.7158, 7333.716
602.1979, 7316.437
602.6800, 7303.933
603.1621, 7295.765
603.6442, 7270.379
604.1263, 7193.926
604.6085, 7145.248
605.0906, 7157.855
605.5727, 7192.406
606.0548, 7220.286
606.5369, 7233.332
607.0190, 7226.594
607.5012, 7183.446
607.9833, 7126.203
608.4654, 7111.783
608.9475, 7141.155
609.4296, 7173.176
609.9117, 7197.610
610.3939, 7213.862
610.8760, 7221.170
611.3581, 7219.041
611.8402, 7208.174
612.3223, 7188.090
612.8044, 7159.809
613.2866, 7106.936
613.7687, 7053.037
614.2508, 7035.804
614.7329, 7062.480
615.2150, 7098.505
615.6971, 7106.362
616.1793, 7091.363
616.6614, 7087.807
617.1435, 7099.943
617.6256, 7102.967
618.1077, 7080.476
618.5898, 7048.222
619.0720, 7035.590
619.5541, 7047.508
620.0362, 7047.465
620.5183, 7010.432
621.0004, 6977.628
621.4825, 6981.992
621.9647, 7009.552
622.4468, 7031.497
622.9289, 7036.524
623.4110, 7031.712
623.8931, 7026.549
624.3752, 7020.926
624.8574, 7007.125
625.3395, 6981.009
625.8216, 6957.399
626.3037, 6947.759
626.7858, 6943.509
627.2679, 6926.104
627.7501, 6887.563
628.2322, 6863.338
628.7143, 6879.605
629.1964, 6899.984
629.6785, 6887.076
630.1606, 6852.563
630.6428, 6835.865
631.1249, 6856.222
631.6070, 6888.962
632.0891, 6891.632
632.5712, 6862.275
633.0533, 6832.338
633.5355, 6798.145
634.0176, 6773.812
634.4997, 6776.529
634.9818, 6792.239
635.4639, 6791.796
635.9460, 6762.667
636.4282, 6746.002
636.9103, 6767.640
637.3924, 6798.428
637.8745, 6815.902
638.3566, 6817.448
638.8387, 6801.664
639.3209, 6766.273
639.8030, 6726.996
640.2851, 6714.809
640.7672, 6731.774
641.2493, 6756.965
641.7314, 6802.153
642.2136, 6831.849
642.6957, 6812.612
643.1778, 6764.438
643.6599, 6728.884
644.1420, 6715.002
644.6241, 6700.065
645.1063, 6669.768
645.5884, 6639.806
646.0705, 6628.534
646.5526, 6632.375
647.0347, 6634.439
647.5168, 6625.066
647.9990, 6609.985
648.4811, 6600.307
648.9632, 6596.563
649.4453, 6592.082
649.9274, 6586.346
650.4095, 6579.547
650.8917, 6568.411
651.3738, 6556.833
651.8559, 6556.379
652.3380, 6579.250
652.8201, 6589.366
653.3022, 6556.855
653.7844, 6521.221
654.2665, 6524.509
654.7486, 6558.542
655.2307, 6587.439
655.7128, 6591.475
656.1949, 6580.597
656.6771, 6570.104
657.1592, 6559.917
657.6413, 6554.501
658.1234, 6557.194
658.6055, 6557.614
659.0876, 6550.750
659.5698, 6536.010
660.0519, 6511.655
660.5340, 6466.088
661.0161, 6434.296
661.4982, 6436.482
661.9803, 6444.307
662.4625, 6436.526
662.9446, 6414.973
663.4267, 6388.194
663.9088, 6359.376
664.3909, 6335.838
664.8730, 6329.726
665.3552, 6339.898
665.8373, 6358.525
666.3194, 6389.606
666.8015, 6407.267
667.2836, 6389.706
667.7657, 6350.202
668.2479, 6327.278
668.7300, 6325.418
669.2121, 6329.031
669.6942, 6355.101
670.1763, 6369.253
670.6584, 6328.365
671.1406, 6263.779
671.6227, 6244.957
672.1048, 6302.014
672.5869, 6371.614
673.0690, 6376.887
673.5511, 6335.722
674.0333, 6311.737
674.5154, 6310.267
674.9975, 6308.705
675.4796, 6292.407
675.9617, 6272.742
676.4438, 6277.224
676.9260, 6331.012
677.4081, 6345.685
677.8902, 6275.870
678.3723, 6219.307
678.8544, 6236.665
679.3365, 6285.572
679.8187, 6296.944
680.3008, 6251.149
680.7829, 6201.201
681.2650, 6194.080
681.7471, 6207.134
682.2292, 6196.232
682.7114, 6164.472
683.1935, 6151.448
683.6756, 6177.161
684.1577, 6211.710
684.6398, 6203.284
685.1219, 6138.326
685.6041, 6109.291
686.0862, 6148.851
686.5683, 6180.505
687.0504, 6178.380
687.5325, 6159.672
688.0146, 6138.920
688.4968, 6118.296
688.9789, 6107.526
689.4610, 6116.923
689.9431, 6133.183
690.4252, 6149.842
690.9073, 6162.593
691.3895, 6160.555
691.8716, 6140.998
692.3537, 6113.844
692.8358, 6087.521
693.3179, 6063.269
693.8000, 6056.363
694.2822, 6073.864
694.7643, 6087.504
695.2464, 6087.679
695.7285, 6082.121
696.2106, 6076.201
696.6927, 6070.372
697.1749, 6071.861
697.6570, 6096.688
698.1391, 6111.783
698.6212, 6093.625
699.1033, 6062.491
699.5854, 6042.007
700.0676, 6035.632
700.5497, 6035.463
701.0318, 6038.347
701.5139, 6039.358
701.9960, 6024.125
702.4781, 5993.428
702.9603, 5974.150
703.4424, 5978.171
703.9245, 5968.321
704.4066, 5898.990
704.8887, 5787.435
705.3708, 5744.957
705.8530, 5831.002
706.3351, 5900.734
706.8172, 5950.339
707.2993, 5976.665
707.7814, 5964.160
708.2635, 5927.808
708.7457, 5901.761
709.2278, 5900.364
709.7099, 5909.509
710.1920, 5917.588
710.6741, 5926.146
711.1563, 5943.804
711.6384, 5968.721
712.1205, 5979.104
712.6026, 5961.916
713.0847, 5925.250
713.5668, 5882.813
714.0490, 5827.573
714.5311, 5793.606
715.0132, 5785.134
715.4953, 5792.948
715.9774, 5830.232
716.4595, 5872.905
716.9417, 5886.325
717.4238, 5863.246
717.9059, 5842.299
718.3880, 5846.727
718.8701, 5849.353
719.3522, 5818.401
719.8344, 5772.712
720.3165, 5749.410
720.7986, 5759.498
721.2807, 5789.418
721.7628, 5836.071
722.2449, 5888.987
722.7271, 5893.423
723.2092, 5844.100
723.6913, 5807.625
724.1734, 5808.218
724.6555, 5819.253
725.1376, 5811.040
725.6198, 5783.295
726.1019, 5764.012
726.5840, 5755.151
727.0661, 5751.475
727.5482, 5757.182
728.0303, 5763.943
728.5125, 5764.533
728.9946, 5759.763
729.4767, 5755.699
729.9588, 5757.858
730.4409, 5756.431
730.9230, 5735.771
731.4052, 5705.941
731.8873, 5687.340
732.3694, 5682.600
732.8515, 5689.303
733.3336, 5707.905
733.8157, 5728.955
734.2979, 5727.189
734.7800, 5695.762
735.2621, 5672.560
735.7442, 5664.411
736.2263, 5655.583
736.7084, 5624.390
737.1906, 5592.936
737.6727, 5604.036
738.1548, 5674.238
738.6369, 5719.891
739.1190, 5705.292
739.6011, 5677.168
740.0833, 5658.260
740.5654, 5648.507
741.0475, 5648.418
741.5296, 5656.273
742.0117, 5658.242
742.4938, 5633.156
742.9760, 5597.129
743.4581, 5604.706
743.9402, 5647.122
744.4223, 5622.424
744.9044, 5490.039
745.3865, 5360.433
745.8687, 5351.289
746.3508, 5451.485
746.8329, 5528.749
747.3150, 5577.470
747.7971, 5611.721
748.2792, 5638.270
748.7614, 5646.192
749.2435, 5615.079
749.7256, 5559.888
750.2077, 5522.598
750.6898, 5519.332
751.1719, 5522.522
751.6541, 5524.421
752.1362, 5521.829
752.6183, 5505.084
753.1004, 5480.616
753.5825, 5467.599
754.0646, 5474.975
754.5468, 5493.482
755.0289, 5522.387
755.5110, 5554.523
755.9931, 5529.591
756.4752, 5438.064
756.9573, 5386.702
757.4395, 5434.910
757.9216, 5509.911
758.4037, 5499.067
758.8858, 5383.833
759.3679, 5328.123
759.8500, 5388.458
760.3322, 5438.197
760.8143, 5446.860
761.2964, 5441.464
761.7785, 5446.771
762.2606, 5461.654
762.7427, 5467.830
763.2249, 5457.504
763.7070, 5437.412
764.1891, 5401.130
764.6712, 5363.338
765.1533, 5352.245
765.6354, 5363.561
766.1176, 5362.937
766.5997, 5328.746
767.0818, 5278.716
767.5639, 5240.959
768.0460, 5215.640
768.5281, 5199.298
769.0103, 5187.989
769.4924, 5214.670
769.9745, 5315.296
770.4566, 5435.609
770.9387, 5470.780
771.4208, 5393.854
771.9030, 5340.359
772.3851, 5322.951
772.8672, 5313.102
773.3493, 5306.164
773.8314, 5301.485
774.3135, 5295.879
774.7957, 5290.565
775.2778, 5296.452
775.7599, 5349.707
776.2420, 5382.438
776.7241, 5313.406
777.2062, 5209.004
777.6884, 5174.960
778.1705, 5215.724
778.6526, 5263.905
779.1347, 5277.468
779.6168, 5268.353
780.0989, 5253.293
780.5811, 5233.542
781.0632, 5223.152
781.5453, 5224.018
782.0274, 5230.342
782.5095, 5241.289
782.9916, 5251.643
783.4738, 5249.484
783.9559, 5227.298
784.4380, 5221.363
784.9201, 5250.191
785.4022, 5271.920
785.8843, 5272.208
786.3665, 5262.252
786.8486, 5251.534
787.3307, 5241.159
787.8128, 5232.110
788.2949, 5212.959
788.7770, 5208.458
789.2592, 5255.681
789.7413, 5312.141
790.2234, 5315.658
790.7055, 5271.692
791.1876, 5236.500
791.6697, 5245.300
792.1519, 5268.045
792.6340, 5257.389
793.1161, 5223.038
793.5982, 5205.376
794.0803, 5207.648
794.5624, 5207.536
795.0446, 5193.939
795.5267, 5171.857
796.0088, 5149.217
796.4909, 5125.818
796.9730, 5102.314
797.4551, 5074.835
797.9373, 5054.888
798.4194, 5054.943
798.9015, 5056.580
799.3836, 5033.109
799.8657, 4988.948
800.3478, 4971.431
800.8300, 5020.200
801.3121, 5052.582
801.7942, 5033.000
802.2763, 4995.042
802.7584, 4953.464
803.2405, 4920.942
803.7227, 4922.585
804.2048, 4973.880
804.6869, 5034.651
805.1690, 5073.806
805.6511, 5095.735
806.1332, 5103.959
806.6154, 5101.355
807.0975, 5095.837
807.5796, 5090.542
808.0617, 5086.212
808.5438, 5081.275
809.0259, 5078.095
809.5081, 5101.405
809.9902, 5159.101
810.4723, 5185.918
810.9544, 5159.011
811.4365, 5113.152
811.9186, 5072.792
812.4008, 5040.141
812.8829, 5028.490
813.3650, 5052.482
813.8471, 5074.779
814.3292, 5105.725
814.8113, 5123.206
815.2935, 5103.268
815.7756, 5067.382
816.2577, 5051.536
816.7398, 5063.770
817.2219, 5080.750
817.7040, 5098.401
818.1862, 5111.998
818.6683, 5114.433
819.1504, 5111.949
819.6325, 5120.642
820.1146, 5138.917
820.5967, 5138.417
821.0789, 5088.045
821.5610, 5025.396
822.0431, 5020.942
822.5252, 5056.009
823.0073, 5058.468
823.4894, 5020.250
823.9716, 4988.662
824.4537, 4992.072
824.9358, 5018.593
825.4179, 5048.768
825.9000, 5085.026
826.3821, 5103.979
826.8643, 5102.573
827.3464, 5090.732
827.8285, 5061.831
828.3106, 5036.403
828.7927, 5046.247
829.2748, 5093.450
829.7570, 5115.274
830.2391, 5085.271
830.7212, 5067.539
831.2033, 5087.438
831.6854, 5109.347
832.1675, 5100.578
832.6497, 5073.747
833.1318, 5066.334
833.6139, 5095.067
834.0960, 5119.212
834.5781, 5116.087
835.0602, 5100.820
835.5424, 5077.341
836.0245, 5055.181
836.5066, 5055.090
836.9887, 5080.175
837.4708, 5104.213
837.9529, 5104.396
838.4351, 5089.803
838.9172, 5073.002
839.3993, 5055.796
839.8814, 5047.045
840.3635, 5047.947
840.8456, 5048.958
841.3278, 5043.954
841.8099, 5033.140
842.2920, 5011.410
842.7741, 4975.301
843.2562, 4972.246
843.7383, 5016.566
844.2205, 5050.824
844.7026, 5046.917
845.1847, 5026.340
845.6668, 5017.291
846.1489, 5020.605
846.6310, 5024.028
847.1132, 5028.580
847.5953, 5031.630
848.0774, 5037.326
848.5595, 5037.235
849.0416, 5016.352
849.5237, 4985.540
850.0059, 4976.197
850.4880, 5002.915
850.9701, 5027.036
851.4522, 5023.704
851.9343, 5023.502
852.4164, 5056.636
852.8986, 5105.579
853.3807, 5144.006
853.8628, 5164.180
854.3449, 5163.538
854.8270, 5132.128
855.3091, 5087.592
855.7913, 5039.258
856.2734, 4997.756
856.7555, 4992.206
857.2376, 5021.312
857.7197, 5053.532
858.2018, 5070.519
858.6840, 5078.600
859.1661, 5091.097
859.6482, 5105.350
860.1303, 5097.029
860.6124, 5064.233
861.0945, 5044.966
861.5767, 5055.148
862.0588, 5074.004
862.5409, 5077.560
863.0230, 5067.685
863.5051, 5066.881
863.9872, 5083.503
864.4694, 5083.352
864.9515, 5049.103
865.4336, 5016.733
865.9157, 5006.811
866.3978, 5015.938
866.8799, 5037.723
867.3621, 5077.229
867.8442, 5113.349
868.3263, 5158.829
868.8084, 5184.294
869.2905, 5164.074
869.7726, 5129.665
870.2548, 5114.010
870.7369, 5116.968
871.2190, 5117.185
871.7011, 5103.006
872.1832, 5092.313
872.6653, 5098.684
873.1475, 5108.275
873.6296, 5099.301
874.1117, 5084.265
874.5938, 5098.565
875.0759, 5153.582
875.5580, 5205.808
876.0402, 5215.076
876.5223, 5204.314
877.0044, 5203.138
877.4865, 5206.943
877.9686, 5200.900
878.4507, 5183.798
878.9329, 5167.621
879.4150, 5159.244
879.8971, 5162.836
880.3792, 5198.383
880.8613, 5255.875
881.3434, 5267.722
881.8256, 5230.597
882.3077, 5211.791
882.7898, 5241.299
883.2719, 5288.299
883.7540, 5315.500
884.2361, 5324.438
884.7183, 5330.951
885.2004, 5335.345
885.6825, 5336.083
886.1646, 5333.135
886.6467, 5325.064
887.1288, 5305.402
887.6110, 5283.581
888.0931, 5286.235
888.5752, 5326.695
889.0573, 5350.013
889.5394, 5338.618
890.0215, 5333.400
890.5037, 5349.738
890.9858, 5374.187
891.4679, 5399.899
891.9500, 5424.241
892.4321, 5431.470
892.9142, 5400.938
893.3964, 5380.396
893.8785, 5383.955
894.3606, 5396.469
894.8427, 5420.120
895.3248, 5441.004
895.8069, 5429.577
896.2891, 5380.030
896.7712, 5349.332
897.2533, 5387.867
897.7354, 5429.585
898.2175, 5419.675
898.6996, 5391.185
899.1818, 5392.245
899.6639, 5418.453
900.1460, 5428.473
900.6281, 5400.104
901.1102, 5368.584
901.5923, 5372.671
902.0745, 5392.613
902.5566, 5396.938
903.0387, 5390.233
903.5208, 5392.870
904.0029, 5408.834
904.4850, 5420.431
904.9672, 5412.479
905.4493, 5391.749
905.9314, 5362.833
906.4135, 5332.016
906.8956, 5340.205
907.3777, 5387.588
907.8599, 5408.073
908.3420, 5369.290
908.8241, 5305.740
909.3062, 5262.702
909.7883, 5238.493
910.2704, 5218.084
910.7526, 5201.182
911.2347, 5192.623
911.7168, 5195.561
912.1990, 5197.242
912.6811, 5188.151
913.1632, 5172.119
913.6453, 5159.485
914.1274, 5153.354
914.6096, 5134.437
915.0917, 5090.972
915.5738, 5062.190
916.0559, 5064.843
916.5380, 5081.689
917.0201, 5097.979
917.5023, 5113.537
917.9844, 5126.753
918.4665, 5165.075
918.9486, 5155.848
919.4307, 5030.412
919.9128, 4933.299
920.3950, 4947.831
920.8771, 5014.022
921.3592, 5058.896
921.8413, 5078.687
922.3234, 5072.269
922.8055, 5010.288
923.2877, 4961.610
923.7698, 4949.500
924.2519, 4952.782
924.7340, 4961.926
925.2161, 4972.134
925.6982, 4972.285
926.1804, 4956.022
926.6625, 4959.398
927.1446, 5030.359
927.6267, 5086.867
928.1088, 5066.491
928.5909, 5013.473
929.0731, 4977.708
929.5552, 4963.408
930.0373, 4951.983
930.5194, 4932.044
931.0015, 4926.618
931.4836, 4960.130
931.9658, 5009.042
932.4479, 5063.114
932.9300, 5108.583
933.4121, 5117.549
933.8942, 5088.869
934.3763, 5056.456
934.8585, 5043.329
935.3406, 5034.997
935.8227, 5015.596
936.3048, 4989.263
936.7869, 4956.700
937.2690, 4923.884
937.7512, 4910.661
938.2333, 4923.091
938.7154, 4937.887
939.1975, 4928.938
939.6796, 4910.502
940.1617, 4912.371
940.6439, 4928.615
941.1260, 4941.785
941.6081, 4948.665
942.0902, 4946.618
942.5723, 4933.793
943.0544, 4919.451
943.5366, 4921.130
944.0187, 4932.097
944.5008, 4914.294
944.9829, 4872.267
945.4650, 4861.791
945.9471, 4895.373
946.4293, 4925.052
946.9114, 4915.520
947.3935, 4935.126
947.8756, 4941.086
948.3577, 4932.186
948.8398, 4943.546
949.3220, 4925.717
949.8041, 4906.090
950.2862, 4891.417
950.7683, 4888.154
951.2504, 4906.851
951.7325, 4886.064
952.2147, 4923.629
952.6968, 4863.452
953.1789, 4824.323
953.6610, 4809.640
954.1431, 4818.467
954.6252, 4860.469
955.1074, 4902.321
955.5895, 4903.376
956.0716, 4868.712
956.5537, 4839.420
957.0358, 4807.496
957.5179, 4810.853
958.0001, 4877.032
958.4822, 4923.729
958.9643, 4898.473
959.4464, 4847.480
959.9285, 4841.360
960.4106, 4881.905
960.8928, 4896.858
961.3749, 4864.824
961.8570, 4851.901
962.3391, 4882.289
962.8212, 4911.119
963.3033, 4907.759
963.7855, 4888.716
964.2676, 4886.342
964.7497, 4905.470
965.2318, 4912.140
965.7139, 4893.665
966.1960, 4881.233
966.6782, 4890.351
967.1603, 4896.827
967.6424, 4874.006
968.1245, 4839.351
968.6066, 4836.777
969.0887, 4880.093
969.5709, 4907.790
970.0530, 4912.247
970.5351, 4906.918
971.0172, 4882.095
971.4993, 4860.436
971.9814, 4865.704
972.4636, 4888.830
972.9457, 4899.732
973.4278, 4889.039
973.9099, 4884.835
974.3920, 4893.072
974.8741, 4905.753
975.3563, 4928.025
975.8384, 4946.967
976.3205, 4951.370
976.8026, 4941.369
977.2847, 4919.728
977.7668, 4877.316
978.2490, 4846.100
978.7311, 4823.837
979.2132, 4824.550
979.6953, 4880.406
980.1774, 4945.451
980.6595, 4967.099
981.1417, 4947.262
981.6238, 4921.421
982.1059, 4885.287
982.5880, 4869.595
983.0701, 4848.877
983.5522, 4924.046
984.0344, 4965.654
984.5165, 4975.505
984.9986, 4858.480
985.4807, 4905.289
985.9628, 4886.441
986.4449, 4864.900
986.9271, 4934.767
987.4092, 4836.197
987.8913, 4904.614
988.3734, 4906.374
988.8555, 4938.641
989.3376, 4904.845
989.8198, 4891.454
990.3019, 4944.147
990.7840, 4960.249
991.2661, 4918.849
991.7482, 4953.055
992.2303, 4852.177
992.7125, 4869.837
993.1946, 4938.642
993.6767, 4900.563
994.1588, 4935.978
994.6409, 4943.402
995.1230, 4823.623
995.6052, 4925.062
996.0873, 4930.833
996.5694, 4838.371
997.0515, 4932.231
997.5336, 4853.312
998.0157, 4836.064
998.4979, 4865.228
998.9800, 4846.009
999.4621, 4903.072
999.9442, 4882.984
1000.426, 4893.337
1000.908, 4897.465
1001.391, 4903.767
1001.873, 4911.360
1002.355, 4913.386
1002.837, 4909.509
1003.319, 4919.645
1003.801, 4979.692
1004.283, 5020.979
1004.765, 4980.352
1005.247, 4932.637
1005.730, 4964.191
1006.212, 5031.910
1006.694, 5034.172
1007.176, 4952.905
1007.658, 4901.002
1008.140, 4963.798
1008.622, 5021.539
1009.104, 4997.548
1009.587, 4958.904
1010.069, 4971.579
1010.551, 5012.429
1011.033, 5024.463
1011.515, 4996.688
1011.997, 4977.202
1012.479, 4996.389
1012.961, 5014.949
1013.443, 5015.501
1013.926, 5006.721
1014.408, 4984.879
1014.890, 4963.602
1015.372, 4972.440
1015.854, 5016.206
1016.336, 5045.898
1016.818, 5036.641
1017.300, 5018.093
1017.783, 4988.420
1018.265, 4903.972
1018.747, 4985.408
1019.229, 5033.284
1019.711, 5049.402
1020.193, 4938.646
1020.675, 4991.721
1021.157, 4979.141
1021.639, 4963.867
1022.122, 5040.012
1022.604, 4947.709
1023.086, 5022.395
1023.568, 5030.421
1024.050, 5068.956
1024.532, 5041.428
1025.014, 5034.305
1025.496, 5093.265
1025.979, 5115.644
1026.461, 5080.512
1026.943, 5120.986
1027.425, 5026.375
1027.907, 5050.303
1028.389, 5125.375
1028.871, 5093.564
1029.353, 5135.246
1029.835, 5148.938
1030.318, 5035.437
1030.800, 5143.145
1031.282, 5155.182
1031.764, 5068.988
1032.246, 5169.115
1032.728, 5096.463
1033.210, 5085.482
1033.692, 5120.915
1034.174, 5107.963
1034.657, 5171.304
1035.139, 5161.147
1035.621, 5144.424
1036.103, 5156.355
1036.585, 5173.607
1037.067, 5186.344
1037.549, 5183.611
1038.031, 5187.679
1038.514, 5189.291
1038.996, 5213.812
1039.478, 5295.210
1039.960, 5356.641
1040.442, 5356.854
1040.924, 5332.930
1041.406, 5325.408
1041.888, 5331.274
1042.370, 5325.637
1042.853, 5293.922
1043.335, 5281.637
1043.817, 5302.191
1044.299, 5319.232
1044.781, 5315.315
1045.263, 5309.290
1045.745, 5321.243
1046.227, 5346.738
1046.709, 5365.565
1047.192, 5375.919
1047.674, 5385.485
1048.156, 5395.500
1048.638, 5400.965
1049.120, 5397.921
1049.602, 5395.215
1050.084, 5400.048
1050.566, 5411.519
1051.049, 5428.574
1051.531, 5453.575
1052.013, 5464.643
1052.495, 5455.673
1052.977, 5468.746
1053.459, 5522.270
1053.941, 5563.437
1054.423, 5549.932
1054.906, 5506.923
1055.388, 5484.422
1055.870, 5482.435
1056.352, 5506.488
1056.834, 5557.764
1057.316, 5594.092
1057.798, 5606.685
1058.280, 5602.250
1058.762, 5582.376
1059.245, 5564.681
1059.727, 5583.250
1060.209, 5578.551
1060.691, 5580.605
1061.173, 5605.981
1061.655, 5601.253
1062.137, 5624.853
1062.619, 5666.353
1063.101, 5721.289
1063.584, 5760.173
1064.066, 5737.783
1064.548, 5687.009
1065.030, 5686.854
1065.512, 5720.954
1065.994, 5736.238
1066.476, 5734.311
1066.958, 5756.346
1067.441, 5814.720
1067.923, 5865.396
1068.405, 5864.617
1068.887, 5848.155
1069.369, 5866.411
1069.851, 5902.177
1070.333, 5931.398
1070.815, 5951.339
1071.297, 5960.581
1071.780, 5959.940
1072.262, 5954.318
1072.744, 5941.300
1073.226, 5938.672
1073.708, 5968.705
1074.190, 6010.555
1074.672, 6047.979
1075.154, 6078.824
1075.636, 6103.346
1076.119, 6120.923
1076.601, 6127.745
1077.083, 6117.119
1077.565, 6114.994
1078.047, 6139.258
1078.529, 6170.613
1079.011, 6204.470
1079.494, 6232.840
1079.976, 6243.904
1080.458, 6243.065
1080.940, 6245.475
1081.422, 6252.660
1081.904, 6271.415
1082.386, 6308.177
1082.868, 6350.141
1083.350, 6395.350
1083.833, 6442.187
1084.315, 6503.753
1084.797, 6561.005
1085.279, 6569.634
1085.761, 6519.549
1086.243, 6505.380
1086.725, 6557.939
1087.207, 6594.377
1087.689, 6599.832
1088.172, 6598.321
1088.654, 6592.136
1089.136, 6595.422
1089.618, 6630.898
1090.100, 6693.117
1090.582, 6734.439
1091.064, 6750.173
1091.546, 6762.008
1092.029, 6768.653
1092.511, 6780.467
1092.993, 6801.419
1093.475, 6826.960
1093.957, 6852.926
1094.439, 6880.285
1094.921, 6913.893
1095.403, 6937.710
1095.885, 6978.610
1096.368, 6990.298
1096.850, 7007.047
1097.332, 7033.176
1097.814, 7064.268
1098.296, 7098.285
1098.778, 7130.324
1099.260, 7147.281
1099.742, 7159.569
1100.224, 7204.126
1100.707, 7267.094
1101.189, 7302.401
1101.671, 7310.313
1102.153, 7321.858
1102.635, 7349.002
1103.117, 7373.392
1103.599, 7370.222
1104.081, 7370.626
1104.564, 7425.922
1105.046, 7431.617
1105.528, 7514.139
1106.010, 7505.662
1106.492, 7536.682
1106.974, 7613.155
1107.456, 7673.741
1107.938, 7683.452
1108.421, 7688.254
1108.903, 7698.010
1109.385, 7727.803
1109.867, 7809.830
1110.349, 7901.269
1110.831, 7948.359
1111.313, 7960.337
1111.795, 7986.633
1112.277, 8041.657
1112.760, 8086.329
1113.242, 8110.198
1113.724, 8129.020
1114.206, 8130.380
1114.688, 8145.864
1115.170, 8209.888
1115.652, 8291.633
1116.134, 8337.392
1116.616, 8346.385
1117.099, 8363.329
1117.581, 8385.473
1118.063, 8425.909
1118.545, 8492.288
1119.027, 8559.263
1119.509, 8619.403
1119.991, 8666.658
1120.473, 8692.316
1120.956, 8705.327
1121.438, 8733.011
1121.920, 8775.271
1122.402, 8836.079
1122.884, 8913.415
1123.366, 8954.944
1123.848, 8949.744
1124.330, 8942.676
1124.813, 8960.873
1125.295, 9001.339
1125.777, 9066.474
1126.259, 9147.247
1126.741, 9235.304
1127.223, 9319.911
1127.705, 9371.492
1128.187, 9395.140
1128.669, 9416.474
1129.151, 9445.260
1129.634, 9486.056
1130.116, 9550.601
1130.598, 9613.500
1131.080, 9646.275
1131.562, 9676.347
1132.044, 9734.748
1132.526, 9805.387
1133.008, 9861.876
1133.491, 9903.218
1133.973, 9944.299
1134.455, 9985.259
1134.937, 10037.43
1135.419, 10120.57
1135.901, 10193.24
1136.383, 10226.46
1136.865, 10257.09
1137.348, 10325.91
1137.830, 10405.98
1138.312, 10438.12
1138.794, 10416.82
1139.276, 10440.59
1139.758, 10522.49
1140.240, 10614.24
1140.722, 10719.54
1141.204, 10803.47
1141.687, 10846.85
1142.169, 10878.26
1142.651, 10927.75
1143.133, 10987.61
1143.615, 11028.53
1144.097, 11110.27
1144.579, 11138.34
1145.061, 11267.79
1145.543, 11375.27
1146.026, 11446.84
1146.508, 11499.88
1146.990, 11543.83
1147.472, 11583.32
1147.954, 11619.81
1148.436, 11658.52
1148.918, 11703.87
1149.400, 11758.73
1149.883, 11838.80
1150.365, 11929.46
1150.847, 11990.72
1151.329, 12017.61
1151.811, 12055.05
1152.293, 12134.54
1152.775, 12206.58
1153.257, 12229.63
1153.740, 12258.93
1154.222, 12339.89
1154.704, 12434.76
1155.186, 12503.25
1155.668, 12550.38
1156.150, 12599.72
1156.632, 12653.03
1157.114, 12706.61
1157.596, 12764.58
1158.078, 12810.92
1158.561, 12823.14
1159.043, 12870.96
1159.525, 13001.75
1160.007, 13156.14
1160.489, 13264.38
1160.971, 13332.92
1161.453, 13379.82
1161.935, 13406.71
1162.418, 13464.15
1162.900, 13551.67
1163.382, 13636.79
1163.864, 13710.03
1164.346, 13760.89
1164.828, 13781.82
1165.310, 13801.46
1165.792, 13852.58
1166.275, 13925.73
1166.757, 14022.92
1167.239, 14122.50
1167.721, 14182.79
1168.203, 14216.25
1168.685, 14258.05
1169.167, 14317.55
1169.649, 14391.39
1170.131, 14491.36
1170.614, 14576.63
1171.096, 14602.25
1171.578, 14642.26
1172.060, 14758.94
1172.542, 14890.67
1173.024, 14977.49
1173.506, 15029.34
1173.988, 15081.09
1174.470, 15132.25
1174.953, 15190.44
1175.435, 15261.92
1175.917, 15317.22
1176.399, 15338.46
1176.881, 15400.69
1177.363, 15546.35
1177.845, 15700.18
1178.327, 15784.42
1178.810, 15823.51
1179.292, 15880.79
1179.774, 15947.98
1180.256, 15975.35
1180.738, 15973.79
1181.220, 15999.56
1181.702, 16057.30
1182.184, 16109.63
1182.667, 16140.04
1183.149, 16173.80
1183.631, 16231.35
1184.113, 16302.55
1184.595, 16383.33
1185.077, 16469.25
1185.559, 16564.39
1186.041, 16656.15
1186.523, 16723.85
1187.005, 16768.88
1187.488, 16810.57
1187.970, 16848.38
1188.452, 16895.08
1188.934, 16953.75
1189.416, 17020.23
1189.898, 17107.54
1190.380, 17179.72
1190.862, 17210.13
1191.345, 17223.87
1191.827, 17257.51
1192.309, 17305.58
1192.791, 17332.04
1193.273, 17337.15
1193.755, 17363.45
1194.237, 17412.11
1194.719, 17462.25
1195.202, 17508.89
1195.684, 17565.37
1196.166, 17641.01
1196.648, 17704.16
1197.130, 17707.01
1197.612, 17686.56
1198.094, 17691.48
1198.576, 17704.38
1199.058, 17685.74
1199.541, 17661.27
1200.023, 17701.08
1200.505, 17802.37
1200.987, 17869.31
1201.469, 17871.82
1201.951, 17839.04
1202.433, 17728.34
1202.915, 17651.04
1203.397, 17669.32
1203.880, 17707.68
1204.362, 17728.74
1204.844, 17735.07
1205.326, 17733.62
1205.808, 17721.84
1206.290, 17664.17
1206.772, 17556.20
1207.254, 17479.50
1207.737, 17439.35
1208.219, 17458.59
1208.701, 17540.00
1209.183, 17616.61
1209.665, 17647.10
1210.147, 17642.76
1210.629, 17599.87
1211.111, 17545.82
1211.594, 17514.98
1212.076, 17501.40
1212.558, 17502.07
1213.040, 17510.67
1213.522, 17531.77
1214.004, 17554.84
1214.486, 17517.51
1214.968, 17365.85
1215.450, 17250.58
1215.932, 17234.74
1216.415, 17223.81
1216.897, 17194.51
1217.379, 17155.57
1217.861, 17107.90
1218.343, 17058.84
1218.825, 17020.09
1219.307, 16988.40
1219.789, 16942.07
1220.272, 16881.41
1220.754, 16821.17
1221.236, 16761.77
1221.718, 16694.58
1222.200, 16618.83
1222.682, 16551.97
1223.164, 16503.21
1223.646, 16464.07
1224.129, 16442.62
1224.611, 16406.13
1225.093, 16292.84
1225.575, 16168.47
1226.057, 16117.45
1226.539, 16101.40
1227.021, 16055.16
1227.503, 15975.63
1227.985, 15890.88
1228.468, 15802.24
1228.950, 15724.82
1229.432, 15684.63
1229.914, 15609.11
1230.396, 15455.22
1230.878, 15340.70
1231.360, 15330.81
1231.842, 15353.30
1232.324, 15335.50
1232.807, 15282.67
1233.289, 15201.66
1233.771, 15097.90
1234.253, 14995.90
1234.735, 14898.27
1235.217, 14813.81
1235.699, 14741.52
1236.181, 14674.25
1236.664, 14609.23
1237.146, 14543.67
1237.628, 14468.65
1238.110, 14407.33
1238.592, 14388.79
1239.074, 14371.01
1239.556, 14323.56
1240.038, 14265.68
1240.521, 14214.64
1241.003, 14170.22
1241.485, 14125.43
1241.967, 14105.31
1242.449, 14062.28
1242.931, 14079.76
1243.413, 14088.56
1243.895, 14087.18
1244.377, 14057.36
1244.859, 13993.19
1245.342, 13941.90
1245.824, 13936.29
1246.306, 13935.33
1246.788, 13886.70
1247.270, 13810.11
1247.752, 13716.34
1248.234, 13629.49
1248.716, 13594.43
1249.199, 13588.65
1249.681, 13571.89
1250.163, 13536.82
1250.645, 13482.34
1251.127, 13393.97
1251.609, 13344.33
1252.091, 13393.52
1252.573, 13404.85
1253.056, 13332.00
1253.538, 13267.81
1254.020, 13253.30
1254.502, 13267.22
1254.984, 13293.36
1255.466, 13319.82
1255.948, 13305.79
1256.430, 13338.62
1256.912, 13291.07
1257.395, 13353.68
1257.877, 13362.16
1258.359, 13320.73
1258.841, 13292.50
1259.323, 13294.00
1259.805, 13286.51
1260.287, 13235.03
1260.769, 13212.62
1261.251, 13289.94
1261.734, 13361.66
1262.216, 13364.36
1262.698, 13351.31
1263.180, 13359.68
1263.662, 13382.46
1264.144, 13412.48
1264.626, 13447.21
1265.108, 13469.76
1265.591, 13479.57
1266.073, 13497.44
1266.555, 13523.76
1267.037, 13551.02
1267.519, 13577.46
1268.001, 13612.84
1268.483, 13660.54
1268.965, 13682.57
1269.448, 13631.89
1269.930, 13579.60
1270.412, 13575.76
1270.894, 13611.27
1271.376, 13694.91
1271.858, 13797.06
1272.340, 13893.67
1272.822, 13984.72
##END=



