##NAMES=Hoelite
##RRUFFID=R060874
##IDEAL CHEMISTRY=C_14_H_8_O_2_
##LOCALITY=Kladno, Central Bohemia Region, Bohemia, Czech Republic
##OWNER=RRUFF
##SOURCE=Michael Scott
##DESCRIPTION=Straw-yellow acicular crystals
##STATUS=The identification of this mineral has been confirmed by single-crystal X-ray diffraction.
##URL=rruff.info/R060874
117.6661, 0.0000000E+00
118.1482, 22.39160
118.6303, 1.655762
119.1124, 20.71729
119.5946, 2.875000
120.0767, 75.77100
120.5588, 247.3687
121.0409, 457.8076
121.5230, 676.3726
122.0051, 897.7964
122.4873, 1118.251
122.9694, 1334.447
123.4515, 1544.198
123.9336, 1739.668
124.4157, 1932.486
124.8979, 2103.200
125.3800, 2224.385
125.8621, 2287.183
126.3442, 2305.890
126.8263, 2290.227
127.3084, 2241.086
127.7905, 2172.902
128.2727, 2102.151
128.7548, 2021.141
129.2369, 1903.570
129.7190, 1716.833
130.2011, 1501.945
130.6832, 1351.358
131.1654, 1268.033
131.6475, 1219.957
132.1296, 1174.630
132.6117, 1133.312
133.0938, 1110.346
133.5759, 1103.365
134.0581, 1115.916
134.5402, 1182.193
135.0223, 1315.225
135.5044, 1474.352
135.9865, 1587.481
136.4686, 1647.334
136.9508, 1707.966
137.4329, 1795.089
137.9150, 1908.993
138.3971, 2035.633
138.8792, 2185.211
139.3613, 2341.769
139.8434, 2457.861
140.3256, 2524.128
140.8077, 2576.305
141.2898, 2643.374
141.7719, 2738.955
142.2540, 2805.184
142.7361, 2828.800
143.2183, 2814.298
143.7004, 2798.209
144.1825, 2781.049
144.6646, 2761.083
145.1467, 2735.865
145.6288, 2705.476
146.1110, 2669.130
146.5931, 2626.953
147.0752, 2579.133
147.5573, 2518.170
148.0394, 2427.871
148.5215, 2331.278
149.0037, 2256.740
149.4858, 2219.976
149.9679, 2189.096
150.4500, 2158.487
150.9321, 2130.899
151.4142, 2097.580
151.8964, 2046.664
152.3785, 1991.981
152.8606, 1958.877
153.3427, 1966.009
153.8248, 1983.553
154.3069, 2001.068
154.7890, 2023.916
155.2712, 2041.226
155.7533, 2052.854
156.2354, 2058.402
156.7175, 2058.108
157.1996, 2033.812
157.6817, 2015.400
158.1639, 2020.625
158.6460, 2079.807
159.1281, 2135.549
159.6102, 2169.856
160.0923, 2184.102
160.5744, 2196.814
161.0566, 2217.294
161.5387, 2236.173
162.0208, 2245.002
162.5029, 2234.249
162.9850, 2217.045
163.4671, 2197.624
163.9493, 2175.372
164.4314, 2153.286
164.9135, 2140.028
165.3956, 2126.309
165.8777, 2099.891
166.3598, 2044.203
166.8420, 1982.667
167.3241, 1933.385
167.8062, 1901.130
168.2883, 1867.673
168.7704, 1812.917
169.2525, 1749.248
169.7346, 1700.994
170.2168, 1696.583
170.6989, 1706.077
171.1810, 1699.373
171.6631, 1667.842
172.1452, 1631.917
172.6273, 1610.981
173.1095, 1602.170
173.5916, 1595.945
174.0737, 1589.804
174.5558, 1583.062
175.0379, 1573.090
175.5201, 1544.104
176.0022, 1517.094
176.4843, 1502.894
176.9664, 1499.090
177.4485, 1493.583
177.9306, 1473.106
178.4128, 1443.439
178.8949, 1417.875
179.3770, 1402.042
179.8591, 1391.230
180.3412, 1379.986
180.8233, 1369.209
181.3055, 1353.531
181.7876, 1323.635
182.2697, 1284.053
182.7518, 1250.947
183.2339, 1227.996
183.7160, 1215.518
184.1981, 1219.873
184.6803, 1243.244
185.1624, 1261.652
185.6445, 1241.875
186.1266, 1189.803
186.6087, 1143.781
187.0908, 1124.336
187.5730, 1124.586
188.0551, 1117.143
188.5372, 1101.926
189.0193, 1080.791
189.5014, 1056.262
189.9835, 1028.814
190.4657, 999.9238
190.9478, 971.5938
191.4299, 943.5195
191.9120, 906.9043
192.3941, 856.8652
192.8762, 808.1074
193.3584, 795.9062
193.8405, 822.3203
194.3226, 838.5352
194.8047, 805.8066
195.2868, 726.7969
195.7689, 668.3516
196.2511, 639.5332
196.7332, 631.1992
197.2153, 627.2852
197.6974, 631.1895
198.1795, 622.5781
198.6616, 576.3574
199.1437, 488.6602
199.6259, 430.2598
200.1080, 417.1152
200.5901, 437.7578
201.0722, 451.0332
201.5543, 454.0996
202.0364, 454.1348
202.5186, 455.2246
203.0007, 458.1602
203.4828, 465.2949
203.9649, 476.6309
204.4470, 490.1016
204.9291, 504.5527
205.4113, 525.0117
205.8934, 538.8652
206.3755, 531.8203
206.8576, 498.8984
207.3397, 468.1582
207.8218, 448.9922
208.3040, 439.4492
208.7861, 409.8555
209.2682, 350.0039
209.7503, 289.4316
210.2324, 263.2461
210.7145, 284.5469
211.1967, 301.1270
211.6788, 302.0000
212.1609, 288.5293
212.6430, 270.8906
213.1251, 241.1895
213.6072, 214.1562
214.0894, 215.7148
214.5715, 264.5430
215.0536, 299.3652
215.5357, 298.1016
216.0178, 254.6543
216.4999, 226.0879
216.9820, 215.6445
217.4642, 212.8613
217.9463, 204.6758
218.4284, 185.9785
218.9105, 171.9922
219.3926, 171.7773
219.8747, 191.3438
220.3569, 188.3496
220.8390, 151.8672
221.3211, 97.75977
221.8032, 58.38086
222.2853, 40.05273
222.7674, 27.19336
223.2496, 15.53320
223.7317, 7.890625
224.2138, 4.681641
224.6959, 26.49219
225.1780, 50.04297
225.6601, 56.13867
226.1423, 33.65039
226.6244, 11.77148
227.1065, 4.578125
227.5886, 26.10547
228.0707, 33.43164
228.5528, 14.06055
229.0350, 17.79102
229.5171, 23.09570
229.9992, 18.11328
230.4813, 53.58789
230.9634, 59.06641
231.4455, 15.58789
231.9276, 14.14648
232.4098, 23.47656
232.8919, 19.91211
233.3740, 24.36914
233.8561, 44.91992
234.3382, 63.42188
234.8203, 73.35352
235.3025, 77.71875
235.7846, 66.08203
236.2667, 25.02344
236.7488, 30.53320
237.2309, 46.86133
237.7130, 0.2636720
238.1952, 50.78320
238.6773, 72.40234
239.1594, 47.83984
239.6415, 30.42969
240.1236, 26.17578
240.6057, 32.79492
241.0879, 38.51758
241.5700, 41.16992
242.0521, 47.87695
242.5342, 61.46680
243.0163, 83.33789
243.4984, 99.70117
243.9806, 107.3574
244.4627, 107.4766
244.9448, 106.3008
245.4269, 101.5059
245.9090, 99.14648
246.3911, 102.6660
246.8732, 114.0801
247.3554, 126.2051
247.8375, 139.3613
248.3196, 151.7363
248.8017, 157.2090
249.2838, 150.5234
249.7659, 142.9180
250.2481, 145.0312
250.7302, 172.3750
251.2123, 177.2441
251.6944, 149.0449
252.1765, 95.10938
252.6586, 53.33789
253.1408, 29.06836
253.6229, 12.02148
254.1050, 2.369141
254.5871, 10.66016
255.0692, 23.02148
255.5513, 44.96875
256.0334, 73.02344
256.5156, 80.43750
256.9977, 50.25781
257.4798, 23.06250
257.9619, 33.09766
258.4440, 109.1016
258.9261, 151.6797
259.4083, 139.0977
259.8904, 81.50977
260.3725, 48.72070
260.8546, 59.60156
261.3367, 71.12109
261.8188, 45.08008
262.3010, 46.21289
262.7831, 100.8066
263.2652, 90.03125
263.7473, 27.17188
264.2294, 1.685547
264.7115, 26.21680
265.1937, 65.52539
265.6758, 100.2637
266.1579, 136.5059
266.6400, 140.6738
267.1221, 94.99805
267.6042, 14.71875
268.0864, 23.79102
268.5685, 4.019531
269.0506, 24.95312
269.5327, 22.16602
270.0148, 25.55078
270.4969, 46.08008
270.9791, 18.54297
271.4612, 42.13672
271.9433, 62.49609
272.4254, 30.47461
272.9075, 9.703125
273.3896, 28.02148
273.8718, 22.74805
274.3539, 6.984375
274.8360, 23.07812
275.3181, 60.92773
275.8002, 85.33008
276.2823, 95.45703
276.7645, 93.96484
277.2466, 72.84570
277.7287, 26.50977
278.2108, 13.34570
278.6929, 51.28516
279.1750, 119.2207
279.6572, 153.7715
280.1393, 150.2910
280.6214, 133.1934
281.1035, 113.0469
281.5856, 89.39648
282.0677, 81.60547
282.5499, 98.89648
283.0320, 125.5703
283.5141, 115.5176
283.9962, 64.46094
284.4783, 21.06836
284.9604, 28.26367
285.4425, 82.55078
285.9247, 114.3125
286.4068, 112.9121
286.8889, 91.15625
287.3710, 69.73438
287.8531, 48.63086
288.3352, 32.32227
288.8174, 24.47461
289.2995, 25.29297
289.7816, 32.87305
290.2637, 47.22070
290.7458, 63.50781
291.2279, 74.01953
291.7101, 78.81445
292.1922, 78.27148
292.6743, 70.56836
293.1564, 56.78320
293.6385, 38.78906
294.1206, 14.69531
294.6028, 8.470703
295.0849, 18.51562
295.5670, 15.68164
296.0491, 8.791016
296.5312, 3.613281
297.0133, 17.32031
297.4955, 20.75781
297.9776, 11.88672
298.4597, 4.716797
298.9418, 36.16797
299.4239, 74.94922
299.9060, 94.81055
300.3882, 78.88281
300.8703, 36.53906
301.3524, 17.28125
301.8345, 81.46289
302.3166, 150.4238
302.7987, 238.3750
303.2809, 327.7461
303.7630, 380.4492
304.2451, 336.1914
304.7272, 260.3633
305.2093, 231.6973
305.6914, 257.3340
306.1736, 303.2305
306.6557, 362.9141
307.1378, 423.5195
307.6199, 460.4336
308.1020, 454.2305
308.5841, 429.9922
309.0663, 402.9922
309.5484, 372.9688
310.0305, 351.9648
310.5126, 359.5117
310.9947, 379.8359
311.4768, 385.9336
311.9590, 340.8633
312.4411, 298.8711
312.9232, 308.2227
313.4053, 366.9883
313.8874, 403.3633
314.3695, 359.0078
314.8516, 286.5234
315.3337, 238.9258
315.8159, 267.6797
316.2980, 288.9297
316.7801, 257.0898
317.2622, 181.3828
317.7443, 128.5078
318.2264, 151.0312
318.7086, 188.5742
319.1907, 196.5312
319.6728, 117.3750
320.1549, 60.50000
320.6370, 60.36328
321.1191, 108.7695
321.6013, 164.3281
322.0834, 229.2500
322.5655, 287.6055
323.0476, 328.9531
323.5297, 350.7148
324.0118, 355.1562
324.4940, 331.7305
324.9761, 288.2930
325.4582, 251.9102
325.9403, 201.9023
326.4224, 176.9648
326.9045, 197.1875
327.3867, 324.5391
327.8688, 397.2070
328.3509, 376.6406
328.8330, 303.6602
329.3151, 265.9375
329.7972, 288.1445
330.2794, 317.0273
330.7615, 335.8906
331.2436, 344.5391
331.7257, 348.5938
332.2078, 352.1055
332.6899, 352.0156
333.1721, 338.8477
333.6542, 295.0508
334.1363, 265.8359
334.6184, 272.9375
335.1005, 325.1836
335.5826, 344.8789
336.0648, 318.0781
336.5469, 277.2812
337.0290, 260.4844
337.5111, 274.3789
337.9932, 290.1641
338.4753, 299.0664
338.9575, 300.7266
339.4396, 310.8711
339.9217, 332.9492
340.4038, 353.6328
340.8859, 358.4727
341.3680, 344.1562
341.8502, 334.2578
342.3323, 334.5000
342.8144, 343.9453
343.2965, 346.7148
343.7786, 342.9570
344.2607, 333.9883
344.7429, 323.4141
345.2250, 309.7188
345.7071, 288.3906
346.1892, 257.5078
346.6713, 234.1680
347.1534, 273.5508
347.6355, 372.0625
348.1176, 449.0742
348.5998, 426.9688
349.0819, 337.6758
349.5640, 282.0938
350.0461, 276.0703
350.5282, 294.6211
351.0103, 304.1953
351.4925, 306.4531
351.9746, 325.8633
352.4567, 412.0664
352.9388, 513.4922
353.4209, 541.2773
353.9030, 478.4531
354.3852, 405.1836
354.8673, 401.4570
355.3494, 440.1094
355.8315, 466.3242
356.3136, 450.5781
356.7957, 415.7539
357.2779, 382.2266
357.7600, 353.5078
358.2421, 317.3750
358.7242, 253.6914
359.2063, 185.2656
359.6884, 137.6211
360.1706, 131.1406
360.6527, 134.7617
361.1348, 137.2852
361.6169, 137.5703
362.0990, 127.1953
362.5811, 72.08984
363.0633, 22.37891
363.5454, 16.46484
364.0275, 133.9766
364.5096, 210.7852
364.9917, 182.4961
365.4738, 76.02734
365.9560, 8.558594
366.4381, 56.23438
366.9202, 73.91406
367.4023, 60.93359
367.8844, 11.42969
368.3665, 68.11719
368.8487, 109.9531
369.3308, 134.9219
369.8129, 134.5938
370.2950, 65.82031
370.7771, 23.29297
371.2592, 42.55859
371.7414, 141.4180
372.2235, 221.4766
372.7056, 291.0938
373.1877, 331.9492
373.6698, 307.9922
374.1519, 168.6289
374.6341, 83.05859
375.1162, 104.8398
375.5983, 226.8711
376.0804, 311.6953
376.5625, 351.9961
377.0446, 366.0977
377.5267, 368.7461
378.0089, 362.9141
378.4910, 325.0586
378.9731, 240.6133
379.4552, 133.8047
379.9373, 78.22656
380.4194, 77.42578
380.9016, 87.09766
381.3837, 74.74219
381.8658, 46.93750
382.3479, 40.23438
382.8300, 59.68359
383.3121, 98.48047
383.7943, 164.2656
384.2764, 247.6484
384.7585, 298.2734
385.2406, 244.8672
385.7227, 147.4414
386.2048, 131.5000
386.6870, 208.4609
387.1691, 293.4648
387.6512, 287.5078
388.1333, 229.8438
388.6154, 199.2773
389.0975, 262.9453
389.5797, 342.4688
390.0618, 362.6758
390.5439, 329.3047
391.0260, 291.1523
391.5081, 281.0078
391.9902, 279.0820
392.4724, 267.5703
392.9545, 223.8516
393.4366, 196.2539
393.9187, 223.9844
394.4008, 288.2617
394.8829, 333.7578
395.3651, 343.0703
395.8472, 329.5664
396.3293, 295.0508
396.8114, 221.0352
397.2935, 165.4375
397.7756, 137.7344
398.2578, 132.7031
398.7399, 142.6836
399.2220, 187.2188
399.7041, 224.3125
400.1862, 251.6641
400.6683, 275.4023
401.1505, 241.6250
401.6326, 78.82422
402.1147, 82.80859
402.5968, 103.3086
403.0789, 117.1719
403.5610, 259.4297
404.0432, 246.9258
404.5253, 109.4375
405.0074, 34.06250
405.4895, 36.41016
405.9716, 64.78516
406.4537, 95.78125
406.9359, 133.1797
407.4180, 122.6836
407.9001, 34.92188
408.3822, 68.89062
408.8643, 45.98438
409.3464, 105.7070
409.8285, 244.8164
410.3106, 276.1523
410.7928, 231.1328
411.2749, 235.8438
411.7570, 300.4609
412.2391, 369.9648
412.7212, 375.8867
413.2033, 338.9961
413.6855, 319.3438
414.1676, 351.1055
414.6497, 402.3359
415.1318, 431.6289
415.6139, 441.4531
416.0960, 445.3438
416.5782, 445.2461
417.0603, 447.4531
417.5424, 462.1445
418.0245, 507.7812
418.5066, 535.6211
418.9887, 503.5039
419.4709, 431.4453
419.9530, 370.5312
420.4351, 369.4570
420.9172, 362.6914
421.3993, 299.4375
421.8814, 149.4297
422.3636, 62.04297
422.8457, 129.1367
423.3278, 255.4141
423.8099, 329.8516
424.2920, 308.3203
424.7741, 272.7617
425.2563, 231.1914
425.7384, 189.1406
426.2205, 169.5469
426.7026, 192.5977
427.1847, 216.3750
427.6668, 211.1016
428.1490, 162.8203
428.6311, 112.3242
429.1132, 45.64062
429.5953, 13.30078
430.0774, 11.21875
430.5595, 144.3633
431.0417, 263.2656
431.5238, 309.4766
432.0059, 282.6875
432.4880, 226.9766
432.9701, 135.1250
433.4522, 41.69531
433.9344, 9.500000
434.4165, 22.10938
434.8986, 23.91797
435.3807, 18.25000
435.8628, 9.902344
436.3449, 17.95312
436.8271, 39.40234
437.3092, 41.20312
437.7913, 25.19922
438.2734, 120.6328
438.7555, 175.7617
439.2376, 162.1602
439.7197, 146.0625
440.2018, 200.1367
440.6840, 293.6016
441.1661, 359.2930
441.6482, 333.9922
442.1303, 291.0742
442.6124, 280.1328
443.0945, 307.9375
443.5767, 324.2188
444.0588, 301.7383
444.5409, 266.1289
445.0230, 238.6992
445.5051, 243.1523
445.9872, 241.3047
446.4694, 227.2539
446.9515, 204.1680
447.4336, 175.9688
447.9157, 111.4766
448.3978, 73.33594
448.8799, 97.23828
449.3621, 240.3711
449.8442, 305.8828
450.3263, 254.2305
450.8084, 156.6250
451.2905, 133.3828
451.7726, 212.8555
452.2548, 264.4883
452.7369, 232.4414
453.2190, 131.1797
453.7011, 97.74609
454.1832, 141.1914
454.6653, 203.3984
455.1475, 236.7344
455.6296, 243.9102
456.1117, 254.8945
456.5938, 276.5195
457.0759, 300.6875
457.5580, 314.4766
458.0402, 318.1211
458.5223, 310.4766
459.0044, 280.4766
459.4865, 244.2383
459.9686, 225.6602
460.4507, 229.3203
460.9329, 241.3203
461.4150, 239.6836
461.8971, 232.6016
462.3792, 231.5039
462.8613, 273.8711
463.3434, 291.4766
463.8256, 215.6172
464.3077, 74.25000
464.7898, 5.679688
465.2719, 89.56250
465.7540, 199.8750
466.2361, 232.8789
466.7183, 121.6484
467.2004, 69.23047
467.6825, 126.8633
468.1646, 233.2930
468.6467, 310.6445
469.1288, 342.0938
469.6109, 365.0625
470.0930, 383.6562
470.5752, 397.0156
471.0573, 421.1641
471.5394, 461.7266
472.0215, 497.5703
472.5036, 508.5078
472.9857, 491.0391
473.4679, 480.4531
473.9500, 484.2500
474.4321, 489.6094
474.9142, 465.8203
475.3963, 415.9609
475.8784, 371.6797
476.3606, 379.2734
476.8427, 401.8438
477.3248, 330.2031
477.8069, 164.7031
478.2890, 18.18750
478.7711, 8.664063
479.2533, 75.35156
479.7354, 124.6016
480.2175, 119.5234
480.6996, 109.0938
481.1817, 115.3594
481.6638, 139.6094
482.1460, 186.2969
482.6281, 280.9297
483.1102, 373.0703
483.5923, 424.3672
484.0744, 414.3203
484.5565, 430.8594
485.0387, 527.7031
485.5208, 636.0547
486.0029, 688.1719
486.4850, 638.7422
486.9671, 589.5312
487.4492, 550.2969
487.9314, 521.3672
488.4135, 498.4375
488.8956, 489.4531
489.3777, 475.1875
489.8598, 453.3125
490.3419, 428.1016
490.8241, 365.3984
491.3062, 252.0469
491.7883, 140.3125
492.2704, 116.2422
492.7525, 172.3203
493.2346, 196.9766
493.7168, 131.6016
494.1989, 31.55469
494.6810, 5.156250
495.1631, 45.64844
495.6452, 107.1406
496.1273, 188.0703
496.6095, 255.4609
497.0916, 240.0469
497.5737, 112.4844
498.0558, 2.601563
498.5379, 32.61719
499.0201, 130.5234
499.5022, 188.0312
499.9843, 145.0078
500.4664, 79.56250
500.9485, 1.000000
501.4306, 87.08594
501.9127, 112.1094
502.3948, 28.33594
502.8770, 163.3438
503.3591, 191.3594
503.8412, 14.90625
504.3233, 74.35938
504.8054, 45.29688
505.2875, 49.56250
505.7697, 139.8672
506.2518, 233.1328
506.7339, 296.1562
507.2160, 304.7266
507.6981, 274.5391
508.1802, 314.8594
508.6624, 438.5469
509.1445, 550.6016
509.6266, 581.9609
510.1087, 541.9609
510.5908, 456.2891
511.0729, 313.2500
511.5551, 183.5938
512.0372, 161.1094
512.5193, 223.1250
513.0014, 305.0078
513.4835, 432.7422
513.9656, 533.3672
514.4478, 506.0703
514.9299, 370.5469
515.4120, 275.6875
515.8941, 333.8750
516.3762, 435.2812
516.8583, 494.6719
517.3405, 469.4453
517.8226, 466.2188
518.3047, 520.9453
518.7868, 605.6172
519.2689, 679.2656
519.7510, 744.5938
520.2332, 794.9688
520.7153, 814.3281
521.1974, 807.2188
521.6795, 843.6641
522.1616, 963.4219
522.6437, 1054.133
523.1259, 1015.945
523.6080, 832.7578
524.0901, 742.6406
524.5722, 779.6641
525.0543, 847.4219
525.5364, 790.0938
526.0186, 633.4453
526.5007, 539.1094
526.9828, 590.1953
527.4649, 705.6406
527.9470, 780.2109
528.4291, 811.8984
528.9113, 800.9531
529.3934, 676.7734
529.8755, 540.0781
530.3576, 515.4766
530.8397, 655.9531
531.3218, 753.1875
531.8040, 635.7188
532.2861, 442.1094
532.7682, 339.8281
533.2503, 501.0625
533.7324, 611.2578
534.2145, 573.5938
534.6967, 420.5078
535.1788, 333.7812
535.6609, 333.7031
536.1430, 365.5938
536.6251, 410.4453
537.1072, 475.0781
537.5894, 529.3984
538.0715, 574.4922
538.5536, 606.3047
539.0357, 615.6641
539.5178, 605.5234
539.9999, 590.8203
540.4821, 549.3672
540.9642, 514.1016
541.4463, 572.1797
541.9284, 710.9141
542.4105, 841.7188
542.8926, 889.6875
543.3748, 900.9375
543.8569, 945.6719
544.3390, 1030.633
544.8211, 1089.648
545.3032, 1049.609
545.7853, 975.1797
546.2675, 932.9062
546.7495, 971.7656
547.2316, 1004.273
547.7137, 1020.688
548.1959, 1015.891
548.6780, 978.1953
549.1601, 841.3750
549.6422, 746.5859
550.1243, 749.7031
550.6064, 855.3047
551.0886, 902.0234
551.5707, 876.3359
552.0528, 817.3906
552.5349, 740.9297
553.0170, 644.7266
553.4991, 586.6406
553.9813, 580.9297
554.4634, 592.2656
554.9455, 552.5391
555.4276, 474.3828
555.9097, 429.5938
556.3918, 460.3828
556.8740, 532.6250
557.3561, 633.0469
557.8382, 748.0781
558.3203, 800.4609
558.8024, 673.6719
559.2845, 507.4766
559.7667, 421.9062
560.2488, 450.7656
560.7309, 504.3125
561.2130, 586.3047
561.6951, 661.7109
562.1772, 695.9453
562.6594, 604.7656
563.1415, 574.2266
563.6236, 658.3750
564.1057, 810.7344
564.5878, 877.2969
565.0699, 821.5469
565.5521, 753.5469
566.0342, 713.5156
566.5163, 700.0547
566.9984, 703.3203
567.4805, 722.8203
567.9626, 754.4141
568.4448, 805.8906
568.9269, 868.4219
569.4090, 924.7656
569.8911, 979.9766
570.3732, 1001.734
570.8553, 918.7578
571.3375, 773.2891
571.8196, 655.7969
572.3017, 601.4531
572.7838, 590.2734
573.2659, 646.3359
573.7480, 754.1797
574.2302, 805.7344
574.7123, 717.4922
575.1944, 599.6484
575.6765, 514.2500
576.1586, 490.4844
576.6407, 435.2031
577.1229, 320.7109
577.6050, 202.9062
578.0871, 152.2891
578.5692, 199.5859
579.0513, 209.5938
579.5334, 148.0469
580.0156, 50.15625
580.4977, 4.546875
580.9798, 15.94531
581.4619, 15.11719
581.9440, 138.5000
582.4261, 293.0469
582.9083, 315.6562
583.3904, 206.1094
583.8725, 106.0000
584.3546, 150.0625
584.8367, 242.9141
585.3188, 274.7344
585.8010, 185.3516
586.2831, 117.5156
586.7652, 165.8359
587.2473, 262.3359
587.7294, 312.5391
588.2115, 244.8516
588.6937, 192.4062
589.1758, 175.3828
589.6579, 191.5000
590.1400, 244.5703
590.6221, 384.3125
591.1042, 464.2891
591.5864, 381.8828
592.0685, 135.6719
592.5506, 17.28125
593.0327, 67.28125
593.5148, 64.60156
593.9969, 50.91406
594.4791, 25.05469
594.9612, 29.58594
595.4433, 137.3828
595.9254, 221.8828
596.4075, 168.0391
596.8896, 32.12500
597.3718, 69.07031
597.8539, 45.35938
598.3360, 8.820313
598.8181, 33.70312
599.3002, 109.1250
599.7823, 140.1250
600.2645, 49.76562
600.7466, 42.89844
601.2287, 74.75000
601.7108, 23.36719
602.1929, 0.3046880
602.6750, 1.179688
603.1572, 30.14062
603.6393, 110.1484
604.1214, 250.5703
604.6035, 324.7031
605.0856, 292.7891
605.5677, 224.7500
606.0499, 260.0078
606.5320, 379.9531
607.0141, 486.9531
607.4962, 541.4688
607.9783, 556.8672
608.4604, 521.1719
608.9425, 446.9609
609.4246, 405.9844
609.9067, 484.1406
610.3889, 578.0781
610.8710, 596.3672
611.3531, 492.1172
611.8352, 468.3281
612.3173, 686.8984
612.7994, 932.3047
613.2816, 1016.312
613.7637, 847.6562
614.2458, 689.9453
614.7279, 540.2578
615.2100, 431.3984
615.6921, 457.1328
616.1743, 638.5078
616.6564, 782.6562
617.1385, 809.3906
617.6206, 767.0938
618.1027, 752.0781
618.5848, 759.2578
619.0670, 790.7812
619.5491, 846.7969
620.0312, 923.4844
620.5133, 1037.586
620.9954, 1197.398
621.4775, 1347.461
621.9597, 1446.055
622.4418, 1504.891
622.9239, 1541.320
623.4060, 1573.359
623.8881, 1559.156
624.3702, 1446.227
624.8524, 1305.562
625.3345, 1262.320
625.8166, 1378.156
626.2987, 1447.172
626.7808, 1412.102
627.2629, 1301.328
627.7451, 1216.844
628.2272, 1159.336
628.7093, 1124.828
629.1914, 1126.180
629.6735, 1149.719
630.1556, 1161.391
630.6378, 1163.484
631.1199, 1138.281
631.6020, 1030.805
632.0841, 910.3281
632.5662, 861.2578
633.0483, 938.5625
633.5305, 996.4922
634.0126, 945.0781
634.4947, 852.8828
634.9768, 806.6953
635.4589, 908.5156
635.9410, 923.4844
636.4232, 772.1719
636.9053, 529.1094
637.3874, 445.4531
637.8695, 559.5859
638.3516, 663.2656
638.8337, 676.0781
639.3159, 613.8047
639.7980, 536.2109
640.2801, 442.4219
640.7622, 358.9062
641.2443, 305.6797
641.7264, 278.1875
642.2086, 274.4844
642.6907, 298.5859
643.1728, 346.6641
643.6549, 474.8750
644.1370, 602.0469
644.6191, 652.1250
645.1013, 474.1250
645.5834, 389.1328
646.0655, 516.6172
646.5476, 738.7969
647.0297, 850.6172
647.5118, 790.5469
647.9940, 755.0781
648.4761, 787.3984
648.9582, 872.8594
649.4403, 999.2500
649.9224, 1160.102
650.4045, 1274.516
650.8867, 1268.492
651.3688, 1193.227
651.8509, 1171.109
652.3330, 1206.266
652.8151, 1238.523
653.2972, 1238.852
653.7794, 1206.492
654.2615, 1125.273
654.7436, 967.8203
655.2257, 835.0625
655.7078, 788.3203
656.1899, 786.4766
656.6721, 778.6719
657.1542, 775.9062
657.6363, 733.2344
658.1184, 629.7578
658.6005, 507.8438
659.0826, 470.2344
659.5648, 526.2891
660.0469, 538.6172
660.5290, 442.2578
661.0111, 286.3828
661.4932, 187.8281
661.9753, 142.7422
662.4575, 111.1016
662.9396, 70.57812
663.4217, 34.55469
663.9038, 22.20312
664.3859, 38.74219
664.8680, 64.12500
665.3502, 115.6562
665.8323, 159.2188
666.3144, 165.0938
666.7965, 85.51562
667.2786, 53.25000
667.7607, 67.21875
668.2429, 120.3594
668.7250, 213.8438
669.2071, 350.2656
669.6892, 458.0625
670.1713, 523.0625
670.6534, 551.9531
671.1355, 546.4219
671.6176, 511.6406
672.0997, 484.7969
672.5818, 523.6250
673.0640, 544.7969
673.5461, 451.7500
674.0282, 268.9844
674.5103, 74.79688
674.9924, 134.1719
675.4745, 299.6250
675.9567, 378.7969
676.4388, 358.7969
676.9209, 315.0000
677.4030, 198.6406
677.8851, 114.7812
678.3672, 148.2188
678.8494, 340.2969
679.3315, 414.1719
679.8136, 360.0156
680.2957, 239.8438
680.7778, 108.4844
681.2599, 26.31250
681.7421, 121.0625
682.2242, 155.9219
682.7063, 180.4531
683.1884, 239.0156
683.6705, 324.0469
684.1526, 426.2656
684.6348, 613.7812
685.1169, 742.0000
685.5990, 719.5156
686.0811, 596.8125
686.5632, 521.5312
687.0453, 552.4375
687.5275, 564.3438
688.0096, 511.5938
688.4917, 412.9219
688.9738, 399.7656
689.4559, 485.9375
689.9380, 578.8906
690.4202, 618.4844
690.9023, 621.5000
691.3844, 633.1406
691.8665, 650.0156
692.3486, 658.5781
692.8307, 625.4375
693.3129, 589.3125
693.7950, 587.0469
694.2771, 619.6562
694.7592, 691.5000
695.2413, 916.1875
695.7234, 1124.000
696.2056, 1133.812
696.6877, 758.9688
697.1698, 548.4219
697.6519, 607.6562
698.1340, 757.9375
698.6161, 687.1719
699.0983, 388.0312
699.5804, 149.3125
700.0625, 50.64062
700.5446, 44.59375
701.0267, 95.96875
701.5089, 180.8281
701.9910, 216.6719
702.4731, 72.68750
702.9552, 61.60938
703.4373, 6.421875
703.9194, 194.3281
704.4016, 308.6719
704.8837, 183.6094
705.3658, 40.12500
705.8479, 35.32812
706.3300, 42.43750
706.8121, 70.25000
707.2943, 137.6719
707.7764, 183.6562
708.2585, 155.5000
708.7406, 58.20312
709.2227, 39.10938
709.7048, 139.8594
710.1870, 218.4844
710.6691, 261.1406
711.1512, 262.3281
711.6333, 211.7969
712.1154, 91.81250
712.5975, 22.96875
713.0797, 129.4688
713.5618, 193.7188
714.0439, 179.5469
714.5260, 0.7500000
715.0081, 153.6250
715.4902, 252.5938
715.9724, 320.0312
716.4545, 381.1094
716.9366, 432.9219
717.4187, 508.5938
717.9008, 645.6250
718.3829, 776.8125
718.8651, 715.6562
719.3472, 511.7500
719.8293, 397.0312
720.3114, 592.4062
720.7935, 846.3594
721.2756, 935.0625
721.7578, 889.0000
722.2399, 851.6719
722.7220, 875.0000
723.2041, 918.9375
723.6862, 990.0156
724.1683, 1092.797
724.6505, 1077.078
725.1326, 870.2812
725.6147, 697.0000
726.0968, 733.4688
726.5789, 958.5000
727.0610, 1061.250
727.5432, 1031.297
728.0253, 962.5938
728.5074, 933.3125
728.9895, 924.2500
729.4716, 900.2969
729.9537, 852.7656
730.4359, 817.5625
730.9180, 805.7969
731.4000, 822.6719
731.8821, 875.5469
732.3643, 1043.953
732.8464, 1127.047
733.3285, 1094.703
733.8106, 1003.328
734.2927, 919.2344
734.7748, 838.5156
735.2570, 792.5625
735.7391, 785.5938
736.2212, 802.2188
736.7033, 822.2812
737.1854, 850.6250
737.6675, 896.4688
738.1497, 1018.172
738.6318, 1104.078
739.1139, 1018.609
739.5960, 833.7500
740.0781, 749.0156
740.5602, 974.5469
741.0424, 1138.438
741.5245, 1101.375
742.0066, 915.2500
742.4887, 867.5156
742.9708, 973.1406
743.4529, 1150.016
743.9351, 1397.531
744.4172, 1673.594
744.8993, 1802.734
745.3814, 1789.188
745.8635, 1786.812
746.3456, 1914.969
746.8278, 2089.875
747.3099, 2229.938
747.7920, 2328.234
748.2741, 2405.906
748.7562, 2534.422
749.2383, 2596.906
749.7205, 2510.422
750.2026, 2237.297
750.6847, 2037.953
751.1668, 1949.750
751.6489, 1884.812
752.1310, 1747.938
752.6132, 1558.656
753.0953, 1468.562
753.5774, 1496.797
754.0595, 1595.469
754.5416, 1808.203
755.0237, 2027.250
755.5059, 2079.172
755.9880, 1821.938
756.4701, 1628.719
756.9522, 1727.250
757.4343, 1926.094
757.9164, 1991.734
758.3986, 1844.047
758.8807, 1691.891
759.3628, 1536.094
759.8449, 1401.672
760.3270, 1361.922
760.8091, 1414.469
761.2913, 1389.453
761.7734, 1210.625
762.2555, 1015.766
762.7376, 1013.156
763.2197, 1137.453
763.7018, 1233.891
764.1840, 1195.000
764.6661, 1164.609
765.1482, 1188.484
765.6303, 1262.141
766.1124, 1376.156
766.5945, 1562.094
767.0767, 1719.422
767.5588, 1799.234
768.0409, 1829.922
768.5230, 1943.375
769.0051, 2132.969
769.4872, 2303.062
769.9694, 2370.703
770.4515, 2410.547
770.9336, 2590.625
771.4157, 2870.422
771.8978, 3071.344
772.3799, 3122.625
772.8621, 3053.812
773.3442, 2813.109
773.8263, 2413.156
774.3084, 2203.500
774.7905, 2332.375
775.2726, 2455.562
775.7548, 2419.688
776.2369, 2240.828
776.7190, 2106.578
777.2011, 2020.344
777.6832, 1978.922
778.1653, 1996.219
778.6475, 2051.125
779.1296, 2095.500
779.6117, 2126.953
780.0938, 2211.750
780.5759, 2485.359
781.0580, 2738.500
781.5402, 2805.625
782.0223, 2598.750
782.5044, 2483.906
782.9865, 2498.859
783.4686, 2545.250
783.9507, 2547.312
784.4329, 2501.281
784.9150, 2514.969
785.3971, 2600.734
785.8792, 2689.328
786.3613, 2726.594
786.8434, 2728.266
787.3256, 2696.375
787.8077, 2616.797
788.2898, 2606.359
788.7719, 2803.359
789.2540, 3046.984
789.7361, 3180.500
790.2183, 3098.734
790.7004, 3119.031
791.1825, 3278.469
791.6646, 3480.594
792.1467, 3639.375
792.6288, 3748.922
793.1110, 3767.531
793.5930, 3661.375
794.0751, 3575.938
794.5573, 3748.719
795.0394, 4020.562
795.5215, 4115.109
796.0036, 3851.922
796.4857, 3677.297
796.9678, 3883.219
797.4500, 4187.844
797.9321, 4249.719
798.4142, 3929.562
798.8963, 3684.594
799.3784, 3549.141
799.8605, 3508.891
800.3427, 3602.328
800.8248, 3793.812
801.3069, 3844.859
801.7890, 3643.938
802.2711, 3430.641
802.7532, 3487.969
803.2354, 3680.781
803.7175, 3810.172
804.1996, 3725.250
804.6817, 3669.359
805.1638, 3746.734
805.6459, 3859.938
806.1281, 3869.703
806.6102, 3753.750
807.0923, 3591.672
807.5744, 3347.359
808.0565, 3159.141
808.5386, 3379.672
809.0208, 3886.078
809.5029, 4198.391
809.9850, 4051.922
810.4671, 3826.172
810.9492, 3807.797
811.4313, 3924.297
811.9135, 4027.094
812.3956, 4092.531
812.8777, 4135.594
813.3598, 4141.688
813.8419, 4143.016
814.3240, 4246.844
814.8062, 4465.219
815.2883, 4575.812
815.7704, 4487.047
816.2525, 4332.875
816.7346, 4338.453
817.2167, 4450.453
817.6989, 4519.641
818.1810, 4450.984
818.6631, 4368.094
819.1452, 4323.172
819.6273, 4311.719
820.1094, 4332.094
820.5916, 4443.250
821.0737, 4475.734
821.5558, 4354.250
822.0379, 4182.547
822.5200, 4234.125
823.0021, 4488.875
823.4843, 4692.875
823.9664, 4735.766
824.4485, 4714.266
824.9306, 4717.016
825.4127, 4739.953
825.8948, 4776.281
826.3770, 4881.922
826.8591, 4927.469
827.3412, 4744.516
827.8233, 4489.828
828.3054, 4555.906
828.7875, 5106.672
829.2697, 5403.812
829.7518, 5203.203
830.2339, 4750.234
830.7160, 4526.609
831.1981, 4492.391
831.6802, 4481.500
832.1624, 4474.984
832.6445, 4419.109
833.1266, 4211.453
833.6087, 3936.672
834.0908, 3772.500
834.5729, 3909.172
835.0551, 3963.859
835.5372, 3853.359
836.0193, 3649.172
836.5014, 3495.922
836.9835, 3392.562
837.4656, 3386.609
837.9478, 3551.734
838.4299, 3712.969
838.9120, 3560.109
839.3941, 3220.516
839.8762, 2981.141
840.3583, 3105.594
840.8405, 3184.844
841.3226, 3012.203
841.8047, 2709.812
842.2868, 2523.125
842.7689, 2485.500
843.2510, 2479.156
843.7332, 2505.094
844.2153, 2513.156
844.6974, 2362.297
845.1795, 2095.141
845.6616, 1924.250
846.1437, 1992.547
846.6259, 2073.484
847.1080, 1961.875
847.5901, 1748.969
848.0722, 1584.484
848.5543, 1599.188
849.0364, 1519.422
849.5186, 1300.828
850.0007, 1004.875
850.4828, 699.0000
850.9649, 378.5312
851.4470, 224.3906
851.9291, 338.8438
852.4113, 488.1094
852.8934, 324.7812
853.3755, 8.781250
853.8576, 177.2031
854.3397, 87.25000
854.8218, 47.78125
855.3039, 216.7656
855.7860, 354.1250
856.2681, 358.0625
856.7502, 145.9062
857.2324, 77.35938
857.7145, 207.4375
858.1966, 413.7656
858.6787, 543.4531
859.1608, 617.5625
859.6429, 716.0469
860.1251, 853.0625
860.6072, 953.1875
861.0893, 958.6094
861.5714, 930.8750
862.0535, 907.0781
862.5356, 792.3438
863.0178, 760.0781
863.4999, 900.5938
863.9820, 1054.078
864.4641, 1007.375
864.9462, 780.0625
865.4283, 629.3281
865.9105, 587.7812
866.3926, 570.8906
866.8747, 530.4688
867.3568, 455.0000
867.8389, 305.9062
868.3210, 44.00000
868.8032, 134.5156
869.2853, 50.29688
869.7674, 32.81250
870.2495, 80.92188
870.7316, 455.0781
871.2137, 604.4531
871.6959, 504.3125
872.1780, 313.3281
872.6601, 98.98438
873.1422, 83.50000
873.6243, 100.8750
874.1064, 64.23438
874.5886, 189.2344
875.0707, 112.0312
875.5528, 5.968750
876.0349, 2.203125
876.5170, 119.4219
876.9991, 145.9062
877.4813, 64.53125
877.9634, 50.89062
878.4455, 180.4531
878.9276, 309.8281
879.4097, 360.0781
879.8918, 343.7500
880.3740, 347.8750
880.8561, 505.9844
881.3382, 642.4531
881.8203, 602.4844
882.3024, 396.6562
882.7845, 284.4844
883.2667, 326.2031
883.7488, 374.5312
884.2309, 363.1875
884.7130, 321.3750
885.1951, 396.8750
885.6772, 573.8281
886.1594, 724.0156
886.6415, 703.1250
887.1236, 653.5781
887.6057, 707.7656
888.0878, 834.4531
888.5699, 937.6094
889.0521, 1004.797
889.5342, 1029.359
890.0163, 970.7969
890.4984, 889.6094
890.9805, 945.0781
891.4626, 1138.375
891.9448, 1382.266
892.4269, 1670.500
892.9090, 1932.984
893.3911, 2049.672
893.8732, 2079.641
894.3553, 2128.641
894.8375, 2238.953
895.3196, 2335.547
895.8017, 2419.406
896.2838, 2473.875
896.7659, 2480.625
897.2480, 2437.344
897.7302, 2399.094
898.2123, 2373.344
898.6944, 2295.422
899.1765, 2055.656
899.6586, 1729.188
900.1407, 1455.312
900.6229, 1289.734
901.1050, 1099.266
901.5871, 710.9688
902.0692, 372.2812
902.5513, 303.8594
903.0334, 615.1406
903.5156, 756.1250
903.9977, 699.1094
904.4798, 574.3750
904.9619, 435.2656
905.4440, 322.6250
905.9261, 386.7188
906.4083, 624.7812
906.8904, 786.1406
907.3725, 608.7344
907.8546, 399.3281
908.3367, 386.3906
908.8188, 582.3906
909.3010, 638.8125
909.7831, 530.7188
910.2652, 372.8281
910.7473, 194.5469
911.2294, 16.37500
911.7115, 104.4688
912.1937, 158.8281
912.6758, 165.1562
913.1579, 104.1094
913.6400, 36.64062
914.1221, 8.781250
914.6042, 10.87500
915.0864, 19.95312
915.5685, 128.2969
916.0506, 176.8594
916.5327, 114.7344
917.0148, 6.609375
917.4969, 41.92188
917.9790, 164.8438
918.4611, 118.5469
918.9432, 337.7656
919.4254, 687.1875
919.9075, 477.3750
920.3896, 23.18750
920.8717, 420.0625
921.3538, 660.8125
921.8359, 801.6562
922.3181, 788.9375
922.8002, 764.1719
923.2823, 920.5781
923.7644, 1214.984
924.2465, 1432.406
924.7286, 1536.922
925.2108, 1627.719
925.6929, 1746.734
926.1750, 1895.859
926.6571, 2130.141
927.1392, 2552.625
927.6213, 2669.875
928.1035, 2316.906
928.5856, 1916.328
929.0677, 1778.828
929.5498, 1866.016
930.0319, 1892.203
930.5140, 1860.875
930.9962, 1772.688
931.4783, 1546.656
931.9604, 1313.578
932.4425, 1198.891
932.9246, 1196.766
933.4067, 1149.984
933.8889, 996.7500
934.3710, 864.7812
934.8531, 798.2656
935.3352, 783.5156
935.8173, 760.3438
936.2994, 733.6562
936.7816, 726.4844
937.2637, 756.5156
937.7458, 790.6094
938.2279, 828.9062
938.7100, 852.0625
939.1921, 815.0000
939.6743, 640.8281
940.1564, 535.2656
940.6385, 534.0156
941.1206, 567.1094
941.6027, 576.1562
942.0848, 546.1094
942.5670, 365.0156
943.0491, 6.843750
943.5312, 259.5781
944.0133, 8.562500
944.4954, 371.2812
944.9775, 450.3125
945.4597, 130.2188
945.9418, 95.56250
946.4239, 210.8906
946.9060, 263.0781
947.3881, 256.2031
947.8702, 206.5938
948.3524, 182.2812
948.8345, 178.9844
949.3166, 175.0000
949.7987, 125.0312
950.2808, 97.43750
950.7629, 187.1250
951.2451, 347.1875
951.7272, 369.8125
952.2093, 213.6719
952.6914, 18.71875
953.1735, 224.6875
953.6556, 415.2969
954.1378, 250.8281
954.6199, 137.2344
955.1020, 355.1406
955.5841, 208.6719
956.0662, 11.96875
956.5483, 112.3125
957.0305, 178.1250
957.5126, 197.7969
957.9947, 139.3750
958.4768, 157.6719
958.9589, 284.3594
959.4410, 402.5938
959.9232, 332.5469
960.4053, 181.9844
960.8874, 214.8125
961.3695, 442.6719
961.8516, 633.3594
962.3337, 594.1094
962.8159, 544.3281
963.2980, 611.6250
963.7801, 784.8281
964.2622, 967.1094
964.7443, 1179.609
965.2264, 1233.703
965.7086, 953.0469
966.1907, 554.1250
966.6728, 379.8125
967.1549, 373.2812
967.6370, 390.9375
968.1191, 391.6094
968.6013, 393.2500
969.0834, 364.1875
969.5655, 364.4531
970.0476, 556.1562
970.5297, 969.1562
971.0118, 1067.109
971.4940, 716.2500
971.9761, 321.1406
972.4582, 356.2969
972.9403, 584.9844
973.4224, 719.4844
973.9045, 692.7812
974.3867, 622.9375
974.8688, 355.9062
975.3509, 277.3438
975.8330, 722.9375
976.3151, 1611.031
976.7972, 1795.562
977.2794, 1311.594
977.7615, 884.7500
978.2435, 1094.750
978.7256, 1431.594
979.2078, 1433.344
979.6899, 1185.188
980.1720, 1019.656
980.6541, 982.1875
981.1362, 1041.500
981.6183, 1248.031
982.1005, 1475.406
982.5826, 1473.625
983.0647, 1293.500
983.5468, 1120.406
984.0289, 996.2812
984.5110, 913.6250
984.9932, 983.6250
985.4753, 1027.531
985.9574, 807.0938
986.4395, 159.6875
986.9216, 48.43750
987.4037, 308.2500
987.8859, 693.1562
988.3680, 630.7500
988.8501, 324.3125
989.3322, 230.5938
989.8143, 335.2500
990.2964, 485.8750
990.7786, 710.7812
991.2607, 849.3438
991.7428, 767.4375
992.2249, 561.6875
992.7070, 502.9062
993.1891, 614.2812
993.6713, 655.0312
994.1534, 530.6250
994.6355, 403.1562
995.1176, 511.3750
995.5997, 748.5000
996.0818, 953.3750
996.5640, 1112.281
997.0461, 1174.219
997.5282, 1044.156
998.0103, 917.2812
998.4924, 955.3438
998.9745, 1147.969
999.4567, 1302.031
999.9388, 1416.125
1000.421, 1500.500
1000.903, 1496.625
1001.385, 1513.531
1001.867, 1779.375
1002.349, 2208.719
1002.831, 2224.812
1003.314, 1467.094
1003.796, 1072.719
1004.278, 1436.406
1004.760, 2135.062
1005.242, 2377.656
1005.724, 2264.844
1006.206, 2081.594
1006.688, 1867.500
1007.171, 1715.031
1007.653, 1755.469
1008.135, 1827.812
1008.617, 1771.781
1009.099, 1544.688
1009.581, 1365.844
1010.063, 1231.844
1010.545, 1229.125
1011.027, 1591.344
1011.510, 2019.750
1011.992, 1985.812
1012.474, 1560.031
1012.956, 1290.875
1013.438, 1536.969
1013.920, 1774.938
1014.402, 1890.062
1014.884, 1890.281
1015.367, 1707.469
1015.849, 1379.656
1016.331, 1318.562
1016.813, 1740.375
1017.295, 2118.344
1017.777, 1814.531
1018.259, 1332.844
1018.741, 1262.688
1019.223, 1901.188
1019.706, 2178.562
1020.188, 1994.094
1020.670, 1717.469
1021.152, 1530.312
1021.634, 1471.688
1022.116, 1759.406
1022.598, 2313.688
1023.080, 2707.375
1023.563, 2499.031
1024.045, 2334.156
1024.527, 2517.500
1025.009, 2885.625
1025.491, 3133.812
1025.973, 3260.344
1026.455, 3195.719
1026.937, 2860.875
1027.419, 2586.031
1027.901, 2891.969
1028.384, 3390.062
1028.866, 3588.500
1029.348, 3329.844
1029.830, 3111.375
1030.312, 2957.281
1030.794, 2905.750
1031.276, 3085.062
1031.758, 3385.094
1032.241, 3192.656
1032.723, 2616.594
1033.205, 2188.875
1033.687, 2313.938
1034.169, 2532.312
1034.651, 2622.312
1035.133, 2645.812
1035.615, 2720.219
1036.098, 2843.125
1036.580, 2977.312
1037.062, 3108.125
1037.544, 3241.562
1038.026, 3386.938
1038.508, 3525.469
1038.990, 3661.031
1039.472, 3795.219
1039.954, 3810.844
1040.437, 3620.156
1040.919, 3398.188
1041.401, 3193.688
1041.883, 3025.656
1042.365, 3024.438
1042.847, 3148.000
1043.329, 3111.812
1043.811, 2697.281
1044.293, 2255.594
1044.776, 1939.062
1045.258, 1761.594
1045.740, 1762.500
1046.222, 2046.438
1046.704, 2079.688
1047.186, 1781.406
1047.668, 1511.781
1048.150, 1687.688
1048.633, 2042.906
1049.115, 2166.656
1049.597, 2056.438
1050.079, 1962.594
1050.561, 1782.312
1051.043, 1904.312
1051.525, 2611.969
1052.007, 3531.094
1052.490, 3581.875
1052.972, 2938.031
1053.454, 2607.969
1053.936, 2947.906
1054.418, 3367.906
1054.900, 3432.781
1055.382, 3377.562
1055.864, 3424.312
1056.346, 3587.250
1056.828, 3788.531
1057.311, 4056.469
1057.793, 4172.156
1058.275, 3823.875
1058.757, 3343.562
1059.239, 3299.750
1059.721, 3553.625
1060.203, 3666.281
1060.685, 3461.125
1061.168, 3155.500
1061.650, 2724.125
1062.132, 2308.000
1062.614, 2164.719
1063.096, 2227.531
1063.578, 2158.281
1064.060, 1905.156
1064.542, 1663.656
1065.025, 1509.188
1065.507, 1458.281
1065.989, 1601.875
1066.471, 1890.562
1066.953, 1914.906
1067.435, 1639.625
1067.917, 1410.688
1068.399, 1363.625
1068.881, 1414.469
1069.364, 1500.250
1069.846, 1595.062
1070.328, 1651.781
1070.810, 1563.000
1071.292, 1632.562
1071.774, 1956.219
1072.256, 2257.000
1072.738, 2238.125
1073.220, 2002.375
1073.703, 1969.469
1074.185, 2108.375
1074.667, 2168.188
1075.149, 1924.438
1075.631, 1682.844
1076.113, 1599.750
1076.595, 1599.719
1077.077, 1550.875
1077.559, 1461.094
1078.042, 1343.688
1078.524, 1213.375
1079.006, 1039.000
1079.488, 675.2812
1079.970, 339.0312
1080.452, 277.1250
1080.934, 564.4375
1081.416, 718.3750
1081.899, 684.8438
1082.381, 672.5000
1082.863, 765.2500
1083.345, 924.7188
1083.827, 1119.938
1084.309, 1311.688
1084.791, 1423.094
1085.273, 1270.938
1085.755, 1290.594
1086.238, 1710.000
1086.720, 2124.188
1087.202, 2145.031
1087.684, 1825.844
1088.166, 1628.500
1088.648, 1564.031
1089.130, 1577.094
1089.612, 1707.938
1090.094, 1783.281
1090.577, 1681.875
1091.059, 1498.688
1091.541, 1480.406
1092.023, 1655.719
1092.505, 1785.406
1092.987, 1824.250
1093.469, 1845.500
1093.951, 1899.562
1094.434, 1986.156
1094.916, 2129.438
1095.398, 2337.906
1095.880, 2425.062
1096.362, 2327.250
1096.844, 2229.812
1097.326, 2209.375
1097.808, 2225.531
1098.291, 2167.375
1098.773, 2080.312
1099.255, 2089.750
1099.737, 2345.562
1100.219, 2488.188
1100.701, 2350.094
1101.183, 2154.219
1101.665, 2060.656
1102.147, 2064.562
1102.630, 2027.562
1103.112, 1958.406
1103.594, 1960.094
1104.076, 2225.219
1104.558, 2435.812
1105.040, 2305.500
1105.522, 2007.688
1106.004, 1909.562
1106.486, 2034.406
1106.969, 2231.219
1107.451, 2511.688
1107.933, 2664.656
1108.415, 2369.688
1108.897, 1909.156
1109.379, 1568.781
1109.861, 1394.469
1110.343, 1347.281
1110.826, 1484.188
1111.308, 1464.750
1111.790, 1172.219
1112.272, 840.1250
1112.754, 887.5938
1113.236, 1117.531
1113.718, 1157.000
1114.200, 831.4375
1114.682, 685.5000
1115.165, 951.0000
1115.647, 1253.875
1116.129, 1405.344
1116.611, 1411.156
1117.093, 1260.469
1117.575, 986.3125
1118.057, 766.1250
1118.539, 769.8750
1119.021, 748.6562
1119.504, 580.7500
1119.986, 350.0938
1120.468, 129.1250
1120.950, 81.53125
1121.432, 174.6250
1121.914, 138.0312
1122.396, 64.59375
1122.878, 15.71875
1123.361, 79.37500
1123.843, 80.78125
1124.325, 50.71875
1124.807, 108.8750
1125.289, 274.9062
1125.771, 426.0000
1126.253, 520.2188
1126.735, 662.4062
1127.218, 1060.938
1127.700, 1521.969
1128.182, 1762.062
1128.664, 1717.750
1129.146, 1791.906
1129.628, 2057.562
1130.110, 2314.312
1130.592, 2514.719
1131.074, 2615.344
1131.557, 2418.281
1132.039, 2075.688
1132.521, 1964.188
1133.003, 2309.094
1133.485, 2577.312
1133.967, 2702.656
1134.449, 2641.281
1134.931, 2279.750
1135.413, 1723.312
1135.896, 1530.344
1136.378, 1634.500
1136.860, 1687.688
1137.342, 1505.844
1137.824, 1281.625
1138.306, 964.9688
1138.788, 730.9688
1139.270, 818.9688
1139.752, 1220.844
1140.235, 1381.750
1140.717, 1272.406
1141.199, 1199.000
1141.681, 1486.250
1142.163, 1761.969
1142.645, 1768.438
1143.127, 1556.094
1143.609, 1267.844
1144.092, 878.0625
1144.574, 707.2188
1145.056, 862.8438
1145.538, 938.6562
1146.020, 302.6875
1146.502, 432.3125
1146.984, 539.9062
1147.466, 30.90625
1147.948, 272.9062
1148.431, 75.37500
1148.913, 99.15625
1149.395, 133.5938
1149.877, 27.87500
1150.359, 317.5625
1150.841, 735.9688
1151.323, 963.9375
1151.805, 862.1250
1152.287, 893.3750
1152.770, 1108.438
1153.252, 1365.156
1153.734, 1622.688
1154.216, 1843.656
1154.698, 1936.812
1155.180, 1933.375
1155.662, 1905.469
1156.144, 1899.125
1156.627, 1839.656
1157.109, 1707.750
1157.591, 1564.625
1158.073, 1445.438
1158.555, 1362.094
1159.037, 1386.031
1159.519, 1487.375
1160.001, 1515.688
1160.484, 1376.188
1160.966, 1160.656
1161.448, 793.2500
1161.930, 460.4062
1162.412, 459.8438
1162.894, 720.0625
1163.376, 745.9062
1163.858, 512.0625
1164.340, 252.8750
1164.823, 98.90625
1165.305, 23.12500
1165.787, 89.62500
1166.269, 162.7188
1166.751, 477.3125
1167.233, 994.5312
1167.715, 1049.219
1168.197, 467.3750
1168.679, 17.40625
1169.162, 409.0625
1169.644, 914.3438
1170.126, 849.1875
1170.608, 336.4375
1171.090, 126.3750
1171.572, 530.3125
1172.054, 695.5000
1172.536, 456.1562
1173.019, 300.1250
1173.501, 888.1875
1173.983, 1622.375
1174.465, 1846.562
1174.947, 1520.188
1175.429, 1328.094
1175.911, 1276.969
1176.393, 1344.625
1176.875, 1604.812
1177.358, 1850.094
1177.840, 1833.531
1178.322, 1674.562
1178.804, 1526.281
1179.286, 1393.188
1179.768, 1340.812
1180.250, 1383.125
1180.732, 1426.219
1181.214, 1348.219
1181.697, 1281.312
1182.179, 1395.125
1182.661, 1638.938
1183.143, 1919.500
1183.625, 2326.531
1184.107, 2493.438
1184.589, 2374.938
1185.071, 2132.375
1185.554, 1783.438
1186.036, 1471.719
1186.518, 1500.156
1187.000, 1767.906
1187.482, 1846.875
1187.964, 1515.500
1188.446, 1361.656
1188.928, 1532.250
1189.411, 1655.688
1189.893, 1130.469
1190.375, 379.6562
1190.857, 155.2188
1191.339, 445.1562
1191.821, 625.6250
1192.303, 520.5938
1192.785, 381.3438
1193.267, 212.4062
1193.750, 113.3438
1194.232, 342.6250
1194.714, 696.8438
1195.196, 792.9375
1195.678, 572.9062
1196.160, 362.6250
1196.642, 197.7188
1197.124, 107.8438
1197.606, 117.8750
1198.089, 177.9062
1198.571, 196.7500
1199.053, 195.2500
1199.535, 221.7500
1200.017, 296.1562
1200.499, 346.0312
1200.981, 373.3125
1201.463, 348.8438
1201.945, 226.5625
1202.428, 80.68750
1202.910, 109.0625
1203.392, 248.0938
1203.874, 356.2188
1204.356, 366.0312
1204.838, 322.3750
1205.320, 183.0000
1205.802, 133.7188
1206.285, 361.7500
1206.767, 739.7188
1207.249, 781.0938
1207.731, 595.8438
1208.213, 546.2812
1208.695, 848.9688
1209.177, 1204.156
1209.659, 1687.656
1210.141, 1995.312
1210.624, 1744.344
1211.106, 1180.125
1211.588, 1172.156
1212.070, 1559.188
1212.552, 1810.188
1213.034, 1512.656
1213.516, 1335.781
1213.998, 1425.781
1214.480, 1558.375
1214.963, 1510.000
1215.445, 1347.281
1215.927, 1319.312
1216.409, 1392.094
1216.891, 1377.500
1217.373, 1077.125
1217.855, 876.1562
1218.337, 882.9062
1218.820, 944.7812
1219.302, 873.1250
1219.784, 728.4062
1220.266, 688.2812
1220.748, 746.8438
1221.230, 788.5625
1221.712, 719.6562
1222.194, 694.3438
1222.677, 746.4375
1223.159, 824.7500
1223.641, 859.7188
1224.123, 871.3438
1224.605, 896.0000
1225.087, 924.1250
1225.569, 984.7500
1226.051, 1150.750
1226.533, 1332.750
1227.016, 1487.625
1227.498, 1561.281
1227.980, 1473.031
1228.462, 1317.812
1228.944, 1192.844
1229.426, 1095.188
1229.908, 1205.844
1230.390, 1876.250
1230.872, 2283.000
1231.355, 2150.344
1231.837, 1781.688
1232.319, 1638.938
1232.801, 1660.812
1233.283, 1750.344
1233.765, 1897.719
1234.247, 2007.969
1234.729, 1998.844
1235.212, 2074.531
1235.694, 2347.719
1236.176, 2636.031
1236.658, 2477.094
1237.140, 2145.812
1237.622, 2205.875
1238.104, 2851.219
1238.586, 3138.906
1239.068, 2871.938
1239.551, 2550.594
1240.033, 2295.906
1240.515, 2147.844
1240.997, 2251.188
1241.479, 2483.688
1241.961, 2671.594
1242.443, 2820.531
1242.925, 2686.344
1243.407, 2121.438
1243.890, 1749.906
1244.372, 1954.438
1244.854, 2395.781
1245.336, 2557.250
1245.818, 2629.500
1246.300, 2820.906
1246.782, 3182.188
1247.264, 3466.406
1247.747, 3703.469
1248.229, 3783.094
1248.711, 3626.156
1249.193, 3328.406
1249.675, 2890.688
1250.157, 2450.188
1250.639, 2230.812
1251.121, 2314.156
1251.604, 2229.156
1252.086, 1998.719
1252.568, 1758.188
1253.050, 1633.500
1253.532, 1576.062
1254.014, 1549.500
1254.496, 1559.688
1254.978, 1612.656
1255.460, 1699.000
1255.943, 1818.031
1256.425, 1961.594
1256.907, 2051.000
1257.389, 1944.500
1257.871, 1843.438
1258.353, 1943.656
1258.835, 2096.781
1259.317, 2142.906
1259.799, 2089.594
1260.281, 1669.875
1260.764, 908.4375
1261.246, 409.9375
1261.728, 932.8750
1262.210, 1387.969
1262.692, 1086.719
1263.174, 450.3125
1263.656, 118.7188
1264.138, 608.3438
1264.621, 638.9375
1265.103, 248.9062
1265.585, 103.6875
1266.067, 106.2188
1266.549, 82.21875
1267.031, 47.00000
1267.513, 145.5000
1267.995, 648.8750
1268.478, 1435.281
1268.960, 1647.938
1269.442, 1386.000
1269.924, 1424.000
1270.406, 2603.312
1270.888, 3445.688
1271.370, 3548.750
1271.852, 3315.344
1272.334, 2982.188
1272.817, 2668.594
1273.299, 2896.344
1273.781, 3533.062
1274.263, 3942.156
1274.745, 3679.875
1275.227, 3466.875
1275.709, 3396.594
1276.191, 3407.125
1276.673, 3586.562
1277.156, 3741.844
1277.638, 3371.031
1278.120, 2639.594
1278.602, 2221.469
1279.084, 2419.969
1279.566, 2563.688
1280.048, 2556.906
1280.530, 2189.562
1281.013, 1618.781
1281.495, 1288.781
1281.977, 1162.312
1282.459, 1265.844
1282.941, 1484.438
1283.423, 1801.875
1283.905, 1791.438
1284.387, 1367.750
1284.870, 1051.156
1285.352, 1503.719
1285.834, 2035.781
1286.316, 2049.031
1286.798, 1706.500
1287.280, 1449.250
1287.762, 1273.656
1288.244, 1332.531
1288.726, 1641.812
1289.208, 1803.969
1289.691, 1275.375
1290.173, 735.5625
1290.655, 622.7188
1291.137, 727.0000
1291.619, 774.4062
1292.101, 747.5000
1292.583, 709.5625
1293.065, 735.6562
1293.548, 718.1562
1294.030, 511.6562
1294.512, 301.9375
1294.994, 127.2188
1295.476, 8.875000
1295.958, 7.437500
1296.440, 0.0000000E+00
##END=



