##NAMES=Hulsite
##RRUFFID=R070453
##IDEAL CHEMISTRY=Fe^2+^_2_Fe^3+^O_2_(BO_3_)
##LOCALITY=Titovskoye B deposit, Tas-Khayakhtakh Range, Polar Yakutia, Saha Republic (Sakha Republic; Yakutia), Eastern-Siberian Region, Russia
##OWNER=RRUFF
##SOURCE=Michael Scott
##DESCRIPTION=Aggregate of sub-metallic black platy material
##STATUS=The identification of this mineral is not yet confirmed.
##URL=rruff.info/R070453
162.9733, 0.0000000E+00
163.4554, 5.053955
163.9376, 5.460205
164.4197, 0.1140140
164.9018, 1.721680
165.3839, 0.2880860
165.8660, 2.756348
166.3481, 6.515137
166.8303, 10.85596
167.3124, 15.85645
167.7945, 23.36743
168.2766, 30.83887
168.7587, 31.16455
169.2408, 19.63550
169.7230, 11.57959
170.2051, 18.23413
170.6872, 32.89233
171.1693, 45.59717
171.6514, 53.12280
172.1335, 55.19922
172.6157, 48.67871
173.0978, 25.73706
173.5799, 10.30249
174.0620, 19.39111
174.5441, 40.52930
175.0262, 55.24609
175.5084, 51.68896
175.9905, 37.71680
176.4726, 35.49902
176.9547, 50.16162
177.4368, 67.82764
177.9189, 86.48169
178.4010, 103.6248
178.8832, 114.3008
179.3653, 112.8997
179.8474, 106.5278
180.3295, 118.6980
180.8116, 164.7820
181.2937, 202.0959
181.7759, 211.7195
182.2580, 208.0015
182.7401, 208.5894
183.2222, 222.5828
183.7043, 245.4058
184.1864, 264.4951
184.6686, 280.0156
185.1507, 290.6731
185.6328, 291.5940
186.1149, 289.9116
186.5970, 294.1785
187.0791, 308.8569
187.5613, 330.3545
188.0434, 350.0332
188.5255, 369.2639
189.0076, 383.4280
189.4897, 388.6475
189.9718, 390.3772
190.4540, 395.0728
190.9361, 405.9170
191.4182, 419.0002
191.9003, 424.7598
192.3824, 420.1111
192.8645, 412.8105
193.3467, 392.5088
193.8288, 375.8694
194.3109, 382.9854
194.7930, 422.1997
195.2751, 476.9932
195.7572, 511.7488
196.2394, 519.5356
196.7215, 518.7283
197.2036, 506.3254
197.6857, 491.0654
198.1678, 480.3010
198.6499, 476.4871
199.1321, 477.2542
199.6142, 477.2397
200.0963, 470.5129
200.5784, 475.9504
201.0605, 506.1592
201.5426, 540.0854
202.0248, 561.4773
202.5069, 565.9580
202.9890, 560.1819
203.4711, 553.8657
203.9532, 545.2642
204.4353, 540.3494
204.9175, 544.3308
205.3996, 548.0969
205.8817, 542.0110
206.3638, 525.7234
206.8459, 510.3164
207.3280, 513.4058
207.8102, 547.0930
208.2923, 568.2827
208.7744, 569.5925
209.2565, 565.5923
209.7386, 564.9165
210.2207, 568.2866
210.7029, 570.2991
211.1850, 563.1841
211.6671, 542.3799
212.1492, 529.6653
212.6313, 527.0854
213.1134, 530.1763
213.5956, 540.0969
214.0777, 554.8315
214.5598, 569.1953
215.0419, 578.8420
215.5240, 584.5874
216.0061, 581.8425
216.4883, 554.0190
216.9704, 533.2878
217.4525, 537.5583
217.9346, 563.3555
218.4167, 587.3677
218.8988, 592.6875
219.3810, 579.9800
219.8631, 574.7942
220.3452, 582.8525
220.8273, 584.4827
221.3094, 571.1426
221.7915, 548.1580
222.2737, 526.8193
222.7558, 515.5918
223.2379, 512.9861
223.7200, 500.9468
224.2021, 470.7529
224.6842, 439.7620
225.1664, 408.8643
225.6485, 379.9280
226.1306, 354.0986
226.6127, 331.6372
227.0948, 314.0010
227.5770, 308.7966
228.0591, 337.5742
228.5412, 348.9338
229.0233, 324.8025
229.5054, 283.3354
229.9875, 243.4119
230.4697, 213.2937
230.9518, 192.7429
231.4339, 180.5491
231.9160, 179.9226
232.3981, 180.4524
232.8802, 184.4805
233.3624, 187.3015
233.8445, 181.2976
234.3266, 164.4373
234.8087, 145.5093
235.2908, 141.6646
235.7729, 163.3638
236.2551, 175.3452
236.7372, 171.2786
237.2193, 160.3745
237.7014, 146.0195
238.1835, 129.9514
238.6656, 115.6899
239.1478, 108.5249
239.6299, 110.9871
240.1120, 111.1755
240.5941, 104.3577
241.0762, 98.73096
241.5583, 100.2129
242.0405, 107.7605
242.5226, 114.3665
243.0047, 102.8799
243.4868, 107.7347
243.9689, 107.8389
244.4510, 103.4477
244.9332, 81.09621
245.4153, 81.93649
245.8974, 73.48300
246.3795, 64.64842
246.8616, 68.75269
247.3437, 49.01444
247.8259, 52.91238
248.3080, 47.37587
248.7901, 46.15780
249.2722, 35.58856
249.7543, 27.90760
250.2364, 13.22949
250.7186, 4.213623
251.2007, 0.5512700
251.6828, 2.625977
252.1649, 12.32593
252.6470, 24.22681
253.1291, 40.37354
253.6113, 56.03589
254.0934, 66.14160
254.5755, 68.84741
255.0576, 65.54614
255.5397, 56.38013
256.0219, 38.70093
256.5040, 25.30835
256.9861, 23.58105
257.4682, 25.49780
257.9503, 24.23901
258.4324, 18.21680
258.9146, 14.29883
259.3967, 24.31494
259.8788, 49.44263
260.3609, 61.37451
260.8430, 43.54956
261.3251, 21.10693
261.8073, 10.73730
262.2894, 11.64136
262.7715, 16.03516
263.2536, 19.92456
263.7357, 23.72729
264.2178, 30.22119
264.7000, 43.00659
265.1821, 53.09229
265.6642, 54.36548
266.1463, 48.09204
266.6284, 37.87939
267.1105, 20.34888
267.5927, 0.9323730
268.0748, 7.974609
268.5569, 4.104004
269.0390, 3.687744
269.5211, 12.55176
270.0032, 21.04443
270.4854, 26.40796
270.9675, 29.44849
271.4496, 27.90210
271.9317, 13.96411
272.4138, 13.23975
272.8959, 30.85498
273.3781, 21.75684
273.8602, 2.086182
274.3423, 17.05078
274.8244, 20.94971
275.3065, 17.91382
275.7886, 3.423828
276.2708, 17.86255
276.7529, 24.21899
277.2350, 1.522705
277.7171, 30.86011
278.1992, 38.54858
278.6813, 17.10132
279.1635, 1.961914
279.6456, 4.834229
280.1277, 1.501465
280.6098, 5.018066
281.0919, 2.846680
281.5740, 0.5100100
282.0562, 0.3386230
282.5383, 5.547119
283.0204, 9.804443
283.5025, 12.59814
283.9846, 14.20654
284.4667, 14.62256
284.9489, 14.46948
285.4310, 15.09131
285.9131, 16.63477
286.3952, 18.08838
286.8773, 16.77441
287.3594, 13.31836
287.8416, 7.981445
288.3237, 3.541504
288.8058, 17.31250
289.2879, 22.43384
289.7700, 12.04639
290.2521, 10.03174
290.7343, 27.81470
291.2164, 46.90259
291.6985, 55.31226
292.1806, 41.41553
292.6627, 19.31543
293.1448, 6.667725
293.6270, 9.589355
294.1091, 21.79565
294.5912, 32.76807
295.0733, 45.77319
295.5554, 50.45557
296.0375, 39.84302
296.5197, 26.75415
297.0018, 20.88501
297.4839, 23.06201
297.9660, 26.85156
298.4481, 24.45435
298.9302, 14.52393
299.4124, 12.00708
299.8945, 22.04785
300.3766, 34.21729
300.8587, 49.32568
301.3408, 63.74976
301.8229, 70.20215
302.3050, 62.55444
302.7871, 44.44556
303.2693, 34.59326
303.7514, 39.68970
304.2335, 43.64795
304.7156, 41.23755
305.1977, 36.91333
305.6798, 35.72437
306.1620, 39.60205
306.6441, 45.86011
307.1262, 50.73511
307.6083, 54.65039
308.0904, 56.16724
308.5725, 50.40088
309.0547, 45.59326
309.5368, 49.14307
310.0189, 60.37183
310.5010, 69.79565
310.9831, 67.05640
311.4652, 36.81537
311.9474, 56.91762
312.4295, 67.99383
312.9116, 70.52896
313.3937, 38.94146
313.8758, 51.41626
314.3579, 46.23287
314.8401, 40.32534
315.3222, 59.00168
315.8043, 32.37727
316.2864, 50.66376
316.7685, 51.02265
317.2506, 59.58654
317.7328, 50.38315
318.2149, 46.66755
318.6970, 60.72490
319.1791, 64.94120
319.6612, 53.69262
320.1433, 62.77807
320.6255, 35.53291
321.1076, 40.16837
321.5897, 58.55889
322.0718, 48.20361
322.5539, 57.61394
323.0360, 59.49640
323.5182, 27.16801
324.0003, 54.33570
324.4824, 55.77333
324.9645, 30.79176
325.4466, 41.24805
325.9287, 49.10596
326.4109, 63.99023
326.8930, 69.11230
327.3751, 57.22900
327.8572, 42.33398
328.3393, 28.99585
328.8214, 18.79346
329.3036, 15.52686
329.7857, 22.29761
330.2678, 35.51807
330.7499, 41.47607
331.2320, 36.06860
331.7141, 32.85669
332.1963, 31.41089
332.6784, 31.80029
333.1605, 35.20166
333.6426, 41.69995
334.1247, 46.93921
334.6068, 46.47974
335.0890, 39.28979
335.5711, 34.69360
336.0532, 34.98047
336.5353, 35.29175
337.0174, 33.12012
337.4995, 28.56519
337.9817, 22.99268
338.4638, 16.24658
338.9459, 8.749756
339.4280, 5.069092
339.9101, 8.093750
340.3922, 11.45166
340.8744, 15.73560
341.3565, 18.19531
341.8386, 13.59375
342.3207, 1.455566
342.8028, 17.48853
343.2849, 19.75757
343.7671, 7.456055
344.2492, 8.795898
344.7313, 34.80640
345.2134, 57.32935
345.6955, 64.26587
346.1776, 54.84570
346.6598, 41.80371
347.1419, 32.99121
347.6240, 28.40942
348.1061, 26.08936
348.5882, 24.77515
349.0703, 23.61255
349.5525, 21.00391
350.0346, 18.04395
350.5167, 18.20410
350.9988, 23.95361
351.4809, 31.60034
351.9630, 40.89258
352.4452, 50.34570
352.9273, 51.74463
353.4094, 39.24121
353.8915, 18.64209
354.3736, 4.577393
354.8557, 4.479492
355.3379, 6.125488
355.8200, 7.608398
356.3021, 25.77563
356.7842, 34.82788
357.2663, 32.05151
357.7484, 24.18823
358.2306, 18.00635
358.7127, 13.04492
359.1948, 12.63281
359.6769, 22.86841
360.1590, 30.94458
360.6411, 29.74365
361.1233, 21.90845
361.6054, 13.58691
362.0875, 8.167969
362.5696, 5.407471
363.0517, 4.193115
363.5338, 3.232422
364.0160, 6.358154
364.4981, 21.02783
364.9802, 35.15259
365.4623, 36.53589
365.9444, 23.49756
366.4265, 6.941162
366.9087, 0.6184080
367.3908, 1.326660
367.8729, 2.178711
368.3550, 2.569092
368.8371, 3.170166
369.3192, 10.34521
369.8014, 31.51782
370.2835, 44.51123
370.7656, 37.83545
371.2477, 22.20801
371.7298, 15.57446
372.2119, 18.37207
372.6941, 23.90454
373.1762, 31.02930
373.6583, 38.74194
374.1404, 45.47778
374.6225, 50.94800
375.1046, 56.11401
375.5868, 64.91211
376.0689, 72.74951
376.5510, 68.00122
377.0331, 47.54321
377.5152, 26.14673
377.9973, 18.13867
378.4795, 24.29053
378.9616, 27.65112
379.4437, 25.68872
379.9258, 22.94775
380.4079, 22.04419
380.8900, 22.62988
381.3722, 23.13403
381.8543, 22.58911
382.3364, 21.79102
382.8185, 23.22852
383.3006, 32.15186
383.7827, 36.28369
384.2649, 30.40991
384.7470, 22.91260
385.2291, 20.55078
385.7112, 24.33325
386.1933, 31.30688
386.6754, 39.56592
387.1576, 49.55640
387.6397, 53.22070
388.1218, 45.36743
388.6039, 36.67749
389.0860, 31.00220
389.5681, 26.70337
390.0503, 20.13306
390.5324, 8.389893
391.0145, 2.501709
391.4966, 0.9497070
391.9787, 14.69849
392.4608, 27.00684
392.9430, 30.08032
393.4251, 28.98120
393.9072, 27.62354
394.3893, 26.15088
394.8714, 26.89502
395.3535, 34.13354
395.8357, 43.21582
396.3178, 45.58569
396.7999, 40.12744
397.2820, 33.19141
397.7641, 29.56104
398.2462, 28.32642
398.7284, 24.61621
399.2105, 15.51050
399.6926, 7.073730
400.1747, 2.495605
400.6568, 9.895996
401.1389, 5.332764
401.6211, 15.18750
402.1032, 40.52100
402.5853, 53.87158
403.0674, 52.00000
403.5495, 45.53125
404.0316, 29.35669
404.5138, 13.81592
404.9959, 1.962646
405.4780, 4.814209
405.9601, 3.384277
406.4422, 9.330322
406.9243, 28.71167
407.4065, 37.54053
407.8886, 31.25635
408.3707, 23.52686
408.8528, 13.74072
409.3349, 5.806152
409.8170, 4.161377
410.2992, 9.055908
410.7813, 14.51831
411.2634, 14.23511
411.7455, 9.651611
412.2276, 9.316162
412.7097, 15.94580
413.1919, 21.20288
413.6740, 15.05444
414.1561, 3.827148
414.6382, 2.016357
415.1203, 20.08057
415.6024, 38.64478
416.0846, 40.72949
416.5667, 31.40015
417.0488, 27.39819
417.5309, 35.47949
418.0130, 47.27759
418.4951, 50.14966
418.9773, 40.96289
419.4594, 32.75513
419.9415, 24.37720
420.4236, 18.44775
420.9057, 16.70801
421.3878, 19.00269
421.8700, 25.56226
422.3521, 37.40674
422.8342, 51.67261
423.3163, 56.16797
423.7984, 43.70117
424.2805, 32.00024
424.7627, 18.87866
425.2448, 10.01392
425.7269, 12.77734
426.2090, 26.22681
426.6911, 39.38916
427.1732, 41.77710
427.6554, 33.85156
428.1375, 23.01538
428.6196, 4.911621
429.1017, 7.847656
429.5838, 7.117432
430.0659, 2.498047
430.5481, 15.71216
431.0302, 33.77905
431.5123, 49.84277
431.9944, 57.75488
432.4765, 58.84326
432.9586, 57.39160
433.4408, 54.04565
433.9229, 49.83960
434.4050, 44.51294
434.8871, 37.45581
435.3692, 38.19995
435.8513, 60.32349
436.3335, 78.78076
436.8156, 72.62305
437.2977, 49.97070
437.7798, 33.21436
438.2619, 34.06958
438.7440, 46.18091
439.2262, 53.36816
439.7083, 51.35962
440.1904, 51.94531
440.6725, 57.90820
441.1546, 64.18359
441.6367, 67.25903
442.1189, 67.35962
442.6010, 67.01831
443.0831, 68.23438
443.5652, 52.12500
444.0473, 76.85498
444.5294, 91.12817
445.0116, 95.47583
445.4937, 60.16577
445.9758, 76.07104
446.4579, 71.44971
446.9400, 65.96484
447.4221, 89.03516
447.9043, 59.42798
448.3864, 81.97070
448.8685, 83.54346
449.3506, 94.71338
449.8327, 85.33594
450.3148, 82.38940
450.7970, 100.1123
451.2791, 106.3948
451.7612, 94.69897
452.2433, 69.06421
452.7254, 68.81299
453.2076, 76.39185
453.6897, 84.51172
454.1718, 90.61938
454.6539, 93.24707
455.1360, 89.28784
455.6181, 76.31958
456.1003, 70.48535
456.5824, 80.32227
457.0645, 88.80444
457.5466, 89.22095
458.0287, 85.22705
458.5108, 83.94604
458.9930, 89.97925
459.4751, 95.83179
459.9572, 88.67578
460.4393, 68.26855
460.9214, 51.36060
461.4035, 42.88037
461.8857, 36.41187
462.3678, 21.79663
462.8499, 2.048096
463.3320, 5.218506
463.8141, 17.75513
464.2962, 45.32031
464.7784, 52.47852
465.2605, 43.44287
465.7426, 36.81909
466.2247, 40.94067
466.7068, 50.71045
467.1889, 56.39844
467.6711, 55.43677
468.1532, 55.05518
468.6353, 59.15649
469.1174, 60.56934
469.5995, 49.31323
470.0816, 31.04224
470.5638, 22.81763
471.0459, 36.94336
471.5280, 63.85596
472.0101, 74.41699
472.4922, 61.56250
472.9743, 51.63599
473.4565, 52.57373
473.9386, 56.50171
474.4207, 58.88989
474.9028, 58.89258
475.3849, 60.05713
475.8670, 68.52368
476.3492, 78.81201
476.8313, 82.28491
477.3134, 78.85376
477.7955, 67.55884
478.2776, 43.21191
478.7597, 14.57397
479.2419, 3.548340
479.7240, 14.64282
480.2061, 28.59106
480.6882, 47.87598
481.1703, 64.35620
481.6524, 70.76465
482.1346, 66.71484
482.6167, 53.47632
483.0988, 29.44458
483.5809, 0.2465820
484.0630, 5.495850
484.5451, 38.39673
485.0273, 66.26074
485.5094, 56.19629
485.9915, 36.90698
486.4736, 32.16504
486.9557, 43.73511
487.4378, 57.24414
487.9200, 62.59180
488.4021, 62.24854
488.8842, 57.61987
489.3663, 44.86670
489.8484, 37.93970
490.3305, 46.05566
490.8127, 63.05200
491.2948, 76.37231
491.7769, 87.19531
492.2590, 91.31860
492.7411, 81.56152
493.2232, 67.49756
493.7054, 59.01318
494.1875, 57.45020
494.6696, 61.88818
495.1517, 73.42529
495.6338, 89.16699
496.1159, 90.00659
496.5981, 59.05078
497.0802, 36.66943
497.5623, 26.78101
498.0444, 26.53027
498.5265, 38.47021
499.0086, 59.79541
499.4908, 77.37598
499.9729, 77.85547
500.4550, 65.99731
500.9371, 59.49146
501.4192, 58.73218
501.9013, 61.85034
502.3835, 72.47803
502.8656, 84.32788
503.3477, 85.40381
503.8298, 71.23022
504.3119, 60.62842
504.7940, 64.01709
505.2762, 72.86743
505.7583, 78.73438
506.2404, 80.48682
506.7225, 77.99048
507.2046, 70.49414
507.6867, 59.55640
508.1689, 52.05640
508.6510, 48.37524
509.1331, 47.96240
509.6152, 53.21899
510.0973, 59.67944
510.5794, 64.67334
511.0616, 67.75903
511.5437, 69.52612
512.0258, 71.28369
512.5079, 71.46216
512.9901, 63.06201
513.4722, 43.86523
513.9543, 31.88062
514.4364, 34.76514
514.9185, 44.95337
515.4006, 52.38989
515.8828, 57.02686
516.3649, 60.01123
516.8470, 63.10645
517.3291, 63.68066
517.8112, 57.12341
518.2933, 45.32312
518.7755, 35.34302
519.2576, 30.97034
519.7397, 30.73816
520.2218, 31.00891
520.7039, 30.60193
521.1860, 33.03271
521.6682, 43.35254
522.1503, 51.64417
522.6324, 53.34656
523.1145, 48.59473
523.5966, 37.42932
524.0787, 16.65283
524.5609, 3.398926
525.0430, 1.467041
525.5251, 22.30103
526.0072, 36.59473
526.4893, 31.10815
526.9714, 18.62817
527.4536, 10.85095
527.9357, 7.422363
528.4178, 7.967285
528.8999, 16.93103
529.3820, 25.61707
529.8641, 30.43494
530.3463, 30.69446
530.8284, 22.08203
531.3105, 3.558105
531.7926, 13.41162
532.2747, 10.58167
532.7568, 18.63672
533.2390, 32.19299
533.7211, 17.72937
534.2032, 3.770874
534.6853, 3.085205
535.1674, 2.187012
535.6495, 5.560791
536.1317, 20.82312
536.6138, 33.75244
537.0959, 30.50586
537.5780, 16.70740
538.0601, 11.96277
538.5422, 19.69580
539.0244, 27.76123
539.5065, 27.41541
539.9886, 20.30347
540.4707, 14.92041
540.9528, 12.76318
541.4349, 9.994873
541.9171, 3.660645
542.3992, 2.181396
542.8813, 3.009766
543.3634, 0.8908690
543.8455, 5.495605
544.3276, 8.139771
544.8098, 8.374512
545.2919, 1.918213
545.7740, 18.02063
546.2561, 25.83850
546.7382, 0.5705570
547.2203, 28.55261
547.7024, 37.86450
548.1845, 27.97363
548.6666, 16.93127
549.1487, 11.12512
549.6309, 9.252441
550.1130, 11.82214
550.5951, 17.56140
551.0772, 21.01123
551.5593, 19.76074
552.0414, 16.47461
552.5236, 15.27637
553.0057, 16.17029
553.4878, 19.31714
553.9699, 31.50146
554.4520, 38.40869
554.9341, 26.28723
555.4163, 7.572998
555.8984, 4.822144
556.3805, 26.79932
556.8626, 51.62207
557.3447, 49.10437
557.8268, 23.27905
558.3090, 8.284180
558.7911, 10.06543
559.2732, 13.54395
559.7553, 7.302734
560.2374, 4.554199
560.7195, 8.645142
561.2017, 1.5870000E-03
561.6838, 7.834961
562.1659, 10.43335
562.6480, 10.25098
563.1301, 8.844604
563.6122, 7.055542
564.0944, 6.628052
564.5765, 8.916504
565.0586, 13.38940
565.5407, 18.55432
566.0228, 26.33264
566.5049, 29.93030
566.9871, 24.46729
567.4692, 17.34753
567.9513, 11.52209
568.4334, 7.764648
568.9155, 8.291260
569.3976, 20.52747
569.8798, 31.61682
570.3619, 22.94592
570.8440, 1.469482
571.3261, 8.088379
571.8082, 2.409302
572.2903, 21.12598
572.7725, 34.72766
573.2546, 43.21289
573.7367, 46.76611
574.2188, 44.43054
574.7009, 38.59937
575.1830, 21.47424
575.6652, 5.548218
576.1473, 8.823853
576.6294, 33.44434
577.1115, 57.50598
577.5936, 40.98767
578.0757, 59.72363
578.5579, 68.42468
579.0400, 67.65820
579.5221, 27.68896
580.0042, 39.39026
580.4863, 31.02783
580.9684, 22.28174
581.4506, 42.56482
581.9327, 10.65491
582.4148, 31.27112
582.8969, 31.57715
583.3790, 41.93713
583.8611, 32.10425
584.3433, 29.10645
584.8254, 47.22412
585.3075, 54.36169
585.7896, 27.75562
586.2717, 10.39648
586.7538, 2.456177
587.2360, 9.013428
587.7181, 18.65515
588.2002, 30.64795
588.6823, 39.93787
589.1644, 34.69910
589.6465, 3.521606
590.1287, 17.70020
590.6108, 2.323486
591.0929, 33.97168
591.5750, 34.42590
592.0571, 5.271362
592.5392, 18.24634
593.0214, 11.84009
593.5035, 15.23291
593.9856, 34.61536
594.4677, 45.27100
594.9498, 50.34082
595.4319, 45.66797
595.9141, 39.27588
596.3962, 34.53662
596.8783, 31.26050
597.3604, 27.91260
597.8425, 22.10999
598.3246, 19.68152
598.8068, 29.77563
599.2889, 47.02588
599.7710, 57.48010
600.2531, 58.31836
600.7352, 54.52283
601.2173, 49.75806
601.6995, 44.16589
602.1816, 40.22864
602.6637, 37.81506
603.1458, 37.35596
603.6279, 43.37476
604.1100, 46.42688
604.5922, 36.09167
605.0743, 15.13196
605.5564, 2.028687
606.0385, 10.25610
606.5206, 28.23865
607.0027, 40.45898
607.4849, 47.07056
607.9670, 48.68494
608.4491, 44.88342
608.9312, 38.10742
609.4133, 29.68701
609.8954, 19.64783
610.3776, 14.81458
610.8597, 16.51660
611.3418, 20.69556
611.8239, 28.07715
612.3060, 36.63965
612.7881, 44.97095
613.2703, 52.25171
613.7524, 56.56873
614.2345, 55.04260
614.7166, 50.73352
615.1987, 53.66431
615.6808, 64.49365
616.1630, 66.21912
616.6451, 49.74084
617.1272, 30.19031
617.6093, 26.06982
618.0914, 37.33521
618.5735, 42.65479
619.0557, 35.48926
619.5378, 30.21667
620.0199, 35.29431
620.5020, 43.84705
620.9841, 45.93823
621.4662, 41.23022
621.9484, 37.81030
622.4305, 44.28345
622.9126, 57.68787
623.3947, 61.21802
623.8768, 52.79590
624.3589, 46.41211
624.8411, 46.20801
625.3232, 49.88574
625.8053, 57.82422
626.2874, 69.70117
626.7695, 72.61963
627.2516, 55.44849
627.7338, 39.95496
628.2159, 35.62451
628.6980, 38.31885
629.1801, 43.37292
629.6622, 50.11475
630.1443, 55.51245
630.6265, 56.88098
631.1086, 54.63086
631.5907, 49.72742
632.0728, 39.90564
632.5549, 36.78918
633.0370, 49.40564
633.5192, 64.86365
634.0013, 67.05884
634.4834, 56.89111
634.9655, 51.49109
635.4476, 60.72278
635.9297, 68.76807
636.4119, 63.30811
636.8940, 52.12866
637.3761, 49.37781
637.8582, 57.74072
638.3403, 65.15771
638.8224, 59.29395
639.3046, 43.42273
639.7867, 37.82617
640.2688, 44.57520
640.7509, 55.09094
641.2330, 72.51453
641.7151, 87.26978
642.1973, 88.48572
642.6794, 77.16565
643.1615, 64.79199
643.6436, 48.62329
644.1257, 37.52539
644.6078, 40.59009
645.0900, 50.35535
645.5721, 52.99646
646.0542, 46.78357
646.5363, 44.19153
647.0184, 59.24841
647.5005, 86.05090
647.9827, 94.83740
648.4648, 84.21912
648.9469, 72.19495
649.4290, 63.09875
649.9111, 54.33508
650.3932, 37.44934
650.8754, 16.73450
651.3575, 12.02991
651.8396, 41.55432
652.3217, 68.55359
652.8038, 72.83142
653.2859, 65.83545
653.7681, 62.23608
654.2502, 64.69666
654.7323, 69.03040
655.2144, 73.05908
655.6965, 74.75903
656.1786, 64.18616
656.6608, 37.67334
657.1429, 22.40076
657.6250, 29.12988
658.1071, 41.34094
658.5892, 43.23999
659.0714, 37.67981
659.5535, 37.58789
660.0356, 50.77600
660.5177, 61.22949
660.9998, 63.76282
661.4819, 60.71619
661.9641, 51.94812
662.4462, 39.53284
662.9283, 29.90564
663.4104, 27.66016
663.8925, 29.73071
664.3746, 28.74817
664.8568, 24.51208
665.3389, 23.80835
665.8210, 30.23181
666.3031, 34.00073
666.7852, 25.01392
667.2673, 7.255371
667.7495, 1.642212
668.2316, 5.342773
668.7137, 9.748657
669.1958, 4.030762
669.6779, 2.145264
670.1600, 0.8586430
670.6422, 6.710449
671.1243, 15.87878
671.6064, 24.64771
672.0885, 31.91187
672.5706, 36.33887
673.0527, 37.91626
673.5349, 36.40320
674.0170, 31.05237
674.4991, 26.93884
674.9812, 27.56262
675.4633, 31.09216
675.9454, 33.02710
676.4276, 34.36133
676.9097, 31.77014
677.3918, 23.06323
677.8739, 12.53284
678.3560, 2.733398
678.8381, 16.51514
679.3203, 16.88000
679.8024, 6.2987998E-02
680.2845, 18.46851
680.7666, 22.17249
681.2487, 17.20398
681.7308, 19.09680
682.2130, 28.03174
682.6951, 35.72925
683.1772, 39.33899
683.6593, 37.35803
684.1414, 25.59375
684.6235, 0.1740720
685.1057, 13.08630
685.5878, 5.967773
686.0699, 5.474121
686.5520, 23.62903
687.0341, 40.59460
687.5162, 46.05115
687.9984, 39.90625
688.4805, 35.45557
688.9626, 44.34326
689.4447, 55.63037
689.9268, 54.68811
690.4089, 45.75476
690.8911, 42.76599
691.3732, 49.34570
691.8553, 55.92627
692.3374, 52.68872
692.8195, 40.70496
693.3016, 29.70557
693.7838, 19.46875
694.2659, 10.65149
694.7480, 0.7003170
695.2301, 6.746826
695.7122, 2.539795
696.1943, 22.34546
696.6765, 34.33472
697.1586, 29.01624
697.6407, 22.43726
698.1228, 25.94897
698.6049, 31.40393
699.0870, 24.43823
699.5692, 7.677979
700.0513, 0.2110600
700.5334, 15.27222
701.0155, 40.59973
701.4976, 45.57861
701.9797, 27.84521
702.4619, 20.82300
702.9440, 32.84082
703.4261, 43.74719
703.9082, 39.17798
704.3903, 26.38721
704.8724, 23.24524
705.3546, 33.55127
705.8367, 41.68530
706.3188, 46.95056
706.8009, 48.06104
707.2830, 41.31653
707.7651, 30.87976
708.2473, 23.68433
708.7294, 21.72754
709.2115, 21.13232
709.6936, 16.36194
710.1757, 10.62817
710.6578, 14.19568
711.1400, 26.49744
711.6221, 35.49243
712.1042, 36.60278
712.5863, 34.17542
713.0684, 33.65381
713.5505, 35.26697
714.0327, 34.37537
714.5148, 30.58740
714.9969, 4.106567
715.4790, 28.32532
715.9611, 42.05505
716.4432, 45.85657
716.9254, 9.998169
717.4075, 25.35095
717.8896, 20.17871
718.3717, 14.16492
718.8538, 36.72327
719.3359, 6.628784
719.8181, 28.73120
720.3002, 29.99658
720.7823, 40.79846
721.2644, 30.94873
721.7465, 27.47937
722.2286, 44.70081
722.7108, 50.70520
723.1929, 38.69873
723.6750, 50.13794
724.1571, 19.32361
724.6392, 25.56165
725.1213, 47.75867
725.6035, 2.314331
726.0856, 26.60303
726.5677, 40.41846
727.0498, 44.28113
727.5319, 8.322388
728.0140, 23.65649
728.4962, 18.55652
728.9783, 12.64612
729.4604, 35.30664
729.9425, 5.314331
730.4246, 27.51965
730.9067, 28.88818
731.3889, 39.79102
731.8710, 30.04382
732.3531, 26.67395
732.8352, 43.95911
733.3173, 49.81946
733.7994, 37.69922
734.2816, 49.20386
734.7637, 18.48157
735.2458, 24.81250
735.7279, 47.12390
736.2100, 35.79053
736.6921, 46.56323
737.1743, 48.56323
737.6564, 11.85645
738.1385, 44.38062
738.6206, 48.47046
739.1027, 65.43152
739.5848, 59.36829
740.0670, 43.53931
740.5491, 30.47156
741.0312, 22.08521
741.5133, 18.66992
741.9954, 20.44641
742.4775, 25.97461
742.9597, 34.39893
743.4418, 46.40637
743.9239, 53.33301
744.4060, 53.96399
744.8881, 53.20520
745.3702, 52.85791
745.8524, 52.09387
746.3345, 49.03406
746.8166, 42.99255
747.2987, 41.62976
747.7808, 55.52954
748.2629, 60.06433
748.7451, 39.49109
749.2272, 14.79346
749.7093, 4.762085
750.1914, 8.926636
750.6735, 16.41663
751.1556, 23.59229
751.6378, 29.58533
752.1199, 34.58142
752.6020, 37.37354
753.0841, 33.88403
753.5662, 25.59326
754.0483, 18.64636
754.5305, 16.90369
755.0126, 18.24927
755.4947, 18.96021
755.9768, 19.10046
756.4589, 18.29285
756.9410, 17.52295
757.4232, 12.78284
757.9053, 2.703247
758.3874, 19.34753
758.8695, 21.94250
759.3516, 9.730347
759.8337, 4.728394
760.3159, 31.73364
760.7980, 47.34973
761.2801, 29.58093
761.7622, 4.390503
762.2443, 2.565308
762.7264, 23.31177
763.2086, 40.93054
763.6907, 39.86060
764.1728, 31.14697
764.6549, 25.08447
765.1370, 21.76135
765.6191, 21.87634
766.1013, 25.28479
766.5834, 30.56238
767.0655, 37.32043
767.5476, 43.19641
768.0297, 42.52417
768.5118, 32.79309
768.9940, 25.54382
769.4761, 22.02087
769.9582, 18.62000
770.4403, 11.16675
770.9224, 4.837036
771.4045, 8.908447
771.8867, 24.48279
772.3688, 35.03784
772.8509, 34.89294
773.3330, 34.23022
773.8151, 38.94409
774.2972, 43.05518
774.7794, 37.94373
775.2615, 25.09412
775.7436, 14.88489
776.2257, 13.48206
776.7078, 15.99207
777.1899, 18.43298
777.6721, 20.23596
778.1542, 19.80237
778.6363, 17.03369
779.1184, 11.91467
779.6005, 4.070313
780.0826, 2.761963
780.5648, 1.946777
781.0469, 6.865967
781.5290, 21.40112
782.0111, 47.41760
782.4932, 62.14856
782.9753, 50.28479
783.4575, 28.97693
783.9396, 19.39990
784.4217, 21.59009
784.9038, 27.83350
785.3859, 42.96533
785.8680, 55.45532
786.3502, 65.37048
786.8323, 68.79749
787.3144, 56.94873
787.7965, 35.43604
788.2786, 23.20935
788.7607, 31.02673
789.2429, 40.35010
789.7250, 32.65051
790.2071, 17.77283
790.6892, 10.77515
791.1713, 11.89038
791.6534, 16.03577
792.1356, 21.04065
792.6177, 26.72131
793.0998, 34.26868
793.5819, 42.77844
794.0640, 41.71423
794.5461, 29.24292
795.0283, 18.28967
795.5104, 11.53015
795.9925, 9.762451
796.4746, 15.24561
796.9567, 27.02966
797.4388, 35.20715
797.9210, 42.38367
798.4031, 42.13135
798.8852, 25.09692
799.3673, 9.545776
799.8494, 7.668579
800.3315, 14.35815
800.8137, 18.87646
801.2958, 18.37659
801.7779, 18.47180
802.2600, 25.14233
802.7421, 30.90161
803.2242, 27.63403
803.7064, 18.74976
804.1885, 9.299438
804.6706, 1.581055
805.1527, 0.2803960
805.6348, 8.968628
806.1169, 23.96045
806.5991, 35.27820
807.0812, 42.35535
807.5633, 38.11194
808.0454, 20.58252
808.5275, 5.322144
809.0096, 2.444336
809.4918, 8.999023
809.9739, 18.82776
810.4560, 35.50317
810.9381, 41.65942
811.4202, 28.33533
811.9023, 19.57434
812.3845, 26.36829
812.8666, 40.12012
813.3487, 53.71411
813.8308, 66.88403
814.3129, 68.68604
814.7950, 46.69312
815.2772, 26.83826
815.7593, 18.33679
816.2414, 14.28943
816.7235, 10.76599
817.2056, 8.203125
817.6877, 6.465942
818.1699, 3.912842
818.6520, 6.576050
819.1341, 26.58911
819.6162, 51.20105
820.0983, 60.13269
820.5804, 55.28369
821.0626, 46.71167
821.5447, 38.21912
822.0268, 30.78564
822.5089, 25.48047
822.9910, 22.04370
823.4731, 20.23291
823.9553, 20.28931
824.4374, 15.20520
824.9195, 1.006714
825.4016, 7.887329
825.8837, 2.146362
826.3658, 23.72888
826.8480, 31.34778
827.3301, 16.80200
827.8122, 7.231201
828.2943, 5.971069
828.7764, 5.630615
829.2585, 3.513550
829.7407, 0.9708250
830.2228, 1.910645
830.7049, 4.978149
831.1870, 1.337402
831.6691, 22.28723
832.1512, 38.72534
832.6334, 26.92249
833.1155, 9.079956
833.5976, 10.39563
834.0797, 27.12366
834.5618, 39.08496
835.0439, 37.22461
835.5261, 28.94055
836.0082, 17.84290
836.4903, 6.497559
836.9724, 0.9007570
837.4545, 4.452881
837.9366, 7.254883
838.4188, 9.551880
838.9009, 8.377075
839.3830, 0.2926030
839.8651, 13.58618
840.3472, 20.15588
840.8293, 19.82812
841.3115, 22.63367
841.7936, 31.28174
842.2757, 38.40405
842.7578, 38.55066
843.2399, 34.37463
843.7220, 32.79187
844.2042, 35.51575
844.6863, 35.01379
845.1684, 28.99597
845.6505, 23.21362
846.1326, 18.98547
846.6147, 16.28577
847.0969, 14.52820
847.5790, 14.03857
848.0611, 17.64648
848.5432, 33.20569
849.0253, 43.82385
849.5074, 41.79248
849.9896, 36.08582
850.4717, 33.53381
850.9538, 33.26355
851.4359, 31.76379
851.9180, 27.96521
852.4001, 22.54065
852.8823, 13.29395
853.3644, 4.773560
853.8465, 0.4118650
854.3286, 0.4052730
854.8107, 13.10754
855.2928, 38.15161
855.7750, 54.35718
856.2571, 45.12866
856.7392, 23.43225
857.2213, 9.944702
857.7034, 3.841064
858.1855, 1.934570
858.6677, 3.885986
859.1498, 11.01953
859.6319, 24.75940
860.1140, 38.21936
860.5961, 40.66663
861.0782, 32.63367
861.5604, 31.04016
862.0425, 38.19226
862.5246, 37.54822
863.0067, 20.72009
863.4888, 4.577881
863.9709, 3.612061
864.4531, 13.14429
864.9352, 15.92578
865.4173, 4.409790
865.8994, 1.985718
866.3815, 16.66626
866.8636, 30.42004
867.3458, 40.85364
867.8279, 44.71350
868.3100, 32.48352
868.7921, 6.053711
869.2742, 6.021851
869.7563, 18.95911
870.2385, 39.55713
870.7206, 35.77148
871.2027, 24.33191
871.6848, 18.99280
872.1669, 18.80994
872.6490, 17.26135
873.1312, 12.01599
873.6133, 9.421021
874.0954, 18.88159
874.5775, 29.39465
875.0596, 24.01062
875.5417, 11.39099
876.0239, 12.63806
876.5060, 29.30835
876.9881, 43.51990
877.4702, 42.82214
877.9523, 34.80042
878.4344, 30.46118
878.9166, 29.23535
879.3987, 30.68164
879.8808, 34.11523
880.3629, 31.46814
880.8450, 19.09143
881.3271, 5.893921
881.8093, 2.445679
882.2914, 7.593384
882.7735, 15.30444
883.2556, 26.06909
883.7377, 32.39771
884.2198, 31.71863
884.7020, 28.14587
885.1841, 23.71753
885.6662, 18.76501
886.1483, 13.36157
886.6304, 5.775269
887.1125, 6.114380
887.5947, 21.64441
888.0768, 33.22913
888.5589, 33.69189
889.0410, 30.46765
889.5231, 28.64685
890.0052, 28.02551
890.4874, 28.29944
890.9695, 30.93164
891.4516, 31.76758
891.9337, 27.39490
892.4158, 24.17944
892.8979, 29.69934
893.3801, 36.15918
893.8622, 29.35669
894.3443, 9.111450
894.8264, 2.817139
895.3085, 10.17493
895.7906, 23.84167
896.2728, 23.49646
896.7549, 18.93921
897.2370, 20.24744
897.7191, 26.25757
898.2012, 31.66736
898.6833, 34.55774
899.1655, 39.84656
899.6476, 61.39990
900.1297, 79.57385
900.6118, 60.67932
901.0939, 22.32446
901.5760, 2.909302
902.0582, 7.735840
902.5403, 18.84851
903.0224, 24.76367
903.5045, 25.28857
903.9866, 14.36389
904.4688, 2.619263
904.9509, 6.126831
905.4330, 2.549683
905.9151, 6.827271
906.3972, 1.344604
906.8793, 5.208862
907.3615, 3.602905
907.8436, 4.213623
908.3257, 10.94934
908.8078, 18.32324
909.2899, 18.37598
909.7720, 8.857910
910.2542, 3.244263
910.7363, 8.900635
911.2184, 19.15833
911.7005, 24.62952
912.1826, 25.40698
912.6647, 25.72937
913.1469, 26.36804
913.6290, 22.91821
914.1111, 10.03760
914.5932, 1.919556
915.0753, 10.97961
915.5574, 29.27991
916.0396, 38.57751
916.5217, 36.58789
917.0038, 34.28455
917.4859, 34.36169
917.9680, 30.23816
918.4501, 10.25708
918.9323, 5.802734
919.4144, 2.442871
919.8965, 28.07751
920.3786, 45.34485
920.8607, 52.53845
921.3428, 51.35107
921.8250, 30.93494
922.3071, 15.93396
922.7892, 21.59241
923.2713, 36.17004
923.7534, 46.72095
924.2355, 52.27075
924.7177, 57.14026
925.1998, 65.26709
925.6819, 68.62048
926.1640, 60.63525
926.6461, 49.65942
927.1282, 37.61292
927.6104, 29.67383
928.0925, 35.58740
928.5746, 55.65344
929.0567, 68.20691
929.5388, 52.85474
930.0209, 35.23804
930.5031, 37.66992
930.9852, 46.71704
931.4673, 44.28040
931.9494, 33.06067
932.4315, 25.63025
932.9136, 26.56433
933.3958, 31.49683
933.8779, 40.13281
934.3600, 47.97620
934.8421, 48.28833
935.3242, 43.63257
935.8063, 38.30432
936.2885, 33.51648
936.7706, 30.40112
937.2527, 29.64746
937.7348, 29.67053
938.2169, 28.76282
938.6990, 27.09668
939.1812, 22.65405
939.6633, 17.61267
940.1454, 23.23010
940.6275, 40.55481
941.1096, 53.51025
941.5917, 49.95227
942.0739, 39.97180
942.5560, 45.93066
943.0381, 62.35901
943.5202, 54.32385
944.0023, 23.33936
944.4844, 11.27295
944.9666, 31.50061
945.4487, 55.23083
945.9308, 56.44104
946.4129, 42.23633
946.8950, 30.97607
947.3771, 22.53577
947.8593, 18.90210
948.3414, 20.69092
948.8235, 21.34094
949.3056, 18.16553
949.7877, 13.49573
950.2698, 9.317139
950.7520, 6.345093
951.2341, 9.176147
951.7162, 18.94092
952.1983, 27.42920
952.6804, 34.03943
953.1625, 37.53662
953.6447, 35.59534
954.1268, 32.97351
954.6089, 37.42944
955.0910, 48.21313
955.5731, 47.58826
956.0552, 29.55481
956.5374, 19.01575
957.0195, 21.73022
957.5016, 26.76819
957.9837, 30.60876
958.4658, 30.48254
958.9479, 19.17810
959.4301, 5.457153
959.9122, 11.91370
960.3943, 11.85352
960.8764, 29.52527
961.3585, 32.58264
961.8406, 32.94043
962.3228, 39.48364
962.8049, 46.99707
963.2870, 45.68665
963.7691, 33.91455
964.2512, 19.47815
964.7333, 12.35669
965.2155, 25.75110
965.6976, 4.563232
966.1797, 36.38159
966.6618, 39.65137
967.1439, 25.47473
967.6260, 18.45093
968.1082, 19.52917
968.5903, 26.96533
969.0724, 51.02466
969.5545, 66.04761
970.0366, 61.19531
970.5187, 49.43530
971.0009, 33.98901
971.4830, 19.90210
971.9651, 21.62903
972.4472, 47.81042
972.9293, 63.38904
973.4114, 58.65320
973.8936, 48.90173
974.3757, 31.68799
974.8578, 18.26086
975.3399, 22.83716
975.8220, 39.26978
976.3041, 47.80957
976.7863, 44.09155
977.2684, 35.54272
977.7505, 11.83838
978.2326, 3.005127
978.7147, 10.11853
979.1968, 30.53259
979.6790, 37.69812
980.1611, 33.59229
980.6432, 31.74084
981.1253, 36.94299
981.6074, 38.42285
982.0895, 29.01245
982.5717, 19.75745
983.0538, 16.21216
983.5359, 15.78638
984.0180, 15.90198
984.5001, 16.21924
984.9822, 17.12122
985.4644, 19.37061
985.9465, 20.20020
986.4286, 16.34314
986.9107, 13.34607
987.3928, 15.04321
987.8749, 18.99402
988.3571, 24.32263
988.8392, 29.21655
989.3213, 27.30127
989.8034, 12.63147
990.2855, 3.007568
990.7676, 10.22107
991.2498, 19.94910
991.7319, 24.23975
992.2140, 24.88611
992.6961, 22.66284
993.1782, 19.36646
993.6603, 21.00549
994.1425, 31.94519
994.6246, 41.52136
995.1067, 43.86646
995.5888, 42.61072
996.0709, 37.01453
996.5530, 31.02991
997.0352, 29.69702
997.5173, 32.73694
997.9994, 36.16431
998.4815, 38.81445
998.9636, 41.11414
999.4457, 42.53442
999.9279, 44.46826
1000.410, 51.80981
1000.892, 57.70007
1001.374, 50.20801
1001.856, 32.18030
1002.338, 20.66931
1002.821, 24.22021
1003.303, 26.34656
1003.785, 12.07983
1004.267, 1.524414
1004.749, 12.37158
1005.231, 32.66223
1005.713, 49.52661
1006.195, 60.45850
1006.677, 64.78796
1007.160, 60.27917
1007.642, 55.76392
1008.124, 57.20337
1008.606, 57.95288
1009.088, 48.03906
1009.570, 38.38245
1010.052, 49.99438
1010.534, 75.28027
1011.017, 78.99377
1011.499, 43.22095
1011.981, 11.91382
1012.463, 4.954468
1012.945, 6.840820
1013.427, 11.68750
1013.909, 17.67908
1014.391, 26.29541
1014.873, 34.90247
1015.356, 32.88220
1015.838, 13.74255
1016.320, 1.589722
1016.802, 9.723755
1017.284, 22.00879
1017.766, 35.90881
1018.248, 46.40540
1018.730, 42.23669
1019.213, 28.84290
1019.695, 24.45593
1020.177, 36.15063
1020.659, 42.09314
1021.141, 25.91626
1021.623, 13.92639
1022.105, 24.35852
1022.587, 38.41077
1023.069, 38.00659
1023.552, 30.07153
1024.034, 29.17822
1024.516, 40.95422
1024.998, 41.93530
1025.480, 12.55737
1025.962, 10.95447
1026.444, 18.60938
1026.926, 11.84717
1027.409, 22.65576
1027.891, 66.09302
1028.373, 75.11694
1028.855, 38.35706
1029.337, 18.18335
1029.819, 42.50134
1030.301, 61.65674
1030.783, 59.49512
1031.266, 50.85352
1031.748, 44.00891
1032.230, 38.62732
1032.712, 32.64185
1033.194, 25.61414
1033.676, 22.34595
1034.158, 29.86035
1034.640, 31.60986
1035.122, 18.01367
1035.604, 5.498535
1036.087, 0.8406980
1036.569, 1.727539
1037.051, 22.77881
1037.533, 63.40125
1038.015, 77.77051
1038.497, 38.77319
1038.979, 17.07410
1039.461, 29.27087
1039.944, 43.01794
1040.426, 45.08496
1040.908, 40.73901
1041.390, 34.20618
1041.872, 26.20251
1042.354, 25.01086
1042.836, 34.91858
1043.318, 42.20947
1043.800, 45.07458
1044.283, 48.02234
1044.765, 55.31934
1045.247, 60.48840
1045.729, 55.63062
1046.211, 43.37671
1046.693, 36.31018
1047.175, 36.93591
1047.657, 32.97083
1048.140, 19.92358
1048.622, 16.33435
1049.104, 31.91455
1049.586, 47.96167
1050.068, 49.02002
1050.550, 38.36243
1051.032, 22.56177
1051.514, 0.2045900
1051.996, 8.451050
1052.479, 0.3848880
1052.961, 10.16162
1053.443, 20.67664
1053.925, 29.58850
1054.407, 36.50256
1054.889, 39.09668
1055.371, 30.76001
1055.853, 13.25049
1056.335, 8.983154
1056.818, 17.86584
1057.300, 24.60779
1057.782, 26.62683
1058.264, 22.41394
1058.746, 10.24426
1059.228, 3.081665
1059.710, 23.29822
1060.192, 57.97400
1060.675, 59.37378
1061.157, 34.03979
1061.639, 14.94641
1062.121, 6.482422
1062.603, 12.32471
1063.085, 33.01648
1063.567, 50.54810
1064.049, 46.59998
1064.531, 30.47925
1065.014, 15.38953
1065.496, 2.886841
1065.978, 2.692627
1066.460, 1.961792
1066.942, 2.478394
1067.424, 9.536987
1067.906, 18.64526
1068.388, 30.89050
1068.870, 39.27783
1069.353, 30.34851
1069.835, 16.87415
1070.317, 21.03394
1070.799, 32.88293
1071.281, 27.17236
1071.763, 5.567749
1072.245, 4.956787
1072.727, 9.525879
1073.210, 23.50366
1073.692, 12.78564
1074.174, 0.1390380
1074.656, 7.366089
1075.138, 21.09277
1075.620, 22.08240
1076.102, 13.43616
1076.584, 9.412354
1077.067, 13.96350
1077.549, 16.50195
1078.031, 7.574585
1078.513, 2.074341
1078.995, 8.412476
1079.477, 19.10559
1079.959, 33.19714
1080.441, 45.24023
1080.923, 45.05212
1081.406, 32.28870
1081.888, 24.21765
1082.370, 26.20898
1082.852, 29.87646
1083.334, 37.19336
1083.816, 41.37451
1084.298, 35.58667
1084.780, 29.78943
1085.262, 38.27332
1085.745, 55.51111
1086.227, 56.24634
1086.709, 28.70386
1087.191, 16.87280
1087.673, 31.74951
1088.155, 39.09802
1088.637, 23.10083
1089.119, 11.22986
1089.602, 27.86938
1090.084, 57.20996
1090.566, 64.40271
1091.048, 48.69507
1091.530, 32.52563
1092.012, 14.54883
1092.494, 4.920044
1092.976, 6.453369
1093.458, 7.587036
1093.941, 1.479980
1094.423, 1.951660
1094.905, 12.34583
1095.387, 36.34485
1095.869, 36.21997
1096.351, 16.26379
1096.833, 12.65283
1097.315, 26.17676
1097.797, 32.64221
1098.280, 24.69397
1098.762, 16.28870
1099.244, 19.28064
1099.726, 24.49951
1100.208, 14.29529
1100.690, 1.987671
1101.172, 5.698975
1101.654, 1.073608
1102.137, 14.90039
1102.619, 31.74829
1103.101, 40.67627
1103.583, 36.31750
1104.065, 26.27405
1104.547, 10.64441
1105.029, 1.337158
1105.511, 2.390991
1105.994, 12.09924
1106.476, 16.11487
1106.958, 15.96289
1107.440, 19.23450
1107.922, 27.00122
1108.404, 28.47400
1108.886, 6.233032
1109.368, 3.363770
1109.850, 31.74304
1110.333, 62.78625
1110.815, 51.43555
1111.297, 23.40466
1111.779, 7.619995
1112.261, 5.357422
1112.743, 12.74280
1113.225, 40.20898
1113.707, 50.24756
1114.189, 24.02026
1114.672, 8.973022
1115.154, 21.95984
1115.636, 40.29272
1116.118, 51.49377
1116.600, 55.34192
1117.082, 50.55908
1117.564, 37.08252
1118.046, 23.26685
1118.529, 7.837280
1119.011, 0.7231450
1119.493, 1.277710
1119.975, 5.208984
1120.457, 19.29663
1120.939, 34.22241
1121.421, 43.77222
1121.903, 47.10010
1122.385, 38.41199
1122.868, 21.06702
1123.350, 10.98914
1123.832, 8.918579
1124.314, 18.90515
1124.796, 39.93958
1125.278, 54.96338
1125.760, 52.46399
1126.242, 44.12769
1126.724, 46.45935
1127.207, 51.20850
1127.689, 42.68579
1128.171, 29.97705
1128.653, 30.00269
1129.135, 38.65344
1129.617, 40.36157
1130.099, 31.44189
1130.581, 23.41528
1131.064, 22.60535
1131.546, 21.54248
1132.028, 11.39331
1132.510, 5.065308
1132.992, 16.53186
1133.474, 33.06262
1133.956, 39.56860
1134.438, 36.86194
1134.921, 33.21057
1135.403, 28.84058
1135.885, 26.15857
1136.367, 29.66406
1136.849, 28.23669
1137.331, 16.05640
1137.813, 4.197388
1138.295, 1.748413
1138.777, 2.928833
1139.260, 0.3914790
1139.742, 5.382690
1140.224, 10.54480
1140.706, 15.71509
1141.188, 13.83057
1141.670, 3.338135
1142.152, 0.8950200
1142.634, 6.219604
1143.116, 15.13611
1143.599, 18.74695
1144.081, 18.25293
1144.563, 12.85803
1145.045, 6.024292
1145.527, 10.39746
1146.009, 22.19397
1146.491, 31.64661
1146.973, 36.13647
1147.456, 30.76147
1147.938, 14.59680
1148.420, 1.019409
1148.902, 0.8071290
1149.384, 5.189087
1149.866, 22.09814
1150.348, 38.95874
1150.830, 45.73853
1151.313, 44.43848
1151.795, 36.65601
1152.277, 24.72839
1152.759, 14.50464
1153.241, 5.244141
1153.723, 6.131836
1154.205, 28.33386
1154.687, 48.33813
1155.169, 64.24426
1155.651, 69.89294
1156.134, 56.91882
1156.616, 35.58032
1157.098, 18.66968
1157.580, 6.733521
1158.062, 7.723267
1158.544, 25.59790
1159.026, 38.62317
1159.508, 46.88708
1159.991, 44.47229
1160.473, 28.25647
1160.955, 11.81604
1161.437, 4.338379
1161.919, 5.440063
1162.401, 20.08423
1162.883, 40.50378
1163.365, 36.43713
1163.848, 16.49902
1164.330, 9.179565
1164.812, 14.61841
1165.294, 16.25562
1165.776, 9.937378
1166.258, 11.38428
1166.740, 36.77063
1167.222, 58.39014
1167.704, 44.87854
1168.187, 26.88513
1168.669, 38.83264
1169.151, 57.71936
1169.633, 47.83130
1170.115, 19.07190
1170.597, 7.467163
1171.079, 22.18201
1171.561, 34.98987
1172.043, 37.82947
1172.526, 43.81714
1173.008, 64.30554
1173.490, 74.38489
1173.972, 57.15442
1174.454, 33.53613
1174.936, 24.97400
1175.418, 27.94788
1175.900, 31.76831
1176.383, 36.94897
1176.865, 33.13660
1177.347, 19.97913
1177.829, 17.65063
1178.311, 29.57214
1178.793, 40.00671
1179.275, 41.30676
1179.757, 35.64807
1180.240, 23.02026
1180.722, 9.202148
1181.204, 6.546875
1181.686, 7.381592
1182.168, 6.708130
1182.650, 25.68982
1183.132, 26.70593
1183.614, 9.042725
1184.096, 14.76379
1184.578, 42.27576
1185.061, 59.12451
1185.543, 50.32544
1186.025, 41.66296
1186.507, 49.59753
1186.989, 54.54272
1187.471, 31.69897
1187.953, 4.844360
1188.435, 15.57007
1188.918, 54.64404
1189.400, 62.48157
1189.882, 24.95215
1190.364, 7.287354
1190.846, 13.51416
1191.328, 21.13599
1191.810, 26.18762
1192.292, 29.66772
1192.775, 32.23303
1193.257, 32.72351
1193.739, 28.01550
1194.221, 21.43579
1194.703, 22.60303
1195.185, 28.02307
1195.667, 27.66736
1196.149, 23.05017
1196.631, 20.79382
1197.114, 22.15479
1197.596, 26.82764
1198.078, 35.08142
1198.560, 42.38757
1199.042, 45.64880
1199.524, 47.71814
1200.006, 50.47217
1200.488, 52.46436
1200.970, 52.71484
1201.453, 51.43640
1201.935, 48.78284
1202.417, 44.82532
1202.899, 40.15234
1203.381, 33.60925
1203.863, 29.78577
1204.345, 27.37622
1204.827, 34.05725
1205.310, 55.00256
1205.792, 67.68591
1206.274, 58.92773
1206.756, 43.52173
1207.238, 38.35254
1207.720, 40.78882
1208.202, 47.19409
1208.684, 54.51270
1209.167, 52.16638
1209.649, 43.08533
1210.131, 35.61975
1210.613, 31.93872
1211.095, 33.16748
1211.577, 39.82935
1212.059, 47.06580
1212.541, 56.87927
1213.023, 55.40417
1213.505, 32.31018
1213.988, 15.28760
1214.470, 18.05237
1214.952, 28.79651
1215.434, 34.39954
1215.916, 34.25964
1216.398, 27.91284
1216.880, 12.28223
1217.362, 8.788086
1217.845, 18.91650
1218.327, 38.52161
1218.809, 71.09326
1219.291, 79.95325
1219.773, 47.74683
1220.255, 16.95093
1220.737, 27.92761
1221.219, 56.46326
1221.702, 61.63306
1222.184, 52.13464
1222.666, 39.08459
1223.148, 28.88477
1223.630, 39.40491
1224.112, 62.82898
1224.594, 72.31958
1225.076, 61.82312
1225.558, 50.34656
1226.041, 48.52283
1226.523, 41.91187
1227.005, 11.02258
1227.487, 6.657715
1227.969, 17.38794
1228.451, 48.80481
1228.933, 66.26111
1229.415, 69.64697
1229.897, 55.06482
1230.380, 25.56042
1230.862, 20.01184
1231.344, 39.66418
1231.826, 48.39880
1232.308, 44.49146
1232.790, 41.95605
1233.272, 43.81580
1233.754, 38.65552
1234.237, 19.51550
1234.719, 4.162476
1235.201, 14.94397
1235.683, 31.28857
1236.165, 47.99878
1236.647, 55.67761
1237.129, 36.52063
1237.611, 9.535522
1238.094, 8.778442
1238.576, 29.66589
1239.058, 35.56189
1239.540, 16.37939
1240.022, 8.534302
1240.504, 24.03992
1240.986, 27.93115
1241.468, 8.510864
1241.950, 0.2315670
1242.432, 19.43188
1242.915, 0.0000000E+00
##END=



