##NAMES=Imiterite
##RRUFFID=R080014
##IDEAL CHEMISTRY=Ag_2_HgS_2_
##LOCALITY=Imiter, Morocco
##OWNER=RRUFF
##SOURCE=Michael Scott
##DESCRIPTION=Black, metallic, prismatic crystals with striation, associated with calcite and dolomite
##STATUS=The identification of this mineral has been confirmed by single-crystal X-ray diffraction.
##URL=rruff.info/R080014
143.0643, 0.0000000E+00
143.5464, 8.0146000E-02
144.0285, 0.1516370
144.5106, 4.3889001E-02
144.9927, 5.7359999E-03
145.4748, 4.3281998E-02
145.9570, 0.1570940
146.4391, 0.2346530
146.9212, 0.2577490
147.4033, 0.2668420
147.8854, 0.2792500
148.3675, 0.2861540
148.8497, 0.3152150
149.3318, 0.4014840
149.8139, 0.5217320
150.2960, 0.5548720
150.7781, 0.3795790
151.2602, 0.2058900
151.7424, 0.1484190
152.2245, 0.3559100
152.7066, 0.5080200
153.1887, 0.5963360
153.6708, 0.5678830
154.1529, 0.5378200
154.6351, 0.5286940
155.1172, 0.5127260
155.5993, 0.4715510
156.0814, 0.3643830
156.5635, 0.2712290
157.0456, 0.1948030
157.5278, 0.1382990
158.0099, 0.1361550
158.4920, 0.2591710
158.9741, 0.4116200
159.4562, 0.5091810
159.9383, 0.4771060
160.4205, 0.4380460
160.9026, 0.4592290
161.3847, 0.5510140
161.8668, 0.5685620
162.3489, 0.3649010
162.8310, 8.9801997E-02
163.3132, 7.0951000E-02
163.7953, 2.6304999E-02
164.2774, 0.1804700
164.7595, 0.2938300
165.2416, 0.3562160
165.7237, 0.3957460
166.2059, 0.4197520
166.6880, 0.4313550
167.1701, 0.4353000
167.6522, 0.4310300
168.1343, 0.4214360
168.6164, 0.3958590
169.0986, 0.3416690
169.5807, 0.3304630
170.0628, 0.4571810
170.5449, 0.6540590
171.0270, 0.7914570
171.5091, 0.7719110
171.9913, 0.6143140
172.4734, 0.4860150
172.9555, 0.3983380
173.4376, 0.3688470
173.9197, 0.4009130
174.4018, 0.4897010
174.8840, 0.5971880
175.3661, 0.7836130
175.8482, 0.9485560
176.3303, 0.9367770
176.8124, 0.6558550
177.2945, 0.3222240
177.7767, 0.1796500
178.2588, 0.1965560
178.7409, 0.2487290
179.2230, 0.2874730
179.7051, 0.3030740
180.1872, 0.2709520
180.6694, 0.1681820
181.1515, 5.0592002E-02
181.6336, 1.9980001E-03
182.1157, 4.3100002E-03
182.5978, 2.6671000E-02
183.0799, 1.5436000E-02
183.5621, 4.1479999E-03
184.0442, 5.0221000E-02
184.5263, 0.2327380
185.0084, 0.4447860
185.4905, 0.5002820
185.9726, 0.4041820
186.4547, 0.2930430
186.9369, 0.2617970
187.4190, 0.3015440
187.9011, 0.3888020
188.3832, 0.5557080
188.8653, 0.7340980
189.3474, 0.7533020
189.8296, 0.6091560
190.3117, 0.4302070
190.7938, 0.3006380
191.2759, 0.2214880
191.7580, 0.2067150
192.2401, 0.2760620
192.7223, 0.4027190
193.2044, 0.5402700
193.6865, 0.7014230
194.1686, 0.7845510
194.6507, 0.6171680
195.1328, 0.2160340
195.6150, 3.3943001E-02
196.0971, 9.9179996E-03
196.5792, 0.2618610
197.0613, 0.3941320
197.5434, 0.3991130
198.0255, 0.3213700
198.5077, 0.1532460
198.9898, 0.1140890
199.4719, 0.2664550
199.9540, 0.2231990
200.4361, 2.2537000E-02
200.9182, 0.1509680
201.4004, 0.3047330
201.8825, 0.3946560
202.3646, 0.3191000
202.8467, 4.2580001E-02
203.3288, 8.8375002E-02
203.8109, 7.2195001E-02
204.2931, 0.4731120
204.7752, 0.6590250
205.2573, 0.5808250
205.7394, 0.4061260
206.2215, 0.3006980
206.7036, 0.2746470
207.1858, 0.2722690
207.6679, 0.2986260
208.1500, 0.3476780
208.6321, 0.3012910
209.1142, 0.1048670
209.5963, 8.4911004E-02
210.0785, 6.9544002E-02
210.5606, 0.2180250
211.0427, 0.4588990
211.5248, 0.5719930
212.0069, 0.5601560
212.4890, 0.5478510
212.9712, 0.5485940
213.4533, 0.5280030
213.9354, 0.4118190
214.4175, 0.1176070
214.8996, 1.3978000E-02
215.3817, 0.1744330
215.8639, 0.6826420
216.3460, 0.9043750
216.8281, 0.7205940
217.3102, 0.4080300
217.7923, 0.2792080
218.2744, 0.3932150
218.7566, 0.5412550
219.2387, 0.7041920
219.7208, 0.8875200
220.2029, 0.9165250
220.6850, 0.7135630
221.1671, 0.4427290
221.6493, 0.3046870
222.1314, 0.3316350
222.6135, 0.4035480
223.0956, 0.5200270
223.5777, 0.6887000
224.0598, 0.7384200
224.5420, 0.6049420
225.0241, 0.4242280
225.5062, 0.3497250
225.9883, 0.4500640
226.4704, 0.5094150
226.9525, 0.4528540
227.4347, 0.2703800
227.9168, 0.2143170
228.3989, 0.3619780
228.8810, 0.5534250
229.3631, 0.6113320
229.8452, 0.4568710
230.3274, 0.3270020
230.8095, 0.2749780
231.2916, 0.3037650
231.7737, 0.3245280
232.2558, 0.3265560
232.7379, 0.3316200
233.2201, 0.3673750
233.7022, 0.4659560
234.1843, 0.5306340
234.6664, 0.5280390
235.1485, 0.4568910
235.6306, 0.4233190
236.1128, 0.4393250
236.5949, 0.4803130
237.0770, 0.5322620
237.5591, 0.6337000
238.0412, 0.6677080
238.5233, 0.5799520
239.0055, 0.3700170
239.4876, 0.2555300
239.9697, 0.2669030
240.4518, 0.3443630
240.9339, 0.4428530
241.4160, 0.5931300
241.8982, 0.7033820
242.3803, 0.7451170
242.8624, 0.7203970
243.3445, 0.7070060
243.8266, 0.7173180
244.3087, 0.7248930
244.7909, 0.7027240
245.2730, 0.6201140
245.7551, 0.5713580
246.2372, 0.5874510
246.7193, 0.6606550
247.2014, 0.6857580
247.6836, 0.6569880
248.1657, 0.5865230
248.6478, 0.4686240
249.1299, 0.2374550
249.6120, 0.1061120
250.0941, 0.1453800
250.5762, 0.3249760
251.0584, 0.3854930
251.5405, 0.2369280
252.0226, 8.9171000E-02
252.5047, 0.1053420
252.9868, 0.3857020
253.4689, 0.5945340
253.9511, 0.6845880
254.4332, 0.6734430
254.9153, 0.6515900
255.3974, 0.6107500
255.8795, 0.5722770
256.3617, 0.5477820
256.8438, 0.5266650
257.3259, 0.5209890
257.8080, 0.5545400
258.2901, 0.6257430
258.7722, 0.6877730
259.2544, 0.7637630
259.7365, 0.7884110
260.2186, 0.6938830
260.7007, 0.3895420
261.1828, 0.2485320
261.6649, 0.3689590
262.1471, 0.6485160
262.6292, 0.7991200
263.1113, 0.7901120
263.5934, 0.7108790
264.0755, 0.5846140
264.5576, 0.3828730
265.0398, 0.2832110
265.5219, 0.2769210
266.0040, 0.3496080
266.4861, 0.4260400
266.9682, 0.5072500
267.4503, 0.5841520
267.9325, 0.6705830
268.4146, 0.7882620
268.8967, 0.8178780
269.3788, 0.7178890
269.8609, 0.5719850
270.3430, 0.5404940
270.8252, 0.6417860
271.3073, 0.7985950
271.7894, 1.038794
272.2715, 1.396365
272.7536, 1.442624
273.2357, 1.067170
273.7179, 0.5418950
274.2000, 0.2692050
274.6821, 0.2816460
275.1642, 0.4195940
275.6463, 0.6807680
276.1284, 1.068114
276.6106, 1.268241
277.0927, 1.244137
277.5748, 1.113253
278.0569, 0.9983130
278.5390, 0.8971540
279.0211, 0.8684500
279.5032, 0.9506110
279.9854, 1.130297
280.4675, 1.192939
280.9496, 1.107294
281.4317, 1.009313
281.9138, 1.083889
282.3959, 1.340773
282.8781, 1.501133
283.3602, 1.454894
283.8423, 1.262074
284.3244, 1.200522
284.8065, 1.289268
285.2886, 1.386569
285.7708, 1.343627
286.2529, 1.169161
286.7350, 1.033674
287.2171, 0.9891150
287.6992, 0.9944420
288.1813, 0.9056190
288.6635, 0.7141390
289.1456, 0.5753730
289.6277, 0.6822600
290.1098, 0.9861300
290.5919, 1.151334
291.0740, 1.107442
291.5562, 0.9285640
292.0383, 0.6996210
292.5204, 0.4252880
293.0025, 0.2463430
293.4846, 0.3427640
293.9667, 0.6223430
294.4489, 0.7433760
294.9310, 0.6317610
295.4131, 0.4377380
295.8952, 0.3934920
296.3773, 0.4758860
296.8594, 0.5344570
297.3416, 0.4361920
297.8237, 0.2577710
298.3058, 0.1847100
298.7879, 0.2405350
299.2700, 0.3451390
299.7521, 0.4129710
300.2343, 0.4529530
300.7164, 0.4900720
301.1985, 0.5571020
301.6806, 0.6224670
302.1627, 0.6136320
302.6448, 0.5220270
303.1270, 0.4485280
303.6091, 0.5373670
304.0912, 0.7112830
304.5733, 0.8138670
305.0554, 0.7292150
305.5375, 0.5682370
306.0197, 0.4312160
306.5018, 0.3199830
306.9839, 0.2586640
307.4660, 0.3251190
307.9481, 0.4459130
308.4302, 0.4944880
308.9124, 0.4064700
309.3945, 0.2729080
309.8766, 0.1297940
310.3587, 1.1158000E-02
310.8408, 8.0620997E-02
311.3229, 2.1682000E-02
311.8051, 0.1904360
312.2872, 0.3214800
312.7693, 0.4018240
313.2514, 0.4227140
313.7335, 0.3001380
314.2156, 0.1000390
314.6978, 1.2980000E-02
315.1799, 0.2838570
315.6620, 0.6106170
316.1441, 0.7513620
316.6262, 0.6020880
317.1083, 0.4318410
317.5905, 0.3637720
318.0726, 0.3520970
318.5547, 0.3160380
319.0368, 0.1388900
319.5189, 1.2619999E-03
320.0010, 4.2853002E-02
320.4832, 0.3351500
320.9653, 0.4928260
321.4474, 0.2201180
321.9295, 0.1825060
322.4116, 0.3635810
322.8937, 1.1353000E-02
323.3759, 0.3454910
323.8580, 0.5656220
324.3401, 0.6371470
324.8222, 0.6443560
325.3043, 0.5448870
325.7864, 0.4157820
326.2686, 0.3147150
326.7507, 0.2737490
327.2328, 0.2330410
327.7149, 0.1532320
328.1970, 4.6445999E-02
328.6791, 3.8619000E-02
329.1613, 0.2629800
329.6434, 0.4872550
330.1255, 0.5940230
330.6076, 0.5353620
331.0897, 0.4406830
331.5718, 0.2562820
332.0540, 3.8942002E-02
332.5361, 4.4335000E-02
333.0182, 9.3548998E-02
333.5003, 0.2508090
333.9824, 0.3572500
334.4645, 0.4255150
334.9467, 0.3940520
335.4288, 0.1916940
335.9109, 5.9604000E-02
336.3930, 0.1437260
336.8751, 9.6899997E-03
337.3572, 0.1643650
337.8394, 0.2506630
338.3215, 0.2650620
338.8036, 0.2794460
339.2857, 0.3002360
339.7678, 0.3097940
340.2499, 0.2686890
340.7321, 0.1578470
341.2142, 0.1206260
341.6963, 0.2193130
342.1784, 0.4136920
342.6605, 0.5103710
343.1426, 0.4981310
343.6248, 0.4369710
344.1069, 0.3444110
344.5890, 0.2253670
345.0711, 0.1881590
345.5532, 0.2779070
346.0353, 0.4169970
346.5175, 0.4180770
346.9996, 0.2835190
347.4817, 0.1693140
347.9638, 0.2134450
348.4459, 0.3619340
348.9280, 0.4070710
349.4102, 0.3201060
349.8923, 0.1871160
350.3744, 0.1074720
350.8565, 7.4130997E-02
351.3386, 5.8639001E-02
351.8207, 5.6508999E-02
352.3029, 6.1324999E-02
352.7850, 5.4320998E-02
353.2671, 3.4839001E-02
353.7492, 3.5080001E-02
354.2313, 0.1098460
354.7134, 0.2197180
355.1956, 0.2949670
355.6777, 0.2861810
356.1598, 0.2570600
356.6419, 0.2746090
357.1240, 0.3293690
357.6061, 0.3704640
358.0883, 0.3420320
358.5704, 0.2965280
359.0525, 0.2956640
359.5346, 0.3907170
360.0167, 0.4547640
360.4988, 0.3681970
360.9810, 0.1947570
361.4631, 7.5240999E-02
361.9452, 8.0358997E-02
362.4273, 0.1461270
362.9094, 0.2728380
363.3915, 0.4967300
363.8737, 0.6066000
364.3558, 0.4056300
364.8379, 9.5043004E-02
365.3200, 8.6310998E-02
365.8021, 8.4119998E-03
366.2842, 0.1381650
366.7664, 0.2420620
367.2485, 0.3180990
367.7306, 0.3867600
368.2127, 0.4762160
368.6948, 0.5403450
369.1769, 0.5564060
369.6591, 0.4635970
370.1412, 0.3909450
370.6233, 0.3684420
371.1054, 0.3742160
371.5875, 0.3195060
372.0696, 0.1362740
372.5518, 2.4311000E-02
373.0339, 0.1052270
373.5160, 0.1052120
373.9981, 1.6673001E-02
374.4802, 0.2188740
374.9623, 0.4974260
375.4445, 0.6435390
375.9266, 0.6215920
376.4087, 0.5746870
376.8908, 0.5432320
377.3729, 0.5179630
377.8550, 0.4386590
378.3372, 0.2832950
378.8193, 0.1491830
379.3014, 0.1521500
379.7835, 0.2893050
380.2656, 0.4075290
380.7477, 0.5319810
381.2299, 0.6120380
381.7120, 0.5242450
382.1941, 0.2651210
382.6762, 3.8444001E-02
383.1583, 8.5310005E-03
383.6404, 0.1309480
384.1226, 0.2519150
384.6047, 0.3705320
385.0868, 0.4347070
385.5689, 0.3181550
386.0510, 7.2798997E-02
386.5331, 0.1091140
387.0153, 9.0801999E-02
387.4974, 2.4279000E-02
387.9795, 8.5621998E-02
388.4616, 9.1301002E-02
388.9437, 9.9252999E-02
389.4258, 0.1918210
389.9080, 0.3058690
390.3901, 0.3390590
390.8722, 0.1788640
391.3543, 3.4554999E-02
391.8364, 0.1090730
392.3185, 0.3432330
392.8007, 0.5205000
393.2828, 0.4727300
393.7649, 0.3678720
394.2470, 0.3263670
394.7291, 0.4033820
395.2112, 0.4881590
395.6934, 0.5484730
396.1755, 0.5933220
396.6576, 0.6362180
397.1397, 0.7111370
397.6218, 0.7553270
398.1039, 0.7473580
398.5861, 0.6844230
399.0682, 0.5915620
399.5503, 0.4040190
400.0324, 0.2274800
400.5145, 0.1426880
400.9966, 0.2499100
401.4788, 0.3063780
401.9609, 0.2660360
402.4430, 0.1602370
402.9251, 0.1073880
403.4072, 0.1038490
403.8893, 0.1600630
404.3714, 0.3116870
404.8535, 0.6215510
405.3357, 0.7575040
405.8178, 0.6727500
406.2999, 0.4749980
406.7820, 0.2937950
407.2641, 0.1186080
407.7462, 2.4003001E-02
408.2284, 5.4891001E-02
408.7105, 0.1846340
409.1926, 0.2988870
409.6747, 0.4027330
410.1568, 0.4543530
410.6389, 0.3589760
411.1211, 0.1585940
411.6032, 9.7732000E-02
412.0853, 0.2512930
412.5674, 0.4691350
413.0495, 0.5011650
413.5316, 0.3793400
414.0138, 0.2664110
414.4959, 0.2770110
414.9780, 0.3426720
415.4601, 0.3470500
415.9422, 0.2793290
416.4243, 0.2264490
416.9065, 0.2775560
417.3886, 0.3849410
417.8707, 0.4771430
418.3528, 0.5326770
418.8349, 0.5625850
419.3170, 0.5747080
419.7992, 0.5678040
420.2813, 0.5368580
420.7634, 0.4740800
421.2455, 0.3945610
421.7276, 0.2824560
422.2097, 7.7344000E-02
422.6919, 2.4808999E-02
423.1740, 9.5593996E-02
423.6561, 0.3352940
424.1382, 0.5156670
424.6203, 0.6144790
425.1024, 0.6409340
425.5846, 0.5554250
426.0667, 0.3478470
426.5488, 0.2374650
427.0309, 0.2922970
427.5130, 0.3834670
427.9951, 0.4191890
428.4773, 0.3608500
428.9594, 0.3346390
429.4415, 0.3689070
429.9236, 0.4313440
430.4057, 0.4268910
430.8878, 0.3279880
431.3700, 0.2435230
431.8521, 0.2490900
432.3342, 0.3414840
432.8163, 0.3105590
433.2984, 0.1266730
433.7805, 7.7266999E-02
434.2627, 0.1467720
434.7448, 9.2146002E-02
435.2269, 1.2369000E-02
435.7090, 8.0527000E-02
436.1911, 0.1715860
436.6732, 0.2329920
437.1554, 0.2656920
437.6375, 0.2740600
438.1196, 0.2290930
438.6017, 0.1705620
439.0838, 0.1753190
439.5659, 0.2633070
440.0481, 0.3528680
440.5302, 0.3925150
441.0123, 0.3841400
441.4944, 0.3332120
441.9765, 0.1512810
442.4586, 1.3760000E-03
442.9408, 1.6857000E-02
443.4229, 0.1779130
443.9050, 0.3117590
444.3871, 0.3421760
444.8692, 0.3200550
445.3513, 0.2688280
445.8335, 0.1320400
446.3156, 5.5760998E-02
446.7977, 0.1259680
447.2798, 0.2639950
447.7619, 0.3306390
448.2440, 0.2178750
448.7262, 0.1401330
449.2083, 0.1529330
449.6904, 0.2609140
450.1725, 0.3670760
450.6546, 0.4896230
451.1367, 0.5863470
451.6189, 0.6254540
452.1010, 0.6022430
452.5831, 0.5288770
453.0652, 0.3840550
453.5473, 0.2100550
454.0294, 8.9290999E-02
454.5116, 2.0219000E-02
454.9937, 1.7633000E-02
455.4758, 0.1277660
455.9579, 0.3207690
456.4400, 0.4232250
456.9221, 0.4302870
457.4043, 0.4003620
457.8864, 0.3899600
458.3685, 0.3889590
458.8506, 0.3619530
459.3327, 0.2826110
459.8148, 0.2036140
460.2970, 0.1956630
460.7791, 0.2427010
461.2612, 0.2919910
461.7433, 0.3101500
462.2254, 0.3202550
462.7076, 0.3478860
463.1897, 0.3902510
463.6718, 0.4399200
464.1539, 0.5777900
464.6360, 0.6990440
465.1181, 0.6897150
465.6003, 0.3075000
466.0824, 2.2319000E-02
466.5645, 3.7149999E-02
467.0466, 0.2653360
467.5287, 0.3725160
468.0108, 0.1640510
468.4930, 2.9185001E-02
468.9751, 8.2194000E-02
469.4572, 4.7428001E-02
469.9393, 0.1633700
470.4214, 0.2824090
470.9035, 0.3711050
471.3857, 0.3762410
471.8678, 0.2528410
472.3499, 0.1960450
472.8320, 0.2707690
473.3141, 0.4215090
473.7962, 0.4348950
474.2784, 0.2906200
474.7605, 0.1560340
475.2426, 0.1484100
475.7247, 0.2440560
476.2068, 0.3065990
476.6889, 0.3332230
477.1711, 0.3165630
477.6532, 0.2016110
478.1353, 3.2774001E-02
478.6174, 6.7160003E-02
479.0995, 4.9725998E-02
479.5816, 4.4213999E-02
480.0638, 0.2376480
480.5459, 0.4858330
481.0280, 0.6332950
481.5101, 0.4995130
481.9922, 0.2809170
482.4743, 0.1175420
482.9565, 2.0385999E-02
483.4386, 7.2050001E-03
483.9207, 0.1617720
484.4028, 0.3722960
484.8849, 0.5216170
485.3670, 0.5588810
485.8492, 0.5607840
486.3313, 0.5229430
486.8134, 0.4548870
487.2955, 0.4036930
487.7776, 0.3775210
488.2597, 0.3600130
488.7419, 0.3455450
489.2240, 0.3342650
489.7061, 0.3270930
490.1882, 0.3270460
490.6703, 0.3266670
491.1524, 0.3167850
491.6346, 0.2909190
492.1167, 0.2582260
492.5988, 0.2235840
493.0809, 0.1960140
493.5630, 0.1985710
494.0451, 0.2289210
494.5273, 0.2589650
495.0094, 0.2291910
495.4915, 0.1752960
495.9736, 0.2407920
496.4557, 0.4397510
496.9378, 0.6023240
497.4200, 0.5410710
497.9021, 0.3534790
498.3842, 0.1862870
498.8663, 6.9931999E-02
499.3484, 2.3040001E-03
499.8305, 1.3000000E-04
500.3127, 4.5708999E-02
500.7948, 9.7930998E-02
501.2769, 0.1190050
501.7590, 0.1618830
502.2411, 0.2731660
502.7232, 0.4752620
503.2054, 0.6097780
503.6875, 0.5785640
504.1696, 0.5201000
504.6517, 0.5426650
505.1338, 0.7365940
505.6159, 0.8411710
506.0981, 0.8263220
506.5802, 0.7197640
507.0623, 0.5636640
507.5444, 0.3190910
508.0265, 0.1460740
508.5086, 0.1205500
508.9908, 0.2236470
509.4729, 0.3155380
509.9550, 0.4003060
510.4371, 0.4418770
510.9192, 0.3525560
511.4013, 0.1821380
511.8835, 0.1414300
512.3655, 0.2914860
512.8477, 0.4808960
513.3298, 0.5387050
513.8119, 0.4986340
514.2940, 0.4406860
514.7761, 0.4057660
515.2582, 0.3635590
515.7404, 0.2613400
516.2225, 0.1138330
516.7046, 2.8634001E-02
517.1867, 0.1178660
517.6688, 0.2407700
518.1509, 0.3118950
518.6331, 0.3214260
519.1152, 0.2728340
519.5973, 7.4364997E-02
520.0794, 0.1469480
520.5615, 0.2298860
521.0436, 0.1057500
521.5258, 5.5160999E-02
522.0079, 0.2733360
522.4900, 0.5122650
522.9721, 0.5670500
523.4542, 0.3769110
523.9363, 0.1791750
524.4185, 9.9045999E-02
524.9006, 0.1358290
525.3827, 0.1784820
525.8648, 0.2278310
526.3469, 0.2778810
526.8290, 0.3298550
527.3112, 0.3885830
527.7933, 0.4343590
528.2754, 0.4618670
528.7575, 0.4739690
529.2396, 0.4611950
529.7217, 0.4331930
530.2039, 0.4183590
530.6860, 0.4580700
531.1681, 0.4959600
531.6502, 0.4869810
532.1323, 0.4296820
532.6144, 0.3677610
533.0966, 0.2977410
533.5787, 0.2419570
534.0608, 0.2157920
534.5429, 0.2325270
535.0250, 0.2621150
535.5071, 0.3096960
535.9893, 0.3656680
536.4714, 0.4090460
536.9535, 0.4329400
537.4356, 0.4831890
537.9177, 0.6027830
538.3998, 0.7589770
538.8820, 0.6837930
539.3641, 0.3099650
539.8462, 1.8243000E-02
540.3283, 0.1376150
540.8104, 0.5927690
541.2925, 0.8540640
541.7747, 0.8899890
542.2568, 0.7875770
542.7389, 0.5287860
543.2210, 0.2089820
543.7031, 6.6880003E-02
544.1852, 0.2711920
544.6674, 0.5274110
545.1495, 0.5576950
545.6316, 0.4267360
546.1137, 0.2960120
546.5958, 0.2015700
547.0779, 0.1580370
547.5601, 0.2005090
548.0422, 0.3345810
548.5243, 0.4231110
549.0064, 0.3911470
549.4885, 0.3414630
549.9706, 0.3461180
550.4528, 0.5157620
550.9349, 0.5202790
551.4170, 0.2346110
551.8991, 0.1088280
552.3812, 0.1236020
552.8633, 0.2966030
553.3455, 0.6076180
553.8276, 0.6567760
554.3097, 0.5192570
554.7918, 0.4224590
555.2739, 0.3679100
555.7560, 0.3320380
556.2382, 0.2952410
556.7203, 0.2683380
557.2024, 0.2808760
557.6845, 0.3348990
558.1666, 0.4011350
558.6487, 0.4746250
559.1309, 0.5383800
559.6130, 0.5732380
560.0951, 0.5893050
560.5772, 0.5478800
561.0593, 0.3511040
561.5414, 9.8898001E-02
562.0236, 4.1880999E-02
562.5057, 8.4150001E-02
562.9878, 0.2124860
563.4699, 0.2773170
563.9520, 0.2814230
564.4341, 0.2560140
564.9163, 0.1653620
565.3984, 9.5279999E-02
565.8805, 8.6236000E-02
566.3626, 0.1431280
566.8447, 0.2599220
567.3268, 0.4744870
567.8090, 0.6487930
568.2911, 0.5509300
568.7732, 0.2227560
569.2553, 6.4301997E-02
569.7374, 0.1999500
570.2195, 0.4484880
570.7017, 0.6068650
571.1838, 0.6753440
571.6659, 0.6533480
572.1480, 0.4230690
572.6301, 0.1887750
573.1122, 0.1425080
573.5944, 0.2675000
574.0765, 0.3981360
574.5586, 0.4901910
575.0407, 0.5435010
575.5228, 0.5569170
576.0049, 0.5248060
576.4871, 0.4657960
576.9692, 0.3153510
577.4513, 0.1801600
577.9334, 0.1681200
578.4155, 0.3865330
578.8976, 0.4904960
579.3798, 0.3920250
579.8619, 0.1832380
580.3440, 0.1214990
580.8261, 0.2204290
581.3082, 0.2907030
581.7903, 0.2093540
582.2725, 5.3394999E-02
582.7546, 9.6859001E-02
583.2367, 0.3219140
583.7188, 0.4942710
584.2009, 0.3536480
584.6830, 9.3143001E-02
585.1652, 3.1606000E-02
585.6473, 2.3626000E-02
586.1294, 0.1356100
586.6115, 0.2793970
587.0936, 0.4215820
587.5757, 0.5251690
588.0579, 0.6054670
588.5400, 0.6172260
589.0221, 0.4960570
589.5042, 0.3043190
589.9863, 0.1862830
590.4684, 0.1698730
590.9506, 0.1868620
591.4327, 0.2415310
591.9148, 0.3224990
592.3969, 0.3125950
592.8790, 0.1905280
593.3611, 6.9159999E-02
593.8433, 2.5124000E-02
594.3254, 4.7054000E-02
594.8075, 6.9363996E-02
595.2896, 8.9022003E-02
595.7717, 0.1155820
596.2538, 0.1651750
596.7360, 0.2148510
597.2181, 0.2769410
597.7002, 0.3781660
598.1823, 0.4339610
598.6644, 0.3502390
599.1465, 0.1883470
599.6287, 5.3055000E-02
600.1108, 6.1505999E-02
600.5929, 0.1019830
601.0750, 1.4725000E-02
601.5571, 0.1826480
602.0392, 0.3382160
602.5214, 0.4678110
603.0035, 0.5332270
603.4856, 0.5071140
603.9677, 0.3823530
604.4498, 0.2473000
604.9319, 8.2015000E-02
605.4141, 3.4975000E-02
605.8962, 2.4868000E-02
606.3783, 0.2238550
606.8604, 0.2724180
607.3425, 9.9321999E-02
607.8246, 8.3397999E-02
608.3068, 3.8917001E-02
608.7889, 0.3404460
609.2710, 0.5471770
609.7531, 0.5110540
610.2352, 0.3981250
610.7173, 0.2795120
611.1995, 0.1648760
611.6816, 9.9380001E-02
612.1637, 8.5607000E-02
612.6458, 0.1338180
613.1279, 0.2988850
613.6100, 0.5853700
614.0922, 0.7240240
614.5743, 0.6469020
615.0564, 0.5133810
615.5385, 0.3908400
616.0206, 0.2639580
616.5027, 0.2634430
616.9849, 0.4343120
617.4670, 0.5960770
617.9491, 0.4666030
618.4312, 0.1175480
618.9133, 5.9464999E-02
619.3954, 5.4049000E-02
619.8776, 0.2525870
620.3597, 0.2959750
620.8418, 0.2402920
621.3239, 0.2155060
621.8060, 0.3518600
622.2881, 0.4652440
622.7703, 0.4086330
623.2524, 0.2279270
623.7345, 0.1214210
624.2166, 0.1774070
624.6987, 0.2596470
625.1808, 0.3282690
625.6630, 0.3830510
626.1451, 0.4285310
626.6272, 0.4849060
627.1093, 0.4995020
627.5914, 0.3982900
628.0735, 0.1710650
628.5557, 0.1150260
629.0378, 0.2555270
629.5199, 0.4255460
630.0020, 0.4370970
630.4841, 0.3343310
630.9662, 0.2519850
631.4484, 0.2196450
631.9305, 0.2288440
632.4126, 0.3198080
632.8947, 0.4423830
633.3768, 0.4972160
633.8589, 0.3216230
634.3411, 0.1911470
634.8232, 0.2652330
635.3053, 0.5052250
635.7874, 0.6710130
636.2695, 0.7485280
636.7516, 0.7304800
637.2338, 0.5776990
637.7159, 0.2786740
638.1980, 9.6653998E-02
638.6801, 4.8847999E-02
639.1622, 7.2136998E-02
639.6443, 0.1558360
640.1265, 0.2846920
640.6086, 0.3135630
641.0907, 0.2173700
641.5728, 0.1100780
642.0549, 9.2109002E-02
642.5370, 0.1401860
643.0192, 0.2026340
643.5013, 0.2737180
643.9834, 0.3464960
644.4655, 0.4161780
644.9476, 0.4855880
645.4297, 0.5622090
645.9119, 0.7437300
646.3940, 0.8266940
646.8761, 0.6756010
647.3582, 0.3705520
647.8403, 0.2283680
648.3224, 0.3286090
648.8046, 0.4308700
649.2867, 0.4332970
649.7688, 0.3523950
650.2509, 0.3655950
650.7330, 0.4840550
651.2151, 0.5789350
651.6973, 0.5462680
652.1794, 0.4194010
652.6615, 0.2376900
653.1436, 3.2720000E-03
653.6257, 0.1471590
654.1078, 2.2334000E-02
654.5900, 0.3125620
655.0721, 0.5188770
655.5542, 0.5808970
656.0363, 0.5800830
656.5184, 0.4574190
657.0005, 0.3170390
657.4827, 0.3004380
657.9648, 0.5050260
658.4469, 0.6694460
658.9290, 0.7776970
659.4111, 0.8271710
659.8932, 0.8177940
660.3754, 0.7468760
660.8575, 0.6336580
661.3396, 0.4527330
661.8217, 0.2547200
662.3038, 0.1899910
662.7859, 0.2398500
663.2681, 0.2739830
663.7502, 0.1589510
664.2323, 2.8202999E-02
664.7144, 3.5110001E-02
665.1965, 0.1819910
665.6786, 0.3088960
666.1608, 0.3601120
666.6429, 0.3751300
667.1250, 0.3812120
667.6071, 0.3841510
668.0892, 0.3658420
668.5714, 0.3097730
669.0535, 0.2504200
669.5356, 0.2151450
670.0177, 0.2028230
670.4998, 0.2264190
670.9819, 0.2962150
671.4641, 0.3788030
671.9462, 0.4193200
672.4283, 0.4289510
672.9104, 0.4588580
673.3925, 0.5443120
673.8746, 0.6219660
674.3568, 0.6208250
674.8389, 0.5632220
675.3210, 0.4965300
675.8031, 0.4391090
676.2852, 0.3778140
676.7673, 0.2806910
677.2495, 0.1685450
677.7316, 0.1271020
678.2137, 0.1925370
678.6958, 0.2831360
679.1779, 0.4024680
679.6600, 0.5438850
680.1422, 0.4806490
680.6243, 0.1687830
681.1064, 9.4563000E-02
681.5885, 6.7781001E-02
682.0706, 0.1711970
682.5527, 0.4006740
683.0349, 0.6147050
683.5170, 0.7331540
683.9991, 0.6620940
684.4812, 0.4806530
684.9633, 0.2452140
685.4454, 8.7784998E-02
685.9276, 0.2905500
686.4097, 0.1889760
686.8918, 3.4887001E-02
687.3739, 0.1850150
687.8560, 0.2314990
688.3381, 0.2377240
688.8203, 0.1794220
689.3024, 0.1074040
689.7845, 0.1201270
690.2666, 0.2257890
690.7487, 0.2993870
691.2308, 0.2937880
691.7130, 0.2611070
692.1951, 0.3266160
692.6772, 0.4525520
693.1593, 0.5035280
693.6414, 0.3297330
694.1235, 0.1244790
694.6057, 9.3470002E-03
695.0878, 1.3934000E-02
695.5699, 4.8845999E-02
696.0520, 0.3452880
696.5341, 0.5829870
697.0162, 0.6330330
697.4984, 0.4991150
697.9805, 0.3376420
698.4626, 9.1136001E-02
698.9447, 6.4961001E-02
699.4268, 3.1037999E-02
699.9089, 0.3597210
700.3911, 0.4844290
700.8732, 0.3904870
701.3553, 0.2793430
701.8374, 0.3585340
702.3195, 0.5316650
702.8016, 0.6331080
703.2838, 0.6370600
703.7659, 0.5992140
704.2480, 0.5330830
704.7301, 0.4525280
705.2122, 0.3662510
705.6943, 0.2175070
706.1765, 0.1647690
706.6586, 0.2798640
707.1407, 0.4497270
707.6228, 0.5475220
708.1049, 0.5677500
708.5870, 0.5252740
709.0692, 0.3957270
709.5513, 0.2524480
710.0334, 0.2408880
710.5155, 0.3393460
710.9976, 0.4322700
711.4797, 0.4782250
711.9618, 0.5054510
712.4439, 0.4864640
712.9260, 0.4450440
713.4081, 0.4393360
713.8903, 0.5837690
714.3724, 0.6755060
714.8545, 0.5926750
715.3366, 0.3693990
715.8187, 0.2415510
716.3008, 0.2570050
716.7830, 0.2855670
717.2651, 0.2797490
717.7472, 0.2474850
718.2293, 0.2519790
718.7114, 0.2934660
719.1935, 0.3473660
719.6757, 0.4337460
720.1578, 0.5096240
720.6399, 0.4636560
721.1220, 0.3016920
721.6041, 0.1655260
722.0862, 0.1470170
722.5684, 0.1927280
723.0505, 0.2793780
723.5326, 0.4188160
724.0147, 0.5193770
724.4968, 0.5940360
724.9789, 0.6015960
725.4611, 0.4859830
725.9432, 0.1796080
726.4253, 4.6385001E-02
726.9074, 0.1091250
727.3895, 0.2508140
727.8716, 0.3801260
728.3538, 0.4827900
728.8359, 0.4669130
729.3180, 0.2872240
729.8001, 0.1309430
730.2822, 0.2188040
730.7643, 0.4162540
731.2465, 0.5421750
731.7286, 0.5150050
732.2107, 0.4593520
732.6928, 0.3791250
733.1749, 0.3005010
733.6570, 0.2673480
734.1392, 0.3157930
734.6213, 0.3247650
735.1034, 0.2599710
735.5855, 0.1675340
736.0676, 0.1439830
736.5497, 0.1856760
737.0319, 0.2464250
737.5140, 0.3277330
737.9961, 0.3818160
738.4782, 0.2862940
738.9603, 9.9513002E-02
739.4424, 1.1200000E-03
739.9246, 0.1690730
740.4067, 0.3359100
740.8888, 0.3628810
741.3709, 0.2769890
741.8530, 0.2179920
742.3351, 0.1990260
742.8173, 0.2003950
743.2994, 0.2188880
743.7815, 0.2406130
744.2636, 0.2248230
744.7457, 0.1719780
745.2278, 0.1611630
745.7100, 0.3231620
746.1921, 0.5331760
746.6742, 0.4871310
747.1563, 0.2265590
747.6384, 4.4282999E-02
748.1205, 0.2203140
748.6027, 0.4464630
749.0848, 0.4944410
749.5669, 0.3420720
750.0490, 0.2425490
750.5311, 0.2519390
751.0132, 0.2932100
751.4954, 0.3527850
751.9775, 0.4390060
752.4596, 0.3899130
752.9417, 0.1725490
753.4238, 2.1178000E-02
753.9059, 1.7721999E-02
754.3881, 0.1149670
754.8702, 0.2150160
755.3523, 0.2700260
755.8344, 0.2805290
756.3165, 0.1586560
756.7986, 4.1315001E-02
757.2808, 9.5291004E-02
757.7629, 0.4110100
758.2450, 0.6187820
758.7271, 0.6068020
759.2092, 0.5112560
759.6913, 0.4060530
760.1735, 0.2751550
760.6556, 0.2303950
761.1377, 0.2881750
761.6198, 0.3754050
762.1019, 0.4288470
762.5840, 0.4480450
763.0662, 0.4106550
763.5483, 0.3013420
764.0304, 0.2059180
764.5125, 0.2407270
764.9946, 0.3146250
765.4767, 0.3167190
765.9589, 0.1553820
766.4410, 3.9275002E-02
766.9231, 2.2609999E-02
767.4052, 5.5473000E-02
767.8873, 9.4864003E-02
768.3694, 0.1478660
768.8516, 0.1752200
769.3337, 0.1678220
769.8158, 0.1456500
770.2979, 0.1355070
770.7800, 0.1344540
771.2621, 0.1263180
771.7443, 9.7592004E-02
772.2264, 8.3648004E-02
772.7085, 0.1509530
773.1906, 0.2421440
773.6727, 0.2716570
774.1548, 0.1433510
774.6370, 3.9933000E-02
775.1191, 1.1460000E-02
775.6012, 1.9120000E-02
776.0833, 1.2076000E-02
776.5654, 9.7703002E-02
777.0475, 0.1591690
777.5297, 0.1751760
778.0118, 0.1730600
778.4939, 0.2008940
778.9760, 0.2542830
779.4581, 0.3123590
779.9402, 0.3799850
780.4224, 0.4374070
780.9045, 0.4941630
781.3866, 0.5249320
781.8687, 0.4812000
782.3508, 0.2481760
782.8329, 5.9794001E-02
783.3151, 6.1829999E-02
783.7972, 0.1047860
784.2793, 4.4359998E-03
784.7614, 0.2838430
785.2435, 0.4685960
785.7256, 0.4478490
786.2078, 0.3183630
786.6899, 0.2638330
787.1720, 0.2671790
787.6541, 0.2682960
788.1362, 0.2019250
788.6183, 0.1611260
789.1005, 0.2579770
789.5826, 0.4291030
790.0647, 0.5129110
790.5468, 0.3760340
791.0289, 0.2690110
791.5110, 0.2575330
791.9932, 0.3045820
792.4753, 0.2944560
792.9574, 0.2212970
793.4395, 0.1359880
793.9216, 2.5749000E-02
794.4037, 5.4239001E-02
794.8859, 7.0773996E-02
795.3680, 0.3266970
795.8501, 0.4722380
796.3322, 0.2454040
796.8143, 1.7419999E-02
797.2964, 3.7721001E-02
797.7786, 0.2338430
798.2607, 0.3318600
798.7428, 0.2248580
799.2249, 0.1396370
799.7070, 0.1330400
800.1891, 0.1831220
800.6713, 0.2242000
801.1534, 0.2562580
801.6355, 0.2689190
802.1176, 0.2570390
802.5997, 0.2240770
803.0818, 0.1430310
803.5640, 4.1218001E-02
804.0461, 1.7670000E-03
804.5282, 0.1476130
805.0103, 0.2764350
805.4924, 0.2909080
805.9745, 0.2163460
806.4567, 0.1462960
806.9388, 6.8582997E-02
807.4209, 4.5403000E-02
807.9030, 0.1119470
808.3851, 0.2332160
808.8672, 0.3159670
809.3494, 0.3595920
809.8315, 0.3576500
810.3136, 0.2706470
810.7957, 0.1699730
811.2778, 0.1121340
811.7599, 9.9602997E-02
812.2421, 0.1375210
812.7242, 0.3203040
813.2063, 0.4495110
813.6884, 0.4361090
814.1705, 0.3254430
814.6526, 0.2612240
815.1348, 0.2577980
815.6169, 0.2391100
816.0990, 0.1762330
816.5811, 8.9376003E-02
817.0632, 1.2088000E-02
817.5453, 5.2368000E-02
818.0275, 8.9675002E-02
818.5096, 8.2131997E-02
818.9917, 5.5737998E-02
819.4738, 1.3565000E-02
819.9559, 3.4747001E-02
820.4380, 6.2665999E-02
820.9202, 2.5750000E-02
821.4023, 8.7900003E-03
821.8844, 0.2014300
822.3665, 0.5139940
822.8486, 0.6912340
823.3307, 0.7293990
823.8129, 0.7109010
824.2950, 0.6545150
824.7771, 0.5674950
825.2592, 0.4371260
825.7413, 0.2852940
826.2234, 0.1584240
826.7056, 4.2854998E-02
827.1877, 7.2289999E-03
827.6698, 7.9410002E-02
828.1519, 0.2389300
828.6340, 0.3198760
829.1161, 0.2702880
829.5983, 0.2700910
830.0804, 0.3761030
830.5625, 0.5142890
831.0446, 0.5437070
831.5267, 0.4754980
832.0089, 0.3554100
832.4910, 0.1494980
832.9731, 1.0046000E-02
833.4552, 6.4677000E-02
833.9373, 0.2500430
834.4194, 0.3437190
834.9016, 0.1951660
835.3837, 7.4417002E-02
835.8658, 9.3149999E-03
836.3479, 3.3310998E-02
836.8300, 6.9972999E-02
837.3121, 0.3212360
837.7943, 0.4791360
838.2764, 0.4870980
838.7585, 0.4382190
839.2406, 0.4857560
839.7227, 0.5675660
840.2048, 0.5463930
840.6870, 0.3299900
841.1691, 0.1215380
841.6512, 1.8685000E-02
842.1333, 7.1131997E-02
842.6154, 1.8305000E-02
843.0975, 0.2140770
843.5797, 0.3809150
844.0618, 0.4674220
844.5439, 0.4961140
845.0260, 0.4844330
845.5081, 0.4365140
845.9902, 0.3632140
846.4724, 0.2599560
846.9545, 0.1722820
847.4366, 0.1365550
847.9187, 0.1394610
848.4008, 0.1761560
848.8829, 0.2766120
849.3651, 0.3227690
849.8472, 0.2743530
850.3293, 0.1955410
850.8114, 0.1196710
851.2935, 4.0697999E-02
851.7756, 4.2822000E-02
852.2578, 0.1301440
852.7399, 0.2402710
853.2220, 0.3197550
853.7041, 0.3746590
854.1862, 0.4133260
854.6683, 0.4356310
855.1505, 0.4550780
855.6326, 0.4859200
856.1147, 0.4927750
856.5968, 0.4376430
857.0789, 0.3104720
857.5610, 0.2223450
858.0432, 0.1775710
858.5253, 0.1607280
859.0074, 0.1751620
859.4895, 0.2094710
859.9716, 0.2078580
860.4537, 0.1764060
860.9359, 0.1809040
861.4180, 0.3664730
861.9001, 0.5174750
862.3822, 0.4104020
862.8643, 5.9795000E-02
863.3464, 8.1129000E-02
863.8286, 0.1642480
864.3107, 0.3774230
864.7928, 0.4015750
865.2749, 0.2793100
865.7570, 0.1852240
866.2391, 0.1196220
866.7213, 0.1005600
867.2034, 0.1657020
867.6855, 0.2589160
868.1676, 0.3382510
868.6497, 0.3982710
869.1318, 0.4209950
869.6140, 0.3526160
870.0961, 0.3043760
870.5782, 0.3218160
871.0603, 0.3701240
871.5424, 0.3568380
872.0245, 0.2749640
872.5067, 0.1925140
872.9888, 0.1110290
873.4709, 6.8659998E-02
873.9530, 0.1659290
874.4351, 0.3418970
874.9172, 0.4603640
875.3994, 0.4312690
875.8815, 0.4001250
876.3636, 0.4427830
876.8457, 0.5098490
877.3278, 0.5253730
877.8099, 0.4512350
878.2921, 0.4541690
878.7742, 0.5860870
879.2563, 0.7010040
879.7384, 0.5253930
880.2205, 0.1828860
880.7026, 5.1433999E-02
881.1848, 0.2310740
881.6669, 0.4299030
882.1490, 0.4868620
882.6311, 0.4527230
883.1132, 0.3492930
883.5953, 0.1054020
884.0775, 4.7676999E-02
884.5596, 0.2745290
885.0417, 0.5016480
885.5238, 0.4707010
886.0059, 0.2346230
886.4880, 0.1321440
886.9702, 0.1715300
887.4523, 0.2439410
887.9344, 0.3190770
888.4165, 0.3563130
888.8986, 0.2880290
889.3807, 0.1137710
889.8629, 1.6633000E-02
890.3450, 5.6233998E-02
890.8271, 0.1252570
891.3092, 0.1961180
891.7913, 0.2648860
892.2734, 0.3155210
892.7556, 0.3473940
893.2377, 0.3549390
893.7198, 0.3081190
894.2019, 0.2491340
894.6840, 0.2308910
895.1661, 0.2367710
895.6483, 0.2266370
896.1304, 0.1475510
896.6125, 0.1016170
897.0946, 0.1052270
897.5767, 0.1549630
898.0588, 0.2828160
898.5410, 0.4985830
899.0231, 0.5438600
899.5052, 0.3023210
899.9873, 1.6344000E-02
900.4694, 2.2987001E-02
900.9515, 0.1935930
901.4337, 0.3152550
901.9158, 0.3093580
902.3979, 0.2896230
902.8800, 0.2719010
903.3621, 0.2630630
903.8442, 0.2735200
904.3264, 0.3094610
904.8085, 0.3318220
905.2906, 0.3416990
905.7727, 0.3241690
906.2548, 0.2315520
906.7369, 0.1151990
907.2191, 7.8573003E-02
907.7012, 0.1347870
908.1833, 0.1556960
908.6654, 2.8749000E-02
909.1475, 9.9561997E-02
909.6296, 0.1539590
910.1118, 0.1352180
910.5939, 5.7105999E-02
911.0760, 0.1013590
911.5581, 0.2026160
912.0402, 9.3560003E-02
912.5223, 8.2953997E-02
913.0045, 3.0005001E-02
913.4866, 0.3470060
913.9687, 0.5488560
914.4508, 0.3589620
914.9329, 0.1547490
915.4150, 8.1138998E-02
915.8972, 0.1153740
916.3793, 0.2071240
916.8614, 0.3989520
917.3435, 0.4668810
917.8256, 0.3188070
918.3077, 0.1175950
918.7899, 0.1663820
919.2720, 0.3658890
919.7541, 0.4774750
920.2362, 0.4027300
920.7183, 0.3009680
921.2004, 0.2168380
921.6826, 0.1631480
922.1647, 0.1359290
922.6468, 0.1456880
923.1289, 0.1409610
923.6110, 0.1087810
924.0931, 0.1054660
924.5753, 0.2262740
925.0574, 0.4052450
925.5395, 0.4891740
926.0216, 0.4736350
926.5037, 0.4288420
926.9858, 0.3648830
927.4680, 0.3072050
927.9501, 0.2537980
928.4322, 0.2084490
928.9143, 0.2608520
929.3964, 0.4479870
929.8785, 0.5954380
930.3607, 0.6262480
930.8428, 0.5692420
931.3249, 0.4521870
931.8070, 0.2985680
932.2891, 0.1855250
932.7712, 0.1274160
933.2534, 0.1391240
933.7355, 0.2906340
934.2176, 0.4991360
934.6997, 0.6037240
935.1818, 0.5824370
935.6639, 0.5273000
936.1461, 0.4382420
936.6282, 0.3521710
937.1103, 0.3196820
937.5924, 0.3264160
938.0745, 0.3363980
938.5566, 0.3355430
939.0388, 0.3776300
939.5209, 0.6048800
940.0030, 0.7922410
940.4851, 0.7392240
940.9672, 0.4111260
941.4493, 0.2555640
941.9315, 0.2962870
942.4136, 0.3700540
942.8957, 0.3473160
943.3778, 0.2971240
943.8599, 0.3768650
944.3420, 0.5548030
944.8242, 0.6651290
945.3063, 0.5856250
945.7884, 0.4659840
946.2705, 0.3366530
946.7526, 0.2180460
947.2347, 0.1747580
947.7169, 0.2193920
948.1990, 0.2615270
948.6811, 0.2858750
949.1632, 0.2799600
949.6453, 0.1849940
950.1274, 5.5831999E-02
950.6096, 3.8040001E-03
951.0917, 4.8430000E-02
951.5738, 0.1387550
952.0559, 0.2813630
952.5380, 0.4266290
953.0201, 0.5485880
953.5023, 0.6566740
953.9844, 0.6449880
954.4665, 0.5040660
954.9486, 0.3518650
955.4307, 0.2863130
955.9128, 0.2828600
956.3950, 0.3476080
956.8771, 0.4671660
957.3591, 0.5083730
957.8412, 0.2908470
958.3234, 0.1488910
958.8055, 0.2135380
959.2876, 0.4228870
959.7697, 0.5670750
960.2518, 0.6456480
960.7339, 0.6132120
961.2161, 0.3803940
961.6982, 0.1598360
962.1803, 0.2364430
962.6624, 0.4604350
963.1445, 0.5974940
963.6266, 0.5219670
964.1088, 0.4496790
964.5909, 0.3902330
965.0730, 0.3413020
965.5551, 0.2899040
966.0372, 0.2418360
966.5193, 0.2732110
967.0015, 0.3845110
967.4836, 0.4633700
967.9657, 0.3961680
968.4478, 0.2853440
968.9299, 0.2259310
969.4120, 0.2223250
969.8942, 0.2375530
970.3763, 0.2579360
970.8584, 0.3228180
971.3405, 0.4833240
971.8226, 0.6542910
972.3047, 0.5244670
972.7869, 0.1803560
973.2690, 1.8947000E-02
973.7511, 0.1853930
974.2332, 0.4092110
974.7153, 0.4274620
975.1974, 0.3427380
975.6796, 0.2995540
976.1617, 0.3015870
976.6438, 0.3665190
977.1259, 0.5190860
977.6080, 0.6492610
978.0901, 0.6165130
978.5723, 0.4845360
979.0544, 0.3595280
979.5365, 0.2535740
980.0186, 0.2167730
980.5007, 0.3558400
980.9828, 0.4900380
981.4650, 0.5459660
981.9471, 0.5234120
982.4292, 0.3867380
982.9113, 0.1190660
983.3934, 6.7041002E-02
983.8755, 6.6806003E-02
984.3577, 2.5845001E-02
984.8398, 0.1204790
985.3219, 0.2077020
985.8040, 0.2678700
986.2861, 0.2668070
986.7682, 0.2786010
987.2504, 0.3144260
987.7325, 0.3633040
988.2146, 0.4297180
988.6967, 0.5101190
989.1788, 0.5132930
989.6609, 0.4313770
990.1431, 0.3354030
990.6252, 0.2552980
991.1073, 0.2057380
991.5894, 0.2049260
992.0715, 0.2531160
992.5536, 0.3210700
993.0358, 0.4376570
993.5179, 0.5023900
994.0000, 0.4585330
994.4821, 0.3674450
994.9642, 0.3845140
995.4464, 0.4837290
995.9285, 0.5876980
996.4106, 0.7288150
996.8927, 0.7514850
997.3748, 0.4518740
997.8569, 5.8488000E-02
998.3391, 0.1780110
998.8212, 0.2299280
999.3033, 0.2064540
999.7854, 0.1040490
1000.268, 5.1872998E-02
1000.750, 0.3085370
1001.232, 0.5585160
1001.714, 0.5904890
1002.196, 0.4202900
1002.678, 0.2531630
1003.160, 0.1186420
1003.642, 6.8154000E-02
1004.124, 0.1422620
1004.607, 0.2943700
1005.089, 0.4103200
1005.571, 0.4895460
1006.053, 0.4898210
1006.535, 0.3746630
1007.017, 0.2514290
1007.499, 0.2001020
1007.981, 0.2079110
1008.464, 0.2674580
1008.946, 0.4302020
1009.428, 0.5206040
1009.910, 0.5389980
1010.392, 0.4818540
1010.874, 0.2834330
1011.356, 1.0747000E-02
1011.838, 5.6680001E-02
1012.320, 5.1729999E-02
1012.803, 0.1647430
1013.285, 0.1527180
1013.767, 0.1603090
1014.249, 0.3081120
1014.731, 0.5130670
1015.213, 0.5923080
1015.695, 0.5298240
1016.177, 0.4244610
1016.659, 0.2759810
1017.142, 0.1576440
1017.624, 0.2114260
1018.106, 0.3285090
1018.588, 0.3387200
1019.070, 0.1895730
1019.552, 0.1043640
1020.034, 0.1833780
1020.516, 0.2631830
1020.999, 0.2573580
1021.481, 0.1905910
1021.963, 0.1920660
1022.445, 0.2578420
1022.927, 0.3663460
1023.409, 0.6327000
1023.891, 0.7917860
1024.373, 0.5300250
1024.855, 8.6773001E-02
1025.338, 0.1073930
1025.820, 7.4977003E-02
1026.302, 0.2049860
1026.784, 0.2502520
1027.266, 0.2639640
1027.748, 0.2835840
1028.230, 0.3176670
1028.712, 0.4061090
1029.195, 0.5449670
1029.677, 0.6277450
1030.159, 0.5506500
1030.641, 0.4767280
1031.123, 0.4668450
1031.605, 0.5056640
1032.087, 0.5198770
1032.569, 0.5109410
1033.052, 0.5122230
1033.534, 0.5459220
1034.016, 0.5626900
1034.498, 0.4756510
1034.980, 0.3672140
1035.462, 0.3502410
1035.944, 0.5145770
1036.426, 0.5382600
1036.908, 0.3726180
1037.391, 0.2021510
1037.873, 0.1752180
1038.355, 0.2397000
1038.837, 0.3005200
1039.319, 0.3560840
1039.801, 0.3677440
1040.283, 0.2645140
1040.765, 0.1772080
1041.247, 0.1346620
1041.730, 0.1364410
1042.212, 0.1891820
1042.694, 0.2885720
1043.176, 0.3967970
1043.658, 0.5179810
1044.140, 0.5832460
1044.622, 0.4884960
1045.104, 0.3378100
1045.587, 0.2077120
1046.069, 0.1046240
1046.551, 0.1287340
1047.033, 0.3428790
1047.515, 0.5267610
1047.997, 0.5862120
1048.479, 0.5743530
1048.961, 0.6325470
1049.443, 0.7130180
1049.926, 0.6813010
1050.408, 0.3677830
1050.890, 0.1554150
1051.372, 0.2911580
1051.854, 0.4940500
1052.336, 0.5288320
1052.818, 0.3831000
1053.300, 0.3315520
1053.782, 0.3773070
1054.265, 0.4327120
1054.747, 0.4317400
1055.229, 0.4165140
1055.711, 0.4545360
1056.193, 0.4988200
1056.675, 0.4135280
1057.157, 9.3360998E-02
1057.639, 6.9031999E-02
1058.122, 1.4956000E-02
1058.604, 0.2018200
1059.086, 0.3315580
1059.568, 0.4176440
1060.050, 0.5079850
1060.532, 0.6186190
1061.014, 0.6325510
1061.496, 0.3586750
1061.979, 0.1116190
1062.461, 5.7512000E-02
1062.943, 0.1532330
1063.425, 0.1861820
1063.907, 0.1647010
1064.389, 0.1747190
1064.871, 0.2875610
1065.353, 0.3732530
1065.835, 0.2945610
1066.318, 0.1494670
1066.800, 6.2366001E-02
1067.282, 4.6328999E-02
1067.764, 7.4161999E-02
1068.246, 0.1597650
1068.728, 0.2223190
1069.210, 0.1680990
1069.692, 6.4195000E-02
1070.174, 2.1242000E-02
1070.657, 3.2257002E-02
1071.139, 7.7667996E-02
1071.621, 0.2193310
1072.103, 0.2971360
1072.585, 0.2587410
1073.067, 0.1813990
1073.549, 0.1934810
1074.031, 0.2713190
1074.514, 0.3114890
1074.996, 0.2986780
1075.478, 0.2681940
1075.960, 0.2329330
1076.442, 0.1952350
1076.924, 0.1326180
1077.406, 6.2521003E-02
1077.888, 0.1304130
1078.370, 0.3473360
1078.853, 0.4853850
1079.335, 0.4453260
1079.817, 0.3440380
1080.299, 0.3108110
1080.781, 0.2961570
1081.263, 0.2163160
1081.745, 4.0164001E-02
1082.227, 6.2220000E-02
1082.709, 0.2453610
1083.192, 0.5377510
1083.674, 0.5878500
1084.156, 0.4818740
1084.638, 0.4618450
1085.120, 0.4994060
1085.602, 0.5021750
1086.084, 0.3490860
1086.566, 0.2422700
1087.048, 0.2393400
1087.531, 0.2891430
1088.013, 0.3485680
1088.495, 0.4135450
1088.977, 0.4280200
1089.459, 0.3884130
1089.941, 0.3401560
1090.423, 0.3294750
1090.905, 0.3080480
1091.388, 0.1898400
1091.870, 2.9116999E-02
1092.352, 8.8087998E-02
1092.834, 0.4199780
1093.316, 0.5865830
1093.798, 0.4647560
1094.280, 0.2341940
1094.762, 1.9567000E-02
1095.245, 0.1317580
1095.727, 0.1300880
1096.209, 7.4808002E-02
1096.691, 0.1803330
1097.173, 0.1278090
1097.655, 6.9546998E-02
1098.137, 6.3612998E-02
1098.619, 0.1059180
1099.101, 0.2410220
1099.583, 0.4128150
1100.066, 0.4732170
1100.548, 0.2474330
1101.030, 0.1301250
1101.512, 0.3259020
1101.994, 0.5597070
1102.476, 0.6100110
1102.958, 0.4954220
1103.440, 0.4497330
1103.923, 0.4679890
1104.405, 0.4621000
1104.887, 0.3438220
1105.369, 0.2231060
1105.851, 0.1516660
1106.333, 0.1239560
1106.815, 0.1209420
1107.297, 0.1388830
1107.780, 0.2393310
1108.262, 0.4464280
1108.744, 0.5855760
1109.226, 0.4161640
1109.708, 0.1594690
1110.190, 2.4236999E-02
1110.672, 2.0276001E-02
1111.154, 5.2115001E-02
1111.636, 0.1170080
1112.119, 0.2076280
1112.601, 0.3406410
1113.083, 0.4572230
1113.565, 0.4432010
1114.047, 0.3604110
1114.529, 0.3290100
1115.011, 0.3835730
1115.493, 0.3892040
1115.975, 0.2780620
1116.458, 0.1882090
1116.940, 0.2037720
1117.422, 0.2798610
1117.904, 0.1492670
1118.386, 0.1054190
1118.868, 0.1633610
1119.350, 0.2433410
1119.832, 0.5916390
1120.315, 0.6375290
1120.797, 0.5513540
1121.279, 0.4311970
1121.761, 0.2782870
1122.243, 0.2262850
1122.725, 0.2707970
1123.207, 0.3452790
1123.689, 0.4552230
1124.172, 0.5345870
1124.654, 0.5298630
1125.136, 0.4669470
1125.618, 0.3873640
1126.100, 0.2739380
1126.582, 0.2461150
1127.064, 0.3186720
1127.546, 0.4064090
1128.028, 0.4536000
1128.510, 0.4649420
1128.993, 0.4232910
1129.475, 0.3446730
1129.957, 0.3087960
1130.439, 0.3392210
1130.921, 0.3535840
1131.403, 0.3278410
1131.885, 0.3135860
1132.367, 0.4343790
1132.850, 0.5843280
1133.332, 0.5811810
1133.814, 0.4008530
1134.296, 0.2361380
1134.778, 8.4181003E-02
1135.260, 3.6920000E-02
1135.742, 0.1664140
1136.224, 0.3630610
1136.707, 0.3632640
1137.189, 0.2443810
1137.671, 0.2197960
1138.153, 0.3663550
1138.635, 0.4946250
1139.117, 0.5417830
1139.599, 0.5362080
1140.081, 0.4735200
1140.563, 0.3813360
1141.046, 0.3542670
1141.528, 0.3708920
1142.010, 0.3225280
1142.492, 8.3292000E-02
1142.974, 8.3706997E-02
1143.456, 2.1700000E-02
1143.938, 0.2162180
1144.420, 0.3290100
1144.902, 0.3560840
1145.385, 0.4670210
1145.867, 0.6537660
1146.349, 0.7494350
1146.831, 0.5618920
1147.313, 0.3371970
1147.795, 0.2372950
1148.277, 0.2204990
1148.759, 0.2075620
1149.242, 0.1924090
1149.724, 0.2148620
1150.206, 0.2793460
1150.688, 0.3476630
1151.170, 0.4047400
1151.652, 0.4356700
1152.134, 0.3939530
1152.616, 0.3115380
1153.099, 0.3071290
1153.581, 0.4299660
1154.063, 0.5195680
1154.545, 0.5443430
1155.027, 0.5347560
1155.509, 0.5416680
1155.991, 0.5232120
1156.473, 0.3863180
1156.955, 0.1391750
1157.438, 1.2393000E-02
1157.920, 7.2334997E-02
1158.402, 0.1370240
1158.884, 0.1732810
1159.366, 0.1740470
1159.848, 6.3758001E-02
1160.330, 6.4291999E-02
1160.812, 1.5394000E-02
1161.294, 0.2655580
1161.777, 0.4417300
1162.259, 0.4044760
1162.741, 0.3389110
1163.223, 0.3063980
1163.705, 0.2885810
1164.187, 0.2175130
1164.669, 0.1327710
1165.151, 0.1446810
1165.634, 0.3284800
1166.116, 0.4367290
1166.598, 0.3514170
1167.080, 0.2469760
1167.562, 0.2047100
1168.044, 0.2101860
1168.526, 0.2251010
1169.008, 0.2418670
1169.490, 0.2411600
1169.973, 0.1774830
1170.455, 0.1720350
1170.937, 0.3854060
1171.419, 0.5495480
1171.901, 0.4212380
1172.383, 6.0178000E-02
1172.865, 1.0756000E-02
1173.347, 0.1556380
1173.829, 0.2537980
1174.312, 1.6216001E-02
1174.794, 0.1861450
1175.276, 0.2242340
1175.758, 0.1379740
1176.240, 9.3190998E-02
1176.722, 0.4617480
1177.204, 0.6066470
1177.686, 0.5254620
1178.169, 0.4201170
1178.651, 0.4022750
1179.133, 0.4087700
1179.615, 0.4158030
1180.097, 0.4227410
1180.579, 0.4342390
1181.061, 0.4504780
1181.543, 0.4409480
1182.026, 0.4033910
1182.508, 0.3480000
1182.990, 0.2515020
1183.472, 0.1698880
1183.954, 0.1234830
1184.436, 0.1266280
1184.918, 0.2481970
1185.400, 0.5013510
1185.882, 0.5695520
1186.365, 0.3982590
1186.847, 0.2151520
1187.329, 0.2034540
1187.811, 0.2568750
1188.293, 0.3215390
1188.775, 0.3795420
1189.257, 0.3659830
1189.739, 0.2725040
1190.221, 0.2277160
1190.704, 0.2635390
1191.186, 0.3102910
1191.668, 0.3276520
1192.150, 0.3055680
1192.632, 0.1884310
1193.114, 2.9750001E-03
1193.596, 9.2590004E-03
1194.078, 0.1731620
1194.561, 0.3135340
1195.043, 0.3321210
1195.525, 0.3389050
1196.007, 0.5423660
1196.489, 0.7233910
1196.971, 0.5935030
1197.453, 0.1407370
1197.935, 8.3484001E-02
1198.417, 5.9982002E-02
1198.900, 4.0346000E-02
1199.382, 0.1909280
1199.864, 0.3083810
1200.346, 0.2662270
1200.828, 0.1603110
1201.310, 0.1164510
1201.792, 0.1422700
1202.274, 0.2099490
1202.756, 0.3325530
1203.239, 0.3752860
1203.721, 0.2294570
1204.203, 6.2656000E-02
1204.685, 7.9820000E-02
1205.167, 0.1791260
1205.649, 0.2172370
1206.131, 0.1632450
1206.613, 0.1556780
1207.096, 0.1993140
1207.578, 0.2473550
1208.060, 0.2883670
1208.542, 0.3034310
1209.024, 0.2141170
1209.506, 0.1073270
1209.988, 0.1454230
1210.470, 0.4050040
1210.953, 0.5162470
1211.435, 0.4672880
1211.917, 0.3737300
1212.399, 0.2584650
1212.881, 0.1820400
1213.363, 0.2730250
1213.845, 0.4259060
1214.327, 0.4306590
1214.809, 0.1958140
1215.292, 0.1083140
1215.774, 0.1854090
1216.256, 0.2877980
1216.738, 0.3073520
1217.220, 0.3086280
1217.702, 0.3731310
1218.184, 0.4572890
1218.666, 0.4809600
1219.148, 0.4237400
1219.631, 0.3616540
1220.113, 0.2932620
1220.595, 0.2601740
1221.077, 0.3675020
1221.559, 0.4687310
1222.041, 0.3381710
1222.523, 0.1087030
1223.005, 9.6878998E-02
1223.488, 0.3768120
1223.970, 0.5581840
1224.452, 0.6165900
1224.934, 0.5642280
1225.416, 0.2513220
1225.898, 2.1755001E-02
1226.380, 8.9928001E-02
1226.862, 0.4353100
1227.344, 0.5509980
1227.827, 0.3832670
1228.309, 0.3521000
1228.791, 0.5063100
1229.273, 0.6250930
1229.755, 0.4107950
1230.237, 0.1928690
1230.719, 0.3049800
1231.201, 0.6127370
1231.683, 0.7012490
1232.166, 0.5211220
1232.648, 0.3509460
1233.130, 0.2025450
1233.612, 0.1526270
1234.094, 0.4099170
1234.576, 0.6603960
1235.058, 0.6162610
1235.540, 0.3992960
1236.023, 0.3172840
1236.505, 0.3726710
1236.987, 0.4083460
1237.469, 0.4036890
1237.951, 0.3768520
1238.433, 0.2875360
1238.915, 0.2352170
1239.397, 0.3520870
1239.880, 0.5309180
1240.362, 0.4759550
1240.844, 0.2133140
1241.326, 0.1839830
1241.808, 0.4751960
1242.290, 0.7057290
1242.772, 0.5238270
1243.254, 0.3041090
1243.736, 0.2388770
1244.219, 0.2851650
1244.701, 0.2745260
1245.183, 0.2208950
1245.665, 0.2347800
1246.147, 0.3405810
1246.629, 0.4056010
1247.111, 0.2927460
1247.593, 0.1933500
1248.075, 0.1854690
1248.558, 0.2474410
1249.040, 0.3679780
1249.522, 0.5176310
1250.004, 0.5564370
1250.486, 0.4558580
1250.968, 0.3568010
1251.450, 0.3060470
1251.932, 0.3015770
1252.415, 0.3746990
1252.897, 0.4537690
1253.379, 0.3286790
1253.861, 9.3612000E-02
1254.343, 8.6789997E-03
1254.825, 0.1260560
1255.307, 0.2413620
1255.789, 0.2759320
1256.271, 0.3212380
1256.754, 0.4078290
1257.236, 0.5129680
1257.718, 0.6408760
1258.200, 0.7405450
1258.682, 0.6590720
1259.164, 0.3536640
1259.646, 0.1633280
1260.128, 0.1671570
1260.610, 0.2099300
1261.093, 0.2465570
1261.575, 0.2976040
1262.057, 0.4510560
1262.539, 0.6111990
1263.021, 0.6091020
1263.503, 0.4080030
1263.985, 0.2957610
1264.467, 0.2946350
1264.950, 0.3687690
1265.432, 0.5434540
1265.914, 0.6844900
1266.396, 0.5408590
1266.878, 0.3179650
1267.360, 0.2743330
1267.842, 0.4378970
1268.324, 0.5085420
1268.807, 0.4740000
1269.289, 0.4431120
1269.771, 0.4433700
1270.253, 0.4698150
1270.735, 0.5794600
1271.217, 0.6659680
1271.699, 0.5689560
1272.181, 0.3405620
1272.663, 0.3179910
1273.146, 0.4962040
1273.628, 0.5533410
1274.110, 0.3770960
1274.592, 0.1910610
1275.074, 0.1790620
1275.556, 0.1994100
1276.038, 0.1403590
1276.520, 3.6756001E-02
1277.002, 5.3296998E-02
1277.485, 0.1617140
1277.967, 0.1619300
1278.449, 2.9960999E-02
1278.931, 0.1205900
1279.413, 0.2136170
1279.895, 0.4839890
1280.377, 0.4210100
1280.859, 0.1925150
1281.342, 0.2760920
1281.824, 0.5518960
1282.306, 0.6529520
1282.788, 0.4596020
1283.270, 0.3029480
1283.752, 0.2028840
1284.234, 0.1171060
1284.716, 0.2958910
1285.198, 0.4931420
1285.681, 0.5154430
1286.163, 0.4139620
1286.645, 0.2925630
1287.127, 0.1792030
1287.609, 8.6886004E-02
1288.091, 3.6812000E-02
1288.573, 0.0000000E+00
##END=



