##NAMES=Insizwaite
##RRUFFID=R070743
##IDEAL CHEMISTRY=PtBi_2_
##LOCALITY=Strathcona Mine, Levack, Sudbury District (Sudbury Complex; Sudbury nickel irruptive), Ontario, Canada
##OWNER=RRUFF
##SOURCE=Michael Scott
##DESCRIPTION=Tin white metallic massive associated with chalcopyrite and quartz
##STATUS=The identification of this mineral is not yet confirmed.
##URL=rruff.info/R070743
181.7165, 0.0000000E+00
182.1986, 6.896973
182.6807, 0.1201170
183.1628, 6.585938
183.6449, 20.46533
184.1271, 22.27490
184.6092, 4.673340
185.0913, 1.819824
185.5734, 11.71973
186.0555, 32.42822
186.5376, 53.30713
187.0198, 71.21973
187.5019, 83.04688
187.9840, 79.63037
188.4661, 35.22266
188.9482, 8.121582
189.4303, 13.45605
189.9125, 34.58008
190.3946, 51.99805
190.8767, 55.64160
191.3588, 48.94531
191.8409, 47.97607
192.3230, 58.97656
192.8052, 68.88721
193.2873, 75.11279
193.7694, 78.68652
194.2515, 81.55322
194.7336, 84.69873
195.2157, 88.41650
195.6979, 95.27441
196.1800, 112.0210
196.6621, 123.6465
197.1442, 123.1543
197.6263, 112.6021
198.1084, 96.97510
198.5906, 76.01514
199.0727, 52.69531
199.5548, 51.96387
200.0369, 100.4941
200.5190, 146.8218
201.0011, 155.2700
201.4833, 128.3921
201.9654, 99.10742
202.4475, 91.38623
202.9296, 104.6929
203.4117, 117.0103
203.8938, 131.5352
204.3760, 146.9224
204.8581, 153.6675
205.3402, 155.0542
205.8223, 153.0488
206.3044, 145.3232
206.7865, 135.1816
207.2687, 133.0249
207.7508, 151.2441
208.2329, 173.8013
208.7150, 177.8706
209.1971, 168.0938
209.6792, 150.0352
210.1614, 130.4717
210.6435, 116.9629
211.1256, 106.3354
211.6077, 99.33789
212.0898, 96.24512
212.5719, 96.46240
213.0541, 95.77441
213.5362, 99.06738
214.0183, 115.1997
214.5004, 137.5054
214.9825, 152.2520
215.4646, 145.6870
215.9468, 124.8931
216.4289, 118.1943
216.9110, 142.4644
217.3931, 164.4170
217.8752, 155.0137
218.3573, 124.0913
218.8395, 96.27002
219.3216, 93.13721
219.8037, 113.4575
220.2858, 124.8770
220.7679, 123.9829
221.2500, 117.7153
221.7322, 107.6187
222.2143, 94.70410
222.6964, 82.00928
223.1785, 72.52734
223.6606, 65.79297
224.1427, 61.38574
224.6249, 84.55713
225.1070, 99.99902
225.5891, 83.84180
226.0712, 43.73926
226.5533, 9.074707
227.0354, 13.50000
227.5176, 66.30420
227.9997, 97.60352
228.4818, 80.90430
228.9639, 63.52148
229.4460, 66.98389
229.9281, 87.89502
230.4103, 110.8677
230.8924, 120.5142
231.3745, 115.4897
231.8566, 103.2896
232.3387, 73.34277
232.8208, 44.62842
233.3030, 26.25244
233.7851, 18.56592
234.2672, 16.70703
234.7493, 17.26758
235.2314, 23.43115
235.7135, 19.65088
236.1957, 10.83594
236.6778, 35.53906
237.1599, 29.89551
237.6420, 5.572266
238.1241, 41.44629
238.6062, 51.04688
239.0884, 22.75293
239.5705, 12.14844
240.0526, 28.34326
240.5347, 46.90576
241.0168, 57.47266
241.4989, 58.21680
241.9811, 52.17188
242.4632, 41.17383
242.9453, 19.02344
243.4274, 12.73682
243.9095, 38.56396
244.3916, 65.73877
244.8738, 72.11084
245.3559, 56.19434
245.8380, 34.54688
246.3201, 26.57715
246.8022, 38.07324
247.2843, 45.84570
247.7665, 50.87354
248.2486, 52.03418
248.7307, 45.57275
249.2128, 32.18994
249.6949, 19.85791
250.1770, 18.83545
250.6592, 35.39697
251.1413, 40.84180
251.6234, 23.53125
252.1055, 3.333984
252.5876, 5.356445
253.0697, 0.4711910
253.5519, 11.84766
254.0340, 25.16992
254.5161, 39.25635
254.9982, 57.08447
255.4803, 93.90283
255.9624, 125.0469
256.4445, 122.4033
256.9267, 83.72363
257.4088, 40.71289
257.8909, 26.25195
258.3730, 48.61230
258.8551, 63.67090
259.3372, 68.59131
259.8194, 67.89258
260.3015, 63.71631
260.7836, 56.81055
261.2657, 49.98486
261.7478, 46.43408
262.2299, 46.80713
262.7121, 43.75000
263.1942, 36.53467
263.6763, 26.38818
264.1584, 8.996094
264.6405, 14.86621
265.1227, 29.41797
265.6048, 16.48828
266.0869, 26.61914
266.5690, 57.60059
267.0511, 72.31982
267.5332, 77.06396
268.0154, 73.45801
268.4975, 62.73730
268.9796, 52.68311
269.4617, 49.56299
269.9438, 53.69141
270.4259, 58.96289
270.9081, 71.73096
271.3902, 81.05615
271.8723, 74.46191
272.3544, 52.22021
272.8365, 30.52393
273.3186, 19.67676
273.8008, 20.92041
274.2829, 30.86816
274.7650, 67.04248
275.2471, 98.88232
275.7292, 95.41992
276.2113, 59.14160
276.6935, 27.85840
277.1756, 29.50684
277.6577, 61.08838
278.1398, 83.23145
278.6219, 92.88086
279.1040, 96.27637
279.5862, 96.55762
280.0683, 93.83203
280.5504, 87.60693
281.0325, 74.21387
281.5146, 57.97852
281.9967, 54.40771
282.4789, 75.24121
282.9610, 97.85938
283.4431, 109.4644
283.9252, 110.6504
284.4073, 104.3262
284.8894, 89.54736
285.3716, 71.04736
285.8537, 61.62793
286.3358, 69.28027
286.8179, 75.28125
287.3000, 63.81836
287.7821, 40.26025
288.2643, 26.39014
288.7464, 33.62500
289.2285, 55.78271
289.7106, 77.53027
290.1927, 106.1548
290.6748, 122.0420
291.1570, 108.9961
291.6391, 74.62109
292.1212, 40.11377
292.6033, 10.15381
293.0854, 10.21826
293.5675, 10.01025
294.0497, 14.69727
294.5318, 39.98779
295.0139, 67.36182
295.4960, 92.00928
295.9781, 92.35107
296.4602, 54.23145
296.9424, 3.161621
297.4245, 12.22314
297.9066, 13.24414
298.3887, 38.42236
298.8708, 46.07959
299.3529, 45.68115
299.8351, 57.11377
300.3172, 88.58691
300.7993, 121.5259
301.2814, 126.1699
301.7635, 101.0957
302.2456, 79.70264
302.7278, 70.11914
303.2099, 68.00537
303.6920, 69.44971
304.1741, 74.30420
304.6562, 78.29150
305.1383, 74.60742
305.6205, 62.62207
306.1026, 54.88477
306.5847, 58.91602
307.0668, 64.84082
307.5489, 57.43311
308.0310, 35.27051
308.5132, 18.89893
308.9953, 30.56152
309.4774, 71.40820
309.9595, 99.63574
310.4416, 114.6445
310.9237, 116.7900
311.4059, 99.82422
311.8880, 65.44580
312.3701, 30.60986
312.8522, 5.694336
313.3343, 7.705078
313.8164, 8.467773
314.2986, 16.98730
314.7807, 41.99561
315.2628, 48.56055
315.7449, 40.07275
316.2270, 33.82129
316.7091, 41.96631
317.1913, 60.05273
317.6734, 62.69482
318.1555, 33.20459
318.6376, 8.538086
319.1197, 4.810059
319.6018, 16.48242
320.0840, 30.40576
320.5661, 40.12793
321.0482, 47.66943
321.5303, 60.23535
322.0124, 94.34766
322.4945, 109.3994
322.9767, 83.90723
323.4588, 39.91406
323.9409, 6.281250
324.4230, 8.790527
324.9051, 8.260742
325.3872, 5.213867
325.8694, 48.13721
326.3515, 74.46729
326.8336, 71.57422
327.3157, 54.86621
327.7978, 37.25488
328.2799, 22.58350
328.7621, 12.90381
329.2442, 11.54785
329.7263, 21.16553
330.2084, 27.01758
330.6905, 25.60156
331.1726, 23.85693
331.6548, 27.71973
332.1369, 37.49463
332.6190, 49.49756
333.1011, 61.16699
333.5832, 74.88477
334.0653, 71.43848
334.5475, 24.31885
335.0296, 12.52441
335.5117, 3.227051
335.9938, 41.68115
336.4759, 85.51709
336.9580, 99.48193
337.4402, 84.10400
337.9223, 73.71289
338.4044, 75.08252
338.8865, 73.59570
339.3686, 63.30713
339.8507, 48.44141
340.3329, 36.00244
340.8150, 29.85059
341.2971, 29.12109
341.7792, 30.40771
342.2613, 40.87061
342.7434, 43.82568
343.2256, 24.65283
343.7077, 2.581543
344.1898, 3.305664
344.6719, 36.42871
345.1540, 81.75537
345.6361, 95.44873
346.1183, 48.41650
346.6004, 26.59766
347.0825, 53.17285
347.5646, 90.91748
348.0467, 115.2148
348.5288, 120.1616
349.0110, 113.8110
349.4931, 105.9810
349.9752, 97.74951
350.4573, 83.17334
350.9394, 43.81299
351.4215, 13.18164
351.9037, 12.24268
352.3858, 36.24756
352.8679, 66.10742
353.3500, 89.99268
353.8321, 107.4863
354.3142, 105.7476
354.7964, 64.29053
355.2785, 26.69775
355.7606, 12.59961
356.2427, 15.78613
356.7248, 25.88525
357.2069, 40.41113
357.6891, 55.83887
358.1712, 60.74512
358.6533, 50.32275
359.1354, 39.72363
359.6175, 34.82715
360.0996, 33.08838
360.5818, 31.47949
361.0639, 28.27686
361.5460, 26.90039
362.0281, 36.35547
362.5102, 59.23340
362.9923, 68.91113
363.4745, 42.46533
363.9566, 8.153320
364.4387, 6.028320
364.9208, 4.104492
365.4029, 23.21484
365.8850, 46.80566
366.3672, 72.09912
366.8493, 81.93213
367.3314, 64.75098
367.8135, 42.77881
368.2956, 43.18262
368.7777, 63.96582
369.2599, 76.69482
369.7420, 60.04883
370.2241, 30.51611
370.7062, 18.10254
371.1883, 27.64404
371.6704, 41.89014
372.1526, 47.42920
372.6347, 44.80078
373.1168, 41.70264
373.5989, 36.62500
374.0810, 33.10010
374.5631, 34.68799
375.0453, 41.06396
375.5274, 49.37842
376.0095, 59.87207
376.4916, 70.03955
376.9737, 70.19482
377.4558, 51.84082
377.9380, 34.60840
378.4201, 27.46436
378.9022, 26.17285
379.3843, 22.26660
379.8664, 12.06885
380.3485, 0.9824220
380.8307, 9.835938
381.3128, 15.52539
381.7949, 15.10840
382.2770, 3.872070
382.7591, 11.04053
383.2412, 24.15576
383.7234, 33.47266
384.2055, 38.22607
384.6876, 37.72656
385.1697, 31.81934
385.6518, 20.45117
386.1339, 13.99365
386.6161, 36.98291
387.0982, 19.70654
387.5803, 25.46094
388.0624, 61.61523
388.5445, 60.29053
389.0266, 25.78760
389.5088, 5.049805
389.9909, 8.458496
390.4730, 15.04639
390.9551, 25.89697
391.4372, 36.35449
391.9193, 39.35303
392.4015, 31.49561
392.8836, 18.94629
393.3657, 19.85693
393.8478, 45.66992
394.3299, 55.43994
394.8120, 25.08057
395.2942, 9.188965
395.7763, 21.80859
396.2584, 9.552246
396.7405, 11.10400
397.2226, 23.63916
397.7047, 27.92188
398.1869, 20.96729
398.6690, 41.82568
399.1511, 53.77637
399.6332, 57.30078
400.1153, 27.14648
400.5974, 40.49023
401.0796, 36.40820
401.5617, 31.53418
402.0438, 50.93701
402.5259, 25.70508
403.0080, 44.80957
403.4901, 46.22217
403.9723, 55.74072
404.4544, 47.72559
404.9365, 45.13379
405.4186, 60.09033
405.9007, 65.33643
406.3828, 55.32227
406.8650, 65.38477
407.3471, 39.58838
407.8292, 45.26758
408.3113, 64.53174
408.7934, 55.43506
409.2755, 65.86133
409.7577, 68.86426
410.2398, 38.10303
410.7219, 66.07422
411.2040, 68.65479
411.6861, 45.16699
412.1682, 71.15186
412.6504, 51.27588
413.1325, 47.78516
413.6146, 56.62207
414.0967, 52.61914
414.5788, 68.87402
415.0609, 65.62354
415.5431, 60.63623
416.0252, 63.26123
416.5073, 44.33594
416.9894, 65.40479
417.4715, 59.16211
417.9536, 66.50098
418.4358, 76.92432
418.9179, 63.78760
419.4000, 75.60547
419.8821, 48.73828
420.3642, 61.88623
420.8463, 58.72363
421.3285, 54.84229
421.8106, 57.01123
422.2927, 74.53516
422.7748, 89.62109
423.2569, 94.06787
423.7390, 87.76660
424.2212, 73.07129
424.7033, 46.15967
425.1854, 11.91943
425.6675, 2.958984
426.1496, 34.71045
426.6317, 66.19775
427.1139, 82.61182
427.5960, 89.56299
428.0781, 93.86914
428.5602, 97.73291
429.0423, 99.77686
429.5244, 95.99609
430.0066, 86.14648
430.4887, 82.59326
430.9708, 94.87500
431.4529, 109.0928
431.9350, 108.0483
432.4171, 91.12695
432.8993, 76.21924
433.3814, 72.47461
433.8635, 76.93555
434.3456, 86.24170
434.8277, 100.7949
435.3098, 113.6118
435.7920, 120.1660
436.2741, 119.6572
436.7562, 110.6562
437.2383, 75.72314
437.7204, 48.25830
438.2025, 53.68164
438.6847, 83.16797
439.1668, 112.3872
439.6489, 130.6953
440.1310, 138.8218
440.6131, 136.9683
441.0952, 91.35986
441.5774, 112.8945
442.0595, 125.5234
442.5416, 129.7275
443.0237, 100.2529
443.5058, 114.2778
443.9879, 110.5195
444.4701, 105.1162
444.9522, 124.7236
445.4343, 100.1870
445.9164, 119.9873
446.3985, 122.0952
446.8806, 132.3076
447.3628, 124.9902
447.8449, 123.0972
448.3270, 138.7578
448.8091, 162.6860
449.2912, 168.2173
449.7733, 126.6714
450.2555, 95.21484
450.7376, 93.91309
451.2197, 105.1250
451.7018, 120.2773
452.1839, 137.7236
452.6660, 149.3940
453.1481, 142.3999
453.6302, 121.9634
454.1124, 116.0435
454.5945, 132.1123
455.0766, 152.3384
455.5587, 161.3574
456.0408, 162.5713
456.5229, 165.2632
457.0051, 179.3076
457.4872, 189.8037
457.9693, 177.1738
458.4514, 146.0830
458.9335, 124.4033
459.4156, 127.5742
459.8978, 145.8154
460.3799, 152.7354
460.8620, 142.1416
461.3441, 134.0063
461.8262, 132.4473
462.3083, 134.5996
462.7905, 139.7017
463.2726, 146.6699
463.7547, 149.9912
464.2368, 142.4121
464.7189, 121.3789
465.2010, 111.9766
465.6832, 122.8931
466.1653, 135.4790
466.6474, 146.0215
467.1295, 153.5654
467.6116, 158.3276
468.0938, 160.3599
468.5759, 159.4966
469.0580, 155.4546
469.5401, 146.2808
470.0222, 132.5703
470.5043, 105.2822
470.9865, 81.39990
471.4686, 72.75537
471.9507, 79.74854
472.4328, 93.11328
472.9149, 109.9692
473.3970, 128.0869
473.8792, 138.5513
474.3613, 139.2051
474.8434, 137.5254
475.3255, 137.9312
475.8076, 139.4517
476.2897, 140.2832
476.7719, 142.2251
477.2540, 140.9136
477.7361, 126.9883
478.2182, 107.2310
478.7003, 105.8218
479.1824, 133.9380
479.6646, 168.9541
480.1467, 171.0737
480.6288, 125.6826
481.1109, 94.10596
481.5930, 85.57373
482.0751, 86.71777
482.5573, 92.71338
483.0394, 100.2778
483.5215, 103.7861
484.0036, 98.92236
484.4857, 86.43262
484.9678, 70.51318
485.4500, 34.44385
485.9321, 18.27588
486.4142, 45.29541
486.8963, 83.93799
487.3784, 105.8770
487.8605, 103.7979
488.3427, 86.41357
488.8248, 54.68262
489.3069, 8.702148
489.7890, 12.77686
490.2711, 5.326660
490.7532, 31.38867
491.2354, 51.27734
491.7175, 64.90918
492.1996, 72.18994
492.6817, 71.61621
493.1638, 66.18848
493.6459, 58.42139
494.1281, 48.43799
494.6102, 36.87109
495.0923, 20.56543
495.5744, 8.040039
496.0565, 16.86475
496.5386, 53.87012
497.0208, 79.57373
497.5029, 76.55322
497.9850, 62.98584
498.4671, 58.03662
498.9492, 62.47803
499.4313, 64.02930
499.9135, 51.71338
500.3956, 27.14404
500.8777, 11.56445
501.3598, 11.38770
501.8419, 14.38770
502.3240, 18.00391
502.8062, 22.06836
503.2883, 25.85449
503.7704, 29.02686
504.2525, 31.75684
504.7346, 35.54736
505.2167, 41.95508
505.6989, 41.15918
506.1810, 22.34863
506.6631, 7.783203
507.1452, 13.98779
507.6273, 32.00732
508.1094, 40.50830
508.5916, 24.36475
509.0737, 2.163574
509.5558, 1.0254000E-02
510.0379, 17.21729
510.5200, 38.39844
511.0021, 62.77490
511.4843, 83.13379
511.9664, 87.56250
512.4485, 75.35547
512.9306, 58.65527
513.4127, 29.65381
513.8948, 4.740723
514.3770, 5.662109
514.8591, 30.02979
515.3412, 52.77832
515.8233, 56.08398
516.3054, 43.46338
516.7875, 35.96582
517.2697, 36.09912
517.7518, 39.89355
518.2339, 55.12451
518.7160, 69.25635
519.1981, 67.19043
519.6802, 47.48877
520.1624, 24.83545
520.6445, 15.89893
521.1266, 21.08691
521.6087, 24.98096
522.0908, 29.41406
522.5729, 29.60645
523.0551, 17.53027
523.5372, 2.290527
524.0193, 0.9028320
524.5014, 19.27637
524.9835, 39.45361
525.4656, 29.49121
525.9478, 3.476074
526.4299, 20.80127
526.9120, 9.619141
527.3941, 12.16016
527.8762, 24.07715
528.3583, 25.72998
528.8405, 29.89941
529.3226, 45.52441
529.8047, 56.72607
530.2868, 51.92529
530.7689, 36.83447
531.2510, 25.88672
531.7332, 27.08984
532.2153, 36.11768
532.6974, 39.69824
533.1795, 37.00781
533.6616, 30.93359
534.1437, 18.71924
534.6259, 6.154785
535.1080, 7.535645
535.5901, 19.10205
536.0722, 18.24121
536.5543, 9.518066
537.0364, 50.91504
537.5186, 60.40234
538.0007, 29.02979
538.4828, 0.1245120
538.9649, 10.36279
539.4470, 9.694824
539.9291, 4.533203
540.4113, 5.635254
540.8934, 14.15088
541.3755, 15.01758
541.8576, 13.17676
542.3397, 19.05762
542.8218, 33.35107
543.3040, 42.36182
543.7861, 34.49854
544.2682, 12.20361
544.7503, 3.637695
545.2324, 20.34912
545.7145, 22.61035
546.1967, 7.214355
546.6788, 45.51758
547.1609, 66.44922
547.6430, 64.45654
548.1251, 53.35352
548.6072, 46.66699
549.0894, 44.59131
549.5715, 41.09033
550.0536, 34.99414
550.5357, 29.16504
551.0178, 25.90674
551.4999, 23.08594
551.9821, 15.87061
552.4642, 0.6210940
552.9463, 9.899414
553.4284, 2.723633
553.9105, 31.23779
554.3926, 43.73193
554.8748, 30.19971
555.3569, 15.29199
555.8390, 25.20947
556.3211, 59.36523
556.8032, 78.72803
557.2853, 79.29980
557.7675, 68.41943
558.2496, 35.31934
558.7317, 3.595215
559.2138, 16.45166
559.6959, 7.523926
560.1780, 44.73828
560.6602, 59.27002
561.1423, 45.66650
561.6244, 31.42188
562.1065, 8.571289
562.5886, 6.542969
563.0707, 5.981934
563.5529, 6.082520
564.0350, 23.84961
564.5171, 47.87012
564.9992, 67.59424
565.4813, 64.11133
565.9634, 39.17969
566.4456, 21.50879
566.9277, 18.09424
567.4098, 22.35254
567.8919, 29.62158
568.3740, 39.49268
568.8561, 48.00391
569.3383, 59.64355
569.8204, 65.08496
570.3025, 51.71143
570.7846, 27.57617
571.2667, 13.45557
571.7488, 18.20508
572.2310, 30.88916
572.7131, 30.59326
573.1952, 6.628418
573.6773, 1.196777
574.1594, 23.09229
574.6415, 46.74902
575.1237, 55.57275
575.6058, 52.90576
576.0879, 47.29395
576.5700, 41.81885
577.0521, 38.15088
577.5342, 40.72852
578.0164, 49.60840
578.4985, 54.48779
578.9806, 53.19678
579.4627, 46.87451
579.9448, 31.23535
580.4269, 8.049805
580.9091, 2.090820
581.3912, 16.87451
581.8733, 38.90234
582.3554, 46.12305
582.8375, 42.04980
583.3196, 36.87109
583.8018, 34.42627
584.2839, 33.52783
584.7660, 36.66992
585.2481, 50.82031
585.7302, 50.61865
586.2123, 7.191406
586.6945, 23.51074
587.1766, 2.398926
587.6587, 46.59277
588.1408, 72.49072
588.6229, 47.63135
589.1050, 4.183594
589.5872, 11.73779
590.0693, 1.163086
590.5514, 10.08252
591.0335, 17.35254
591.5156, 22.77051
591.9977, 29.36475
592.4799, 36.55957
592.9620, 38.17432
593.4441, 25.68750
593.9262, 15.85596
594.4083, 24.23633
594.8904, 41.33545
595.3726, 48.72021
595.8547, 40.10107
596.3368, 27.13232
596.8189, 28.11377
597.3010, 48.17578
597.7831, 61.79980
598.2653, 67.93555
598.7474, 68.08887
599.2295, 53.41064
599.7116, 35.64600
600.1937, 36.04541
600.6758, 65.78955
601.1580, 96.02100
601.6401, 89.26855
602.1222, 54.13379
602.6043, 34.14746
603.0864, 38.32324
603.5685, 49.58252
604.0507, 57.07031
604.5328, 59.07422
605.0149, 57.31787
605.4970, 42.51074
605.9791, 34.86182
606.4612, 47.86279
606.9434, 69.07422
607.4255, 84.43457
607.9076, 89.94678
608.3897, 86.81934
608.8718, 74.48486
609.3539, 53.24463
609.8361, 37.22412
610.3182, 22.60889
610.8003, 18.61572
611.2824, 41.52588
611.7645, 70.58203
612.2466, 81.95312
612.7288, 70.50488
613.2109, 56.15576
613.6930, 49.42163
614.1751, 49.60571
614.6572, 59.65649
615.1393, 79.24683
615.6215, 90.44312
616.1036, 79.55469
616.5857, 53.05225
617.0678, 37.20435
617.5499, 45.82910
618.0320, 50.13086
618.5142, 44.05469
618.9963, 36.49658
619.4784, 31.44312
619.9605, 30.72656
620.4426, 38.35620
620.9247, 61.86646
621.4069, 92.07227
621.8890, 101.3206
622.3711, 86.63184
622.8532, 66.13574
623.3353, 36.68457
623.8174, 11.17847
624.2996, 4.040039
624.7817, 14.17212
625.2638, 25.29443
625.7459, 35.46802
626.2280, 43.00684
626.7101, 44.99976
627.1923, 43.25073
627.6744, 41.52148
628.1565, 41.22119
628.6386, 44.50830
629.1207, 57.35596
629.6028, 87.08936
630.0850, 97.70752
630.5671, 67.90259
631.0492, 39.89062
631.5313, 25.94458
632.0134, 23.70972
632.4955, 27.89795
632.9777, 37.88770
633.4598, 47.81836
633.9419, 50.90039
634.4240, 49.18115
634.9061, 49.89209
635.3882, 54.28784
635.8704, 59.09839
636.3525, 61.93018
636.8346, 63.05054
637.3167, 64.14990
637.7988, 63.52148
638.2809, 64.78125
638.7631, 75.28174
639.2452, 84.30493
639.7273, 77.28687
640.2094, 55.44067
640.6915, 33.09351
641.1736, 21.95361
641.6558, 18.34595
642.1379, 7.027100
642.6200, 16.72437
643.1021, 26.67993
643.5842, 7.063965
644.0663, 21.56201
644.5485, 36.56592
645.0306, 41.33081
645.5127, 44.40527
645.9948, 46.39429
646.4769, 47.76880
646.9590, 47.82715
647.4412, 46.97876
647.9233, 50.23438
648.4054, 58.70386
648.8875, 66.95264
649.3696, 66.47266
649.8517, 54.96338
650.3339, 46.30127
650.8160, 39.30688
651.2981, 36.85059
651.7802, 44.53662
652.2623, 55.46851
652.7444, 58.67554
653.2266, 50.09595
653.7087, 42.01025
654.1908, 45.59424
654.6729, 56.23291
655.1550, 64.75513
655.6371, 70.06836
656.1193, 71.67017
656.6014, 68.76172
657.0835, 62.27148
657.5656, 55.80615
658.0477, 49.13940
658.5298, 43.72778
659.0120, 36.74146
659.4941, 31.03882
659.9762, 30.64062
660.4583, 35.64941
660.9404, 45.39575
661.4225, 61.41040
661.9047, 77.91821
662.3868, 82.79126
662.8689, 76.54077
663.3510, 76.32886
663.8331, 87.53833
664.3152, 99.37158
664.7974, 103.2651
665.2795, 99.28540
665.7616, 91.45435
666.2437, 71.96533
666.7258, 57.83301
667.2079, 61.51758
667.6901, 71.06177
668.1722, 69.34204
668.6543, 54.47192
669.1364, 40.29858
669.6185, 40.60571
670.1006, 52.74683
670.5828, 61.19165
671.0649, 65.95996
671.5470, 66.12427
672.0291, 55.52881
672.5112, 44.94678
672.9933, 47.55981
673.4755, 63.87769
673.9576, 79.70142
674.4397, 96.25635
674.9218, 106.2183
675.4039, 97.40112
675.8860, 77.90649
676.3682, 69.04712
676.8503, 78.95557
677.3324, 92.82397
677.8145, 86.20483
678.2966, 54.53271
678.7787, 40.19702
679.2609, 55.44580
679.7430, 70.25317
680.2251, 73.00781
680.7072, 68.86914
681.1893, 63.61890
681.6714, 57.95972
682.1536, 52.81616
682.6357, 50.25879
683.1178, 47.81323
683.5999, 40.29663
684.0820, 28.78003
684.5641, 21.08228
685.0463, 21.58081
685.5284, 27.66724
686.0105, 33.11475
686.4926, 36.00537
686.9747, 42.75073
687.4568, 64.66748
687.9390, 78.95093
688.4211, 65.76489
688.9032, 40.33496
689.3853, 33.79248
689.8674, 61.02808
690.3495, 89.67139
690.8317, 89.33813
691.3138, 70.97656
691.7959, 58.10327
692.2780, 53.86768
692.7601, 52.76611
693.2422, 51.62720
693.7244, 50.05981
694.2065, 45.99463
694.6886, 28.90405
695.1707, 27.62109
695.6528, 60.26709
696.1349, 91.41382
696.6171, 97.24805
697.0992, 83.42529
697.5813, 69.03003
698.0634, 63.46265
698.5455, 59.19922
699.0276, 43.79932
699.5098, 22.00366
699.9919, 11.77979
700.4740, 16.28613
700.9561, 27.56079
701.4382, 44.10278
701.9203, 62.56226
702.4025, 63.40527
702.8846, 18.77954
703.3667, 6.359375
703.8488, 3.355469
704.3309, 25.46680
704.8130, 51.09717
705.2952, 74.27832
705.7773, 82.81787
706.2594, 63.78467
706.7415, 36.15259
707.2236, 29.20679
707.7057, 39.19629
708.1879, 41.86450
708.6700, 30.30273
709.1521, 19.21436
709.6342, 24.45703
710.1163, 44.84497
710.5984, 52.22876
711.0806, 31.38818
711.5627, 18.31665
712.0448, 20.03467
712.5269, 30.38184
713.0090, 51.72705
713.4911, 78.58984
713.9733, 91.55103
714.4554, 76.71216
714.9375, 46.61084
715.4196, 13.95923
715.9017, 18.82349
716.3839, 29.12549
716.8660, 7.906006
717.3481, 23.10352
717.8302, 45.05957
718.3123, 57.85693
718.7944, 59.34863
719.2766, 41.96899
719.7587, 24.05151
720.2408, 2.488525
720.7229, 13.97144
721.2050, 16.51514
721.6871, 5.604248
722.1693, 11.49023
722.6514, 34.69385
723.1335, 56.68457
723.6156, 62.71777
724.0977, 54.98438
724.5798, 50.16309
725.0620, 53.15308
725.5441, 57.66626
726.0262, 58.15527
726.5083, 54.59814
726.9904, 44.76929
727.4725, 15.68994
727.9547, 2.706299
728.4368, 2.673584
728.9189, 7.896484
729.4010, 29.02075
729.8831, 55.70020
730.3652, 70.44751
730.8474, 55.01099
731.3295, 29.94165
731.8116, 26.39648
732.2937, 40.57446
732.7758, 55.47437
733.2579, 67.77295
733.7401, 71.61279
734.2222, 58.36768
734.7043, 29.30005
735.1864, 14.00098
735.6685, 24.88062
736.1506, 13.50732
736.6328, 34.94189
737.1149, 47.46973
737.5970, 51.01978
738.0791, 20.86621
738.5612, 34.43872
739.0433, 31.15649
739.5255, 26.35986
740.0076, 45.76123
740.4897, 20.44482
740.9718, 39.46045
741.4539, 40.83374
741.9360, 51.15869
742.4182, 44.97437
742.9003, 44.07861
743.3824, 59.12427
743.8645, 64.26318
744.3466, 54.12109
744.8287, 64.05542
745.3109, 38.12598
745.7930, 43.69238
746.2751, 62.93604
746.7572, 54.47241
747.2393, 65.75122
747.7214, 69.10229
748.2036, 38.21240
748.6857, 65.98828
749.1678, 68.36548
749.6499, 44.66431
750.1320, 52.03906
750.6141, 40.74536
751.0963, 24.98511
751.5784, 11.95435
752.0605, 2.047852
752.5426, 4.805176
753.0247, 14.56421
753.5068, 37.26465
753.9890, 56.42871
754.4711, 69.72363
754.9532, 70.21387
755.4353, 48.94629
755.9174, 28.66235
756.3995, 19.02002
756.8817, 17.82666
757.3638, 25.37939
757.8459, 39.42847
758.3280, 53.46338
758.8101, 63.81958
759.2922, 69.62573
759.7744, 67.23022
760.2565, 55.49585
760.7386, 47.44629
761.2207, 45.12891
761.7028, 44.91089
762.1849, 45.15161
762.6671, 45.35962
763.1492, 44.34497
763.6313, 41.81909
764.1134, 38.64429
764.5955, 30.20996
765.0776, 25.33643
765.5598, 33.29175
766.0419, 49.97119
766.5240, 67.15674
767.0061, 81.53467
767.4882, 88.29224
767.9703, 77.44360
768.4525, 52.47339
768.9346, 32.44458
769.4167, 18.64624
769.8988, 7.650879
770.3809, 5.116699
770.8630, 12.10449
771.3452, 4.477539
771.8273, 61.74390
772.3094, 92.34863
772.7915, 76.35840
773.2736, 57.21582
773.7557, 50.97485
774.2379, 51.67334
774.7200, 52.34741
775.2021, 49.81714
775.6842, 45.50781
776.1663, 37.70630
776.6484, 30.47095
777.1306, 32.45923
777.6127, 41.77856
778.0948, 47.21143
778.5769, 43.79272
779.0590, 39.60107
779.5411, 45.74585
780.0233, 62.16821
780.5054, 72.99731
780.9875, 79.79541
781.4696, 78.13184
781.9517, 56.99487
782.4338, 34.64722
782.9160, 26.27075
783.3981, 31.46191
783.8802, 39.54932
784.3623, 51.18506
784.8444, 60.13330
785.3265, 58.30005
785.8087, 52.77344
786.2908, 56.58789
786.7729, 70.65503
787.2550, 84.08423
787.7371, 88.50317
788.2192, 85.90918
788.7014, 80.97266
789.1835, 73.31348
789.6656, 67.56470
790.1477, 66.47632
790.6298, 63.03394
791.1119, 48.80103
791.5941, 27.52661
792.0762, 16.46777
792.5583, 26.22925
793.0404, 29.09595
793.5225, 11.77368
794.0046, 5.559814
794.4868, 5.571777
794.9689, 5.741943
795.4510, 10.45435
795.9331, 0.1596680
796.4152, 9.317139
796.8973, 8.361328
797.3795, 39.56616
797.8616, 48.59985
798.3437, 33.83105
798.8258, 12.24316
799.3079, 9.815186
799.7900, 26.19824
800.2722, 24.16333
800.7543, 1.512939
801.2364, 21.65039
801.7185, 39.23291
802.2006, 47.81470
802.6827, 37.41040
803.1649, 19.86548
803.6470, 4.551514
804.1291, 7.516357
804.6112, 11.22046
805.0933, 3.326172
805.5754, 12.04932
806.0576, 41.09546
806.5397, 72.33667
807.0218, 85.68091
807.5039, 77.26929
807.9860, 56.56763
808.4681, 27.09937
808.9503, 3.313965
809.4324, 6.058105
809.9145, 20.26147
810.3966, 45.90308
810.8787, 68.10767
811.3608, 79.97876
811.8430, 71.05322
812.3251, 46.22925
812.8072, 40.85083
813.2893, 76.02490
813.7714, 99.51294
814.2535, 102.6528
814.7357, 97.06396
815.2178, 88.25366
815.6999, 77.14038
816.1820, 62.81152
816.6641, 43.48779
817.1462, 27.74976
817.6284, 22.12036
818.1105, 24.76514
818.5926, 37.17261
819.0747, 56.14014
819.5568, 66.48462
820.0389, 60.83691
820.5211, 48.14502
821.0032, 42.38794
821.4853, 43.96606
821.9674, 45.18188
822.4495, 44.06177
822.9316, 48.02002
823.4137, 65.68628
823.8958, 84.90210
824.3779, 87.39771
824.8600, 72.78271
825.3422, 64.85352
825.8243, 71.56079
826.3064, 78.98218
826.7885, 83.55176
827.2706, 84.90454
827.7527, 81.36108
828.2349, 73.48071
828.7170, 66.19360
829.1991, 64.11597
829.6812, 64.12817
830.1633, 63.47607
830.6454, 62.30322
831.1276, 61.00391
831.6097, 59.66138
832.0918, 58.32275
832.5739, 56.74414
833.0560, 55.85449
833.5381, 59.57715
834.0203, 72.17041
834.5024, 73.98096
834.9845, 55.27661
835.4666, 38.89697
835.9487, 38.09009
836.4308, 45.75659
836.9130, 53.01929
837.3951, 60.05981
837.8772, 62.74585
838.3593, 54.90601
838.8414, 47.69507
839.3235, 47.23853
839.8057, 52.08594
840.2878, 62.40576
840.7699, 76.64185
841.2520, 85.66064
841.7341, 78.54785
842.2162, 64.43115
842.6984, 60.84888
843.1805, 65.81836
843.6626, 69.87646
844.1447, 70.87085
844.6268, 68.86743
845.1089, 63.27515
845.5911, 55.31299
846.0732, 50.80469
846.5553, 51.92017
847.0374, 50.61963
847.5195, 45.03467
848.0016, 38.23755
848.4838, 28.69385
848.9659, 20.02197
849.4480, 19.69409
849.9301, 29.84424
850.4122, 43.38989
850.8943, 64.59888
851.3765, 82.48682
851.8586, 87.31519
852.3407, 84.11719
852.8228, 80.85034
853.3049, 79.26831
853.7870, 78.03784
854.2692, 77.90234
854.7513, 77.53271
855.2334, 67.46362
855.7155, 50.74658
856.1976, 44.92456
856.6797, 54.97070
857.1619, 66.39990
857.6440, 68.58569
858.1261, 62.87305
858.6082, 44.93481
859.0903, 1.588379
859.5724, 15.97437
860.0546, 18.14136
860.5367, 52.29590
861.0188, 45.25024
861.5009, 14.11060
861.9830, 6.5430000E-02
862.4651, 11.30884
862.9473, 24.67505
863.4294, 40.74365
863.9115, 52.20581
864.3936, 50.07617
864.8757, 42.35669
865.3578, 44.52100
865.8400, 59.58423
866.3221, 69.44751
866.8042, 56.00049
867.2863, 32.30127
867.7684, 9.745850
868.2505, 7.732666
868.7327, 2.772949
869.2148, 26.63110
869.6969, 59.47754
870.1790, 78.51855
870.6611, 84.95483
871.1432, 81.23877
871.6254, 65.87451
872.1075, 52.19019
872.5896, 41.99048
873.0717, 33.28149
873.5538, 24.10083
874.0359, 15.74219
874.5181, 12.12646
875.0002, 15.04541
875.4823, 4.328857
875.9644, 25.85229
876.4465, 38.47046
876.9286, 42.65796
877.4108, 13.16187
877.8929, 27.15723
878.3750, 23.76782
878.8571, 20.50537
879.3392, 41.18750
879.8214, 16.59082
880.3035, 36.32056
880.7856, 38.35229
881.2677, 48.48218
881.7498, 41.07349
882.2319, 39.08081
882.7141, 54.63232
883.1962, 60.46729
883.6783, 51.03735
884.1604, 61.67773
884.6425, 36.45483
885.1246, 42.74780
885.6068, 64.16113
886.0889, 57.00513
886.5710, 68.25977
887.0531, 71.79248
887.5352, 41.55591
888.0173, 70.04614
888.4995, 73.13672
888.9816, 61.49561
889.4637, 64.70361
889.9458, 65.29614
890.4279, 63.65723
890.9100, 59.84399
891.3922, 54.43359
891.8743, 45.11011
892.3564, 37.29468
892.8385, 31.71631
893.3206, 29.11694
893.8027, 30.74780
894.2849, 35.85889
894.7670, 44.00122
895.2491, 56.49707
895.7312, 63.34082
896.2133, 50.07666
896.6954, 29.24146
897.1776, 19.12646
897.6597, 19.31494
898.1418, 24.83081
898.6239, 33.66235
899.1060, 43.40088
899.5881, 52.56641
900.0703, 60.01221
900.5524, 59.19556
901.0345, 49.65063
901.5166, 42.24219
901.9987, 39.49194
902.4808, 39.32080
902.9630, 41.28809
903.4451, 43.82910
903.9272, 39.79175
904.4093, 22.17920
904.8914, 12.68359
905.3735, 18.30835
905.8557, 24.56665
906.3378, 24.40723
906.8199, 21.71631
907.3020, 21.26221
907.7841, 23.24487
908.2662, 29.79541
908.7484, 49.93408
909.2305, 64.96191
909.7126, 59.70483
910.1947, 48.03442
910.6768, 48.17212
911.1589, 59.37451
911.6411, 66.91650
912.1232, 64.63257
912.6053, 53.95068
913.0874, 26.50708
913.5695, 4.142578
914.0516, 15.66016
914.5338, 8.011963
915.0159, 11.21826
915.4980, 38.71606
915.9801, 61.05273
916.4622, 53.72729
916.9443, 22.99829
917.4265, 10.79297
917.9086, 19.82739
918.3907, 36.58081
918.8728, 60.72729
919.3549, 77.57373
919.8370, 70.30200
920.3192, 43.65259
920.8013, 33.11401
921.2834, 48.49438
921.7655, 56.86304
922.2476, 54.10254
922.7297, 45.62695
923.2119, 26.88477
923.6940, 6.991455
924.1761, 5.165771
924.6582, 29.00098
925.1403, 39.75830
925.6224, 15.93164
926.1046, 3.430908
926.5867, 3.167236
927.0688, 21.05835
927.5509, 35.04248
928.0330, 43.21606
928.5151, 50.98706
928.9973, 67.17090
929.4794, 74.82471
929.9615, 49.50146
930.4436, 16.22852
930.9257, 8.396484
931.4078, 23.05005
931.8900, 42.18286
932.3721, 58.34082
932.8542, 66.31274
933.3363, 57.30518
933.8184, 38.71558
934.3005, 32.00366
934.7827, 34.86279
935.2648, 28.08179
935.7469, 6.351807
936.2290, 11.03345
936.7111, 5.898193
937.1932, 15.57886
937.6754, 32.61182
938.1575, 45.14453
938.6396, 53.21094
939.1217, 56.34033
939.6038, 56.10205
940.0859, 52.09399
940.5681, 46.85449
941.0502, 46.46533
941.5323, 54.66626
942.0144, 47.90283
942.4965, 5.383545
942.9786, 22.17725
943.4608, 19.05859
943.9429, 1.479248
944.4250, 23.24976
944.9071, 51.88794
945.3892, 72.62061
945.8713, 81.84692
946.3535, 86.44043
946.8356, 91.66016
947.3177, 89.48657
947.7998, 64.95288
948.2819, 32.77905
948.7640, 19.12646
949.2462, 29.77661
949.7283, 43.61450
950.2104, 50.86304
950.6925, 53.41748
951.1746, 51.79565
951.6567, 46.96606
952.1389, 40.90234
952.6210, 34.60498
953.1031, 30.49365
953.5852, 30.15015
954.0673, 31.61792
954.5494, 30.73462
955.0316, 29.98364
955.5137, 38.47681
955.9958, 54.77856
956.4779, 66.80786
956.9600, 70.10327
957.4421, 67.84595
957.9243, 63.13062
958.4064, 56.14868
958.8885, 45.75757
959.3706, 30.66284
959.8527, 27.76611
960.3348, 42.28027
960.8170, 60.56470
961.2991, 75.54883
961.7812, 85.33984
962.2633, 84.20337
962.7454, 68.40332
963.2275, 58.87524
963.7097, 59.44824
964.1918, 58.88257
964.6739, 52.31812
965.1560, 44.52563
965.6381, 41.21948
966.1202, 41.85327
966.6024, 39.55151
967.0845, 29.19873
967.5666, 22.54932
968.0487, 27.64209
968.5308, 29.54175
969.0129, 12.19873
969.4951, 10.65845
969.9772, 14.47949
970.4593, 5.916504
970.9414, 24.05884
971.4235, 33.31348
971.9056, 34.58594
972.3878, 23.86084
972.8699, 10.87500
973.3520, 4.853271
973.8341, 6.046875
974.3162, 10.78613
974.7983, 19.09082
975.2805, 24.66235
975.7626, 21.13867
976.2447, 13.52490
976.7268, 4.036377
977.2089, 3.771240
977.6910, 0.6689450
978.1732, 14.42676
978.6553, 28.78003
979.1374, 31.08228
979.6195, 28.15308
980.1016, 31.09082
980.5837, 37.84204
981.0659, 41.04980
981.5480, 40.87720
982.0301, 47.83130
982.5122, 67.91064
982.9943, 86.10645
983.4764, 77.60840
983.9586, 46.99780
984.4407, 19.50244
984.9228, 5.048340
985.4049, 6.628418
985.8870, 21.82397
986.3691, 56.11182
986.8513, 78.75244
987.3334, 88.68945
987.8155, 80.32373
988.2976, 50.13428
988.7797, 23.78345
989.2618, 0.9016110
989.7440, 9.432373
990.2261, 10.74048
990.7082, 38.17285
991.1903, 45.80054
991.6724, 34.11353
992.1545, 24.55420
992.6367, 15.47949
993.1188, 12.29785
993.6009, 22.05786
994.0830, 28.70117
994.5651, 21.49463
995.0472, 7.472656
995.5294, 0.1418460
996.0115, 1.013184
996.4936, 1.888672
996.9757, 1.775879
997.4578, 2.594727
997.9399, 6.1767999E-02
998.4221, 2.651855
998.9042, 25.96875
999.3863, 61.13330
999.8684, 75.19214
1000.351, 51.33154
1000.833, 30.50854
1001.315, 29.70166
1001.797, 34.03833
1002.279, 34.93188
1002.761, 33.07153
1003.243, 29.07397
1003.725, 23.88623
1004.207, 22.57007
1004.690, 29.77710
1005.172, 37.80127
1005.654, 45.04858
1006.136, 48.59375
1006.618, 44.29248
1007.100, 33.99805
1007.582, 19.45386
1008.064, 1.722412
1008.547, 7.711426
1009.029, 7.468750
1009.511, 27.78833
1009.993, 29.36060
1010.475, 23.84570
1010.957, 33.25098
1011.439, 56.71411
1011.921, 78.37134
1012.403, 90.80322
1012.886, 92.90820
1013.368, 76.62744
1013.850, 52.84741
1014.332, 44.08057
1014.814, 45.21240
1015.296, 34.91260
1015.778, 10.28149
1016.260, 8.804199
1016.742, 7.032715
1017.225, 7.229980
1017.707, 22.25757
1018.189, 37.13208
1018.671, 48.96875
1019.153, 57.41455
1019.635, 61.61157
1020.117, 61.22681
1020.599, 59.87793
1021.082, 62.31616
1021.564, 65.50439
1022.046, 58.26807
1022.528, 41.34570
1023.010, 22.50049
1023.492, 2.424316
1023.974, 6.006104
1024.456, 5.191895
1024.938, 23.25098
1025.421, 28.72656
1025.903, 22.92212
1026.385, 22.38110
1026.867, 27.51660
1027.349, 34.21436
1027.831, 43.74268
1028.313, 50.28491
1028.795, 46.68530
1029.278, 38.34644
1029.760, 37.14453
1030.242, 43.43945
1030.724, 56.11914
1031.206, 81.13745
1031.688, 89.59424
1032.170, 65.98804
1032.652, 40.56812
1033.135, 41.36670
1033.617, 60.82349
1034.099, 70.15918
1034.581, 66.19824
1035.063, 60.59863
1035.545, 52.80298
1036.027, 33.14014
1036.509, 53.74072
1036.991, 65.43311
1037.474, 68.69458
1037.956, 38.34253
1038.438, 52.30615
1038.920, 48.62402
1039.402, 43.55420
1039.884, 62.75024
1040.366, 37.23193
1040.848, 56.04468
1041.330, 57.16211
1041.813, 66.38037
1042.295, 58.06128
1042.777, 54.76221
1043.259, 68.90894
1043.741, 73.95508
1044.223, 63.96045
1044.705, 73.69775
1045.187, 47.57397
1045.670, 52.91968
1046.152, 71.84375
1046.634, 63.49902
1047.116, 75.95630
1047.598, 78.60449
1048.080, 47.46631
1048.562, 75.05542
1049.044, 67.17065
1049.526, 87.26465
1050.009, 107.2124
1050.491, 100.4727
1050.973, 53.27905
1051.455, 29.18701
1051.937, 64.96387
1052.419, 91.42993
1052.901, 74.19336
1053.383, 45.62354
1053.865, 32.17261
1054.348, 32.64087
1054.830, 37.79761
1055.312, 48.45752
1055.794, 56.00732
1056.276, 58.76880
1056.758, 57.58008
1057.240, 49.86304
1057.722, 40.56006
1058.205, 33.89429
1058.687, 30.38428
1059.169, 29.92505
1059.651, 32.69312
1060.133, 38.04077
1060.615, 44.85596
1061.097, 55.21289
1061.579, 82.03882
1062.062, 105.7183
1062.544, 94.91821
1063.026, 53.90771
1063.508, 26.05200
1063.990, 30.93530
1064.472, 38.30200
1064.954, 35.19189
1065.436, 32.06372
1065.918, 39.32056
1066.401, 49.07959
1066.883, 47.96753
1067.365, 35.74902
1067.847, 31.02344
1068.329, 43.30469
1068.811, 59.81738
1069.293, 83.30078
1069.775, 100.7764
1070.257, 101.2297
1070.740, 88.97510
1071.222, 67.34644
1071.704, 38.77686
1072.186, 20.80811
1072.668, 25.44263
1073.150, 35.96313
1073.632, 48.31934
1074.114, 59.34009
1074.596, 67.44067
1075.079, 72.99121
1075.561, 76.17334
1076.043, 77.11719
1076.525, 76.65552
1077.007, 74.66943
1077.489, 71.96729
1077.971, 63.68945
1078.453, 59.46924
1078.936, 76.86060
1079.418, 102.3140
1079.900, 105.8003
1080.382, 80.52515
1080.864, 55.75195
1081.346, 37.34204
1081.828, 31.57373
1082.310, 56.16821
1082.792, 83.63330
1083.275, 85.10425
1083.757, 69.26636
1084.239, 58.96948
1084.721, 59.81519
1085.203, 63.87866
1085.685, 73.60034
1086.167, 78.47070
1086.649, 69.04492
1087.131, 55.36572
1087.614, 47.52954
1088.096, 43.52954
1088.578, 33.24341
1089.060, 13.40454
1089.542, 3.830811
1090.024, 22.57202
1090.506, 41.31152
1090.988, 46.75195
1091.471, 44.32764
1091.953, 34.92139
1092.435, 23.29199
1092.917, 20.47974
1093.399, 30.41699
1093.881, 35.69434
1094.363, 28.02368
1094.845, 16.48047
1095.328, 1.669189
1095.810, 15.72607
1096.292, 12.25806
1096.774, 2.655273
1097.256, 12.34033
1097.738, 12.25708
1098.220, 14.52856
1098.702, 29.23560
1099.184, 39.18970
1099.667, 34.93604
1100.149, 24.41357
1100.631, 10.54785
1101.113, 2.464355
1101.595, 6.580078
1102.077, 1.846680
1102.559, 8.466553
1103.041, 13.68335
1103.523, 11.35254
1104.006, 18.68286
1104.488, 41.24756
1104.970, 11.78540
1105.452, 45.26587
1105.934, 64.52612
1106.416, 27.88843
1106.898, 5.251221
1107.380, 23.28711
1107.863, 38.01660
1108.345, 34.40137
1108.827, 25.33984
1109.309, 14.34863
1109.791, 6.892334
1110.273, 18.48975
1110.755, 58.59741
1111.237, 77.31470
1111.719, 50.06519
1112.202, 28.86035
1112.684, 31.80908
1113.166, 38.45703
1113.648, 31.81665
1114.130, 19.09937
1114.612, 17.94556
1115.094, 31.94824
1115.576, 42.00830
1116.058, 51.45654
1116.541, 51.62280
1117.023, 29.74194
1117.505, 11.87720
1117.987, 18.95850
1118.469, 38.66235
1118.951, 47.12964
1119.433, 43.55713
1119.915, 33.54883
1120.398, 7.104736
1120.880, 3.989990
1121.362, 14.91089
1121.844, 33.74365
1122.326, 32.26221
1122.808, 22.11279
1123.290, 25.85498
1123.772, 44.92529
1124.255, 44.71753
1124.737, 14.94092
1125.219, 0.7712400
1125.701, 7.300293
1126.183, 22.03516
1126.665, 37.10278
1127.147, 47.30688
1127.629, 42.57031
1128.111, 24.23535
1128.594, 18.35718
1129.076, 27.21826
1129.558, 33.27954
1130.040, 33.59570
1130.522, 36.14233
1131.004, 46.71436
1131.486, 54.31738
1131.968, 44.86792
1132.450, 22.59131
1132.933, 11.69336
1133.415, 12.10522
1133.897, 13.21216
1134.379, 13.81519
1134.861, 17.24414
1135.343, 24.95752
1135.825, 36.10815
1136.307, 51.84937
1136.790, 67.06030
1137.272, 62.05933
1137.754, 41.75879
1138.236, 40.34448
1138.718, 58.30322
1139.200, 74.84229
1139.682, 82.15259
1140.164, 77.12329
1140.646, 53.30005
1141.129, 24.47339
1141.611, 16.84888
1142.093, 23.35327
1142.575, 26.47363
1143.057, 26.30688
1143.539, 30.98633
1144.021, 41.09717
1144.503, 42.13330
1144.985, 19.75293
1145.468, 2.101074
1145.950, 12.99194
1146.432, 41.34521
1146.914, 32.65332
1147.396, 51.00269
1147.878, 60.76709
1148.360, 62.42749
1148.842, 30.72876
1149.325, 42.84863
1149.807, 37.86450
1150.289, 32.48950
1150.771, 51.70679
1151.253, 26.53198
1151.735, 46.01343
1152.217, 48.12231
1152.699, 58.65601
1153.182, 51.91162
1153.664, 50.08350
1154.146, 66.34009
1154.628, 73.87964
1155.110, 66.47974
1155.592, 79.47559
1156.074, 70.28711
1156.556, 75.24902
1157.038, 65.95312
1157.521, 46.01221
1158.003, 11.87231
1158.485, 3.439697
1158.967, 24.07544
1159.449, 47.37524
1159.931, 52.87939
1160.413, 50.68286
1160.895, 43.33838
1161.377, 35.03052
1161.860, 33.10693
1162.342, 38.48828
1162.824, 41.50244
1163.306, 43.37988
1163.788, 35.56299
1164.270, 5.514648
1164.752, 14.58350
1165.234, 6.836914
1165.717, 15.62524
1166.199, 38.51831
1166.681, 60.83521
1167.163, 72.72070
1167.645, 72.93042
1168.127, 66.86792
1168.609, 52.22559
1169.091, 43.71191
1169.573, 47.67041
1170.056, 55.90015
1170.538, 60.66113
1171.020, 62.99121
1171.502, 66.49243
1171.984, 70.87842
1172.466, 71.46582
1172.948, 68.15259
1173.430, 63.36475
1173.912, 57.74512
1174.395, 49.98926
1174.877, 38.26538
1175.359, 29.62354
1175.841, 42.55493
1176.323, 64.44019
1176.805, 56.71606
1177.287, 29.55029
1177.769, 14.90112
1178.252, 17.06226
1178.734, 27.22339
1179.216, 42.10986
1179.698, 53.58154
1180.180, 48.89233
1180.662, 42.22803
1181.144, 55.17554
1181.626, 72.87109
1182.109, 71.34692
1182.591, 56.12720
1183.073, 46.74243
1183.555, 48.55981
1184.037, 50.72754
1184.519, 50.88623
1185.001, 47.99976
1185.483, 36.45093
1185.965, 26.75024
1186.448, 33.24878
1186.930, 43.32715
1187.412, 31.34302
1187.894, 0.2690430
1188.376, 9.479736
1188.858, 29.47388
1189.340, 59.19165
1189.822, 76.72168
1190.304, 80.46045
1190.787, 53.11035
1191.269, 26.57544
1191.751, 32.65186
1192.233, 60.76685
1192.715, 77.96094
1193.197, 85.91577
1193.679, 72.56128
1194.161, 25.33594
1194.644, 4.297852
1195.126, 1.394287
1195.608, 8.050293
1196.090, 8.315918
1196.572, 5.888672
1197.054, 16.29346
1197.536, 37.15894
1198.018, 46.19214
1198.500, 43.68750
1198.983, 35.34326
1199.465, 22.46753
1199.947, 14.88940
1200.429, 16.61743
1200.911, 25.97070
1201.393, 44.08472
1201.875, 62.88379
1202.357, 66.71265
1202.839, 60.31201
1203.322, 50.30469
1203.804, 40.24438
1204.286, 35.50732
1204.768, 37.65088
1205.250, 49.18726
1205.732, 76.24927
1206.214, 92.08228
1206.696, 59.35010
1207.179, 23.09497
1207.661, 27.55371
1208.143, 49.50586
1208.625, 61.63110
1209.107, 62.07153
1209.589, 55.23315
1210.071, 40.48047
1210.553, 32.62744
1211.036, 37.58130
1211.518, 47.63257
1212.000, 73.89600
1212.482, 90.33325
1212.964, 67.75122
1213.446, 31.90723
1213.928, 24.50806
1214.410, 43.99194
1214.892, 55.38721
1215.375, 58.47290
1215.857, 52.56104
1216.339, 31.94604
1216.821, 19.42529
1217.303, 24.57251
1217.785, 33.80371
1218.267, 36.08203
1218.749, 32.22900
1219.231, 22.11011
1219.714, 6.892334
1220.196, 4.632813
1220.678, 15.92310
1221.160, 32.73926
1221.642, 51.86157
1222.124, 61.04175
1222.606, 53.54761
1223.088, 42.34302
1223.571, 42.21436
1224.053, 47.21313
1224.535, 47.90649
1225.017, 46.96265
1225.499, 51.70776
1225.981, 58.30005
1226.463, 53.50000
1226.945, 36.07373
1227.427, 23.37354
1227.910, 24.75610
1228.392, 31.58203
1228.874, 44.12573
1229.356, 55.13452
1229.838, 61.37720
1230.320, 62.30884
1230.802, 53.45166
1231.284, 39.03735
1231.766, 34.92188
1232.249, 47.90186
1232.731, 50.54810
1233.213, 26.40723
1233.695, 18.20923
1234.177, 43.28101
1234.659, 66.81909
1235.141, 67.94800
1235.623, 58.95581
1236.106, 55.69458
1236.588, 57.50928
1237.070, 60.20850
1237.552, 63.74512
1238.034, 72.87183
1238.516, 87.70190
1238.998, 84.58838
1239.480, 56.71729
1239.963, 24.76904
1240.445, 2.538818
1240.927, 4.893066
1241.409, 22.10815
1241.891, 61.45435
1242.373, 68.79907
1242.855, 57.40698
1243.337, 57.00977
1243.819, 67.28369
1244.302, 73.08594
1244.784, 69.15454
1245.266, 54.32886
1245.748, 8.014160
1246.230, 22.63794
1246.712, 3.125732
1247.194, 30.36426
1247.676, 59.86279
1248.158, 80.30664
1248.641, 84.69653
1249.123, 74.44458
1249.605, 63.88599
1250.087, 47.67554
1250.569, 47.43604
1251.051, 77.37915
1251.533, 92.00049
1252.015, 77.38477
1252.498, 50.44580
1252.980, 16.77637
1253.462, 9.059570
1253.944, 1.838867
1254.426, 41.33374
1254.908, 55.26855
1255.390, 47.31641
1255.872, 51.14038
1256.354, 68.03076
1256.837, 80.14551
1257.319, 81.35718
1257.801, 73.00073
1258.283, 50.26001
1258.765, 31.48486
1259.247, 29.92651
1259.729, 34.78564
1260.211, 33.63403
1260.693, 28.92310
1261.176, 17.44604
1261.658, 18.34546
1262.140, 17.44922
1262.622, 12.99194
1263.104, 15.11938
1263.586, 37.08789
1264.068, 51.34131
1264.550, 36.87988
1265.033, 24.63477
1265.515, 24.14404
1265.997, 27.75244
1266.479, 29.16846
1266.961, 29.93677
1267.443, 38.41382
1267.925, 59.31958
1268.407, 59.80176
1268.890, 37.78198
1269.372, 15.99170
1269.854, 1.262695
1270.336, 1.800537
1270.818, 23.12988
1271.300, 47.26172
1271.782, 53.37158
1272.264, 46.24194
1272.746, 26.67236
1273.229, 4.284668
1273.711, 0.2941890
1274.193, 6.521240
1274.675, 6.925781
1275.157, 0.0000000E+00
##END=



