##NAMES=Iridium
##RRUFFID=R070258
##IDEAL CHEMISTRY=Ir
##LOCALITY=Fox Gulch, Salmon River - Red Mountain district, Goodnews Bay, Bethel Borough, Alaska, USA
##OWNER=RRUFF
##SOURCE=Michael Scott
##DESCRIPTION=Metallic gray single grain
##STATUS=The identification of this mineral is not yet confirmed.
##URL=rruff.info/R070258
170.3929, 0.0000000E+00
170.8750, 0.4731450
171.3571, 7.3486000E-02
171.8392, 0.4768070
172.3213, 3.291992
172.8034, 9.372803
173.2856, 17.78271
173.7677, 18.48242
174.2498, 15.60742
174.7319, 11.63428
175.2140, 5.215088
175.6961, 0.7326660
176.1783, 1.177002
176.6604, 6.126221
177.1425, 16.68506
177.6246, 26.91357
178.1067, 36.34399
178.5888, 42.75513
179.0710, 43.20679
179.5531, 39.29907
180.0352, 34.10107
180.5173, 27.33569
180.9994, 20.66064
181.4815, 17.24731
181.9637, 17.01733
182.4458, 17.57275
182.9279, 16.35254
183.4100, 14.08008
183.8921, 13.56250
184.3742, 16.07983
184.8564, 20.73413
185.3385, 26.12207
185.8206, 32.35522
186.3027, 36.83008
186.7848, 33.66797
187.2669, 24.44141
187.7491, 21.12158
188.2312, 29.34717
188.7133, 46.69531
189.1954, 68.58276
189.6775, 97.32227
190.1596, 119.3809
190.6418, 111.5076
191.1239, 74.55933
191.6060, 43.22241
192.0881, 33.24194
192.5702, 42.47266
193.0524, 54.53833
193.5345, 71.53516
194.0166, 85.87646
194.4987, 80.20947
194.9808, 52.74658
195.4629, 32.23047
195.9451, 39.58423
196.4272, 74.08350
196.9093, 87.23364
197.3914, 72.27979
197.8735, 44.21289
198.3556, 29.92456
198.8378, 30.74829
199.3199, 42.63330
199.8020, 64.05786
200.2841, 93.54712
200.7662, 110.3538
201.2483, 110.5703
201.7305, 100.7510
202.2126, 93.31299
202.6947, 86.73071
203.1768, 83.69165
203.6589, 88.73730
204.1410, 104.0459
204.6232, 110.8271
205.1053, 105.5322
205.5874, 92.59082
206.0695, 85.71509
206.5516, 85.17993
207.0337, 89.99194
207.5159, 103.0674
207.9980, 128.2786
208.4801, 140.7583
208.9622, 132.5110
209.4443, 109.2910
209.9264, 100.0781
210.4086, 108.5618
210.8907, 123.7141
211.3728, 139.2957
211.8549, 158.6111
212.3370, 166.6543
212.8191, 156.7937
213.3013, 132.2100
213.7834, 121.1177
214.2655, 130.3887
214.7476, 142.1135
215.2297, 139.8484
215.7118, 118.3818
216.1940, 96.94604
216.6761, 77.01636
217.1582, 58.83398
217.6403, 51.83105
218.1224, 62.23193
218.6045, 75.54492
219.0867, 76.99292
219.5688, 61.19263
220.0509, 45.98608
220.5330, 34.57739
221.0151, 26.85132
221.4972, 23.28223
221.9794, 25.68188
222.4615, 30.20361
222.9436, 33.16870
223.4257, 35.14478
223.9078, 34.24512
224.3899, 28.96558
224.8721, 18.70190
225.3542, 11.98755
225.8363, 11.06445
226.3184, 11.53638
226.8005, 7.564209
227.2827, 4.580322
227.7648, 14.10352
228.2469, 18.83667
228.7290, 18.78491
229.2111, 12.44043
229.6932, 5.910645
230.1754, 25.82983
230.6575, 32.94092
231.1396, 20.10864
231.6217, 6.845215
232.1038, 1.798340
232.5859, 5.226318
233.0681, 7.202881
233.5502, 7.894043
234.0323, 7.107178
234.5144, 3.882568
234.9965, 4.652344
235.4786, 10.38599
235.9608, 9.916992
236.4429, 1.180420
236.9250, 4.341309
237.4071, 6.353027
237.8892, 5.292969
238.3713, 1.634033
238.8535, 5.594727
239.3356, 13.90723
239.8177, 23.83057
240.2998, 37.92017
240.7819, 42.99512
241.2640, 33.67310
241.7462, 18.59448
242.2283, 13.48462
242.7104, 25.57520
243.1925, 35.80811
243.6746, 35.96533
244.1567, 19.95801
244.6389, 15.03149
245.1210, 27.22632
245.6031, 46.86572
246.0852, 56.38989
246.5673, 50.98486
247.0494, 43.61108
247.5316, 38.15649
248.0137, 34.12158
248.4958, 34.12109
248.9779, 40.26904
249.4600, 49.25854
249.9421, 54.76807
250.4243, 55.85620
250.9064, 55.19263
251.3885, 52.47290
251.8706, 44.78052
252.3527, 45.86572
252.8348, 60.31323
253.3170, 80.51562
253.7991, 90.64990
254.2812, 84.11890
254.7633, 79.98535
255.2454, 87.99023
255.7275, 115.0740
256.2097, 126.9614
256.6918, 116.8596
257.1739, 96.05908
257.6560, 86.07861
258.1381, 91.93652
258.6202, 98.35522
259.1024, 100.2583
259.5845, 97.65063
260.0666, 89.39038
260.5487, 71.67725
261.0308, 51.22534
261.5129, 40.20581
261.9951, 41.14282
262.4772, 45.69775
262.9593, 51.70972
263.4414, 60.39819
263.9235, 64.73047
264.4056, 63.40942
264.8878, 59.00537
265.3699, 56.30396
265.8520, 56.23828
266.3341, 55.17505
266.8162, 50.48901
267.2983, 40.76929
267.7805, 36.95142
268.2626, 40.43701
268.7447, 48.30762
269.2268, 56.27808
269.7089, 64.86890
270.1910, 71.64819
270.6732, 75.59570
271.1553, 76.48340
271.6374, 76.28027
272.1195, 74.95239
272.6016, 72.57935
273.0837, 68.33179
273.5659, 61.33032
274.0480, 56.91211
274.5301, 59.02393
275.0122, 68.06714
275.4943, 70.29102
275.9764, 63.79272
276.4586, 54.05688
276.9407, 49.58496
277.4228, 50.99243
277.9049, 52.47583
278.3870, 51.95239
278.8691, 49.47192
279.3513, 46.00439
279.8334, 41.32202
280.3155, 36.23462
280.7976, 30.50269
281.2798, 23.94336
281.7619, 21.75049
282.2440, 28.24658
282.7261, 41.84033
283.2082, 50.50024
283.6903, 53.93213
284.1725, 53.50146
284.6546, 48.67065
285.1367, 39.48730
285.6188, 33.10596
286.1009, 33.23560
286.5830, 38.81714
287.0652, 46.42554
287.5473, 57.09741
288.0294, 64.41602
288.5115, 58.59253
288.9936, 41.39844
289.4757, 27.51318
289.9579, 21.18750
290.4400, 21.60596
290.9221, 29.58105
291.4042, 45.93408
291.8863, 60.44409
292.3684, 60.35132
292.8506, 48.77344
293.3327, 38.79199
293.8148, 33.94556
294.2969, 33.56885
294.7790, 37.58643
295.2611, 46.15210
295.7433, 54.93213
296.2254, 61.73999
296.7075, 66.03369
297.1896, 66.08789
297.6717, 60.88892
298.1538, 51.81421
298.6360, 39.23438
299.1181, 23.44995
299.6002, 9.110840
300.0823, 2.125488
300.5644, 9.291016
301.0465, 9.840820
301.5287, 0.8833010
302.0108, 13.46167
302.4929, 15.17407
302.9750, 7.924316
303.4571, 2.385498
303.9392, 6.340088
304.4214, 16.15186
304.9035, 28.56616
305.3856, 47.56006
305.8677, 60.71143
306.3498, 49.98486
306.8319, 21.93311
307.3141, 0.4924320
307.7962, 3.140869
308.2783, 15.97827
308.7604, 19.96338
309.2425, 5.789795
309.7246, 5.369629
310.2068, 5.328125
310.6889, 30.29883
311.1710, 49.96265
311.6531, 48.77539
312.1352, 42.40918
312.6173, 43.27222
313.0995, 56.30176
313.5816, 67.80957
314.0637, 69.60742
314.5458, 65.57495
315.0279, 63.08057
315.5100, 68.54639
315.9922, 73.57886
316.4743, 72.65747
316.9564, 63.27051
317.4385, 55.73535
317.9206, 57.67041
318.4027, 62.53833
318.8849, 61.19995
319.3670, 40.93213
319.8491, 23.07520
320.3312, 16.47388
320.8133, 23.44336
321.2954, 31.49878
321.7776, 40.34253
322.2597, 48.32837
322.7418, 53.69897
323.2239, 52.83350
323.7060, 52.69189
324.1881, 55.43628
324.6703, 61.44800
325.1524, 66.28979
325.6345, 74.50195
326.1166, 78.77539
326.5987, 73.08472
327.0808, 35.29956
327.5630, 13.72925
328.0451, 21.57397
328.5272, 57.00244
329.0093, 80.18579
329.4914, 85.96582
329.9735, 83.70166
330.4557, 78.10522
330.9378, 61.11987
331.4199, 55.82178
331.9020, 72.16382
332.3841, 102.9265
332.8662, 110.6182
333.3484, 81.43506
333.8305, 49.96997
334.3126, 35.99341
334.7947, 46.23145
335.2768, 53.38696
335.7589, 54.92554
336.2411, 53.29028
336.7232, 55.23877
337.2053, 62.15503
337.6874, 68.52466
338.1695, 71.71802
338.6516, 71.40527
339.1338, 70.62451
339.6159, 69.87402
340.0980, 67.92896
340.5801, 59.40649
341.0622, 42.60254
341.5443, 34.85303
342.0265, 50.27075
342.5086, 84.78613
342.9907, 99.07666
343.4728, 89.94287
343.9549, 72.58374
344.4370, 63.89404
344.9192, 63.77197
345.4013, 67.87891
345.8834, 80.79346
346.3655, 95.71509
346.8476, 88.08643
347.3297, 57.08032
347.8119, 28.15649
348.2940, 30.69116
348.7761, 55.43530
349.2582, 75.55200
349.7403, 83.11621
350.2225, 80.75000
350.7046, 72.26855
351.1867, 58.90625
351.6688, 49.08887
352.1509, 50.72998
352.6331, 59.29248
353.1152, 70.21753
353.5973, 85.61255
354.0794, 94.91626
354.5615, 80.81055
355.0436, 51.75513
355.5258, 32.65430
356.0079, 46.83057
356.4900, 71.23389
356.9721, 86.07471
357.4542, 87.27466
357.9363, 82.85132
358.4185, 73.31958
358.9006, 61.51245
359.3827, 52.30396
359.8648, 46.56177
360.3469, 44.87036
360.8290, 49.06470
361.3112, 60.29272
361.7933, 69.74536
362.2754, 71.05396
362.7575, 70.88745
363.2396, 76.45532
363.7217, 104.3826
364.2039, 122.2158
364.6860, 115.3574
365.1681, 83.34375
365.6502, 62.46582
366.1323, 60.89575
366.6144, 69.07935
367.0966, 80.66943
367.5787, 105.6604
368.0608, 121.0630
368.5429, 119.5334
369.0250, 105.3533
369.5071, 100.7600
369.9893, 112.2383
370.4714, 125.7163
370.9535, 135.4351
371.4356, 144.0476
371.9177, 141.8005
372.3998, 123.8000
372.8820, 97.23291
373.3641, 77.81641
373.8462, 66.38232
374.3283, 60.05859
374.8104, 58.96460
375.2925, 63.66187
375.7747, 67.16162
376.2568, 69.66699
376.7389, 70.67163
377.2210, 69.18506
377.7031, 64.90479
378.1852, 60.04907
378.6674, 54.86523
379.1495, 49.78149
379.6316, 45.81567
380.1137, 42.76343
380.5958, 42.86157
381.0779, 51.24512
381.5601, 65.79224
382.0422, 75.05469
382.5243, 75.51001
383.0064, 70.96777
383.4885, 67.13135
383.9706, 64.01025
384.4528, 61.51538
384.9349, 58.93433
385.4170, 57.09155
385.8991, 58.71191
386.3812, 66.17017
386.8633, 70.75122
387.3455, 59.52393
387.8276, 38.96924
388.3097, 23.94287
388.7918, 25.22485
389.2739, 33.08130
389.7560, 40.96606
390.2382, 48.54370
390.7203, 54.04712
391.2024, 55.20532
391.6845, 54.19873
392.1666, 53.57373
392.6487, 49.96265
393.1309, 50.85693
393.6130, 65.36377
394.0951, 91.40088
394.5772, 104.5381
395.0593, 88.59009
395.5414, 64.11475
396.0236, 44.04688
396.5057, 27.40820
396.9878, 18.47705
397.4699, 24.61694
397.9520, 40.04004
398.4341, 45.39600
398.9163, 27.84888
399.3984, 12.64331
399.8805, 10.53125
400.3626, 29.85889
400.8447, 36.62402
401.3268, 23.35205
401.8090, 3.021484
402.2911, 6.054932
402.7732, 0.8227540
403.2553, 8.186279
403.7374, 20.37598
404.2195, 35.30127
404.7017, 42.96826
405.1838, 42.48682
405.6659, 35.39160
406.1480, 17.07275
406.6301, 12.95947
407.1122, 23.47485
407.5944, 2.033447
408.0765, 35.12769
408.5586, 48.71484
409.0407, 39.15723
409.5228, 22.52783
410.0049, 4.441895
410.4871, 12.37842
410.9692, 19.46045
411.4513, 14.73730
411.9334, 6.427979
412.4155, 4.243164
412.8976, 6.270752
413.3798, 7.072266
413.8619, 5.767822
414.3440, 1.214844
414.8261, 12.14868
415.3082, 34.27637
415.7903, 48.32593
416.2725, 35.37720
416.7546, 11.38403
417.2367, 5.874023
417.7188, 7.138672
418.2009, 4.221680
418.6830, 0.2617190
419.1652, 4.111572
419.6473, 6.355957
420.1294, 1.433105
420.6115, 2.716553
421.0937, 1.341064
421.5758, 9.061279
422.0579, 18.68115
422.5400, 29.37305
423.0221, 37.92310
423.5042, 39.09106
423.9864, 21.08691
424.4685, 8.854980
424.9506, 11.04004
425.4327, 29.83765
425.9148, 39.04272
426.3969, 32.25391
426.8791, 23.10767
427.3612, 23.96851
427.8433, 39.34155
428.3254, 50.59741
428.8075, 55.04297
429.2896, 53.60767
429.7718, 48.10156
430.2539, 37.55396
430.7360, 28.04175
431.2181, 22.05103
431.7002, 21.58252
432.1823, 30.68286
432.6645, 51.40967
433.1466, 70.89307
433.6287, 62.70361
434.1108, 32.65698
434.5929, 9.822266
435.0750, 11.59546
435.5572, 25.88892
436.0393, 30.94897
436.5214, 27.22095
437.0035, 24.20605
437.4856, 34.48340
437.9677, 48.57324
438.4499, 52.02686
438.9320, 35.08032
439.4141, 17.05640
439.8962, 11.61719
440.3783, 15.83960
440.8604, 22.08618
441.3426, 28.63379
441.8247, 34.92603
442.3068, 41.76685
442.7889, 50.49365
443.2710, 53.66406
443.7531, 42.51636
444.2353, 27.44263
444.7174, 19.83472
445.1995, 31.91138
445.6816, 41.45776
446.1637, 40.86548
446.6458, 31.80566
447.1280, 29.02588
447.6101, 38.17896
448.0922, 47.52490
448.5743, 50.15991
449.0564, 42.96680
449.5385, 36.89551
450.0207, 30.67944
450.5028, 27.10205
450.9849, 34.26685
451.4670, 55.22217
451.9491, 70.92993
452.4312, 72.16553
452.9134, 60.94897
453.3955, 54.13257
453.8776, 52.48486
454.3597, 49.89722
454.8418, 34.12793
455.3239, 10.56006
455.8061, 4.531982
456.2882, 29.60425
456.7703, 62.36768
457.2524, 66.54517
457.7345, 48.03125
458.2166, 30.94043
458.6988, 32.04712
459.1809, 40.94287
459.6630, 47.94434
460.1451, 52.23462
460.6272, 51.45337
461.1093, 37.01147
461.5915, 18.09375
462.0736, 6.475586
462.5557, 10.70410
463.0378, 18.28809
463.5199, 25.17334
464.0020, 31.45483
464.4842, 38.06396
464.9663, 49.25781
465.4484, 60.12451
465.9305, 66.30737
466.4126, 68.77173
466.8947, 63.60864
467.3769, 41.06250
467.8590, 15.16113
468.3411, 10.61328
468.8232, 44.11523
469.3053, 67.07666
469.7874, 61.73560
470.2696, 30.09424
470.7517, 17.00098
471.2338, 26.16138
471.7159, 42.82617
472.1980, 56.22559
472.6801, 66.38306
473.1623, 73.07886
473.6444, 76.61890
474.1265, 76.30054
474.6086, 67.86353
475.0907, 52.30151
475.5728, 40.03931
476.0550, 37.94800
476.5371, 42.36548
477.0192, 48.38770
477.5013, 55.78516
477.9834, 61.78857
478.4655, 64.69971
478.9477, 65.09351
479.4298, 63.48193
479.9119, 59.34741
480.3940, 53.31201
480.8761, 45.23975
481.3582, 35.47729
481.8404, 25.07788
482.3225, 5.433105
482.8046, 7.375000
483.2867, 2.614014
483.7688, 28.99536
484.2509, 49.00073
484.7331, 44.14941
485.2152, 31.35693
485.6973, 26.34888
486.1794, 33.87256
486.6615, 41.73730
487.1436, 52.11426
487.6258, 61.79126
488.1079, 50.46021
488.5900, 7.407959
489.0721, 26.78198
489.5542, 22.51538
490.0363, 20.67017
490.5185, 43.76855
491.0006, 41.57617
491.4827, 30.95020
491.9648, 36.37109
492.4470, 53.96338
492.9291, 62.08032
493.4112, 45.01294
493.8933, 21.47949
494.3754, 25.45776
494.8575, 52.73438
495.3397, 76.38745
495.8218, 75.16528
496.3039, 63.01880
496.7860, 54.81519
497.2681, 53.15576
497.7502, 53.40942
498.2324, 54.67676
498.7145, 56.09839
499.1966, 56.53442
499.6787, 56.07617
500.1608, 54.12256
500.6429, 51.85083
501.1251, 48.90527
501.6072, 39.85742
502.0893, 12.30298
502.5714, 10.90601
503.0535, 18.38354
503.5356, 3.432861
504.0178, 11.79395
504.4999, 29.57764
504.9820, 45.37451
505.4641, 51.72241
505.9462, 47.16797
506.4283, 40.28564
506.9105, 31.66748
507.3926, 23.01733
507.8747, 22.12622
508.3568, 29.30884
508.8389, 38.60791
509.3210, 50.71118
509.8032, 61.47925
510.2853, 59.38135
510.7674, 40.45508
511.2495, 21.60205
511.7316, 23.57764
512.2137, 38.08789
512.6959, 48.17798
513.1780, 41.02026
513.6601, 31.53174
514.1422, 31.81348
514.6243, 39.80566
515.1064, 44.02002
515.5886, 33.80566
516.0707, 22.73682
516.5528, 19.51807
517.0349, 29.20898
517.5170, 38.40918
517.9991, 45.32764
518.4813, 51.22314
518.9634, 57.73730
519.4455, 66.04199
519.9276, 72.65088
520.4097, 78.66797
520.8918, 83.15039
521.3740, 78.72363
521.8561, 62.56104
522.3382, 46.66895
522.8203, 39.13867
523.3024, 39.58301
523.7845, 40.97217
524.2667, 43.08057
524.7488, 45.64697
525.2309, 49.12842
525.7130, 52.92285
526.1951, 55.31445
526.6772, 55.52295
527.1594, 54.64160
527.6415, 55.89990
528.1236, 58.03955
528.6057, 55.46533
529.0878, 35.84180
529.5699, 16.45605
530.0521, 12.70020
530.5342, 30.46729
531.0163, 45.73730
531.4984, 48.29639
531.9805, 47.66895
532.4626, 50.45020
532.9448, 59.18750
533.4269, 65.67334
533.9090, 70.60400
534.3911, 72.62793
534.8732, 64.37598
535.3553, 36.89600
535.8375, 15.93457
536.3196, 16.09619
536.8017, 38.88818
537.2838, 50.01758
537.7659, 47.30566
538.2480, 40.50879
538.7302, 39.59766
539.2123, 43.96924
539.6944, 49.83105
540.1765, 57.13525
540.6586, 63.05420
541.1407, 64.24512
541.6229, 62.38037
542.1050, 61.80176
542.5871, 70.32422
543.0692, 77.92480
543.5513, 71.66992
544.0334, 51.13867
544.5156, 36.76123
544.9977, 47.71240
545.4798, 63.63428
545.9619, 66.58154
546.4440, 33.85254
546.9261, 14.51758
547.4083, 31.72314
547.8904, 67.73975
548.3725, 85.25146
548.8546, 73.68262
549.3367, 61.07959
549.8188, 53.56641
550.3010, 50.86475
550.7831, 51.00342
551.2652, 55.62061
551.7473, 57.59912
552.2294, 48.33789
552.7115, 29.54785
553.1937, 21.71045
553.6758, 27.95605
554.1579, 41.46045
554.6400, 60.61670
555.1221, 80.81299
555.6042, 87.87354
556.0864, 66.14307
556.5685, 40.02344
557.0506, 34.15283
557.5327, 45.25000
558.0148, 56.48242
558.4969, 62.48340
558.9791, 64.35107
559.4612, 60.53467
559.9433, 49.00098
560.4254, 40.47900
560.9075, 42.54541
561.3896, 47.72852
561.8718, 47.50000
562.3539, 34.31885
562.8360, 27.39014
563.3181, 29.96240
563.8002, 38.77393
564.2823, 48.71924
564.7645, 62.31787
565.2466, 64.61768
565.7287, 43.16895
566.2108, 5.057129
566.6929, 13.28076
567.1750, 11.18652
567.6572, 1.496094
568.1393, 6.338379
568.6214, 13.79395
569.1035, 25.45117
569.5856, 44.46973
570.0677, 58.15186
570.5499, 47.21191
571.0320, 25.93896
571.5141, 16.88184
571.9962, 49.14990
572.4783, 74.43945
572.9604, 63.74707
573.4426, 25.54346
573.9247, 4.331543
574.4068, 22.34766
574.8889, 45.25732
575.3710, 61.70166
575.8531, 71.91797
576.3353, 72.00049
576.8174, 55.65137
577.2995, 38.48389
577.7816, 39.18066
578.2637, 60.50635
578.7458, 68.36084
579.2280, 54.67188
579.7101, 31.19678
580.1922, 17.05908
580.6743, 11.47217
581.1564, 9.993652
581.6385, 12.82031
582.1207, 17.38379
582.6028, 18.66553
583.0849, 17.49121
583.5670, 20.49219
584.0491, 39.87354
584.5313, 59.68457
585.0134, 66.10400
585.4955, 52.59717
585.9776, 40.35693
586.4597, 33.15479
586.9418, 30.69629
587.4240, 33.59912
587.9061, 57.61865
588.3882, 60.65088
588.8703, 22.87793
589.3524, 34.60547
589.8345, 43.06445
590.3167, 11.56836
590.7988, 61.31152
591.2809, 73.77197
591.7630, 56.24463
592.2451, 43.93799
592.7272, 37.00977
593.2094, 31.40527
593.6915, 22.10352
594.1736, 12.05762
594.6557, 6.907715
595.1378, 7.832520
595.6199, 12.78174
596.1021, 24.47021
596.5842, 38.11572
597.0663, 46.93115
597.5485, 48.56641
598.0306, 44.94287
598.5127, 29.31689
598.9948, 6.922852
599.4769, 0.5249020
599.9590, 27.75830
600.4412, 51.21777
600.9233, 58.38428
601.4054, 48.46533
601.8875, 33.58496
602.3696, 9.677246
602.8517, 8.926270
603.3339, 7.239746
603.8160, 13.22266
604.2981, 34.49951
604.7802, 55.57324
605.2623, 72.96143
605.7444, 79.91455
606.2266, 79.22852
606.7087, 78.31738
607.1908, 85.92627
607.6729, 88.24902
608.1550, 68.10840
608.6371, 32.53955
609.1193, 3.780762
609.6014, 11.85156
610.0835, 16.08398
610.5656, 4.116699
611.0477, 28.01904
611.5298, 45.30518
612.0120, 35.37549
612.4941, 21.49463
612.9762, 21.54541
613.4583, 44.27783
613.9404, 45.62598
614.4225, 14.51172
614.9047, 21.90381
615.3868, 18.12402
615.8689, 22.31201
616.3510, 50.99072
616.8331, 49.03125
617.3152, 34.32617
617.7974, 34.69727
618.2795, 46.57812
618.7616, 56.15332
619.2437, 51.03369
619.7258, 44.22852
620.2079, 47.69043
620.6901, 61.85498
621.1722, 71.48828
621.6543, 63.64844
622.1364, 54.93896
622.6185, 58.13184
623.1006, 88.24756
623.5828, 97.08057
624.0649, 71.94873
624.5470, 36.24023
625.0291, 21.33545
625.5112, 31.74512
625.9933, 41.82812
626.4755, 47.93359
626.9576, 49.33105
627.4397, 39.82520
627.9218, 21.49023
628.4039, 10.13818
628.8860, 20.47900
629.3682, 38.69141
629.8503, 47.26904
630.3324, 46.67334
630.8145, 40.61377
631.2966, 22.12158
631.7787, 5.332520
632.2609, 3.003418
632.7430, 22.35938
633.2251, 33.87354
633.7072, 23.02588
634.1893, 7.355469
634.6714, 1.297852
635.1536, 8.376465
635.6357, 18.05859
636.1178, 31.68018
636.5999, 45.24707
637.0820, 51.00488
637.5641, 48.69922
638.0463, 42.44629
638.5284, 28.37939
639.0105, 15.68896
639.4926, 31.17578
639.9747, 69.06738
640.4568, 95.50879
640.9390, 77.50098
641.4211, 47.01807
641.9032, 33.84619
642.3853, 40.11230
642.8674, 49.29004
643.3495, 56.56152
643.8317, 63.26416
644.3138, 71.29834
644.7959, 88.30859
645.2780, 90.54590
645.7601, 66.44971
646.2422, 37.72852
646.7244, 32.97217
647.2065, 56.53662
647.6886, 70.95117
648.1707, 71.75439
648.6528, 61.23096
649.1349, 42.97314
649.6171, 19.18750
650.0992, 4.822754
650.5813, 14.13037
651.0634, 32.14697
651.5455, 40.60205
652.0276, 41.08838
652.5098, 41.65625
652.9919, 52.51465
653.4740, 60.25049
653.9561, 53.16650
654.4382, 26.16309
654.9203, 8.932617
655.4025, 5.561523
655.8846, 12.62305
656.3667, 31.29932
656.8488, 71.98389
657.3309, 91.37793
657.8130, 83.34961
658.2952, 62.58008
658.7773, 45.04541
659.2594, 31.27393
659.7415, 31.18945
660.2236, 53.68896
660.7057, 80.10596
661.1879, 81.08301
661.6700, 64.71240
662.1521, 52.50879
662.6342, 59.84131
663.1163, 70.58545
663.5984, 75.35352
664.0806, 74.43262
664.5627, 72.52832
665.0448, 72.48340
665.5269, 69.97314
666.0090, 61.15283
666.4911, 43.86914
666.9733, 37.73926
667.4554, 46.15625
667.9375, 57.79639
668.4196, 65.80273
668.9017, 69.65967
669.3839, 63.94043
669.8660, 46.27295
670.3481, 28.15918
670.8302, 26.08398
671.3123, 33.44531
671.7944, 34.88281
672.2766, 18.40771
672.7587, 5.607910
673.2408, 23.47607
673.7229, 56.03467
674.2050, 70.52148
674.6871, 34.03271
675.1693, 4.457031
675.6514, 1.669922
676.1335, 19.96484
676.6156, 29.52588
677.0977, 26.57178
677.5798, 23.24512
678.0620, 22.63770
678.5441, 25.51270
679.0262, 46.00391
679.5083, 86.05859
679.9904, 114.6274
680.4725, 94.53174
680.9547, 49.83789
681.4368, 21.58740
681.9189, 15.16943
682.4010, 20.83545
682.8831, 42.80811
683.3652, 68.41211
683.8474, 84.75098
684.3295, 88.00488
684.8116, 83.31104
685.2937, 60.57812
685.7758, 7.502441
686.2579, 42.02148
686.7401, 61.35205
687.2222, 66.31055
687.7043, 13.83936
688.1864, 35.53857
688.6685, 27.51953
689.1506, 18.28564
689.6328, 50.43701
690.1149, 6.341309
690.5970, 37.84375
691.0791, 39.17627
691.5612, 54.32324
692.0433, 39.57031
692.5255, 34.05762
693.0076, 58.46582
693.4897, 66.31250
693.9718, 48.18018
694.4539, 64.28955
694.9360, 19.19385
695.4182, 27.76416
695.9003, 59.50928
696.3824, 43.15283
696.8645, 59.78418
697.3466, 63.75000
697.8287, 10.13623
698.3109, 56.67041
698.7930, 59.89893
699.2751, 18.66357
699.7572, 61.77832
700.2393, 26.68213
700.7214, 19.50635
701.2036, 33.34668
701.6857, 25.28760
702.1678, 51.76465
702.6499, 44.97949
703.1320, 35.22461
703.6141, 38.44531
704.0963, 4.915527
704.5784, 39.57764
705.0605, 27.67529
705.5426, 38.94287
706.0247, 55.46191
706.5068, 31.79932
706.9890, 50.68408
707.4711, 3.600586
707.9532, 11.84473
708.4353, 14.19922
708.9174, 51.66748
709.3995, 4.919434
709.8817, 11.52197
710.3638, 42.16357
710.8459, 41.93018
711.3280, 55.10986
711.8101, 28.11768
712.2922, 36.57715
712.7744, 34.85449
713.2565, 68.33301
713.7386, 74.02686
714.2207, 46.21045
714.7028, 18.54053
715.1849, 54.56494
715.6671, 30.22559
716.1492, 38.45557
716.6313, 13.05420
717.1134, 16.69629
717.5955, 19.88281
718.0776, 37.95850
718.5598, 10.89648
719.0419, 42.39551
719.5240, 40.05420
720.0061, 47.68408
720.4882, 54.20850
720.9703, 15.31836
721.4525, 13.66162
721.9346, 65.28223
722.4167, 35.66064
722.8988, 22.43799
723.3809, 20.87646
723.8630, 74.33301
724.3452, 76.65625
724.8273, 17.85889
725.3094, 68.90039
725.7915, 52.37646
726.2736, 55.93506
726.7557, 52.16992
727.2379, 50.57715
727.7200, 21.40088
728.2021, 28.57812
728.6842, 65.31738
729.1663, 51.66699
729.6484, 72.25928
730.1306, 30.45605
730.6127, 25.85840
731.0948, 30.96191
731.5769, 39.63623
732.0590, 19.66064
732.5411, 56.98535
733.0233, 56.16260
733.5054, 22.28223
733.9875, 35.09326
734.4696, 21.41016
734.9517, 21.96924
735.4338, 40.00879
735.9160, 63.12256
736.3981, 87.70020
736.8802, 106.3809
737.3623, 105.8965
737.8444, 68.91699
738.3266, 39.22852
738.8087, 37.60889
739.2908, 51.71826
739.7729, 64.62793
740.2551, 84.11328
740.7372, 85.78271
741.2193, 58.53076
741.7014, 17.78955
742.1835, 0.7958980
742.6656, 7.878906
743.1478, 17.28955
743.6299, 21.42969
744.1120, 24.91895
744.5941, 40.56299
745.0762, 62.56152
745.5583, 73.15674
746.0405, 50.07324
746.5226, 25.40479
747.0047, 18.64014
747.4868, 26.87109
747.9689, 31.15430
748.4510, 23.23193
748.9332, 19.32129
749.4153, 27.89795
749.8974, 46.65283
750.3795, 45.18506
750.8616, 20.64795
751.3438, 1.916016
751.8259, 2.264648
752.3080, 10.10742
752.7901, 10.55469
753.2722, 0.6801760
753.7543, 7.459473
754.2365, 4.398438
754.7186, 18.06445
755.2007, 21.10010
755.6828, 9.333984
756.1649, 3.008301
756.6470, 7.136719
757.1292, 16.18945
757.6113, 29.18018
758.0934, 49.78809
758.5755, 55.10742
759.0576, 41.14404
759.5397, 25.40918
760.0219, 29.83105
760.5040, 47.65576
760.9861, 57.23730
761.4682, 54.51514
761.9503, 46.97461
762.4324, 36.18555
762.9146, 24.89941
763.3967, 18.64551
763.8788, 24.47070
764.3609, 25.75244
764.8430, 13.13184
765.3251, 1.568848
765.8073, 2.510742
766.2894, 16.99902
766.7715, 22.24414
767.2536, 4.276367
767.7357, 22.08838
768.2178, 36.37158
768.7000, 38.16064
769.1821, 24.54199
769.6642, 13.23145
770.1463, 52.24414
770.6284, 75.20361
771.1105, 84.49512
771.5927, 84.73096
772.0748, 66.36816
772.5569, 51.84082
773.0390, 50.72900
773.5211, 56.28271
774.0032, 49.11328
774.4854, 23.51318
774.9675, 6.798828
775.4496, 8.337402
775.9317, 22.92188
776.4138, 44.12207
776.8959, 68.94922
777.3781, 82.21729
777.8602, 66.76660
778.3423, 43.70801
778.8244, 28.68555
779.3065, 20.96387
779.7886, 16.33691
780.2708, 14.80566
780.7529, 14.92578
781.2350, 15.50293
781.7171, 16.89648
782.1992, 24.23486
782.6813, 40.12305
783.1635, 51.28906
783.6456, 48.88281
784.1277, 36.81982
784.6098, 25.99902
785.0919, 16.74561
785.5740, 11.64355
786.0562, 17.75049
786.5383, 24.74756
787.0204, 21.76953
787.5025, 9.084473
787.9846, 1.709961
788.4667, 5.740234
788.9489, 12.47119
789.4310, 19.12158
789.9131, 25.89307
790.3952, 25.56641
790.8773, 15.94531
791.3594, 11.41992
791.8416, 28.28564
792.3237, 56.08984
792.8058, 59.40820
793.2879, 36.99463
793.7700, 16.68750
794.2521, 19.15918
794.7343, 30.99609
795.2164, 42.88867
795.6985, 55.04443
796.1806, 61.03320
796.6627, 61.24268
797.1448, 54.85938
797.6270, 35.83057
798.1091, 0.1313480
798.5912, 6.893555
799.0733, 20.70996
799.5554, 50.96240
800.0375, 49.49414
800.5197, 29.63965
801.0018, 16.33008
801.4839, 12.95801
801.9660, 12.67822
802.4481, 7.577637
802.9302, 6.282715
803.4124, 18.50342
803.8945, 62.15186
804.3766, 80.04443
804.8587, 60.55762
805.3408, 30.36182
805.8229, 11.68115
806.3051, 4.515625
806.7872, 7.871582
807.2693, 23.28760
807.7514, 39.42725
808.2335, 44.85547
808.7156, 43.48975
809.1978, 41.63818
809.6799, 42.19873
810.1620, 37.44238
810.6441, 10.67725
811.1262, 15.33496
811.6083, 16.57080
812.0905, 26.76416
812.5726, 49.63672
813.0547, 44.14307
813.5368, 30.52686
814.0189, 35.31787
814.5010, 54.37793
814.9832, 61.37744
815.4653, 49.70605
815.9474, 37.16895
816.4295, 42.11230
816.9116, 55.03809
817.3937, 65.05273
817.8759, 73.53174
818.3580, 70.80176
818.8401, 39.86621
819.3222, 6.847168
819.8043, 2.368652
820.2864, 17.74854
820.7686, 37.81836
821.2507, 56.86035
821.7328, 70.06934
822.2149, 67.93506
822.6970, 55.04297
823.1791, 41.87549
823.6613, 29.87744
824.1434, 22.22852
824.6255, 26.20166
825.1076, 32.42383
825.5897, 30.86523
826.0718, 6.732422
826.5540, 2.125977
827.0361, 12.62305
827.5182, 35.77832
828.0003, 47.12500
828.4824, 46.68945
828.9645, 44.88916
829.4467, 43.05371
829.9288, 40.83887
830.4109, 36.92773
830.8930, 32.64111
831.3751, 30.31055
831.8572, 32.11523
832.3394, 32.30762
832.8215, 24.51025
833.3036, 16.57227
833.7857, 17.57129
834.2678, 31.81885
834.7499, 42.91162
835.2321, 50.27393
835.7142, 53.28809
836.1963, 48.15479
836.6784, 37.59229
837.1605, 32.73730
837.6426, 37.14600
838.1248, 40.97070
838.6069, 29.61963
839.0890, 16.82080
839.5711, 19.17920
840.0532, 57.31543
840.5353, 78.44775
841.0175, 73.65234
841.4996, 57.27881
841.9817, 40.74854
842.4638, 23.56250
842.9459, 19.96289
843.4280, 34.14893
843.9102, 47.04688
844.3923, 25.63428
844.8744, 7.195313
845.3565, 10.34521
845.8386, 33.47949
846.3207, 71.69824
846.8029, 87.52881
847.2850, 84.78320
847.7671, 63.35840
848.2492, 2.156250
848.7313, 13.80615
849.2134, 30.55078
849.6956, 82.74609
850.1777, 87.17188
850.6598, 56.66064
851.1419, 34.99951
851.6240, 27.59277
852.1061, 26.43115
852.5883, 31.83691
853.0704, 36.59668
853.5525, 31.91406
854.0346, 9.173828
854.5167, 1.087891
854.9988, 16.03076
855.4810, 36.96826
855.9631, 55.56299
856.4452, 71.99121
856.9273, 66.82129
857.4094, 37.15088
857.8915, 8.443359
858.3737, 0.3481450
858.8558, 5.679199
859.3379, 25.20947
859.8200, 60.58154
860.3021, 80.00244
860.7842, 55.30908
861.2664, 24.78711
861.7485, 8.838379
862.2306, 8.101074
862.7127, 17.62793
863.1948, 40.89551
863.6769, 59.53223
864.1591, 57.13867
864.6412, 41.24707
865.1233, 26.66211
865.6054, 14.12939
866.0875, 8.188965
866.5696, 16.22852
867.0518, 27.71875
867.5339, 37.08398
868.0160, 43.89307
868.4981, 48.56348
868.9802, 45.02295
869.4623, 41.35254
869.9445, 45.65332
870.4266, 54.33057
870.9087, 56.87500
871.3908, 53.85498
871.8729, 50.81543
872.3550, 52.75049
872.8372, 54.80273
873.3193, 53.90771
873.8014, 49.77246
874.2835, 41.46777
874.7656, 18.00830
875.2477, 3.739746
875.7299, 7.724609
876.2120, 24.92480
876.6941, 36.10693
877.1762, 41.06592
877.6583, 44.66064
878.1404, 51.31445
878.6226, 56.99512
879.1047, 57.67725
879.5869, 53.74951
880.0690, 46.24072
880.5511, 31.94141
881.0332, 18.11084
881.5153, 0.7949220
881.9974, 12.80518
882.4796, 3.132813
882.9617, 36.14404
883.4438, 61.58203
883.9259, 59.01123
884.4080, 45.02051
884.8901, 49.36084
885.3723, 63.24805
885.8544, 66.39404
886.3365, 42.63428
886.8186, 21.82520
887.3007, 18.28320
887.7828, 25.21777
888.2650, 33.04688
888.7471, 41.30957
889.2292, 52.65625
889.7113, 71.24316
890.1934, 84.08203
890.6755, 65.25244
891.1577, 26.65674
891.6398, 6.176270
892.1219, 13.06396
892.6040, 27.91943
893.0861, 42.16016
893.5682, 55.05859
894.0504, 66.85693
894.5325, 82.18262
895.0146, 80.86914
895.4967, 51.59521
895.9788, 26.58740
896.4609, 41.62598
896.9431, 88.04590
897.4252, 111.7129
897.9073, 109.5933
898.3894, 95.35840
898.8715, 62.58496
899.3536, 34.21436
899.8358, 35.37744
900.3179, 71.51611
900.8000, 93.52734
901.2821, 93.52930
901.7642, 82.89355
902.2463, 60.59424
902.7285, 29.95020
903.2106, 24.05029
903.6927, 43.26953
904.1748, 64.24414
904.6569, 81.69971
905.1390, 88.10938
905.6212, 65.59766
906.1033, 22.57568
906.5854, 5.574707
907.0675, 2.654785
907.5496, 18.10791
908.0317, 36.89502
908.5139, 57.09229
908.9960, 74.08691
909.4781, 87.95508
909.9602, 97.12939
910.4423, 98.59473
910.9244, 94.53906
911.4066, 81.48779
911.8887, 64.75293
912.3708, 54.04395
912.8529, 60.92041
913.3350, 64.56006
913.8171, 63.15967
914.2993, 55.53027
914.7814, 32.95264
915.2635, 7.809570
915.7456, 15.48779
916.2277, 22.72510
916.7098, 70.84082
917.1920, 91.74023
917.6741, 92.79443
918.1562, 81.71484
918.6383, 55.09668
919.1204, 35.07373
919.6025, 35.51807
920.0847, 38.93066
920.5668, 31.21826
921.0489, 8.293457
921.5310, 6.706055
922.0131, 28.88086
922.4952, 51.94531
922.9774, 53.49463
923.4595, 45.99414
923.9416, 54.37109
924.4237, 77.76221
924.9058, 82.58496
925.3879, 20.41455
925.8701, 27.92578
926.3522, 21.76709
926.8343, 30.97559
927.3164, 66.65918
927.7985, 85.01074
928.2806, 90.35303
928.7628, 79.31299
929.2449, 61.36768
929.7270, 47.58252
930.2091, 39.03418
930.6912, 38.30518
931.1733, 61.84229
931.6555, 75.27686
932.1376, 58.07275
932.6197, 28.75830
933.1018, 20.05908
933.5839, 35.83545
934.0660, 43.74805
934.5482, 36.32959
935.0303, 24.18311
935.5124, 16.80762
935.9945, 15.52539
936.4766, 23.74609
936.9587, 46.37500
937.4409, 67.17578
937.9230, 87.57520
938.4051, 98.92529
938.8872, 90.87402
939.3693, 56.74023
939.8514, 42.87646
940.3336, 53.13574
940.8157, 68.51172
941.2978, 77.73389
941.7799, 79.45215
942.2620, 67.05127
942.7441, 41.57617
943.2263, 23.38818
943.7084, 23.90039
944.1905, 30.66406
944.6726, 41.85986
945.1547, 55.29443
945.6368, 55.23389
946.1190, 40.84912
946.6011, 26.63037
947.0832, 17.37939
947.5653, 14.74121
948.0474, 26.58691
948.5295, 47.54248
949.0117, 64.08203
949.4938, 71.47559
949.9759, 73.45166
950.4580, 70.18555
950.9401, 63.49219
951.4222, 51.43652
951.9044, 34.50684
952.3865, 31.79297
952.8686, 48.92578
953.3507, 68.04883
953.8328, 69.37061
954.3149, 61.67236
954.7971, 56.26270
955.2792, 56.79150
955.7613, 53.72412
956.2434, 42.34326
956.7255, 30.99316
957.2076, 24.16943
957.6898, 21.84814
958.1719, 22.97119
958.6540, 27.57520
959.1361, 36.48535
959.6182, 56.55078
960.1003, 76.36133
960.5825, 86.64941
961.0646, 87.49951
961.5467, 81.17334
962.0288, 58.19482
962.5109, 43.79980
962.9930, 46.84229
963.4752, 59.78418
963.9573, 63.46045
964.4394, 58.97510
964.9215, 58.41113
965.4036, 70.86523
965.8857, 76.37646
966.3679, 42.88574
966.8500, 0.3916020
967.3321, 13.93848
967.8142, 32.39453
968.2963, 62.99951
968.7784, 75.66748
969.2606, 76.03369
969.7427, 61.35156
970.2248, 38.70215
970.7069, 38.72217
971.1890, 63.34180
971.6711, 82.88379
972.1533, 73.45459
972.6354, 56.13135
973.1175, 41.09033
973.5996, 29.47461
974.0817, 30.90137
974.5638, 47.46143
975.0460, 64.95850
975.5281, 79.30371
976.0102, 89.38525
976.4923, 92.02686
976.9744, 88.48828
977.4565, 82.47461
977.9387, 69.01025
978.4208, 61.05664
978.9029, 72.64258
979.3850, 87.67871
979.8671, 82.32031
980.3492, 51.95312
980.8314, 27.55078
981.3135, 12.51367
981.7956, 3.444336
982.2777, 5.748535
982.7598, 11.13086
983.2419, 1.128418
983.7241, 34.33008
984.2062, 57.09570
984.6883, 49.88135
985.1704, 39.99268
985.6525, 38.67676
986.1346, 45.71240
986.6168, 63.96191
987.0989, 92.73975
987.5810, 110.5742
988.0631, 98.69971
988.5452, 75.58398
989.0273, 53.07275
989.5095, 33.41064
989.9916, 22.62207
990.4737, 26.12842
990.9558, 32.99023
991.4379, 45.26855
991.9200, 55.56396
992.4022, 46.91699
992.8843, 25.11963
993.3664, 16.52686
993.8485, 27.72998
994.3306, 41.63965
994.8127, 51.35107
995.2949, 55.22510
995.7770, 48.80859
996.2591, 29.49561
996.7412, 22.20752
997.2233, 26.48975
997.7054, 35.27832
998.1876, 46.52051
998.6697, 57.60938
999.1518, 61.71387
999.6339, 59.94922
1000.116, 59.63037
1000.598, 67.96436
1001.080, 73.95459
1001.562, 74.51953
1002.044, 70.13477
1002.527, 61.00830
1003.009, 47.09814
1003.491, 27.49072
1003.973, 0.4047850
1004.455, 22.43066
1004.937, 21.42529
1005.419, 5.572754
1005.901, 20.20996
1006.384, 63.58643
1006.866, 76.95361
1007.348, 35.85986
1007.830, 5.297363
1008.312, 13.82422
1008.794, 4.246582
1009.276, 10.98926
1009.758, 8.576660
1010.240, 15.15088
1010.723, 59.52051
1011.205, 98.25293
1011.687, 95.67920
1012.169, 66.83398
1012.651, 54.38037
1013.133, 65.21533
1013.615, 75.11523
1014.097, 80.70166
1014.580, 83.70020
1015.062, 85.67529
1015.544, 86.95654
1016.026, 89.81055
1016.508, 96.20752
1016.990, 94.43799
1017.472, 70.00684
1017.954, 45.11816
1018.436, 33.06201
1018.919, 33.24268
1019.401, 30.00391
1019.883, 23.33057
1020.365, 19.38818
1020.847, 19.72900
1021.329, 26.14941
1021.811, 47.96582
1022.293, 76.73340
1022.776, 92.05908
1023.258, 87.98291
1023.740, 71.02100
1024.222, 33.22754
1024.704, 2.486816
1025.186, 4.374512
1025.668, 41.58203
1026.150, 58.56641
1026.632, 47.48438
1027.115, 30.35156
1027.597, 12.22070
1028.079, 0.1147460
1028.561, 1.225098
1029.043, 8.265625
1029.525, 20.75146
1030.007, 36.15820
1030.489, 53.78711
1030.972, 78.54834
1031.454, 99.35449
1031.936, 96.45312
1032.418, 78.49707
1032.900, 64.10693
1033.382, 56.23584
1033.864, 57.66992
1034.346, 74.64355
1034.828, 92.31982
1035.311, 90.89844
1035.793, 73.82910
1036.275, 63.31348
1036.757, 61.11523
1037.239, 64.20410
1037.721, 86.42041
1038.203, 99.66504
1038.685, 71.15186
1039.167, 7.900391
1039.650, 16.02246
1040.132, 7.352539
1040.614, 35.02441
1041.096, 54.66162
1041.578, 68.94434
1042.060, 85.15723
1042.542, 98.79248
1043.024, 100.8154
1043.507, 81.60205
1043.989, 64.15332
1044.471, 52.23486
1044.953, 43.61279
1045.435, 36.82520
1045.917, 31.83154
1046.399, 27.76611
1046.881, 24.70850
1047.364, 23.55322
1047.846, 25.44482
1048.328, 28.88867
1048.810, 33.08252
1049.292, 38.08740
1049.774, 43.75684
1050.256, 49.82422
1050.738, 58.28369
1051.220, 70.99805
1051.703, 82.25488
1052.185, 87.30518
1052.667, 83.71240
1053.149, 61.18848
1053.631, 8.820313
1054.113, 19.13916
1054.595, 17.54248
1055.077, 52.21436
1055.559, 46.42578
1056.042, 8.301758
1056.524, 7.270508
1057.006, 1.773926
1057.488, 12.68262
1057.970, 38.75488
1058.452, 62.16895
1058.934, 76.15918
1059.416, 80.60205
1059.899, 74.18164
1060.381, 50.49121
1060.863, 40.97070
1061.345, 50.42969
1061.827, 64.46777
1062.309, 68.14648
1062.791, 66.64062
1063.273, 65.07520
1063.755, 63.46826
1064.238, 65.57324
1064.720, 81.42139
1065.202, 86.45264
1065.684, 68.05176
1066.166, 37.91260
1066.648, 34.37891
1067.130, 51.03760
1067.612, 60.72168
1068.094, 50.03369
1068.577, 42.11621
1069.059, 59.80371
1069.541, 80.87891
1070.023, 82.60156
1070.505, 60.32129
1070.987, 44.63135
1071.469, 34.74805
1071.951, 31.06787
1072.434, 40.33154
1072.916, 51.43799
1073.398, 49.64355
1073.880, 38.16357
1074.362, 28.70312
1074.844, 17.00635
1075.326, 20.74658
1075.808, 49.54980
1076.291, 82.39844
1076.773, 86.86133
1077.255, 70.39160
1077.737, 51.70850
1078.219, 32.46094
1078.701, 20.25732
1079.183, 29.01953
1079.665, 35.54443
1080.147, 22.16895
1080.630, 3.952148
1081.112, 8.698730
1081.594, 58.25537
1082.076, 85.37549
1082.558, 57.41699
1083.040, 18.28857
1083.522, 0.8652340
1084.004, 1.365234
1084.486, 4.456055
1084.969, 22.16748
1085.451, 32.92871
1085.933, 34.23682
1086.415, 37.37891
1086.897, 59.57764
1087.379, 84.94775
1087.861, 79.83301
1088.343, 51.81689
1088.826, 35.21045
1089.308, 50.40234
1089.790, 68.89697
1090.272, 91.88232
1090.754, 108.0298
1091.236, 91.35889
1091.718, 50.62793
1092.200, 28.31006
1092.682, 31.99609
1093.165, 37.02246
1093.647, 16.04834
1094.129, 3.124023
1094.611, 31.49756
1095.093, 90.63818
1095.575, 96.50537
1096.057, 46.32227
1096.539, 11.25635
1097.022, 24.37988
1097.504, 49.67041
1097.986, 57.36768
1098.468, 53.93164
1098.950, 48.05762
1099.432, 35.42334
1099.914, 38.05029
1100.396, 60.30664
1100.879, 83.34912
1101.361, 97.37646
1101.843, 101.0103
1102.325, 86.85010
1102.807, 59.14648
1103.289, 34.65723
1103.771, 18.28760
1104.253, 7.522461
1104.735, 1.143555
1105.218, 2.6366999E-02
1105.700, 7.003906
1106.182, 20.61523
1106.664, 35.32910
1107.146, 50.83301
1107.628, 60.17432
1108.110, 55.92920
1108.592, 47.28760
1109.074, 38.68408
1109.557, 30.05908
1110.039, 18.91455
1110.521, 5.093750
1111.003, 0.1542970
1111.485, 7.471191
1111.967, 19.97998
1112.449, 39.38965
1112.931, 57.51611
1113.414, 65.95410
1113.896, 62.14502
1114.378, 56.97266
1114.860, 50.97363
1115.342, 44.06152
1115.824, 31.49658
1116.306, 21.93408
1116.788, 38.13770
1117.271, 67.06348
1117.753, 79.80957
1118.235, 45.53906
1118.717, 28.46143
1119.199, 39.78662
1119.681, 54.88672
1120.163, 46.20215
1120.645, 22.08398
1121.127, 3.159180
1121.609, 8.645996
1122.092, 6.368164
1122.574, 33.29834
1123.056, 63.09717
1123.538, 62.80566
1124.020, 47.76709
1124.502, 49.05420
1124.984, 64.64844
1125.466, 79.74023
1125.949, 92.68652
1126.431, 93.68799
1126.913, 64.39404
1127.395, 30.17871
1127.877, 6.818848
1128.359, 5.444336
1128.841, 2.006348
1129.323, 18.16064
1129.806, 36.77783
1130.288, 45.57617
1130.770, 53.30469
1131.252, 80.32617
1131.734, 107.4995
1132.216, 101.0874
1132.698, 46.00977
1133.180, 8.222168
1133.662, 10.38525
1134.145, 18.67041
1134.627, 21.84277
1135.109, 18.57715
1135.591, 2.476074
1136.073, 21.59229
1136.555, 40.78955
1137.037, 45.72510
1137.519, 56.38818
1138.001, 80.03125
1138.484, 96.38428
1138.966, 72.75146
1139.448, 29.08594
1139.930, 19.39795
1140.412, 42.62988
1140.894, 61.57715
1141.376, 48.34033
1141.858, 47.13818
1142.341, 81.59521
1142.823, 121.5405
1143.305, 97.19727
1143.787, 26.90039
1144.269, 0.7587890
1144.751, 33.14014
1145.233, 62.76611
1145.715, 34.72900
1146.198, 8.568848
1146.680, 20.41016
1147.162, 60.66797
1147.644, 85.98096
1148.126, 96.93848
1148.608, 96.09863
1149.090, 80.40381
1149.572, 65.44922
1150.054, 69.07275
1150.536, 74.62891
1151.019, 63.69775
1151.501, 34.12500
1151.983, 15.42822
1152.465, 7.161621
1152.947, 13.33252
1153.429, 50.47607
1153.911, 87.95703
1154.393, 90.10596
1154.876, 73.68311
1155.358, 68.25586
1155.840, 81.88135
1156.322, 87.38818
1156.804, 83.02490
1157.286, 78.14600
1157.768, 86.88867
1158.250, 94.93604
1158.733, 76.20703
1159.215, 38.92432
1159.697, 22.55029
1160.179, 47.66650
1160.661, 59.66211
1161.143, 48.08838
1161.625, 34.03760
1162.107, 46.56152
1162.589, 71.12549
1163.072, 85.78662
1163.554, 88.66846
1164.036, 78.78125
1164.518, 34.17139
1165.000, 16.16504
1165.482, 49.55908
1165.964, 100.4683
1166.446, 107.1914
1166.928, 83.60889
1167.411, 57.39697
1167.893, 31.60498
1168.375, 16.47363
1168.857, 17.55469
1169.339, 29.22900
1169.821, 56.58154
1170.303, 87.93164
1170.785, 83.21094
1171.268, 53.05078
1171.750, 32.09082
1172.232, 33.22559
1172.714, 40.07715
1173.196, 52.01709
1173.678, 62.22510
1174.160, 67.16211
1174.642, 66.88037
1175.125, 54.88330
1175.607, 33.42285
1176.089, 25.12109
1176.571, 55.36816
1177.053, 84.96729
1177.535, 101.7788
1178.017, 105.7729
1178.499, 91.23486
1178.981, 56.05469
1179.464, 47.85303
1179.946, 66.13672
1180.428, 82.31055
1180.910, 75.90234
1181.392, 64.07666
1181.874, 51.44531
1182.356, 41.34814
1182.838, 40.75293
1183.320, 50.20508
1183.803, 50.22412
1184.285, 38.81006
1184.767, 33.59375
1185.249, 63.01953
1185.731, 89.11963
1186.213, 75.96582
1186.695, 39.92090
1187.177, 30.80908
1187.660, 51.39014
1188.142, 49.09326
1188.624, 11.41309
1189.106, 17.04834
1189.588, 19.00977
1190.070, 67.41260
1190.552, 82.82568
1191.034, 68.51416
1191.516, 65.36426
1191.999, 75.58887
1192.481, 76.23389
1192.963, 58.37402
1193.445, 43.67188
1193.927, 61.62891
1194.409, 85.95508
1194.891, 86.52393
1195.373, 60.90283
1195.855, 50.39697
1196.338, 56.83838
1196.820, 61.84961
1197.302, 56.46924
1197.784, 50.37305
1198.266, 55.38623
1198.748, 65.43262
1199.230, 73.67969
1199.712, 79.71533
1200.195, 80.99561
1200.677, 77.29053
1201.159, 70.09326
1201.641, 56.81982
1202.123, 44.49268
1202.605, 42.23438
1203.087, 46.70410
1203.569, 54.46631
1204.052, 72.52637
1204.534, 65.54297
1205.016, 27.38037
1205.498, 0.8022460
1205.980, 33.04346
1206.462, 78.34180
1206.944, 82.80225
1207.426, 59.49268
1207.908, 37.75293
1208.391, 20.06543
1208.873, 5.190918
1209.355, 7.629395
1209.837, 13.70898
1210.319, 5.601074
1210.801, 10.00781
1211.283, 28.44971
1211.765, 47.66211
1212.247, 62.21582
1212.730, 75.33154
1213.212, 70.10449
1213.694, 40.90430
1214.176, 11.75635
1214.658, 9.291504
1215.140, 16.87256
1215.622, 9.188477
1216.104, 8.273438
1216.587, 5.596680
1217.069, 69.97559
1217.551, 101.7700
1218.033, 81.92432
1218.515, 51.64697
1218.997, 63.92090
1219.479, 86.32129
1219.961, 76.30957
1220.443, 34.09277
1220.926, 13.92969
1221.408, 23.86035
1221.890, 31.85449
1222.372, 30.20068
1222.854, 25.07812
1223.336, 24.26904
1223.818, 24.14600
1224.300, 17.23682
1224.782, 2.807617
1225.265, 6.860840
1225.747, 33.22803
1226.229, 61.83838
1226.711, 91.36865
1227.193, 107.6924
1227.675, 78.41309
1228.157, 35.13525
1228.639, 17.04932
1229.122, 30.94580
1229.604, 40.80029
1230.086, 46.72363
1230.568, 49.08740
1231.050, 49.21484
1231.532, 43.26221
1232.014, 11.72070
1232.496, 19.99463
1232.979, 13.77979
1233.461, 39.01416
1233.943, 66.40381
1234.425, 66.58301
1234.907, 51.50195
1235.389, 13.43262
1235.871, 15.53223
1236.353, 9.597656
1236.835, 55.31104
1237.318, 76.62012
1237.800, 69.41162
1238.282, 55.35889
1238.764, 34.17969
1239.246, 28.18994
1239.728, 70.32275
1240.210, 107.3999
1240.692, 75.29248
1241.175, 21.03662
1241.657, 13.54297
1242.139, 66.81104
1242.621, 74.31396
1243.103, 39.34863
1243.585, 10.30859
1244.067, 26.97705
1244.549, 49.72314
1245.031, 53.71289
1245.514, 45.98682
1245.996, 36.37207
1246.478, 24.24268
1246.960, 15.26270
1247.442, 9.796387
1247.924, 14.58203
1248.406, 39.75439
1248.888, 69.90576
1249.370, 112.4873
1249.853, 144.8154
1250.335, 126.9160
1250.817, 61.10400
1251.299, 38.09277
1251.781, 58.79980
1252.263, 81.47705
1252.745, 79.19580
1253.227, 72.32910
1253.710, 72.85986
1254.192, 75.87842
1254.674, 77.74902
1255.156, 78.28271
1255.638, 76.77783
1256.120, 72.65234
1256.602, 73.28857
1257.084, 89.46289
1257.567, 97.70752
1258.049, 89.28955
1258.531, 71.86816
1259.013, 52.74365
1259.495, 34.30859
1259.977, 27.34033
1260.459, 31.38916
1260.941, 36.14990
1261.423, 31.08252
1261.906, 35.60010
1262.388, 59.32178
1262.870, 85.15234
1263.352, 83.45654
1263.834, 65.40332
1264.316, 55.96875
1264.798, 60.31104
1265.280, 57.85791
1265.762, 27.61963
1266.245, 3.275879
1266.727, 5.063477
1267.209, 1.956543
1267.691, 48.12744
1268.173, 101.9092
1268.655, 96.64990
1269.137, 32.19727
1269.619, 8.755371
1270.102, 55.80957
1270.584, 88.26660
1271.066, 86.11865
1271.548, 68.22363
1272.030, 53.36963
1272.512, 41.25244
1272.994, 23.63721
1273.476, 3.445313
1273.958, 19.72949
1274.441, 87.58203
1274.923, 115.3589
1275.405, 74.70312
1275.887, 25.78125
1276.369, 34.57129
1276.851, 62.78174
1277.333, 75.56787
1277.815, 73.45557
1278.297, 75.13428
1278.780, 81.42285
1279.262, 77.46143
1279.744, 57.29297
1280.226, 42.07275
1280.708, 56.72070
1281.190, 75.01807
1281.672, 76.65967
1282.154, 69.90869
1282.637, 66.65381
1283.119, 65.88867
1283.601, 63.73145
1284.083, 59.21777
1284.565, 49.47656
1285.047, 19.22852
1285.529, 0.3500980
1286.011, 6.146973
1286.494, 29.96191
1286.976, 49.43213
1287.458, 64.23535
1287.940, 72.10742
1288.422, 72.02002
1288.904, 69.88672
1289.386, 71.93018
1289.868, 65.12744
1290.350, 40.86035
1290.833, 9.453613
1291.315, 2.666016
1291.797, 8.0077998E-02
1292.279, 8.420410
1292.761, 22.24951
1293.243, 33.95361
1293.725, 29.07812
1294.207, 26.26611
1294.689, 40.65527
1295.172, 47.35596
1295.654, 0.0000000E+00
##END=



