##NAMES=Iridium
##RRUFFID=R070258
##IDEAL CHEMISTRY=Ir
##LOCALITY=Fox Gulch, Salmon River - Red Mountain district, Goodnews Bay, Bethel Borough, Alaska, USA
##OWNER=RRUFF
##SOURCE=Michael Scott
##DESCRIPTION=Metallic gray single grain
##STATUS=The identification of this mineral is not yet confirmed.
##URL=rruff.info/R070258
195.2654, 0.0000000E+00
195.7475, 6.058838
196.2296, 0.4074710
196.7117, 1.413330
197.1938, 18.65210
197.6759, 38.71509
198.1581, 49.92627
198.6402, 48.47461
199.1223, 40.19800
199.6044, 35.80273
200.0865, 36.71851
200.5686, 38.77466
201.0508, 44.18555
201.5329, 48.82007
202.0150, 47.85547
202.4971, 40.45630
202.9792, 31.83105
203.4613, 30.91992
203.9435, 42.69409
204.4256, 50.98584
204.9077, 55.84937
205.3898, 57.06885
205.8719, 52.11157
206.3540, 41.52173
206.8362, 30.90161
207.3183, 28.59399
207.8004, 38.79077
208.2825, 46.77612
208.7646, 50.91577
209.2467, 54.32178
209.7289, 60.10303
210.2110, 68.48535
210.6931, 74.66187
211.1752, 72.93359
211.6573, 61.73779
212.1395, 50.97705
212.6216, 38.13818
213.1037, 28.39355
213.5858, 23.01196
214.0679, 21.58081
214.5500, 24.99585
215.0322, 35.15601
215.5143, 54.52393
215.9964, 65.23315
216.4785, 63.70288
216.9606, 57.97168
217.4427, 48.49658
217.9249, 36.36548
218.4070, 26.00342
218.8891, 19.95361
219.3712, 18.30103
219.8533, 22.40405
220.3354, 39.36060
220.8176, 55.12915
221.2997, 69.46997
221.7818, 79.61670
222.2639, 80.43896
222.7460, 67.08203
223.2281, 41.12036
223.7103, 20.49194
224.1924, 6.183838
224.6745, 3.122070
225.1566, 8.295166
225.6387, 8.613037
226.1208, 1.198975
226.6030, 16.79419
227.0851, 40.97168
227.5672, 52.43018
228.0493, 40.88062
228.5314, 29.57690
229.0135, 23.17432
229.4957, 18.91772
229.9778, 12.26636
230.4599, 0.9575200
230.9420, 10.86548
231.4241, 12.33301
231.9062, 3.417480
232.3884, 18.32300
232.8705, 36.31470
233.3526, 49.30615
233.8347, 46.28516
234.3168, 24.33350
234.7989, 2.891113
235.2811, 10.55811
235.7632, 11.12402
236.2453, 29.54468
236.7274, 45.48389
237.2095, 55.50269
237.6916, 55.22046
238.1738, 44.67432
238.6559, 30.21045
239.1380, 17.89111
239.6201, 12.32788
240.1022, 11.04224
240.5843, 24.53540
241.0665, 28.68115
241.5486, 4.564209
242.0307, 10.51025
242.5128, 6.240479
242.9949, 1.192383
243.4770, 23.11353
243.9592, 4.608643
244.4413, 16.91675
244.9234, 18.80737
245.4055, 29.70898
245.8876, 21.15063
246.3697, 18.62329
246.8519, 35.59790
247.3340, 41.80176
247.8161, 31.06958
248.2982, 42.64600
248.7803, 14.41113
249.2624, 21.14331
249.7446, 42.97168
250.2267, 33.30396
250.7088, 45.32080
251.1909, 49.10596
251.6730, 15.40430
252.1551, 46.94092
252.6373, 50.28906
253.1194, 23.99512
253.6015, 52.59741
254.0836, 30.25415
254.5657, 26.19849
255.0478, 35.86572
255.5300, 31.30078
256.0121, 49.25781
256.4942, 45.57764
256.9763, 39.98779
257.4584, 42.87158
257.9406, 21.84204
258.4227, 45.24536
258.9048, 38.33472
259.3869, 46.52515
259.8690, 58.15356
260.3511, 43.63013
260.8333, 56.83276
261.3154, 27.08618
261.7975, 33.31030
262.2796, 35.67969
262.7617, 61.04565
263.2438, 31.57568
263.7260, 36.87256
264.2081, 56.98193
264.6902, 56.40674
265.1723, 64.50244
265.6544, 46.99170
266.1365, 53.56396
266.6187, 53.51660
267.1008, 76.41016
267.5829, 81.21729
268.0650, 64.20947
268.5471, 47.30469
269.0292, 71.89697
269.5114, 57.18555
269.9935, 63.69873
270.4756, 48.31738
270.9577, 51.86230
271.4398, 55.11816
271.9219, 68.08252
272.4041, 51.65967
272.8862, 73.38770
273.3683, 73.08154
273.8504, 79.28320
274.3325, 84.77490
274.8146, 89.57275
275.2968, 99.69287
275.7789, 111.2695
276.2610, 122.1548
276.7431, 121.7646
277.2252, 102.0498
277.7073, 75.11279
278.1895, 60.04248
278.6716, 56.51514
279.1537, 61.39062
279.6358, 83.79639
280.1179, 111.6499
280.6000, 121.0396
281.0822, 104.7969
281.5643, 81.97363
282.0464, 76.22949
282.5285, 89.26758
283.0106, 97.24170
283.4927, 89.38965
283.9749, 80.80859
284.4570, 87.53467
284.9391, 109.8037
285.4212, 133.2100
285.9033, 146.4199
286.3854, 149.1934
286.8676, 150.5264
287.3497, 154.0620
287.8318, 152.8540
288.3139, 137.6089
288.7960, 114.0874
289.2781, 98.46533
289.7603, 100.4580
290.2424, 116.0620
290.7245, 129.5977
291.2066, 139.6855
291.6887, 149.6826
292.1708, 161.5610
292.6530, 172.9185
293.1351, 182.5962
293.6172, 190.3257
294.0993, 191.3862
294.5814, 175.9658
295.0635, 122.2959
295.5457, 94.46924
296.0278, 111.3330
296.5099, 138.4819
296.9920, 151.3145
297.4741, 147.5146
297.9562, 140.7373
298.4384, 144.4990
298.9205, 160.1177
299.4026, 177.0547
299.8847, 204.3423
300.3668, 224.3003
300.8489, 222.6196
301.3311, 208.8804
301.8131, 205.2314
302.2953, 229.2090
302.7774, 272.0337
303.2595, 287.3882
303.7416, 251.7290
304.2237, 222.2842
304.7058, 208.5234
305.1880, 207.2632
305.6701, 218.5918
306.1522, 243.0708
306.6343, 269.8960
307.1164, 278.5498
307.5985, 264.1875
308.0807, 251.0630
308.5628, 241.0938
309.0449, 235.3823
309.5270, 235.6401
310.0091, 241.7607
310.4912, 251.2866
310.9734, 265.8140
311.4555, 284.1406
311.9376, 292.4790
312.4197, 288.6929
312.9018, 275.5371
313.3839, 247.7866
313.8661, 212.3799
314.3482, 188.2803
314.8303, 192.2412
315.3124, 209.0938
315.7945, 209.1880
316.2766, 188.8032
316.7588, 173.8950
317.2409, 186.7974
317.7230, 211.3257
318.2051, 219.7095
318.6872, 201.8101
319.1693, 179.4463
319.6515, 170.1079
320.1336, 170.7100
320.6157, 166.3604
321.0978, 151.0620
321.5799, 131.9385
322.0620, 121.4712
322.5442, 122.1748
323.0263, 121.1929
323.5084, 108.8408
323.9905, 95.33643
324.4726, 97.37012
324.9547, 117.6421
325.4369, 138.5308
325.9190, 141.6748
326.4011, 124.7759
326.8832, 117.8462
327.3653, 137.1484
327.8474, 151.1724
328.3296, 135.8320
328.8117, 99.26611
329.2938, 66.18555
329.7759, 50.17285
330.2580, 50.02881
330.7401, 60.98438
331.2223, 108.4214
331.7044, 135.4648
332.1865, 119.9204
332.6686, 88.61377
333.1507, 71.22949
333.6328, 76.46436
334.1150, 90.92236
334.5971, 94.85352
335.0792, 84.81982
335.5613, 73.06982
336.0434, 47.27246
336.5255, 30.67139
337.0077, 46.23486
337.4898, 84.16748
337.9719, 112.1299
338.4540, 101.0366
338.9361, 56.43945
339.4182, 28.86816
339.9004, 29.12207
340.3825, 31.58301
340.8646, 27.40234
341.3467, 21.17627
341.8288, 19.03320
342.3109, 23.55566
342.7931, 31.47461
343.2752, 39.34814
343.7573, 47.85693
344.2394, 51.24072
344.7215, 43.96924
345.2036, 34.19824
345.6858, 29.89697
346.1679, 30.58984
346.6500, 30.59668
347.1321, 34.55811
347.6142, 39.64258
348.0963, 33.70801
348.5785, 12.17969
349.0606, 5.075195
349.5427, 4.447754
350.0248, 31.81543
350.5069, 49.80078
350.9890, 46.29541
351.4712, 37.46240
351.9533, 37.87744
352.4354, 45.43164
352.9175, 48.35889
353.3996, 40.23193
353.8817, 25.10010
354.3639, 13.23340
354.8460, 5.207031
355.3281, 0.2299800
355.8102, 4.621094
356.2923, 5.766113
356.7744, 0.9453130
357.2566, 15.49854
357.7387, 29.46436
358.2208, 34.16895
358.7029, 28.11084
359.1850, 24.34863
359.6671, 24.28906
360.1493, 24.83740
360.6314, 21.96582
361.1135, 18.37061
361.5956, 22.90527
362.0777, 42.21729
362.5598, 68.30127
363.0420, 69.91406
363.5241, 19.79150
364.0062, 10.78125
364.4883, 0.3452150
364.9704, 23.64502
365.4525, 33.58350
365.9347, 25.16602
366.4168, 12.62354
366.8989, 13.27539
367.3810, 28.22900
367.8631, 37.56787
368.3452, 36.76660
368.8274, 34.76465
369.3095, 35.99268
369.7916, 39.67236
370.2737, 43.80127
370.7558, 49.20386
371.2379, 53.06836
371.7201, 47.43604
372.2022, 30.60693
372.6843, 21.03662
373.1664, 30.58130
373.6485, 49.85913
374.1306, 64.55347
374.6128, 73.86865
375.0949, 79.95508
375.5770, 86.78076
376.0591, 90.62695
376.5412, 81.72144
377.0233, 56.93848
377.5055, 27.61743
377.9876, 1.357910
378.4697, 21.75879
378.9518, 23.51270
379.4339, 21.80176
379.9160, 65.68359
380.3982, 75.93359
380.8803, 60.21802
381.3624, 43.09937
381.8445, 37.81030
382.3266, 40.45874
382.8087, 39.10962
383.2909, 27.42480
383.7730, 20.07739
384.2551, 20.19946
384.7372, 22.89038
385.2193, 22.86646
385.7014, 20.08789
386.1836, 20.56323
386.6657, 30.86401
387.1478, 50.65967
387.6299, 66.59937
388.1120, 85.68726
388.5941, 91.63770
389.0763, 67.43140
389.5584, 29.91724
390.0405, 6.179688
390.5226, 9.275391
391.0047, 25.84448
391.4868, 35.90210
391.9690, 38.96118
392.4511, 39.59131
392.9332, 36.85352
393.4153, 33.97876
393.8974, 33.83203
394.3795, 36.44702
394.8617, 40.62231
395.3438, 47.34106
395.8259, 54.75415
396.3080, 59.32104
396.7901, 60.58325
397.2722, 62.13208
397.7544, 68.77295
398.2365, 77.62549
398.7186, 75.40210
399.2007, 50.19629
399.6828, 28.21973
400.1649, 18.89600
400.6471, 18.30029
401.1292, 23.58765
401.6113, 33.78638
402.0934, 39.71680
402.5755, 24.77881
403.0576, 28.11938
403.5398, 47.66772
404.0219, 0.8522950
404.5040, 43.48608
404.9861, 43.15845
405.4682, 10.30542
405.9503, 18.84058
406.4325, 21.31445
406.9146, 3.353760
407.3967, 14.20459
407.8788, 32.75171
408.3609, 47.72412
408.8430, 59.57495
409.3252, 67.07739
409.8073, 69.44800
410.2894, 66.47876
410.7715, 57.73218
411.2536, 38.25244
411.7357, 11.24707
412.2179, 5.119629
412.7000, 6.606201
413.1821, 4.732666
413.6642, 8.978271
414.1463, 15.43994
414.6284, 15.34619
415.1106, 1.796631
415.5927, 11.99194
416.0748, 15.11597
416.5569, 10.44849
417.0390, 6.012451
417.5211, 3.907715
418.0033, 5.552246
418.4854, 14.88428
418.9675, 37.28467
419.4496, 47.98413
419.9317, 34.19482
420.4138, 18.18042
420.8960, 15.91699
421.3781, 25.20093
421.8602, 34.57861
422.3423, 38.69800
422.8244, 38.63452
423.3065, 41.41626
423.7887, 53.27075
424.2708, 56.71265
424.7529, 43.11230
425.2350, 26.67358
425.7171, 17.62207
426.1992, 17.98560
426.6814, 25.44507
427.1635, 44.12988
427.6456, 71.88135
428.1277, 78.42383
428.6098, 51.85522
429.0919, 27.28516
429.5741, 25.38550
430.0562, 36.40283
430.5383, 46.30444
431.0204, 51.16724
431.5025, 55.64575
431.9846, 66.22485
432.4668, 80.07422
432.9489, 85.57422
433.4310, 77.99805
433.9131, 67.29834
434.3952, 64.90015
434.8773, 71.57471
435.3595, 80.25317
435.8416, 99.98193
436.3237, 112.1477
436.8058, 101.1570
437.2879, 75.69263
437.7701, 53.72070
438.2522, 44.90796
438.7343, 46.15381
439.2164, 50.36133
439.6985, 63.10474
440.1806, 68.54297
440.6628, 59.96997
441.1449, 50.24829
441.6270, 50.98633
442.1091, 59.46338
442.5912, 61.40552
443.0733, 40.77441
443.5555, 7.316650
444.0376, 2.165283
444.5197, 36.10889
445.0018, 68.21216
445.4839, 86.20239
445.9660, 92.80493
446.4482, 86.75781
446.9303, 66.14893
447.4124, 46.99585
447.8945, 37.96558
448.3766, 37.56445
448.8587, 46.44727
449.3409, 65.75171
449.8230, 79.76489
450.3051, 73.75952
450.7872, 50.17041
451.2693, 35.88452
451.7514, 34.53564
452.2336, 37.45483
452.7157, 45.27661
453.1978, 54.44214
453.6799, 59.56934
454.1620, 59.29272
454.6441, 57.39429
455.1263, 60.05737
455.6084, 70.21069
456.0905, 68.31201
456.5726, 31.22559
457.0547, 5.809326
457.5368, 15.00146
458.0190, 43.30225
458.5011, 66.18726
458.9832, 73.67163
459.4653, 70.59399
459.9474, 59.94263
460.4295, 41.53125
460.9117, 29.39404
461.3938, 29.57007
461.8759, 38.77344
462.3580, 52.96094
462.8401, 69.60083
463.3222, 75.93335
463.8044, 52.32812
464.2865, 28.40430
464.7686, 37.39380
465.2507, 70.68823
465.7328, 93.77808
466.2149, 91.27344
466.6971, 73.20093
467.1792, 58.33887
467.6613, 45.06689
468.1434, 39.38843
468.6255, 45.99341
469.1076, 55.93726
469.5898, 65.10547
470.0719, 72.02734
470.5540, 78.95679
471.0361, 86.60132
471.5182, 89.78223
472.0003, 81.98340
472.4825, 57.01343
472.9646, 40.33203
473.4467, 40.11792
473.9288, 47.23047
474.4109, 61.36670
474.8930, 80.24194
475.3752, 90.78076
475.8573, 79.67261
476.3394, 58.17065
476.8215, 45.12109
477.3036, 41.00830
477.7857, 37.97144
478.2679, 33.50195
478.7500, 26.44604
479.2321, 11.67505
479.7142, 19.62354
480.1963, 36.13184
480.6784, 25.21265
481.1606, 1.455566
481.6427, 28.82495
482.1248, 60.73364
482.6069, 81.43774
483.0890, 80.14111
483.5711, 60.98340
484.0533, 48.14209
484.5354, 48.02808
485.0175, 43.86523
485.4996, 23.35083
485.9817, 5.186768
486.4638, 8.796143
486.9460, 33.70605
487.4281, 57.90234
487.9102, 63.49756
488.3923, 55.24561
488.8744, 45.57861
489.3565, 33.35132
489.8387, 27.38257
490.3208, 35.20215
490.8029, 50.78735
491.2850, 60.76733
491.7671, 62.81250
492.2492, 66.13525
492.7314, 79.52173
493.2135, 92.57568
493.6956, 89.72046
494.1777, 71.78735
494.6598, 56.19434
495.1419, 57.27710
495.6241, 71.36499
496.1062, 74.39233
496.5883, 56.52124
497.0704, 40.96094
497.5525, 26.45532
498.0346, 17.38354
498.5168, 20.86011
498.9989, 35.46533
499.4810, 49.27856
499.9631, 49.92920
500.4452, 41.54907
500.9273, 39.30151
501.4095, 44.12476
501.8916, 48.40967
502.3737, 48.31812
502.8558, 46.82520
503.3379, 51.16479
503.8200, 64.07690
504.3022, 71.60474
504.7843, 60.81519
505.2664, 46.29590
505.7485, 49.91382
506.2306, 69.98242
506.7127, 82.10840
507.1949, 68.28174
507.6770, 35.98730
508.1591, 18.14697
508.6412, 24.65063
509.1233, 31.84497
509.6054, 42.16016
510.0876, 49.88501
510.5697, 47.99414
511.0518, 38.43604
511.5339, 31.37158
512.0161, 35.75073
512.4982, 46.80200
512.9803, 50.47949
513.4624, 45.20312
513.9445, 42.06763
514.4266, 45.63452
514.9088, 52.02197
515.3909, 58.60205
515.8730, 65.76587
516.3551, 69.30420
516.8372, 67.29102
517.3193, 61.74878
517.8015, 50.07422
518.2836, 35.59106
518.7657, 31.69019
519.2478, 47.01538
519.7299, 71.16040
520.2120, 77.86182
520.6942, 48.53223
521.1763, 37.57251
521.6584, 59.53442
522.1405, 83.95801
522.6226, 98.13306
523.1047, 101.4148
523.5869, 94.78882
524.0690, 74.38379
524.5511, 50.00757
525.0332, 41.41724
525.5153, 48.51343
525.9974, 52.86670
526.4796, 51.47583
526.9617, 43.75977
527.4438, 20.23267
527.9259, 15.86499
528.4080, 28.30054
528.8901, 14.06616
529.3723, 55.69946
529.8544, 57.81396
530.3365, 36.61255
530.8186, 25.98853
531.3007, 37.29272
531.7828, 54.93848
532.2650, 56.55005
532.7471, 38.54785
533.2292, 26.76953
533.7113, 22.71997
534.1934, 23.64038
534.6755, 33.69922
535.1577, 46.20972
535.6398, 51.36426
536.1219, 45.76099
536.6040, 38.48340
537.0861, 37.69971
537.5682, 40.49048
538.0504, 42.13159
538.5325, 43.42993
539.0146, 48.68555
539.4967, 61.55127
539.9788, 78.78589
540.4609, 87.35278
540.9431, 85.88696
541.4252, 78.87646
541.9073, 58.73389
542.3894, 38.92505
542.8715, 36.27808
543.3536, 49.21777
543.8358, 58.76147
544.3179, 48.03516
544.8000, 24.67798
545.2821, 24.35449
545.7642, 58.53223
546.2463, 84.29761
546.7285, 87.17700
547.2106, 79.92114
547.6927, 70.83789
548.1748, 60.43140
548.6569, 48.07715
549.1390, 28.87720
549.6211, 10.94385
550.1032, 4.013672
550.5853, 6.644531
551.0674, 12.59473
551.5496, 19.76514
552.0317, 27.30640
552.5138, 33.71704
552.9959, 38.13696
553.4780, 44.53320
553.9601, 60.41602
554.4423, 70.17334
554.9244, 66.61011
555.4065, 53.97778
555.8886, 35.35303
556.3707, 11.46899
556.8528, 5.722900
557.3350, 4.241699
557.8171, 37.09570
558.2992, 57.55298
558.7813, 60.82544
559.2634, 56.20410
559.7455, 43.82422
560.2277, 29.01953
560.7098, 28.64893
561.1919, 55.24414
561.6740, 74.50952
562.1561, 67.34009
562.6382, 52.66431
563.1204, 52.74268
563.6025, 67.29004
564.0846, 82.59619
564.5667, 91.31445
565.0488, 93.21509
565.5309, 85.08081
566.0131, 58.09326
566.4952, 43.40698
566.9773, 61.04126
567.4594, 80.85059
567.9415, 82.17456
568.4236, 67.89307
568.9058, 55.49683
569.3879, 56.60278
569.8700, 58.91992
570.3521, 45.12769
570.8342, 21.39233
571.3163, 9.311768
571.7985, 15.88940
572.2806, 32.11865
572.7627, 48.48315
573.2448, 65.73047
573.7269, 76.32397
574.2090, 79.38477
574.6912, 77.32593
575.1733, 66.08496
575.6554, 52.46411
576.1375, 43.46094
576.6196, 40.70776
577.1017, 41.82056
577.5839, 47.29248
578.0660, 54.86694
578.5481, 57.63721
579.0302, 55.70459
579.5123, 46.09863
579.9944, 22.37744
580.4766, 5.357422
580.9587, 17.61279
581.4408, 14.49829
581.9229, 0.8681640
582.4050, 38.77734
582.8871, 74.14551
583.3693, 83.40601
583.8514, 72.47485
584.3335, 54.97681
584.8156, 35.53296
585.2977, 20.40674
585.7798, 21.57422
586.2620, 42.11401
586.7441, 49.66821
587.2262, 32.23267
587.7083, 13.94092
588.1904, 9.442871
588.6725, 13.40503
589.1547, 15.44434
589.6368, 13.85327
590.1189, 13.53174
590.6010, 17.82690
591.0831, 24.18652
591.5652, 31.20312
592.0474, 37.63330
592.5295, 38.28320
593.0116, 28.71777
593.4937, 13.77881
593.9758, 8.568848
594.4579, 16.35767
594.9401, 26.16772
595.4222, 41.31372
595.9043, 54.43384
596.3864, 62.52075
596.8685, 65.43457
597.3506, 63.03833
597.8328, 51.98853
598.3149, 42.01758
598.7970, 43.10010
599.2791, 52.01489
599.7612, 63.43799
600.2433, 76.41821
600.7255, 79.72510
601.2076, 60.43286
601.6897, 23.19873
602.1718, 6.227539
602.6539, 29.58643
603.1360, 46.53564
603.6182, 52.80396
604.1003, 52.81372
604.5824, 46.65552
605.0645, 36.83374
605.5466, 30.62231
606.0287, 34.37036
606.5109, 41.10498
606.9930, 40.81152
607.4751, 34.58496
607.9572, 32.29565
608.4393, 36.76538
608.9214, 41.36597
609.4036, 39.33765
609.8857, 30.60986
610.3678, 19.75586
610.8499, 1.948486
611.3320, 14.55225
611.8141, 6.935547
612.2963, 7.879883
612.7784, 17.55103
613.2605, 20.39966
613.7426, 21.21973
614.2247, 23.61646
614.7068, 26.28467
615.1890, 26.11816
615.6711, 22.04517
616.1532, 22.67358
616.6353, 31.48730
617.1174, 44.07275
617.5995, 58.88354
618.0817, 75.98975
618.5638, 78.78955
619.0459, 56.72168
619.5280, 31.72461
620.0101, 3.568115
620.4922, 18.45752
620.9744, 20.16650
621.4565, 1.028564
621.9386, 23.97729
622.4207, 44.10547
622.9028, 58.18506
623.3849, 58.35303
623.8671, 41.35986
624.3492, 29.94141
624.8313, 34.37744
625.3134, 43.54346
625.7955, 42.03076
626.2776, 30.74927
626.7598, 25.03418
627.2419, 29.44238
627.7240, 37.23657
628.2061, 51.50488
628.6882, 64.40039
629.1703, 60.21216
629.6525, 37.94971
630.1346, 17.65527
630.6167, 21.07202
631.0988, 43.02710
631.5809, 53.59009
632.0630, 49.71289
632.5452, 46.65771
633.0273, 51.16528
633.5094, 56.29590
633.9915, 54.32031
634.4736, 45.58105
634.9557, 34.86523
635.4379, 17.56250
635.9200, 4.428467
636.4021, 3.594727
636.8842, 10.13354
637.3663, 16.99243
637.8484, 22.14551
638.3306, 26.09570
638.8127, 28.66724
639.2948, 31.15967
639.7769, 37.89404
640.2590, 51.08374
640.7411, 56.75757
641.2233, 44.15967
641.7054, 13.87012
642.1875, 39.88086
642.6696, 70.13452
643.1517, 78.15161
643.6339, 2.666748
644.1160, 31.24585
644.5981, 19.18604
645.0802, 5.242676
645.5623, 55.30786
646.0444, 12.57031
646.5266, 36.47925
647.0087, 38.85449
647.4908, 62.59473
647.9729, 40.07715
648.4550, 31.84961
648.9371, 69.89917
649.4193, 82.32812
649.9014, 54.49414
650.3835, 79.60425
650.8656, 10.12646
651.3477, 23.65430
651.8298, 72.99854
652.3120, 47.50098
652.7941, 73.46729
653.2762, 79.83667
653.7583, 2.864746
654.2404, 69.34058
654.7225, 74.55664
655.2047, 10.98779
655.6868, 77.89087
656.1689, 23.81006
656.6510, 12.91479
657.1331, 34.52173
657.6152, 22.25098
658.0974, 63.39673
658.5795, 53.08643
659.0616, 38.17993
659.5437, 43.33936
660.0258, 8.354004
660.5079, 45.42896
660.9901, 27.16406
661.4722, 44.71509
661.9543, 70.38623
662.4364, 33.90088
662.9185, 63.22314
663.4006, 9.502197
663.8828, 3.159912
664.3649, 6.628906
664.8470, 64.67749
665.3291, 7.545654
665.8112, 2.747803
666.2933, 48.17847
666.7755, 44.44897
667.2576, 61.27710
667.7397, 17.25513
668.2218, 30.40015
668.7039, 27.72046
669.1860, 78.83423
669.6682, 87.39478
670.1503, 44.41577
670.6324, 1.657227
671.1145, 57.42383
671.5966, 19.81128
672.0787, 32.57959
672.5609, 6.680908
673.0430, 66.06055
673.5251, 81.67749
674.0072, 80.65234
674.4893, 67.84570
674.9714, 39.21631
675.4536, 6.083740
675.9357, 0.1530760
676.4178, 39.48096
676.8999, 64.47778
677.3820, 65.51025
677.8641, 59.55591
678.3463, 49.16309
678.8284, 39.55151
679.3105, 39.62817
679.7926, 50.88770
680.2747, 60.75659
680.7568, 56.57251
681.2390, 42.45947
681.7211, 22.56323
682.2032, 1.603271
682.6853, 6.401123
683.1674, 22.53223
683.6495, 62.13770
684.1317, 76.14868
684.6138, 59.36743
685.0959, 44.22852
685.5780, 27.93945
686.0601, 16.53491
686.5422, 12.42554
687.0244, 13.34497
687.5065, 17.02417
687.9886, 23.16138
688.4707, 33.16504
688.9528, 53.86035
689.4349, 72.36401
689.9171, 70.04712
690.3992, 53.48438
690.8813, 43.17822
691.3634, 44.57080
691.8455, 46.36523
692.3276, 36.14795
692.8098, 16.14453
693.2919, 6.683838
693.7740, 11.87573
694.2561, 18.59106
694.7382, 26.76270
695.2203, 33.64502
695.7025, 35.82397
696.1846, 34.91235
696.6667, 37.26538
697.1488, 49.24878
697.6309, 57.59985
698.1130, 50.83960
698.5952, 39.48828
699.0773, 36.23438
699.5594, 39.64966
700.0415, 45.17749
700.5236, 49.67212
701.0057, 53.80103
701.4879, 59.64600
701.9700, 67.65479
702.4521, 71.76709
702.9342, 70.98169
703.4163, 67.30396
703.8984, 59.42456
704.3806, 50.75928
704.8627, 47.24585
705.3448, 52.91284
705.8269, 51.85767
706.3090, 30.73901
706.7911, 13.54443
707.2733, 17.57861
707.7554, 34.23096
708.2375, 50.17749
708.7196, 60.82642
709.2017, 63.67310
709.6838, 51.97485
710.1660, 31.75635
710.6481, 16.71143
711.1302, 7.166504
711.6123, 6.479004
712.0944, 17.70264
712.5765, 31.34229
713.0587, 35.31519
713.5408, 29.03687
714.0229, 25.64185
714.5050, 28.17212
714.9871, 29.47412
715.4692, 27.49268
715.9514, 24.62598
716.4335, 22.19678
716.9156, 20.59961
717.3977, 20.55640
717.8798, 21.95508
718.3619, 25.45605
718.8441, 33.15552
719.3262, 41.69287
719.8083, 43.66626
720.2904, 39.33105
720.7725, 37.86011
721.2546, 45.96973
721.7368, 57.29932
722.2189, 50.86987
722.7010, 22.10889
723.1831, 7.960205
723.6652, 17.68408
724.1473, 30.93726
724.6295, 38.20044
725.1116, 40.81812
725.5937, 41.39209
726.0758, 38.89600
726.5579, 38.00293
727.0400, 44.51294
727.5222, 47.83789
728.0043, 36.35620
728.4864, 19.35864
728.9685, 12.61230
729.4506, 19.90308
729.9327, 31.43604
730.4149, 42.01855
730.8970, 49.19873
731.3791, 42.86401
731.8612, 24.84277
732.3433, 10.66895
732.8254, 3.696289
733.3076, 4.104980
733.7897, 13.62671
734.2718, 30.91162
734.7539, 37.67139
735.2360, 23.54517
735.7181, 16.28320
736.2003, 26.25464
736.6824, 37.96777
737.1645, 40.53662
737.6466, 35.85107
738.1287, 31.02759
738.6108, 27.57837
739.0930, 27.98071
739.5751, 41.25537
740.0572, 54.00952
740.5393, 45.28809
741.0214, 21.21191
741.5035, 4.247803
741.9857, 5.152100
742.4678, 15.48682
742.9499, 25.88892
743.4320, 35.91504
743.9141, 39.54565
744.3962, 36.34326
744.8784, 27.25513
745.3605, 7.354248
745.8426, 10.28320
746.3247, 4.857666
746.8068, 27.57275
747.2889, 46.04639
747.7711, 41.60376
748.2532, 35.84448
748.7353, 35.31226
749.2174, 34.49585
749.6995, 24.92554
750.1816, 9.437988
750.6638, 1.628906
751.1459, 9.254150
751.6280, 24.41821
752.1101, 49.65479
752.5922, 73.96704
753.0743, 69.40674
753.5565, 38.02710
754.0386, 13.18018
754.5207, 15.27319
755.0028, 29.25195
755.4849, 22.53931
755.9670, 8.863281
756.4492, 22.31885
756.9313, 12.69238
757.4134, 4.528564
757.8955, 29.75146
758.3776, 53.73486
758.8597, 60.18213
759.3419, 47.49072
759.8240, 37.87891
760.3061, 35.66260
760.7882, 33.72729
761.2703, 28.93262
761.7524, 23.38330
762.2346, 19.82959
762.7167, 18.14331
763.1988, 14.99487
763.6809, 4.745117
764.1630, 1.074951
764.6451, 18.28589
765.1273, 51.13672
765.6094, 67.75806
766.0915, 64.87378
766.5736, 55.99243
767.0557, 50.18701
767.5378, 45.19019
768.0200, 38.42920
768.5021, 29.20044
768.9842, 31.54346
769.4663, 55.17847
769.9484, 69.73926
770.4305, 55.87842
770.9127, 30.00684
771.3948, 15.47900
771.8769, 11.55298
772.3590, 10.51343
772.8411, 12.96460
773.3232, 16.45923
773.8054, 18.51685
774.2875, 22.16650
774.7696, 34.47754
775.2517, 52.59692
775.7338, 62.57446
776.2159, 55.03613
776.6981, 39.93140
777.1802, 23.92798
777.6623, 9.956299
778.1444, 5.949951
778.6265, 12.03540
779.1086, 21.58325
779.5908, 31.04102
780.0729, 40.61475
780.5550, 52.38306
781.0371, 67.62988
781.5192, 69.89185
782.0013, 52.44336
782.4835, 40.54565
782.9656, 50.15503
783.4477, 63.87402
783.9298, 56.01221
784.4119, 26.19922
784.8940, 7.739990
785.3762, 8.722412
785.8583, 12.44531
786.3404, 11.91992
786.8225, 14.19727
787.3046, 33.73633
787.7867, 62.06812
788.2689, 69.47461
788.7510, 36.96387
789.2331, 2.142578
789.7152, 2.993408
790.1973, 9.863281
790.6794, 27.79492
791.1616, 46.28125
791.6437, 54.90405
792.1258, 49.20020
792.6079, 35.12354
793.0900, 18.34302
793.5721, 0.3286130
794.0543, 11.05005
794.5364, 13.77612
795.0185, 7.339844
795.5006, 12.45874
795.9827, 33.48999
796.4648, 44.10327
796.9470, 44.95239
797.4291, 43.56299
797.9112, 37.98560
798.3933, 32.97241
798.8754, 23.96802
799.3575, 20.34668
799.8397, 34.24609
800.3218, 55.43677
800.8039, 62.62988
801.2860, 48.50220
801.7681, 38.04395
802.2502, 52.75488
802.7324, 68.67627
803.2145, 56.68213
803.6966, 31.57666
804.1787, 28.98657
804.6608, 52.25415
805.1429, 73.33276
805.6251, 66.71973
806.1072, 43.60327
806.5893, 23.20093
807.0714, 6.781006
807.5535, 9.728516
808.0356, 36.24878
808.5178, 53.84912
808.9999, 37.65308
809.4820, 5.047852
809.9641, 2.165283
810.4462, 40.76416
810.9283, 65.86865
811.4105, 71.13403
811.8926, 73.54395
812.3747, 83.89307
812.8568, 91.66748
813.3389, 80.70288
813.8210, 50.58618
814.3032, 29.73730
814.7853, 28.05664
815.2674, 32.52344
815.7495, 43.00708
816.2316, 52.89746
816.7137, 57.38379
817.1959, 55.86450
817.6780, 46.52661
818.1601, 25.56494
818.6422, 11.40698
819.1243, 29.52295
819.6064, 58.77612
820.0886, 65.74902
820.5707, 53.26929
821.0528, 36.34473
821.5349, 20.86816
822.0170, 13.90332
822.4991, 28.67432
822.9813, 55.76294
823.4634, 48.69312
823.9455, 4.895996
824.4276, 19.91602
824.9097, 12.30933
825.3918, 9.908936
825.8740, 38.66113
826.3561, 67.82568
826.8382, 75.22144
827.3203, 49.41602
827.8024, 27.99609
828.2845, 4.219971
828.7667, 6.551758
829.2488, 13.79688
829.7309, 42.37622
830.2130, 48.55249
830.6951, 30.79614
831.1772, 22.20728
831.6594, 41.19312
832.1415, 58.90820
832.6236, 62.00854
833.1057, 59.11548
833.5878, 57.81104
834.0699, 58.40210
834.5521, 58.48584
835.0342, 57.29956
835.5163, 53.60107
835.9984, 42.16650
836.4805, 29.63525
836.9626, 27.55884
837.4448, 35.62207
837.9269, 46.82300
838.4090, 59.16577
838.8911, 68.06665
839.3732, 68.25317
839.8553, 60.82690
840.3375, 47.80249
840.8196, 28.98218
841.3017, 12.98145
841.7838, 0.7595210
842.2659, 0.6625980
842.7480, 31.45996
843.2302, 76.38916
843.7123, 96.21265
844.1944, 82.60596
844.6765, 71.60522
845.1586, 65.04297
845.6407, 58.37012
846.1229, 49.54565
846.6050, 40.23657
847.0871, 29.08569
847.5692, 16.96509
848.0513, 16.17212
848.5334, 45.77686
849.0156, 62.14038
849.4977, 39.98999
849.9798, 12.42749
850.4619, 3.999023
850.9440, 10.91650
851.4261, 22.71558
851.9083, 36.74292
852.3904, 43.19678
852.8725, 28.68750
853.3546, 10.30957
853.8367, 5.878174
854.3188, 10.49854
854.8010, 10.32788
855.2831, 4.607910
855.7652, 10.02173
856.2473, 43.22339
856.7294, 81.39038
857.2115, 77.68970
857.6937, 42.70239
858.1758, 23.40308
858.6579, 24.12622
859.1400, 33.87988
859.6221, 49.28442
860.1042, 58.57764
860.5864, 40.59326
861.0685, 2.761719
861.5506, 17.48340
862.0327, 3.996826
862.5148, 25.30347
862.9969, 40.98608
863.4791, 49.96924
863.9612, 48.87183
864.4433, 41.09863
864.9254, 39.13599
865.4075, 47.91113
865.8896, 52.57202
866.3718, 54.06860
866.8539, 50.46606
867.3360, 29.03882
867.8181, 9.518799
868.3002, 22.94556
868.7823, 66.99805
869.2645, 90.32275
869.7466, 60.66895
870.2287, 32.88867
870.7108, 30.38672
871.1929, 36.49072
871.6750, 36.51392
872.1572, 32.57520
872.6393, 34.45874
873.1214, 45.82275
873.6035, 54.13379
874.0856, 48.38110
874.5677, 36.50098
875.0499, 24.24634
875.5320, 13.75122
876.0141, 8.282471
876.4962, 8.651123
876.9783, 16.57593
877.4604, 35.27319
877.9426, 53.35913
878.4247, 47.37744
878.9068, 25.06348
879.3889, 16.64258
879.8710, 23.11670
880.3531, 30.82300
880.8353, 34.50513
881.3174, 32.69189
881.7995, 21.11865
882.2816, 1.851318
882.7637, 0.4445800
883.2458, 20.39917
883.7280, 35.79590
884.2101, 42.31152
884.6922, 44.22852
885.1743, 43.45557
885.6564, 40.74707
886.1385, 37.02661
886.6207, 30.39307
887.1028, 30.94629
887.5849, 50.30640
888.0670, 55.99219
888.5491, 20.92627
889.0313, 14.72729
889.5134, 10.07227
889.9955, 25.06104
890.4776, 45.15308
890.9597, 37.33325
891.4418, 32.18774
891.9240, 35.27075
892.4061, 40.45459
892.8882, 51.53101
893.3703, 58.96069
893.8524, 44.19043
894.3345, 7.613525
894.8167, 16.25024
895.2988, 5.677246
895.7809, 11.44775
896.2630, 24.91309
896.7451, 33.95264
897.2272, 36.12158
897.7094, 33.42920
898.1915, 30.74902
898.6736, 29.84180
899.1557, 28.53662
899.6378, 23.36792
900.1199, 18.24829
900.6021, 17.78638
901.0842, 20.60229
901.5663, 25.17798
902.0484, 30.59863
902.5305, 34.63794
903.0126, 35.67188
903.4948, 35.16895
903.9769, 35.63232
904.4590, 36.17920
904.9411, 31.96191
905.4232, 24.12036
905.9053, 0.5783690
906.3875, 29.86621
906.8696, 47.02661
907.3517, 51.61890
907.8338, 5.951172
908.3159, 25.02100
908.7980, 18.19824
909.2802, 10.36621
909.7623, 39.32251
910.2444, 1.525146
910.7265, 29.30347
911.2086, 30.66089
911.6907, 44.05786
912.1729, 31.34253
912.6550, 26.70166
913.1371, 48.16626
913.6192, 55.19458
914.1013, 39.50391
914.5834, 53.73633
915.0656, 14.50317
915.5477, 22.36694
916.0298, 50.29053
916.5119, 35.91016
916.9940, 50.61719
917.4761, 54.24561
917.9583, 7.539795
918.4404, 48.39038
918.9225, 51.02002
919.4046, 14.39014
919.8867, 53.18115
920.3688, 23.50488
920.8510, 17.62988
921.3331, 29.85693
921.8152, 22.93433
922.2973, 46.20190
922.7794, 40.38403
923.2615, 31.96680
923.7437, 34.88989
924.2258, 5.676514
924.7079, 36.07983
925.1900, 25.75928
925.6721, 35.64355
926.1542, 50.15381
926.6364, 29.53027
927.1185, 46.10156
927.6006, 5.119629
928.0827, 12.33228
928.5648, 14.30005
929.0469, 47.10425
929.5291, 6.273682
930.0112, 12.08325
930.4933, 37.75098
930.9754, 35.63135
931.4575, 45.12842
931.9396, 20.23169
932.4218, 27.64453
932.9039, 26.18384
933.3860, 55.44604
933.8681, 60.38843
934.3502, 36.03101
934.8323, 11.87427
935.3145, 43.57715
935.7966, 22.30737
936.2787, 29.49292
936.7608, 7.270020
937.2429, 10.43164
937.7250, 13.19629
938.2072, 28.97729
938.6893, 5.287354
939.1714, 32.79492
939.6535, 30.71167
940.1356, 37.27979
940.6177, 42.87720
941.0999, 8.845703
941.5820, 7.364990
942.0641, 52.46118
942.5462, 26.52271
943.0283, 14.92065
943.5104, 13.51001
943.9926, 60.19946
944.4747, 62.18311
944.9568, 10.72632
945.4389, 55.29834
945.9210, 40.78931
946.4031, 43.83691
946.8853, 39.51147
947.3674, 37.37354
947.8495, 11.79272
948.3316, 17.99341
948.8137, 50.03711
949.2958, 38.02197
949.7780, 55.94458
950.2601, 19.30713
950.7422, 15.05322
951.2243, 19.39624
951.7064, 26.87671
952.1885, 9.278564
952.6707, 40.76025
953.1528, 39.55078
953.6349, 9.813965
954.1170, 11.43384
954.5991, 7.847412
955.0812, 58.47241
955.5634, 35.45605
956.0455, 7.391357
956.5276, 37.82788
957.0097, 48.82202
957.4918, 55.48730
957.9739, 76.49976
958.4561, 88.55591
958.9382, 71.62891
959.4203, 21.69873
959.9024, 0.5083010
960.3845, 23.60767
960.8666, 44.68726
961.3488, 59.40649
961.8309, 67.18262
962.3130, 64.55103
962.7951, 56.31494
963.2772, 52.18945
963.7593, 53.41577
964.2415, 51.81274
964.7236, 45.26025
965.2057, 38.79614
965.6878, 35.73096
966.1699, 30.56372
966.6520, 12.00317
967.1342, 9.629639
967.6163, 8.154541
968.0984, 24.93213
968.5805, 48.97681
969.0626, 58.52466
969.5447, 63.50928
970.0269, 64.28491
970.5090, 63.33862
970.9911, 65.78735
971.4732, 67.53320
971.9553, 54.56689
972.4374, 15.93921
972.9196, 2.617920
973.4017, 26.87305
973.8838, 49.45850
974.3659, 39.30933
974.8480, 19.58301
975.3301, 10.55957
975.8123, 9.747314
976.2944, 4.955811
976.7765, 8.882080
977.2586, 16.25708
977.7407, 13.55103
978.2228, 3.870117
978.7050, 19.75879
979.1871, 43.27051
979.6692, 51.12231
980.1513, 46.45142
980.6334, 44.17725
981.1155, 49.21533
981.5977, 51.26807
982.0798, 37.72852
982.5619, 31.63354
983.0440, 61.39551
983.5261, 92.60693
984.0082, 78.87476
984.4904, 30.30640
984.9725, 1.392578
985.4546, 0.2636720
985.9367, 10.96289
986.4188, 33.78687
986.9009, 49.43701
987.3831, 38.01709
987.8652, 18.98535
988.3473, 18.27246
988.8294, 32.86035
989.3115, 37.38623
989.7936, 18.29785
990.2758, 6.152344
990.7579, 25.54541
991.2400, 42.70801
991.7221, 27.92139
992.2042, 3.646973
992.6863, 2.671875
993.1685, 9.789551
993.6506, 28.46997
994.1327, 53.77002
994.6148, 71.30371
995.0969, 71.45752
995.5790, 65.19141
996.0612, 54.69189
996.5433, 45.54736
997.0254, 47.63232
997.5075, 58.80493
997.9896, 60.25757
998.4717, 41.55811
998.9539, 29.47437
999.4360, 46.66528
999.9181, 63.73511
1000.400, 57.44287
1000.882, 40.47217
1001.364, 27.10449
1001.847, 20.00854
1002.329, 19.77441
1002.811, 28.77051
1003.293, 37.78174
1003.775, 41.63623
1004.257, 44.94922
1004.739, 54.91650
1005.221, 63.54077
1005.703, 57.08936
1006.186, 38.97485
1006.668, 27.58984
1007.150, 31.19287
1007.632, 35.13159
1008.114, 27.26880
1008.596, 23.62793
1009.078, 45.98169
1009.560, 70.74146
1010.043, 63.34326
1010.525, 30.98755
1011.007, 14.03540
1011.489, 31.02539
1011.971, 40.70776
1012.453, 13.86841
1012.935, 12.52783
1013.417, 16.18042
1013.899, 7.011963
1014.382, 7.668213
1014.864, 23.76709
1015.346, 33.41431
1015.828, 32.85107
1016.310, 32.58740
1016.792, 42.05640
1017.274, 46.46069
1017.756, 30.32300
1018.239, 10.94727
1018.721, 7.295410
1019.203, 16.11670
1019.685, 22.30469
1020.167, 21.27051
1020.649, 23.35913
1021.131, 36.51782
1021.613, 47.77563
1022.095, 49.74072
1022.578, 48.41895
1023.060, 49.07764
1023.542, 51.27295
1024.024, 51.92261
1024.506, 49.59961
1024.988, 50.81226
1025.470, 62.31885
1025.952, 73.25903
1026.435, 78.73804
1026.917, 81.87109
1027.399, 87.64282
1027.881, 91.68823
1028.363, 88.30908
1028.845, 77.61133
1029.327, 69.42090
1029.809, 65.09180
1030.292, 64.10791
1030.774, 74.29980
1031.256, 79.65942
1031.738, 61.55469
1032.220, 34.00293
1032.702, 24.00513
1033.184, 35.01245
1033.666, 40.99365
1034.148, 30.74243
1034.630, 27.33521
1035.113, 40.81592
1035.595, 56.11230
1036.077, 69.64941
1036.559, 77.26758
1037.041, 69.35669
1037.523, 45.13599
1038.005, 32.49829
1038.487, 42.29834
1038.970, 46.35815
1039.452, 39.92944
1039.934, 31.55249
1040.416, 22.64331
1040.898, 15.73022
1041.380, 15.63110
1041.862, 21.27295
1042.344, 20.06665
1042.826, 2.548584
1043.309, 6.1278999E-02
1043.791, 24.81787
1044.273, 43.21216
1044.755, 39.95093
1045.237, 27.38672
1045.719, 14.94238
1046.201, 4.611572
1046.683, 6.139404
1047.166, 23.06592
1047.648, 41.15454
1048.130, 64.05029
1048.612, 75.57153
1049.094, 66.60669
1049.576, 55.96753
1050.058, 60.98999
1050.540, 73.87817
1051.022, 73.29419
1051.505, 57.34253
1051.987, 44.30884
1052.469, 33.94043
1052.951, 30.43970
1053.433, 36.92407
1053.915, 36.33179
1054.397, 13.44824
1054.879, 11.14111
1055.361, 5.921387
1055.844, 59.17529
1056.326, 81.73413
1056.808, 73.85010
1057.290, 63.80981
1057.772, 56.39673
1058.254, 50.22852
1058.736, 44.46313
1059.218, 41.16382
1059.701, 43.82422
1060.183, 50.55469
1060.665, 56.90894
1061.147, 61.79224
1061.629, 57.35010
1062.111, 43.91406
1062.593, 30.08179
1063.075, 19.42651
1063.557, 14.70093
1064.040, 20.78125
1064.522, 30.06421
1065.004, 28.00195
1065.486, 18.45190
1065.968, 6.824463
1066.450, 3.218994
1066.932, 0.2075200
1067.414, 17.22998
1067.896, 36.84399
1068.379, 51.89331
1068.861, 59.45361
1069.343, 50.69336
1069.825, 36.64795
1070.307, 33.94141
1070.789, 36.68335
1071.271, 32.42896
1071.753, 22.50244
1072.236, 19.86304
1072.718, 31.39355
1073.200, 42.34082
1073.682, 41.00146
1074.164, 36.55225
1074.646, 36.08936
1075.128, 37.05884
1075.610, 36.82422
1076.093, 34.79468
1076.575, 30.12158
1077.057, 22.50757
1077.539, 16.26953
1078.021, 10.42383
1078.503, 10.18579
1078.985, 21.76880
1079.467, 36.05933
1079.949, 49.07495
1080.432, 58.46851
1080.914, 60.09473
1081.396, 53.92163
1081.878, 48.98340
1082.360, 50.00830
1082.842, 47.92847
1083.324, 44.54297
1083.806, 33.99707
1084.288, 2.254395
1084.771, 35.03931
1085.253, 24.33911
1085.735, 19.13013
1086.217, 42.84595
1086.699, 41.24683
1087.181, 33.55615
1087.663, 10.51440
1088.145, 1.387451
1088.628, 22.25342
1089.110, 43.66553
1089.592, 43.09692
1090.074, 30.91113
1090.556, 29.44702
1091.038, 39.34692
1091.520, 40.82373
1092.002, 32.41724
1092.484, 24.21460
1092.967, 17.28687
1093.449, 15.06982
1093.931, 20.11743
1094.413, 25.84839
1094.895, 22.95947
1095.377, 14.98682
1095.859, 16.28101
1096.341, 25.28052
1096.823, 30.08618
1097.306, 29.87646
1097.788, 26.65820
1098.270, 21.37891
1098.752, 17.67456
1099.234, 18.78955
1099.716, 21.72168
1100.198, 23.44702
1100.680, 22.67212
1101.163, 11.28979
1101.645, 2.998535
1102.127, 1.270508
1102.609, 23.55347
1103.091, 46.21167
1103.573, 61.38330
1104.055, 65.38477
1104.537, 41.48413
1105.020, 19.74487
1105.502, 35.93896
1105.984, 64.08862
1106.466, 73.54492
1106.948, 68.32886
1107.430, 60.75171
1107.912, 53.95728
1108.394, 48.80884
1108.876, 45.55640
1109.359, 43.93188
1109.841, 48.31836
1110.323, 49.30298
1110.805, 32.35474
1111.287, 14.84399
1111.769, 22.67212
1112.251, 50.80371
1112.733, 65.87866
1113.215, 60.69409
1113.698, 58.14062
1114.180, 62.92041
1114.662, 63.75000
1115.144, 54.90601
1115.626, 46.02881
1116.108, 43.79102
1116.590, 45.43164
1117.072, 46.12769
1117.555, 45.87866
1118.037, 42.18896
1118.519, 33.12915
1119.001, 33.78394
1119.483, 48.52515
1119.965, 54.22412
1120.447, 39.78003
1120.929, 22.31885
1121.411, 19.79688
1121.894, 26.59131
1122.376, 25.84106
1122.858, 20.92310
1123.340, 34.19482
1123.822, 61.55957
1124.304, 75.99121
1124.786, 73.00879
1125.268, 67.67261
1125.750, 68.64941
1126.233, 66.65479
1126.715, 45.39038
1127.197, 20.07202
1127.679, 13.50806
1128.161, 16.47778
1128.643, 15.05420
1129.125, 9.257080
1129.607, 1.321045
1130.090, 6.912842
1130.572, 3.491455
1131.054, 26.27759
1131.536, 53.56738
1132.018, 64.92310
1132.500, 67.14697
1132.982, 59.99878
1133.464, 50.04883
1133.947, 44.94141
1134.429, 43.99902
1134.911, 41.90820
1135.393, 38.04346
1135.875, 33.07495
1136.357, 25.95825
1136.839, 19.01416
1137.321, 11.52515
1137.803, 5.502930
1138.286, 0.1518550
1138.768, 0.7131350
1139.250, 13.03320
1139.732, 38.64355
1140.214, 53.78906
1140.696, 58.28076
1141.178, 51.27686
1141.660, 30.70361
1142.142, 19.47119
1142.625, 23.85596
1143.107, 27.68774
1143.589, 16.40088
1144.071, 0.1618650
1144.553, 0.8762210
1145.035, 11.94702
1145.517, 5.466064
1145.999, 10.30444
1146.482, 6.517578
1146.964, 15.80518
1147.446, 35.87964
1147.928, 45.75781
1148.410, 51.28296
1148.892, 53.88770
1149.374, 58.83398
1149.856, 80.26147
1150.339, 97.27881
1150.821, 81.22363
1151.303, 51.27417
1151.785, 36.92456
1152.267, 38.69507
1152.749, 39.35400
1153.231, 33.56641
1153.713, 31.38232
1154.195, 39.54565
1154.677, 45.45801
1155.160, 38.80151
1155.642, 36.14233
1156.124, 54.49927
1156.606, 77.33130
1157.088, 80.07812
1157.570, 64.27197
1158.052, 46.18506
1158.534, 23.39575
1159.017, 12.10229
1159.499, 12.84741
1159.981, 18.72095
1160.463, 27.60522
1160.945, 38.97729
1161.427, 53.31274
1161.909, 66.26025
1162.391, 73.02856
1162.874, 71.39526
1163.356, 45.69946
1163.838, 6.666992
1164.320, 11.31323
1164.802, 6.850098
1165.284, 10.34473
1165.766, 35.04077
1166.248, 54.18481
1166.730, 58.68433
1167.213, 56.21631
1167.695, 49.29248
1168.177, 41.28662
1168.659, 12.90015
1169.141, 43.11157
1169.623, 60.03931
1170.105, 64.39697
1170.587, 18.53809
1171.069, 37.52051
1171.552, 30.51587
1172.034, 22.44434
1172.516, 50.55103
1172.998, 11.98389
1173.480, 39.51514
1173.962, 40.66162
1174.444, 53.88550
1174.926, 40.96558
1175.409, 36.12109
1175.891, 57.42651
1176.373, 64.19409
1176.855, 48.17310
1177.337, 61.34302
1177.819, 21.41870
1178.301, 28.84351
1178.783, 56.51050
1179.266, 41.87256
1179.748, 56.32178
1180.230, 59.69092
1180.712, 12.70337
1181.194, 53.14062
1181.676, 55.40186
1182.158, 19.18237
1182.640, 56.75146
1183.122, 25.93384
1183.604, 19.53369
1184.087, 31.53735
1184.569, 24.16162
1185.051, 47.10571
1185.533, 39.42505
1186.015, 30.76221
1186.497, 33.45068
1186.979, 4.003418
1187.461, 34.17334
1187.944, 23.62109
1188.426, 33.31079
1188.908, 47.59155
1189.390, 26.73853
1189.872, 43.08008
1190.354, 1.740723
1190.836, 8.663330
1191.318, 29.90649
1191.801, 38.23828
1192.283, 36.72461
1192.765, 17.68140
1193.247, 1.208496
1193.729, 16.15479
1194.211, 46.54224
1194.693, 51.11743
1195.175, 42.19409
1195.657, 31.89941
1196.140, 25.26782
1196.622, 40.16821
1197.104, 71.30737
1197.586, 76.11157
1198.068, 32.21997
1198.550, 1.141846
1199.032, 27.14136
1199.514, 58.35205
1199.996, 60.44263
1200.479, 50.59570
1200.961, 36.62305
1201.443, 23.44238
1201.925, 15.29736
1202.407, 13.09424
1202.889, 20.69141
1203.371, 46.28687
1203.853, 53.90845
1204.336, 34.67236
1204.818, 27.15308
1205.300, 41.13867
1205.782, 59.00659
1206.264, 72.86035
1206.746, 80.13965
1207.228, 77.64160
1207.710, 66.71069
1208.193, 48.65625
1208.675, 27.67578
1209.157, 16.96484
1209.639, 16.02295
1210.121, 22.05688
1210.603, 31.33154
1211.085, 32.25464
1211.567, 19.40283
1212.049, 8.285889
1212.531, 7.190674
1213.014, 9.323730
1213.496, 10.98706
1213.978, 14.70239
1214.460, 28.89111
1214.942, 40.74780
1215.424, 27.58008
1215.906, 1.126953
1216.388, 7.761963
1216.871, 12.98975
1217.353, 21.24097
1217.835, 12.05298
1218.317, 12.58838
1218.799, 27.97241
1219.281, 43.48120
1219.763, 52.93970
1220.245, 55.48193
1220.728, 52.27539
1221.210, 57.20117
1221.692, 49.30078
1222.174, 34.14014
1222.656, 20.48975
1223.138, 9.552979
1223.620, 2.921631
1224.102, 0.0000000E+00
##END=



