##NAMES=Iron
##RRUFFID=R070255
##IDEAL CHEMISTRY=Fe
##LOCALITY=Camp Creek district, Silver Bow County, Montana, USA
##OWNER=RRUFF
##SOURCE=Michael Scott
##DESCRIPTION=Steel-gray anhedral grains
##STATUS=The identification of this mineral is not yet confirmed.
##URL=rruff.info/R070255
164.8920, 0.0000000E+00
165.3741, 5.093353
165.8563, 17.74472
166.3384, 14.19818
166.8205, 0.2413940
167.3026, 1.849609
167.7847, 38.64664
168.2668, 90.04019
168.7490, 106.9217
169.2311, 81.89812
169.7132, 59.64737
170.1953, 67.76752
170.6774, 93.34380
171.1595, 112.0926
171.6417, 111.2910
172.1238, 103.1250
172.6059, 116.3721
173.0880, 137.9480
173.5701, 151.8321
174.0522, 168.1500
174.5344, 181.3040
175.0165, 181.2804
175.4986, 173.2578
175.9807, 157.7054
176.4628, 142.8841
176.9449, 131.5900
177.4271, 116.7110
177.9092, 93.83998
178.3913, 66.34076
178.8734, 39.20057
179.3555, 14.58932
179.8376, 5.819512
180.3197, 6.508607
180.8019, 9.871043
181.2840, 3.875054
181.7661, 12.80986
182.2482, 8.664696
182.7303, 2.998811
183.2124, 3.541132
183.6946, 5.905202
184.1767, 2.739533
184.6588, 38.61783
185.1409, 66.89982
185.6230, 73.35838
186.1051, 70.33660
186.5873, 74.30577
187.0694, 91.79514
187.5515, 115.6652
188.0336, 124.0278
188.5157, 108.0968
188.9978, 92.70857
189.4800, 83.82751
189.9621, 78.69833
190.4442, 73.58908
190.9263, 66.60636
191.4084, 60.53476
191.8905, 62.51987
192.3727, 77.26132
192.8548, 90.19981
193.3369, 99.82722
193.8190, 105.7059
194.3011, 108.1560
194.7832, 106.7761
195.2654, 102.5541
195.7475, 98.81860
196.2296, 100.2557
196.7117, 92.09953
197.1938, 60.51005
197.6759, 26.74897
198.1581, 11.24732
198.6402, 20.34890
199.1223, 42.08396
199.6044, 53.98201
200.0865, 49.46570
200.5686, 47.98277
201.0508, 55.19316
201.5329, 62.98979
202.0150, 64.04903
202.4971, 56.64800
202.9792, 46.27628
203.4613, 42.50802
203.9435, 50.70470
204.4256, 53.82086
204.9077, 49.76814
205.3898, 42.24421
205.8719, 32.84076
206.3540, 22.41925
206.8362, 11.65780
207.3183, 1.355384
207.8004, 7.759791
208.2825, 1.226094
208.7646, 12.27959
209.2467, 24.48380
209.7289, 40.58532
210.2110, 43.89156
210.6931, 44.40077
211.1752, 32.79574
211.6573, 3.898291
212.1395, 1.739022
212.6216, 10.96962
213.1037, 21.21330
213.5858, 32.63957
214.0679, 44.66567
214.5500, 54.18336
215.0322, 58.40281
215.5143, 58.96739
215.9964, 62.01011
216.4785, 71.73891
216.9606, 79.30710
217.4427, 77.09637
217.9249, 68.64972
218.4070, 65.22864
218.8891, 77.86573
219.3712, 107.2192
219.8533, 127.9082
220.3354, 134.5258
220.8176, 137.1148
221.2997, 135.3767
221.7818, 131.6366
222.2639, 129.7435
222.7460, 134.4760
223.2281, 143.5768
223.7103, 147.9943
224.1924, 142.9855
224.6745, 137.9749
225.1566, 135.7449
225.6387, 135.0850
226.1208, 133.1397
226.6030, 127.9732
227.0851, 120.6121
227.5672, 116.3767
228.0493, 117.6595
228.5314, 119.5917
229.0135, 125.0087
229.4957, 129.1579
229.9778, 124.3652
230.4599, 106.7645
230.9420, 84.37513
231.4241, 78.19080
231.9062, 102.8027
232.3884, 118.7623
232.8705, 112.0955
233.3526, 100.7112
233.8347, 102.8112
234.3168, 123.9240
234.7989, 151.1439
235.2811, 160.7228
235.7632, 142.3788
236.2453, 129.9285
236.7274, 129.2306
237.2095, 132.0840
237.6916, 132.8983
238.1738, 131.3091
238.6559, 129.7128
239.1380, 131.7812
239.6201, 137.9264
240.1022, 142.5523
240.5843, 146.0303
241.0665, 146.9979
241.5486, 144.5132
242.0307, 140.2864
242.5128, 136.1202
242.9949, 132.3748
243.4770, 128.4711
243.9592, 127.3676
244.4413, 132.7173
244.9234, 137.8757
245.4055, 140.2116
245.8876, 140.0872
246.3697, 139.0279
246.8519, 138.1780
247.3340, 137.5113
247.8161, 136.5620
248.2982, 134.4489
248.7803, 133.2370
249.2624, 133.4490
249.7446, 135.1227
250.2267, 138.2835
250.7088, 142.7772
251.1909, 148.4997
251.6730, 156.1515
252.1551, 167.6768
252.6373, 177.2189
253.1194, 184.0297
253.6015, 187.7209
254.0836, 187.2768
254.5657, 181.8693
255.0478, 173.4340
255.5300, 165.5594
256.0121, 159.0700
256.4942, 151.1437
256.9763, 135.7912
257.4584, 121.5969
257.9406, 116.2477
258.4227, 121.6997
258.9048, 129.6406
259.3869, 131.3082
259.8690, 126.3906
260.3511, 120.8243
260.8333, 114.1525
261.3154, 108.5976
261.7975, 106.9966
262.2796, 109.0743
262.7617, 109.8931
263.2438, 104.3724
263.7260, 93.87968
264.2081, 86.27455
264.6902, 81.58485
265.1723, 81.44682
265.6544, 89.37968
266.1365, 103.2826
266.6187, 113.8760
267.1008, 116.9503
267.5829, 113.0775
268.0650, 103.2605
268.5471, 85.53421
269.0292, 70.61430
269.5114, 69.38771
269.9935, 75.43886
270.4756, 79.64360
270.9577, 78.07307
271.4398, 74.92549
271.9219, 75.56407
272.4041, 80.07275
272.8862, 83.22358
273.3683, 81.02793
273.8504, 76.45586
274.3325, 75.81273
274.8146, 82.53768
275.2968, 87.56020
275.7789, 81.44550
276.2610, 67.41419
276.7431, 59.61693
277.2252, 64.66656
277.7073, 75.99620
278.1895, 82.28118
278.6716, 82.63542
279.1537, 83.27770
279.6358, 87.19852
280.1179, 92.68565
280.6000, 97.41544
281.0822, 101.1884
281.5643, 102.4078
282.0464, 97.76598
282.5285, 86.61346
283.0106, 78.29792
283.4927, 72.55072
283.9749, 70.92841
284.4570, 77.80479
284.9391, 92.49708
285.4212, 105.0313
285.9033, 106.0983
286.3854, 95.96399
286.8676, 92.81049
287.3497, 101.4717
287.8318, 111.6728
288.3139, 120.6914
288.7960, 127.3952
289.2781, 129.1597
289.7603, 124.1585
290.2424, 113.9875
290.7245, 105.4145
291.2066, 96.48391
291.6887, 91.39723
292.1708, 95.15789
292.6530, 101.6587
293.1351, 102.1603
293.6172, 93.62276
294.0993, 81.45940
294.5814, 75.35738
295.0635, 79.60604
295.5457, 82.14056
296.0278, 83.91135
296.5099, 83.44894
296.9920, 77.79339
297.4741, 67.69486
297.9562, 58.54155
298.4384, 56.29386
298.9205, 62.47985
299.4026, 66.68495
299.8847, 69.24503
300.3668, 69.85854
300.8489, 66.65441
301.3310, 61.02587
301.8131, 55.87327
302.2953, 53.19899
302.7774, 52.62851
303.2595, 54.77782
303.7416, 66.64434
304.2237, 69.64593
304.7058, 50.73737
305.1880, 26.22541
305.6701, 15.35610
306.1522, 25.65544
306.6343, 43.34254
307.1164, 42.94197
307.5985, 16.94736
308.0807, 1.499849
308.5628, 13.02384
309.0449, 30.03262
309.5270, 43.06213
310.0091, 50.64414
310.4912, 53.33717
310.9734, 48.04010
311.4555, 35.80486
311.9376, 29.91244
312.4197, 34.77880
312.9018, 41.17094
313.3839, 43.55780
313.8661, 42.46712
314.3482, 39.89152
314.8303, 35.02177
315.3124, 29.62503
315.7945, 27.28448
316.2766, 29.00386
316.7588, 28.04276
317.2409, 17.05668
317.7230, 2.574747
318.2051, 5.489277
318.6872, 4.399066
319.1693, 1.632580
319.6515, 13.63857
320.1336, 29.29153
320.6157, 37.70667
321.0978, 33.76683
321.5799, 23.05695
322.0620, 13.62768
322.5442, 5.421116
323.0263, 1.169542
323.5084, 7.161007
323.9905, 11.21309
324.4726, 11.33849
324.9547, 7.243876
325.4369, 1.266227
325.9190, 5.005936
326.4011, 11.62462
326.8832, 15.18153
327.3653, 13.04508
327.8474, 10.51027
328.3296, 10.34773
328.8117, 12.24056
329.2938, 15.19135
329.7759, 18.98088
330.2580, 22.84032
330.7401, 23.06486
331.2223, 16.66074
331.7044, 10.23192
332.1865, 3.197268
332.6686, 2.925338
333.1507, 6.930182
333.6328, 8.386497
334.1150, 6.985945
334.5971, 1.333378
335.0792, 12.22184
335.5613, 20.11724
336.0434, 18.21062
336.5255, 14.96183
337.0077, 14.12474
337.4898, 15.83085
337.9719, 18.77486
338.4540, 22.32671
338.9361, 26.23984
339.4182, 28.38759
339.9004, 29.26456
340.3825, 27.31917
340.8646, 19.38153
341.3467, 9.672871
341.8288, 3.823148
342.3109, 4.278723
342.7931, 7.663330
343.2752, 8.933363
343.7573, 7.678471
344.2394, 7.224327
344.7215, 8.276646
345.2036, 10.57612
345.6858, 14.98445
346.1679, 21.37285
346.6500, 25.72258
347.1321, 24.71997
347.6142, 19.76710
348.0963, 13.83992
348.5785, 6.142037
349.0606, 0.8879760
349.5427, 4.606988
350.0248, 13.86012
350.5069, 18.18700
350.9890, 10.50075
351.4712, 1.405265
351.9533, 0.8414750
352.4354, 7.183529
352.9175, 11.45351
353.3996, 8.801525
353.8817, 2.198616
354.3639, 9.7093999E-02
354.8460, 5.053482
355.3281, 7.071926
355.8102, 9.2199998E-04
356.2923, 4.546940
356.7744, 0.4512360
357.2566, 1.166677
357.7387, 5.826703
358.2208, 3.384351
358.7029, 0.8876690
359.1850, 2.014349
359.6671, 4.773077
360.1493, 2.886220
360.6314, 4.871063
361.1135, 5.212427
361.5956, 11.35219
362.0777, 7.684885
362.5598, 2.743210
363.0420, 2.440244
363.5241, 4.537632
364.0062, 5.302606
364.4883, 1.019588
364.9704, 3.396369
365.4525, 2.197541
365.9347, 4.825357
366.4168, 2.200263
366.8989, 0.4904620
367.3810, 4.385225
367.8631, 13.30354
368.3452, 14.10841
368.8274, 13.58292
369.3095, 16.59853
369.7916, 21.12692
370.2737, 22.08291
370.7558, 15.81405
371.2379, 5.665784
371.7201, 3.271489
372.2022, 3.246748
372.6843, 9.724617
373.1664, 15.68290
373.6485, 19.12129
374.1306, 15.53899
374.6128, 1.213826
375.0949, 0.1838130
375.5770, 6.952764
376.0591, 31.09135
376.5412, 45.54480
377.0233, 45.46438
377.5055, 39.51293
377.9876, 35.77974
378.4697, 34.58640
378.9518, 29.81583
379.4339, 14.70703
379.9160, 2.014107
380.3982, 0.1641140
380.8803, 7.174508
381.3624, 17.80104
381.8445, 30.66113
382.3266, 43.00764
382.8087, 47.65029
383.2909, 34.91447
383.7730, 26.95137
384.2551, 25.23614
384.7372, 27.06948
385.2193, 32.05255
385.7014, 39.40990
386.1836, 44.65709
386.6657, 42.17119
387.1478, 31.42338
387.6299, 23.68551
388.1120, 20.62586
388.5941, 18.71456
389.0763, 17.10006
389.5584, 15.78559
390.0405, 14.75565
390.5226, 13.79237
391.0047, 13.28775
391.4868, 14.30971
391.9690, 17.37339
392.4511, 21.42823
392.9332, 25.47107
393.4153, 28.72332
393.8974, 29.85100
394.3795, 28.89007
394.8617, 28.61862
395.3438, 30.99635
395.8259, 34.60194
396.3080, 37.45247
396.7901, 39.43502
397.2722, 39.29991
397.7544, 34.75239
398.2365, 28.05613
398.7186, 26.25529
399.2007, 34.15756
399.6828, 40.33380
400.1649, 39.79615
400.6471, 35.39746
401.1292, 31.90817
401.6113, 30.89540
402.0934, 30.55909
402.5755, 27.52669
403.0576, 18.44248
403.5398, 17.82502
404.0219, 34.75736
404.5040, 50.51669
404.9861, 53.78164
405.4682, 47.70589
405.9503, 42.17116
406.4325, 43.79435
406.9146, 49.74622
407.3967, 49.44186
407.8788, 38.23761
408.3609, 30.30010
408.8430, 29.84126
409.3252, 32.39372
409.8073, 35.31326
410.2894, 37.99210
410.7715, 39.69358
411.2536, 38.99946
411.7357, 36.53555
412.2179, 35.23554
412.7000, 34.78370
413.1821, 37.09198
413.6642, 49.39627
414.1463, 64.73550
414.6284, 68.51449
415.1106, 49.09385
415.5927, 27.90442
416.0748, 21.70795
416.5569, 27.01995
417.0390, 33.23253
417.5211, 36.75822
418.0033, 38.73827
418.4854, 40.25883
418.9675, 41.66399
419.4496, 42.63378
419.9317, 45.11110
420.4138, 45.27116
420.8960, 38.35506
421.3781, 26.81409
421.8602, 18.21585
422.3423, 17.65961
422.8244, 23.34571
423.3065, 27.78885
423.7887, 29.88617
424.2708, 32.83645
424.7529, 38.67238
425.2350, 43.15174
425.7171, 40.42408
426.1992, 31.23436
426.6814, 23.90809
427.1635, 30.15229
427.6456, 47.89906
428.1277, 51.44769
428.6098, 34.16342
429.0919, 16.55078
429.5741, 7.551044
430.0562, 5.069627
430.5383, 6.810013
431.0204, 15.39564
431.5025, 21.39704
431.9846, 12.68540
432.4668, 2.683208
432.9489, 7.796541
433.4310, 4.760525
433.9131, 3.662971
434.3952, 7.627405
434.8773, 20.73453
435.3595, 27.71286
435.8416, 21.27447
436.3237, 14.71896
436.8058, 19.58863
437.2879, 31.14264
437.7701, 35.68624
438.2522, 25.78201
438.7343, 7.609553
439.2164, 4.004436
439.6985, 4.396514
440.1806, 2.986395
440.6628, 1.782243
441.1449, 4.946333
441.6270, 1.921516
442.1091, 3.284341
442.5912, 4.446522
443.0733, 7.929467
443.5555, 7.966129
444.0376, 7.170106
444.5197, 4.675848
445.0018, 3.773655
445.4839, 5.858118
445.9660, 10.18205
446.4482, 17.79427
446.9303, 29.72465
447.4124, 37.56631
447.8945, 33.95352
448.3766, 23.03654
448.8587, 11.67753
449.3409, 0.3363220
449.8230, 4.277938
450.3051, 1.255287
450.7872, 18.47997
451.2693, 26.06067
451.7514, 14.08954
452.2336, 4.776943
452.7157, 8.398870
453.1978, 17.97212
453.6799, 24.52365
454.1620, 25.22438
454.6441, 21.01946
455.1263, 11.71747
455.6084, 4.880199
456.0905, 3.124356
456.5726, 2.878433
457.0547, 6.854703
457.5368, 10.42292
458.0190, 9.763793
458.5011, 7.860378
458.9832, 5.480166
459.4653, 4.650846
459.9474, 9.671264
460.4295, 20.64896
460.9117, 28.75412
461.3938, 31.26536
461.8759, 31.80408
462.3580, 34.33892
462.8401, 38.17177
463.3222, 39.32435
463.8044, 34.80481
464.2865, 28.36853
464.7686, 24.81877
465.2507, 23.62342
465.7328, 21.61387
466.2149, 16.97206
466.6971, 12.43006
467.1792, 13.70959
467.6613, 25.85154
468.1434, 33.18966
468.6255, 32.44609
469.1076, 29.85749
469.5898, 29.41490
470.0719, 30.57066
470.5540, 30.40815
471.0361, 27.30039
471.5182, 21.85155
472.0003, 20.01338
472.4825, 23.90949
472.9646, 25.70841
473.4467, 19.02416
473.9288, 13.19863
474.4109, 16.55661
474.8930, 28.16343
475.3752, 38.46814
475.8573, 41.06698
476.3394, 38.47512
476.8215, 35.23055
477.3036, 31.94911
477.7857, 26.97775
478.2679, 17.76928
478.7500, 7.775988
479.2321, 6.719149
479.7142, 20.13359
480.1963, 27.37467
480.6784, 17.06034
481.1606, 3.909554
481.6427, 2.862668
482.1248, 13.45261
482.6069, 24.84036
483.0890, 29.11094
483.5711, 27.23366
484.0533, 24.36953
484.5354, 18.30520
485.0175, 15.02431
485.4996, 17.36151
485.9817, 21.04985
486.4638, 22.52339
486.9460, 21.51402
487.4281, 20.50220
487.9102, 22.21710
488.3923, 25.57610
488.8744, 26.33253
489.3565, 23.47241
489.8387, 20.81676
490.3208, 18.99213
490.8029, 18.50960
491.2850, 20.48602
491.7671, 26.49457
492.2492, 31.05953
492.7314, 30.68046
493.2135, 27.76035
493.6956, 24.01912
494.1777, 20.14224
494.6598, 17.71859
495.1419, 17.94068
495.6241, 20.68035
496.1062, 25.34137
496.5883, 37.17202
497.0704, 42.63492
497.5525, 36.20831
498.0346, 27.16578
498.5168, 23.97690
498.9989, 26.77532
499.4810, 28.98981
499.9631, 23.37363
500.4452, 12.99939
500.9273, 8.330083
501.4095, 10.41899
501.8916, 13.71265
502.3737, 17.34655
502.8558, 19.80222
503.3379, 17.81812
503.8200, 9.349672
504.3022, 4.841309
504.7843, 12.83878
505.2664, 24.21576
505.7485, 28.02322
506.2306, 24.32316
506.7127, 18.30765
507.1949, 12.41497
507.6770, 7.402846
508.1591, 7.539468
508.6412, 17.58348
509.1233, 25.07011
509.6054, 28.01456
510.0876, 28.21094
510.5697, 27.98353
511.0518, 27.46838
511.5339, 24.86461
512.0161, 16.71185
512.4982, 6.228405
512.9803, 1.811316
513.4624, 3.703197
513.9445, 5.603705
514.4266, 4.444698
514.9088, 3.850595
515.3909, 9.728340
515.8730, 23.05151
516.3551, 30.17641
516.8372, 19.63695
517.3193, 6.525085
517.8015, 7.037150
518.2836, 18.57228
518.7657, 27.81724
519.2478, 27.73475
519.7299, 20.94107
520.2120, 13.06694
520.6942, 0.1519060
521.1763, 5.387906
521.6584, 0.4103060
522.1405, 8.535878
522.6226, 13.12966
523.1047, 14.60273
523.5869, 15.30756
524.0690, 16.48681
524.5511, 18.01948
525.0332, 17.81396
525.5153, 15.47756
525.9974, 16.47066
526.4796, 25.82450
526.9617, 33.81604
527.4438, 25.42664
527.9259, 3.225580
528.4080, 2.881032
528.8901, 3.562601
529.3723, 17.28006
529.8544, 20.04921
530.3365, 15.01772
530.8186, 8.181602
531.3007, 1.681000
531.7828, 4.225008
532.2650, 1.599073
532.7471, 4.336060
533.2292, 4.608519
533.7113, 5.111830
534.1934, 5.342219
534.6755, 12.27635
535.1577, 16.65358
535.6398, 20.07516
536.1219, 23.06597
536.6040, 24.54322
537.0861, 22.33873
537.5682, 17.92539
538.0504, 15.77422
538.5325, 16.53535
539.0146, 18.78220
539.4967, 23.05197
539.9788, 28.25850
540.4609, 27.98116
540.9431, 16.68929
541.4252, 8.169518
541.9073, 7.960161
542.3894, 10.28046
542.8715, 9.166378
543.3536, 4.471255
543.8358, 0.3758040
544.3179, 0.5052300
544.8000, 3.628222
545.2821, 3.740773
545.7642, 1.368606
546.2463, 3.411154
546.7285, 1.820125
547.2106, 9.427136
547.6926, 16.78951
548.1747, 23.50882
548.6569, 27.77537
549.1390, 27.74607
549.6211, 25.55694
550.1032, 22.79988
550.5853, 19.70830
551.0674, 18.18401
551.5496, 19.52560
552.0317, 22.11293
552.5138, 23.15452
552.9959, 21.50001
553.4780, 22.27962
553.9601, 30.83232
554.4423, 35.78312
554.9244, 27.83270
555.4065, 14.73683
555.8886, 9.632868
556.3707, 17.50133
556.8528, 29.05739
557.3350, 32.61790
557.8171, 29.31297
558.2992, 28.45533
558.7813, 31.25031
559.2634, 35.64231
559.7455, 43.55619
560.2277, 51.41317
560.7098, 48.26560
561.1919, 24.93826
561.6740, 6.549310
562.1561, 5.555498
562.6382, 10.57277
563.1204, 7.056882
563.6025, 4.272683
564.0846, 0.8332770
564.5667, 4.406568
565.0488, 29.23748
565.5309, 34.46315
566.0131, 9.413686
566.4952, 1.780179
566.9773, 4.690159
567.4594, 2.311679
567.9415, 0.2518070
568.4236, 1.1578000E-02
568.9058, 4.014630
569.3879, 1.061495
569.8700, 14.97581
570.3521, 18.48479
570.8342, 12.87016
571.3163, 9.955995
571.7985, 13.39619
572.2806, 19.58474
572.7627, 24.54669
573.2448, 28.37387
573.7269, 30.32720
574.2090, 27.45919
574.6912, 26.35645
575.1733, 31.80597
575.6554, 38.33360
576.1375, 39.72634
576.6196, 34.76137
577.1017, 27.29854
577.5839, 18.75832
578.0660, 10.38758
578.5481, 6.599536
579.0302, 7.390546
579.5123, 10.88566
579.9944, 17.81101
580.4766, 23.99009
580.9587, 19.33450
581.4408, 0.1616920
581.9229, 2.087451
582.4050, 4.681537
582.8871, 0.5442910
583.3693, 3.018465
583.8514, 21.29536
584.3335, 32.33698
584.8156, 30.73027
585.2977, 23.73236
585.7798, 22.64325
586.2620, 27.40485
586.7441, 33.90528
587.2262, 44.34717
587.7083, 51.09889
588.1904, 46.17475
588.6725, 35.70916
589.1547, 29.87000
589.6368, 31.25924
590.1189, 32.88723
590.6010, 32.31514
591.0831, 29.48066
591.5652, 21.78805
592.0474, 10.88210
592.5295, 4.859875
593.0116, 10.09177
593.4937, 22.35367
593.9758, 28.41700
594.4579, 25.35136
594.9401, 22.99126
595.4222, 23.46109
595.9043, 23.57520
596.3864, 21.98853
596.8685, 18.76293
597.3506, 13.64638
597.8328, 4.174270
598.3149, 2.520135
598.7970, 3.156561
599.2791, 16.68115
599.7612, 24.94502
600.2433, 25.07867
600.7255, 23.72213
601.2076, 26.78618
601.6897, 33.47892
602.1718, 35.29597
602.6539, 26.11678
603.1360, 20.40252
603.6182, 22.01933
604.1003, 24.95676
604.5824, 25.83783
605.0645, 24.01235
605.5466, 20.56088
606.0287, 14.72703
606.5109, 8.204737
606.9930, 1.680518
607.4751, 4.277647
607.9572, 4.209399
608.4393, 4.331339
608.9214, 15.15878
609.4036, 23.09317
609.8857, 28.09571
610.3678, 27.49334
610.8499, 14.15992
611.3320, 4.796122
611.8141, 5.577484
612.2963, 10.70147
612.7784, 15.05045
613.2605, 17.61107
613.7426, 19.29547
614.2247, 20.78880
614.7068, 21.89760
615.1890, 21.42403
615.6711, 19.19709
616.1532, 19.87571
616.6353, 26.67299
617.1174, 33.47734
617.5995, 32.84677
618.0817, 24.58808
618.5638, 16.97334
619.0459, 8.776953
619.5280, 3.056156
620.0101, 2.356387
620.4922, 4.129214
620.9744, 5.007695
621.4565, 4.132318
621.9386, 4.032714
622.4207, 7.833480
622.9028, 13.73926
623.3849, 15.23850
623.8671, 11.08626
624.3492, 9.931479
624.8313, 17.94610
625.3134, 27.39399
625.7955, 25.75027
626.2776, 13.49128
626.7598, 6.990089
627.2419, 14.40690
627.7240, 22.81278
628.2061, 26.36075
628.6882, 26.56759
629.1703, 24.32661
629.6525, 20.70286
630.1346, 20.40307
630.6167, 31.28180
631.0988, 48.92492
631.5809, 45.27860
632.0630, 12.56551
632.5452, 0.3195700
633.0273, 9.7785003E-02
633.5094, 1.812531
633.9915, 1.594954
634.4736, 0.8456200
634.9557, 1.631347
635.4379, 18.85006
635.9200, 33.80809
636.4021, 32.62310
636.8842, 23.85963
637.3663, 22.69909
637.8484, 31.93866
638.3306, 41.37781
638.8127, 40.47716
639.2948, 30.98309
639.7769, 22.74652
640.2590, 15.74539
640.7411, 12.03561
641.2233, 14.73445
641.7054, 18.26381
642.1875, 16.05430
642.6696, 8.704979
643.1517, 4.662427
643.6339, 8.543906
644.1160, 13.07654
644.5981, 14.85627
645.0802, 14.46951
645.5623, 12.39148
646.0444, 9.024698
646.5266, 5.536779
647.0087, 2.653241
647.4908, 0.7758220
647.9729, 2.766888
648.4550, 10.30765
648.9371, 14.80241
649.4193, 12.73218
649.9014, 8.272324
650.3835, 4.486483
650.8656, 1.539341
651.3477, 0.8309830
651.8298, 3.414018
652.3120, 7.343565
652.7941, 13.16246
653.2762, 19.09135
653.7583, 22.70214
654.2404, 23.70582
654.7225, 23.79527
655.2047, 25.00108
655.6868, 25.44640
656.1689, 16.31838
656.6510, 4.954140
657.1331, 6.907945
657.6152, 4.749360
658.0974, 4.100680
658.5795, 5.397594
659.0616, 18.92659
659.5437, 25.06156
660.0258, 15.22134
660.5079, 7.608751
660.9901, 12.94239
661.4722, 20.65514
661.9543, 16.19284
662.4364, 1.659812
662.9185, 3.775188
663.4006, 2.258336
663.8828, 20.84131
664.3649, 31.26561
664.8470, 33.31254
665.3291, 34.26651
665.8112, 36.14861
666.2933, 36.08650
666.7755, 29.79285
667.2576, 19.29276
667.7397, 13.54443
668.2218, 17.17516
668.7039, 18.02731
669.1860, 9.344287
669.6682, 0.6617240
670.1503, 1.355363
670.6324, 8.924247
671.1145, 12.99283
671.5966, 8.020848
672.0787, 1.895674
672.5609, 8.127740
673.0430, 23.87233
673.5251, 28.88984
674.0072, 19.00737
674.4893, 12.14345
674.9714, 20.81217
675.4536, 38.03601
675.9357, 45.46442
676.4178, 37.92694
676.8999, 31.97307
677.3820, 28.57987
677.8641, 25.98800
678.3463, 23.15609
678.8284, 20.43700
679.3105, 18.07307
679.7926, 16.15019
680.2747, 16.39975
680.7568, 24.19035
681.2390, 34.45516
681.7211, 31.92074
682.2032, 16.94803
682.6853, 7.905964
683.1674, 13.89560
683.6495, 25.65206
684.1317, 28.53523
684.6138, 20.39153
685.0959, 14.72750
685.5780, 8.753186
686.0601, 8.667291
686.5422, 24.92784
687.0244, 42.37971
687.5065, 43.18157
687.9886, 26.32774
688.4707, 8.795267
688.9528, 2.118275
689.4349, 1.408378
689.9171, 3.959682
690.3992, 4.308316
690.8813, 11.28538
691.3634, 15.14366
691.8455, 14.34770
692.3276, 5.825368
692.8098, 2.4001000E-02
693.2919, 4.530694
693.7740, 3.307947
694.2561, 6.660046
694.7382, 17.99207
695.2203, 25.06198
695.7025, 20.41623
696.1846, 7.740386
696.6667, 1.114988
697.1488, 8.944321
697.6309, 16.11388
698.1130, 12.66111
698.5952, 5.098439
699.0773, 0.4530930
699.5594, 9.8278001E-02
700.0415, 3.490617
700.5236, 11.77589
701.0057, 21.42598
701.4879, 24.95679
701.9700, 22.03674
702.4521, 20.22981
702.9342, 20.49132
703.4163, 21.06188
703.8984, 20.21204
704.3806, 19.26043
704.8627, 22.20582
705.3448, 32.42670
705.8269, 36.56562
706.3090, 26.06616
706.7911, 15.75141
707.2733, 15.47206
707.7554, 21.18843
708.2375, 25.77688
708.7196, 26.97837
709.2017, 26.31041
709.6838, 23.66650
710.1660, 20.62263
710.6481, 22.30636
711.1302, 28.41465
711.6123, 32.17290
712.0944, 30.60047
712.5765, 28.52971
713.0587, 33.43799
713.5408, 45.56849
714.0229, 49.09714
714.5050, 36.67836
714.9871, 24.68846
715.4692, 10.45102
715.9514, 2.227173
716.4335, 12.20972
716.9156, 35.65519
717.3977, 51.20816
717.8798, 45.82316
718.3619, 36.11421
718.8441, 35.67672
719.3262, 39.76834
719.8083, 39.92555
720.2904, 35.89953
720.7725, 31.22279
721.2546, 29.20002
721.7368, 29.89512
722.2189, 35.08150
722.7010, 46.27449
723.1831, 50.83091
723.6652, 44.52449
724.1473, 38.05844
724.6295, 39.13293
725.1116, 43.36337
725.5937, 41.66013
726.0758, 32.51397
726.5579, 22.61098
727.0400, 10.78146
727.5222, 0.8990160
728.0043, 3.783266
728.4864, 2.624959
728.9685, 0.2671170
729.4506, 3.699641
729.9327, 6.140970
730.4149, 3.378346
730.8970, 2.598856
731.3791, 0.3009790
731.8612, 5.394318
732.3433, 6.955824
732.8254, 3.706801
733.3076, 0.7292660
733.7897, 3.173726
734.2718, 3.484550
734.7539, 0.4965470
735.2360, 14.33151
735.7181, 23.13106
736.2003, 23.21664
736.6824, 19.89973
737.1645, 14.30586
737.6466, 8.047112
738.1287, 4.991210
738.6108, 7.061869
739.0930, 10.23211
739.5751, 12.14157
740.0572, 14.00143
740.5393, 16.40545
741.0214, 20.02597
741.5035, 28.11174
741.9857, 42.19757
742.4678, 54.76354
742.9499, 53.38372
743.4320, 39.41275
743.9141, 26.99416
744.3962, 14.49841
744.8784, 12.58576
745.3605, 31.43824
745.8426, 54.64772
746.3247, 59.04102
746.8068, 41.43731
747.2889, 28.63764
747.7711, 20.94335
748.2532, 17.51879
748.7353, 20.10692
749.2174, 24.83482
749.6995, 28.77343
750.1816, 31.59923
750.6638, 33.63333
751.1459, 34.75282
751.6280, 36.09641
752.1101, 40.57915
752.5922, 44.77377
753.0743, 39.90357
753.5565, 26.52428
754.0386, 18.74491
754.5207, 25.43901
755.0028, 38.49368
755.4849, 41.78914
755.9670, 34.20743
756.4492, 26.78320
756.9313, 18.86782
757.4134, 12.97753
757.8955, 8.132982
758.3776, 7.487681
758.8597, 20.13502
759.3419, 48.56717
759.8240, 62.54587
760.3061, 50.44286
760.7882, 34.51459
761.2703, 18.74080
761.7524, 6.353473
762.2346, 0.2447810
762.7167, 0.3931260
763.1988, 4.066576
763.6809, 10.33454
764.1630, 18.31518
764.6451, 30.41078
765.1273, 42.84339
765.6094, 44.31393
766.0915, 34.32223
766.5736, 23.15296
767.0557, 16.62330
767.5378, 15.24335
768.0200, 23.36269
768.5021, 45.28474
768.9842, 48.66388
769.4663, 23.55317
769.9484, 3.0959001E-02
770.4305, 2.433414
770.9127, 3.053259
771.3948, 2.965646
771.8769, 8.772164
772.3590, 16.07075
772.8411, 9.683032
773.3232, 3.627931
773.8054, 3.919022
774.2875, 6.845840
774.7696, 8.498043
775.2517, 8.555899
775.7338, 8.944860
776.2159, 11.60627
776.6981, 13.13802
777.1802, 5.843773
777.6623, 3.347212
778.1444, 1.977091
778.6265, 13.53231
779.1086, 25.74855
779.5908, 25.35151
780.0729, 18.00335
780.5550, 13.96407
781.0371, 13.65305
781.5192, 12.18126
782.0013, 8.197662
782.4835, 6.680616
782.9656, 10.12144
783.4477, 16.38976
783.9298, 24.26099
784.4119, 33.90277
784.8940, 38.21563
785.3762, 30.45498
785.8583, 25.39376
786.3404, 30.29477
786.8225, 37.47044
787.3046, 40.98928
787.7867, 40.46529
788.2689, 37.07409
788.7510, 30.03181
789.2331, 24.10386
789.7152, 23.42099
790.1973, 25.90930
790.6794, 29.91736
791.1616, 34.07698
791.6437, 33.74436
792.1258, 27.07674
792.6079, 19.25251
793.0900, 17.29624
793.5721, 20.34523
794.0543, 19.13526
794.5364, 12.71966
795.0185, 7.967716
795.5006, 6.926539
795.9827, 8.068511
796.4648, 10.51239
796.9470, 13.94884
797.4291, 17.70097
797.9112, 20.67833
798.3933, 25.99409
798.8754, 42.80076
799.3575, 53.02174
799.8397, 41.27870
800.3218, 16.92256
800.8039, 3.103668
801.2860, 4.875322
801.7681, 9.927863
802.2502, 3.248495
802.7324, 4.387468
803.2145, 2.493862
803.6966, 3.793690
804.1787, 1.997218
804.6608, 16.32876
805.1429, 29.43341
805.6251, 32.83962
806.1072, 29.92487
806.5893, 27.15825
807.0714, 24.55414
807.5535, 22.83249
808.0356, 21.64252
808.5178, 19.64964
808.9999, 15.64858
809.4820, 10.39352
809.9641, 4.900907
810.4462, 3.700891
810.9283, 1.206331
811.4105, 21.63265
811.8926, 40.54610
812.3747, 44.66641
812.8568, 41.06777
813.3389, 37.33634
813.8210, 33.58092
814.3032, 27.92207
814.7853, 16.77557
815.2674, 7.921960
815.7495, 3.042850
816.2316, 2.358079
816.7137, 10.10831
817.1959, 22.08237
817.6780, 25.94431
818.1601, 14.96068
818.6422, 2.318118
819.1243, 1.856111
819.6064, 4.8990998E-02
820.0886, 7.114089
820.5707, 17.00119
821.0528, 21.53012
821.5349, 18.09771
822.0170, 14.42494
822.4991, 19.89981
822.9813, 31.77302
823.4634, 38.61609
823.9455, 40.38496
824.4276, 38.28469
824.9097, 31.72016
825.3918, 24.42632
825.8740, 18.46484
826.3561, 14.48970
826.8382, 15.19207
827.3203, 24.41052
827.8024, 29.39923
828.2845, 27.64097
828.7667, 24.08983
829.2488, 18.11662
829.7309, 13.13370
830.2130, 11.81000
830.6951, 14.65010
831.1772, 22.83921
831.6594, 47.59254
832.1415, 64.22819
832.6236, 55.43231
833.1057, 38.27203
833.5878, 29.71089
834.0699, 29.68809
834.5521, 30.30626
835.0342, 27.88446
835.5163, 25.77318
835.9984, 31.26670
836.4805, 38.47231
836.9626, 34.28524
837.4448, 21.56536
837.9269, 14.34683
838.4090, 16.99047
838.8911, 21.42891
839.3732, 18.35996
839.8553, 11.13463
840.3375, 14.38983
840.8196, 28.46465
841.3017, 33.73741
841.7838, 24.68130
842.2659, 17.43103
842.7480, 24.70060
843.2302, 39.14659
843.7123, 40.54163
844.1944, 21.84935
844.6765, 13.35238
845.1586, 24.67562
845.6407, 31.84230
846.1229, 19.28122
846.6050, 4.122981
847.0871, 4.780689
847.5692, 20.13484
848.0513, 32.74372
848.5334, 42.99723
849.0156, 46.56379
849.4977, 38.23324
849.9798, 26.57473
850.4619, 13.89111
850.9440, 3.792523
851.4261, 4.543868
851.9083, 19.65541
852.3904, 30.05205
852.8725, 17.97454
853.3546, 0.5996510
853.8367, 3.970320
854.3188, 7.935206
854.8010, 1.054898
855.2831, 6.828053
855.7652, 20.48599
856.2473, 22.87057
856.7294, 18.90226
857.2115, 15.49848
857.6937, 13.17669
858.1758, 15.16289
858.6579, 21.33031
859.1400, 26.91110
859.6221, 30.37480
860.1042, 31.03363
860.5864, 25.77131
861.0685, 14.85453
861.5506, 7.855285
862.0327, 4.789498
862.5148, 8.826436
862.9969, 26.64241
863.4791, 39.88104
863.9612, 29.74313
864.4433, 4.739976
864.9254, 3.865493
865.4075, 13.14043
865.8896, 27.34842
866.3718, 40.87708
866.8539, 49.30739
867.3360, 50.35641
867.8181, 46.00226
868.3002, 34.48593
868.7823, 17.78127
869.2645, 10.59395
869.7466, 26.55381
870.2287, 39.41288
870.7108, 36.82360
871.1929, 28.69134
871.6750, 22.62319
872.1572, 18.71337
872.6393, 14.58468
873.1214, 9.375532
873.6035, 5.571376
874.0856, 5.397753
874.5677, 7.197608
875.0499, 10.85925
875.5320, 14.49260
876.0141, 12.41999
876.4962, 5.108079
876.9783, 1.073483
877.4604, 6.589606
877.9426, 17.92389
878.4247, 33.29663
878.9068, 49.55457
879.3889, 51.73466
879.8710, 40.01145
880.3531, 31.27666
880.8353, 32.55282
881.3174, 34.78671
881.7995, 25.71909
882.2816, 8.641729
882.7637, 7.056269
883.2458, 24.17536
883.7280, 32.02237
884.2101, 23.41022
884.6922, 12.61325
885.1743, 8.135109
885.6564, 8.181477
886.1385, 9.394100
886.6207, 12.98770
887.1028, 12.00526
887.5849, 2.519661
888.0670, 2.725280
888.5491, 1.235425
889.0313, 1.834619
889.5134, 6.0461000E-02
889.9955, 3.322941
890.4776, 6.678670
890.9597, 30.72995
891.4418, 44.67186
891.9240, 40.99828
892.4061, 31.10170
892.8882, 15.78249
893.3703, 0.7646600
893.8524, 1.446743
894.3345, 3.360916
894.8167, 0.2651210
895.2988, 0.9360530
895.7809, 0.5198140
896.2630, 4.685777
896.7451, 11.44009
897.2272, 18.35887
897.7094, 23.51102
898.1915, 22.34400
898.6736, 13.18440
899.1557, 3.728273
899.6378, 0.1699460
900.1199, 0.2921590
900.6021, 2.804162
901.0842, 0.1723110
901.5663, 8.680695
902.0484, 39.87729
902.5305, 56.84999
903.0126, 38.93647
903.4948, 10.56198
903.9769, 9.714681
904.4590, 27.27457
904.9411, 36.21504
905.4232, 35.60645
905.9053, 27.52201
906.3875, 12.77824
906.8696, 0.1496120
907.3517, 2.711705
907.8338, 2.181915
908.3159, 4.097647
908.7980, 2.955324
909.2802, 11.22644
909.7623, 32.34391
910.2444, 45.27603
910.7265, 38.04050
911.2086, 24.45727
911.6907, 24.91211
912.1729, 39.52965
912.6550, 41.18382
913.1371, 23.31041
913.6192, 13.35176
914.1013, 19.03278
914.5834, 28.00086
915.0656, 33.31540
915.5477, 35.61488
916.0298, 36.56197
916.5119, 36.79957
916.9940, 33.13869
917.4761, 20.81119
917.9583, 11.35542
918.4404, 8.142288
918.9225, 8.115129
919.4046, 8.858260
919.8867, 10.76334
920.3688, 16.13175
920.8510, 30.55818
921.3331, 36.37194
921.8152, 20.57073
922.2973, 7.747014
922.7794, 12.52316
923.2615, 24.36098
923.7437, 31.65025
924.2258, 32.88212
924.7079, 28.24981
925.1900, 12.35149
925.6721, 0.3740260
926.1542, 1.945593
926.6364, 3.099927
927.1185, 9.800523
927.6006, 25.30215
928.0827, 26.26991
928.5648, 10.69118
929.0469, 1.246634
929.5291, 20.61015
930.0112, 39.08258
930.4933, 29.04821
930.9754, 9.023251
931.4575, 2.023157
931.9396, 6.432573
932.4218, 9.682773
932.9039, 7.241709
933.3860, 5.612380
933.8681, 14.17527
934.3502, 23.64407
934.8323, 20.09612
935.3145, 8.884530
935.7966, 0.5752030
936.2787, 0.5674100
936.7608, 0.6771070
937.2429, 0.9211490
937.7250, 8.988788
938.2072, 10.52611
938.6893, 8.752310
939.1714, 13.30645
939.6535, 21.50974
940.1356, 20.08584
940.6177, 7.334753
941.0999, 1.714893
941.5820, 4.218005
942.0641, 16.42895
942.5462, 17.49964
943.0283, 10.20173
943.5104, 7.622952
943.9926, 9.714385
944.4747, 15.94763
944.9568, 26.57821
945.4389, 33.52716
945.9210, 28.49581
946.4031, 16.12298
946.8853, 7.669421
947.3674, 3.292663
947.8495, 7.307451
948.3316, 21.45787
948.8137, 27.85673
949.2958, 18.51118
949.7780, 4.640982
950.2601, 1.743833
950.7422, 1.397614
951.2243, 2.257396
951.7064, 9.538753
952.1885, 17.16174
952.6707, 26.24404
953.1528, 30.38431
953.6349, 24.75502
954.1170, 16.05461
954.5991, 14.16817
955.0812, 18.81186
955.5634, 20.85156
956.0455, 19.68708
956.5276, 17.67535
957.0097, 14.80159
957.4918, 11.46053
957.9739, 6.499915
958.4561, 2.508187
958.9382, 4.899064
959.4203, 14.56324
959.9024, 21.28022
960.3845, 24.20153
960.8666, 25.91931
961.3488, 27.54914
961.8309, 26.95899
962.3130, 20.95435
962.7951, 12.80677
963.2772, 9.080026
963.7593, 10.60386
964.2415, 12.32196
964.7236, 14.43787
965.2057, 15.52022
965.6878, 16.28494
966.1699, 15.51491
966.6520, 12.47885
967.1342, 7.486451
967.6163, 0.8146570
968.0984, 2.055680
968.5805, 5.923643
969.0626, 2.591271
969.5447, 2.627384
970.0269, 2.397296
970.5090, 2.399432
970.9911, 11.87818
971.4732, 25.88664
971.9553, 30.09722
972.4374, 19.58039
972.9196, 12.28171
973.4017, 11.28171
973.8838, 13.01779
974.3659, 20.37043
974.8480, 26.48239
975.3301, 23.73904
975.8123, 14.73654
976.2944, 8.181638
976.7765, 5.657476
977.2586, 4.893849
977.7407, 7.083632
978.2228, 8.888251
978.7050, 6.923566
979.1871, 5.368458
979.6692, 9.643585
980.1513, 18.09716
980.6334, 24.20276
981.1155, 25.54555
981.5977, 26.14911
982.0798, 28.51727
982.5619, 28.82116
983.0440, 21.55334
983.5261, 13.72868
984.0082, 14.04857
984.4904, 21.18239
984.9725, 27.26542
985.4546, 29.36295
985.9367, 30.43569
986.4188, 30.90733
986.9009, 32.05859
987.3831, 37.53024
987.8652, 42.11996
988.3473, 37.35982
988.8294, 25.49711
989.3115, 18.36693
989.7936, 20.32369
990.2758, 24.89940
990.7579, 35.78458
991.2400, 41.51254
991.7221, 27.41793
992.2042, 8.728937
992.6863, 6.189156
993.1685, 18.02959
993.6506, 25.20044
994.1327, 18.64405
994.6148, 14.85731
995.0969, 29.64079
995.5790, 40.67976
996.0612, 23.50546
996.5433, 0.3068510
997.0254, 2.100915
997.5075, 26.61432
997.9896, 37.93113
998.4717, 19.38140
998.9539, 0.3851230
999.4360, 2.154847
999.9181, 0.9417410
1000.400, 2.865409
1000.882, 5.096394
1001.364, 1.654350
1001.847, 8.472149
1002.329, 21.74982
1002.811, 32.95127
1003.293, 37.10645
1003.775, 25.28360
1004.257, 12.80089
1004.739, 11.15321
1005.221, 14.50313
1005.703, 15.71144
1006.186, 14.11809
1006.668, 11.55221
1007.150, 7.916496
1007.632, 5.795506
1008.114, 7.524423
1008.596, 9.760980
1009.078, 12.03710
1009.560, 12.32533
1010.043, 5.511891
1010.525, 2.302635
1011.007, 1.696919
1011.489, 1.965007
1011.971, 8.806785
1012.453, 26.79283
1012.935, 38.39615
1013.417, 29.77171
1013.899, 14.28370
1014.382, 5.268117
1014.864, 3.657590
1015.346, 6.581993
1015.828, 14.52272
1016.310, 21.45767
1016.792, 25.55960
1017.274, 27.48260
1017.756, 25.55948
1018.239, 23.43684
1018.721, 27.01400
1019.203, 33.15191
1019.685, 32.03770
1020.167, 20.52410
1020.649, 9.862183
1021.131, 1.484735
1021.613, 2.398062
1022.095, 4.122431
1022.578, 11.45300
1023.060, 9.001187
1023.542, 0.2343620
1024.024, 1.130927
1024.506, 0.4625390
1024.988, 0.8677250
1025.470, 13.73348
1025.952, 25.90753
1026.435, 29.76161
1026.917, 31.33447
1027.399, 37.01283
1027.881, 42.82131
1028.363, 38.59068
1028.845, 21.25477
1029.327, 9.475424
1029.809, 10.90228
1030.292, 12.55195
1030.774, 10.37764
1031.256, 7.227410
1031.738, 3.184998
1032.220, 1.264515
1032.702, 8.860789
1033.184, 27.66810
1033.666, 38.48402
1034.148, 34.61909
1034.630, 29.56832
1035.113, 23.05285
1035.595, 18.53102
1036.077, 21.29439
1036.559, 25.45556
1037.041, 19.32570
1037.523, 2.171022
1038.005, 2.289395
1038.487, 20.20304
1038.970, 32.48519
1039.452, 25.38919
1039.934, 16.98795
1040.416, 16.20629
1040.898, 17.18939
1041.380, 11.68254
1041.862, 0.7065450
1042.344, 1.220711
1042.826, 2.173498
1043.309, 3.427157
1043.791, 23.72348
1044.273, 35.71440
1044.755, 26.74548
1045.237, 13.03086
1045.719, 11.64118
1046.201, 19.38563
1046.683, 21.07405
1047.166, 13.90299
1047.648, 10.40251
1048.130, 12.36251
1048.612, 12.76510
1049.094, 8.353539
1049.576, 3.853389
1050.058, 2.763565
1050.540, 5.196601
1051.022, 12.69314
1051.505, 26.45384
1051.987, 32.84262
1052.469, 30.97366
1052.951, 26.26172
1053.433, 19.13783
1053.915, 14.23888
1054.397, 15.19375
1054.879, 18.31520
1055.361, 15.86545
1055.844, 8.720379
1056.326, 8.716637
1056.808, 15.80485
1057.290, 15.61826
1057.772, 5.844557
1058.254, 4.375127
1058.736, 21.61275
1059.218, 41.15466
1059.701, 38.85757
1060.183, 22.89191
1060.665, 24.27760
1061.147, 38.81611
1061.629, 42.12455
1062.111, 32.91052
1062.593, 25.31720
1063.075, 24.79856
1063.557, 25.50296
1064.040, 21.00137
1064.522, 15.51398
1065.004, 17.88538
1065.486, 24.85021
1065.968, 29.94251
1066.450, 31.96903
1066.932, 27.65062
1067.414, 17.32749
1067.896, 9.115830
1068.379, 8.628036
1068.861, 11.19186
1069.343, 11.93104
1069.825, 12.43587
1070.307, 14.94306
1070.789, 19.03410
1071.271, 25.72096
1071.753, 33.15486
1072.236, 33.57314
1072.718, 22.34242
1073.200, 11.88578
1073.682, 13.82696
1074.164, 17.46900
1074.646, 14.47735
1075.128, 7.484518
1075.610, 2.156029
1076.093, 9.041968
1076.575, 10.16091
1077.057, 1.866291
1077.539, 5.136541
1078.021, 0.7838290
1078.503, 1.949332
1078.985, 2.122644
1079.467, 0.9733010
1079.949, 3.395632
1080.432, 4.422634
1080.914, 2.745406
1081.396, 1.486106
1081.878, 2.734769
1082.360, 1.044782
1082.842, 2.573921
1083.324, 7.280533
1083.806, 12.24337
1084.288, 18.04344
1084.771, 23.23610
1085.253, 27.06865
1085.735, 29.02720
1086.217, 26.27125
1086.699, 16.77826
1087.181, 7.512577
1087.663, 1.153557
1088.145, 3.064359
1088.628, 1.512814
1089.110, 16.01053
1089.592, 26.73257
1090.074, 32.87325
1090.556, 31.57832
1091.038, 22.37050
1091.520, 20.73906
1092.002, 28.74974
1092.484, 28.03583
1092.967, 13.66837
1093.449, 5.657728
1093.931, 15.34661
1094.413, 29.03868
1094.895, 28.21872
1095.377, 18.38505
1095.859, 22.58506
1096.341, 38.15090
1096.823, 38.77430
1097.306, 24.12631
1097.788, 11.98590
1098.270, 8.622908
1098.752, 11.90977
1099.234, 22.24755
1099.716, 31.95210
1100.198, 22.58246
1100.680, 6.886646
1101.163, 16.56394
1101.645, 40.62096
1102.127, 49.48393
1102.609, 40.12736
1103.091, 24.99906
1103.573, 9.393250
1104.055, 0.1748390
1104.537, 8.318103
1105.020, 18.30446
1105.502, 10.63562
1105.984, 1.430788
1106.466, 0.2202690
1106.948, 9.942249
1107.430, 16.76515
1107.912, 17.32424
1108.394, 15.72778
1108.876, 11.74532
1109.359, 10.15558
1109.841, 16.48267
1110.323, 21.54317
1110.805, 16.39048
1111.287, 9.084246
1111.769, 10.57972
1112.251, 19.54586
1112.733, 26.14922
1113.215, 29.39188
1113.698, 30.58981
1114.180, 31.42692
1114.662, 27.39351
1115.144, 12.35032
1115.626, 0.5773330
1116.108, 2.018171
1116.590, 4.017168
1117.072, 10.87776
1117.555, 18.58793
1118.037, 22.31808
1118.519, 21.45159
1119.001, 20.27398
1119.483, 19.55439
1119.965, 15.68287
1120.447, 6.263483
1120.929, 0.5049220
1121.411, 4.676646
1121.894, 16.67620
1122.376, 22.29276
1122.858, 22.60297
1123.340, 23.73889
1123.822, 25.29298
1124.304, 22.65215
1124.786, 15.43134
1125.268, 8.273499
1125.750, 3.607029
1126.233, 3.823905
1126.715, 16.48177
1127.197, 30.39828
1127.679, 26.78511
1128.161, 16.85540
1128.643, 22.52584
1129.125, 37.46239
1129.607, 36.94683
1130.090, 16.66949
1130.572, 3.873590
1131.054, 17.09557
1131.536, 32.30710
1132.018, 42.28517
1132.500, 44.23467
1132.982, 28.51041
1133.464, 9.275567
1133.947, 4.646250
1134.429, 13.31230
1134.911, 23.39245
1135.393, 35.96379
1135.875, 39.99552
1136.357, 27.01252
1136.839, 16.16353
1137.321, 8.622759
1137.803, 7.444282
1138.286, 18.37538
1138.768, 31.93808
1139.250, 33.06355
1139.732, 23.50283
1140.214, 20.89084
1140.696, 26.70704
1141.178, 25.81367
1141.660, 16.10695
1142.142, 13.93474
1142.625, 25.05343
1143.107, 35.79328
1143.589, 34.07250
1144.071, 27.18267
1144.553, 27.35504
1145.035, 32.19296
1145.517, 36.56318
1145.999, 38.65992
1146.482, 31.17187
1146.964, 15.75665
1147.446, 4.135032
1147.928, 0.6728640
1148.410, 0.2002910
1148.892, 1.720991
1149.374, 1.153333
1149.856, 8.761760
1150.339, 19.66523
1150.821, 22.59812
1151.303, 21.19831
1151.785, 22.14579
1152.267, 25.07770
1152.749, 24.15867
1153.231, 16.52957
1153.713, 10.86745
1154.195, 12.85892
1154.677, 12.28475
1155.160, 0.7994320
1155.642, 3.468904
1156.124, 2.154937
1156.606, 5.923024
1157.088, 6.976504
1157.570, 0.7867280
1158.052, 0.5924640
1158.534, 14.34010
1159.017, 22.54397
1159.499, 24.06035
1159.981, 19.89770
1160.463, 9.158867
1160.945, 3.862857
1161.427, 13.95606
1161.909, 27.89074
1162.391, 23.14234
1162.874, 7.522316
1163.356, 11.80782
1163.838, 27.22971
1164.320, 20.22682
1164.802, 3.334612
1165.284, 1.573050
1165.766, 14.94543
1166.248, 35.86505
1166.730, 29.61893
1167.213, 18.25510
1167.695, 21.43953
1168.177, 26.07558
1168.659, 15.46393
1169.141, 2.886315
1169.623, 8.901875
1170.105, 27.75030
1170.587, 38.77329
1171.069, 38.09630
1171.552, 31.88010
1172.034, 9.355700
1172.516, 0.1511890
1172.998, 20.78894
1173.480, 36.28529
1173.962, 27.04505
1174.444, 11.51867
1174.926, 7.743573
1175.409, 13.47352
1175.891, 23.05087
1176.373, 37.54603
1176.855, 37.83760
1177.337, 23.44781
1177.819, 17.19135
1178.301, 23.17051
1178.783, 31.76474
1179.266, 38.44389
1179.748, 41.62391
1180.230, 38.60199
1180.712, 33.04663
1181.194, 31.56493
1181.676, 31.41014
1182.158, 28.19266
1182.640, 22.03794
1183.122, 10.58761
1183.604, 3.269498
1184.087, 0.5374340
1184.569, 4.983487
1185.051, 14.35054
1185.533, 8.388561
1186.015, 3.526231
1186.497, 8.752913
1186.979, 14.65093
1187.461, 12.56570
1187.944, 8.508882
1188.426, 14.32403
1188.908, 26.81514
1189.390, 24.68123
1189.872, 0.5095700
1190.354, 4.075334
1190.836, 1.164293
1191.318, 2.476823
1191.801, 3.561357
1192.283, 0.4659530
1192.765, 7.362869
1193.247, 14.97023
1193.729, 15.49934
1194.211, 12.28364
1194.693, 14.55172
1195.175, 19.32563
1195.657, 17.35765
1196.140, 10.79842
1196.622, 7.871120
1197.104, 9.765453
1197.586, 12.71953
1198.068, 15.16164
1198.550, 18.10949
1199.032, 27.18714
1199.514, 29.70943
1199.996, 9.404108
1200.479, 0.7515950
1200.961, 2.456567
1201.443, 25.17747
1201.925, 35.32934
1202.407, 33.27872
1202.889, 33.96537
1203.371, 40.60087
1203.853, 38.99380
1204.336, 24.70536
1204.818, 13.76493
1205.300, 7.297278
1205.782, 6.742753
1206.264, 13.37971
1206.746, 23.27081
1207.228, 32.66654
1207.710, 39.91541
1208.193, 40.67190
1208.675, 36.01965
1209.157, 25.36143
1209.639, 12.48976
1210.121, 10.38767
1210.603, 17.64231
1211.085, 17.49161
1211.567, 3.055563
1212.049, 0.9117800
1212.531, 1.815168
1213.014, 8.569017
1213.496, 21.50956
1213.978, 31.49417
1214.460, 34.33483
1214.942, 32.68356
1215.424, 29.03240
1215.906, 24.73392
1216.388, 23.89906
1216.871, 25.41428
1217.353, 29.39335
1217.835, 38.39042
1218.317, 44.19764
1218.799, 44.55407
1219.281, 43.02586
1219.763, 41.10009
1220.245, 37.48012
1220.728, 30.76555
1221.210, 22.57966
1221.692, 13.93268
1222.174, 5.963788
1222.656, 7.277375
1223.138, 13.44210
1223.620, 19.90416
1224.102, 24.26394
1224.584, 21.02998
1225.067, 9.850677
1225.549, 2.018562
1226.031, 4.340346
1226.513, 6.894534
1226.995, 5.240025
1227.477, 4.490605
1227.959, 5.489181
1228.441, 10.00635
1228.923, 14.98148
1229.406, 19.21427
1229.888, 20.51976
1230.370, 19.27888
1230.852, 18.91661
1231.334, 19.47760
1231.816, 16.52080
1232.298, 10.23343
1232.780, 13.05218
1233.263, 27.06199
1233.745, 36.76766
1234.227, 33.35011
1234.709, 24.41700
1235.191, 13.87517
1235.673, 7.841593
1236.155, 19.64795
1236.637, 33.97674
1237.120, 33.29471
1237.602, 23.26497
1238.084, 11.35375
1238.566, 0.5727540
1239.048, 0.5371430
1239.530, 7.541039
1240.012, 12.32203
1240.494, 7.470685
1240.976, 4.199114
1241.458, 2.7830999E-02
1241.941, 3.245373
1242.423, 4.773553
1242.905, 0.0000000E+00
##END=



