##NAMES=Isocubanite
##RRUFFID=R090050
##IDEAL CHEMISTRY=Cu^1+^Fe^2+^Fe^3+^S^2-^_3_
##LOCALITY=Henderson #2 mine, Chibougamau, Quebec, Canada
##OWNER=RRUFF
##SOURCE=Lloyd Twaites LT1378
##DESCRIPTION=The sample was obtained by heating cubanite, R061068. It was heated first at T = 200°C for a day, followed by T = 160°C for five weeks.
##STATUS=The identification of this mineral is confirmed by single-crystal X-ray diffraction and chemical analysis.
##URL=rruff.info/R090050
##MEASURED CHEMISTRY=Cu_1.00_Fe_2.00_S_3.00_
110.3458, 0.0000000E+00
110.8279, 5.1178001E-02
111.3100, 2.143097
111.7922, 5.204224
112.2743, 9.523132
112.7564, 12.64124
113.2385, 11.24530
113.7206, 8.452728
114.2027, 7.466949
114.6849, 11.57352
115.1670, 20.75531
115.6491, 25.67059
116.1312, 32.86758
116.6133, 36.33188
117.0954, 33.41223
117.5776, 26.22250
118.0597, 17.66296
118.5418, 9.187592
119.0239, 0.5818180
119.5060, 2.259430
119.9881, 1.379517
120.4703, 7.094177
120.9524, 15.67407
121.4345, 26.10522
121.9166, 35.20746
122.3987, 39.10947
122.8808, 36.27206
123.3630, 33.95761
123.8451, 33.34387
124.3272, 32.88116
124.8093, 29.95935
125.2914, 23.97321
125.7735, 17.91208
126.2557, 17.13489
126.7378, 20.86804
127.2199, 23.39749
127.7020, 20.63757
128.1841, 14.50412
128.6662, 11.46994
129.1483, 14.97101
129.6305, 20.24463
130.1126, 24.64969
130.5947, 28.61594
131.0768, 31.48917
131.5589, 32.26572
132.0410, 30.49329
132.5232, 28.45590
133.0053, 23.18564
133.4874, 17.28848
133.9695, 13.29831
134.4516, 11.52496
134.9337, 11.50409
135.4159, 12.94440
135.8980, 17.52008
136.3801, 21.93057
136.8622, 29.16910
137.3443, 36.48901
137.8264, 42.10165
138.3086, 42.63245
138.7907, 38.78564
139.2728, 34.97375
139.7549, 29.99667
140.2370, 26.61160
140.7191, 28.62991
141.2013, 32.93057
141.6834, 34.50790
142.1655, 30.55573
142.6476, 22.34213
143.1297, 15.97516
143.6118, 12.00189
144.0939, 8.929474
144.5761, 6.203583
145.0582, 3.977493
145.5403, 2.792160
146.0224, 3.358780
146.5045, 4.799438
146.9866, 4.958374
147.4688, 2.362671
147.9509, 3.4026999E-02
148.4330, 1.016418
148.9151, 6.012589
149.3972, 11.50378
149.8793, 16.96483
150.3615, 21.29895
150.8436, 22.43814
151.3257, 17.94943
151.8078, 10.44943
152.2899, 6.736404
152.7720, 9.671478
153.2542, 11.66916
153.7363, 8.441086
154.2184, 2.596237
154.7005, 1.885803
155.1826, 2.488541
155.6647, 0.4214480
156.1469, 2.569733
156.6290, 2.816422
157.1111, 3.067383
157.5932, 3.935364
158.0753, 5.459518
158.5574, 7.506760
159.0396, 10.48747
159.5217, 14.98746
160.0038, 15.30371
160.4859, 6.336823
160.9680, 1.568878
161.4501, 3.111740
161.9323, 1.141144
162.4144, 6.699585
162.8965, 8.970062
163.3786, 7.140213
163.8607, 4.551407
164.3428, 0.4421840
164.8250, 4.973373
165.3071, 6.634079
165.7892, 5.141586
166.2713, 2.331589
166.7534, 1.5656000E-02
167.2355, 1.892929
167.7177, 2.440964
168.1998, 0.2574310
168.6819, 2.687042
169.1640, 2.540039
169.6461, 1.882767
170.1282, 7.937851
170.6104, 12.93932
171.0925, 17.04996
171.5746, 19.93213
172.0567, 21.47897
172.5388, 21.68665
173.0209, 20.13341
173.5031, 15.32106
173.9852, 10.82544
174.4673, 9.989777
174.9494, 12.48605
175.4315, 15.27145
175.9136, 15.99680
176.3958, 14.72243
176.8779, 13.99635
177.3600, 15.20728
177.8421, 16.35913
178.3242, 15.91605
178.8063, 13.84778
179.2885, 11.10164
179.7706, 8.352371
180.2527, 5.331741
180.7348, 3.516266
181.2169, 2.306717
181.6990, 2.784973
182.1812, 6.809372
182.6633, 14.12695
183.1454, 21.84402
183.6275, 25.63834
184.1096, 23.09309
184.5917, 21.62965
185.0738, 21.61018
185.5560, 22.22217
186.0381, 23.36482
186.5202, 24.86006
187.0023, 25.97324
187.4844, 25.36853
187.9665, 21.39790
188.4487, 18.20898
188.9308, 16.28072
189.4129, 14.86232
189.8950, 13.14046
190.3771, 10.85966
190.8592, 8.519424
191.3414, 7.103485
191.8235, 6.162796
192.3056, 7.078720
192.7877, 12.58102
193.2698, 19.35297
193.7519, 22.48859
194.2341, 19.89073
194.7162, 14.41107
195.1983, 11.72258
195.6804, 11.94211
196.1625, 13.07562
196.6446, 16.11653
197.1268, 19.65826
197.6089, 19.91295
198.0910, 14.36745
198.5731, 7.031174
199.0552, 4.637680
199.5373, 7.910873
200.0195, 11.06253
200.5016, 10.16937
200.9837, 6.082016
201.4658, 3.465256
201.9479, 3.549271
202.4300, 6.071091
202.9122, 11.63805
203.3943, 20.80719
203.8764, 27.77975
204.3585, 25.92604
204.8406, 15.28871
205.3227, 7.755905
205.8048, 8.026825
206.2870, 11.39182
206.7691, 14.84363
207.2512, 17.93527
207.7333, 21.05800
208.2154, 25.98860
208.6975, 33.77074
209.1797, 36.16107
209.6618, 24.85878
210.1439, 12.41814
210.6260, 5.628937
211.1081, 5.626404
211.5902, 9.268204
212.0724, 13.22771
212.5545, 18.19847
213.0366, 20.79839
213.5187, 19.25403
214.0008, 16.84525
214.4829, 15.09010
214.9651, 14.49402
215.4472, 15.07899
215.9293, 17.46396
216.4114, 24.65424
216.8935, 27.05571
217.3756, 21.26584
217.8578, 13.93867
218.3399, 9.368484
218.8220, 8.422729
219.3041, 9.550232
219.7862, 10.45984
220.2683, 9.613876
220.7505, 11.25151
221.2326, 18.96138
221.7147, 26.62184
222.1968, 28.70288
222.6789, 24.03259
223.1610, 16.46400
223.6432, 11.48363
224.1253, 9.896469
224.6074, 10.14822
225.0895, 14.99933
225.5716, 19.97255
226.0537, 19.74242
226.5358, 13.15646
227.0180, 5.534637
227.5001, 4.554459
227.9822, 12.54343
228.4643, 19.53757
228.9464, 26.77864
229.4285, 31.89334
229.9107, 30.98543
230.3928, 23.02481
230.8749, 13.08772
231.3570, 7.534088
231.8391, 6.562729
232.3212, 7.058975
232.8034, 9.520218
233.2855, 12.87024
233.7676, 16.11424
234.2497, 19.22777
234.7318, 21.27823
235.2139, 19.92334
235.6961, 15.68462
236.1782, 13.59412
236.6603, 16.41495
237.1424, 21.62578
237.6245, 25.24007
238.1066, 26.46634
238.5888, 27.13330
239.0709, 29.71124
239.5530, 33.40900
240.0351, 35.31891
240.5172, 33.01419
240.9993, 28.55072
241.4815, 25.97321
241.9636, 26.00700
242.4457, 26.57280
242.9278, 25.75670
243.4099, 24.26988
243.8920, 23.65131
244.3742, 25.51125
244.8563, 28.53331
245.3384, 29.39609
245.8205, 27.07367
246.3026, 24.84511
246.7847, 24.39922
247.2668, 25.26457
247.7490, 26.97879
248.2311, 30.32507
248.7132, 33.89763
249.1953, 33.78752
249.6774, 27.98801
250.1595, 22.53334
250.6417, 20.09198
251.1238, 19.44301
251.6059, 19.26605
252.0880, 19.25655
252.5701, 18.93671
253.0522, 16.74112
253.5344, 10.95908
254.0165, 6.807236
254.4986, 6.304504
254.9807, 7.940125
255.4628, 10.33151
255.9449, 12.94525
256.4271, 14.93414
256.9092, 13.21176
257.3913, 3.927231
257.8734, 1.471664
258.3555, 1.369415
258.8376, 7.366516
259.3198, 12.03705
259.8019, 13.63403
260.2840, 13.16304
260.7661, 12.56604
261.2482, 11.53833
261.7303, 11.01529
262.2125, 11.67406
262.6946, 12.42764
263.1767, 12.60645
263.6588, 11.98210
264.1409, 10.39301
264.6230, 7.096161
265.1052, 0.4262390
265.5873, 4.535965
266.0694, 5.241943
266.5515, 2.901215
267.0336, 4.342377
267.5157, 15.97466
267.9979, 27.25470
268.4800, 30.64824
268.9621, 21.25334
269.4442, 14.41745
269.9263, 10.64679
270.4084, 8.514603
270.8906, 7.394897
271.3727, 7.046768
271.8548, 7.284348
272.3369, 7.884476
272.8190, 8.788635
273.3011, 10.35127
273.7833, 12.79350
274.2654, 15.56523
274.7475, 19.00015
275.2296, 22.70802
275.7117, 25.34903
276.1938, 25.41141
276.6760, 22.31738
277.1581, 20.30080
277.6402, 20.38422
278.1223, 20.32545
278.6044, 18.68532
279.0865, 15.86729
279.5686, 13.32903
280.0508, 12.21605
280.5329, 12.72305
281.0150, 14.27414
281.4971, 18.33049
281.9792, 21.47070
282.4613, 21.90466
282.9435, 20.24184
283.4256, 18.45045
283.9077, 17.71133
284.3898, 17.86732
284.8719, 17.53262
285.3540, 15.04510
285.8362, 14.03766
286.3183, 17.09254
286.8004, 22.09920
287.2825, 25.12402
287.7646, 24.01689
288.2467, 19.93704
288.7289, 16.87904
289.2110, 15.58307
289.6931, 14.31284
290.1752, 12.79370
290.6573, 11.16982
291.1394, 9.671738
291.6216, 8.407455
292.1037, 7.143784
292.5858, 5.098587
293.0679, 0.2663880
293.5500, 1.443802
294.0321, 7.376556
294.5143, 18.56779
294.9964, 22.80746
295.4785, 17.63165
295.9606, 8.643280
296.4427, 3.640991
296.9248, 4.160614
297.4070, 4.456345
297.8891, 4.444016
298.3712, 4.071228
298.8533, 2.803726
299.3354, 0.7054900
299.8175, 0.7642060
300.2997, 0.1363220
300.7818, 3.945068
301.2639, 6.459671
301.7460, 6.505783
302.2281, 6.190857
302.7102, 6.904327
303.1924, 8.675308
303.6745, 11.01175
304.1566, 14.06261
304.6387, 17.50780
305.1208, 17.60684
305.6029, 11.45087
306.0851, 5.069702
306.5672, 1.541260
307.0493, 0.6536250
307.5314, 1.459564
308.0135, 3.630112
308.4956, 6.947235
308.9778, 10.45062
309.4599, 15.93645
309.9420, 19.45206
310.4241, 19.29700
310.9062, 16.32866
311.3883, 11.29381
311.8705, 3.879562
312.3526, 3.459183
312.8347, 4.448959
313.3168, 3.355164
313.7989, 10.47292
314.2810, 15.43875
314.7632, 18.54207
315.2453, 19.67300
315.7274, 18.65883
316.2095, 17.25635
316.6916, 18.15616
317.1737, 22.43430
317.6559, 23.97133
318.1380, 19.34467
318.6201, 13.51411
319.1022, 11.71790
319.5843, 14.43410
320.0664, 17.51198
320.5485, 16.97189
321.0306, 12.42690
321.5128, 8.794998
321.9949, 5.432816
322.4770, 3.456131
322.9591, 3.829071
323.4412, 6.246964
323.9233, 10.19049
324.4055, 16.21265
324.8876, 23.35310
325.3697, 24.98051
325.8518, 16.53619
326.3339, 8.455261
326.8160, 4.788269
327.2982, 4.344788
327.7803, 4.390945
328.2624, 3.629654
328.7445, 2.612885
329.2266, 2.981110
329.7087, 5.310349
330.1909, 7.742981
330.6730, 10.71735
331.1551, 13.33452
331.6372, 13.68671
332.1193, 11.17160
332.6014, 8.580063
333.0836, 10.55727
333.5657, 20.27354
334.0478, 24.66040
334.5299, 17.32323
335.0120, 8.394272
335.4941, 8.228210
335.9763, 17.09897
336.4584, 25.00578
336.9405, 21.79752
337.4226, 6.091003
337.9047, 3.844162
338.3868, 5.747192
338.8690, 4.880783
339.3511, 4.297623
339.8332, 3.352539
340.3153, 1.527145
340.7974, 13.76808
341.2795, 30.95682
341.7617, 36.77235
342.2438, 20.04752
342.7259, 6.917252
343.2080, 5.004166
343.6901, 9.860672
344.1722, 15.79588
344.6544, 20.56490
345.1365, 23.10246
345.6186, 20.99629
346.1007, 8.014725
346.5828, 0.2870030
347.0649, 0.1854100
347.5471, 3.465317
348.0292, 7.345947
348.5113, 10.87770
348.9934, 13.53569
349.4755, 13.48665
349.9576, 8.894775
350.4398, 6.800705
350.9219, 9.991837
351.4040, 12.77315
351.8861, 10.94473
352.3682, 5.819809
352.8503, 2.281509
353.3325, 4.362167
353.8146, 11.81523
354.2967, 16.66399
354.7788, 15.26869
355.2609, 14.52344
355.7430, 17.26498
356.2252, 21.11288
356.7073, 22.25810
357.1894, 18.86794
357.6715, 13.42627
358.1536, 10.39888
358.6357, 9.952118
359.1179, 10.95952
359.5999, 14.82002
360.0821, 19.07538
360.5642, 22.49594
361.0463, 24.48112
361.5284, 23.89272
362.0105, 18.07269
362.4926, 3.525101
362.9748, 2.425201
363.4569, 9.400558
363.9390, 20.67445
364.4211, 22.19425
364.9032, 16.14603
365.3853, 10.26965
365.8675, 10.71017
366.3496, 16.61298
366.8317, 19.69814
367.3138, 17.91411
367.7959, 15.68988
368.2780, 13.62149
368.7602, 11.82092
369.2423, 10.42376
369.7244, 9.509514
370.2065, 8.706490
370.6886, 7.395927
371.1707, 5.024483
371.6529, 4.253647
372.1350, 5.922791
372.6171, 8.863548
373.0992, 13.13936
373.5813, 18.39056
374.0634, 22.97697
374.5456, 25.24625
375.0277, 25.15417
375.5098, 23.56714
375.9919, 18.06835
376.4740, 13.83881
376.9561, 14.92231
377.4383, 19.07182
377.9204, 20.89465
378.4025, 16.05402
378.8846, 7.486969
379.3667, 3.582672
379.8488, 5.669258
380.3310, 9.055138
380.8131, 12.76187
381.2952, 16.36482
381.7773, 19.72579
382.2594, 23.05800
382.7415, 24.97998
383.2237, 23.35832
383.7058, 18.21503
384.1879, 13.07799
384.6700, 7.418800
385.1521, 3.634117
385.6342, 4.059212
386.1164, 8.460785
386.5985, 13.51419
387.0806, 18.05423
387.5627, 21.83666
388.0448, 24.42682
388.5269, 25.91730
389.0091, 25.74632
389.4912, 21.95463
389.9733, 16.15914
390.4554, 12.06248
390.9375, 11.09280
391.4196, 11.70158
391.9018, 12.80311
392.3839, 14.36572
392.8660, 16.14616
393.3481, 18.31145
393.8302, 20.38256
394.3123, 21.61137
394.7945, 21.59320
395.2766, 21.13580
395.7587, 21.45341
396.2408, 21.95695
396.7229, 21.24754
397.2050, 18.84454
397.6872, 16.30998
398.1693, 15.52187
398.6514, 16.49377
399.1335, 17.24478
399.6156, 18.47531
400.0977, 18.83182
400.5798, 16.59634
401.0620, 12.34735
401.5441, 8.792351
402.0262, 7.835495
402.5083, 8.719772
402.9904, 7.600182
403.4725, 0.4907000
403.9547, 3.416397
404.4368, 1.277374
404.9189, 8.728020
405.4010, 10.33502
405.8831, 3.681778
406.3652, 4.946831
406.8474, 6.102844
407.3295, 3.508751
407.8116, 11.44817
408.2937, 19.17467
408.7758, 24.21158
409.2579, 24.59023
409.7401, 21.02447
410.2222, 14.94935
410.7043, 6.981987
411.1864, 2.012482
411.6685, 4.863190
412.1506, 5.155579
412.6328, 13.34130
413.1149, 18.89067
413.5970, 20.95375
414.0791, 16.63873
414.5612, 5.399620
415.0433, 6.237938
415.5255, 6.888512
416.0076, 7.663895
416.4897, 18.63873
416.9718, 23.69083
417.4539, 25.86359
417.9360, 25.58288
418.4182, 23.42586
418.9003, 20.55557
419.3824, 17.50278
419.8645, 14.43819
420.3466, 12.06852
420.8287, 10.31196
421.3109, 9.289825
421.7930, 7.667770
422.2751, 6.937904
422.7572, 9.540627
423.2393, 17.09158
423.7214, 24.29630
424.2036, 23.65063
424.6857, 15.43873
425.1678, 10.99876
425.6499, 15.17370
426.1320, 20.94524
426.6141, 21.42116
427.0963, 17.23479
427.5784, 13.21261
428.0605, 11.29793
428.5426, 10.79793
429.0247, 10.33456
429.5068, 9.742905
429.9890, 10.92832
430.4711, 15.92690
430.9532, 23.48645
431.4353, 29.44041
431.9174, 34.58257
432.3995, 36.92543
432.8817, 33.34171
433.3638, 26.43608
433.8459, 21.72236
434.3280, 20.98875
434.8101, 22.46875
435.2922, 24.11024
435.7744, 26.26287
436.2565, 26.81929
436.7386, 24.20911
437.2207, 21.17174
437.7028, 19.79904
438.1849, 19.86771
438.6671, 19.85659
439.1492, 18.67509
439.6313, 16.63029
440.1134, 15.56219
440.5955, 15.87100
441.0776, 16.69453
441.5598, 18.69396
442.0418, 20.78751
442.5240, 21.29507
443.0061, 20.02261
443.4882, 19.12134
443.9703, 22.23245
444.4524, 31.49557
444.9345, 34.60742
445.4167, 26.04057
445.8988, 16.68378
446.3809, 7.505989
446.8630, 0.7195130
447.3451, 0.6115260
447.8272, 10.91848
448.3094, 26.30426
448.7915, 32.87496
449.2736, 27.92032
449.7557, 21.83549
450.2378, 16.27171
450.7199, 11.04395
451.2021, 4.510941
451.6842, 3.032394
452.1663, 6.482750
452.6484, 1.120216
453.1305, 16.89092
453.6126, 28.03339
454.0948, 33.41866
454.5769, 34.92246
455.0590, 30.43346
455.5411, 23.20644
456.0232, 19.10809
456.5053, 21.06610
456.9875, 24.25479
457.4696, 24.71915
457.9517, 22.91199
458.4338, 20.89371
458.9159, 19.32500
459.3980, 17.84156
459.8802, 15.31054
460.3623, 11.31415
460.8444, 9.862000
461.3265, 13.90044
461.8086, 18.95968
462.2907, 22.25349
462.7729, 23.22232
463.2550, 21.65090
463.7371, 16.65532
464.2192, 9.034340
464.7013, 6.102921
465.1834, 15.60756
465.6656, 20.46472
466.1477, 13.06023
466.6298, 2.452477
467.1119, 0.7039110
467.5940, 5.802750
468.0761, 15.45241
468.5583, 20.27885
469.0404, 19.24733
469.5225, 16.97616
470.0046, 11.88010
470.4867, 8.339600
470.9688, 8.334007
471.4510, 10.75732
471.9331, 14.35373
472.4152, 18.78806
472.8973, 21.75225
473.3794, 19.13650
473.8615, 9.453957
474.3437, 3.264992
474.8258, 5.421806
475.3079, 9.521759
475.7900, 11.59843
476.2721, 11.82858
476.7542, 12.67516
477.2364, 18.11726
477.7185, 24.72108
478.2006, 23.15566
478.6827, 11.85011
479.1648, 1.710098
479.6469, 1.018631
480.1291, 0.7510070
480.6112, 1.273735
481.0933, 0.6902310
481.5754, 1.112793
482.0575, 3.968552
482.5396, 11.54068
483.0217, 15.57027
483.5038, 14.74916
483.9860, 12.91781
484.4681, 14.14007
484.9502, 18.52930
485.4323, 19.47643
485.9144, 13.64227
486.3965, 8.139893
486.8787, 6.073662
487.3608, 6.425507
487.8429, 6.999237
488.3250, 6.905968
488.8071, 7.227516
489.2892, 10.28417
489.7714, 19.06658
490.2535, 23.11608
490.7356, 18.31643
491.2177, 13.42410
491.6998, 14.13030
492.1819, 18.50143
492.6641, 20.81850
493.1462, 17.14661
493.6283, 9.706551
494.1104, 4.814545
494.5925, 2.719353
495.0746, 2.536667
495.5568, 6.048363
496.0389, 10.04290
496.5210, 12.16031
497.0031, 12.29827
497.4852, 12.15700
497.9673, 12.26210
498.4495, 13.02898
498.9316, 16.58262
499.4137, 24.02845
499.8958, 29.31867
500.3779, 27.70689
500.8600, 21.94746
501.3422, 17.88482
501.8243, 16.22466
502.3064, 15.35171
502.7885, 14.03345
503.2706, 13.05061
503.7527, 14.44386
504.2349, 18.68178
504.7170, 22.66042
505.1991, 23.18799
505.6812, 20.11510
506.1633, 19.08040
506.6454, 23.52615
507.1276, 25.97753
507.6097, 21.79347
508.0918, 14.38125
508.5739, 8.736687
509.0560, 6.741531
509.5381, 7.334961
510.0203, 10.27377
510.5024, 18.75700
510.9845, 21.21797
511.4666, 8.499214
511.9487, 1.333694
512.4308, 1.894234
512.9130, 12.87756
513.3951, 20.42287
513.8772, 18.47592
514.3593, 11.52250
514.8414, 7.388100
515.3235, 6.286118
515.8057, 6.304573
516.2878, 7.376770
516.7699, 9.156204
517.2520, 11.28469
517.7341, 13.77195
518.2162, 16.71487
518.6984, 21.92817
519.1805, 26.62167
519.6626, 26.63467
520.1447, 22.18540
520.6268, 16.91660
521.1089, 12.21217
521.5911, 8.121803
522.0732, 4.860992
522.5553, 2.219421
523.0374, 0.6687010
523.5195, 1.804268
524.0016, 2.997963
524.4838, 0.9817280
524.9659, 3.738457
525.4480, 7.208389
525.9301, 6.757286
526.4122, 3.076035
526.8943, 0.6700520
527.3765, 5.964897
527.8586, 9.019829
528.3407, 7.505722
528.8228, 5.170746
529.3049, 5.682228
529.7870, 9.004074
530.2692, 11.85003
530.7513, 11.66429
531.2334, 9.081581
531.7155, 8.042503
532.1976, 9.414963
532.6797, 10.28127
533.1619, 8.430092
533.6440, 5.907715
534.1261, 4.659241
534.6082, 4.979584
535.0903, 6.516624
535.5724, 10.93915
536.0546, 16.04305
536.5367, 15.44122
537.0188, 7.764709
537.5009, 2.497292
537.9830, 8.481743
538.4651, 22.97397
538.9473, 30.51069
539.4294, 27.34302
539.9115, 22.89532
540.3936, 17.86234
540.8757, 13.69154
541.3578, 13.34241
541.8400, 16.76209
542.3221, 19.69865
542.8042, 17.66595
543.2863, 10.52029
543.7684, 7.401276
544.2505, 13.38953
544.7326, 17.40296
545.2147, 15.88790
545.6968, 12.09624
546.1790, 9.587135
546.6611, 9.270882
547.1432, 9.757797
547.6253, 9.882126
548.1074, 9.217621
548.5895, 8.539261
549.0717, 7.601845
549.5538, 7.366776
550.0359, 9.327736
550.5180, 12.13057
551.0001, 13.73983
551.4822, 13.64155
551.9644, 12.76060
552.4465, 10.80716
552.9286, 8.651627
553.4107, 8.138100
553.8928, 9.540428
554.3749, 12.43382
554.8571, 17.35347
555.3392, 24.08347
555.8213, 24.84075
556.3034, 13.02298
556.7855, 4.193687
557.2676, 4.753754
557.7498, 9.285385
558.2319, 11.09599
558.7140, 8.762749
559.1961, 5.735374
559.6782, 5.874176
560.1603, 9.213234
560.6425, 12.31895
561.1246, 15.63554
561.6067, 17.95801
562.0888, 18.61299
562.5709, 18.37202
563.0530, 18.29658
563.5352, 18.64748
564.0173, 18.25771
564.4994, 14.85917
564.9815, 9.876801
565.4636, 8.788605
565.9457, 12.93177
566.4279, 16.50040
566.9100, 14.65990
567.3921, 9.340469
567.8742, 7.642838
568.3563, 12.02326
568.8384, 15.89801
569.3206, 17.21040
569.8027, 16.81597
570.2848, 15.61040
570.7669, 13.99807
571.2490, 11.85145
571.7311, 8.867363
572.2133, 5.236221
572.6954, 3.201096
573.1775, 4.002510
573.6596, 4.764336
574.1417, 4.944618
574.6238, 5.051613
575.1060, 5.742424
575.5881, 6.968277
576.0702, 7.820961
576.5523, 6.672615
577.0344, 4.629265
577.5165, 6.738876
577.9987, 14.47974
578.4808, 19.83499
578.9629, 17.85845
579.4450, 12.58194
579.9271, 9.944527
580.4092, 10.46397
580.8914, 10.51656
581.3735, 8.178070
581.8556, 5.053970
582.3377, 2.415108
582.8198, 0.3756330
583.3019, 0.4258500
583.7841, 0.7161030
584.2662, 3.649185
584.7483, 7.526985
585.2304, 16.46397
585.7125, 18.84698
586.1946, 7.673149
586.6768, 3.445602
587.1589, 5.131180
587.6410, 0.5289080
588.1231, 6.004326
588.6052, 6.862358
589.0873, 5.289803
589.5695, 6.097351
590.0516, 9.766884
590.5337, 12.26625
591.0158, 12.15443
591.4979, 11.43079
591.9800, 11.71014
592.4622, 12.79450
592.9443, 13.96815
593.4264, 16.04117
593.9085, 17.43903
594.3906, 15.53294
594.8727, 12.01362
595.3549, 10.69817
595.8370, 12.86456
596.3191, 16.56268
596.8012, 20.01194
597.2833, 23.88689
597.7654, 22.41161
598.2476, 8.551338
598.7297, 1.716873
599.2118, 2.227119
599.6939, 3.140617
600.1760, 10.99715
600.6581, 19.70789
601.1403, 25.36333
601.6224, 20.75399
602.1045, 6.607361
602.5866, 1.763557
603.0687, 11.35490
603.5508, 18.94854
604.0330, 12.51698
604.5151, 1.101738
604.9972, 3.836494
605.4793, 0.2279280
605.9614, 5.505203
606.4435, 12.33228
606.9257, 18.32673
607.4078, 20.00909
607.8899, 17.56208
608.3720, 14.72732
608.8541, 14.10735
609.3362, 14.64164
609.8184, 12.83415
610.3005, 4.007393
610.7826, 9.3989996E-03
611.2647, 5.192612
611.7468, 11.21114
612.2289, 12.18346
612.7111, 9.354172
613.1932, 7.450439
613.6753, 9.276291
614.1574, 13.06641
614.6395, 15.75439
615.1216, 17.33154
615.6038, 17.85426
616.0859, 16.25974
616.5680, 15.16977
617.0501, 18.27277
617.5322, 23.95554
618.0143, 26.50795
618.4965, 23.55113
618.9786, 18.56246
619.4607, 11.73485
619.9428, 4.781685
620.4249, 1.061874
620.9070, 1.323463
621.3892, 3.856491
621.8713, 7.391068
622.3534, 11.88729
622.8355, 13.42465
623.3176, 7.583176
623.7997, 4.489441
624.2819, 9.179161
624.7640, 14.88023
625.2461, 14.73233
625.7282, 8.441582
626.2103, 1.621941
626.6924, 2.503784
627.1745, 3.704201
627.6566, 0.1587070
628.1387, 9.637962
628.6208, 16.18860
629.1030, 15.19475
629.5851, 11.46053
630.0672, 13.01591
630.5493, 20.27492
631.0314, 24.35233
631.5135, 22.37507
631.9957, 18.35841
632.4778, 13.78097
632.9599, 9.278931
633.4420, 5.471809
633.9241, 2.649681
634.4063, 1.323250
634.8884, 2.627602
635.3705, 7.046227
635.8526, 10.03526
636.3347, 10.35459
636.8168, 10.94473
637.2990, 13.33784
637.7811, 16.28236
638.2632, 18.55556
638.7453, 20.01025
639.2274, 19.92137
639.7095, 15.09586
640.1917, 9.592316
640.6738, 13.40772
641.1559, 26.49976
641.6380, 34.55495
642.1201, 28.57135
642.6022, 14.95829
643.0844, 8.419609
643.5665, 14.20553
644.0486, 16.41803
644.5307, 10.70387
645.0128, 5.451546
645.4949, 6.566437
645.9771, 11.54018
646.4592, 14.89850
646.9413, 14.17230
647.4234, 12.20069
647.9055, 14.07006
648.3876, 19.62493
648.8698, 20.70853
649.3519, 14.96625
649.8340, 7.722618
650.3161, 6.0722001E-02
650.7982, 6.532921
651.2803, 7.295006
651.7625, 0.2850110
652.2446, 7.510712
652.7267, 10.65699
653.2088, 11.93974
653.6909, 13.65705
654.1730, 15.96742
654.6552, 18.20470
655.1373, 18.91087
655.6194, 19.02496
656.1015, 21.62920
656.5836, 29.38721
657.0657, 32.60349
657.5479, 25.60947
658.0300, 18.27499
658.5121, 14.16964
658.9942, 12.93141
659.4763, 13.88980
659.9584, 17.60643
660.4406, 20.81381
660.9227, 20.17779
661.4048, 16.81718
661.8869, 12.75430
662.3690, 8.228439
662.8511, 6.432259
663.3333, 11.63088
663.8154, 20.98116
664.2975, 23.22292
664.7796, 8.992706
665.2617, 0.8299710
665.7438, 2.941444
666.2260, 8.000084
666.7081, 12.39986
667.1902, 15.42040
667.6723, 16.59160
668.1544, 15.36555
668.6365, 13.59714
669.1187, 15.23258
669.6008, 20.05872
670.0829, 22.26350
670.5650, 20.06477
671.0471, 17.00625
671.5292, 15.25844
672.0114, 14.51905
672.4935, 13.43567
672.9756, 10.10781
673.4577, 9.723465
673.9398, 18.88664
674.4219, 28.19934
674.9041, 25.52496
675.3862, 13.34371
675.8683, 5.466583
676.3504, 10.91468
676.8325, 23.30692
677.3146, 26.55258
677.7968, 17.87518
678.2789, 13.68290
678.7610, 18.23540
679.2431, 24.29510
679.7252, 27.82653
680.2073, 29.60532
680.6895, 31.12690
681.1716, 32.68611
681.6537, 34.02939
682.1358, 35.42281
682.6179, 36.31398
683.1000, 35.42061
683.5822, 32.93630
684.0643, 30.78756
684.5464, 30.02652
685.0285, 30.40723
685.5106, 31.52388
685.9927, 34.88415
686.4749, 34.72443
686.9570, 24.60020
687.4391, 17.17159
687.9212, 21.83777
688.4033, 32.26047
688.8854, 35.92779
689.3676, 27.65840
689.8497, 17.48135
690.3318, 12.99511
690.8139, 12.94349
691.2960, 16.02069
691.7781, 21.85497
692.2603, 25.71932
692.7424, 24.40254
693.2245, 19.95740
693.7066, 17.98988
694.1887, 22.19601
694.6708, 21.69425
695.1530, 11.42932
695.6351, 2.297127
696.1172, 0.2547610
696.5993, 2.712463
697.0814, 4.830185
697.5635, 4.906822
698.0457, 4.543419
698.5278, 5.510895
699.0099, 7.336830
699.4920, 8.775917
699.9741, 9.782829
700.4562, 9.235687
700.9384, 5.894775
701.4205, 1.439995
701.9026, 0.8407900
702.3847, 1.453049
702.8668, 1.917259
703.3489, 16.22832
703.8311, 27.34164
704.3132, 26.46471
704.7953, 18.34584
705.2774, 9.499733
705.7595, 2.399910
706.2416, 1.031677
706.7238, 3.780182
707.2059, 14.39632
707.6880, 19.45874
708.1701, 18.02446
708.6522, 16.06679
709.1343, 16.99926
709.6164, 19.12830
710.0985, 18.64496
710.5806, 15.36228
711.0627, 10.66637
711.5449, 0.2509380
712.0270, 6.816643
712.5091, 2.570320
712.9912, 6.085068
713.4733, 8.308945
713.9554, 2.253532
714.4376, 3.558907
714.9197, 0.2172090
715.4018, 10.41077
715.8839, 13.40514
716.3660, 7.771217
716.8481, 5.852638
717.3303, 13.79768
717.8124, 23.69296
718.2945, 25.89031
718.7766, 21.00698
719.2587, 17.47593
719.7408, 17.87770
720.2230, 17.52979
720.7051, 12.22542
721.1872, 6.521637
721.6693, 7.032898
722.1514, 13.57346
722.6335, 19.72915
723.1157, 20.66779
723.5978, 17.74928
724.0799, 13.77097
724.5620, 8.503975
725.0441, 4.368095
725.5262, 2.184357
726.0084, 0.5640260
726.4905, 2.676567
726.9726, 6.375252
727.4547, 5.794853
727.9368, 3.065109
728.4189, 10.33342
728.9011, 12.66759
729.3832, 12.43773
729.8653, 11.24744
730.3474, 9.547928
730.8295, 7.413086
731.3116, 4.784439
731.7938, 2.597389
732.2759, 2.679733
732.7580, 5.063271
733.2401, 7.846657
733.7222, 11.33526
734.2043, 14.06671
734.6865, 15.54961
735.1686, 15.50017
735.6507, 12.96588
736.1328, 6.523315
736.6149, 2.561882
737.0970, 3.866333
737.5792, 7.046577
738.0613, 10.84796
738.5434, 14.16856
739.0255, 15.19190
739.5076, 13.33482
739.9897, 10.54608
740.4719, 8.747719
740.9540, 7.979927
741.4361, 8.667610
741.9182, 10.97612
742.4003, 14.06665
742.8824, 18.52850
743.3646, 22.60181
743.8467, 23.86099
744.3288, 22.35049
744.8109, 19.62511
745.2930, 12.97775
745.7751, 8.440628
746.2573, 10.61642
746.7394, 15.02266
747.2215, 16.08005
747.7036, 13.30318
748.1857, 10.07156
748.6678, 8.747093
749.1500, 8.888237
749.6321, 10.58282
750.1142, 13.82066
750.5963, 12.32977
751.0784, 2.648064
751.5605, 5.280853
752.0427, 1.855949
752.5248, 10.35239
753.0069, 16.85695
753.4890, 13.19875
753.9711, 11.20230
754.4532, 15.77348
754.9354, 19.68753
755.4175, 16.06040
755.8996, 7.817764
756.3817, 2.421776
756.8638, 3.089760
757.3459, 6.095322
757.8281, 6.501579
758.3102, 5.508812
758.7923, 9.128838
759.2744, 18.07675
759.7565, 22.88748
760.2386, 17.58820
760.7208, 8.835686
761.2029, 8.208801
761.6850, 19.07947
762.1671, 24.19386
762.6492, 19.36954
763.1313, 14.24657
763.6135, 11.30184
764.0956, 9.788849
764.5777, 9.463104
765.0598, 9.935028
765.5419, 10.59566
766.0240, 10.88846
766.5062, 11.29471
766.9883, 13.09425
767.4704, 15.72166
767.9525, 16.33871
768.4346, 14.19241
768.9167, 12.19304
769.3989, 13.11622
769.8810, 15.87660
770.3631, 16.86183
770.8452, 14.70194
771.3273, 12.85475
771.8094, 10.23567
772.2916, 9.023087
772.7737, 13.20358
773.2558, 19.66038
773.7379, 21.59210
774.2200, 15.77280
774.7021, 11.12571
775.1843, 15.71848
775.6664, 23.66051
776.1485, 27.59700
776.6306, 27.22736
777.1127, 23.78592
777.5948, 17.73975
778.0770, 10.78464
778.5591, 4.962662
779.0412, 0.1117630
779.5233, 9.0480000E-03
780.0054, 7.436501
780.4875, 13.79186
780.9697, 16.26337
781.4518, 16.39194
781.9339, 15.15033
782.4160, 12.69897
782.8981, 10.53955
783.3802, 8.264977
783.8624, 7.237427
784.3445, 8.551407
784.8266, 10.98482
785.3087, 14.07890
785.7908, 17.48553
786.2729, 19.17361
786.7551, 17.95929
787.2372, 14.71588
787.7193, 10.38421
788.2014, 5.019455
788.6835, 2.665863
789.1656, 4.619019
789.6478, 6.462013
790.1299, 4.819962
790.6120, 1.699135
791.0941, 1.984535
791.5762, 6.368912
792.0583, 11.86293
792.5404, 24.62283
793.0225, 31.56020
793.5046, 21.24603
793.9868, 4.028275
794.4689, 7.383820
794.9510, 9.838882
795.4331, 5.773323
795.9152, 8.282845
796.3973, 24.02521
796.8795, 25.60784
797.3616, 15.74776
797.8437, 6.638268
798.3258, 1.088470
798.8079, 1.038467
799.2900, 9.609360
799.7722, 24.28286
800.2543, 30.34394
800.7364, 22.35822
801.2185, 16.92628
801.7006, 17.00174
802.1827, 18.19409
802.6649, 19.12556
803.1470, 19.61061
803.6291, 19.64317
804.1112, 19.42953
804.5933, 17.67081
805.0754, 12.15988
805.5576, 6.040161
806.0397, 2.014359
806.5218, 7.9773001E-02
807.0039, 0.1889270
807.4860, 1.025841
807.9681, 3.403625
808.4503, 6.890343
808.9324, 11.15018
809.4145, 14.19072
809.8966, 16.60192
810.3787, 17.44464
810.8608, 15.68271
811.3430, 13.51347
811.8251, 13.13705
812.3072, 14.18781
812.7893, 14.08696
813.2714, 12.47251
813.7535, 10.27635
814.2357, 6.447449
814.7178, 3.164200
815.1999, 1.655197
815.6820, 1.960060
816.1641, 4.529564
816.6462, 9.580833
817.1284, 13.83598
817.6105, 13.36221
818.0926, 10.39281
818.5747, 9.338608
819.0568, 10.03278
819.5389, 10.08778
820.0211, 8.583565
820.5032, 7.733116
820.9853, 10.60321
821.4674, 16.72408
821.9495, 18.28328
822.4316, 11.39301
822.9138, 8.495514
823.3959, 14.84426
823.8780, 22.73646
824.3601, 28.59399
824.8422, 31.93520
825.3243, 31.15042
825.8065, 23.84691
826.2886, 17.63512
826.7707, 16.05905
827.2528, 16.24911
827.7349, 16.64500
828.2170, 16.54631
828.6992, 14.00266
829.1813, 8.650391
829.6634, 5.095940
830.1455, 10.70245
830.6276, 21.55855
831.1097, 22.89925
831.5919, 14.92156
832.0740, 9.891510
832.5561, 11.85516
833.0382, 15.18092
833.5203, 14.04935
834.0024, 16.12416
834.4846, 18.40428
834.9667, 16.88663
835.4488, 21.82462
835.9309, 21.47282
836.4130, 19.86050
836.8951, 18.90196
837.3773, 18.86502
837.8594, 20.44483
838.3415, 24.21457
838.8236, 25.94969
839.3057, 21.28526
839.7878, 15.43903
840.2700, 13.10223
840.7521, 13.66344
841.2342, 16.24516
841.7163, 20.10416
842.1984, 22.20276
842.6805, 19.01290
843.1627, 12.95992
843.6448, 11.76634
844.1269, 15.57926
844.6090, 19.06493
845.0911, 21.37511
845.5732, 22.98436
846.0554, 24.20938
846.5375, 24.96246
847.0196, 25.00311
847.5017, 24.44304
847.9838, 23.56715
848.4659, 19.27936
848.9481, 15.98241
849.4302, 16.55893
849.9123, 19.15244
850.3944, 22.62169
850.8765, 26.30611
851.3586, 27.01016
851.8408, 19.69089
852.3229, 11.63744
852.8050, 9.288208
853.2871, 11.06577
853.7692, 15.04352
854.2513, 19.82944
854.7335, 21.58341
855.2156, 17.35866
855.6977, 12.40417
856.1798, 19.14420
856.6619, 36.94640
857.1440, 44.21223
857.6262, 37.98096
858.1083, 31.41348
858.5904, 30.61344
859.0725, 31.50272
859.5546, 27.42451
860.0367, 28.29913
860.5189, 30.52472
861.0010, 26.19193
861.4831, 27.04790
861.9652, 30.50549
862.4473, 24.60214
862.9294, 21.04809
863.4116, 19.93872
863.8937, 20.04581
864.3758, 21.03635
864.8579, 23.00710
865.3400, 28.37270
865.8221, 33.01846
866.3043, 30.41485
866.7864, 23.18350
867.2685, 19.56027
867.7506, 22.00716
868.2327, 24.63329
868.7148, 20.48051
869.1970, 12.23735
869.6791, 8.569786
870.1612, 9.755989
870.6433, 15.70193
871.1254, 27.32594
871.6075, 35.70093
872.0897, 32.53706
872.5718, 21.96330
873.0539, 17.48927
873.5360, 22.32734
874.0181, 25.90112
874.5002, 29.04288
874.9823, 29.85594
875.4644, 27.08597
875.9465, 22.03328
876.4286, 14.32207
876.9108, 4.536903
877.3929, 0.1268080
877.8750, 7.076241
878.3571, 15.08260
878.8392, 18.87854
879.3214, 19.52460
879.8035, 17.45919
880.2856, 13.52177
880.7677, 9.016556
881.2498, 4.404724
881.7319, 1.672287
882.2141, 4.272232
882.6962, 10.77882
883.1783, 18.15168
883.6604, 25.98385
884.1425, 27.19363
884.6246, 18.63044
885.1068, 8.854660
885.5889, 7.487175
886.0710, 13.41727
886.5531, 18.31083
887.0352, 22.79037
887.5173, 24.22318
887.9995, 20.41733
888.4816, 16.11764
888.9637, 13.13468
889.4458, 12.02809
889.9279, 14.56290
890.4100, 22.30733
890.8922, 27.38628
891.3743, 30.52674
891.8564, 28.75181
892.3385, 14.67519
892.8206, 1.238281
893.3027, 6.747078
893.7849, 1.817589
894.2670, 5.692177
894.7491, 13.82022
895.2312, 19.55438
895.7133, 16.98554
896.1954, 10.61074
896.6776, 9.324722
897.1597, 12.79782
897.6418, 15.71635
898.1239, 15.79418
898.6060, 14.97343
899.0881, 16.11868
899.5703, 18.41842
900.0524, 17.07695
900.5345, 11.88186
901.0166, 6.848824
901.4987, 2.394516
901.9808, 0.3989720
902.4630, 2.901146
902.9451, 8.651863
903.4272, 13.67039
903.9093, 20.85674
904.3914, 20.41331
904.8735, 2.067261
905.3557, 11.03590
905.8378, 6.917221
906.3199, 3.800468
906.8020, 10.78623
907.2841, 13.34401
907.7662, 12.76948
908.2484, 4.752357
908.7305, 0.4712070
909.2126, 3.963646
909.6947, 10.83296
910.1768, 13.33150
910.6589, 12.41221
911.1411, 12.57011
911.6232, 15.52775
912.1053, 17.82645
912.5874, 14.22857
913.0695, 9.535629
913.5516, 13.01022
914.0338, 21.76103
914.5159, 26.57397
914.9980, 25.35337
915.4801, 21.20542
915.9622, 16.09719
916.4443, 11.24874
916.9265, 10.28370
917.4086, 13.18134
917.8907, 13.42457
918.3728, 10.02042
918.8549, 6.935608
919.3370, 5.720558
919.8192, 6.203827
920.3013, 8.563431
920.7834, 12.90888
921.2655, 15.14817
921.7476, 14.52890
922.2297, 13.09999
922.7119, 9.824051
923.1940, 7.119820
923.6761, 6.216988
924.1582, 6.929100
924.6403, 9.108826
925.1224, 13.16609
925.6046, 16.68372
926.0867, 22.21091
926.5688, 23.47952
927.0509, 11.62313
927.5330, 2.797554
928.0151, 6.598953
928.4973, 8.4266998E-02
928.9794, 7.952362
929.4615, 14.16222
929.9436, 17.73418
930.4257, 15.82326
930.9078, 12.14465
931.3900, 12.73329
931.8721, 16.65465
932.3542, 20.07430
932.8363, 21.51765
933.3184, 20.59838
933.8005, 16.29800
934.2827, 10.04680
934.7648, 4.680901
935.2469, 0.5137940
935.7290, 2.113136
936.2111, 10.33959
936.6932, 16.36658
937.1754, 14.66640
937.6575, 8.966072
938.1396, 6.227242
938.6217, 6.829491
939.1038, 5.046303
939.5859, 1.360023
940.0681, 3.934883
940.5502, 1.707001
941.0323, 8.704109
941.5144, 11.33524
941.9965, 10.51976
942.4786, 10.09280
942.9608, 9.985832
943.4429, 10.38277
943.9250, 12.42931
944.4071, 13.64527
944.8892, 12.75100
945.3713, 10.68095
945.8535, 8.000893
946.3356, 5.034615
946.8177, 3.242691
947.2998, 4.339775
947.7819, 4.782463
948.2640, 1.136971
948.7462, 2.468903
949.2283, 2.128922
949.7104, 1.365112
950.1925, 7.042542
950.6746, 14.07753
951.1567, 17.09274
951.6389, 9.669975
952.1210, 0.7755200
952.6031, 6.264023
953.0852, 6.819580
953.5673, 7.0998996E-02
954.0494, 12.72673
954.5316, 21.93092
955.0137, 22.70366
955.4958, 18.99133
955.9779, 15.52046
956.4600, 12.46522
956.9421, 10.59710
957.4242, 9.921638
957.9063, 11.43951
958.3884, 15.74368
958.8705, 18.20745
959.3527, 14.35242
959.8348, 7.051491
960.3169, 4.918663
960.7990, 8.986473
961.2811, 12.85925
961.7632, 17.03445
962.2454, 19.14546
962.7275, 17.11932
963.2096, 13.64272
963.6917, 13.85596
964.1738, 17.49775
964.6559, 18.86126
965.1381, 14.76818
965.6202, 13.55753
966.1023, 19.01057
966.5844, 23.21764
967.0665, 21.73209
967.5486, 17.75072
968.0308, 15.71273
968.5129, 15.90063
968.9950, 15.66527
969.4771, 12.81015
969.9592, 11.63944
970.4413, 17.13382
970.9235, 21.70793
971.4056, 16.93225
971.8877, 7.118912
972.3698, 1.924210
972.8519, 3.940620
973.3340, 6.795944
973.8162, 5.454453
974.2983, 4.989304
974.7804, 12.71326
975.2625, 22.11740
975.7446, 22.45419
976.2267, 15.04433
976.7089, 9.626167
977.1910, 10.97718
977.6731, 13.03672
978.1552, 7.769409
978.6373, 11.32251
979.1194, 3.596329
979.6016, 12.91154
980.0837, 17.75764
980.5658, 16.21886
981.0479, 14.17521
981.5300, 15.74429
982.0121, 13.10037
982.4943, 16.26135
982.9764, 10.81227
983.4585, 8.304703
983.9406, 8.825874
984.4227, 7.434074
984.9048, 2.245018
985.3870, 0.5338360
985.8691, 6.084206
986.3512, 18.34361
986.8333, 20.39175
987.3154, 10.40048
987.7975, 4.347061
988.2797, 3.411751
988.7618, 4.927551
989.2439, 8.231110
989.7260, 12.99084
990.2081, 20.00358
990.6902, 28.35892
991.1724, 29.10373
991.6545, 17.96804
992.1366, 9.002434
992.6187, 2.267952
993.1008, 1.088219
993.5829, 0.1732790
994.0651, 4.812958
994.5472, 13.36256
995.0293, 26.00562
995.5114, 30.70612
995.9935, 19.78848
996.4756, 11.91819
996.9578, 10.92947
997.4399, 11.85437
997.9220, 13.67673
998.4041, 15.43884
998.8862, 13.88786
999.3683, 8.592911
999.8505, 6.125023
1000.333, 11.39590
1000.815, 15.43761
1001.297, 12.87810
1001.779, 9.622131
1002.261, 11.56049
1002.743, 16.34966
1003.225, 18.55940
1003.707, 16.83749
1004.190, 14.09557
1004.672, 11.20887
1005.154, 8.440918
1005.636, 4.882103
1006.118, 2.187065
1006.600, 3.538254
1007.082, 7.526489
1007.564, 8.852844
1008.046, 5.327789
1008.529, 2.298462
1009.011, 5.210014
1009.493, 9.696350
1009.975, 10.47359
1010.457, 9.113548
1010.939, 9.392853
1011.421, 11.78776
1011.903, 13.86349
1012.385, 14.51351
1012.868, 13.81894
1013.350, 10.58502
1013.832, 6.784294
1014.314, 7.383209
1014.796, 10.44003
1015.278, 8.353622
1015.760, 1.109314
1016.242, 1.328033
1016.725, 7.223976
1017.207, 19.12796
1017.689, 23.94522
1018.171, 22.83684
1018.653, 18.21079
1019.135, 10.97838
1019.617, 6.989952
1020.099, 7.506027
1020.581, 10.31705
1021.064, 14.19425
1021.546, 17.90612
1022.028, 18.48031
1022.510, 16.35178
1022.992, 17.11298
1023.474, 20.85220
1023.956, 24.71498
1024.438, 28.28113
1024.921, 28.55015
1025.403, 22.74681
1025.885, 13.54261
1026.367, 6.378311
1026.849, 1.040619
1027.331, 3.425362
1027.813, 16.04789
1028.295, 20.94264
1028.777, 10.86051
1029.260, 0.2498700
1029.742, 1.049896
1030.224, 9.649628
1030.706, 16.45694
1031.188, 21.96368
1031.670, 22.67682
1032.152, 16.98974
1032.634, 11.12925
1033.116, 6.563774
1033.599, 2.645599
1034.081, 2.145096
1034.563, 6.116119
1035.045, 3.281677
1035.527, 9.838173
1036.009, 17.72632
1036.491, 19.58295
1036.973, 17.39671
1037.456, 7.965149
1037.938, 0.4524990
1038.420, 3.089783
1038.902, 11.97117
1039.384, 15.62186
1039.866, 11.12576
1040.348, 10.33309
1040.830, 18.53780
1041.313, 22.84445
1041.795, 15.93728
1042.277, 7.531548
1042.759, 4.741013
1043.241, 6.670746
1043.723, 11.67644
1044.205, 22.51250
1044.687, 28.24298
1045.169, 24.40391
1045.651, 20.69683
1046.134, 20.45558
1046.616, 20.91347
1047.098, 18.32145
1047.580, 14.46884
1048.062, 16.13745
1048.544, 27.42088
1049.026, 32.39266
1049.508, 20.28049
1049.991, 12.81482
1050.473, 23.37421
1050.955, 35.96445
1051.437, 36.78697
1051.919, 28.90858
1052.401, 22.38863
1052.883, 18.73900
1053.365, 16.22317
1053.848, 14.50074
1054.330, 13.55550
1054.812, 14.52998
1055.294, 15.44891
1055.776, 14.17060
1056.258, 11.54314
1056.740, 9.783234
1057.222, 9.275787
1057.704, 9.677803
1058.187, 11.33750
1058.669, 13.31873
1059.151, 16.21621
1059.633, 18.39165
1060.115, 18.17763
1060.597, 16.19176
1061.079, 13.57586
1061.561, 10.37075
1062.043, 8.856018
1062.526, 11.97667
1063.008, 14.17334
1063.490, 9.964897
1063.972, 6.405418
1064.454, 12.21700
1064.936, 22.77734
1065.418, 28.00916
1065.900, 25.70342
1066.383, 20.98578
1066.865, 12.54295
1067.347, 6.359428
1067.829, 5.176300
1068.311, 7.472992
1068.793, 14.37401
1069.275, 22.80181
1069.757, 27.70788
1070.240, 28.13376
1070.722, 26.49437
1071.204, 22.04429
1071.686, 18.03471
1072.168, 15.93456
1072.650, 14.92655
1073.132, 14.63575
1073.614, 14.78532
1074.096, 15.03896
1074.578, 15.42339
1075.061, 15.83894
1075.543, 16.27038
1076.025, 16.72021
1076.507, 17.37923
1076.989, 17.86951
1077.471, 17.18868
1077.953, 16.50587
1078.435, 18.71119
1078.918, 23.28702
1079.400, 24.60622
1079.882, 18.87530
1080.364, 13.11985
1080.846, 10.19019
1081.328, 8.960190
1081.810, 9.368332
1082.292, 10.47475
1082.774, 11.45884
1083.257, 12.02422
1083.739, 11.40421
1084.221, 8.305328
1084.703, 7.164055
1085.185, 12.83419
1085.667, 18.00475
1086.149, 15.91378
1086.631, 12.00707
1087.114, 14.28259
1087.596, 20.95642
1088.078, 23.23291
1088.560, 17.78890
1089.042, 11.80144
1089.524, 6.950294
1090.006, 3.882492
1090.488, 2.662460
1090.970, 3.663742
1091.453, 9.591637
1091.935, 17.51728
1092.417, 19.94547
1092.899, 15.16579
1093.381, 10.39691
1093.863, 9.848869
1094.345, 7.555313
1094.827, 3.928642
1095.309, 14.00045
1095.792, 11.98130
1096.274, 2.308296
1096.756, 5.939476
1097.238, 11.15047
1097.720, 15.37387
1098.202, 20.95544
1098.684, 23.26735
1099.166, 18.60621
1099.649, 12.38200
1100.131, 6.043732
1100.613, 1.831139
1101.095, 4.382858
1101.577, 13.18154
1102.059, 18.00996
1102.541, 14.67245
1103.023, 10.44110
1103.505, 4.317276
1103.988, 0.4658740
1104.470, 2.020172
1104.952, 0.8280720
1105.434, 3.583412
1105.916, 10.35543
1106.398, 15.79923
1106.880, 20.05678
1107.362, 21.28891
1107.844, 17.18342
1108.327, 12.61761
1108.809, 9.006943
1109.291, 6.028717
1109.773, 3.114227
1110.255, 0.5812610
1110.737, 0.6408620
1111.219, 0.5012660
1111.701, 0.9897460
1112.184, 4.918442
1112.666, 8.678101
1113.148, 12.38419
1113.630, 15.08102
1114.112, 15.48633
1114.594, 14.70871
1115.076, 15.30044
1115.558, 17.71869
1116.041, 16.75225
1116.523, 6.241043
1117.005, 3.118233
1117.487, 14.85907
1117.969, 26.09647
1118.451, 29.80360
1118.933, 28.84105
1119.415, 25.64906
1119.897, 20.71712
1120.380, 19.93204
1120.862, 28.00076
1121.344, 27.87164
1121.826, 13.80824
1122.308, 2.564049
1122.790, 1.9920001E-02
1123.272, 2.549187
1123.754, 8.314972
1124.236, 15.68531
1124.719, 19.21850
1125.201, 18.52762
1125.683, 15.41106
1126.165, 8.316910
1126.647, 4.914589
1127.129, 7.493355
1127.611, 13.18921
1128.093, 21.51775
1128.576, 28.22056
1129.058, 23.92312
1129.540, 9.452484
1130.022, 3.046288
1130.504, 5.357033
1130.986, 9.258545
1131.468, 14.05786
1131.950, 16.31794
1132.432, 14.02499
1132.915, 10.95895
1133.397, 12.06105
1133.879, 15.60589
1134.361, 14.84078
1134.843, 10.24993
1135.325, 7.290207
1135.807, 6.421883
1136.289, 8.776276
1136.771, 15.12958
1137.254, 20.39622
1137.736, 20.38489
1138.218, 17.37354
1138.700, 13.59071
1139.182, 9.722519
1139.664, 7.865990
1140.146, 8.066238
1140.628, 11.89955
1141.111, 18.46831
1141.593, 19.86765
1142.075, 11.82660
1142.557, 2.772507
1143.039, 3.317734
1143.521, 8.166840
1144.003, 8.656189
1144.485, 6.570480
1144.968, 4.543449
1145.450, 3.571297
1145.932, 5.728218
1146.414, 11.31844
1146.896, 17.07361
1147.378, 21.91441
1147.860, 23.47085
1148.342, 15.33094
1148.824, 6.104111
1149.307, 7.168594
1149.789, 14.16121
1150.271, 19.40653
1150.753, 21.24558
1151.235, 19.91641
1151.717, 14.77724
1152.199, 10.08190
1152.681, 7.850098
1153.163, 6.370377
1153.646, 5.955673
1154.128, 6.705956
1154.610, 7.927589
1155.092, 9.632309
1155.574, 11.56344
1156.056, 13.54905
1156.538, 15.61726
1157.020, 18.81924
1157.503, 20.50676
1157.985, 20.03456
1158.467, 17.70638
1158.949, 12.47373
1159.431, 6.292297
1159.913, 0.1145020
1160.395, 5.839897
1160.877, 3.946148
1161.359, 13.62577
1161.842, 23.20660
1162.324, 20.12495
1162.806, 15.93843
1163.288, 12.49597
1163.770, 10.43438
1164.252, 10.87833
1164.734, 12.67637
1165.216, 13.20452
1165.698, 12.31352
1166.181, 12.15073
1166.663, 12.84196
1167.145, 13.87763
1167.627, 15.37009
1168.109, 16.71194
1168.591, 17.92929
1169.073, 17.61602
1169.555, 13.70188
1170.037, 7.550812
1170.520, 4.071114
1171.002, 3.287148
1171.484, 7.600937
1171.966, 16.83375
1172.448, 19.71297
1172.930, 13.37737
1173.412, 8.619835
1173.894, 13.00374
1174.377, 19.66210
1174.859, 17.17533
1175.341, 9.462242
1175.823, 7.086052
1176.305, 8.913109
1176.787, 13.92731
1177.269, 21.24485
1177.751, 26.15273
1178.234, 27.11391
1178.716, 27.18272
1179.198, 29.94882
1179.680, 30.13096
1180.162, 16.27210
1180.644, 1.026711
1181.126, 3.287689
1181.608, 14.99187
1182.090, 21.19556
1182.573, 20.41116
1183.055, 18.69450
1183.537, 18.30629
1184.019, 16.95167
1184.501, 10.96701
1184.983, 6.794975
1185.465, 10.82448
1185.947, 15.57167
1186.429, 12.97567
1186.912, 7.079521
1187.394, 6.619225
1187.876, 12.16190
1188.358, 14.80946
1188.840, 10.21881
1189.322, 7.348816
1189.804, 8.053802
1190.286, 9.346497
1190.769, 9.371544
1191.251, 10.58078
1191.733, 17.41293
1192.215, 25.77230
1192.697, 24.20260
1193.179, 11.16394
1193.661, 0.8305210
1194.143, 8.166298
1194.625, 7.791698
1195.108, 5.907524
1195.590, 17.24359
1196.072, 18.36471
1196.554, 15.04138
1197.036, 13.30451
1197.518, 13.38720
1198.000, 18.09805
1198.482, 26.12381
1198.964, 23.12120
1199.447, 10.49837
1199.929, 6.270584
1200.411, 13.55420
1200.893, 18.78913
1201.375, 14.04877
1201.857, 7.082115
1202.339, 7.233109
1202.821, 10.51542
1203.304, 10.11733
1203.786, 8.301849
1204.268, 8.557953
1204.750, 11.12818
1205.232, 17.91820
1205.714, 27.61720
1206.196, 30.04636
1206.678, 17.14728
1207.161, 5.175087
1207.643, 6.013306
1208.125, 9.267731
1208.607, 8.037582
1209.089, 5.165054
1209.571, 3.253517
1210.053, 2.659729
1210.535, 4.249115
1211.017, 2.059959
1211.500, 9.032692
1211.982, 0.5004040
1212.464, 4.347366
1212.946, 3.892921
1213.428, 0.9354780
1213.910, 14.66880
1214.392, 26.77439
1214.874, 26.12425
1215.356, 16.60084
1215.839, 9.436638
1216.321, 4.343750
1216.803, 5.707039
1217.285, 15.26688
1217.767, 18.83012
1218.249, 13.03338
1218.731, 7.851837
1219.213, 8.000145
1219.696, 6.311852
1220.178, 10.20370
1220.660, 10.10800
1221.142, 14.85664
1221.624, 21.96558
1222.106, 22.83878
1222.588, 18.33191
1223.070, 11.31202
1223.552, 3.598686
1224.035, 0.5020980
1224.517, 4.524719
1224.999, 8.492401
1225.481, 3.916412
1225.963, 0.6468200
1226.445, 3.523842
1226.927, 10.94415
1227.409, 17.52104
1227.891, 22.23090
1228.374, 23.63452
1228.856, 21.99945
1229.338, 19.76012
1229.820, 16.89607
1230.302, 15.10229
1230.784, 15.97330
1231.266, 16.29818
1231.748, 16.77264
1232.231, 14.34623
1232.713, 3.337006
1233.195, 8.344231
1233.677, 8.421852
1234.159, 1.603386
1234.641, 8.203533
1235.123, 10.55628
1235.605, 13.98748
1236.088, 19.43110
1236.570, 20.58892
1237.052, 15.42202
1237.534, 9.484749
1238.016, 6.083435
1238.498, 5.778736
1238.980, 10.66833
1239.462, 17.84502
1239.944, 19.03279
1240.427, 15.42617
1240.909, 12.16171
1241.391, 10.69670
1241.873, 11.95348
1242.355, 15.75954
1242.837, 19.66235
1243.319, 22.74554
1243.801, 22.99822
1244.283, 14.45026
1244.766, 7.740593
1245.248, 15.35739
1245.730, 24.83765
1246.212, 21.64765
1246.694, 12.19108
1247.176, 9.158257
1247.658, 13.37572
1248.140, 16.80091
1248.622, 18.97465
1249.105, 18.74781
1249.587, 13.01550
1250.069, 9.349823
1250.551, 10.44743
1251.033, 12.51721
1251.515, 13.18679
1251.997, 14.20724
1252.479, 18.99195
1252.962, 26.04072
1253.444, 26.32333
1253.926, 19.95985
1254.408, 11.94365
1254.890, 3.039032
1255.372, 0.2877270
1255.854, 5.016747
1256.336, 12.15778
1256.818, 18.96428
1257.301, 23.68965
1257.783, 23.89279
1258.265, 21.55177
1258.747, 17.55062
1259.229, 14.06396
1259.711, 16.45731
1260.193, 18.54882
1260.675, 14.58088
1261.157, 3.671646
1261.640, 2.032604
1262.122, 2.263939
1262.604, 6.345703
1263.086, 5.707436
1263.568, 6.217667
1264.050, 12.89742
1264.532, 17.56989
1265.014, 11.86214
1265.497, 5.115463
1265.979, 9.379967
1266.461, 21.33875
1266.943, 27.25024
1267.425, 26.81298
1267.907, 20.79892
1268.389, 8.108444
1268.871, 2.823349
1269.354, 7.517067
1269.836, 14.52289
1270.318, 20.42836
1270.800, 23.35134
1271.282, 20.67871
1271.764, 16.43375
1272.246, 18.12791
1272.728, 22.02209
1273.210, 21.58376
1273.693, 18.33387
1274.175, 14.06985
1274.657, 10.38630
1275.139, 9.849136
1275.621, 12.99717
1276.103, 15.09789
1276.585, 13.08189
1277.067, 11.53456
1277.549, 10.97694
1278.032, 12.46926
1278.514, 19.82102
1278.996, 26.18866
1279.478, 24.46982
1279.960, 18.61059
1280.442, 15.79753
1280.924, 16.04152
1281.406, 21.33679
1281.889, 18.83540
1282.371, 17.81185
1282.853, 20.69462
1283.335, 13.30061
1283.817, 17.39709
1284.299, 19.00130
1284.781, 8.690849
1285.263, 0.1818620
1285.745, 6.058926
1286.228, 0.0000000E+00
##END=



